"SPL Horizontal"																																																																							
"On-Axis"		"10°"		"-10°"		"20°"		"-20°"		"30°"		"-30°"		"40°"		"-40°"		"50°"		"-50°"		"60°"		"-60°"		"70°"		"-70°"		"80°"		"-80°"		"90°"		"-90°"		"100°"		"-100°"		"110°"		"-110°"		"120°"		"-120°"		"130°"		"-130°"		"140°"		"-140°"		"150°"		"-150°"		"160°"		"-160°"		"170°"		"-170°"		"180°"	
"Frequency [Hz]"	"Sound Pessure Level [dB]  / [2.83V 1m] "	"Frequency [Hz]"	"Sound Pessure Level [dB]  / [2.83V 1m] "	"Frequency [Hz]"	"Sound Pessure Level [dB]  / [2.83V 1m] "	"Frequency [Hz]"	"Sound Pessure Level [dB]  / [2.83V 1m] "	"Frequency [Hz]"	"Sound Pessure Level [dB]  / [2.83V 1m] "	"Frequency [Hz]"	"Sound Pessure Level [dB]  / [2.83V 1m] "	"Frequency [Hz]"	"Sound Pessure Level [dB]  / [2.83V 1m] "	"Frequency [Hz]"	"Sound Pessure Level [dB]  / [2.83V 1m] "	"Frequency [Hz]"	"Sound Pessure Level [dB]  / [2.83V 1m] "	"Frequency [Hz]"	"Sound Pessure Level [dB]  / [2.83V 1m] "	"Frequency [Hz]"	"Sound Pessure Level [dB]  / [2.83V 1m] "	"Frequency [Hz]"	"Sound Pessure Level [dB]  / [2.83V 1m] "	"Frequency [Hz]"	"Sound Pessure Level [dB]  / [2.83V 1m] "	"Frequency [Hz]"	"Sound Pessure Level [dB]  / [2.83V 1m] "	"Frequency [Hz]"	"Sound Pessure Level [dB]  / [2.83V 1m] "	"Frequency [Hz]"	"Sound Pessure Level [dB]  / [2.83V 1m] "	"Frequency [Hz]"	"Sound Pessure Level [dB]  / [2.83V 1m] "	"Frequency [Hz]"	"Sound Pessure Level [dB]  / [2.83V 1m] "	"Frequency [Hz]"	"Sound Pessure Level [dB]  / [2.83V 1m] "	"Frequency [Hz]"	"Sound Pessure Level [dB]  / [2.83V 1m] "	"Frequency [Hz]"	"Sound Pessure Level [dB]  / [2.83V 1m] "	"Frequency [Hz]"	"Sound Pessure Level [dB]  / [2.83V 1m] "	"Frequency [Hz]"	"Sound Pessure Level [dB]  / [2.83V 1m] "	"Frequency [Hz]"	"Sound Pessure Level [dB]  / [2.83V 1m] "	"Frequency [Hz]"	"Sound Pessure Level [dB]  / [2.83V 1m] "	"Frequency [Hz]"	"Sound Pessure Level [dB]  / [2.83V 1m] "	"Frequency [Hz]"	"Sound Pessure Level [dB]  / [2.83V 1m] "	"Frequency [Hz]"	"Sound Pessure Level [dB]  / [2.83V 1m] "	"Frequency [Hz]"	"Sound Pessure Level [dB]  / [2.83V 1m] "	"Frequency [Hz]"	"Sound Pessure Level [dB]  / [2.83V 1m] "	"Frequency [Hz]"	"Sound Pessure Level [dB]  / [2.83V 1m] "	"Frequency [Hz]"	"Sound Pessure Level [dB]  / [2.83V 1m] "	"Frequency [Hz]"	"Sound Pessure Level [dB]  / [2.83V 1m] "	"Frequency [Hz]"	"Sound Pessure Level [dB]  / [2.83V 1m] "	"Frequency [Hz]"	"Sound Pessure Level [dB]  / [2.83V 1m] "	"Frequency [Hz]"	"Sound Pessure Level [dB]  / [2.83V 1m] "
20.5078	57.0692	20.5078	57.1552	20.5078	56.9929	20.5078	57.2487	20.5078	56.9284	20.5078	57.3475	20.5078	56.8779	20.5078	57.4495	20.5078	56.8437	20.5078	57.5526	20.5078	56.8276	20.5078	57.6547	20.5078	56.8314	20.5078	57.7537	20.5078	56.8565	20.5078	57.8474	20.5078	56.9032	20.5078	57.9336	20.5078	56.9713	20.5078	58.0098	20.5078	57.0592	20.5078	58.0735	20.5078	57.1641	20.5078	58.1222	20.5078	57.2823	20.5078	58.1533	20.5078	57.4092	20.5078	58.1646	20.5078	57.5396	20.5078	58.1547	20.5078	57.6681	20.5078	58.1226	20.5078	57.7895	20.5078	58.0684	20.5078	57.8992	20.5078	57.9932
21.2402	53.1973	21.2402	53.2061	21.2402	53.1804	21.2402	53.2067	21.2402	53.156	21.2402	53.1992	21.2402	53.1252	21.2402	53.1844	21.2402	53.0892	21.2402	53.1633	21.2402	53.05	21.2402	53.1376	21.2402	53.0097	21.2402	53.1092	21.2402	52.9706	21.2402	53.0802	21.2402	52.935	21.2402	53.0529	21.2402	52.9053	21.2402	53.0289	21.2402	52.883	21.2402	53.0096	21.2402	52.8693	21.2402	52.995	21.2402	52.8643	21.2402	52.9847	21.2402	52.8674	21.2402	52.9771	21.2402	52.8771	21.2402	52.9704	21.2402	52.8914	21.2402	52.9628	21.2402	52.908	21.2402	52.9529	21.2402	52.9249	21.2402	52.9402
21.9727	49.6316	21.9727	49.5941	21.9727	49.6464	21.9727	49.5341	21.9727	49.6383	21.9727	49.4523	21.9727	49.608	21.9727	49.35	21.9727	49.5562	21.9727	49.2288	21.9727	49.4843	21.9727	49.0914	21.9727	49.3938	21.9727	48.941	21.9727	49.2871	21.9727	48.7822	21.9727	49.1669	21.9727	48.6203	21.9727	49.0361	21.9727	48.4615	21.9727	48.8983	21.9727	48.3124	21.9727	48.7569	21.9727	48.1798	21.9727	48.6154	21.9727	48.0695	21.9727	48.4773	21.9727	47.9866	21.9727	48.3462	21.9727	47.9342	21.9727	48.2255	21.9727	47.9136	21.9727	48.119	21.9727	47.9244	21.9727	48.0306	21.9727	47.9644
22.7051	48.3973	22.7051	48.3117	22.7051	48.4435	22.7051	48.1871	22.7051	48.4501	22.7051	48.0242	22.7051	48.4172	22.7051	47.8242	22.7051	48.3449	22.7051	47.5887	22.7051	48.2339	22.7051	47.3207	22.7051	48.0853	22.7051	47.0241	22.7051	47.9009	22.7051	46.7052	22.7051	47.6833	22.7051	46.3725	22.7051	47.4359	22.7051	46.037	22.7051	47.163	22.7051	45.7128	22.7051	46.87	22.7051	45.4158	22.7051	46.5632	22.7051	45.1627	22.7051	46.2503	22.7051	44.9693	22.7051	45.9402	22.7051	44.8481	22.7051	45.6433	22.7051	44.8063	22.7051	45.3719	22.7051	44.8451	22.7051	45.1392	22.7051	44.9594
23.4375	47.3196	23.4375	47.1428	23.4375	47.444	23.4375	46.9125	23.4375	47.5165	23.4375	46.6277	23.4375	47.5373	23.4375	46.2876	23.4375	47.5064	23.4375	45.8923	23.4375	47.4229	23.4375	45.4434	23.4375	47.2856	23.4375	44.9449	23.4375	47.0933	23.4375	44.4048	23.4375	46.8443	23.4375	43.836	23.4375	46.5373	23.4375	43.2581	23.4375	46.1716	23.4375	42.6981	23.4375	45.7477	23.4375	42.1896	23.4375	45.2682	23.4375	41.7711	23.4375	44.7391	23.4375	41.4804	23.4375	44.1711	23.4375	41.3479	23.4375	43.5812	23.4375	41.3896	23.4375	42.9941	23.4375	41.6026	23.4375	42.4425	23.4375	41.9652
24.1699	48.5957	24.1699	48.4829	24.1699	48.6619	24.1699	48.3239	24.1699	48.6816	24.1699	48.1188	24.1699	48.6545	24.1699	47.8679	24.1699	48.5803	24.1699	47.5722	24.1699	48.4588	24.1699	47.2335	24.1699	48.2899	24.1699	46.855	24.1699	48.0739	24.1699	46.4424	24.1699	47.8115	24.1699	46.0044	24.1699	47.5044	24.1699	45.5536	24.1699	47.1554	24.1699	45.1076	24.1699	46.7688	24.1699	44.6882	24.1699	46.3515	24.1699	44.3208	24.1699	45.9131	24.1699	44.0315	24.1699	45.4666	24.1699	43.8436	24.1699	45.0294	24.1699	43.7734	24.1699	44.6226	24.1699	43.8266	24.1699	44.2702	24.1699	43.9974
25.6348	52.8589	25.6348	52.7937	25.6348	52.9007	25.6348	52.7067	25.6348	52.918	25.6348	52.5994	25.6348	52.9098	25.6348	52.4739	25.6348	52.8754	25.6348	52.3322	25.6348	52.8143	25.6348	52.1768	25.6348	52.7266	25.6348	52.0105	25.6348	52.6126	25.6348	51.8365	25.6348	52.4734	25.6348	51.6584	25.6348	52.3111	25.6348	51.4804	25.6348	52.1287	25.6348	51.3077	25.6348	51.9309	25.6348	51.1459	25.6348	51.7236	25.6348	51.0015	25.6348	51.5146	25.6348	50.8814	25.6348	51.3129	25.6348	50.7925	25.6348	51.1284	25.6348	50.741	25.6348	50.9707	25.6348	50.7318	25.6348	50.8484	25.6348	50.7677
26.3672	54.099	26.3672	54.0636	26.3672	54.1137	26.3672	54.0084	26.3672	54.1075	26.3672	53.9347	26.3672	54.0801	26.3672	53.844	26.3672	54.0319	26.3672	53.7384	26.3672	53.9636	26.3672	53.6202	26.3672	53.8765	26.3672	53.4924	26.3672	53.7724	26.3672	53.3584	26.3672	53.6537	26.3672	53.2218	26.3672	53.5233	26.3672	53.0868	26.3672	53.3849	26.3672	52.9576	26.3672	53.2429	26.3672	52.8387	26.3672	53.1017	26.3672	52.7341	26.3672	52.9665	26.3672	52.6476	26.3672	52.8423	26.3672	52.5827	26.3672	52.7337	26.3672	52.5421	26.3672	52.645	26.3672	52.5276	26.3672	52.5797	26.3672	52.5402
27.0996	56.152	27.0996	56.1067	27.0996	56.1847	27.0996	56.0499	27.0996	56.2039	27.0996	55.9832	27.0996	56.2089	27.0996	55.9085	27.0996	56.1995	27.0996	55.8276	27.0996	56.1758	27.0996	55.7431	27.0996	56.1381	27.0996	55.6573	27.0996	56.0875	27.0996	55.5728	27.0996	56.0252	27.0996	55.4924	27.0996	55.9528	27.0996	55.4186	27.0996	55.8726	27.0996	55.3539	27.0996	55.787	27.0996	55.3003	27.0996	55.699	27.0996	55.2597	27.0996	55.6114	27.0996	55.2332	27.0996	55.5272	27.0996	55.2214	27.0996	55.4493	27.0996	55.2247	27.0996	55.3801	27.0996	55.2429	27.0996	55.3217	27.0996	55.2755
27.832	56.8298	27.832	56.7898	27.832	56.8604	27.832	56.7415	27.832	56.8804	27.832	56.6864	27.832	56.8894	27.832	56.6263	27.832	56.8868	27.832	56.563	27.832	56.8726	27.832	56.4985	27.832	56.8469	27.832	56.4348	27.832	56.81	27.832	56.3737	27.832	56.7627	27.832	56.3168	27.832	56.7061	27.832	56.2654	27.832	56.6417	27.832	56.2206	27.832	56.5716	27.832	56.1831	27.832	56.4982	27.832	56.1535	27.832	56.4244	27.832	56.1326	27.832	56.3534	27.832	56.1211	27.832	56.2883	27.832	56.1198	27.832	56.2317	27.832	56.1298	27.832	56.1858	27.832	56.1517
29.2969	59.2194	29.2969	59.195	29.2969	59.2318	29.2969	59.1595	29.2969	59.2317	29.2969	59.1138	29.2969	59.2186	29.2969	59.0594	29.2969	59.1926	29.2969	58.9977	29.2969	59.1538	29.2969	58.9303	29.2969	59.1027	29.2969	58.8588	29.2969	59.0403	29.2969	58.7851	29.2969	58.9679	29.2969	58.7107	29.2969	58.8872	29.2969	58.6374	29.2969	58.8007	29.2969	58.5667	29.2969	58.7112	29.2969	58.5002	29.2969	58.6221	29.2969	58.4397	29.2969	58.5373	29.2969	58.3869	29.2969	58.4605	29.2969	58.3439	29.2969	58.3954	29.2969	58.3129	29.2969	58.345	29.2969	58.296	29.2969	58.3113	29.2969	58.295
30.0293	60.4191	30.0293	60.3896	30.0293	60.4359	30.0293	60.3482	30.0293	60.4398	30.0293	60.2956	30.0293	60.4306	30.0293	60.2332	30.0293	60.4087	30.0293	60.1624	30.0293	60.3743	30.0293	60.0851	30.0293	60.3283	30.0293	60.0034	30.0293	60.2714	30.0293	59.9197	30.0293	60.205	30.0293	59.8366	30.0293	60.1305	30.0293	59.7567	30.0293	60.0499	30.0293	59.6825	30.0293	59.9653	30.0293	59.6166	30.0293	59.8793	30.0293	59.5611	30.0293	59.7949	30.0293	59.518	30.0293	59.7149	30.0293	59.489	30.0293	59.6424	30.0293	59.4753	30.0293	59.5803	30.0293	59.4778	30.0293	59.5311	30.0293	59.4965
31.4941	63.2567	31.4941	63.2389	31.4941	63.2672	31.4941	63.2143	31.4941	63.2701	31.4941	63.1833	31.4941	63.2654	31.4941	63.1469	31.4941	63.2533	31.4941	63.1062	31.4941	63.2341	31.4941	63.0622	31.4941	63.2084	31.4941	63.0163	31.4941	63.1768	31.4941	62.9703	31.4941	63.1403	31.4941	62.9256	31.4941	63.1001	31.4941	62.8838	31.4941	63.0575	31.4941	62.8466	31.4941	63.0137	31.4941	62.8152	31.4941	62.9702	31.4941	62.7906	31.4941	62.9283	31.4941	62.7735	31.4941	62.8893	31.4941	62.764	31.4941	62.8542	31.4941	62.7621	31.4941	62.8239	31.4941	62.7676	31.4941	62.799	31.4941	62.7801
32.2266	63.9282	32.2266	63.9179	32.2266	63.9289	32.2266	63.8985	32.2266	63.9201	32.2266	63.8703	32.2266	63.9018	32.2266	63.8343	32.2266	63.8746	32.2266	63.7913	32.2266	63.8392	32.2266	63.7428	32.2266	63.7965	32.2266	63.6901	32.2266	63.7478	32.2266	63.6348	32.2266	63.6945	32.2266	63.5788	32.2266	63.6383	32.2266	63.5238	32.2266	63.5811	32.2266	63.4717	32.2266	63.5249	32.2266	63.4241	32.2266	63.4716	32.2266	63.3824	32.2266	63.4229	32.2266	63.3478	32.2266	63.3805	32.2266	63.3211	32.2266	63.3456	32.2266	63.3028	32.2266	63.3191	32.2266	63.2933	32.2266	63.3014	32.2266	63.2928
33.6914	66.3755	33.6914	66.3696	33.6914	66.374	33.6914	66.3564	33.6914	66.3649	33.6914	66.3364	33.6914	66.3485	33.6914	66.3102	33.6914	66.3251	33.6914	66.2783	33.6914	66.2953	33.6914	66.2418	33.6914	66.2598	33.6914	66.2016	33.6914	66.2196	33.6914	66.1587	33.6914	66.1758	33.6914	66.1144	33.6914	66.1298	33.6914	66.07	33.6914	66.0831	33.6914	66.0267	33.6914	66.0371	33.6914	65.9858	33.6914	65.9935	33.6914	65.9486	33.6914	65.9538	33.6914	65.9163	33.6914	65.9193	33.6914	65.8898	33.6914	65.8914	33.6914	65.8702	33.6914	65.8708	33.6914	65.8581	33.6914	65.8583	33.6914	65.854
34.4238	67.4119	34.4238	67.4057	34.4238	67.4112	34.4238	67.393	34.4238	67.4035	34.4238	67.3742	34.4238	67.389	34.4238	67.35	34.4238	67.3679	34.4238	67.3212	34.4238	67.3407	34.4238	67.2887	34.4238	67.3082	34.4238	67.2534	34.4238	67.2715	34.4238	67.2163	34.4238	67.2316	34.4238	67.1784	34.4238	67.1899	34.4238	67.1408	34.4238	67.1478	34.4238	67.1045	34.4238	67.107	34.4238	67.0703	34.4238	67.0688	34.4238	67.0391	34.4238	67.0346	34.4238	67.0119	34.4238	67.0056	34.4238	66.9892	34.4238	66.9827	34.4238	66.9719	34.4238	66.9666	34.4238	66.9605	34.4238	66.9576	34.4238	66.9556
35.8887	69.2727	35.8887	69.2659	35.8887	69.2722	35.8887	69.2521	35.8887	69.2643	35.8887	69.2317	35.8887	69.2494	35.8887	69.2054	35.8887	69.2276	35.8887	69.174	35.8887	69.1996	35.8887	69.1384	35.8887	69.1663	35.8887	69.0997	35.8887	69.1286	35.8887	69.0592	35.8887	69.0879	35.8887	69.0182	35.8887	69.0454	35.8887	68.978	35.8887	69.0028	35.8887	68.9398	35.8887	68.9613	35.8887	68.9047	35.8887	68.9227	35.8887	68.8737	35.8887	68.8879	35.8887	68.8476	35.8887	68.8583	35.8887	68.8269	35.8887	68.8344	35.8887	68.8122	35.8887	68.8169	35.8887	68.8036	35.8887	68.8059	35.8887	68.8015
37.3535	71.0016	37.3535	70.9932	37.3535	71.0023	37.3535	70.9775	37.3535	70.9954	37.3535	70.9548	37.3535	70.981	37.3535	70.9259	37.3535	70.9595	37.3535	70.8915	37.3535	70.9315	37.3535	70.8528	37.3535	70.8979	37.3535	70.811	37.3535	70.8597	37.3535	70.7673	37.3535	70.8179	37.3535	70.7232	37.3535	70.7741	37.3535	70.6801	37.3535	70.7297	37.3535	70.6394	37.3535	70.686	37.3535	70.6024	37.3535	70.6446	37.3535	70.5701	37.3535	70.6068	37.3535	70.5434	37.3535	70.5737	37.3535	70.523	37.3535	70.5462	37.3535	70.5093	37.3535	70.525	37.3535	70.5026	37.3535	70.5105	37.3535	70.503
38.8184	72.6594	38.8184	72.6541	38.8184	72.6571	38.8184	72.6414	38.8184	72.6472	38.8184	72.622	38.8184	72.6297	38.8184	72.5965	38.8184	72.6053	38.8184	72.5658	38.8184	72.5746	38.8184	72.5311	38.8184	72.5385	38.8184	72.4936	38.8184	72.4984	38.8184	72.4544	38.8184	72.4555	38.8184	72.415	38.8184	72.4116	38.8184	72.3764	38.8184	72.3682	38.8184	72.3398	38.8184	72.3271	38.8184	72.3061	38.8184	72.2897	38.8184	72.2759	38.8184	72.2575	38.8184	72.2498	38.8184	72.2313	38.8184	72.2282	38.8184	72.2117	38.8184	72.2113	38.8184	72.199	38.8184	72.1995	38.8184	72.193	38.8184	72.1933
39.5508	73.4236	39.5508	73.4168	39.5508	73.4221	39.5508	73.4021	39.5508	73.4124	39.5508	73.3799	39.5508	73.3947	39.5508	73.351	39.5508	73.3695	39.5508	73.3164	39.5508	73.3375	39.5508	73.2772	39.5508	73.2998	39.5508	73.2348	39.5508	73.2577	39.5508	73.1907	39.5508	73.2125	39.5508	73.1462	39.5508	73.1659	39.5508	73.103	39.5508	73.1197	39.5508	73.0621	39.5508	73.0753	39.5508	73.025	39.5508	73.0345	39.5508	72.9923	39.5508	72.9985	39.5508	72.9649	39.5508	72.9683	39.5508	72.9431	39.5508	72.9446	39.5508	72.9272	39.5508	72.9277	39.5508	72.9176	39.5508	72.9176	39.5508	72.9143
41.0156	75.0023	41.0156	74.9963	41.0156	75.0002	41.0156	74.9827	41.0156	74.9901	41.0156	74.9619	41.0156	74.9721	41.0156	74.9347	41.0156	74.9467	41.0156	74.9019	41.0156	74.9146	41.0156	74.8647	41.0156	74.8766	41.0156	74.8243	41.0156	74.8341	41.0156	74.782	41.0156	74.7885	41.0156	74.7391	41.0156	74.7414	41.0156	74.697	41.0156	74.6946	41.0156	74.6568	41.0156	74.6497	41.0156	74.6195	41.0156	74.6086	41.0156	74.5861	41.0156	74.5726	41.0156	74.5571	41.0156	74.5429	41.0156	74.5333	41.0156	74.5202	41.0156	74.5149	41.0156	74.5049	41.0156	74.5024	41.0156	74.4971	41.0156	74.4964
42.4805	76.2497	42.4805	76.2407	42.4805	76.2502	42.4805	76.2235	42.4805	76.2422	42.4805	76.1987	42.4805	76.2261	42.4805	76.1669	42.4805	76.2022	42.4805	76.1291	42.4805	76.1715	42.4805	76.0867	42.4805	76.1349	42.4805	76.0411	42.4805	76.0936	42.4805	75.9937	42.4805	76.049	42.4805	75.9463	42.4805	76.0028	42.4805	75.9006	42.4805	75.9564	42.4805	75.858	42.4805	75.9114	42.4805	75.82	42.4805	75.8693	42.4805	75.7876	42.4805	75.8312	42.4805	75.7615	42.4805	75.7981	42.4805	75.7423	42.4805	75.7707	42.4805	75.73	42.4805	75.7494	42.4805	75.7247	42.4805	75.7346	42.4805	75.7263
43.9453	77.4413	43.9453	77.4332	43.9453	77.4407	43.9453	77.4165	43.9453	77.4313	43.9453	77.3918	43.9453	77.4133	43.9453	77.36	43.9453	77.3874	43.9453	77.322	43.9453	77.3543	43.9453	77.2792	43.9453	77.3152	43.9453	77.233	43.9453	77.2713	43.9453	77.1851	43.9453	77.2243	43.9453	77.137	43.9453	77.1757	43.9453	77.0905	43.9453	77.1273	43.9453	77.0469	43.9453	77.0808	43.9453	77.0077	43.9453	77.0377	43.9453	76.9739	43.9453	76.9993	43.9453	76.9461	43.9453	76.9666	43.9453	76.9248	43.9453	76.9402	43.9453	76.9103	43.9453	76.9205	43.9453	76.9026	43.9453	76.9077	43.9453	76.9017
45.4102	78.4212	45.4102	78.4153	45.4102	78.418	45.4102	78.4005	45.4102	78.4057	45.4102	78.3773	45.4102	78.3847	45.4102	78.3466	45.4102	78.3554	45.4102	78.3093	45.4102	78.3189	45.4102	78.2666	45.4102	78.2761	45.4102	78.22	45.4102	78.2287	45.4102	78.171	45.4102	78.1782	45.4102	78.1213	45.4102	78.1263	45.4102	78.0725	45.4102	78.0751	45.4102	78.026	45.4102	78.0262	45.4102	77.9834	45.4102	77.9813	45.4102	77.9457	45.4102	77.942	45.4102	77.9137	45.4102	77.9091	45.4102	77.888	45.4102	77.8835	45.4102	77.869	45.4102	77.8655	45.4102	77.8571	45.4102	77.8552	45.4102	77.8524
47.6074	79.5744	47.6074	79.5663	47.6074	79.5735	47.6074	79.5494	47.6074	79.5635	47.6074	79.5244	47.6074	79.5447	47.6074	79.492	47.6074	79.5177	47.6074	79.4533	47.6074	79.4834	47.6074	79.4098	47.6074	79.443	47.6074	79.3629	47.6074	79.3978	47.6074	79.3143	47.6074	79.3495	47.6074	79.2657	47.6074	79.2998	47.6074	79.2187	47.6074	79.2506	47.6074	79.1749	47.6074	79.2035	47.6074	79.1354	47.6074	79.1601	47.6074	79.1013	47.6074	79.1217	47.6074	79.0733	47.6074	79.0893	47.6074	79.0517	47.6074	79.0634	47.6074	79.0368	47.6074	79.0444	47.6074	79.0285	47.6074	79.0323	47.6074	79.027
49.0723	80.1069	49.0723	80.0979	49.0723	80.1065	49.0723	80.0797	49.0723	80.0967	49.0723	80.053	49.0723	80.0777	49.0723	80.0187	49.0723	80.0502	49.0723	79.9781	49.0723	80.0152	49.0723	79.9325	49.0723	79.9738	49.0723	79.8838	49.0723	79.9277	49.0723	79.8335	49.0723	79.8784	49.0723	79.7837	49.0723	79.8278	49.0723	79.7359	49.0723	79.7778	49.0723	79.6918	49.0723	79.7302	49.0723	79.6526	49.0723	79.6864	49.0723	79.6192	49.0723	79.6478	49.0723	79.5923	49.0723	79.6152	49.0723	79.572	49.0723	79.5891	49.0723	79.5584	49.0723	79.5697	49.0723	79.5514	49.0723	79.557	49.0723	79.5509
50.5371	80.492	50.5371	80.4835	50.5371	80.4905	50.5371	80.4653	50.5371	80.4791	50.5371	80.438	50.5371	80.4581	50.5371	80.4025	50.5371	80.4281	50.5371	80.3601	50.5371	80.3902	50.5371	80.3123	50.5371	80.3456	50.5371	80.2608	50.5371	80.2961	50.5371	80.2073	50.5371	80.2433	50.5371	80.1539	50.5371	80.1891	50.5371	80.1024	50.5371	80.1357	50.5371	80.0545	50.5371	80.0847	50.5371	80.0116	50.5371	80.038	50.5371	79.9747	50.5371	79.9968	50.5371	79.9445	50.5371	79.9621	50.5371	79.9215	50.5371	79.9345	50.5371	79.9056	50.5371	79.9142	50.5371	79.897	50.5371	79.9012	50.5371	79.8955
52.7344	80.8727	52.7344	80.8623	52.7344	80.8733	52.7344	80.8423	52.7344	80.8639	52.7344	80.8134	52.7344	80.8449	52.7344	80.7768	52.7344	80.8169	52.7344	80.7336	52.7344	80.7809	52.7344	80.6856	52.7344	80.7383	52.7344	80.6344	52.7344	80.6906	52.7344	80.582	52.7344	80.6397	52.7344	80.5302	52.7344	80.5874	52.7344	80.481	52.7344	80.5356	52.7344	80.4358	52.7344	80.4863	52.7344	80.3961	52.7344	80.4409	52.7344	80.3625	52.7344	80.4008	52.7344	80.3358	52.7344	80.3668	52.7344	80.3161	52.7344	80.3394	52.7344	80.3032	52.7344	80.3188	52.7344	80.2972	52.7344	80.305	52.7344	80.2978
54.1992	81.0283	54.1992	81.0178	54.1992	81.0286	54.1992	80.9976	54.1992	81.0188	54.1992	80.9682	54.1992	80.9991	54.1992	80.9309	54.1992	80.9703	54.1992	80.8869	54.1992	80.9334	54.1992	80.838	54.1992	80.8899	54.1992	80.786	54.1992	80.8414	54.1992	80.7328	54.1992	80.7898	54.1992	80.6806	54.1992	80.7371	54.1992	80.6311	54.1992	80.6852	54.1992	80.5859	54.1992	80.6361	54.1992	80.5464	54.1992	80.5912	54.1992	80.5134	54.1992	80.5517	54.1992	80.4873	54.1992	80.5184	54.1992	80.4682	54.1992	80.4918	54.1992	80.456	54.1992	80.4718	54.1992	80.4504	54.1992	80.4583	54.1992	80.4512
56.3965	81.2274	56.3965	81.2162	56.3965	81.2285	56.3965	81.1951	56.3965	81.2193	56.3965	81.165	56.3965	81.2003	56.3965	81.1272	56.3965	81.1722	56.3965	81.083	56.3965	81.136	56.3965	81.0343	56.3965	81.0934	56.3965	80.983	56.3965	81.0461	56.3965	80.9313	56.3965	80.9959	56.3965	80.8811	56.3965	80.9449	56.3965	80.8343	56.3965	80.8952	56.3965	80.7924	56.3965	80.8485	56.3965	80.7565	56.3965	80.8063	56.3965	80.7272	56.3965	80.7696	56.3965	80.7047	56.3965	80.7389	56.3965	80.6888	56.3965	80.7146	56.3965	80.6792	56.3965	80.6963	56.3965	80.6753	56.3965	80.6839	56.3965	80.6769
58.5938	81.2162	58.5938	81.2062	58.5938	81.2151	58.5938	81.1854	58.5938	81.2028	58.5938	81.1549	58.5938	81.1799	58.5938	81.1159	58.5938	81.1472	58.5938	81.0701	58.5938	81.106	58.5938	81.0196	58.5938	81.0582	58.5938	80.9664	58.5938	81.0059	58.5938	80.913	58.5938	80.9513	58.5938	80.8614	58.5938	80.8968	58.5938	80.8137	58.5938	80.8448	58.5938	80.7713	58.5938	80.7973	58.5938	80.7353	58.5938	80.7558	58.5938	80.7061	58.5938	80.7212	58.5938	80.6836	58.5938	80.694	58.5938	80.6673	58.5938	80.6739	58.5938	80.6565	58.5938	80.6602	58.5938	80.6505	58.5938	80.6521	58.5938	80.6491
60.0586	81.3508	60.0586	81.3397	60.0586	81.3494	60.0586	81.3168	60.0586	81.3355	60.0586	81.2828	60.0586	81.3095	60.0586	81.2392	60.0586	81.2723	60.0586	81.1877	60.0586	81.2253	60.0586	81.1304	60.0586	81.1702	60.0586	81.0696	60.0586	81.1093	60.0586	81.0076	60.0586	81.0449	60.0586	80.9469	60.0586	80.9798	60.0586	80.8895	60.0586	80.9165	60.0586	80.8373	60.0586	80.8576	60.0586	80.7915	60.0586	80.8051	60.0586	80.7528	60.0586	80.7605	60.0586	80.7215	60.0586	80.7246	60.0586	80.6975	60.0586	80.6976	60.0586	80.6804	60.0586	80.6793	60.0586	80.6699	60.0586	80.669	60.0586	80.6661
62.2559	81.5849	62.2559	81.5713	62.2559	81.5867	62.2559	81.5464	62.2559	81.5768	62.2559	81.5114	62.2559	81.5554	62.2559	81.4676	62.2559	81.5234	62.2559	81.4167	62.2559	81.482	62.2559	81.3608	62.2559	81.433	62.2559	81.3023	62.2559	81.3783	62.2559	81.2435	62.2559	81.3202	62.2559	81.1867	62.2559	81.2611	62.2559	81.134	62.2559	81.2035	62.2559	81.087	62.2559	81.1494	62.2559	81.0469	62.2559	81.1006	62.2559	81.0143	62.2559	81.0585	62.2559	80.9892	62.2559	81.0237	62.2559	80.9712	62.2559	80.9964	62.2559	80.96	62.2559	80.9763	62.2559	80.9551	62.2559	80.9631	62.2559	80.9561
64.4531	81.588	64.4531	81.5736	64.4531	81.5905	64.4531	81.5479	64.4531	81.581	64.4531	81.512	64.4531	81.56	64.4531	81.4672	64.4531	81.5283	64.4531	81.4155	64.4531	81.4873	64.4531	81.3591	64.4531	81.4387	64.4531	81.3003	64.4531	81.3846	64.4531	81.2417	64.4531	81.3274	64.4531	81.1857	64.4531	81.2694	64.4531	81.1343	64.4531	81.2132	64.4531	81.0893	64.4531	81.1607	64.4531	81.0516	64.4531	81.1138	64.4531	81.0216	64.4531	81.0734	64.4531	80.9993	64.4531	81.0403	64.4531	80.9842	64.4531	81.0144	64.4531	80.9754	64.4531	80.9952	64.4531	80.9724	64.4531	80.9821	64.4531	80.9746
66.6504	81.7485	66.6504	81.734	66.6504	81.7506	66.6504	81.7079	66.6504	81.7403	66.6504	81.6711	66.6504	81.7181	66.6504	81.6253	66.6504	81.6849	66.6504	81.5724	66.6504	81.642	66.6504	81.5147	66.6504	81.5914	66.6504	81.4548	66.6504	81.5352	66.6504	81.3952	66.6504	81.4761	66.6504	81.3385	66.6504	81.4165	66.6504	81.2867	66.6504	81.3589	66.6504	81.2415	66.6504	81.3057	66.6504	81.2039	66.6504	81.2586	66.6504	81.1741	66.6504	81.2186	66.6504	81.152	66.6504	81.1863	66.6504	81.1369	66.6504	81.1615	66.6504	81.1279	66.6504	81.1437	66.6504	81.1243	66.6504	81.1319	66.6504	81.1256
69.5801	81.8694	69.5801	81.852	69.5801	81.8732	69.5801	81.8218	69.5801	81.8634	69.5801	81.7799	69.5801	81.8402	69.5801	81.7281	69.5801	81.8047	69.5801	81.6685	69.5801	81.7583	69.5801	81.6036	69.5801	81.7029	69.5801	81.5363	69.5801	81.6408	69.5801	81.4693	69.5801	81.5746	69.5801	81.4054	69.5801	81.5072	69.5801	81.3468	69.5801	81.4413	69.5801	81.2954	69.5801	81.3796	69.5801	81.2524	69.5801	81.3241	69.5801	81.218	69.5801	81.2763	69.5801	81.1922	69.5801	81.237	69.5801	81.1743	69.5801	81.2064	69.5801	81.1635	69.5801	81.184	69.5801	81.1592	69.5801	81.1691	69.5801	81.161
71.7773	82.0458	71.7773	82.0249	71.7773	82.0537	71.7773	81.9918	71.7773	82.0486	71.7773	81.9476	71.7773	82.0308	71.7773	81.8941	71.7773	82.0012	71.7773	81.8334	71.7773	81.9613	71.7773	81.7682	71.7773	81.9127	71.7773	81.7013	71.7773	81.8577	71.7773	81.6356	71.7773	81.7986	71.7773	81.574	71.7773	81.7378	71.7773	81.5187	71.7773	81.6779	71.7773	81.4717	71.7773	81.6209	71.7773	81.434	71.7773	81.5686	71.7773	81.406	71.7773	81.5223	71.7773	81.3873	71.7773	81.4826	71.7773	81.3771	71.7773	81.4495	71.7773	81.3744	71.7773	81.423	71.7773	81.378	71.7773	81.4024	71.7773	81.3875
73.9746	82.1013	73.9746	82.0827	73.9746	82.1071	73.9746	82.0517	73.9746	82.1	73.9746	82.0096	73.9746	82.0805	73.9746	81.9579	73.9746	82.0498	73.9746	81.899	73.9746	82.0094	73.9746	81.8353	73.9746	81.9613	73.9746	81.7699	73.9746	81.9077	73.9746	81.7056	73.9746	81.8512	73.9746	81.6454	73.9746	81.7941	73.9746	81.5918	73.9746	81.7388	73.9746	81.5468	73.9746	81.6871	73.9746	81.5114	73.9746	81.6405	73.9746	81.486	73.9746	81.5998	73.9746	81.4701	73.9746	81.5651	73.9746	81.4627	73.9746	81.5362	73.9746	81.4625	73.9746	81.5126	73.9746	81.4682	73.9746	81.4935	73.9746	81.4787
76.9043	82.3228	76.9043	82.3056	76.9043	82.3265	76.9043	82.2755	76.9043	82.3168	76.9043	82.2338	76.9043	82.2943	76.9043	82.1822	76.9043	82.2602	76.9043	82.1231	76.9043	82.2161	76.9043	82.0591	76.9043	82.1643	76.9043	81.9932	76.9043	82.1071	76.9043	81.9286	76.9043	82.0474	76.9043	81.8682	76.9043	81.9878	76.9043	81.8144	76.9043	81.9308	76.9043	81.7692	76.9043	81.8785	76.9043	81.7335	76.9043	81.8323	76.9043	81.7075	76.9043	81.7931	76.9043	81.6907	76.9043	81.7609	76.9043	81.6817	76.9043	81.7352	76.9043	81.6793	76.9043	81.7153	76.9043	81.6821	76.9043	81.7002	76.9043	81.6892
79.834	82.4113	79.834	82.3961	79.834	82.4136	79.834	82.3685	79.834	82.403	79.834	82.3299	79.834	82.3803	79.834	82.2821	79.834	82.3468	79.834	82.2275	79.834	82.3044	79.834	82.169	79.834	82.2556	79.834	82.1096	79.834	82.203	79.834	82.0526	79.834	82.1495	79.834	82.0006	79.834	82.0978	79.834	81.9562	79.834	82.0503	79.834	81.9206	79.834	82.0087	79.834	81.8946	79.834	81.9741	79.834	81.8779	79.834	81.9465	79.834	81.8691	79.834	81.9254	79.834	81.8667	79.834	81.9096	79.834	81.8689	79.834	81.8977	79.834	81.8738	79.834	81.8883	79.834	81.8804
82.7637	82.7197	82.7637	82.707	82.7637	82.7173	82.7637	82.6798	82.7637	82.6998	82.7637	82.6396	82.7637	82.6682	82.7637	82.5884	82.7637	82.6239	82.7637	82.5289	82.7637	82.5692	82.7637	82.4642	82.7637	82.5069	82.7637	82.3978	82.7637	82.4404	82.7637	82.3331	82.7637	82.3733	82.7637	82.2733	82.7637	82.309	82.7637	82.2211	82.7637	82.2508	82.7637	82.1783	82.7637	82.2011	82.7637	82.1454	82.7637	82.1614	82.7637	82.1222	82.7637	82.132	82.7637	82.1072	82.7637	82.1122	82.7637	82.0986	82.7637	82.1003	82.7637	82.0941	82.7637	82.0942	82.7637	82.0921	82.7637	82.0917	82.7637	82.0913
85.6934	82.9554	85.6934	82.9393	85.6934	82.9544	85.6934	82.9068	85.6934	82.9363	85.6934	82.8593	85.6934	82.9017	85.6934	82.799	85.6934	82.852	85.6934	82.7287	85.6934	82.7893	85.6934	82.6515	85.6934	82.7165	85.6934	82.5709	85.6934	82.6368	85.6934	82.4908	85.6934	82.554	85.6934	82.4146	85.6934	82.472	85.6934	82.3454	85.6934	82.3947	85.6934	82.2856	85.6934	82.3252	85.6934	82.2365	85.6934	82.266	85.6934	82.1982	85.6934	82.2182	85.6934	82.17	85.6934	82.1822	85.6934	82.1505	85.6934	82.1569	85.6934	82.138	85.6934	82.1409	85.6934	82.1312	85.6934	82.1321	85.6934	82.1292
88.623	83.0583	88.623	83.0445	88.623	83.0588	88.623	83.018	88.623	83.0459	88.623	82.9801	88.623	83.02	88.623	82.9322	88.623	82.982	88.623	82.8764	88.623	82.9334	88.623	82.8149	88.623	82.8759	88.623	82.7502	88.623	82.8119	88.623	82.6849	88.623	82.7439	88.623	82.6212	88.623	82.6748	88.623	82.5615	88.623	82.6071	88.623	82.5072	88.623	82.5436	88.623	82.4597	88.623	82.4864	88.623	82.4195	88.623	82.4373	88.623	82.3868	88.623	82.3972	88.623	82.3616	88.623	82.3667	88.623	82.3436	88.623	82.3455	88.623	82.3328	88.623	82.3332	88.623	82.3292
91.5527	82.912	91.5527	82.8927	91.5527	82.9195	91.5527	82.8625	91.5527	82.915	91.5527	82.8231	91.5527	82.8996	91.5527	82.7772	91.5527	82.8748	91.5527	82.7279	91.5527	82.8431	91.5527	82.6788	91.5527	82.8072	91.5527	82.6336	91.5527	82.7704	91.5527	82.5956	91.5527	82.7355	91.5527	82.5673	91.5527	82.7052	91.5527	82.5503	91.5527	82.6814	91.5527	82.5449	91.5527	82.665	91.5527	82.5501	91.5527	82.656	91.5527	82.5636	91.5527	82.6532	91.5527	82.5826	91.5527	82.6546	91.5527	82.6038	91.5527	82.6576	91.5527	82.6239	91.5527	82.6597	91.5527	82.6407	91.5527	82.6585	91.5527	82.6523
94.4824	83.3895	94.4824	83.3721	94.4824	83.3887	94.4824	83.3376	94.4824	83.37	94.4824	83.2879	94.4824	83.3344	94.4824	83.2258	94.4824	83.2842	94.4824	83.155	94.4824	83.2225	94.4824	83.0799	94.4824	83.1531	94.4824	83.0053	94.4824	83.0805	94.4824	82.9359	94.4824	83.0096	94.4824	82.8759	94.4824	82.9448	94.4824	82.8285	94.4824	82.8899	94.4824	82.7954	94.4824	82.8474	94.4824	82.7765	94.4824	82.8184	94.4824	82.77	94.4824	82.802	94.4824	82.7729	94.4824	82.7959	94.4824	82.7814	94.4824	82.7967	94.4824	82.7913	94.4824	82.8005	94.4824	82.7995	94.4824	82.8037	94.4824	82.8038
98.1445	83.5537	98.1445	83.5384	98.1445	83.5517	98.1445	83.5066	98.1445	83.5324	98.1445	83.4596	98.1445	83.4966	98.1445	83.3999	98.1445	83.4459	98.1445	83.3303	98.1445	83.3827	98.1445	83.2541	98.1445	83.3098	98.1445	83.1752	98.1445	83.2308	98.1445	83.0974	98.1445	83.1496	98.1445	83.0243	98.1445	83.0701	98.1445	82.9588	98.1445	82.996	98.1445	82.9032	98.1445	82.9304	98.1445	82.8584	98.1445	82.8755	98.1445	82.8242	98.1445	82.8325	98.1445	82.7996	98.1445	82.8012	98.1445	82.7827	98.1445	82.7804	98.1445	82.7717	98.1445	82.7683	98.1445	82.7651	98.1445	82.7628	98.1445	82.7621
101.807	83.7162	101.807	83.7014	101.807	83.7142	101.807	83.6708	101.807	83.6955	101.807	83.6261	101.807	83.6611	101.807	83.5697	101.807	83.613	101.807	83.505	101.807	83.5537	101.807	83.4357	101.807	83.4869	101.807	83.3659	101.807	83.4163	101.807	83.2994	101.807	83.3461	101.807	83.2397	101.807	83.2801	101.807	83.1894	101.807	83.2219	101.807	83.15	101.807	83.1738	101.807	83.1218	101.807	83.137	101.807	83.1037	101.807	83.1115	101.807	83.0937	101.807	83.0961	101.807	83.0894	101.807	83.0885	101.807	83.0881	101.807	83.0861	101.807	83.0878	101.807	83.0863	101.807	83.0872
105.469	83.8764	105.469	83.855	105.469	83.8796	105.469	83.8167	105.469	83.8646	105.469	83.7638	105.469	83.8322	105.469	83.6994	105.469	83.7846	105.469	83.6278	105.469	83.7246	105.469	83.5532	105.469	83.6562	105.469	83.4806	105.469	83.5839	105.469	83.4145	105.469	83.5126	105.469	83.3586	105.469	83.4469	105.469	83.3156	105.469	83.3907	105.469	83.2867	105.469	83.3467	105.469	83.2712	105.469	83.3161	105.469	83.2671	105.469	83.2982	105.469	83.2712	105.469	83.2909	105.469	83.2796	105.469	83.2909	105.469	83.2888	105.469	83.2945	105.469	83.2958	105.469	83.298	105.469	83.2989
109.131	84.2002	109.131	84.1799	109.131	84.2009	109.131	84.1408	109.131	84.1819	109.131	84.0852	109.131	84.1443	109.131	84.0161	109.131	84.0901	109.131	83.9373	109.131	84.0225	109.131	83.8535	109.131	83.9453	109.131	83.7697	109.131	83.8631	109.131	83.6908	109.131	83.781	109.131	83.6212	109.131	83.7037	109.131	83.5644	109.131	83.6355	109.131	83.5222	109.131	83.5797	109.131	83.4946	109.131	83.5379	109.131	83.4801	109.131	83.5101	109.131	83.4757	109.131	83.4946	109.131	83.4777	109.131	83.4882	109.131	83.4823	109.131	83.4874	109.131	83.4866	109.131	83.4884	109.131	83.4887
112.793	84.3591	112.793	84.3435	112.793	84.3552	112.793	84.3093	112.793	84.3317	112.793	84.2586	112.793	84.2898	112.793	84.1944	112.793	84.2317	112.793	84.1204	112.793	84.1606	112.793	84.0413	112.793	84.0806	112.793	83.9617	112.793	83.9963	112.793	83.8865	112.793	83.9129	112.793	83.8197	112.793	83.8353	112.793	83.7646	112.793	83.7679	112.793	83.7226	112.793	83.7139	112.793	83.6939	112.793	83.6749	112.793	83.6767	112.793	83.6507	112.793	83.6682	112.793	83.6395	112.793	83.6651	112.793	83.6383	112.793	83.6637	112.793	83.6431	112.793	83.6615	112.793	83.6503	112.793	83.657
116.455	84.4704	116.455	84.4502	116.455	84.4707	116.455	84.4115	116.455	84.4512	116.455	84.3566	116.455	84.4128	116.455	84.2889	116.455	84.3578	116.455	84.2128	116.455	84.2895	116.455	84.1332	116.455	84.2121	116.455	84.0551	116.455	84.1305	116.455	83.9834	116.455	84.0498	116.455	83.9223	116.455	83.9753	116.455	83.8744	116.455	83.9111	116.455	83.841	116.455	83.8605	116.455	83.8213	116.455	83.8249	116.455	83.8129	116.455	83.8041	116.455	83.8124	116.455	83.7959	116.455	83.8159	116.455	83.7971	116.455	83.8196	116.455	83.8037	116.455	83.8207	116.455	83.8117	116.455	83.818
120.85	84.6712	120.85	84.6446	120.85	84.6762	120.85	84.5979	120.85	84.6594	120.85	84.5338	120.85	84.6222	120.85	84.4564	120.85	84.5669	120.85	84.3707	120.85	84.4973	120.85	84.2825	120.85	84.4182	120.85	84.198	120.85	84.3351	120.85	84.123	120.85	84.254	120.85	84.0623	120.85	84.1803	120.85	84.019	120.85	84.1189	120.85	83.9941	120.85	84.0729	120.85	83.9862	120.85	84.0435	120.85	83.9919	120.85	84.0297	120.85	84.0064	120.85	84.0284	120.85	84.0245	120.85	84.0353	120.85	84.0411	120.85	84.0452	120.85	84.0525	120.85	84.0536	120.85	84.0566
125.244	84.803	125.244	84.7744	125.244	84.8082	125.244	84.7236	125.244	84.7902	125.244	84.6532	125.244	84.7504	125.244	84.5672	125.244	84.6917	125.244	84.471	125.244	84.6182	125.244	84.3708	125.244	84.535	125.244	84.2736	125.244	84.4481	125.244	84.1864	125.244	84.3637	125.244	84.1152	125.244	84.2876	125.244	84.0645	125.244	84.2249	125.244	84.0361	125.244	84.1786	125.244	84.0291	125.244	84.1498	125.244	84.0398	125.244	84.137	125.244	84.0626	125.244	84.1366	125.244	84.0909	125.244	84.1433	125.244	84.1184	125.244	84.1515	125.244	84.14	125.244	84.1559	125.244	84.1527
129.639	84.9545	129.639	84.9297	129.639	84.9548	129.639	84.8816	129.639	84.9309	129.639	84.8125	129.639	84.8846	129.639	84.7262	129.639	84.8188	129.639	84.6277	129.639	84.7379	129.639	84.5231	129.639	84.6474	129.639	84.419	129.639	84.5536	129.639	84.3226	129.639	84.463	129.639	84.2401	129.639	84.3819	129.639	84.1768	129.639	84.3152	129.639	84.1354	129.639	84.266	129.639	84.1162	129.639	84.235	129.639	84.1166	129.639	84.2202	129.639	84.1318	129.639	84.2175	129.639	84.1556	129.639	84.2214	129.639	84.1816	129.639	84.2261	129.639	84.2043	129.639	84.2267	129.639	84.2198
134.033	85.0579	134.033	85.0421	134.033	85.0482	134.033	85.0021	134.033	85.013	134.033	84.9408	134.033	84.9539	134.033	84.8624	134.033	84.874	134.033	84.7719	134.033	84.7781	134.033	84.6757	134.033	84.6721	134.033	84.5803	134.033	84.5634	134.033	84.4923	134.033	84.4596	134.033	84.4174	134.033	84.3682	134.033	84.3596	134.033	84.2956	134.033	84.3209	134.033	84.2456	134.033	84.3006	134.033	84.2195	134.033	84.2958	134.033	84.2151	134.033	84.3014	134.033	84.2276	134.033	84.3116	134.033	84.2506	134.033	84.3203	134.033	84.277	134.033	84.3229	134.033	84.3004	134.033	84.3164
138.428	85.1728	138.428	85.1492	138.428	85.1698	138.428	85.1009	138.428	85.1395	138.428	85.0314	138.428	85.0833	138.428	84.9455	138.428	85.0038	138.428	84.8495	138.428	84.9056	138.428	84.7501	138.428	84.7948	138.428	84.6547	138.428	84.6786	138.428	84.5701	138.428	84.5656	138.428	84.5019	138.428	84.4641	138.428	84.4535	138.428	84.3817	138.428	84.4256	138.428	84.3237	138.428	84.4161	138.428	84.2927	138.428	84.4204	138.428	84.2873	138.428	84.4321	138.428	84.3032	138.428	84.4443	138.428	84.3333	138.428	84.4508	138.428	84.3696	138.428	84.4472	138.428	84.4044	138.428	84.4315
143.555	85.2787	143.555	85.2399	143.555	85.288	143.555	85.1735	143.555	85.2676	143.555	85.083	143.555	85.2189	143.555	84.9737	143.555	85.145	143.555	84.8526	143.555	85.0506	143.555	84.728	143.555	84.9419	143.555	84.6089	143.555	84.8262	143.555	84.5042	143.555	84.7117	143.555	84.4216	143.555	84.607	143.555	84.366	143.555	84.5193	143.555	84.339	143.555	84.4544	143.555	84.3381	143.555	84.4147	143.555	84.3573	143.555	84.3993	143.555	84.3884	143.555	84.4038	143.555	84.4224	143.555	84.4214	143.555	84.4512	143.555	84.4438	143.555	84.4689	143.555	84.4631	143.555	84.4727
148.682	85.385	148.682	85.3494	148.682	85.3891	148.682	85.2838	148.682	85.3618	148.682	85.1914	148.682	85.3049	148.682	85.0772	148.682	85.222	148.682	84.9481	148.682	85.1181	148.682	84.8123	148.682	85.0001	148.682	84.6794	148.682	84.8759	148.682	84.5591	148.682	84.7543	148.682	84.4603	148.682	84.6443	148.682	84.3897	148.682	84.5535	148.682	84.3503	148.682	84.4874	148.682	84.3409	148.682	84.448	148.682	84.3561	148.682	84.4337	148.682	84.3875	148.682	84.4392	148.682	84.4254	148.682	84.4566	148.682	84.4604	148.682	84.4771	148.682	84.4855	148.682	84.4924	148.682	84.4963
153.809	85.5575	153.809	85.5261	153.809	85.5565	153.809	85.4637	153.809	85.5233	153.809	85.3732	153.809	85.4595	153.809	85.2594	153.809	85.3688	153.809	85.1283	153.809	85.2561	153.809	84.9876	153.809	85.1282	153.809	84.8462	153.809	84.9931	153.809	84.7134	153.809	84.8597	153.809	84.5981	153.809	84.7372	153.809	84.5076	153.809	84.6333	153.809	84.4461	153.809	84.5538	153.809	84.414	153.809	84.5012	153.809	84.4079	153.809	84.4741	153.809	84.4209	153.809	84.4678	153.809	84.4443	153.809	84.4749	153.809	84.4694	153.809	84.4872	153.809	84.4889	153.809	84.4969	153.809	84.4983
159.668	85.6146	159.668	85.5813	159.668	85.6146	159.668	85.5168	159.668	85.581	159.668	85.4248	159.668	85.5156	159.668	85.3108	159.668	85.4217	159.668	85.1821	159.668	85.3049	159.668	85.0469	159.668	85.1727	159.668	84.9149	159.668	85.0342	159.668	84.7954	159.668	84.8997	159.668	84.697	159.668	84.7797	159.668	84.6256	159.668	84.683	159.668	84.584	159.668	84.6157	159.668	84.5709	159.668	84.5799	159.668	84.581	159.668	84.573	159.668	84.6064	159.668	84.5883	159.668	84.6376	159.668	84.6165	159.668	84.6656	159.668	84.6478	159.668	84.6831	159.668	84.673	159.668	84.6858
164.795	85.7277	164.795	85.6924	164.795	85.7284	164.795	85.6246	164.795	85.6942	164.795	85.5283	164.795	85.6263	164.795	85.4093	164.795	85.5281	164.795	85.275	164.795	85.405	164.795	85.1343	164.795	85.2641	164.795	84.997	164.795	85.1148	164.795	84.8728	164.795	84.9673	164.795	84.7705	164.795	84.8329	164.795	84.6961	164.795	84.7217	164.795	84.6521	164.795	84.641	164.795	84.6366	164.795	84.5945	164.795	84.6438	164.795	84.5807	164.795	84.6652	164.795	84.5936	164.795	84.691	164.795	84.6236	164.795	84.7121	164.795	84.6602	164.795	84.7213	164.795	84.6932	164.795	84.7149
170.654	85.6763	170.654	85.6299	170.654	85.6864	170.654	85.5494	170.654	85.66	170.654	85.4391	170.654	85.5987	170.654	85.3055	170.654	85.5063	170.654	85.1572	170.654	85.3886	170.654	85.0046	170.654	85.2531	170.654	84.8595	170.654	85.1096	170.654	84.7334	170.654	84.9687	170.654	84.6364	170.654	84.8416	170.654	84.575	170.654	84.7385	170.654	84.551	170.654	84.6667	170.654	84.5607	170.654	84.6293	170.654	84.5958	170.654	84.6242	170.654	84.6451	170.654	84.6447	170.654	84.6963	170.654	84.6805	170.654	84.7386	170.654	84.7199	170.654	84.7639	170.654	84.752	170.654	84.7683
176.514	85.6793	176.514	85.6407	176.514	85.6783	176.514	85.5638	176.514	85.6383	176.514	85.4522	176.514	85.5619	176.514	85.312	176.514	85.4538	176.514	85.1518	176.514	85.321	176.514	84.9824	176.514	85.1723	176.514	84.817	176.514	85.0183	176.514	84.6693	176.514	84.8709	176.514	84.5521	176.514	84.7421	176.514	84.4751	176.514	84.6421	176.514	84.4421	176.514	84.5779	176.514	84.4506	176.514	84.5512	176.514	84.4918	176.514	84.5585	176.514	84.5525	176.514	84.5908	176.514	84.6181	176.514	84.636	176.514	84.6749	176.514	84.6811	176.514	84.7129	176.514	84.714	176.514	84.7261
183.105	85.6707	183.105	85.6472	183.105	85.6521	183.105	85.583	183.105	85.5917	183.105	85.4818	183.105	85.4921	183.105	85.349	183.105	85.3579	183.105	85.1923	183.105	85.1964	183.105	85.0218	183.105	85.0174	183.105	84.8494	183.105	84.8334	183.105	84.6884	183.105	84.6584	183.105	84.5519	183.105	84.507	183.105	84.4508	183.105	84.3918	183.105	84.3913	183.105	84.3212	183.105	84.3737	183.105	84.2971	183.105	84.3913	183.105	84.3143	183.105	84.4326	183.105	84.3613	183.105	84.4827	183.105	84.4233	183.105	84.5274	183.105	84.4847	183.105	84.5545	183.105	84.5323	183.105	84.5568
189.697	85.7756	189.697	85.7396	189.697	85.7678	189.697	85.6629	189.697	85.7151	189.697	85.5504	189.697	85.6185	189.697	85.409	189.697	85.4815	189.697	85.2476	189.697	85.31	189.697	85.0764	189.697	85.1129	189.697	84.9073	189.697	84.9025	189.697	84.752	189.697	84.6934	189.697	84.6215	189.697	84.5023	189.697	84.5237	189.697	84.3453	189.697	84.4624	189.697	84.2352	189.697	84.4361	189.697	84.1785	189.697	84.4376	189.697	84.1734	189.697	84.4563	189.697	84.2102	189.697	84.4792	189.697	84.2738	189.697	84.4939	189.697	84.347	189.697	84.4907	189.697	84.4143	189.697	84.4641
196.289	85.8086	196.289	85.7522	196.289	85.8184	196.289	85.6526	196.289	85.7809	196.289	85.5153	196.289	85.6975	196.289	85.3486	196.289	85.5719	196.289	85.1635	196.289	85.4106	196.289	84.9733	196.289	85.2227	196.289	84.793	196.289	85.0202	196.289	84.6372	196.289	84.818	196.289	84.5186	196.289	84.6322	196.289	84.445	196.289	84.479	196.289	84.4177	196.289	84.3714	196.289	84.4309	196.289	84.3163	196.289	84.4727	196.289	84.3126	196.289	84.5278	196.289	84.3512	196.289	84.5804	196.289	84.4169	196.289	84.6168	196.289	84.4922	196.289	84.6274	196.289	84.5603	196.289	84.6079
202.881	85.8253	202.881	85.7647	202.881	85.8354	202.881	85.656	202.881	85.7947	202.881	85.5047	202.881	85.705	202.881	85.3189	202.881	85.571	202.881	85.1102	202.881	85.3995	202.881	84.8933	202.881	85.2005	202.881	84.6856	202.881	84.987	202.881	84.5051	202.881	84.775	202.881	84.3679	202.881	84.5822	202.881	84.2848	202.881	84.4257	202.881	84.2583	202.881	84.3189	202.881	84.2819	202.881	84.2684	202.881	84.3414	202.881	84.2717	202.881	84.4184	202.881	84.3178	202.881	84.4937	202.881	84.3894	202.881	84.5512	202.881	84.467	202.881	84.5793	202.881	84.5327	202.881	84.5727
210.205	85.8534	210.205	85.7898	210.205	85.8648	210.205	85.6756	210.205	85.8245	210.205	85.5147	210.205	85.7348	210.205	85.3139	210.205	85.6001	210.205	85.0835	210.205	85.4273	210.205	84.8376	210.205	85.2256	210.205	84.5943	210.205	85.0076	210.205	84.3743	210.205	84.7884	210.205	84.1982	210.205	84.5852	210.205	84.0822	210.205	84.4152	210.205	84.0336	210.205	84.2924	210.205	84.0486	210.205	84.2247	210.205	84.1123	210.205	84.2109	210.205	84.2034	210.205	84.2409	210.205	84.2985	210.205	84.2977	210.205	84.3774	210.205	84.3615	210.205	84.4259	210.205	84.413	210.205	84.4374
217.529	85.7303	217.529	85.6816	217.529	85.7246	217.529	85.5799	217.529	85.6656	217.529	85.4288	217.529	85.557	217.529	85.2353	217.529	85.4048	217.529	85.0095	217.529	85.2179	217.529	84.7659	217.529	85.0088	217.529	84.5225	217.529	84.7927	217.529	84.3004	217.529	84.5875	217.529	84.1209	217.529	84.4115	217.529	84.0017	217.529	84.2807	217.529	83.9519	217.529	84.2052	217.529	83.9695	217.529	84.1864	217.529	84.0415	217.529	84.2162	217.529	84.1467	217.529	84.2789	217.529	84.2614	217.529	84.3542	217.529	84.3638	217.529	84.4219	217.529	84.4372	217.529	84.465	217.529	84.4717
225.586	85.8824	225.586	85.8442	225.586	85.8599	225.586	85.7476	225.586	85.7764	225.586	85.5971	225.586	85.6335	225.586	85.3996	225.586	85.4353	225.586	85.1653	225.586	85.1895	225.586	84.9083	225.586	84.9081	225.586	84.6468	225.586	84.6088	225.586	84.4025	225.586	84.3153	225.586	84.1982	225.586	84.0556	225.586	84.0537	225.586	83.8584	225.586	83.9808	225.586	83.7454	225.586	83.9793	225.586	83.7246	225.586	84.0361	225.586	83.7863	225.586	84.1285	225.586	83.9059	225.586	84.2296	225.586	84.0511	225.586	84.3136	225.586	84.19	225.586	84.3599	225.586	84.2969	225.586	84.3555
232.91	85.9586	232.91	85.9096	232.91	85.9464	232.91	85.8026	232.91	85.8715	232.91	85.6425	232.91	85.7339	232.91	85.4365	232.91	85.5355	232.91	85.195	232.91	85.2812	232.91	84.9323	232.91	84.98	232.91	84.6669	232.91	84.647	232.91	84.4205	232.91	84.3044	232.91	84.2158	232.91	83.982	232.91	84.0719	232.91	83.7142	232.91	83.9988	232.91	83.5329	232.91	83.994	232.91	83.458	232.91	84.042	232.91	83.4888	232.91	84.1181	232.91	83.6038	232.91	84.1942	232.91	83.7677	232.91	84.2448	232.91	83.9418	232.91	84.2502	232.91	84.0935	232.91	84.1999
241.699	85.8167	241.699	85.7351	241.699	85.8375	241.699	85.5944	241.699	85.7971	241.699	85.3986	241.699	85.6962	241.699	85.1541	241.699	85.5368	241.699	84.8714	241.699	85.3231	241.699	84.5661	241.699	85.0617	241.699	84.2594	241.699	84.7634	241.699	83.9771	241.699	84.4443	241.699	83.747	241.699	84.1267	241.699	83.592	241.699	83.8385	241.699	83.5236	241.699	83.6092	241.699	83.5367	241.699	83.4628	241.699	83.6102	241.699	83.4104	241.699	83.7134	241.699	83.4443	241.699	83.8135	241.699	83.5404	241.699	83.8831	241.699	83.6648	241.699	83.9038	241.699	83.7835	241.699	83.8689
249.756	85.9483	249.756	85.8852	249.756	85.9461	249.756	85.7575	249.756	85.8791	249.756	85.5674	249.756	85.7486	249.756	85.3194	249.756	85.5574	249.756	85.0218	249.756	85.3101	249.756	84.6878	249.756	85.0144	249.756	84.3374	249.756	84.6826	249.756	83.9976	249.756	84.3329	249.756	83.7008	249.756	83.9904	249.756	83.4786	249.756	83.6857	249.756	83.353	249.756	83.4503	249.756	83.3276	249.756	83.3084	249.756	83.385	249.756	83.268	249.756	83.4921	249.756	83.3165	249.756	83.6102	249.756	83.424	249.756	83.7046	249.756	83.5526	249.756	83.751	249.756	83.6663	249.756	83.7376
258.545	85.956	258.545	85.89	258.545	85.9608	258.545	85.7637	258.545	85.9048	258.545	85.579	258.545	85.7888	258.545	85.34	258.545	85.615	258.545	85.0542	258.545	85.3868	258.545	84.733	258.545	85.1102	258.545	84.3942	258.545	84.7948	258.545	84.0616	258.545	84.4557	258.545	83.7645	258.545	84.1145	258.545	83.5326	258.545	83.7992	258.545	83.3885	258.545	83.5407	258.545	83.3389	258.545	83.3659	258.545	83.3711	258.545	83.2885	258.545	83.4559	258.545	83.3024	258.545	83.5569	258.545	83.3827	258.545	83.6399	258.545	83.4931	258.545	83.6798	258.545	83.5968	258.545	83.6646
268.066	85.6519	268.066	85.5864	268.066	85.6565	268.066	85.4602	268.066	85.601	268.066	85.2745	268.066	85.4867	268.066	85.0329	268.066	85.3152	268.066	84.7423	268.066	85.089	268.066	84.4146	268.066	84.8122	268.066	84.0682	268.066	84.4917	268.066	83.729	268.066	84.1398	268.066	83.4286	268.066	83.7757	268.066	83.1991	268.066	83.427	268.066	83.0633	268.066	83.1284	268.066	83.0261	268.066	82.9144	268.066	83.07	268.066	82.8084	268.066	83.1607	268.066	82.8122	268.066	83.2578	268.066	82.903	268.066	83.3253	268.066	83.0407	268.066	83.3387	268.066	83.1814	268.066	83.2884
277.588	85.7753	277.588	85.7372	277.588	85.7443	277.588	85.6296	277.588	85.6468	277.588	85.4534	277.588	85.4873	277.588	85.2117	277.588	85.2733	277.588	84.9099	277.588	85.0154	277.588	84.5576	277.588	84.7273	277.588	84.1702	277.588	84.4261	277.588	83.7717	277.588	84.131	277.588	83.3954	277.588	83.8621	277.588	83.0815	277.588	83.6382	277.588	82.868	277.588	83.4736	277.588	82.7776	277.588	83.3749	277.588	82.8068	277.588	83.3394	277.588	82.9251	277.588	83.3541	277.588	83.0873	277.588	83.3976	277.588	83.2483	277.588	83.4441	277.588	83.3747	277.588	83.468	277.588	83.4485
287.109	85.7518	287.109	85.7015	287.109	85.7374	287.109	85.5898	287.109	85.6555	287.109	85.4207	287.109	85.5044	287.109	85.1985	287.109	85.2841	287.109	84.9296	287.109	84.998	287.109	84.623	287.109	84.6547	287.109	84.2917	287.109	84.2702	287.109	83.9547	287.109	83.8703	287.109	83.6369	287.109	83.4905	287.109	83.3671	287.109	83.1729	287.109	83.1723	287.109	82.956	287.109	83.07	287.109	82.8613	287.109	83.06	287.109	82.8836	287.109	83.1232	287.109	82.9914	287.109	83.2265	287.109	83.1393	287.109	83.3325	287.109	83.2823	287.109	83.4076	287.109	83.3854	287.109	83.4287
297.363	85.7361	297.363	85.6728	297.363	85.7312	297.363	85.5441	297.363	85.6563	297.363	85.354	297.363	85.5101	297.363	85.1079	297.363	85.2923	297.363	84.8138	297.363	85.0038	297.363	84.4832	297.363	84.648	297.363	84.1327	297.363	84.233	297.363	83.7847	297.363	83.7745	297.363	83.4674	297.363	83.3	297.363	83.2105	297.363	82.851	297.363	83.0382	297.363	82.4806	297.363	82.96	297.363	82.2407	297.363	82.9646	297.363	82.1618	297.363	83.022	297.363	82.236	297.363	83.092	297.363	82.4188	297.363	83.1348	297.363	82.648	297.363	83.1195	297.363	82.8653	297.363	83.0294
307.617	85.7414	307.617	85.6284	307.617	85.7767	307.617	85.4397	307.617	85.7343	307.617	85.1805	307.617	85.6162	307.617	84.8598	307.617	85.4258	307.617	84.4915	307.617	85.1679	307.617	84.0962	307.617	84.8499	307.617	83.7016	307.617	84.4824	307.617	83.3419	307.617	84.0818	307.617	83.0536	307.617	83.6722	307.617	82.8674	307.617	83.2871	307.617	82.7976	307.617	82.9668	307.617	82.8353	307.617	82.7503	307.617	82.9499	307.617	82.662	307.617	83.0988	307.617	82.6987	307.617	83.2379	307.617	82.8294	307.617	83.331	307.617	83.0051	307.617	83.3547	307.617	83.1756	307.617	83.3003
318.604	85.9369	318.604	85.85	318.604	85.9416	318.604	85.6799	318.604	85.8653	318.604	85.4264	318.604	85.7092	318.604	85.0913	318.604	85.475	318.604	84.68	318.604	85.1659	318.604	84.205	318.604	84.7875	318.604	83.6891	318.604	84.3505	318.604	83.1694	318.604	83.8734	318.604	82.6979	318.604	83.3852	318.604	82.3339	318.604	82.9271	318.604	82.1256	318.604	82.5488	318.604	82.0874	318.604	82.2965	318.604	82.1902	318.604	82.1949	318.604	82.3742	318.604	82.2338	318.604	82.5722	318.604	82.3705	318.604	82.7291	318.604	82.5457	318.604	82.8095	318.604	82.7028	318.604	82.799
329.59	85.6022	329.59	85.5325	329.59	85.6033	329.59	85.3901	329.59	85.5396	329.59	85.1711	329.59	85.4149	329.59	84.8729	329.59	85.2323	329.59	84.4958	329.59	84.9949	329.59	84.0456	329.59	84.7063	329.59	83.5386	329.59	84.3723	329.59	83.007	329.59	84.0026	329.59	82.503	329.59	83.6141	329.59	82.096	329.59	83.2334	329.59	81.8532	329.59	82.8956	329.59	81.8078	329.59	82.6398	329.59	81.937	329.59	82.4956	329.59	82.1722	329.59	82.4693	329.59	82.4315	329.59	82.5373	329.59	82.6474	329.59	82.6527	329.59	82.7793	329.59	82.7607	329.59	82.8135
341.309	85.4479	341.309	85.427	341.309	85.3859	341.309	85.3262	341.309	85.2387	341.309	85.1484	341.309	85.0057	341.309	84.8965	341.309	84.6895	341.309	84.5739	341.309	84.2972	341.309	84.1864	341.309	83.8433	341.309	83.7452	341.309	83.3526	341.309	83.2716	341.309	82.8628	341.309	82.8013	341.309	82.4243	341.309	82.3858	341.309	82.0938	341.309	82.0847	341.309	81.9174	341.309	81.9454	341.309	81.9103	341.309	81.9782	341.309	82.0474	341.309	82.1473	341.309	82.2724	341.309	82.386	341.309	82.519	341.309	82.6227	341.309	82.7282	341.309	82.8004	341.309	82.8577	341.309	82.8835
353.76	85.699	353.76	85.6015	353.76	85.716	353.76	85.4273	353.76	85.6475	353.76	85.1791	353.76	85.4878	353.76	84.8597	353.76	85.2304	353.76	84.4731	353.76	84.8695	353.76	84.0274	353.76	84.402	353.76	83.5388	353.76	83.831	353.76	83.0359	353.76	83.1724	353.76	82.5636	353.76	82.4648	353.76	82.1804	353.76	81.7807	353.76	81.9432	353.76	81.2283	353.76	81.8822	353.76	80.9227	353.76	81.981	353.76	80.9223	353.76	82.1799	353.76	81.183	353.76	82.4005	353.76	81.5859	353.76	82.57	353.76	82.0047	353.76	82.6347	353.76	82.3475	353.76	82.5634
366.211	85.8877	366.211	85.7552	366.211	85.9507	366.211	85.5488	366.211	85.9457	366.211	85.2623	366.211	85.8713	366.211	84.8894	366.211	85.7226	366.211	84.4258	366.211	85.492	366.211	83.8729	366.211	85.1704	366.211	83.2439	366.211	84.7499	366.211	82.5731	366.211	84.2273	366.211	81.9247	366.211	83.6104	366.211	81.3934	366.211	82.9277	366.211	81.0791	366.211	82.2391	366.211	81.0324	366.211	81.641	366.211	81.2151	366.211	81.2457	366.211	81.5201	366.211	81.1252	366.211	81.828	366.211	81.2571	366.211	82.0478	366.211	81.5355	366.211	82.1268	366.211	81.8326	366.211	82.0489
378.662	85.7533	378.662	85.7286	378.662	85.7116	378.662	85.6322	378.662	85.608	378.662	85.4579	378.662	85.447	378.662	85.1984	378.662	85.2325	378.662	84.8457	378.662	84.9681	378.662	84.3933	378.662	84.6569	378.662	83.8403	378.662	84.3028	378.662	83.1991	378.662	83.9129	378.662	82.5079	378.662	83.5012	378.662	81.8441	378.662	83.0923	378.662	81.3255	378.662	82.7233	378.662	81.0719	378.662	82.4391	378.662	81.1287	378.662	82.278	378.662	81.4251	378.662	82.2515	378.662	81.8219	378.662	82.3318	378.662	82.1901	378.662	82.4582	378.662	82.4492	378.662	82.5583	378.662	82.5688
392.578	85.3373	392.578	85.3319	392.578	85.278	392.578	85.2651	392.578	85.1489	392.578	85.1371	392.578	84.9437	392.578	84.9448	392.578	84.6565	392.578	84.6821	392.578	84.2827	392.578	84.3415	392.578	83.821	392.578	83.9181	392.578	83.2773	392.578	83.4153	392.578	82.6716	392.578	82.8536	392.578	82.0471	392.578	82.2801	392.578	81.4784	392.578	81.7743	392.578	81.0663	392.578	81.4334	392.578	80.9011	392.578	81.3283	392.578	81.0055	392.578	81.4538	392.578	81.3107	392.578	81.7252	392.578	81.6955	392.578	82.0257	392.578	82.0436	392.578	82.2544	392.578	82.2744	392.578	82.3466
405.762	85.3693	405.762	85.2769	405.762	85.3866	405.762	85.1161	405.762	85.3208	405.762	84.8916	405.762	85.1635	405.762	84.6053	405.762	84.9059	405.762	84.256	405.762	84.5394	405.762	83.8419	405.762	84.0567	405.762	83.3642	405.762	83.4548	405.762	82.8344	405.762	82.7428	405.762	82.2842	405.762	81.9549	405.762	81.7745	405.762	81.1709	405.762	81.3929	405.762	80.5309	405.762	81.2248	405.762	80.2043	405.762	81.3016	405.762	80.2834	405.762	81.57	405.762	80.6966	405.762	81.9178	405.762	81.2607	405.762	82.2273	405.762	81.7995	405.762	82.4082	405.762	82.1994	405.762	82.4062
420.41	85.3638	420.41	85.2226	420.41	85.4582	420.41	85.0345	420.41	85.5025	420.41	84.7973	420.41	85.4891	420.41	84.5069	420.41	85.405	420.41	84.1576	420.41	85.2318	420.41	83.744	420.41	84.9469	420.41	83.2637	420.41	84.526	420.41	82.7246	420.41	83.9473	420.41	82.1539	420.41	83.1982	420.41	81.6081	420.41	82.2905	420.41	81.1738	420.41	81.2886	420.41	80.9413	420.41	80.3513	420.41	80.9511	420.41	79.7351	420.41	81.1542	420.41	79.6494	420.41	81.433	420.41	80.0417	420.41	81.6578	420.41	80.6449	420.41	81.7273	420.41	81.2049	420.41	81.5811
435.059	85.2645	435.059	85.2133	435.059	85.2495	435.059	85.0942	435.059	85.1704	435.059	84.9044	435.059	85.0293	435.059	84.6386	435.059	84.8274	435.059	84.2888	435.059	84.563	435.059	83.8461	435.059	84.23	435.059	83.3055	435.059	83.8184	435.059	82.6748	435.059	83.3179	435.059	81.9889	435.059	82.726	435.059	81.3274	435.059	82.0615	435.059	80.8189	435.059	81.3836	435.059	80.5991	435.059	80.8073	435.059	80.7165	435.059	80.4824	435.059	81.0796	435.059	80.5063	435.059	81.5167	435.059	80.8329	435.059	81.8718	435.059	81.2981	435.059	82.0454	435.059	81.7257	435.059	81.9945
450.439	85.1446	450.439	85.0411	450.439	85.1929	450.439	84.8823	450.439	85.1868	450.439	84.6677	450.439	85.1269	450.439	84.3935	450.439	85.0101	450.439	84.0502	450.439	84.8268	450.439	83.6228	450.439	84.559	450.439	83.0942	450.439	84.1817	450.439	82.4548	450.439	83.6674	450.439	81.7197	450.439	82.9933	450.439	80.9552	450.439	82.1569	450.439	80.3061	450.439	81.2047	450.439	79.972	450.439	80.2799	450.439	80.0744	450.439	79.6474	450.439	80.5247	450.439	79.5629	450.439	81.0892	450.439	80.0077	450.439	81.5495	450.439	80.6892	450.439	81.7703	450.439	81.3078	450.439	81.6904
466.553	84.941	466.553	84.8624	466.553	84.9551	466.553	84.7228	466.553	84.9082	466.553	84.5301	466.553	84.8082	466.553	84.2909	466.553	84.6625	466.553	84.0038	466.553	84.4705	466.553	83.6562	466.553	84.2201	466.553	83.2269	466.553	83.8885	466.553	82.6946	466.553	83.4471	466.553	82.0536	466.553	82.8712	466.553	81.337	466.553	82.1547	466.553	80.6466	466.553	81.3347	466.553	80.1602	466.553	80.5284	466.553	80.0512	466.553	79.9501	466.553	80.3323	466.553	79.8162	466.553	80.8203	466.553	80.1407	466.553	81.2793	466.553	80.6975	466.553	81.5403	466.553	81.2163	466.553	81.5214
482.666	85.0796	482.666	84.9737	482.666	85.0698	482.666	84.7652	482.666	84.9464	482.666	84.4788	482.666	84.7271	482.666	84.1426	482.666	84.4395	482.666	83.7762	482.666	84.1115	482.666	83.3813	482.666	83.7598	482.666	82.938	482.666	83.3797	482.666	82.4128	482.666	82.9449	482.666	81.7754	482.666	82.4167	482.666	81.0267	482.666	81.7627	482.666	80.2407	482.666	80.9856	482.666	79.6049	482.666	80.168	482.666	79.3722	482.666	79.5163	482.666	79.6427	482.666	79.3029	482.666	80.2212	482.666	79.6172	482.666	80.7958	482.666	80.2309	482.666	81.1398	482.666	80.8151	482.666	81.1486
500.244	86.5308	500.244	86.3212	500.244	86.5576	500.244	85.9371	500.244	86.4027	500.244	85.3955	500.244	86.0769	500.244	84.7224	500.244	85.6006	500.244	83.9513	500.244	85.0033	500.244	83.12	500.244	84.3193	500.244	82.2637	500.244	83.5802	500.244	81.4073	500.244	82.804	500.244	80.5637	500.244	81.9869	500.244	79.7469	500.244	81.1068	500.244	79.003	500.244	80.146	500.244	78.4393	500.244	79.1391	500.244	78.1977	500.244	78.2389	500.244	78.3339	500.244	77.725	500.244	78.7215	500.244	77.7938	500.244	79.1263	500.244	78.2968	500.244	79.3449	500.244	78.8783	500.244	79.2656
517.822	86.0571	517.822	85.966	517.822	86.0534	517.822	85.7718	517.822	85.9559	517.822	85.4596	517.822	85.7584	517.822	85.0115	517.822	85.4511	517.822	84.4109	517.822	85.025	517.822	83.6479	517.822	84.4753	517.822	82.7255	517.822	83.8049	517.822	81.6697	517.822	83.0257	517.822	80.5455	517.822	82.1577	517.822	79.4737	517.822	81.2282	517.822	78.628	517.822	80.2744	517.822	78.1675	517.822	79.3557	517.822	78.1239	517.822	78.5735	517.822	78.3671	517.822	78.0702	517.822	78.6991	517.822	77.9514	517.822	78.9518	517.822	78.1732	517.822	79.0218	517.822	78.5484	517.822	78.874
536.133	85.9835	536.133	85.8854	536.133	85.9863	536.133	85.6942	536.133	85.888	536.133	85.4083	536.133	85.6797	536.133	85.0205	536.133	85.3477	536.133	84.516	536.133	84.8738	536.133	83.8714	536.133	84.2354	536.133	83.0545	536.133	83.407	536.133	82.0273	536.133	82.3639	536.133	80.7563	536.133	81.092	536.133	79.2478	536.133	79.6174	536.133	77.6549	536.133	78.0824	536.133	76.4706	536.133	76.8721	536.133	76.373	536.133	76.5311	536.133	77.2987	536.133	77.1503	536.133	78.5067	536.133	78.2074	536.133	79.4866	536.133	79.2024	536.133	80.0608	536.133	79.8952	536.133	80.1935
554.443	85.6263	554.443	85.5494	554.443	85.66	554.443	85.418	554.443	85.6588	554.443	85.2155	554.443	85.6257	554.443	84.9177	554.443	85.5542	554.443	84.4929	554.443	85.422	554.443	83.9029	554.443	85.1898	554.443	83.1072	554.443	84.8035	554.443	82.0675	554.443	84.1986	554.443	80.7587	554.443	83.3018	554.443	79.1973	554.443	82.0289	554.443	77.5132	554.443	80.2825	554.443	76.071	554.443	77.9756	554.443	75.4107	554.443	75.2118	554.443	75.6743	554.443	73.035	554.443	76.3813	554.443	73.2735	554.443	77.0192	554.443	74.9266	554.443	77.3116	554.443	76.3332	554.443	77.1161
574.219	85.0445	574.219	84.9762	574.219	85.0725	574.219	84.892	574.219	85.0517	574.219	84.8206	574.219	84.9904	574.219	84.7736	574.219	84.9049	574.219	84.7265	574.219	84.8051	574.219	84.6142	574.219	84.6785	574.219	84.3438	574.219	84.4829	574.219	83.8098	574.219	84.1496	574.219	82.9011	574.219	83.5933	574.219	81.4965	574.219	82.7205	574.219	79.4635	574.219	81.433	574.219	76.7364	574.219	79.6368	574.219	73.8819	574.219	77.3131	574.219	73.1643	574.219	74.8698	574.219	74.7817	574.219	73.7757	574.219	76.3459	574.219	74.7335	574.219	77.0999	574.219	76.1475	574.219	77.0128
594.727	83.7536	594.727	83.6407	594.727	83.7404	594.727	83.4214	594.727	83.623	594.727	83.1532	594.727	83.464	594.727	82.9135	594.727	83.3525	594.727	82.7609	594.727	83.3628	594.727	82.6893	594.727	83.5019	594.727	82.616	594.727	83.6907	594.727	82.4153	594.727	83.8	594.727	81.9606	594.727	83.6976	594.727	81.1483	594.727	83.2688	594.727	79.9131	594.727	82.413	594.727	78.2726	594.727	81.0325	594.727	76.4648	594.727	79.0365	594.727	75.1219	594.727	76.427	594.727	74.8101	594.727	73.7532	594.727	75.1169	594.727	72.7346	594.727	75.2478	594.727	73.6786	594.727	74.7763
615.234	84.8057	615.234	84.637	615.234	84.7783	615.234	84.3068	615.234	84.5484	615.234	83.88	615.234	84.1417	615.234	83.4481	615.234	83.6275	615.234	83.1023	615.234	83.1264	615.234	82.881	615.234	82.7812	615.234	82.7336	615.234	82.6681	615.234	82.5392	615.234	82.7223	615.234	82.161	615.234	82.776	615.234	81.4887	615.234	82.6582	615.234	80.4682	615.234	82.2553	615.234	79.1553	615.234	81.5288	615.234	77.8323	615.234	80.5356	615.234	77.0406	615.234	79.4688	615.234	77.0896	615.234	78.6449	615.234	77.6069	615.234	78.2867	615.234	78.0783	615.234	78.2742	615.234	78.2851
637.207	85.6873	637.207	85.4487	637.207	85.7022	637.207	84.997	637.207	85.494	637.207	84.3677	637.207	85.0751	637.207	83.6422	637.207	84.4826	637.207	82.9585	637.207	83.801	637.207	82.4617	637.207	83.1716	637.207	82.1868	637.207	82.7387	637.207	81.9944	637.207	82.5268	637.207	81.6513	637.207	82.3841	637.207	80.9445	637.207	82.0756	637.207	79.7444	637.207	81.3998	637.207	78.1146	637.207	80.2517	637.207	76.6548	637.207	78.7307	637.207	76.5231	637.207	77.4148	637.207	77.6725	637.207	77.2522	637.207	78.9193	637.207	78.1666	637.207	79.649	637.207	79.1808	637.207	79.7294
659.912	85.5708	659.912	85.4134	659.912	85.5278	659.912	85.0603	659.912	85.2908	659.912	84.5382	659.912	84.8774	659.912	83.9134	659.912	84.3276	659.912	83.3006	659.912	83.7243	659.912	82.8283	659.912	83.1993	659.912	82.5421	659.912	82.8821	659.912	82.3325	659.912	82.788	659.912	81.9843	659.912	82.7676	659.912	81.278	659.912	82.5905	659.912	80.0528	659.912	82.0497	659.912	78.2873	659.912	81.0102	659.912	76.4114	659.912	79.4706	659.912	75.702	659.912	77.7903	659.912	76.6633	659.912	76.9446	659.912	77.9942	659.912	77.4541	659.912	78.824	659.912	78.4024	659.912	78.9505
683.35	86.6694	683.35	86.5061	683.35	86.6427	683.35	86.1589	683.35	86.4188	683.35	85.6395	683.35	85.991	683.35	84.9826	683.35	85.3644	683.35	84.2686	683.35	84.5826	683.35	83.6301	683.35	83.7677	683.35	83.1928	683.35	83.1316	683.35	82.9547	683.35	82.8546	683.35	82.74	683.35	82.8728	683.35	82.2935	683.35	82.8856	683.35	81.3908	683.35	82.569	683.35	79.9163	683.35	81.699	683.35	78.0848	683.35	80.2042	683.35	76.9754	683.35	78.4094	683.35	77.6521	683.35	77.5036	683.35	79.0547	683.35	78.2639	683.35	80.0014	683.35	79.483	683.35	80.1497
706.787	87.7085	706.787	87.4715	706.787	87.7354	706.787	87.0203	706.787	87.5536	706.787	86.3565	706.787	87.1633	706.787	85.5143	706.787	86.5727	706.787	84.6125	706.787	85.8196	706.787	83.8916	706.787	85.0052	706.787	83.5898	706.787	84.3078	706.787	83.6543	706.787	83.8945	706.787	83.7262	706.787	83.7355	706.787	83.428	706.787	83.5687	706.787	82.5093	706.787	83.069	706.787	80.8611	706.787	81.9807	706.787	78.7039	706.787	80.1888	706.787	77.2457	706.787	78.0425	706.787	77.8253	706.787	77.0775	706.787	79.238	706.787	78.146	706.787	80.1743	706.787	79.5616	706.787	80.2958
731.689	87.8682	731.689	87.7585	731.689	87.797	731.689	87.4574	731.689	87.5399	731.689	86.9477	731.689	87.0768	731.689	86.2304	731.689	86.3865	731.689	85.3641	731.689	85.4813	731.689	84.508	731.689	84.4756	731.689	83.8923	731.689	83.6549	731.689	83.6252	731.689	83.3536	731.689	83.518	731.689	83.5526	731.689	83.2071	731.689	83.8194	731.689	82.3575	731.689	83.6964	731.689	80.7358	731.689	82.8672	731.689	78.3652	731.689	81.0971	731.689	76.3751	731.689	78.2853	731.689	76.8517	731.689	75.5007	731.689	78.4925	731.689	75.9894	731.689	79.4727	731.689	78.1149	731.689	79.3747
758.057	87.6489	758.057	87.4375	758.057	87.6622	758.057	87.0257	758.057	87.4805	758.057	86.4102	758.057	87.101	758.057	85.5859	758.057	86.5036	758.057	84.5795	758.057	85.6526	758.057	83.5423	758.057	84.5422	758.057	82.8343	758.057	83.3165	758.057	82.7653	758.057	82.4032	758.057	83.094	758.057	82.2328	758.057	83.2302	758.057	82.5663	758.057	82.7195	758.057	82.7487	758.057	81.3192	758.057	82.3335	758.057	79.0628	758.057	81.1422	758.057	76.9827	758.057	79.2642	758.057	77.1458	758.057	77.4975	758.057	78.5816	758.057	77.3741	758.057	79.478	758.057	78.5285	758.057	79.4302
784.424	87.8096	784.424	87.6227	784.424	87.7766	784.424	87.2112	784.424	87.5245	784.424	86.5648	784.424	87.0513	784.424	85.6746	784.424	86.3518	784.424	84.5604	784.424	85.4205	784.424	83.3425	784.424	84.2734	784.424	82.332	784.424	83.019	784.424	81.9094	784.424	81.9632	784.424	82.0446	784.424	81.5081	784.424	82.2246	784.424	81.643	784.424	81.9273	784.424	81.8389	784.424	80.815	784.424	81.5566	784.424	78.7443	784.424	80.4552	784.424	76.2542	784.424	78.3857	784.424	75.593	784.424	75.858	784.424	76.9759	784.424	75.1637	784.424	78.0091	784.424	76.6691	784.424	77.9014
812.256	87.467	812.256	87.2889	812.256	87.4597	812.256	86.9305	812.256	87.2629	812.256	86.3806	812.256	86.875	812.256	85.5951	812.256	86.2855	812.256	84.5068	812.256	85.4669	812.256	83.0983	812.256	84.3909	812.256	81.5924	812.256	83.0853	812.256	80.6372	812.256	81.7472	812.256	80.6686	812.256	80.8091	812.256	81.0593	812.256	80.5654	812.256	80.9932	812.256	80.6497	812.256	80.1067	812.256	80.4098	812.256	78.4597	812.256	79.4283	812.256	76.8847	812.256	77.6799	812.256	76.8653	812.256	76.0309	812.256	77.9567	812.256	76.1883	812.256	78.7073	812.256	77.5768	812.256	78.5862
840.82	87.4001	840.82	87.2006	840.82	87.386	840.82	86.7788	840.82	87.1609	840.82	86.1218	840.82	86.7234	840.82	85.2203	840.82	86.0681	840.82	84.0879	840.82	85.1846	840.82	82.8013	840.82	84.0721	840.82	81.5648	840.82	82.7995	840.82	80.6916	840.82	81.6083	840.82	80.3103	840.82	80.8689	840.82	80.0958	840.82	80.6485	840.82	79.5256	840.82	80.5063	840.82	78.2271	840.82	79.9405	840.82	76.2554	840.82	78.6846	840.82	74.8658	840.82	76.8306	840.82	75.6346	840.82	75.3507	840.82	77.1606	840.82	75.7173	840.82	78.0468	840.82	77.0888	840.82	78.0106
870.85	87.187	870.85	87.021	870.85	87.1983	870.85	86.6914	870.85	87.0599	870.85	86.1754	870.85	86.7659	870.85	85.4225	870.85	86.2843	870.85	84.3598	870.85	85.5504	870.85	82.9594	870.85	84.4906	870.85	81.4265	870.85	83.1038	870.85	80.3842	870.85	81.6391	870.85	80.2464	870.85	80.7178	870.85	80.3727	870.85	80.6745	870.85	79.9062	870.85	80.8576	870.85	78.3868	870.85	80.4159	870.85	75.739	870.85	78.7659	870.85	73.3465	870.85	75.4065	870.85	74.2659	870.85	71.2224	870.85	76.3751	870.85	72.895	870.85	77.5499	870.85	76.056	870.85	77.5094
901.611	87.5295	901.611	87.4074	901.611	87.5041	901.611	87.1332	901.611	87.3377	901.611	86.691	901.611	87.0367	901.611	86.0349	901.611	86.5872	901.611	85.0823	901.611	85.9294	901.611	83.7409	901.611	84.9599	901.611	82.0248	901.611	83.6019	901.611	80.3801	901.611	81.9861	901.611	79.797	901.611	80.7208	901.611	80.2588	901.611	80.493	901.611	80.4659	901.611	80.8638	901.611	79.4903	901.611	80.8674	901.611	76.8337	901.611	79.9181	901.611	72.9388	901.611	77.6561	901.611	73.1913	901.611	74.1534	901.611	76.1407	901.611	72.9106	901.611	77.5747	901.611	75.5301	901.611	77.3575
933.105	88.0664	933.105	87.8404	933.105	88.1133	933.105	87.4739	933.105	87.9675	933.105	86.9947	933.105	87.648	933.105	86.3714	933.105	87.1741	933.105	85.4856	933.105	86.5036	933.105	84.1621	933.105	85.5002	933.105	82.314	933.105	83.9894	933.105	80.4272	933.105	81.9633	933.105	79.9649	933.105	80.1466	933.105	80.935	933.105	79.9878	933.105	81.6303	933.105	80.9637	933.105	81.1918	933.105	81.4682	933.105	79.336	933.105	80.8369	933.105	76.2471	933.105	78.9179	933.105	74.5849	933.105	76.1522	933.105	76.1743	933.105	74.8131	933.105	77.417	933.105	76.0308	933.105	77.2879
966.064	87.8257	966.064	87.6588	966.064	87.8281	966.064	87.3715	966.064	87.6532	966.064	86.9994	966.064	87.325	966.064	86.5116	966.064	86.8762	966.064	85.784	966.064	86.2933	966.064	84.6295	966.064	85.4754	966.064	82.8689	966.064	84.2509	966.064	80.5256	966.064	82.4727	966.064	78.5328	966.064	80.3349	966.064	78.5575	966.064	79.0611	966.064	79.5356	966.064	79.5735	966.064	79.6622	966.064	80.2849	966.064	78.3772	966.064	79.8668	966.064	76.1205	966.064	77.9027	966.064	75.6442	966.064	74.865	966.064	77.4884	966.064	74.4072	966.064	78.7082	966.064	76.8607	966.064	78.5111
999.756	87.2887	999.756	87.1302	999.756	87.2312	999.756	86.7808	999.756	86.9617	999.756	86.2925	999.756	86.5349	999.756	85.7291	999.756	86.0522	999.756	85.0932	999.756	85.5668	999.756	84.2474	999.756	84.9636	999.756	82.9492	999.756	83.991	999.756	81.0466	999.756	82.4251	999.756	79.0206	999.756	80.3407	999.756	78.4315	999.756	78.7344	999.756	79.1695	999.756	78.8836	999.756	79.3075	999.756	79.6144	999.756	77.8423	999.756	79.3583	999.756	74.5316	999.756	77.4894	999.756	72.7623	999.756	74.21	999.756	75.7872	999.756	73.6004	999.756	77.8978	999.756	76.4414	999.756	78.0941
1,034.91	86.7151	1,034.91	86.4512	1,034.91	86.6952	1,034.91	85.9724	1,034.91	86.3813	1,034.91	85.4142	1,034.91	85.8275	1,034.91	84.9182	1,034.91	85.164	1,034.91	84.4788	1,034.91	84.5369	1,034.91	83.8752	1,034.91	83.9431	1,034.91	82.8062	1,034.91	83.1606	1,034.91	81.1248	1,034.91	81.902	1,034.91	79.2537	1,034.91	80.0617	1,034.91	78.3777	1,034.91	78.2041	1,034.91	78.5332	1,034.91	77.7824	1,034.91	78.2962	1,034.91	78.5275	1,034.91	76.8413	1,034.91	78.5906	1,034.91	74.3812	1,034.91	76.9087	1,034.91	73.6457	1,034.91	73.0564	1,034.91	75.8193	1,034.91	71.858	1,034.91	77.5603	1,034.91	75.7017	1,034.91	77.6703
1,071.53	86.002	1,071.53	85.6838	1,071.53	85.9683	1,071.53	85.0407	1,071.53	85.6028	1,071.53	84.2169	1,071.53	84.9352	1,071.53	83.4747	1,071.53	84.0472	1,071.53	82.9731	1,071.53	83.1521	1,071.53	82.4969	1,071.53	82.482	1,071.53	81.5809	1,071.53	81.9219	1,071.53	79.8446	1,071.53	80.9935	1,071.53	77.4537	1,071.53	79.2869	1,071.53	76.2523	1,071.53	77.0767	1,071.53	77.1907	1,071.53	76.28	1,071.53	77.6758	1,071.53	77.3631	1,071.53	76.3029	1,071.53	77.935	1,071.53	72.904	1,071.53	76.8151	1,071.53	71.4369	1,071.53	73.3889	1,071.53	74.3978	1,071.53	69.3137	1,071.53	76.0531	1,071.53	72.6329	1,071.53	75.5458
1,109.62	84.7536	1,109.62	84.39	1,109.62	84.8081	1,109.62	83.6806	1,109.62	84.5699	1,109.62	82.6544	1,109.62	84.0089	1,109.62	81.5156	1,109.62	83.099	1,109.62	80.616	1,109.62	81.9476	1,109.62	80.0712	1,109.62	80.8564	1,109.62	79.4557	1,109.62	79.9917	1,109.62	78.1573	1,109.62	78.9984	1,109.62	75.8618	1,109.62	77.3506	1,109.62	73.4167	1,109.62	75.0559	1,109.62	73.3515	1,109.62	73.7063	1,109.62	74.5286	1,109.62	74.4872	1,109.62	74.6268	1,109.62	75.2458	1,109.62	73.2829	1,109.62	74.6915	1,109.62	71.6294	1,109.62	72.6489	1,109.62	72.3894	1,109.62	70.54	1,109.62	73.9383	1,109.62	71.863	1,109.62	73.8238
1,148.44	83.6173	1,148.44	83.2567	1,148.44	83.5173	1,148.44	82.4482	1,148.44	83.0055	1,148.44	81.2329	1,148.44	82.205	1,148.44	79.765	1,148.44	81.2437	1,148.44	78.4856	1,148.44	80.2165	1,148.44	77.7901	1,148.44	79.2869	1,148.44	77.3167	1,148.44	78.6474	1,148.44	76.4108	1,148.44	78.1229	1,148.44	74.7791	1,148.44	77.1018	1,148.44	72.7956	1,148.44	75.0628	1,148.44	71.6484	1,148.44	72.6653	1,148.44	71.1346	1,148.44	72.5447	1,148.44	69.5332	1,148.44	73.562	1,148.44	66.9012	1,148.44	73.1123	1,148.44	68.9414	1,148.44	70.322	1,148.44	72.7462	1,148.44	67.1921	1,148.44	74.4386	1,148.44	70.8545	1,148.44	73.8741
1,189.45	86.8285	1,189.45	86.5983	1,189.45	86.783	1,189.45	86.079	1,189.45	86.441	1,189.45	85.1925	1,189.45	85.7869	1,189.45	83.8192	1,189.45	84.8191	1,189.45	81.9382	1,189.45	83.538	1,189.45	79.9974	1,189.45	82.0068	1,189.45	79.0027	1,189.45	80.5626	1,189.45	78.9176	1,189.45	79.747	1,189.45	78.538	1,189.45	79.3447	1,189.45	77.2352	1,189.45	78.4272	1,189.45	75.2346	1,189.45	76.5822	1,189.45	73.1421	1,189.45	74.7161	1,189.45	70.4148	1,189.45	74.1841	1,189.45	65.8386	1,189.45	73.5301	1,189.45	68.0459	1,189.45	70.9276	1,189.45	72.9055	1,189.45	68.6493	1,189.45	74.9998	1,189.45	72.236	1,189.45	74.8026
1,231.2	87.483	1,231.2	87.2283	1,231.2	87.5022	1,231.2	86.8184	1,231.2	87.2353	1,231.2	86.3027	1,231.2	86.6935	1,231.2	85.6357	1,231.2	85.9621	1,231.2	84.7107	1,231.2	85.1396	1,231.2	83.4826	1,231.2	84.2273	1,231.2	82.0322	1,231.2	83.1429	1,231.2	80.5431	1,231.2	81.8679	1,231.2	79.4064	1,231.2	80.5184	1,231.2	79.1399	1,231.2	79.3413	1,231.2	79.3493	1,231.2	78.7435	1,231.2	78.8592	1,231.2	78.7746	1,231.2	76.7016	1,231.2	78.5894	1,231.2	71.7997	1,231.2	77.1574	1,231.2	63.9917	1,231.2	73.7338	1,231.2	68.7707	1,231.2	69.8138	1,231.2	72.2869	1,231.2	71.3965	1,231.2	73.001
1,274.41	87.4021	1,274.41	87.1358	1,274.41	87.3629	1,274.41	86.5715	1,274.41	87.0222	1,274.41	85.7392	1,274.41	86.3992	1,274.41	84.7242	1,274.41	85.5357	1,274.41	83.677	1,274.41	84.5096	1,274.41	82.7297	1,274.41	83.4497	1,274.41	81.8586	1,274.41	82.4947	1,274.41	80.8717	1,274.41	81.623	1,274.41	79.641	1,274.41	80.5456	1,274.41	78.5778	1,274.41	79.02	1,274.41	78.5132	1,274.41	77.6103	1,274.41	78.8915	1,274.41	77.5911	1,274.41	78.1582	1,274.41	78.1426	1,274.41	75.0758	1,274.41	77.3966	1,274.41	68.9367	1,274.41	74.2742	1,274.41	70.2957	1,274.41	69.6568	1,274.41	73.8517	1,274.41	71.7297	1,274.41	74.1798
1,319.82	86.8622	1,319.82	86.6609	1,319.82	86.7813	1,319.82	86.1819	1,319.82	86.4075	1,319.82	85.409	1,319.82	85.7314	1,319.82	84.3222	1,319.82	84.7698	1,319.82	83.0242	1,319.82	83.6018	1,319.82	81.8655	1,319.82	82.3788	1,319.82	81.0938	1,319.82	81.2784	1,319.82	80.3124	1,319.82	80.3203	1,319.82	78.9442	1,319.82	79.197	1,319.82	77.2753	1,319.82	77.6073	1,319.82	76.9979	1,319.82	76.2869	1,319.82	77.8191	1,319.82	76.9057	1,319.82	77.516	1,319.82	78.0061	1,319.82	74.9094	1,319.82	77.4716	1,319.82	70.4234	1,319.82	74.4924	1,319.82	71.9001	1,319.82	69.7885	1,319.82	74.4109	1,319.82	71.1811	1,319.82	74.0889
1,365.97	86.2748	1,365.97	86.0544	1,365.97	86.1912	1,365.97	85.5247	1,365.97	85.8162	1,365.97	84.7219	1,365.97	85.1216	1,365.97	83.6786	1,365.97	84.0719	1,365.97	82.4373	1,365.97	82.7021	1,365.97	81.2225	1,365.97	81.1881	1,365.97	80.3174	1,365.97	79.8505	1,365.97	79.4322	1,365.97	78.8722	1,365.97	77.9999	1,365.97	77.9206	1,365.97	76.5397	1,365.97	76.4615	1,365.97	76.7986	1,365.97	75.0063	1,365.97	77.8497	1,365.97	75.7271	1,365.97	77.7304	1,365.97	77.1273	1,365.97	75.5774	1,365.97	76.7361	1,365.97	71.2873	1,365.97	73.7155	1,365.97	71.1411	1,365.97	68.7264	1,365.97	74.0521	1,365.97	71.2659	1,365.97	74.2301
1,414.31	86.1766	1,414.31	85.9562	1,414.31	86.1321	1,414.31	85.4383	1,414.31	85.8354	1,414.31	84.5995	1,414.31	85.2298	1,414.31	83.3977	1,414.31	84.2259	1,414.31	81.8196	1,414.31	82.7998	1,414.31	80.1325	1,414.31	81.0704	1,414.31	78.9817	1,414.31	79.4084	1,414.31	78.3797	1,414.31	78.391	1,414.31	77.2806	1,414.31	77.9205	1,414.31	75.3702	1,414.31	76.8795	1,414.31	75.2576	1,414.31	74.3918	1,414.31	77.1087	1,414.31	72.7642	1,414.31	77.3523	1,414.31	75.074	1,414.31	74.6724	1,414.31	76.3386	1,414.31	69.317	1,414.31	74.6761	1,414.31	71.1264	1,414.31	69.3903	1,414.31	74.1039	1,414.31	69.9541	1,414.31	73.842
1,464.11	85.9263	1,464.11	85.6745	1,464.11	85.7594	1,464.11	85.0366	1,464.11	85.2101	1,464.11	84.0822	1,464.11	84.3955	1,464.11	82.8853	1,464.11	83.4604	1,464.11	81.4853	1,464.11	82.4248	1,464.11	79.9045	1,464.11	81.0976	1,464.11	78.383	1,464.11	79.3697	1,464.11	77.363	1,464.11	77.7979	1,464.11	76.5167	1,464.11	77.0906	1,464.11	74.9331	1,464.11	76.2867	1,464.11	73.5633	1,464.11	73.9777	1,464.11	74.995	1,464.11	71.3371	1,464.11	76.1366	1,464.11	73.4053	1,464.11	74.7239	1,464.11	75.3898	1,464.11	70.6466	1,464.11	74.3697	1,464.11	69.8484	1,464.11	69.5158	1,464.11	72.6589	1,464.11	68.4197	1,464.11	72.4872
1,515.38	84.457	1,515.38	84.1357	1,515.38	84.4324	1,515.38	83.5	1,515.38	84.0525	1,515.38	82.5958	1,515.38	83.2923	1,515.38	81.3962	1,515.38	82.1538	1,515.38	79.7634	1,515.38	80.7457	1,515.38	77.6798	1,515.38	79.1857	1,515.38	75.9176	1,515.38	77.5089	1,515.38	75.567	1,515.38	76.0517	1,515.38	75.3476	1,515.38	75.3716	1,515.38	73.5095	1,515.38	74.8244	1,515.38	70.8025	1,515.38	73.2076	1,515.38	72.2747	1,515.38	70.9874	1,515.38	74.2098	1,515.38	71.984	1,515.38	73.5111	1,515.38	74.0967	1,515.38	70.0767	1,515.38	74.0722	1,515.38	68.4622	1,515.38	71.349	1,515.38	70.7998	1,515.38	68.0857	1,515.38	70.1812
1,568.85	83.8708	1,568.85	83.5889	1,568.85	83.789	1,568.85	83.028	1,568.85	83.3613	1,568.85	82.2373	1,568.85	82.7185	1,568.85	81.2156	1,568.85	81.8857	1,568.85	79.9315	1,568.85	80.7312	1,568.85	78.2647	1,568.85	79.1714	1,568.85	76.1893	1,568.85	77.251	1,568.85	74.4198	1,568.85	75.2415	1,568.85	73.693	1,568.85	74.0656	1,568.85	72.7254	1,568.85	73.9707	1,568.85	70.3516	1,568.85	73.1874	1,568.85	70.1328	1,568.85	70.9735	1,568.85	72.6556	1,568.85	70.583	1,568.85	72.68	1,568.85	72.1582	1,568.85	69.9737	1,568.85	71.9098	1,568.85	69.2722	1,568.85	69.5557	1,568.85	71.3336	1,568.85	69.0502	1,568.85	71.2029
1,624.51	83.6519	1,624.51	83.1969	1,624.51	83.5594	1,624.51	82.3788	1,624.51	82.928	1,624.51	81.4159	1,624.51	81.987	1,624.51	80.4025	1,624.51	80.9623	1,624.51	79.2475	1,624.51	79.8271	1,624.51	77.709	1,624.51	78.4428	1,624.51	75.6733	1,624.51	76.786	1,624.51	73.8862	1,624.51	74.9523	1,624.51	73.5384	1,624.51	73.5312	1,624.51	73.4013	1,624.51	73.0965	1,624.51	71.7702	1,624.51	72.2596	1,624.51	70.3634	1,624.51	69.9114	1,624.51	71.673	1,624.51	68.8834	1,624.51	71.7841	1,624.51	71.2181	1,624.51	69.7372	1,624.51	71.8174	1,624.51	69.8445	1,624.51	69.4574	1,624.51	71.8432	1,624.51	68.197	1,624.51	71.1814
1,681.64	83.9129	1,681.64	83.3965	1,681.64	83.8752	1,681.64	82.3765	1,681.64	83.3369	1,681.64	81.0932	1,681.64	82.4102	1,681.64	79.8485	1,681.64	81.251	1,681.64	78.6156	1,681.64	79.9527	1,681.64	76.9963	1,681.64	78.4861	1,681.64	74.8088	1,681.64	76.8269	1,681.64	72.9426	1,681.64	75.0278	1,681.64	72.9516	1,681.64	73.4072	1,681.64	73.2631	1,681.64	72.7006	1,681.64	71.7667	1,681.64	72.5132	1,681.64	69.3785	1,681.64	71.2475	1,681.64	70.0823	1,681.64	69.5138	1,681.64	70.3295	1,681.64	70.7921	1,681.64	67.5817	1,681.64	71.5001	1,681.64	69.3089	1,681.64	69.2448	1,681.64	72.2288	1,681.64	67.716	1,681.64	71.2614
1,740.97	84.7286	1,740.97	84.1891	1,740.97	84.7109	1,740.97	83.0776	1,740.97	84.2417	1,740.97	81.6081	1,740.97	83.4361	1,740.97	80.0923	1,740.97	82.4296	1,740.97	78.5761	1,740.97	81.2698	1,740.97	76.8115	1,740.97	79.8774	1,740.97	74.6065	1,740.97	78.2438	1,740.97	72.1924	1,740.97	76.4076	1,740.97	70.9542	1,740.97	74.4766	1,740.97	71.2729	1,740.97	73.4277	1,740.97	71.0535	1,740.97	73.3067	1,740.97	70.4309	1,740.97	71.9116	1,740.97	70.8525	1,740.97	69.7342	1,740.97	70.1226	1,740.97	70.9389	1,740.97	66.7987	1,740.97	71.7531	1,740.97	67.9847	1,740.97	69.5798	1,740.97	70.6831	1,740.97	67.8759	1,740.97	70.2307
1,802.49	85.1333	1,802.49	84.5734	1,802.49	85.1687	1,802.49	83.5629	1,802.49	84.716	1,802.49	82.2267	1,802.49	83.8173	1,802.49	80.5979	1,802.49	82.5926	1,802.49	78.8189	1,802.49	81.3194	1,802.49	77.22	1,802.49	80.1443	1,802.49	75.7171	1,802.49	78.8911	1,802.49	73.5687	1,802.49	77.3728	1,802.49	70.7454	1,802.49	75.6063	1,802.49	69.7017	1,802.49	73.92	1,802.49	69.9004	1,802.49	72.7587	1,802.49	69.6296	1,802.49	71.6741	1,802.49	70.7102	1,802.49	70.7762	1,802.49	71.1575	1,802.49	71.8087	1,802.49	68.0918	1,802.49	72.5368	1,802.49	67.3999	1,802.49	71.1904	1,802.49	71.6344	1,802.49	70.7156	1,802.49	72.2832
1,866.21	85.2059	1,866.21	84.7219	1,866.21	85.0549	1,866.21	83.6109	1,866.21	84.501	1,866.21	82.1517	1,866.21	83.6377	1,866.21	80.5734	1,866.21	82.3465	1,866.21	78.9777	1,866.21	80.7318	1,866.21	77.4545	1,866.21	79.2862	1,866.21	75.9607	1,866.21	78.0168	1,866.21	74.2042	1,866.21	76.3339	1,866.21	72.0321	1,866.21	74.4282	1,866.21	70.2107	1,866.21	73.3868	1,866.21	69.5535	1,866.21	72.8559	1,866.21	69.6258	1,866.21	71.2993	1,866.21	70.7565	1,866.21	69.2098	1,866.21	71.0749	1,866.21	70.0447	1,866.21	68.4684	1,866.21	70.7962	1,866.21	67.5825	1,866.21	69.1704	1,866.21	71.4711	1,866.21	69.7287	1,866.21	72.1096
1,932.13	84.5014	1,932.13	83.8595	1,932.13	84.7137	1,932.13	82.9136	1,932.13	84.4216	1,932.13	81.6076	1,932.13	83.6548	1,932.13	79.9215	1,932.13	82.4504	1,932.13	78.3159	1,932.13	80.883	1,932.13	77.1332	1,932.13	79.1594	1,932.13	75.8753	1,932.13	77.5751	1,932.13	73.9804	1,932.13	76.1723	1,932.13	71.9091	1,932.13	74.2116	1,932.13	71.0419	1,932.13	71.1531	1,932.13	69.8765	1,932.13	69.941	1,932.13	67.7012	1,932.13	70.3724	1,932.13	70.2207	1,932.13	68.9443	1,932.13	71.7335	1,932.13	69.3193	1,932.13	69.1502	1,932.13	71.6023	1,932.13	67.694	1,932.13	69.4152	1,932.13	70.8795	1,932.13	67.8446	1,932.13	71.0618
2,000.24	85.0325	2,000.24	84.5699	2,000.24	85.2808	2,000.24	83.7211	2,000.24	85.256	2,000.24	82.2801	2,000.24	84.7128	2,000.24	80.3161	2,000.24	83.4687	2,000.24	78.108	2,000.24	81.7726	2,000.24	75.8797	2,000.24	80.218	2,000.24	74.2938	2,000.24	78.8369	2,000.24	73.5145	2,000.24	77.1581	2,000.24	71.9727	2,000.24	75.2428	2,000.24	70.0499	2,000.24	73.0935	2,000.24	69.8181	2,000.24	71.2427	2,000.24	67.7919	2,000.24	71.382	2,000.24	67.0752	2,000.24	71.0073	2,000.24	70.2532	2,000.24	71.0735	2,000.24	69.4072	2,000.24	73.2142	2,000.24	70.2071	2,000.24	71.7892	2,000.24	73.8942	2,000.24	70.3787	2,000.24	73.684
2,070.56	85.4835	2,070.56	84.8063	2,070.56	85.6445	2,070.56	83.8801	2,070.56	85.2226	2,070.56	82.7444	2,070.56	84.4304	2,070.56	81.2652	2,070.56	83.3597	2,070.56	79.4245	2,070.56	82.0089	2,070.56	77.3786	2,070.56	80.5341	2,070.56	75.4166	2,070.56	78.9275	2,070.56	73.9103	2,070.56	77.1885	2,070.56	72.2922	2,070.56	75.6005	2,070.56	69.5207	2,070.56	73.7974	2,070.56	68.0582	2,070.56	71.792	2,070.56	68.349	2,070.56	71.3425	2,070.56	66.9086	2,070.56	69.9415	2,070.56	67.2533	2,070.56	68.6915	2,070.56	66.0486	2,070.56	70.4069	2,070.56	66.5487	2,070.56	68.8842	2,070.56	72.1499	2,070.56	69.3078	2,070.56	72.9521
2,143.8	84.8284	2,143.8	84.261	2,143.8	84.7576	2,143.8	83.2631	2,143.8	84.0732	2,143.8	81.9644	2,143.8	83.0957	2,143.8	80.5737	2,143.8	81.9198	2,143.8	79.37	2,143.8	80.5327	2,143.8	78.1449	2,143.8	79.1853	2,143.8	76.3482	2,143.8	77.721	2,143.8	74.5295	2,143.8	75.6317	2,143.8	73.4804	2,143.8	73.8738	2,143.8	71.7266	2,143.8	72.9587	2,143.8	69.66	2,143.8	71.1712	2,143.8	69.4985	2,143.8	70.5566	2,143.8	69.1124	2,143.8	69.9566	2,143.8	69.8033	2,143.8	67.4311	2,143.8	68.5653	2,143.8	69.5776	2,143.8	66.8469	2,143.8	68.5281	2,143.8	72.2627	2,143.8	68.5452	2,143.8	72.9373
2,219.24	83.9824	2,219.24	83.1384	2,219.24	84.4045	2,219.24	82.1705	2,219.24	84.0508	2,219.24	81.1579	2,219.24	83.0351	2,219.24	80.0747	2,219.24	81.8969	2,219.24	78.9172	2,219.24	80.7361	2,219.24	77.5013	2,219.24	79.1883	2,219.24	75.2813	2,219.24	77.487	2,219.24	73.0972	2,219.24	75.7483	2,219.24	72.3808	2,219.24	73.6479	2,219.24	71.034	2,219.24	72.2688	2,219.24	70.0504	2,219.24	70.5749	2,219.24	70.6225	2,219.24	67.6766	2,219.24	69.8696	2,219.24	68.5627	2,219.24	70.6349	2,219.24	67.6739	2,219.24	68.9655	2,219.24	67.68	2,219.24	67.2318	2,219.24	67.9312	2,219.24	72.9197	2,219.24	65.4167	2,219.24	72.3357
2,297.61	85.0261	2,297.61	84.3028	2,297.61	85.2077	2,297.61	83.2356	2,297.61	84.8534	2,297.61	82.0947	2,297.61	83.985	2,297.61	80.549	2,297.61	82.8058	2,297.61	78.6451	2,297.61	81.4414	2,297.61	77.2967	2,297.61	79.8259	2,297.61	75.4682	2,297.61	78.3581	2,297.61	72.2937	2,297.61	76.8804	2,297.61	71.0088	2,297.61	74.6696	2,297.61	70.3962	2,297.61	73.0389	2,297.61	67.5031	2,297.61	72.1261	2,297.61	67.2879	2,297.61	69.1791	2,297.61	68.58	2,297.61	68.8236	2,297.61	69.9492	2,297.61	71.2408	2,297.61	67.6921	2,297.61	71.601	2,297.61	64.7283	2,297.61	69.3291	2,297.61	71.138	2,297.61	67.2402	2,297.61	71.2224
2,378.17	85.2523	2,378.17	84.8825	2,378.17	85.2223	2,378.17	83.9575	2,378.17	84.8995	2,378.17	82.9451	2,378.17	84.0268	2,378.17	81.8602	2,378.17	82.7871	2,378.17	80.2563	2,378.17	81.3831	2,378.17	78.4749	2,378.17	79.4924	2,378.17	76.729	2,378.17	77.6082	2,378.17	74.3993	2,378.17	76.5293	2,378.17	72.3206	2,378.17	75.0311	2,378.17	70.8924	2,378.17	72.9675	2,378.17	67.7967	2,378.17	71.9351	2,378.17	65.4173	2,378.17	70.1597	2,378.17	66.2733	2,378.17	67.9667	2,378.17	70.7985	2,378.17	68.6413	2,378.17	70.5894	2,378.17	70.7346	2,378.17	64.8126	2,378.17	68.5309	2,378.17	72.698	2,378.17	66.2422	2,378.17	73.1712
2,462.4	84.3704	2,462.4	84.2202	2,462.4	84.3405	2,462.4	83.6566	2,462.4	84.1897	2,462.4	82.7112	2,462.4	83.6534	2,462.4	81.6681	2,462.4	82.5346	2,462.4	80.402	2,462.4	81.0655	2,462.4	78.6925	2,462.4	79.5024	2,462.4	76.9103	2,462.4	77.6214	2,462.4	74.963	2,462.4	75.672	2,462.4	72.7138	2,462.4	74.0631	2,462.4	71.217	2,462.4	72.293	2,462.4	69.4784	2,462.4	70.5503	2,462.4	67.8096	2,462.4	68.6875	2,462.4	67.3729	2,462.4	67.07	2,462.4	69.1487	2,462.4	67.2559	2,462.4	68.9098	2,462.4	69.8113	2,462.4	65.8726	2,462.4	68.5824	2,462.4	72.5081	2,462.4	63.3055	2,462.4	71.663
2,548.83	84.8875	2,548.83	84.4983	2,548.83	84.9033	2,548.83	83.7411	2,548.83	84.4954	2,548.83	82.6977	2,548.83	83.6876	2,548.83	81.5548	2,548.83	82.657	2,548.83	80.2044	2,548.83	81.5343	2,548.83	78.4615	2,548.83	80.1284	2,548.83	76.6885	2,548.83	78.2942	2,548.83	74.9294	2,548.83	76.2405	2,548.83	73.0323	2,548.83	74.009	2,548.83	71.933	2,548.83	72.2743	2,548.83	70.3576	2,548.83	71.2258	2,548.83	67.8682	2,548.83	68.5268	2,548.83	67.1362	2,548.83	66.365	2,548.83	67.9208	2,548.83	64.6327	2,548.83	67.4028	2,548.83	65.0217	2,548.83	59.5701	2,548.83	66.6008	2,548.83	69.1868	2,548.83	62.1175	2,548.83	69.657
2,638.92	84.7422	2,638.92	84.6193	2,638.92	84.6214	2,638.92	84.1831	2,638.92	84.306	2,638.92	83.1743	2,638.92	83.8031	2,638.92	81.6873	2,638.92	82.8145	2,638.92	80.0065	2,638.92	81.3922	2,638.92	78.0798	2,638.92	79.8592	2,638.92	76.1819	2,638.92	77.8875	2,638.92	74.3419	2,638.92	75.5525	2,638.92	71.7591	2,638.92	73.5196	2,638.92	70.0106	2,638.92	71.2366	2,638.92	68.9695	2,638.92	70.1079	2,638.92	66.7275	2,638.92	69.0562	2,638.92	66.0512	2,638.92	66.4095	2,638.92	67.364	2,638.92	66.9468	2,638.92	68.3955	2,638.92	66.9566	2,638.92	63.414	2,638.92	67.0261	2,638.92	69.4441	2,638.92	63.4377	2,638.92	69.5095
2,731.93	84.8949	2,731.93	84.6887	2,731.93	84.7608	2,731.93	84.2775	2,731.93	84.2978	2,731.93	83.5363	2,731.93	83.7125	2,731.93	82.2919	2,731.93	82.9738	2,731.93	80.7291	2,731.93	81.8067	2,731.93	78.9877	2,731.93	80.1439	2,731.93	77.0594	2,731.93	78.2327	2,731.93	75.1551	2,731.93	76.1606	2,731.93	73.1602	2,731.93	74.0408	2,731.93	71.1515	2,731.93	72.0844	2,731.93	69.4587	2,731.93	69.8633	2,731.93	67.3888	2,731.93	67.6563	2,731.93	66.2964	2,731.93	66.4234	2,731.93	67.2053	2,731.93	64.864	2,731.93	68.1225	2,731.93	65.6167	2,731.93	64.1553	2,731.93	66.7947	2,731.93	67.6399	2,731.93	62.8889	2,731.93	69.2102
2,828.61	85.1703	2,828.61	84.9959	2,828.61	85.1185	2,828.61	84.6488	2,828.61	84.7975	2,828.61	83.9417	2,828.61	84.2683	2,828.61	82.8327	2,828.61	83.5122	2,828.61	81.2589	2,828.61	82.4001	2,828.61	79.0607	2,828.61	80.7645	2,828.61	76.7645	2,828.61	78.622	2,828.61	74.7554	2,828.61	76.3897	2,828.61	72.5098	2,828.61	74.3202	2,828.61	70.8556	2,828.61	71.8706	2,828.61	69.0558	2,828.61	70.3726	2,828.61	66.8905	2,828.61	68.8796	2,828.61	66.4971	2,828.61	65.757	2,828.61	66.3107	2,828.61	67.4263	2,828.61	68.2515	2,828.61	67.1378	2,828.61	65.8227	2,828.61	67.364	2,828.61	69.6711	2,828.61	62.9636	2,828.61	68.7802
2,928.22	84.6379	2,928.22	84.6417	2,928.22	84.5067	2,928.22	84.3132	2,928.22	84.2161	2,928.22	83.6419	2,928.22	83.716	2,928.22	82.7191	2,928.22	83.0203	2,928.22	81.2487	2,928.22	81.7643	2,928.22	78.9501	2,928.22	79.922	2,928.22	76.5702	2,928.22	77.7487	2,928.22	74.7227	2,928.22	75.4254	2,928.22	72.3425	2,928.22	73.3995	2,928.22	70.3807	2,928.22	71.1577	2,928.22	69.3563	2,928.22	68.8727	2,928.22	65.6421	2,928.22	67.7238	2,928.22	65.1078	2,928.22	65.0575	2,928.22	65.7306	2,928.22	62.7088	2,928.22	65.7324	2,928.22	64.9261	2,928.22	62.2864	2,928.22	65.3929	2,928.22	66.3438	2,928.22	60.1735	2,928.22	67.0974
3,031.49	84.3314	3,031.49	84.4002	3,031.49	84.2813	3,031.49	84.2398	3,031.49	84.1935	3,031.49	83.5233	3,031.49	83.9229	3,031.49	82.1705	3,031.49	83.1374	3,031.49	80.3982	3,031.49	81.6689	3,031.49	78.331	3,031.49	79.8747	3,031.49	75.9675	3,031.49	77.5305	3,031.49	73.8428	3,031.49	74.595	3,031.49	71.7118	3,031.49	72.39	3,031.49	69.5284	3,031.49	70.6802	3,031.49	68.9601	3,031.49	68.6366	3,031.49	67.4616	3,031.49	68.0575	3,031.49	66.0108	3,031.49	65.8126	3,031.49	65.4733	3,031.49	64.4927	3,031.49	65.4334	3,031.49	63.4514	3,031.49	62.6842	3,031.49	64.2383	3,031.49	66.8192	3,031.49	61.2927	3,031.49	64.9767
3,138.43	84.2936	3,138.43	84.6204	3,138.43	84.1954	3,138.43	84.5448	3,138.43	84.2693	3,138.43	83.7443	3,138.43	84.0092	3,138.43	82.4047	3,138.43	83.1369	3,138.43	80.7018	3,138.43	81.5886	3,138.43	78.551	3,138.43	79.4701	3,138.43	75.8451	3,138.43	77.0794	3,138.43	73.3965	3,138.43	74.7981	3,138.43	71.4714	3,138.43	72.2242	3,138.43	69.055	3,138.43	69.7919	3,138.43	67.7836	3,138.43	68.0053	3,138.43	65.727	3,138.43	66.8487	3,138.43	63.2456	3,138.43	65.8307	3,138.43	65.3399	3,138.43	63.4565	3,138.43	64.8527	3,138.43	63.7867	3,138.43	61.1679	3,138.43	64.6255	3,138.43	64.0579	3,138.43	61.1	3,138.43	65.6926
3,249.02	84.5221	3,249.02	84.7222	3,249.02	84.4544	3,249.02	84.532	3,249.02	84.4284	3,249.02	83.6741	3,249.02	83.9767	3,249.02	82.1463	3,249.02	82.9293	3,249.02	80.0799	3,249.02	81.167	3,249.02	77.6934	3,249.02	78.85	3,249.02	75.2484	3,249.02	76.5237	3,249.02	72.9997	3,249.02	74.0911	3,249.02	70.8349	3,249.02	71.2353	3,249.02	68.8109	3,249.02	68.6516	3,249.02	67.151	3,249.02	66.5246	3,249.02	65.5399	3,249.02	65.8474	3,249.02	63.4071	3,249.02	63.9879	3,249.02	62.5579	3,249.02	62.7906	3,249.02	64.6857	3,249.02	63.1217	3,249.02	61.7503	3,249.02	62.6263	3,249.02	65.6669	3,249.02	58.7318	3,249.02	64.213
3,363.28	84.553	3,363.28	84.6421	3,363.28	84.3587	3,363.28	84.3064	3,363.28	84.1247	3,363.28	83.4396	3,363.28	83.5441	3,363.28	81.8581	3,363.28	82.4943	3,363.28	79.5159	3,363.28	80.6612	3,363.28	76.8619	3,363.28	77.9195	3,363.28	74.2861	3,363.28	74.9874	3,363.28	71.8723	3,363.28	72.5613	3,363.28	69.5181	3,363.28	69.9896	3,363.28	67.397	3,363.28	67.1339	3,363.28	66.8592	3,363.28	64.8807	3,363.28	65.1542	3,363.28	64.1965	3,363.28	62.1554	3,363.28	62.7283	3,363.28	62.6807	3,363.28	59.9861	3,363.28	63.9673	3,363.28	61.9314	3,363.28	60.7959	3,363.28	63.7299	3,363.28	63.4445	3,363.28	58.1761	3,363.28	63.217
3,481.93	84.6019	3,481.93	84.6828	3,481.93	84.5514	3,481.93	84.4043	3,481.93	84.4689	3,481.93	83.5247	3,481.93	84.0694	3,481.93	81.6769	3,481.93	82.9685	3,481.93	78.9456	3,481.93	80.8523	3,481.93	76.2848	3,481.93	78.2164	3,481.93	73.6171	3,481.93	75.3864	3,481.93	70.812	3,481.93	72.8568	3,481.93	68.6889	3,481.93	70.5213	3,481.93	66.161	3,481.93	68.5082	3,481.93	64.8593	3,481.93	65.9638	3,481.93	64.2728	3,481.93	64.3279	3,481.93	61.7273	3,481.93	63.2873	3,481.93	60.3243	3,481.93	60.5434	3,481.93	61.9619	3,481.93	60.166	3,481.93	57.9168	3,481.93	62.926	3,481.93	61.7868	3,481.93	58.8032	3,481.93	62.0209
3,604.98	83.993	3,604.98	84.1236	3,604.98	83.7984	3,604.98	83.7855	3,604.98	83.6679	3,604.98	82.8635	3,604.98	83.169	3,604.98	81.1841	3,604.98	81.8684	3,604.98	78.6719	3,604.98	79.8684	3,604.98	75.7809	3,604.98	77.0677	3,604.98	72.991	3,604.98	74.3621	3,604.98	70.3671	3,604.98	71.702	3,604.98	67.9824	3,604.98	68.2782	3,604.98	66.1301	3,604.98	66.8146	3,604.98	64.8861	3,604.98	64.4692	3,604.98	63.4828	3,604.98	63.7041	3,604.98	61.5796	3,604.98	64.4761	3,604.98	59.195	3,604.98	60.0901	3,604.98	60.0798	3,604.98	59.7577	3,604.98	60.1315	3,604.98	60.667	3,604.98	63.7199	3,604.98	57.7904	3,604.98	61.4432
3,732.42	84.4758	3,732.42	84.4263	3,732.42	84.4608	3,732.42	83.721	3,732.42	84.4967	3,732.42	82.3483	3,732.42	83.7986	3,732.42	80.4385	3,732.42	82.3553	3,732.42	77.8865	3,732.42	80.3829	3,732.42	74.8569	3,732.42	77.7817	3,732.42	71.8554	3,732.42	75.1045	3,732.42	69.0895	3,732.42	72.4657	3,732.42	66.8627	3,732.42	69.5783	3,732.42	64.1587	3,732.42	66.5522	3,732.42	61.8219	3,732.42	63.2262	3,732.42	62.1699	3,732.42	61.5161	3,732.42	60.8399	3,732.42	64.3086	3,732.42	61.1113	3,732.42	60.5442	3,732.42	61.2101	3,732.42	59.2315	3,732.42	58.0668	3,732.42	60.08	3,732.42	62.5661	3,732.42	58.8106	3,732.42	60.3462
3,863.53	85.159	3,863.53	84.9116	3,863.53	85.1409	3,863.53	84.1666	3,863.53	84.8217	3,863.53	82.8065	3,863.53	84.0038	3,863.53	80.7044	3,863.53	82.6037	3,863.53	78.0939	3,863.53	80.527	3,863.53	75.4925	3,863.53	78.0757	3,863.53	72.5267	3,863.53	75.2643	3,863.53	69.6173	3,863.53	72.7903	3,863.53	67.4224	3,863.53	70.2201	3,863.53	64.2072	3,863.53	67.9549	3,863.53	61.5734	3,863.53	65.9552	3,863.53	60.1278	3,863.53	61.6766	3,863.53	57.5382	3,863.53	60.7497	3,863.53	58.8291	3,863.53	58.4704	3,863.53	60.6391	3,863.53	55.18	3,863.53	57.5588	3,863.53	59.8381	3,863.53	60.2686	3,863.53	59.9573	3,863.53	59.1161
3,999.76	85.217	3,999.76	84.8588	3,999.76	85.1762	3,999.76	84.0516	3,999.76	84.8345	3,999.76	82.5467	3,999.76	84.1753	3,999.76	80.2957	3,999.76	82.6062	3,999.76	77.4359	3,999.76	80.4779	3,999.76	74.5744	3,999.76	77.8882	3,999.76	71.8644	3,999.76	74.9479	3,999.76	68.8818	3,999.76	72.1571	3,999.76	66.1753	3,999.76	69.0815	3,999.76	64.5119	3,999.76	66.8348	3,999.76	62.3674	3,999.76	65.7111	3,999.76	61.3809	3,999.76	63.3444	3,999.76	56.6665	3,999.76	60.9279	3,999.76	58.5933	3,999.76	57.898	3,999.76	59.702	3,999.76	59.716	3,999.76	56.4482	3,999.76	60.583	3,999.76	58.7632	3,999.76	58.4355	3,999.76	59.1516
4,141.11	85.604	4,141.11	85.0788	4,141.11	85.6111	4,141.11	83.9557	4,141.11	85.2103	4,141.11	82.2579	4,141.11	84.1752	4,141.11	79.9743	4,141.11	82.5387	4,141.11	77.2707	4,141.11	80.2585	4,141.11	74.2963	4,141.11	77.1892	4,141.11	71.6555	4,141.11	74.2647	4,141.11	68.6048	4,141.11	71.319	4,141.11	65.2184	4,141.11	68.2725	4,141.11	63.358	4,141.11	64.9811	4,141.11	60.2928	4,141.11	62.8216	4,141.11	58.9881	4,141.11	61.3286	4,141.11	56.6307	4,141.11	61.9331	4,141.11	56.0803	4,141.11	59.1308	4,141.11	59.1391	4,141.11	54.3979	4,141.11	58.2524	4,141.11	59.0636	4,141.11	57.7813	4,141.11	56.569	4,141.11	57.5352
4,286.87	86.5801	4,286.87	85.9508	4,286.87	86.6373	4,286.87	84.6045	4,286.87	86.0952	4,286.87	82.4777	4,286.87	84.8248	4,286.87	79.7451	4,286.87	82.7186	4,286.87	76.5547	4,286.87	80.0335	4,286.87	73.2776	4,286.87	77.2576	4,286.87	69.0641	4,286.87	73.822	4,286.87	65.3455	4,286.87	70.2395	4,286.87	63.9395	4,286.87	67.0757	4,286.87	61.5054	4,286.87	65.1964	4,286.87	60.8367	4,286.87	62.9121	4,286.87	59.8937	4,286.87	59.4554	4,286.87	56.4788	4,286.87	59.9652	4,286.87	55.2199	4,286.87	59.3394	4,286.87	57.2644	4,286.87	56.4351	4,286.87	56.2977	4,286.87	57.2471	4,286.87	58.3889	4,286.87	57.65	4,286.87	57.7071
4,438.48	86.8531	4,438.48	85.9878	4,438.48	86.9204	4,438.48	84.4809	4,438.48	86.0795	4,438.48	82.2988	4,438.48	84.6095	4,438.48	79.6551	4,438.48	82.3612	4,438.48	76.7504	4,438.48	79.6538	4,438.48	73.6414	4,438.48	76.2929	4,438.48	70.3712	4,438.48	72.4485	4,438.48	67.0784	4,438.48	69.1215	4,438.48	63.995	4,438.48	66.3845	4,438.48	62.4982	4,438.48	63.3702	4,438.48	58.1496	4,438.48	61.2584	4,438.48	56.936	4,438.48	59.4273	4,438.48	52.8104	4,438.48	56.1112	4,438.48	53.5497	4,438.48	53.9485	4,438.48	56.0194	4,438.48	55.9986	4,438.48	53.205	4,438.48	55.8796	4,438.48	55.967	4,438.48	52.1298	4,438.48	55.4653
4,594.48	87.6071	4,594.48	86.6693	4,594.48	87.6	4,594.48	85.0679	4,594.48	86.6877	4,594.48	82.654	4,594.48	84.9548	4,594.48	79.4343	4,594.48	82.5238	4,594.48	75.8749	4,594.48	79.4996	4,594.48	71.7251	4,594.48	75.7025	4,594.48	68.1926	4,594.48	72.07	4,594.48	65.6762	4,594.48	68.3346	4,594.48	64.0923	4,594.48	65.1739	4,594.48	62.3226	4,594.48	63.1514	4,594.48	59.8398	4,594.48	60.8505	4,594.48	59.9658	4,594.48	57.4577	4,594.48	57.2005	4,594.48	56.5795	4,594.48	55.4138	4,594.48	51.1335	4,594.48	56.6508	4,594.48	54.9245	4,594.48	57.9078	4,594.48	54.8177	4,594.48	55.5384	4,594.48	56.8842	4,594.48	54.8308
4,757.08	87.4931	4,757.08	86.608	4,757.08	87.5704	4,757.08	84.8664	4,757.08	86.6573	4,757.08	82.3083	4,757.08	84.7676	4,757.08	79.3408	4,757.08	82.1081	4,757.08	75.964	4,757.08	78.6322	4,757.08	72.8093	4,757.08	74.8801	4,757.08	69.6543	4,757.08	71.5109	4,757.08	66.5314	4,757.08	68.1553	4,757.08	64.5768	4,757.08	65.4201	4,757.08	62.1251	4,757.08	63.5827	4,757.08	59.8748	4,757.08	61.5765	4,757.08	59.0217	4,757.08	58.8407	4,757.08	53.7147	4,757.08	59.1903	4,757.08	56.0026	4,757.08	53.2843	4,757.08	55.6801	4,757.08	53.9502	4,757.08	56.9161	4,757.08	54.0268	4,757.08	57.3245	4,757.08	56.9206	4,757.08	54.5311
4,924.8	87.6453	4,924.8	86.7738	4,924.8	87.6673	4,924.8	85.0747	4,924.8	86.5975	4,924.8	82.5004	4,924.8	84.5777	4,924.8	79.4657	4,924.8	81.7615	4,924.8	75.9881	4,924.8	78.7067	4,924.8	72.4963	4,924.8	75.2445	4,924.8	69.5308	4,924.8	71.692	4,924.8	67.3647	4,924.8	68.9145	4,924.8	64.4786	4,924.8	65.9125	4,924.8	63.1549	4,924.8	61.9216	4,924.8	58.4844	4,924.8	61.4852	4,924.8	58.4612	4,924.8	58.283	4,924.8	56.5391	4,924.8	56.39	4,924.8	55.9144	4,924.8	56.115	4,924.8	55.7833	4,924.8	54.7513	4,924.8	54.136	4,924.8	53.1939	4,924.8	56.4369	4,924.8	56.0426	4,924.8	52.3023
5,098.39	87.8263	5,098.39	86.758	5,098.39	87.7351	5,098.39	84.7766	5,098.39	86.6291	5,098.39	82.25	5,098.39	84.4515	5,098.39	79.1462	5,098.39	81.6372	5,098.39	76.0364	5,098.39	78.5348	5,098.39	72.9594	5,098.39	75.0471	5,098.39	70.3894	5,098.39	72.195	5,098.39	67.6069	5,098.39	68.8085	5,098.39	65.4444	5,098.39	66.5218	5,098.39	63.7478	5,098.39	65.2236	5,098.39	61.5333	5,098.39	62.5348	5,098.39	60.216	5,098.39	61.3997	5,098.39	55.8973	5,098.39	59.2215	5,098.39	55.1853	5,098.39	56.1293	5,098.39	56.3501	5,098.39	53.4549	5,098.39	58.3959	5,098.39	52.7423	5,098.39	53.4187	5,098.39	58.2593	5,098.39	54.2556
5,277.83	87.6145	5,277.83	86.4842	5,277.83	87.5826	5,277.83	84.5056	5,277.83	86.1553	5,277.83	82.0947	5,277.83	84.0496	5,277.83	79.8094	5,277.83	81.6531	5,277.83	77.0159	5,277.83	78.7246	5,277.83	74.1314	5,277.83	75.9501	5,277.83	71.3779	5,277.83	72.4513	5,277.83	68.5687	5,277.83	69.2434	5,277.83	65.5396	5,277.83	66.9614	5,277.83	64.0494	5,277.83	64.4609	5,277.83	62.0358	5,277.83	63.9861	5,277.83	59.7323	5,277.83	61.1086	5,277.83	57.5429	5,277.83	59.2786	5,277.83	57.943	5,277.83	57.7092	5,277.83	56.3488	5,277.83	56.7263	5,277.83	58.6942	5,277.83	52.9904	5,277.83	57.1896	5,277.83	56.1714	5,277.83	52.4898
5,463.87	87.9352	5,463.87	86.7677	5,463.87	87.7286	5,463.87	84.7656	5,463.87	86.1867	5,463.87	82.3643	5,463.87	83.9766	5,463.87	79.5635	5,463.87	81.5285	5,463.87	76.7303	5,463.87	78.8816	5,463.87	73.7544	5,463.87	75.927	5,463.87	70.2014	5,463.87	72.7984	5,463.87	67.699	5,463.87	69.943	5,463.87	66.6148	5,463.87	67.4766	5,463.87	64.7034	5,463.87	66.0778	5,463.87	61.9684	5,463.87	63.4191	5,463.87	60.0035	5,463.87	62.7388	5,463.87	58.8858	5,463.87	60.0308	5,463.87	58.4118	5,463.87	60.0235	5,463.87	57.3224	5,463.87	54.0564	5,463.87	58.0063	5,463.87	54.4122	5,463.87	54.2501	5,463.87	55.3938	5,463.87	52.6672
5,656.49	87.7811	5,656.49	86.2904	5,656.49	87.7188	5,656.49	84.0174	5,656.49	86.238	5,656.49	81.7763	5,656.49	84.0089	5,656.49	79.42	5,656.49	81.8148	5,656.49	76.6662	5,656.49	78.9861	5,656.49	73.6081	5,656.49	75.8675	5,656.49	71.6111	5,656.49	72.9608	5,656.49	69.5102	5,656.49	70.5219	5,656.49	67.114	5,656.49	69.0558	5,656.49	65.2158	5,656.49	66.6772	5,656.49	63.8148	5,656.49	64.1158	5,656.49	60.6915	5,656.49	62.1402	5,656.49	56.751	5,656.49	59.3088	5,656.49	53.8096	5,656.49	57.4471	5,656.49	53.8544	5,656.49	59.145	5,656.49	56.0526	5,656.49	53.4609	5,656.49	55.9205	5,656.49	57.2671	5,656.49	52.4367
5,856.45	87.8546	5,856.45	86.287	5,856.45	87.7934	5,856.45	84.2731	5,856.45	86.0487	5,856.45	82.3458	5,856.45	83.8821	5,856.45	79.8025	5,856.45	81.687	5,856.45	77.1273	5,856.45	78.9303	5,856.45	74.7883	5,856.45	76.0579	5,856.45	71.8088	5,856.45	73.3412	5,856.45	69.2984	5,856.45	71.2849	5,856.45	67.2397	5,856.45	68.5158	5,856.45	63.8267	5,856.45	66.2706	5,856.45	62.9267	5,856.45	64.3556	5,856.45	60.4051	5,856.45	64.3092	5,856.45	60.7301	5,856.45	61.9547	5,856.45	59.1364	5,856.45	60.7152	5,856.45	55.1153	5,856.45	58.1106	5,856.45	58.9001	5,856.45	58.3122	5,856.45	56.2863	5,856.45	55.9701	5,856.45	54.3718
6,062.99	87.9665	6,062.99	86.5923	6,062.99	87.7681	6,062.99	84.6738	6,062.99	86.0921	6,062.99	82.797	6,062.99	83.9366	6,062.99	80.3803	6,062.99	81.7411	6,062.99	77.3322	6,062.99	78.9339	6,062.99	74.2585	6,062.99	76.2626	6,062.99	72.1851	6,062.99	74.0822	6,062.99	69.9754	6,062.99	71.825	6,062.99	67.902	6,062.99	69.3475	6,062.99	65.9107	6,062.99	66.5968	6,062.99	63.5318	6,062.99	64.45	6,062.99	61.7301	6,062.99	63.0338	6,062.99	59.8509	6,062.99	60.6549	6,062.99	60.0749	6,062.99	61.7982	6,062.99	57.4825	6,062.99	57.0071	6,062.99	57.4636	6,062.99	56.8369	6,062.99	55.1845	6,062.99	56.1521	6,062.99	48.4753
6,276.86	88.3617	6,276.86	86.8452	6,276.86	88.2723	6,276.86	84.8253	6,276.86	86.6218	6,276.86	82.8881	6,276.86	84.2931	6,276.86	80.0983	6,276.86	82.1131	6,276.86	77.5599	6,276.86	79.4331	6,276.86	75.7027	6,276.86	77.0523	6,276.86	73.4081	6,276.86	74.4161	6,276.86	70.7876	6,276.86	72.2779	6,276.86	67.6741	6,276.86	69.4777	6,276.86	64.5603	6,276.86	67.5289	6,276.86	64.3268	6,276.86	64.3764	6,276.86	60.7872	6,276.86	62.7395	6,276.86	61.5051	6,276.86	59.6193	6,276.86	57.427	6,276.86	58.6035	6,276.86	56.8429	6,276.86	56.4505	6,276.86	57.5104	6,276.86	56.5855	6,276.86	55.8762	6,276.86	58.5432	6,276.86	52.4933
6,498.05	88.1404	6,498.05	86.5335	6,498.05	88.0957	6,498.05	84.6792	6,498.05	86.3405	6,498.05	82.6875	6,498.05	84.4424	6,498.05	80.3995	6,498.05	82.3764	6,498.05	78.4323	6,498.05	79.7904	6,498.05	76.2847	6,498.05	77.7996	6,498.05	73.5706	6,498.05	75.7541	6,498.05	70.4743	6,498.05	72.8469	6,498.05	67.9341	6,498.05	69.8832	6,498.05	65.5212	6,498.05	66.8324	6,498.05	63.397	6,498.05	64.0536	6,498.05	61.8723	6,498.05	63.4974	6,498.05	61.7453	6,498.05	61.6212	6,498.05	60.1466	6,498.05	63.8799	6,498.05	58.2374	6,498.05	59.1796	6,498.05	55.7284	6,498.05	57.8536	6,498.05	55.8394	6,498.05	57.2681	6,498.05	49.6333
6,727.29	87.9934	6,727.29	86.7378	6,727.29	87.8775	6,727.29	84.7025	6,727.29	86.5202	6,727.29	82.6721	6,727.29	84.3888	6,727.29	80.595	6,727.29	82.0727	6,727.29	78.8042	6,727.29	80.1724	6,727.29	76.6503	6,727.29	78.5234	6,727.29	73.531	6,727.29	76.0514	6,727.29	70.2391	6,727.29	72.885	6,727.29	67.7367	6,727.29	69.8003	6,727.29	64.2295	6,727.29	68.104	6,727.29	64.1548	6,727.29	65.0477	6,727.29	61.0954	6,727.29	63.284	6,727.29	61.8832	6,727.29	58.3939	6,727.29	57.3212	6,727.29	62.3055	6,727.29	58.9626	6,727.29	56.8241	6,727.29	57.0548	6,727.29	57.8871	6,727.29	53.8736	6,727.29	59.1319	6,727.29	48.1182
6,964.6	88.2317	6,964.6	86.5615	6,964.6	88.2004	6,964.6	84.3862	6,964.6	86.5737	6,964.6	82.1469	6,964.6	84.4293	6,964.6	80.3268	6,964.6	82.4572	6,964.6	78.7446	6,964.6	80.4553	6,964.6	76.398	6,964.6	78.788	6,964.6	73.4574	6,964.6	76.2875	6,964.6	70.8086	6,964.6	73.3016	6,964.6	68.4711	6,964.6	70.8185	6,964.6	66.0448	6,964.6	67.873	6,964.6	64.1727	6,964.6	65.6302	6,964.6	61.8216	6,964.6	64.7527	6,964.6	62.4576	6,964.6	61.0201	6,964.6	58.8634	6,964.6	61.5641	6,964.6	57.4727	6,964.6	59.8536	6,964.6	55.9484	6,964.6	56.3707	6,964.6	55.7168	6,964.6	57.7332	6,964.6	54.9223
7,209.96	87.9672	7,209.96	86.3995	7,209.96	87.8587	7,209.96	83.7512	7,209.96	86.3626	7,209.96	81.6872	7,209.96	84.0714	7,209.96	80.4204	7,209.96	81.9351	7,209.96	78.8903	7,209.96	80.5612	7,209.96	76.6745	7,209.96	78.597	7,209.96	74.1134	7,209.96	75.7705	7,209.96	71.3913	7,209.96	72.9908	7,209.96	68.1673	7,209.96	70.561	7,209.96	65.4357	7,209.96	68.6777	7,209.96	64.4645	7,209.96	65.9596	7,209.96	61.2417	7,209.96	63.9892	7,209.96	62.6004	7,209.96	59.8837	7,209.96	57.7951	7,209.96	62.5234	7,209.96	58.4234	7,209.96	61.1667	7,209.96	54.5407	7,209.96	57.4612	7,209.96	53.78	7,209.96	54.118	7,209.96	53.039
7,464.11	87.5404	7,464.11	85.8004	7,464.11	87.5775	7,464.11	83.4152	7,464.11	85.8725	7,464.11	81.7013	7,464.11	83.4636	7,464.11	80.6628	7,464.11	81.843	7,464.11	78.973	7,464.11	80.2842	7,464.11	76.5471	7,464.11	78.4468	7,464.11	74.1257	7,464.11	75.6805	7,464.11	71.9524	7,464.11	73.3244	7,464.11	69.3749	7,464.11	70.495	7,464.11	67.0083	7,464.11	67.2464	7,464.11	64.7489	7,464.11	65.6266	7,464.11	61.6721	7,464.11	64.684	7,464.11	62.3933	7,464.11	62.7046	7,464.11	59.3002	7,464.11	60.5464	7,464.11	58.1719	7,464.11	61.1323	7,464.11	55.5331	7,464.11	56.2519	7,464.11	54.1231	7,464.11	54.384	7,464.11	52.124
7,727.78	86.2945	7,727.78	85.4189	7,727.78	86.1901	7,727.78	83.1928	7,727.78	85.1065	7,727.78	81.856	7,727.78	82.9497	7,727.78	80.8575	7,727.78	81.7059	7,727.78	79.1824	7,727.78	80.5662	7,727.78	77.0596	7,727.78	78.3378	7,727.78	74.7698	7,727.78	76.208	7,727.78	71.9029	7,727.78	73.4843	7,727.78	69.2086	7,727.78	71.1006	7,727.78	67.1696	7,727.78	68.5239	7,727.78	65.901	7,727.78	65.7367	7,727.78	62.6539	7,727.78	63.6572	7,727.78	62.9621	7,727.78	63.1332	7,727.78	60.2357	7,727.78	60.789	7,727.78	57.3661	7,727.78	62.1217	7,727.78	55.6659	7,727.78	57.1588	7,727.78	50.9165	7,727.78	54.2373	7,727.78	47.2725
8,000.24	85.5376	8,000.24	85.5622	8,000.24	85.2884	8,000.24	83.749	8,000.24	84.7152	8,000.24	82.212	8,000.24	82.9792	8,000.24	80.8158	8,000.24	81.7739	8,000.24	79.4374	8,000.24	80.0187	8,000.24	77.5801	8,000.24	78.6197	8,000.24	75.0376	8,000.24	76.6476	8,000.24	72.4126	8,000.24	73.9796	8,000.24	69.1118	8,000.24	71.5503	8,000.24	65.8316	8,000.24	67.8968	8,000.24	65.0676	8,000.24	64.8715	8,000.24	62.9722	8,000.24	63.5043	8,000.24	60.8887	8,000.24	62.2861	8,000.24	61.2691	8,000.24	58.6432	8,000.24	57.4355	8,000.24	61.3769	8,000.24	55.4206	8,000.24	56.9248	8,000.24	54.0009	8,000.24	54.3957	8,000.24	49.3486
8,282.23	86.1541	8,282.23	86.3872	8,282.23	85.6016	8,282.23	84.3923	8,282.23	85.1293	8,282.23	82.1196	8,282.23	83.4464	8,282.23	80.0343	8,282.23	81.49	8,282.23	78.879	8,282.23	79.6919	8,282.23	77.2072	8,282.23	78.6698	8,282.23	74.2721	8,282.23	76.983	8,282.23	70.6279	8,282.23	73.8185	8,282.23	67.1297	8,282.23	70.7463	8,282.23	64.9367	8,282.23	66.8542	8,282.23	62.2534	8,282.23	63.448	8,282.23	61.1646	8,282.23	61.4664	8,282.23	59.221	8,282.23	62.1828	8,282.23	59.6501	8,282.23	58.9844	8,282.23	55.146	8,282.23	60.6707	8,282.23	52.9658	8,282.23	54.8954	8,282.23	50.3996	8,282.23	49.235	8,282.23	48.9129
8,574.46	87.8948	8,574.46	87.3226	8,574.46	87.4389	8,574.46	84.9386	8,574.46	86.4441	8,574.46	82.4177	8,574.46	84.2734	8,574.46	79.6016	8,574.46	81.6774	8,574.46	77.3824	8,574.46	79.0988	8,574.46	74.5208	8,574.46	77.3725	8,574.46	71.3983	8,574.46	74.7459	8,574.46	67.8129	8,574.46	70.9238	8,574.46	62.8669	8,574.46	67.4372	8,574.46	59.4826	8,574.46	63.277	8,574.46	57.5005	8,574.46	60.9016	8,574.46	58.8712	8,574.46	59.226	8,574.46	54.1371	8,574.46	58.8361	8,574.46	55.9547	8,574.46	55.4277	8,574.46	50.8012	8,574.46	58.6463	8,574.46	47.9208	8,574.46	51.2655	8,574.46	49.1713	8,574.46	46.6717	8,574.46	47.6102
8,876.22	87.6293	8,876.22	87.4455	8,876.22	87.4089	8,876.22	85.5938	8,876.22	86.8324	8,876.22	82.833	8,876.22	84.9542	8,876.22	79.2527	8,876.22	81.833	8,876.22	77.0973	8,876.22	78.9473	8,876.22	74.6697	8,876.22	77.3378	8,876.22	71.1509	8,876.22	74.9121	8,876.22	67.3855	8,876.22	70.4315	8,876.22	63.7879	8,876.22	67.1089	8,876.22	61.1876	8,876.22	63.8902	8,876.22	57.8382	8,876.22	61.2333	8,876.22	58.2898	8,876.22	58.6867	8,876.22	58.0395	8,876.22	60.7561	8,876.22	56.7214	8,876.22	55.3873	8,876.22	50.1189	8,876.22	60.171	8,876.22	48.7226	8,876.22	51.2392	8,876.22	48.6468	8,876.22	48.3343	8,876.22	47.6899
9,189.7	85.7925	9,189.7	86.73	9,189.7	85.7029	9,189.7	85.3951	9,189.7	86.2764	9,189.7	82.8516	9,189.7	84.5663	9,189.7	80.2794	9,189.7	81.6525	9,189.7	78.7907	9,189.7	79.8308	9,189.7	75.9205	9,189.7	78.4392	9,189.7	71.4982	9,189.7	75.785	9,189.7	67.7163	9,189.7	70.7035	9,189.7	63.4074	9,189.7	68.0255	9,189.7	61.2097	9,189.7	65.1659	9,189.7	58.1854	9,189.7	61.5683	9,189.7	58.6495	9,189.7	59.5388	9,189.7	57.4571	9,189.7	59.2436	9,189.7	55.7353	9,189.7	56.8966	9,189.7	49.8964	9,189.7	60.7904	9,189.7	50.9217	9,189.7	51.254	9,189.7	45.4444	9,189.7	51.5678	9,189.7	51.312
9,513.43	85.3803	9,513.43	86.0061	9,513.43	85.5436	9,513.43	84.7408	9,513.43	85.7971	9,513.43	82.6087	9,513.43	83.977	9,513.43	80.8511	9,513.43	81.2424	9,513.43	78.9572	9,513.43	80.0509	9,513.43	75.4029	9,513.43	78.0026	9,513.43	70.5036	9,513.43	74.4955	9,513.43	67.4068	9,513.43	69.4606	9,513.43	63.28	9,513.43	66.724	9,513.43	60.836	9,513.43	63.6849	9,513.43	58.2947	9,513.43	60.7457	9,513.43	57.1061	9,513.43	59.3351	9,513.43	57.135	9,513.43	56.7104	9,513.43	56.3762	9,513.43	53.4127	9,513.43	47.8757	9,513.43	59.3604	9,513.43	49.1174	9,513.43	45.5933	9,513.43	50.0916	9,513.43	50.2945	9,513.43	52.3411
9,848.88	86.6494	9,848.88	86.3827	9,848.88	86.7619	9,848.88	84.6526	9,848.88	86.1593	9,848.88	82.6414	9,848.88	83.9109	9,848.88	81.1796	9,848.88	81.4745	9,848.88	78.629	9,848.88	80.5647	9,848.88	74.9365	9,848.88	77.9347	9,848.88	70.708	9,848.88	74.4556	9,848.88	67.815	9,848.88	69.8566	9,848.88	64.5045	9,848.88	66.6495	9,848.88	61.5936	9,848.88	64.2405	9,848.88	58.3784	9,848.88	60.6555	9,848.88	57.7376	9,848.88	58.8531	9,848.88	57.9423	9,848.88	56.4324	9,848.88	55.4688	9,848.88	55.2858	9,848.88	49.4474	9,848.88	56.6775	9,848.88	44.695	9,848.88	45.4943	9,848.88	51.0385	9,848.88	49.3473	9,848.88	51.8693
10,196.8	87.5499	10,196.8	86.777	10,196.8	87.4951	10,196.8	85.114	10,196.8	86.1173	10,196.8	83.2969	10,196.8	83.9879	10,196.8	81.7219	10,196.8	82.2167	10,196.8	78.5332	10,196.8	81.1944	10,196.8	74.7656	10,196.8	77.6537	10,196.8	70.5768	10,196.8	74.2879	10,196.8	67.2796	10,196.8	69.9361	10,196.8	64.0501	10,196.8	66.4048	10,196.8	59.4972	10,196.8	63.496	10,196.8	57.7395	10,196.8	59.6314	10,196.8	57.0724	10,196.8	58.5362	10,196.8	57.6155	10,196.8	56.9359	10,196.8	53.8914	10,196.8	56.4071	10,196.8	45.5103	10,196.8	53.0197	10,196.8	46.5792	10,196.8	37.9534	10,196.8	51.2889	10,196.8	50.2932	10,196.8	49.9005
10,556.4	87.0434	10,556.4	86.7239	10,556.4	86.9905	10,556.4	85.5382	10,556.4	85.9725	10,556.4	83.7929	10,556.4	84.6197	10,556.4	81.7557	10,556.4	82.8852	10,556.4	77.9342	10,556.4	81.0513	10,556.4	74.9408	10,556.4	76.6531	10,556.4	71.3249	10,556.4	74.0501	10,556.4	67.826	10,556.4	70.2898	10,556.4	64.4015	10,556.4	66.4223	10,556.4	60.7551	10,556.4	63.3905	10,556.4	58.0957	10,556.4	60.172	10,556.4	57.6239	10,556.4	58.2792	10,556.4	57.5268	10,556.4	58.0582	10,556.4	51.9095	10,556.4	55.0441	10,556.4	45.8648	10,556.4	53.3795	10,556.4	46.2078	10,556.4	45.8143	10,556.4	54.7155	10,556.4	53.0981	10,556.4	50.8236
10,928.5	86.9549	10,928.5	86.4917	10,928.5	86.9393	10,928.5	85.0519	10,928.5	86.101	10,928.5	83.4606	10,928.5	84.6139	10,928.5	81.6229	10,928.5	82.9865	10,928.5	78.6847	10,928.5	80.7127	10,928.5	76.2874	10,928.5	77.0762	10,928.5	73.1017	10,928.5	75.2595	10,928.5	68.8466	10,928.5	71.6547	10,928.5	65.2728	10,928.5	67.4281	10,928.5	62.0596	10,928.5	64.209	10,928.5	59.1255	10,928.5	61.7694	10,928.5	59.2435	10,928.5	58.344	10,928.5	57.674	10,928.5	58.4687	10,928.5	49.1575	10,928.5	55.4888	10,928.5	44.6066	10,928.5	53.6909	10,928.5	48.2311	10,928.5	40.1157	10,928.5	53.9501	10,928.5	53.11	10,928.5	52.6524
11,313.7	87.2221	11,313.7	86.2849	11,313.7	87.2624	11,313.7	84.7065	11,313.7	86.0604	11,313.7	83.463	11,313.7	84.5817	11,313.7	81.4717	11,313.7	82.9783	11,313.7	78.8351	11,313.7	80.8201	11,313.7	75.8963	11,313.7	78.1127	11,313.7	72.6572	11,313.7	75.5108	11,313.7	68.0268	11,313.7	71.5273	11,313.7	64.4552	11,313.7	67.9346	11,313.7	62.2176	11,313.7	63.7515	11,313.7	58.3819	11,313.7	62.1832	11,313.7	59.4708	11,313.7	59.1332	11,313.7	56.3692	11,313.7	58.5877	11,313.7	49.3973	11,313.7	53.7004	11,313.7	46.1276	11,313.7	52.3035	11,313.7	49.1311	11,313.7	43.7565	11,313.7	54.7991	11,313.7	52.4202	11,313.7	52.1574
11,712.9	87.0873	11,712.9	85.9013	11,712.9	87.0271	11,712.9	84.3402	11,712.9	85.4961	11,712.9	83.5071	11,712.9	84.069	11,712.9	81.3902	11,712.9	82.9332	11,712.9	78.1727	11,712.9	80.7837	11,712.9	74.3876	11,712.9	77.2715	11,712.9	71.3713	11,712.9	73.7807	11,712.9	66.4705	11,712.9	69.6591	11,712.9	63.1326	11,712.9	66.267	11,712.9	60.9511	11,712.9	61.4234	11,712.9	57.6417	11,712.9	60.8248	11,712.9	59.0425	11,712.9	58.6307	11,712.9	54.5539	11,712.9	56.9288	11,712.9	51.2697	11,712.9	53.4757	11,712.9	47.2026	11,712.9	50.7694	11,712.9	47.5934	11,712.9	47.3708	11,712.9	51.86	11,712.9	50.5019	11,712.9	47.8956
12,126	85.7499	12,126	85.0232	12,126	85.6843	12,126	84.3998	12,126	84.6563	12,126	83.8517	12,126	84.169	12,126	80.6813	12,126	82.8701	12,126	77.0738	12,126	79.7724	12,126	74.0088	12,126	75.0358	12,126	71.5399	12,126	72.9097	12,126	67.0948	12,126	69.0476	12,126	62.2838	12,126	65.6761	12,126	61.0312	12,126	60.9265	12,126	57.7946	12,126	59.4309	12,126	57.3971	12,126	58.6202	12,126	54.0685	12,126	54.2976	12,126	50.0369	12,126	54.9844	12,126	48.2683	12,126	50.3342	12,126	50.5197	12,126	52.0318	12,126	53.4132	12,126	48.9408	12,126	45.5788
12,553.7	86.0701	12,553.7	85.3774	12,553.7	86.0285	12,553.7	84.8514	12,553.7	85.353	12,553.7	83.8653	12,553.7	84.8358	12,553.7	80.4696	12,553.7	83.02	12,553.7	78.4192	12,553.7	80.0288	12,553.7	76.7139	12,553.7	76.8893	12,553.7	73.6067	12,553.7	75.9043	12,553.7	68.8829	12,553.7	71.6818	12,553.7	64.5587	12,553.7	68.0127	12,553.7	61.9295	12,553.7	63.4014	12,553.7	59.3202	12,553.7	60.6874	12,553.7	57.7499	12,553.7	60.9048	12,553.7	56.3446	12,553.7	54.2625	12,553.7	51.9179	12,553.7	55.6697	12,553.7	48.2229	12,553.7	51.8525	12,553.7	51.1857	12,553.7	51.0431	12,553.7	53.957	12,553.7	48.7207	12,553.7	42.0463
12,996.1	87.1248	12,996.1	85.8688	12,996.1	87.1232	12,996.1	85.178	12,996.1	85.9666	12,996.1	83.6012	12,996.1	85.2533	12,996.1	80.8492	12,996.1	83.0856	12,996.1	79.1129	12,996.1	80.6066	12,996.1	77.0586	12,996.1	78.3576	12,996.1	72.6697	12,996.1	76.7568	12,996.1	68.6217	12,996.1	72.1595	12,996.1	64.5043	12,996.1	68.5023	12,996.1	62.0626	12,996.1	63.8743	12,996.1	59.6994	12,996.1	61.6632	12,996.1	56.9469	12,996.1	61.4151	12,996.1	56.3359	12,996.1	55.5213	12,996.1	52.302	12,996.1	55.3233	12,996.1	50.9709	12,996.1	47.8056	12,996.1	49.6195	12,996.1	46.3436	12,996.1	52.7937	12,996.1	51.4815	12,996.1	39.0248
13,454.6	87.1364	13,454.6	85.7445	13,454.6	86.9979	13,454.6	85.2274	13,454.6	85.5426	13,454.6	83.2628	13,454.6	84.7893	13,454.6	81.1417	13,454.6	82.4407	13,454.6	79.1526	13,454.6	80.6834	13,454.6	75.7023	13,454.6	78.5524	13,454.6	71.5393	13,454.6	75.5839	13,454.6	67.9848	13,454.6	71.3519	13,454.6	63.8793	13,454.6	67.4089	13,454.6	61.2304	13,454.6	63.0327	13,454.6	58.9611	13,454.6	61.4194	13,454.6	56.1436	13,454.6	60.4309	13,454.6	54.5573	13,454.6	54.6452	13,454.6	50.492	13,454.6	56.1032	13,454.6	49.3044	13,454.6	47.1734	13,454.6	51.0939	13,454.6	42.5904	13,454.6	49.1236	13,454.6	48.4293	13,454.6	41.0482
13,928.5	86.3296	13,928.5	85.3616	13,928.5	86.0557	13,928.5	85.14	13,928.5	84.7519	13,928.5	83.1724	13,928.5	84.4017	13,928.5	81.25	13,928.5	82.232	13,928.5	78.7533	13,928.5	80.4239	13,928.5	75.1416	13,928.5	77.7316	13,928.5	72.4965	13,928.5	74.1679	13,928.5	68.5959	13,928.5	71.117	13,928.5	63.6511	13,928.5	67.0594	13,928.5	61.6588	13,928.5	62.5829	13,928.5	58.8334	13,928.5	61.4117	13,928.5	57.1204	13,928.5	59.9241	13,928.5	54.3513	13,928.5	52.0985	13,928.5	49.6333	13,928.5	56.1346	13,928.5	50.1955	13,928.5	43.8305	13,928.5	53.5102	13,928.5	47.8584	13,928.5	51.2364	13,928.5	50.2233	13,928.5	45.9496
14,419.9	85.9711	14,419.9	84.8505	14,419.9	85.6478	14,419.9	84.7231	14,419.9	84.5139	14,419.9	82.5849	14,419.9	84.2466	14,419.9	80.9141	14,419.9	81.8636	14,419.9	78.3634	14,419.9	80.1828	14,419.9	75.637	14,419.9	77.1935	14,419.9	73.1543	14,419.9	74.8423	14,419.9	68.7571	14,419.9	71.9448	14,419.9	64.0575	14,419.9	67.5368	14,419.9	61.7316	14,419.9	62.2951	14,419.9	58.0891	14,419.9	61.4363	14,419.9	56.9007	14,419.9	59.5824	14,419.9	55.5441	14,419.9	51.4525	14,419.9	51.5578	14,419.9	55.757	14,419.9	52.3913	14,419.9	45.9897	14,419.9	52.6797	14,419.9	49.4572	14,419.9	54.142	14,419.9	50.3807	14,419.9	51.145
14,928.2	86.0964	14,928.2	84.8	14,928.2	85.7888	14,928.2	84.3961	14,928.2	84.6654	14,928.2	82.1994	14,928.2	84.233	14,928.2	80.8927	14,928.2	81.7602	14,928.2	78.0443	14,928.2	80.29	14,928.2	75.9867	14,928.2	77.1401	14,928.2	72.2851	14,928.2	75.6587	14,928.2	67.8199	14,928.2	71.8435	14,928.2	62.9867	14,928.2	67.2708	14,928.2	60.8069	14,928.2	60.6875	14,928.2	57.0334	14,928.2	62.275	14,928.2	56.8682	14,928.2	58.4164	14,928.2	55.4904	14,928.2	52.0929	14,928.2	53.5845	14,928.2	55.2338	14,928.2	53.7469	14,928.2	50.621	14,928.2	52.3555	14,928.2	53.761	14,928.2	56.435	14,928.2	53.9581	14,928.2	53.7456
15,454.8	85.7729	15,454.8	84.6264	15,454.8	85.3674	15,454.8	84.3631	15,454.8	84.5151	15,454.8	82.2199	15,454.8	83.9902	15,454.8	80.8224	15,454.8	81.6703	15,454.8	77.8867	15,454.8	79.9437	15,454.8	75.834	15,454.8	77.5089	15,454.8	71.8956	15,454.8	75.7719	15,454.8	67.2795	15,454.8	71.8618	15,454.8	62.5163	15,454.8	67.1266	15,454.8	59.9739	15,454.8	60.1668	15,454.8	56.3985	15,454.8	63.5211	15,454.8	57.2064	15,454.8	55.9874	15,454.8	55.7146	15,454.8	52.2689	15,454.8	54.6672	15,454.8	56.8013	15,454.8	54.5081	15,454.8	52.1972	15,454.8	52.7807	15,454.8	55.7777	15,454.8	58.1447	15,454.8	57.7578	15,454.8	57.3968
15,999.8	85.0156	15,999.8	84.2061	15,999.8	84.5548	15,999.8	83.8053	15,999.8	84.0415	15,999.8	81.9165	15,999.8	83.1072	15,999.8	80.2541	15,999.8	81.3267	15,999.8	78.0107	15,999.8	79.3622	15,999.8	75.5424	15,999.8	77.8888	15,999.8	72.2383	15,999.8	75.1528	15,999.8	66.6877	15,999.8	72.2558	15,999.8	62.2964	15,999.8	67.9433	15,999.8	61.359	15,999.8	58.9478	15,999.8	56.6329	15,999.8	64.0379	15,999.8	59.1909	15,999.8	53.3155	15,999.8	57.6721	15,999.8	53.1546	15,999.8	55.848	15,999.8	57.6709	15,999.8	54.1684	15,999.8	53.0112	15,999.8	53.769	15,999.8	56.8453	15,999.8	58.342	15,999.8	60.3163	15,999.8	59.9466
16,564.5	85.0769	16,564.5	84.3178	16,564.5	84.7884	16,564.5	83.274	16,564.5	84.3328	16,564.5	81.7533	16,564.5	82.7245	16,564.5	79.827	16,564.5	81.0701	16,564.5	77.7938	16,564.5	79.1049	16,564.5	74.7304	16,564.5	77.145	16,564.5	71.4501	16,564.5	74.3032	16,564.5	65.321	16,564.5	71.8155	16,564.5	59.7348	16,564.5	67.132	16,564.5	61.4645	16,564.5	55.0369	16,564.5	57.2707	16,564.5	63.1873	16,564.5	59.1122	16,564.5	47.3365	16,564.5	57.4635	16,564.5	55.1646	16,564.5	56.0983	16,564.5	58.0366	16,564.5	55.1754	16,564.5	53.0448	16,564.5	53.9563	16,564.5	57.4374	16,564.5	59.1202	16,564.5	61.8062	16,564.5	61.6321
17,148.2	84.4016	17,148.2	84.1648	17,148.2	84.4138	17,148.2	83.2746	17,148.2	84.3138	17,148.2	82.0414	17,148.2	82.6907	17,148.2	79.9908	17,148.2	81.2755	17,148.2	77.0974	17,148.2	79.2566	17,148.2	74.2362	17,148.2	76.5806	17,148.2	71.026	17,148.2	74.1374	17,148.2	65.0745	17,148.2	70.7365	17,148.2	57.0978	17,148.2	67.0744	17,148.2	61.569	17,148.2	56.1641	17,148.2	57.9326	17,148.2	63.2086	17,148.2	59.6617	17,148.2	38.8463	17,148.2	57.6295	17,148.2	54.7152	17,148.2	57.9686	17,148.2	58.2197	17,148.2	55.4435	17,148.2	54.2675	17,148.2	53.8385	17,148.2	60.0709	17,148.2	57.98	17,148.2	62.1505	17,148.2	62.7337
17,753.2	82.809	17,753.2	83.6946	17,753.2	82.9248	17,753.2	83.3989	17,753.2	83.7946	17,753.2	82.0041	17,753.2	82.8152	17,753.2	79.8803	17,753.2	81.1975	17,753.2	76.8438	17,753.2	79.1381	17,753.2	73.9761	17,753.2	76.3648	17,753.2	71.9315	17,753.2	73.1487	17,753.2	66.3224	17,753.2	71.2128	17,753.2	54.9408	17,753.2	68.7719	17,753.2	63.0177	17,753.2	59.9144	17,753.2	59.2894	17,753.2	63.7484	17,753.2	60.8461	17,753.2	50.1324	17,753.2	59.0947	17,753.2	56.8903	17,753.2	60.1538	17,753.2	59.1251	17,753.2	56.2596	17,753.2	55.576	17,753.2	54.4882	17,753.2	62.0492	17,753.2	57.9346	17,753.2	63.605	17,753.2	63.9716
18,379.4	81.3876	18,379.4	82.908	18,379.4	81.8873	18,379.4	82.8055	18,379.4	83.273	18,379.4	80.7739	18,379.4	82.4006	18,379.4	78.8176	18,379.4	80.1191	18,379.4	75.6622	18,379.4	78.0253	18,379.4	72.7411	18,379.4	75.6125	18,379.4	71.2684	18,379.4	71.96	18,379.4	65.3502	18,379.4	70.3321	18,379.4	53.2473	18,379.4	67.8299	18,379.4	61.7585	18,379.4	61.3756	18,379.4	59.7083	18,379.4	62.3771	18,379.4	60.4413	18,379.4	54.2813	18,379.4	58.4668	18,379.4	58.2847	18,379.4	59.7621	18,379.4	59.6589	18,379.4	56.0536	18,379.4	53.3136	18,379.4	50.716	18,379.4	61.4024	18,379.4	58.7228	18,379.4	63.1297	18,379.4	64.328
19,027.6	81.1336	19,027.6	82.8343	19,027.6	81.8326	19,027.6	82.4824	19,027.6	82.689	19,027.6	79.6575	19,027.6	81.8533	19,027.6	77.9189	19,027.6	79.1475	19,027.6	74.5819	19,027.6	77.0981	19,027.6	71.3917	19,027.6	74.8122	19,027.6	69.1523	19,027.6	71.2241	19,027.6	63.911	19,027.6	68.3164	19,027.6	52.9092	19,027.6	67.1646	19,027.6	60.253	19,027.6	62.0825	19,027.6	59.9236	19,027.6	60.6986	19,027.6	60.2208	19,027.6	57.4445	19,027.6	58.4237	19,027.6	58.8373	19,027.6	60.4571	19,027.6	59.8901	19,027.6	56.4271	19,027.6	50.1137	19,027.6	47.0259	19,027.6	60.2569	19,027.6	60.0861	19,027.6	63.3328	19,027.6	64.725
19,698.5	80.3773	19,698.5	82.3545	19,698.5	81.717	19,698.5	81.9191	19,698.5	82.0113	19,698.5	78.9171	19,698.5	81.345	19,698.5	77.1891	19,698.5	78.8513	19,698.5	73.1228	19,698.5	76.1846	19,698.5	69.2501	19,698.5	73.3515	19,698.5	67.9839	19,698.5	68.3421	19,698.5	64.435	19,698.5	67.4294	19,698.5	54.9726	19,698.5	67.4664	19,698.5	59.7434	19,698.5	63.6502	19,698.5	60.5145	19,698.5	59.4202	19,698.5	60.3262	19,698.5	59.3139	19,698.5	59.1961	19,698.5	59.0707	19,698.5	61.7245	19,698.5	60.0151	19,698.5	58.0282	19,698.5	52.7734	19,698.5	48.5647	19,698.5	61.1391	19,698.5	61.2466	19,698.5	64.3864	19,698.5	65.1582
19,999.5	79.7283	19,999.5	81.7215	19,999.5	81.2636	19,999.5	81.7912	19,999.5	81.181	19,999.5	78.4928	19,999.5	81.0582	19,999.5	76.3101	19,999.5	78.5812	19,999.5	72.1382	19,999.5	75.0167	19,999.5	69.0594	19,999.5	72.1576	19,999.5	68.3913	19,999.5	67.0384	19,999.5	64.8672	19,999.5	68.2663	19,999.5	56.5268	19,999.5	67.9555	19,999.5	59.8865	19,999.5	63.9053	19,999.5	60.6218	19,999.5	58.8712	19,999.5	60.7556	19,999.5	59.8178	19,999.5	58.4245	19,999.5	60.4689	19,999.5	61.8733	19,999.5	60.0939	19,999.5	58.9147	19,999.5	53.3688	19,999.5	50.5883	19,999.5	62.2559	19,999.5	61.9274	19,999.5	65.0311	19,999.5	65.3008
