"SPL Horizontal"																																																																							
"On-Axis"		"10°"		"-10°"		"20°"		"-20°"		"30°"		"-30°"		"40°"		"-40°"		"50°"		"-50°"		"60°"		"-60°"		"70°"		"-70°"		"80°"		"-80°"		"90°"		"-90°"		"100°"		"-100°"		"110°"		"-110°"		"120°"		"-120°"		"130°"		"-130°"		"140°"		"-140°"		"150°"		"-150°"		"160°"		"-160°"		"170°"		"-170°"		"180°"	
"Frequency [Hz]"	"Sound Pessure Level [dB]  / [2.83V 1m] "	"Frequency [Hz]"	"Sound Pessure Level [dB]  / [2.83V 1m] "	"Frequency [Hz]"	"Sound Pessure Level [dB]  / [2.83V 1m] "	"Frequency [Hz]"	"Sound Pessure Level [dB]  / [2.83V 1m] "	"Frequency [Hz]"	"Sound Pessure Level [dB]  / [2.83V 1m] "	"Frequency [Hz]"	"Sound Pessure Level [dB]  / [2.83V 1m] "	"Frequency [Hz]"	"Sound Pessure Level [dB]  / [2.83V 1m] "	"Frequency [Hz]"	"Sound Pessure Level [dB]  / [2.83V 1m] "	"Frequency [Hz]"	"Sound Pessure Level [dB]  / [2.83V 1m] "	"Frequency [Hz]"	"Sound Pessure Level [dB]  / [2.83V 1m] "	"Frequency [Hz]"	"Sound Pessure Level [dB]  / [2.83V 1m] "	"Frequency [Hz]"	"Sound Pessure Level [dB]  / [2.83V 1m] "	"Frequency [Hz]"	"Sound Pessure Level [dB]  / [2.83V 1m] "	"Frequency [Hz]"	"Sound Pessure Level [dB]  / [2.83V 1m] "	"Frequency [Hz]"	"Sound Pessure Level [dB]  / [2.83V 1m] "	"Frequency [Hz]"	"Sound Pessure Level [dB]  / [2.83V 1m] "	"Frequency [Hz]"	"Sound Pessure Level [dB]  / [2.83V 1m] "	"Frequency [Hz]"	"Sound Pessure Level [dB]  / [2.83V 1m] "	"Frequency [Hz]"	"Sound Pessure Level [dB]  / [2.83V 1m] "	"Frequency [Hz]"	"Sound Pessure Level [dB]  / [2.83V 1m] "	"Frequency [Hz]"	"Sound Pessure Level [dB]  / [2.83V 1m] "	"Frequency [Hz]"	"Sound Pessure Level [dB]  / [2.83V 1m] "	"Frequency [Hz]"	"Sound Pessure Level [dB]  / [2.83V 1m] "	"Frequency [Hz]"	"Sound Pessure Level [dB]  / [2.83V 1m] "	"Frequency [Hz]"	"Sound Pessure Level [dB]  / [2.83V 1m] "	"Frequency [Hz]"	"Sound Pessure Level [dB]  / [2.83V 1m] "	"Frequency [Hz]"	"Sound Pessure Level [dB]  / [2.83V 1m] "	"Frequency [Hz]"	"Sound Pessure Level [dB]  / [2.83V 1m] "	"Frequency [Hz]"	"Sound Pessure Level [dB]  / [2.83V 1m] "	"Frequency [Hz]"	"Sound Pessure Level [dB]  / [2.83V 1m] "	"Frequency [Hz]"	"Sound Pessure Level [dB]  / [2.83V 1m] "	"Frequency [Hz]"	"Sound Pessure Level [dB]  / [2.83V 1m] "	"Frequency [Hz]"	"Sound Pessure Level [dB]  / [2.83V 1m] "	"Frequency [Hz]"	"Sound Pessure Level [dB]  / [2.83V 1m] "	"Frequency [Hz]"	"Sound Pessure Level [dB]  / [2.83V 1m] "	"Frequency [Hz]"	"Sound Pessure Level [dB]  / [2.83V 1m] "
20.5078	62.9492	20.5078	62.7035	20.5078	63.0737	20.5078	62.3254	20.5078	63.0815	20.5078	61.7954	20.5078	62.9706	20.5078	61.0839	20.5078	62.7326	20.5078	60.1469	20.5078	62.3518	20.5078	58.9194	20.5078	61.804	20.5078	57.3045	20.5078	61.0534	20.5078	55.1596	20.5078	60.0476	20.5078	52.3234	20.5078	58.7079	20.5078	49.0924	20.5078	56.9113	20.5078	48.2277	20.5078	54.458	20.5078	50.8662	20.5078	51.0634	20.5078	53.6113	20.5078	47.1172	20.5078	55.5587	20.5078	47.3606	20.5078	56.7825	20.5078	51.0509	20.5078	57.3938	20.5078	53.9348	20.5078	57.447	20.5078	55.8184	20.5078	56.9418
21.2402	60.2607	21.2402	59.8841	21.2402	60.4369	21.2402	59.2804	21.2402	60.4231	21.2402	58.3999	21.2402	60.2145	21.2402	57.1592	21.2402	59.7912	21.2402	55.4182	21.2402	59.1137	21.2402	52.9522	21.2402	58.1132	21.2402	49.5965	21.2402	56.6721	21.2402	47.3486	21.2402	54.5774	21.2402	50.3674	21.2402	51.4254	21.2402	54.2906	21.2402	46.7993	21.2402	57.2714	21.2402	46.0424	21.2402	59.4691	21.2402	51.3376	21.2402	61.0858	21.2402	55.3616	21.2402	62.2421	21.2402	58.1555	21.2402	63.0059	21.2402	60.1604	21.2402	63.4142	21.2402	61.6033	21.2402	63.4841	21.2402	62.6014	21.2402	63.2176
21.9727	58.4708	21.9727	58.0288	21.9727	58.6652	21.9727	57.3201	21.9727	58.6187	21.9727	56.3245	21.9727	58.3227	21.9727	55.066	21.9727	57.7518	21.9727	53.7716	21.9727	56.8637	21.9727	53.1797	21.9727	55.611	21.9727	54.1545	21.9727	54.014	21.9727	56.2884	21.9727	52.4781	21.9727	58.6214	21.9727	52.324	21.9727	60.7185	21.9727	54.2662	21.9727	62.4861	21.9727	56.9539	21.9727	63.9289	21.9727	59.4294	21.9727	65.0687	21.9727	61.4964	21.9727	65.9244	21.9727	63.1715	21.9727	66.5096	21.9727	64.4991	21.9727	66.8322	21.9727	65.515	21.9727	66.8961	21.9727	66.244	21.9727	66.7014
22.7051	60.0699	22.7051	59.8553	22.7051	60.1609	22.7051	59.5493	22.7051	60.1137	22.7051	59.2187	22.7051	59.9248	22.7051	58.9846	22.7051	59.6039	22.7051	59.0237	22.7051	59.1858	22.7051	59.498	22.7051	58.7579	22.7051	60.4343	22.7051	58.4929	22.7051	61.695	22.7051	58.634	22.7051	63.0856	22.7051	59.3498	22.7051	64.4527	22.7051	60.5688	22.7051	65.7038	22.7051	62.0472	22.7051	66.79	22.7051	63.5566	22.7051	67.6862	22.7051	64.96	22.7051	68.3797	22.7051	66.191	22.7051	68.8633	22.7051	67.221	22.7051	69.133	22.7051	68.0386	22.7051	69.1863	22.7051	68.6394	22.7051	69.022
23.4375	63.1961	23.4375	63.083	23.4375	63.2494	23.4375	62.9327	23.4375	63.2325	23.4375	62.7852	23.4375	63.1451	23.4375	62.7021	23.4375	62.9981	23.4375	62.7638	23.4375	62.8186	23.4375	63.0492	23.4375	62.6565	23.4375	63.5997	23.4375	62.5901	23.4375	64.3913	23.4375	62.7169	23.4375	65.3444	23.4375	63.1181	23.4375	66.3603	23.4375	63.8107	23.4375	67.3516	23.4375	64.7312	23.4375	68.254	23.4375	65.7703	23.4375	69.0242	23.4375	66.8206	23.4375	69.6344	23.4375	67.8009	23.4375	70.0672	23.4375	68.6578	23.4375	70.3122	23.4375	69.3582	23.4375	70.3636	23.4375	69.8827	23.4375	70.2198
24.1699	64.7169	24.1699	64.6257	24.1699	64.7621	24.1699	64.5064	24.1699	64.7528	24.1699	64.3891	24.1699	64.6887	24.1699	64.3193	24.1699	64.5784	24.1699	64.3561	24.1699	64.4422	24.1699	64.5609	24.1699	64.3165	24.1699	64.975	24.1699	64.2575	24.1699	65.5968	24.1699	64.3362	24.1699	66.3785	24.1699	64.6194	24.1699	67.2449	24.1699	65.1376	24.1699	68.1179	24.1699	65.8644	24.1699	68.9323	24.1699	66.7267	24.1699	69.6398	24.1699	67.6348	24.1699	70.2073	24.1699	68.5098	24.1699	70.613	24.1699	69.2923	24.1699	70.8432	24.1699	69.9426	24.1699	70.8908	24.1699	70.4349	24.1699	70.7537
25.6348	66.0778	25.6348	66.0209	25.6348	66.1048	25.6348	65.9483	25.6348	66.0952	25.6348	65.8829	25.6348	66.0487	25.6348	65.8577	25.6348	65.9726	25.6348	65.9146	25.6348	65.8829	25.6348	66.0966	25.6348	65.8073	25.6348	66.4356	25.6348	65.7861	25.6348	66.9371	25.6348	65.8693	25.6348	67.5747	25.6348	66.1049	25.6348	68.2966	25.6348	66.5197	25.6348	69.0414	25.6348	67.1046	25.6348	69.751	25.6348	67.8137	25.6348	70.3779	25.6348	68.5814	25.6348	70.8866	25.6348	69.3404	25.6348	71.2523	25.6348	70.0346	25.6348	71.4592	25.6348	70.6218	25.6348	71.4987	25.6348	71.0727	25.6348	71.3685
26.3672	66.4765	26.3672	66.4338	26.3672	66.4954	26.3672	66.3802	26.3672	66.484	26.3672	66.3368	26.3672	66.4424	26.3672	66.3333	26.3672	66.3772	26.3672	66.4062	26.3672	66.3034	26.3672	66.5932	26.3672	66.246	26.3672	66.9219	26.3672	66.2412	26.3672	67.3977	26.3672	66.3328	26.3672	67.9981	26.3672	66.5628	26.3672	68.678	26.3672	66.9558	26.3672	69.3817	26.3672	67.5051	26.3672	70.0548	26.3672	68.1721	26.3672	70.6517	26.3672	68.8984	26.3672	71.1369	26.3672	69.6217	26.3672	71.4854	26.3672	70.288	26.3672	71.681	26.3672	70.8554	26.3672	71.7146	26.3672	71.2941	26.3672	71.5842
27.0996	66.6263	27.0996	66.5997	27.0996	66.6365	27.0996	66.5698	27.0996	66.6237	27.0996	66.5574	27.0996	66.5881	27.0996	66.5909	27.0996	66.5365	27.0996	66.7036	27.0996	66.4841	27.0996	66.9282	27.0996	66.4558	27.0996	67.2863	27.0996	66.4862	27.0996	67.779	27.0996	66.6155	27.0996	68.3828	27.0996	66.8802	27.0996	69.0551	27.0996	67.2988	27.0996	69.7443	27.0996	67.861	27.0996	70.4005	27.0996	68.5287	27.0996	70.9808	27.0996	69.2467	27.0996	71.4519	27.0996	69.9574	27.0996	71.7897	27.0996	70.6102	27.0996	71.9784	27.0996	71.1657	27.0996	72.0094	27.0996	71.5954	27.0996	71.8803
27.832	67.1068	27.832	67.1074	27.832	67.1034	27.832	67.117	27.832	67.0913	27.832	67.1541	27.832	67.071	27.832	67.2427	27.832	67.0499	27.832	67.4095	27.832	67.0427	27.832	67.6787	27.832	67.072	27.832	68.0641	27.832	67.1669	27.832	68.5627	27.832	67.3591	27.832	69.1526	27.832	67.6738	27.832	69.7968	27.832	68.1198	27.832	70.4514	27.832	68.6837	27.832	71.0728	27.832	69.3307	27.832	71.6226	27.832	70.0139	27.832	72.07	27.832	70.6842	27.832	72.3923	27.832	71.2977	27.832	72.574	27.832	71.8189	27.832	72.6065	27.832	72.2216	27.832	72.4877
29.2969	68.6381	29.2969	68.6598	29.2969	68.627	29.2969	68.701	29.2969	68.6221	29.2969	68.7747	29.2969	68.6237	29.2969	68.8968	29.2969	68.6371	29.2969	69.0847	29.2969	68.6727	29.2969	69.3527	29.2969	68.746	29.2969	69.7086	29.2969	68.8761	29.2969	70.1493	29.2969	69.0828	29.2969	70.659	29.2969	69.3816	29.2969	71.2113	29.2969	69.7777	29.2969	71.773	29.2969	70.2622	29.2969	72.309	29.2969	70.8116	29.2969	72.7867	29.2969	71.3923	29.2969	73.1779	29.2969	71.9662	29.2969	73.461	29.2969	72.4966	29.2969	73.6208	29.2969	72.9517	29.2969	73.6486	29.2969	73.3063	29.2969	73.5423
30.0293	69.3547	30.0293	69.3907	30.0293	69.3344	30.0293	69.4496	30.0293	69.3263	30.0293	69.5418	30.0293	69.3309	30.0293	69.68	30.0293	69.3528	30.0293	69.8773	30.0293	69.4009	30.0293	70.1448	30.0293	69.4881	30.0293	70.4877	30.0293	69.63	30.0293	70.9029	30.0293	69.8423	30.0293	71.3772	30.0293	70.1368	30.0293	71.8883	30.0293	70.5169	30.0293	72.4074	30.0293	70.9741	30.0293	72.9035	30.0293	71.4884	30.0293	73.3466	30.0293	72.0302	30.0293	73.7105	30.0293	72.5659	30.0293	73.974	30.0293	73.0621	30.0293	74.1224	30.0293	73.4891	30.0293	74.147	30.0293	73.8228	30.0293	74.0457
31.4941	70.6915	31.4941	70.73	31.4941	70.6713	31.4941	70.7917	31.4941	70.6675	31.4941	70.8833	31.4941	70.6806	31.4941	71.013	31.4941	70.714	31.4941	71.1897	31.4941	70.7737	31.4941	71.4208	31.4941	70.8683	31.4941	71.7106	31.4941	71.0079	31.4941	72.0574	31.4941	71.2025	31.4941	72.4527	31.4941	71.4597	31.4941	72.8804	31.4941	71.7818	31.4941	73.3186	31.4941	72.1631	31.4941	73.7418	31.4941	72.59	31.4941	74.1239	31.4941	73.0408	31.4941	74.4411	31.4941	73.4895	31.4941	74.6734	31.4941	73.9084	31.4941	74.8064	31.4941	74.2714	31.4941	74.8315	31.4941	74.5565	31.4941	74.7468
32.2266	71.1121	32.2266	71.1505	32.2266	71.093	32.2266	71.2121	32.2266	71.0914	32.2266	71.3027	32.2266	71.1075	32.2266	71.4292	32.2266	71.1441	32.2266	71.599	32.2266	71.2062	32.2266	71.8184	32.2266	71.3008	32.2266	72.0907	32.2266	71.4362	32.2266	72.4147	32.2266	71.6208	32.2266	72.7828	32.2266	71.8613	32.2266	73.1811	32.2266	72.1597	32.2266	73.5897	32.2266	72.5119	32.2266	73.9852	32.2266	72.9062	32.2266	74.3432	32.2266	73.324	32.2266	74.6411	32.2266	73.7418	32.2266	74.8594	32.2266	74.1338	32.2266	74.984	32.2266	74.4752	32.2266	75.0067	32.2266	74.7447	32.2266	74.9254
33.6914	71.8022	33.6914	71.8412	33.6914	71.7824	33.6914	71.9023	33.6914	71.7805	33.6914	71.9891	33.6914	71.7968	33.6914	72.1067	33.6914	71.8331	33.6914	72.26	33.6914	71.8928	33.6914	72.4534	33.6914	71.9809	33.6914	72.6896	33.6914	72.1032	33.6914	72.9678	33.6914	72.2658	33.6914	73.2825	33.6914	72.4737	33.6914	73.6231	33.6914	72.7291	33.6914	73.974	33.6914	73.0293	33.6914	74.3156	33.6914	73.366	33.6914	74.6267	33.6914	73.7247	33.6914	74.8868	33.6914	74.0863	33.6914	75.078	33.6914	74.4286	33.6914	75.1867	33.6914	74.7294	33.6914	75.2049	33.6914	74.9688	33.6914	75.1308
34.4238	71.9845	34.4238	72.023	34.4238	71.9647	34.4238	72.0824	34.4238	71.9625	34.4238	72.166	34.4238	71.9782	34.4238	72.2782	34.4238	72.0133	34.4238	72.4232	34.4238	72.071	34.4238	72.6051	34.4238	72.1554	34.4238	72.8264	34.4238	72.2718	34.4238	73.0865	34.4238	72.4256	34.4238	73.3809	34.4238	72.6211	34.4238	73.7	34.4238	72.8603	34.4238	74.0296	34.4238	73.1412	34.4238	74.3516	34.4238	73.4564	34.4238	74.6458	34.4238	73.793	34.4238	74.8924	34.4238	74.1333	34.4238	75.0739	34.4238	74.4566	34.4238	75.1772	34.4238	74.7417	34.4238	75.1944	34.4238	74.9692	34.4238	75.1236
35.8887	72.3726	35.8887	72.4089	35.8887	72.3556	35.8887	72.4661	35.8887	72.3571	35.8887	72.5469	35.8887	72.3769	35.8887	72.6541	35.8887	72.4163	35.8887	72.7909	35.8887	72.4771	35.8887	72.9602	35.8887	72.5621	35.8887	73.1634	35.8887	72.6749	35.8887	73.3998	35.8887	72.8193	35.8887	73.6655	35.8887	72.9984	35.8887	73.9523	35.8887	73.2136	35.8887	74.2481	35.8887	73.4633	35.8887	74.537	35.8887	73.742	35.8887	74.8014	35.8887	74.0394	35.8887	75.0232	35.8887	74.3409	35.8887	75.1865	35.8887	74.6286	35.8887	75.2791	35.8887	74.8839	35.8887	75.2937	35.8887	75.0888	35.8887	75.2287
37.3535	72.832	37.3535	72.8737	37.3535	72.8097	37.3535	72.9358	37.3535	72.8064	37.3535	73.0198	37.3535	72.8223	37.3535	73.1275	37.3535	72.8581	37.3535	73.2608	37.3535	72.9154	37.3535	73.4214	37.3535	72.9961	37.3535	73.6099	37.3535	73.1027	37.3535	73.8256	37.3535	73.2378	37.3535	74.0648	37.3535	73.4036	37.3535	74.3209	37.3535	73.6008	37.3535	74.5838	37.3535	73.828	37.3535	74.8399	37.3535	74.0805	37.3535	75.0739	37.3535	74.3495	37.3535	75.2697	37.3535	74.6227	37.3535	75.4129	37.3535	74.8844	37.3535	75.4922	37.3535	75.1179	37.3535	75.501	37.3535	75.3069	37.3535	75.4377
38.8184	73.4079	38.8184	73.4487	38.8184	73.3863	38.8184	73.5092	38.8184	73.3836	38.8184	73.5904	38.8184	73.3999	38.8184	73.6932	38.8184	73.4357	38.8184	73.8188	38.8184	73.4917	38.8184	73.9681	38.8184	73.5692	38.8184	74.141	38.8184	73.6697	38.8184	74.3367	38.8184	73.7947	38.8184	74.5518	38.8184	73.9456	38.8184	74.7806	38.8184	74.1229	38.8184	75.0145	38.8184	74.3252	38.8184	75.2418	38.8184	74.5488	38.8184	75.4489	38.8184	74.7869	38.8184	75.6219	38.8184	75.0291	38.8184	75.7476	38.8184	75.2622	38.8184	75.8159	38.8184	75.4714	38.8184	75.8209	38.8184	75.642	38.8184	75.7615
39.5508	73.6905	39.5508	73.7318	39.5508	73.6682	39.5508	73.7925	39.5508	73.6646	39.5508	73.8731	39.5508	73.68	39.5508	73.9744	39.5508	73.7147	39.5508	74.097	39.5508	73.7692	39.5508	74.2415	39.5508	73.8446	39.5508	74.4078	39.5508	73.9419	39.5508	74.5945	39.5508	74.0624	39.5508	74.7987	39.5508	74.2071	39.5508	75.015	39.5508	74.3762	39.5508	75.2354	39.5508	74.5684	39.5508	75.4492	39.5508	74.7805	39.5508	75.6439	39.5508	75.006	39.5508	75.8062	39.5508	75.2355	39.5508	75.9238	39.5508	75.4566	39.5508	75.9871	39.5508	75.6555	39.5508	75.9904	39.5508	75.8182	39.5508	75.9328
41.0156	74.6335	41.0156	74.6762	41.0156	74.6093	41.0156	74.7374	41.0156	74.6035	41.0156	74.8171	41.0156	74.6164	41.0156	74.9153	41.0156	74.6479	41.0156	75.032	41.0156	74.6984	41.0156	75.1667	41.0156	74.7681	41.0156	75.3187	41.0156	74.8577	41.0156	75.4864	41.0156	74.9676	41.0156	75.6671	41.0156	75.0982	41.0156	75.8562	41.0156	75.2495	41.0156	76.0472	41.0156	75.4202	41.0156	76.2313	41.0156	75.6075	41.0156	76.398	41.0156	75.8063	41.0156	76.5361	41.0156	76.0086	41.0156	76.6351	41.0156	76.2041	41.0156	76.6865	41.0156	76.3809	41.0156	76.6853	41.0156	76.5267	41.0156	76.6308
42.4805	75.1917	42.4805	75.2324	42.4805	75.1669	42.4805	75.2888	42.4805	75.1583	42.4805	75.3606	42.4805	75.1663	42.4805	75.4475	42.4805	75.1912	42.4805	75.5492	42.4805	75.2332	42.4805	75.6654	42.4805	75.2927	42.4805	75.7953	42.4805	75.3699	42.4805	75.938	42.4805	75.4651	42.4805	76.0911	42.4805	75.5784	42.4805	76.2514	42.4805	75.7095	42.4805	76.4135	42.4805	75.8572	42.4805	76.5701	42.4805	76.0191	42.4805	76.7124	42.4805	76.1909	42.4805	76.8306	42.4805	76.366	42.4805	76.9153	42.4805	76.5356	42.4805	76.9589	42.4805	76.6895	42.4805	76.9568	42.4805	76.8169	42.4805	76.9083
43.9453	75.7804	43.9453	75.8201	43.9453	75.7567	43.9453	75.8752	43.9453	75.7493	43.9453	75.9452	43.9453	75.7585	43.9453	76.0294	43.9453	75.7845	43.9453	76.1271	43.9453	75.8274	43.9453	76.2376	43.9453	75.8869	43.9453	76.3597	43.9453	75.9629	43.9453	76.492	43.9453	76.055	43.9453	76.6324	43.9453	76.1627	43.9453	76.7777	43.9453	76.2852	43.9453	76.9235	43.9453	76.4211	43.9453	77.0634	43.9453	76.5681	43.9453	77.1899	43.9453	76.7226	43.9453	77.2946	43.9453	76.8789	43.9453	77.3694	43.9453	77.0299	43.9453	77.4076	43.9453	77.1666	43.9453	77.4052	43.9453	77.28	43.9453	77.3616
45.4102	76.328	45.4102	76.3674	45.4102	76.304	45.4102	76.4214	45.4102	76.2956	45.4102	76.4891	45.4102	76.3034	45.4102	76.5698	45.4102	76.3272	45.4102	76.6623	45.4102	76.3672	45.4102	76.7656	45.4102	76.4228	45.4102	76.8784	45.4102	76.4935	45.4102	76.999	45.4102	76.5786	45.4102	77.1256	45.4102	76.6773	45.4102	77.2551	45.4102	76.7885	45.4102	77.3838	45.4102	76.9109	45.4102	77.5064	45.4102	77.0425	45.4102	77.6163	45.4102	77.1802	45.4102	77.7065	45.4102	77.3194	45.4102	77.7699	45.4102	77.4541	45.4102	77.8007	45.4102	77.5767	45.4102	77.7955	45.4102	77.6792	45.4102	77.754
47.6074	77.0954	47.6074	77.1311	47.6074	77.0738	47.6074	77.1802	47.6074	77.0669	47.6074	77.2418	47.6074	77.075	47.6074	77.3147	47.6074	77.0979	47.6074	77.3975	47.6074	77.1355	47.6074	77.4889	47.6074	77.1871	47.6074	77.5874	47.6074	77.2518	47.6074	77.6911	47.6074	77.3285	47.6074	77.7983	47.6074	77.416	47.6074	77.9065	47.6074	77.5128	47.6074	78.0126	47.6074	77.6175	47.6074	78.1126	47.6074	77.7282	47.6074	78.2017	47.6074	77.8425	47.6074	78.2744	47.6074	77.9569	47.6074	78.3252	47.6074	78.0668	47.6074	78.3496	47.6074	78.1666	47.6074	78.3449	47.6074	78.2499	47.6074	78.3109
49.0723	77.5681	49.0723	77.6014	49.0723	77.5484	49.0723	77.6475	49.0723	77.5428	49.0723	77.7052	49.0723	77.5516	49.0723	77.7734	49.0723	77.5747	49.0723	77.8506	49.0723	77.6116	49.0723	77.9353	49.0723	77.6616	49.0723	78.0256	49.0723	77.7234	49.0723	78.1199	49.0723	77.7958	49.0723	78.2162	49.0723	77.8772	49.0723	78.3124	49.0723	77.9659	49.0723	78.4057	49.0723	78.0603	49.0723	78.4929	49.0723	78.1586	49.0723	78.57	49.0723	78.2588	49.0723	78.6325	49.0723	78.3581	49.0723	78.6758	49.0723	78.4528	49.0723	78.6964	49.0723	78.5385	49.0723	78.692	49.0723	78.61	49.0723	78.6625
50.5371	78.0354	50.5371	78.0677	50.5371	78.016	50.5371	78.112	50.5371	78.01	50.5371	78.167	50.5371	78.0177	50.5371	78.2316	50.5371	78.0391	50.5371	78.304	50.5371	78.0735	50.5371	78.3826	50.5371	78.1202	50.5371	78.4656	50.5371	78.178	50.5371	78.551	50.5371	78.2451	50.5371	78.637	50.5371	78.32	50.5371	78.7216	50.5371	78.4009	50.5371	78.8025	50.5371	78.4859	50.5371	78.8771	50.5371	78.5735	50.5371	78.9421	50.5371	78.6616	50.5371	78.994	50.5371	78.7482	50.5371	79.0293	50.5371	78.8304	50.5371	79.045	50.5371	78.9046	50.5371	79.0395	50.5371	78.9667	50.5371	79.0128
52.7344	78.7296	52.7344	78.7588	52.7344	78.712	52.7344	78.7987	52.7344	78.7066	52.7344	78.8482	52.7344	78.7137	52.7344	78.9058	52.7344	78.7333	52.7344	78.9698	52.7344	78.7648	52.7344	79.0386	52.7344	78.8073	52.7344	79.1103	52.7344	78.8595	52.7344	79.183	52.7344	78.9196	52.7344	79.2548	52.7344	78.9858	52.7344	79.324	52.7344	79.0561	52.7344	79.3889	52.7344	79.1284	52.7344	79.4475	52.7344	79.2013	52.7344	79.4977	52.7344	79.2731	52.7344	79.5372	52.7344	79.3422	52.7344	79.5635	52.7344	79.4068	52.7344	79.5747	52.7344	79.4645	52.7344	79.5696	52.7344	79.5127	52.7344	79.5485
54.1992	79.166	54.1992	79.1952	54.1992	79.1475	54.1992	79.2342	54.1992	79.1404	54.1992	79.2818	54.1992	79.1451	54.1992	79.3365	54.1992	79.1616	54.1992	79.3966	54.1992	79.1894	54.1992	79.4602	54.1992	79.2276	54.1992	79.5255	54.1992	79.2749	54.1992	79.5904	54.1992	79.3295	54.1992	79.6533	54.1992	79.3893	54.1992	79.7124	54.1992	79.4522	54.1992	79.7663	54.1992	79.5164	54.1992	79.8134	54.1992	79.5801	54.1992	79.8525	54.1992	79.642	54.1992	79.8818	54.1992	79.701	54.1992	79.8999	54.1992	79.7557	54.1992	79.9054	54.1992	79.8047	54.1992	79.898	54.1992	79.8461	54.1992	79.8778
56.3965	79.7645	56.3965	79.7888	56.3965	79.7502	56.3965	79.8219	56.3965	79.7463	56.3965	79.8629	56.3965	79.7532	56.3965	79.9103	56.3965	79.771	56.3965	79.9625	56.3965	79.7989	56.3965	80.0176	56.3965	79.8362	56.3965	80.0738	56.3965	79.8814	56.3965	80.129	56.3965	79.9324	56.3965	80.1817	56.3965	79.9871	56.3965	80.2302	56.3965	80.0432	56.3965	80.2735	56.3965	80.0985	56.3965	80.3105	56.3965	80.1512	56.3965	80.3405	56.3965	80.2001	56.3965	80.3629	56.3965	80.2445	56.3965	80.377	56.3965	80.2839	56.3965	80.3822	56.3965	80.3177	56.3965	80.3784	56.3965	80.3454	56.3965	80.3659
58.5938	80.3589	58.5938	80.3838	58.5938	80.3428	58.5938	80.4163	58.5938	80.3362	58.5938	80.4555	58.5938	80.3394	58.5938	80.4998	58.5938	80.3526	58.5938	80.5476	58.5938	80.3753	58.5938	80.597	58.5938	80.4068	58.5938	80.6462	58.5938	80.4456	58.5938	80.6932	58.5938	80.4896	58.5938	80.7361	58.5938	80.5366	58.5938	80.7736	58.5938	80.5842	58.5938	80.8047	58.5938	80.6299	58.5938	80.8287	58.5938	80.6722	58.5938	80.8456	58.5938	80.7101	58.5938	80.8555	58.5938	80.7432	58.5938	80.8588	58.5938	80.7718	58.5938	80.856	58.5938	80.7965	58.5938	80.8477	58.5938	80.8174	58.5938	80.8346
60.0586	80.8271	60.0586	80.8534	60.0586	80.8081	60.0586	80.886	60.0586	80.7971	60.0586	80.9237	60.0586	80.7948	60.0586	80.9651	60.0586	80.8015	60.0586	81.0088	60.0586	80.817	60.0586	81.053	60.0586	80.8409	60.0586	81.0958	60.0586	80.8718	60.0586	81.1353	60.0586	80.9081	60.0586	81.1698	60.0586	80.9477	60.0586	81.1981	60.0586	80.9881	60.0586	81.2193	60.0586	81.0271	60.0586	81.2333	60.0586	81.0631	60.0586	81.2404	60.0586	81.095	60.0586	81.2413	60.0586	81.1226	60.0586	81.2369	60.0586	81.1464	60.0586	81.2283	60.0586	81.1672	60.0586	81.2165	60.0586	81.1856	60.0586	81.202
62.2559	81.4657	62.2559	81.4864	62.2559	81.4509	62.2559	81.5122	62.2559	81.4426	62.2559	81.5421	62.2559	81.4415	62.2559	81.5749	62.2559	81.4479	62.2559	81.6095	62.2559	81.4617	62.2559	81.6442	62.2559	81.4826	62.2559	81.6773	62.2559	81.5095	62.2559	81.7071	62.2559	81.5407	62.2559	81.7321	62.2559	81.5742	62.2559	81.7511	62.2559	81.6076	62.2559	81.7637	62.2559	81.6387	62.2559	81.7699	62.2559	81.6656	62.2559	81.7707	62.2559	81.6873	62.2559	81.7673	62.2559	81.7038	62.2559	81.7612	62.2559	81.7158	62.2559	81.7538	62.2559	81.7247	62.2559	81.7462	62.2559	81.732	62.2559	81.739
64.4531	82.065	64.4531	82.0834	64.4531	82.0513	64.4531	82.1057	64.4531	82.0429	64.4531	82.1311	64.4531	82.0404	64.4531	82.1586	64.4531	82.0443	64.4531	82.187	64.4531	82.0548	64.4531	82.2151	64.4531	82.0715	64.4531	82.2411	64.4531	82.0936	64.4531	82.2636	64.4531	82.1195	64.4531	82.2809	64.4531	82.1473	64.4531	82.2919	64.4531	82.1745	64.4531	82.2964	64.4531	82.1988	64.4531	82.2948	64.4531	82.2183	64.4531	82.2882	64.4531	82.232	64.4531	82.2785	64.4531	82.2401	64.4531	82.2678	64.4531	82.2435	64.4531	82.2581	64.4531	82.2443	64.4531	82.2507	64.4531	82.2446	64.4531	82.2463
66.6504	82.617	66.6504	82.631	66.6504	82.606	66.6504	82.6475	66.6504	82.5986	66.6504	82.6658	66.6504	82.5956	66.6504	82.6853	66.6504	82.5974	66.6504	82.705	66.6504	82.6044	66.6504	82.7238	66.6504	82.6164	66.6504	82.7405	66.6504	82.6327	66.6504	82.7534	66.6504	82.6519	66.6504	82.7612	66.6504	82.6722	66.6504	82.763	66.6504	82.6912	66.6504	82.7586	66.6504	82.7065	66.6504	82.7487	66.6504	82.7164	66.6504	82.7348	66.6504	82.7199	66.6504	82.7193	66.6504	82.7173	66.6504	82.7048	66.6504	82.7102	66.6504	82.6937	66.6504	82.701	66.6504	82.6877	66.6504	82.6926	66.6504	82.6876
69.5801	83.3533	69.5801	83.3628	69.5801	83.346	69.5801	83.3739	69.5801	83.3414	69.5801	83.3863	69.5801	83.3403	69.5801	83.3995	69.5801	83.3435	69.5801	83.413	69.5801	83.3513	69.5801	83.426	69.5801	83.364	69.5801	83.4375	69.5801	83.381	69.5801	83.446	69.5801	83.4011	69.5801	83.4506	69.5801	83.4222	69.5801	83.4503	69.5801	83.4418	69.5801	83.4449	69.5801	83.4574	69.5801	83.4352	69.5801	83.4665	69.5801	83.4228	69.5801	83.468	69.5801	83.4103	69.5801	83.4618	69.5801	83.4002	69.5801	83.4495	69.5801	83.395	69.5801	83.4335	69.5801	83.3962	69.5801	83.4173	69.5801	83.4041
71.7773	83.8828	71.7773	83.8902	71.7773	83.876	71.7773	83.8979	71.7773	83.8706	71.7773	83.9054	71.7773	83.8675	71.7773	83.9127	71.7773	83.8676	71.7773	83.9193	71.7773	83.8718	71.7773	83.9249	71.7773	83.8806	71.7773	83.9285	71.7773	83.8936	71.7773	83.9293	71.7773	83.9099	71.7773	83.9262	71.7773	83.9275	71.7773	83.9188	71.7773	83.9437	71.7773	83.907	71.7773	83.9557	71.7773	83.8919	71.7773	83.9611	71.7773	83.8754	71.7773	83.9581	71.7773	83.8604	71.7773	83.9467	71.7773	83.8497	71.7773	83.9283	71.7773	83.8459	71.7773	83.9058	71.7773	83.8505	71.7773	83.8828	71.7773	83.8634
73.9746	84.4561	73.9746	84.4631	73.9746	84.4483	73.9746	84.4689	73.9746	84.4405	73.9746	84.4733	73.9746	84.4337	73.9746	84.4763	73.9746	84.4292	73.9746	84.4777	73.9746	84.428	73.9746	84.4772	73.9746	84.4308	73.9746	84.4742	73.9746	84.4378	73.9746	84.4679	73.9746	84.4479	73.9746	84.4575	73.9746	84.4595	73.9746	84.4425	73.9746	84.4699	73.9746	84.4231	73.9746	84.4762	73.9746	84.4007	73.9746	84.4759	73.9746	84.3773	73.9746	84.4674	73.9746	84.3562	73.9746	84.4504	73.9746	84.3407	73.9746	84.4266	73.9746	84.3337	73.9746	84.3992	73.9746	84.337	73.9746	84.3724	73.9746	84.3505
76.9043	85.1394	76.9043	85.1478	76.9043	85.1292	76.9043	85.154	76.9043	85.118	76.9043	85.1581	76.9043	85.107	76.9043	85.1602	76.9043	85.0978	76.9043	85.1605	76.9043	85.0918	76.9043	85.1589	76.9043	85.0903	76.9043	85.1551	76.9043	85.0936	76.9043	85.1483	76.9043	85.1012	76.9043	85.1377	76.9043	85.1114	76.9043	85.1225	76.9043	85.1217	76.9043	85.1028	76.9043	85.129	76.9043	85.0796	76.9043	85.1304	76.9043	85.055	76.9043	85.1239	76.9043	85.0322	76.9043	85.1091	76.9043	85.0145	76.9043	85.0875	76.9043	85.0052	76.9043	85.0621	76.9043	85.0062	76.9043	85.0374	76.9043	85.0175
79.834	85.7871	79.834	85.7971	79.834	85.7735	79.834	85.8032	79.834	85.7571	79.834	85.8056	79.834	85.7396	79.834	85.8049	79.834	85.7227	79.834	85.8016	79.834	85.7087	79.834	85.7961	79.834	85.6993	79.834	85.7883	79.834	85.6955	79.834	85.7777	79.834	85.6974	79.834	85.7636	79.834	85.7036	79.834	85.7453	79.834	85.7118	79.834	85.7228	79.834	85.7187	79.834	85.6971	79.834	85.7211	79.834	85.6701	79.834	85.7167	79.834	85.645	79.834	85.7045	79.834	85.6252	79.834	85.6856	79.834	85.6139	79.834	85.6628	79.834	85.613	79.834	85.6403	79.834	85.6224
82.7637	86.5051	82.7637	86.5191	82.7637	86.4845	82.7637	86.5262	82.7637	86.4581	82.7637	86.527	82.7637	86.4277	82.7637	86.5222	82.7637	86.3953	82.7637	86.5126	82.7637	86.3635	82.7637	86.4988	82.7637	86.3347	82.7637	86.4808	82.7637	86.3106	82.7637	86.4582	82.7637	86.292	82.7637	86.4305	82.7637	86.2784	82.7637	86.3969	82.7637	86.2681	82.7637	86.3576	82.7637	86.2585	82.7637	86.3136	82.7637	86.247	82.7637	86.2675	82.7637	86.2316	82.7637	86.223	82.7637	86.2118	82.7637	86.1843	82.7637	86.1889	82.7637	86.1556	82.7637	86.166	82.7637	86.1397	82.7637	86.1473	82.7637	86.1375
85.6934	86.995	85.6934	86.9942	85.6934	86.9883	85.6934	86.9863	85.6934	86.9748	85.6934	86.9721	85.6934	86.9559	85.6934	86.9533	85.6934	86.9339	85.6934	86.9315	85.6934	86.9114	85.6934	86.9078	85.6934	86.8909	85.6934	86.8832	85.6934	86.8742	85.6934	86.8576	85.6934	86.8621	85.6934	86.8307	85.6934	86.8539	85.6934	86.8019	85.6934	86.8478	85.6934	86.771	85.6934	86.8408	85.6934	86.7388	85.6934	86.8298	85.6934	86.7072	85.6934	86.8125	85.6934	86.6793	85.6934	86.788	85.6934	86.6586	85.6934	86.7574	85.6934	86.6486	85.6934	86.7239	85.6934	86.6512	85.6934	86.692	85.6934	86.6664
88.623	87.5309	88.623	87.5269	88.623	87.5262	88.623	87.5148	88.623	87.5132	88.623	87.4959	88.623	87.4936	88.623	87.4722	88.623	87.4697	88.623	87.4459	88.623	87.4446	88.623	87.4185	88.623	87.4212	88.623	87.3913	88.623	87.4018	88.623	87.3643	88.623	87.3875	88.623	87.3373	88.623	87.378	88.623	87.3095	88.623	87.3715	88.623	87.2806	88.623	87.3649	88.623	87.2509	88.623	87.355	88.623	87.2221	88.623	87.3391	88.623	87.1971	88.623	87.3159	88.623	87.1794	88.623	87.2863	88.623	87.172	88.623	87.2531	88.623	87.1768	88.623	87.2206	88.623	87.1938
91.5527	87.9339	91.5527	87.9249	91.5527	87.9337	91.5527	87.9073	91.5527	87.9246	91.5527	87.8829	91.5527	87.9085	91.5527	87.8541	91.5527	87.888	91.5527	87.8236	91.5527	87.8666	91.5527	87.7935	91.5527	87.8475	91.5527	87.7655	91.5527	87.8335	91.5527	87.7402	91.5527	87.826	91.5527	87.7175	91.5527	87.8244	91.5527	87.6965	91.5527	87.8267	91.5527	87.6768	91.5527	87.8293	91.5527	87.6584	91.5527	87.8282	91.5527	87.6424	91.5527	87.8199	91.5527	87.631	91.5527	87.8023	91.5527	87.6267	91.5527	87.7757	91.5527	87.6321	91.5527	87.7426	91.5527	87.6481	91.5527	87.7071	91.5527	87.6741
94.4824	88.4461	94.4824	88.4493	94.4824	88.4294	94.4824	88.4392	94.4824	88.4002	94.4824	88.4174	94.4824	88.3613	94.4824	88.3861	94.4824	88.3163	94.4824	88.3483	94.4824	88.2699	94.4824	88.3067	94.4824	88.2266	94.4824	88.2637	94.4824	88.1903	94.4824	88.2206	94.4824	88.1634	94.4824	88.1783	94.4824	88.1463	94.4824	88.1371	94.4824	88.1374	94.4824	88.0974	94.4824	88.1331	94.4824	88.0602	94.4824	88.129	94.4824	88.0271	94.4824	88.1211	94.4824	88.0007	94.4824	88.1066	94.4824	87.9837	94.4824	88.0848	94.4824	87.9782	94.4824	88.0577	94.4824	87.9852	94.4824	88.0288	94.4824	88.0031
98.1445	88.9272	98.1445	88.9233	98.1445	88.9141	98.1445	88.9032	98.1445	88.8847	98.1445	88.8694	98.1445	88.8413	98.1445	88.825	98.1445	88.7879	98.1445	88.7738	98.1445	88.7293	98.1445	88.7193	98.1445	88.6708	98.1445	88.6642	98.1445	88.6169	98.1445	88.61	98.1445	88.571	98.1445	88.5574	98.1445	88.5343	98.1445	88.5064	98.1445	88.5059	98.1445	88.4568	98.1445	88.483	98.1445	88.4091	98.1445	88.4618	98.1445	88.3649	98.1445	88.4387	98.1445	88.3268	98.1445	88.4116	98.1445	88.2982	98.1445	88.3803	98.1445	88.2822	98.1445	88.3473	98.1445	88.2805	98.1445	88.3165	98.1445	88.2928
101.807	89.3026	101.807	89.2968	101.807	89.2897	101.807	89.2732	101.807	89.2587	101.807	89.2347	101.807	89.2123	101.807	89.1851	101.807	89.1549	101.807	89.1286	101.807	89.0922	101.807	89.0695	101.807	89.0301	101.807	89.0109	101.807	88.9741	101.807	88.9551	101.807	88.9283	101.807	88.9031	101.807	88.8944	101.807	88.8549	101.807	88.8714	101.807	88.8105	101.807	88.8562	101.807	88.7701	101.807	88.8444	101.807	88.7348	101.807	88.8311	101.807	88.7067	101.807	88.8132	101.807	88.6884	101.807	88.7893	101.807	88.682	101.807	88.7609	101.807	88.6882	101.807	88.7315	101.807	88.7058
105.469	89.5661	105.469	89.5549	105.469	89.5555	105.469	89.5236	105.469	89.5238	105.469	89.4757	105.469	89.4736	105.469	89.4159	105.469	89.4099	105.469	89.3496	105.469	89.3388	105.469	89.282	105.469	89.2674	105.469	89.2171	105.469	89.2022	105.469	89.1579	105.469	89.1483	105.469	89.1055	105.469	89.1085	105.469	89.0599	105.469	89.0824	105.469	89.0206	105.469	89.0673	105.469	88.9872	105.469	89.0583	105.469	88.9598	105.469	89.0503	105.469	88.9396	105.469	89.039	105.469	88.9281	105.469	89.0223	105.469	88.9268	105.469	89.0004	105.469	88.9356	105.469	88.976	105.469	88.9531
109.131	89.9318	109.131	89.917	109.131	89.9207	109.131	89.8785	109.131	89.8844	109.131	89.8201	109.131	89.8256	109.131	89.7473	109.131	89.7494	109.131	89.6664	109.131	89.6628	109.131	89.5834	109.131	89.5735	109.131	89.5034	109.131	89.4889	109.131	89.4301	109.131	89.4154	109.131	89.3652	109.131	89.3567	109.131	89.3091	109.131	89.3137	109.131	89.2612	109.131	89.2844	109.131	89.2209	109.131	89.2647	109.131	89.1881	109.131	89.2495	109.131	89.1632	109.131	89.2345	109.131	89.1474	109.131	89.2173	109.131	89.1416	109.131	89.1974	109.131	89.1457	109.131	89.1767	109.131	89.1583
112.793	90.1863	112.793	90.1673	112.793	90.1775	112.793	90.1228	112.793	90.1416	112.793	90.0572	112.793	90.0816	112.793	89.9763	112.793	90.0028	112.793	89.8871	112.793	89.9127	112.793	89.7963	112.793	89.8194	112.793	89.7098	112.793	89.731	112.793	89.6317	112.793	89.6541	112.793	89.5642	112.793	89.5928	112.793	89.5078	112.793	89.548	112.793	89.4619	112.793	89.5176	112.793	89.4255	112.793	89.4976	112.793	89.3978	112.793	89.4826	112.793	89.3788	112.793	89.4682	112.793	89.3688	112.793	89.4516	112.793	89.3681	112.793	89.432	112.793	89.3761	112.793	89.411	112.793	89.3913
116.455	90.307	116.455	90.2813	116.455	90.3029	116.455	90.2281	116.455	90.2693	116.455	90.1524	116.455	90.2097	116.455	90.061	116.455	90.1299	116.455	89.9617	116.455	90.038	116.455	89.8623	116.455	89.9431	116.455	89.7695	116.455	89.8538	116.455	89.6882	116.455	89.7775	116.455	89.6213	116.455	89.7186	116.455	89.5692	116.455	89.678	116.455	89.531	116.455	89.6532	116.455	89.5052	116.455	89.6394	116.455	89.4903	116.455	89.6305	116.455	89.4851	116.455	89.6213	116.455	89.4888	116.455	89.6081	116.455	89.5007	116.455	89.5897	116.455	89.5194	116.455	89.5669	116.455	89.5424
120.85	90.4486	120.85	90.4163	120.85	90.4468	120.85	90.3525	120.85	90.4115	120.85	90.2626	120.85	90.3465	120.85	90.1544	120.85	90.2586	120.85	90.0368	120.85	90.157	120.85	89.9191	120.85	90.052	120.85	89.8094	120.85	89.9538	120.85	89.7144	120.85	89.8709	120.85	89.6378	120.85	89.8084	120.85	89.5813	120.85	89.7677	120.85	89.5443	120.85	89.746	120.85	89.5251	120.85	89.7375	120.85	89.5215	120.85	89.735	120.85	89.5311	120.85	89.7318	120.85	89.5514	120.85	89.7227	120.85	89.5799	120.85	89.7052	120.85	89.6133	120.85	89.6796	120.85	89.6478
125.244	90.414	125.244	90.3776	125.244	90.4125	125.244	90.3063	125.244	90.3738	125.244	90.206	125.244	90.3022	125.244	90.0849	125.244	90.2049	125.244	89.953	125.244	90.0921	125.244	89.8206	125.244	89.9752	125.244	89.697	125.244	89.8654	125.244	89.5897	125.244	89.7724	125.244	89.5036	125.244	89.7024	125.244	89.441	125.244	89.6572	125.244	89.4018	125.244	89.6341	125.244	89.3843	125.244	89.627	125.244	89.3858	125.244	89.6279	125.244	89.4031	125.244	89.6291	125.244	89.4327	125.244	89.6243	125.244	89.4703	125.244	89.6099	125.244	89.5113	125.244	89.585	125.244	89.551
129.639	90.2748	129.639	90.2471	129.639	90.2613	129.639	90.1812	129.639	90.2074	129.639	90.0831	129.639	90.1177	129.639	89.9616	129.639	90.0004	129.639	89.8271	129.639	89.8666	129.639	89.6901	129.639	89.729	129.639	89.5603	129.639	89.6005	129.639	89.4452	129.639	89.492	129.639	89.3498	129.639	89.4107	129.639	89.2765	129.639	89.3588	129.639	89.2256	129.639	89.3337	129.639	89.1958	129.639	89.3286	129.639	89.1852	129.639	89.3349	129.639	89.1911	129.639	89.3435	129.639	89.2103	129.639	89.3475	129.639	89.2384	129.639	89.3424	129.639	89.2706	129.639	89.3267	129.639	89.3016
134.033	90.1683	134.033	90.144	134.033	90.1483	134.033	90.079	134.033	90.0843	134.033	89.9806	134.033	89.9813	134.033	89.8592	134.033	89.8482	134.033	89.7265	134.033	89.6972	134.033	89.5947	134.033	89.5428	134.033	89.4742	134.033	89.3998	134.033	89.3731	134.033	89.281	134.033	89.2958	134.033	89.1953	134.033	89.243	134.033	89.1461	134.033	89.2129	134.033	89.1309	134.033	89.2016	134.033	89.1427	134.033	89.2049	134.033	89.1715	134.033	89.2181	134.033	89.2071	134.033	89.2368	134.033	89.2408	134.033	89.2566	134.033	89.2662	134.033	89.2729	134.033	89.2801	134.033	89.2818
138.428	90.089	138.428	90.0496	138.428	90.0795	138.428	89.9659	138.428	90.0212	138.428	89.8464	138.428	89.9188	138.428	89.703	138.428	89.7815	138.428	89.5495	138.428	89.6222	138.428	89.4002	138.428	89.4565	138.428	89.2679	138.428	89.3006	138.428	89.1621	138.428	89.1693	138.428	89.0884	138.428	89.0734	138.428	89.0476	138.428	89.018	138.428	89.0367	138.428	89.0019	138.428	89.0501	138.428	89.0183	138.428	89.0804	138.428	89.057	138.428	89.12	138.428	89.1063	138.428	89.1613	138.428	89.1557	138.428	89.1973	138.428	89.1964	138.428	89.222	138.428	89.2226	138.428	89.2312
143.555	89.9508	143.555	89.8921	143.555	89.9531	143.555	89.7817	143.555	89.8993	143.555	89.629	143.555	89.7943	143.555	89.4469	143.555	89.648	143.555	89.2511	143.555	89.4743	143.555	89.0581	143.555	89.2898	143.555	88.8836	143.555	89.1121	143.555	88.7402	143.555	88.9573	143.555	88.6362	143.555	88.8377	143.555	88.5746	143.555	88.7595	143.555	88.5537	143.555	88.7226	143.555	88.5675	143.555	88.7207	143.555	88.6076	143.555	88.7438	143.555	88.6639	143.555	88.78	143.555	88.7258	143.555	88.8177	143.555	88.7835	143.555	88.8473	143.555	88.8286	143.555	88.8613	143.555	88.8553
148.682	89.8344	148.682	89.7751	148.682	89.8316	148.682	89.6583	148.682	89.7673	148.682	89.4933	148.682	89.6475	148.682	89.2935	148.682	89.4831	148.682	89.0753	148.682	89.2896	148.682	88.8565	148.682	89.0851	148.682	88.6543	148.682	88.889	148.682	88.4832	148.682	88.7191	148.682	88.3537	148.682	88.5887	148.682	88.2709	148.682	88.5045	148.682	88.2349	148.682	88.4658	148.682	88.2411	148.682	88.4653	148.682	88.2813	148.682	88.4914	148.682	88.3446	148.682	88.5306	148.682	88.4188	148.682	88.5697	148.682	88.4913	148.682	88.5977	148.682	88.5514	148.682	88.6063	148.682	88.591
153.809	89.7491	153.809	89.6889	153.809	89.7415	153.809	89.566	153.809	89.6664	153.809	89.3905	153.809	89.5299	153.809	89.1767	153.809	89.3432	153.809	88.9419	153.809	89.1227	153.809	88.7048	153.809	88.8882	153.809	88.4831	153.809	88.661	153.809	88.2921	153.809	88.4613	153.809	88.1423	153.809	88.3044	153.809	88.0394	153.809	88.1987	153.809	87.9838	153.809	88.1442	153.809	87.9714	153.809	88.1334	153.809	87.9948	153.809	88.1539	153.809	88.0439	153.809	88.1908	153.809	88.1067	153.809	88.2301	153.809	88.1707	153.809	88.2598	153.809	88.2245	153.809	88.2712	153.809	88.2595
159.668	89.7814	159.668	89.7188	159.668	89.7715	159.668	89.5889	159.668	89.6894	159.668	89.4025	159.668	89.5412	159.668	89.1747	159.668	89.3387	159.668	88.924	159.668	89.099	159.668	88.6705	159.668	88.8428	159.668	88.4338	159.668	88.5926	159.668	88.2305	159.668	88.3701	159.668	88.0726	159.668	88.1926	159.668	87.9661	159.668	88.0702	159.668	87.9111	159.668	88.0046	159.668	87.9024	159.668	87.9894	159.668	87.9309	159.668	88.0121	159.668	87.9846	159.668	88.0576	159.668	88.0496	159.668	88.11	159.668	88.112	159.668	88.1553	159.668	88.1599	159.668	88.1824	159.668	88.1846
164.795	89.5591	164.795	89.5011	164.795	89.5436	164.795	89.3757	164.795	89.4549	164.795	89.1942	164.795	89.2995	164.795	88.973	164.795	89.09	164.795	88.7316	164.795	88.8445	164.795	88.4907	164.795	88.585	164.795	88.2703	164.795	88.3356	164.795	88.0867	164.795	88.1189	164.795	87.9508	164.795	87.9523	164.795	87.8672	164.795	87.8456	164.795	87.8343	164.795	87.7993	164.795	87.8453	164.795	87.8059	164.795	87.8894	164.795	87.8518	164.795	87.9534	164.795	87.9209	164.795	88.0226	164.795	87.9968	164.795	88.0828	164.795	88.0648	164.795	88.1222	164.795	88.1129	164.795	88.133
170.654	89.2831	170.654	89.1994	170.654	89.2881	170.654	89.0444	170.654	89.214	170.654	88.8319	170.654	89.0675	170.654	88.5814	170.654	88.8623	170.654	88.3163	170.654	88.6181	170.654	88.0618	170.654	88.3595	170.654	87.8416	170.654	88.1132	170.654	87.6745	170.654	87.9047	170.654	87.5722	170.654	87.754	170.654	87.5373	170.654	87.6716	170.654	87.5645	170.654	87.6577	170.654	87.642	170.654	87.7022	170.654	87.7533	170.654	87.7887	170.654	87.8797	170.654	87.8972	170.654	88.0022	170.654	88.008	170.654	88.1031	170.654	88.103	170.654	88.1688	170.654	88.1673	170.654	88.1908
176.514	89.1593	176.514	89.0719	176.514	89.1575	176.514	88.9017	176.514	89.0669	176.514	88.6624	176.514	88.8959	176.514	88.3743	176.514	88.6601	176.514	88.0625	176.514	88.382	176.514	87.7554	176.514	88.0892	176.514	87.4812	176.514	87.8123	176.514	87.2646	176.514	87.5806	176.514	87.1232	176.514	87.4168	176.514	87.0649	176.514	87.333	176.514	87.0872	176.514	87.3287	176.514	87.1783	176.514	87.3914	176.514	87.3192	176.514	87.501	176.514	87.4861	176.514	87.6331	176.514	87.6535	176.514	87.7633	176.514	87.7976	176.514	87.8699	176.514	87.8991	176.514	87.9348	176.514	87.9461
183.105	89.0091	183.105	88.9338	183.105	88.9862	183.105	88.767	183.105	88.866	183.105	88.5226	183.105	88.6567	183.105	88.221	183.105	88.3749	183.105	87.888	183.105	88.044	183.105	87.5528	183.105	87.694	183.105	87.245	183.105	87.3584	183.105	86.991	183.105	87.0704	183.105	86.8108	183.105	86.8575	183.105	86.7145	183.105	86.7359	183.105	86.7021	183.105	86.7077	183.105	86.7635	183.105	86.7614	183.105	86.8805	183.105	86.8753	183.105	87.0289	183.105	87.0224	183.105	87.1816	183.105	87.1747	183.105	87.3123	183.105	87.3062	183.105	87.3992	183.105	87.3955	183.105	87.4284
189.697	88.8153	189.697	88.7253	189.697	88.801	189.697	88.5393	189.697	88.6829	189.697	88.273	189.697	88.4693	189.697	87.9498	189.697	88.1771	189.697	87.5987	189.697	87.8313	189.697	87.2527	189.697	87.4637	189.697	86.9444	189.697	87.1099	189.697	86.7018	189.697	86.8056	189.697	86.5437	189.697	86.5796	189.697	86.477	189.697	86.4491	189.697	86.4962	189.697	86.4161	189.697	86.5856	189.697	86.4688	189.697	86.7223	189.697	86.5856	189.697	86.8794	189.697	86.74	189.697	87.0294	189.697	86.9045	189.697	87.1477	189.697	87.0534	189.697	87.2151	189.697	87.1643	189.697	87.221
196.289	88.81	196.289	88.7043	196.289	88.8026	196.289	88.4935	196.289	88.6826	196.289	88.1941	196.289	88.4591	196.289	87.8302	196.289	88.1505	196.289	87.4333	196.289	87.7843	196.289	87.04	196.289	87.3958	196.289	86.689	196.289	87.0261	196.289	86.416	196.289	86.7167	196.289	86.2482	196.289	86.5016	196.289	86.199	196.289	86.4004	196.289	86.2644	196.289	86.4134	196.289	86.4245	196.289	86.5232	196.289	86.6473	196.289	86.7004	196.289	86.8946	196.289	86.9106	196.289	87.1284	196.289	87.1201	196.289	87.3159	196.289	87.2985	196.289	87.4337	196.289	87.4209	196.289	87.4691
202.881	88.826	202.881	88.7094	202.881	88.8224	202.881	88.4813	202.881	88.6982	202.881	88.1583	202.881	88.4617	202.881	87.7645	202.881	88.13	202.881	87.3309	202.881	87.7295	202.881	86.8935	202.881	87.2957	202.881	86.4913	202.881	86.8714	202.881	86.1618	202.881	86.5026	202.881	85.9369	202.881	86.2314	202.881	85.8373	202.881	86.0866	202.881	85.8683	202.881	86.0766	202.881	86.0166	202.881	86.1868	202.881	86.252	202.881	86.3846	202.881	86.5321	202.881	86.6276	202.881	86.8101	202.881	86.8719	202.881	87.0431	202.881	87.0778	202.881	87.1983	202.881	87.2132	202.881	87.2565
210.205	88.6869	210.205	88.5648	210.205	88.6819	210.205	88.3247	210.205	88.5499	210.205	87.9842	210.205	88.3	210.205	87.5693	210.205	87.951	210.205	87.1131	210.205	87.5307	210.205	86.6541	210.205	87.0759	210.205	86.2321	210.205	86.6296	210.205	85.8844	210.205	86.2368	210.205	85.6404	210.205	85.9377	210.205	85.5183	210.205	85.7599	210.205	85.522	210.205	85.7122	210.205	85.64	210.205	85.7839	210.205	85.8463	210.205	85.9475	210.205	86.1021	210.205	86.1654	210.205	86.3625	210.205	86.3955	210.205	86.5839	210.205	86.5969	210.205	86.7309	210.205	86.7342	210.205	86.7827
217.529	88.523	217.529	88.3977	217.529	88.5122	217.529	88.1465	217.529	88.3649	217.529	87.789	217.529	88.0907	217.529	87.3535	217.529	87.7097	217.529	86.8766	217.529	87.2531	217.529	86.4004	217.529	86.7627	217.529	85.9688	217.529	86.2891	217.529	85.6225	217.529	85.8854	217.529	85.3928	217.529	85.5982	217.529	85.297	217.529	85.4561	217.529	85.3364	217.529	85.4627	217.529	85.4949	217.529	85.597	217.529	85.7412	217.529	85.8209	217.529	86.0328	217.529	86.0888	217.529	86.3219	217.529	86.3556	217.529	86.564	217.529	86.5802	217.529	86.724	217.529	86.7297	217.529	86.7809
225.586	88.595	225.586	88.4494	225.586	88.5851	225.586	88.16	225.586	88.4185	225.586	87.7489	225.586	88.1043	225.586	87.2494	225.586	87.6622	225.586	86.7055	225.586	87.1241	225.586	86.17	225.586	86.5348	225.586	85.6997	225.586	85.9522	225.586	85.3464	225.586	85.4438	225.586	85.1479	225.586	85.077	225.586	85.1193	225.586	84.9029	225.586	85.2512	225.586	84.9392	225.586	85.5129	225.586	85.163	225.586	85.8587	225.586	85.5195	225.586	86.2348	225.586	85.939	225.586	86.5866	225.586	86.3532	225.586	86.8646	225.586	86.7043	225.586	87.0308	225.586	86.9493	225.586	87.0614
232.91	88.9402	232.91	88.7846	232.91	88.9305	232.91	88.4738	232.91	88.7553	232.91	88.0271	232.91	88.423	232.91	87.4746	232.91	87.9523	232.91	86.8572	232.91	87.372	232.91	86.2267	232.91	86.7228	232.91	85.6436	232.91	86.0575	232.91	85.1715	232.91	85.4404	232.91	84.8667	232.91	84.9422	232.91	84.7647	232.91	84.6286	232.91	84.8687	232.91	84.542	232.91	85.1461	232.91	84.6848	232.91	85.5369	232.91	85.0149	232.91	85.9672	232.91	85.4583	232.91	86.3645	232.91	85.9305	232.91	86.6673	232.91	86.3538	232.91	86.8316	232.91	86.6677	232.91	86.8329
241.699	88.6073	241.699	88.428	241.699	88.6163	241.699	88.0879	241.699	88.4552	241.699	87.6067	241.699	88.1337	241.699	87.015	241.699	87.672	241.699	86.3543	241.699	87.1007	241.699	85.6773	241.699	86.4613	241.699	85.0449	241.699	85.8058	241.699	84.5215	241.699	85.1939	241.699	84.1662	241.699	84.6879	241.699	84.0196	241.699	84.343	241.699	84.092	241.699	84.1964	241.699	84.3565	241.699	84.2566	241.699	84.7531	241.699	84.4983	241.699	85.2024	241.699	84.8661	241.699	85.6235	241.699	85.2857	241.699	85.9477	241.699	85.6793	241.699	86.127	241.699	85.9795	241.699	86.1372
249.756	88.9932	249.756	88.8071	249.756	88.9947	249.756	88.4452	249.756	88.8112	249.756	87.9259	249.756	88.4516	249.756	87.2769	249.756	87.9342	249.756	86.5363	249.756	87.2878	249.756	85.7532	249.756	86.5526	249.756	84.9873	249.756	85.7807	249.756	84.3075	249.756	85.0357	249.756	83.7862	249.756	84.3887	249.756	83.4874	249.756	83.909	249.756	83.4463	249.756	83.6504	249.756	83.6501	249.756	83.6337	249.756	84.0353	249.756	83.8369	249.756	84.5053	249.756	84.1981	249.756	84.9596	249.756	84.6309	249.756	85.3143	249.756	85.0451	249.756	85.5131	249.756	85.3629	249.756	85.5287
258.545	88.927	258.545	88.7365	258.545	88.9363	258.545	88.375	258.545	88.7637	258.545	87.8618	258.545	88.4181	258.545	87.2264	258.545	87.9185	258.545	86.508	258.545	87.295	258.545	85.7557	258.545	86.5898	258.545	85.028	258.545	85.8572	258.545	84.3913	258.545	85.1621	258.545	83.9153	258.545	84.5743	258.545	83.6625	258.545	84.1592	258.545	83.6684	258.545	83.9629	258.545	83.92	258.545	83.9978	258.545	84.3504	258.545	84.2366	258.545	84.859	258.545	84.6168	258.545	85.3418	258.545	85.0563	258.545	85.7152	258.545	85.4703	258.545	85.9248	258.545	85.7851	258.545	85.9467
268.066	88.7502	268.066	88.53	268.066	88.7784	268.066	88.1293	268.066	88.6126	268.066	87.5687	268.066	88.2597	268.066	86.8783	268.066	87.7359	268.066	86.0971	268.066	87.0675	268.066	85.272	268.066	86.2914	268.066	84.4565	268.066	85.4558	268.066	83.7101	268.066	84.6216	268.066	83.1001	268.066	83.8626	268.066	82.7015	268.066	83.264	268.066	82.5844	268.066	82.9108	268.066	82.7787	268.066	82.8605	268.066	83.2368	268.066	83.1083	268.066	83.839	268.066	83.576	268.066	84.4417	268.066	84.1389	268.066	84.924	268.066	84.6688	268.066	85.207	268.066	85.063	268.066	85.2535
277.588	88.9378	277.588	88.775	277.588	88.9052	277.588	88.4241	277.588	88.6822	277.588	87.9044	277.588	88.2859	277.588	87.2474	277.588	87.7453	277.588	86.4959	277.588	87.1009	277.588	85.7014	277.588	86.4027	277.588	84.9203	277.588	85.7049	277.588	84.2085	277.588	85.0605	277.588	83.6185	277.588	84.5137	277.588	83.2	277.588	84.098	277.588	83.0004	277.588	83.8381	277.588	83.0534	277.588	83.754	277.588	83.3518	277.588	83.8543	277.588	83.8262	277.588	84.1195	277.588	84.3596	277.588	84.4869	277.588	84.8292	277.588	84.8603	277.588	85.1412	277.588	85.1391	277.588	85.2459
287.109	88.9528	287.109	88.7685	287.109	88.9219	287.109	88.3808	287.109	88.6758	287.109	87.813	287.109	88.2269	287.109	87.1004	287.109	87.6011	287.109	86.2897	287.109	86.8396	287.109	85.4379	287.109	85.9996	287.109	84.6095	287.109	85.1535	287.109	83.8737	287.109	84.3817	287.109	83.3008	287.109	83.7621	287.109	82.9588	287.109	83.3547	287.109	82.9001	287.109	83.1927	287.109	83.1367	287.109	83.2796	287.109	83.6158	287.109	83.588	287.109	84.2254	287.109	84.0575	287.109	84.832	287.109	84.5978	287.109	85.3196	287.109	85.1051	287.109	85.6096	287.109	85.4838	287.109	85.6642
297.363	89.3033	297.363	89.0635	297.363	89.3171	297.363	88.6146	297.363	89.0997	297.363	87.986	297.363	88.6581	297.363	87.2195	297.363	88.0118	297.363	86.3693	297.363	87.1948	297.363	85.498	297.363	86.2579	297.363	84.6704	297.363	85.2706	297.363	83.9455	297.363	84.3197	297.363	83.3707	297.363	83.5031	297.363	82.9839	297.363	82.9138	297.363	82.8191	297.363	82.6171	297.363	82.9013	297.363	82.6299	297.363	83.2209	297.363	82.9152	297.363	83.7084	297.363	83.3902	297.363	84.2447	297.363	83.9453	297.363	84.7027	297.363	84.466	297.363	84.9845	297.363	84.8534	297.363	85.0373
307.617	88.6903	307.617	88.4345	307.617	88.7179	307.617	87.9623	307.617	88.5173	307.617	87.2998	307.617	88.1007	307.617	86.4881	307.617	87.4919	307.617	85.586	307.617	86.7277	307.617	84.6687	307.617	85.8579	307.617	83.8231	307.617	84.945	307.617	83.137	307.617	84.0629	307.617	82.6842	307.617	83.2938	307.617	82.512	307.617	82.7238	307.617	82.6327	307.617	82.4345	307.617	83.018	307.617	82.4806	307.617	83.5959	307.617	82.8559	307.617	84.2587	307.617	83.4739	307.617	84.8858	307.617	84.192	307.617	85.3702	307.617	84.8622	307.617	85.6342	307.617	85.3677	307.617	85.6355
318.604	88.6408	318.604	88.3986	318.604	88.6284	318.604	87.9125	318.604	88.3628	318.604	87.2055	318.604	87.8573	318.604	86.3145	318.604	87.139	318.604	85.2927	318.604	86.2509	318.604	84.2114	318.604	85.2536	318.604	83.1609	318.604	84.2249	318.604	82.2478	318.604	83.2545	318.604	81.5873	318.604	82.4333	318.604	81.2824	318.604	81.8407	318.604	81.3863	318.604	81.5369	318.604	81.8633	318.604	81.5585	318.604	82.5878	318.604	81.904	318.604	83.3912	318.604	82.5105	318.604	84.1165	318.604	83.2521	318.604	84.6469	318.604	83.9759	318.604	84.9101	318.604	84.5476	318.604	84.8747
329.59	88.882	329.59	88.6505	329.59	88.8589	329.59	88.1772	329.59	88.58	329.59	87.4864	329.59	88.0561	329.59	86.6136	329.59	87.3115	329.59	85.6052	329.59	86.3859	329.59	84.516	329.59	85.3365	329.59	83.4072	329.59	84.2385	329.59	82.3459	329.59	83.1817	329.59	81.4183	329.59	82.264	329.59	80.7544	329.59	81.5822	329.59	80.5323	329.59	81.223	329.59	80.878	329.59	81.2474	329.59	81.7086	329.59	81.658	329.59	82.7543	329.59	82.3675	329.59	83.738	329.59	83.2127	329.59	84.4779	329.59	84.0119	329.59	84.8832	329.59	84.6158	329.59	84.9244
341.309	88.2327	341.309	87.9623	341.309	88.2236	341.309	87.4286	341.309	87.9343	341.309	86.6641	341.309	87.3787	341.309	85.7204	341.309	86.587	341.309	84.6689	341.309	85.6075	341.309	83.5977	341.309	84.5095	341.309	82.6011	341.309	83.3822	341.309	81.7644	341.309	82.3286	341.309	81.1533	341.309	81.453	341.309	80.8212	341.309	80.8479	341.309	80.8238	341.309	80.5886	341.309	81.2025	341.309	80.7268	341.309	81.9221	341.309	81.2608	341.309	82.8345	341.309	82.0941	341.309	83.735	341.309	83.0469	341.309	84.4449	341.309	83.9233	341.309	84.849	341.309	84.5701	341.309	84.8925
353.76	88.9829	353.76	88.7088	353.76	88.9711	353.76	88.1629	353.76	88.6722	353.76	87.374	353.76	88.0986	353.76	86.3862	353.76	87.2767	353.76	85.2593	353.76	86.2492	353.76	84.0651	353.76	85.076	353.76	82.8797	353.76	83.8341	353.76	81.7737	353.76	82.6126	353.76	80.8132	353.76	81.5038	353.76	80.0871	353.76	80.6003	353.76	79.7469	353.76	80.0074	353.76	79.9676	353.76	79.8538	353.76	80.7612	353.76	80.2351	353.76	81.8781	353.76	81.0876	353.76	82.9836	353.76	82.168	353.76	83.8354	353.76	83.1939	353.76	84.3061	353.76	83.9589	353.76	84.3465
366.211	89.0339	366.211	88.7416	366.211	89.018	366.211	88.1563	366.211	88.6926	366.211	87.3081	366.211	88.0711	366.211	86.2442	366.211	87.1842	366.211	85.0306	366.211	86.0845	366.211	83.7514	366.211	84.8506	366.211	82.5022	366.211	83.5878	366.211	81.3779	366.211	82.4169	366.211	80.4632	366.211	81.4467	366.211	79.8396	366.211	80.7439	366.211	79.6067	366.211	80.3294	366.211	79.8591	366.211	80.2131	366.211	80.5804	366.211	80.4264	366.211	81.5755	366.211	80.9835	366.211	82.5688	366.211	81.7944	366.211	83.3365	366.211	82.6594	366.211	83.7482	366.211	83.3636	366.211	83.7528
378.662	88.9571	378.662	88.6461	378.662	88.9595	378.662	88.042	378.662	88.651	378.662	87.1751	378.662	88.0422	378.662	86.0928	378.662	87.1581	378.662	84.8619	378.662	86.0408	378.662	83.5674	378.662	84.7538	378.662	82.3047	378.662	83.3846	378.662	81.1676	378.662	82.0448	378.662	80.2411	378.662	80.8639	378.662	79.6193	378.662	79.9811	378.662	79.4389	378.662	79.5383	378.662	79.8391	378.662	79.6507	378.662	80.7921	378.662	80.3246	378.662	82.0332	378.662	81.3937	378.662	83.2332	378.662	82.585	378.662	84.158	378.662	83.6466	378.662	84.6851	378.662	84.4065	378.662	84.7674
392.578	87.896	392.578	87.5619	392.578	87.9014	392.578	86.916	392.578	87.5779	392.578	85.994	392.578	86.9422	392.578	84.8544	392.578	86.0298	392.578	83.5799	392.578	84.8986	392.578	82.2747	392.578	83.632	392.578	81.0501	392.578	82.3366	392.578	80.0009	392.578	81.129	392.578	79.1895	392.578	80.1121	392.578	78.6641	392.578	79.3561	392.578	78.5149	392.578	78.914	392.578	78.8808	392.578	78.8649	392.578	79.7946	392.578	79.3072	392.578	81.0373	392.578	80.2266	392.578	82.2674	392.578	81.4039	392.578	83.2196	392.578	82.5337	392.578	83.7502	392.578	83.3781	392.578	83.8026
405.762	87.8231	405.762	87.4429	405.762	87.8231	405.762	86.696	405.762	87.4459	405.762	85.6168	405.762	86.7106	405.762	84.2686	405.762	85.6551	405.762	82.7531	405.762	84.3422	405.762	81.2144	405.762	82.8676	405.762	79.8224	405.762	81.3623	405.762	78.7283	405.762	79.9808	405.762	78.0199	405.762	78.8676	405.762	77.7345	405.762	78.1251	405.762	77.9302	405.762	77.8271	405.762	78.6914	405.762	78.0674	405.762	79.967	405.762	78.9176	405.762	81.4774	405.762	80.2598	405.762	82.88	405.762	81.7699	405.762	83.933	405.762	83.116	405.762	84.5102	405.762	84.0825	405.762	84.5611
420.41	87.9423	420.41	87.531	420.41	87.9783	420.41	86.764	420.41	87.6347	420.41	85.679	420.41	86.9221	420.41	84.3358	420.41	85.87	420.41	82.8204	420.41	84.5327	420.41	81.2427	420.41	82.9987	420.41	79.7206	420.41	81.3967	420.41	78.3501	420.41	79.8867	420.41	77.1896	420.41	78.6243	420.41	76.3225	420.41	77.7161	420.41	76.025	420.41	77.2262	420.41	76.7306	420.41	77.255	420.41	78.3953	420.41	77.9478	420.41	80.3685	420.41	79.2688	420.41	82.091	420.41	80.8722	420.41	83.311	420.41	82.3476	420.41	83.9452	420.41	83.4267	420.41	83.9779
435.059	88.435	435.059	88.0013	435.059	88.4648	435.059	87.1743	435.059	88.0947	435.059	85.9826	435.059	87.343	435.059	84.4805	435.059	86.2464	435.059	82.7605	435.059	84.8666	435.059	80.964	435.059	83.2986	435.059	79.275	435.059	81.6751	435.059	77.872	435.059	80.1511	435.059	76.8543	435.059	78.8636	435.059	76.2312	435.059	77.8886	435.059	76.0568	435.059	77.2674	435.059	76.5699	435.059	77.1276	435.059	77.9314	435.059	77.7183	435.059	79.7932	435.059	79.0728	435.059	81.5875	435.059	80.7702	435.059	82.95	435.059	82.3066	435.059	83.7276	435.059	83.3833	435.059	83.8718
450.439	89.2082	450.439	88.8034	450.439	89.1837	450.439	87.9854	450.439	88.7285	450.439	86.79	450.439	87.8558	450.439	85.2817	450.439	86.5974	450.439	83.566	450.439	85.013	450.439	81.7955	450.439	83.204	450.439	80.1536	450.439	81.3248	450.439	78.7967	450.439	79.5702	450.439	77.786	450.439	78.119	450.439	77.0965	450.439	77.0628	450.439	76.7669	450.439	76.4216	450.439	77.0718	450.439	76.2993	450.439	78.2738	450.439	76.9678	450.439	80.0648	450.439	78.4847	450.439	81.8237	450.439	80.3794	450.439	83.1441	450.439	82.094	450.439	83.8591	450.439	83.3151	450.439	83.9168
466.553	89.2958	466.553	88.8882	466.553	89.2644	466.553	88.0564	466.553	88.7908	466.553	86.8315	466.553	87.8831	466.553	85.2697	466.553	86.5633	466.553	83.465	466.553	84.8751	466.553	81.5615	466.553	82.8969	466.553	79.7485	466.553	80.7585	466.553	78.22	466.553	78.6499	466.553	77.1092	466.553	76.7974	466.553	76.4825	466.553	75.4027	466.553	76.4608	466.553	74.6487	466.553	77.2745	466.553	74.8386	466.553	78.9053	466.553	76.2299	466.553	80.8666	466.553	78.442	466.553	82.631	466.553	80.7334	466.553	83.9054	466.553	82.6266	466.553	84.5698	466.553	83.9296	466.553	84.5815
482.666	88.94	482.666	88.5086	482.666	88.8886	482.666	87.6021	482.666	88.3606	482.666	86.2467	482.666	87.3781	482.666	84.4961	482.666	85.9855	482.666	82.447	482.666	84.2601	482.666	80.2538	482.666	82.3257	482.666	78.1264	482.666	80.3535	482.666	76.2796	482.666	78.5331	482.666	74.8419	482.666	77.0063	482.666	73.8471	482.666	75.7944	482.666	73.5371	482.666	74.8033	482.666	74.6056	482.666	74.1108	482.666	77.0504	482.666	74.529	482.666	79.7815	482.666	76.7069	482.666	82.0395	482.666	79.5286	482.666	83.581	482.666	81.9112	482.666	84.3517	482.666	83.529	482.666	84.3386
500.244	88.3339	500.244	87.8684	500.244	88.2663	500.244	86.8835	500.244	87.6587	500.244	85.4053	500.244	86.5118	500.244	83.484	500.244	84.8405	500.244	81.2173	500.244	82.6962	500.244	78.7819	500.244	80.2135	500.244	76.4539	500.244	77.6816	500.244	74.5644	500.244	75.5589	500.244	73.3588	500.244	74.2618	500.244	72.9075	500.244	73.8564	500.244	73.3311	500.244	74.0826	500.244	74.9267	500.244	74.7158	500.244	77.4598	500.244	75.8849	500.244	80.1087	500.244	77.7899	500.244	82.2881	500.244	80.0868	500.244	83.7741	500.244	82.1719	500.244	84.5051	500.244	83.6794	500.244	84.4707
517.822	87.7373	517.822	87.1393	517.822	87.7467	517.822	85.9654	517.822	87.1672	517.822	84.2471	517.822	86.0097	517.822	82.0505	517.822	84.3009	517.822	79.5027	517.822	82.0949	517.822	76.8189	517.822	79.4932	517.822	74.2981	517.822	76.668	517.822	72.2407	517.822	73.8689	517.822	70.8014	517.822	71.3717	517.822	70.0479	517.822	69.3796	517.822	70.618	517.822	68.3036	517.822	73.2625	517.822	69.6307	517.822	76.8188	517.822	73.3497	517.822	79.9973	517.822	77.2493	517.822	82.4115	517.822	80.4083	517.822	84.0192	517.822	82.7129	517.822	84.8427	517.822	84.1979	517.822	84.9016
536.133	88.9304	536.133	88.3041	536.133	88.9041	536.133	87.0336	536.133	88.2268	536.133	85.1406	536.133	86.913	536.133	82.6688	536.133	85.0005	536.133	79.6967	536.133	82.5694	536.133	76.3505	536.133	79.7627	536.133	72.8202	536.133	76.7844	536.133	69.3714	536.133	73.8605	536.133	66.193	536.133	71.1862	536.133	63.534	536.133	68.7407	536.133	65.1224	536.133	66.1127	536.133	70.7193	536.133	65.3234	536.133	75.6628	536.133	70.3943	536.133	79.4444	536.133	75.6421	536.133	82.2045	536.133	79.5414	536.133	84.0268	536.133	82.3065	536.133	84.944	536.133	84.094	536.133	84.9668
554.443	88.6284	554.443	88.0263	554.443	88.5611	554.443	86.7746	554.443	87.8178	554.443	84.9054	554.443	86.4088	554.443	82.4598	554.443	84.3738	554.443	79.4811	554.443	81.8025	554.443	76.0179	554.443	78.8534	554.443	72.2083	554.443	75.7393	554.443	68.4768	554.443	72.6982	554.443	65.1721	554.443	70.0408	554.443	61.4621	554.443	67.9113	554.443	61.2159	554.443	65.5739	554.443	68.0154	554.443	63.5255	554.443	73.427	554.443	68.5088	554.443	77.3837	554.443	74.4298	554.443	80.3066	554.443	78.5934	554.443	82.332	554.443	81.379	554.443	83.4783	554.443	83.049	554.443	83.7284
574.219	89.0792	574.219	88.3422	574.219	89.0626	574.219	86.8689	574.219	88.2816	574.219	84.6941	574.219	86.7293	574.219	81.8826	574.219	84.4086	574.219	78.5345	574.219	81.3564	574.219	74.7894	574.219	77.697	574.219	71.0242	574.219	73.7085	574.219	68.3354	574.219	69.8107	574.219	66.9791	574.219	66.5107	574.219	64.3926	574.219	64.0428	574.219	52.0491	574.219	60.6717	574.219	65.0622	574.219	58.2246	574.219	73.6388	574.219	68.4494	574.219	78.5717	574.219	75.1276	574.219	81.84	574.219	79.5301	574.219	83.9347	574.219	82.4887	574.219	85.0186	574.219	84.3178	574.219	85.1456
594.727	90.2835	594.727	89.6159	594.727	90.2271	594.727	88.2361	594.727	89.4375	594.727	86.1623	594.727	87.9062	594.727	83.4213	594.727	85.6266	594.727	80.0486	594.727	82.604	594.727	76.1065	594.727	78.8823	594.727	71.8935	594.727	74.6074	594.727	68.5459	594.727	70.2613	594.727	66.897	594.727	67.4957	594.727	65.0635	594.727	67.5617	594.727	59.7062	594.727	67.9129	594.727	53.7181	594.727	66.4904	594.727	68.7327	594.727	65.3077	594.727	75.4667	594.727	71.5476	594.727	79.809	594.727	77.2238	594.727	82.575	594.727	80.9628	594.727	84.0129	594.727	83.225	594.727	84.2218
615.234	90.0032	615.234	89.2722	615.234	89.9825	615.234	87.8066	615.234	89.1976	615.234	85.6301	615.234	87.6387	615.234	82.7662	615.234	85.3015	615.234	79.2042	615.234	82.2005	615.234	74.8636	615.234	78.4	615.234	70.0128	615.234	74.0437	615.234	67.417	615.234	69.489	615.234	67.7619	615.234	66.7506	615.234	66.832	615.234	67.9331	615.234	61.7949	615.234	69.2374	615.234	51.3471	615.234	68.2484	615.234	67.8377	615.234	62.4705	615.234	74.2242	615.234	66.2217	615.234	78.4293	615.234	74.8148	615.234	81.2273	615.234	79.399	615.234	82.7427	615.234	81.9399	615.234	82.9947
637.207	89.6864	637.207	88.8374	637.207	89.6805	637.207	87.1616	637.207	88.8047	637.207	84.7255	637.207	87.0439	637.207	81.6407	637.207	84.3853	637.207	77.9404	637.207	80.8484	637.207	73.229	637.207	76.5481	637.207	66.9157	637.207	71.6079	637.207	66.2139	637.207	65.4661	637.207	69.3776	637.207	61.7904	637.207	69.5914	637.207	67.2393	637.207	66.2158	637.207	70.0547	637.207	51.7574	637.207	69.7798	637.207	65.0008	637.207	64.8578	637.207	72.4777	637.207	63.9239	637.207	77.0518	637.207	74.0459	637.207	80.1596	637.207	78.9078	637.207	81.9368	637.207	81.4448	637.207	82.3828
659.912	90.0719	659.912	89.019	659.912	90.1433	659.912	86.9603	659.912	89.2278	659.912	83.8855	659.912	87.2708	659.912	79.9164	659.912	84.1509	659.912	75.3786	659.912	79.6956	659.912	69.8429	659.912	74.0403	659.912	60.7158	659.912	68.9873	659.912	67.6849	659.912	64.3963	659.912	72.4083	659.912	53.8842	659.912	73.4382	659.912	67.0157	659.912	71.4059	659.912	71.7029	659.912	65.7075	659.912	72.3168	659.912	70.2857	659.912	68.6869	659.912	76.885	659.912	68.0257	659.912	80.9423	659.912	76.8366	659.912	83.5657	659.912	81.6478	659.912	85.0119	659.912	84.229	659.912	85.2679
683.35	91.6104	683.35	90.4945	683.35	91.7186	683.35	88.3116	683.35	90.8102	683.35	84.9382	683.35	88.7885	683.35	80.2155	683.35	85.4011	683.35	74.0545	683.35	80.0507	683.35	65.3459	683.35	71.7217	683.35	57.8417	683.35	69.166	683.35	70.8926	683.35	70.4826	683.35	75.2515	683.35	65.8704	683.35	76.5944	683.35	56.785	683.35	75.584	683.35	70.3033	683.35	72.1136	683.35	73.3969	683.35	70.8234	683.35	72.5484	683.35	76.8997	683.35	71.8387	683.35	81.6589	683.35	78.1726	683.35	84.7702	683.35	83.0825	683.35	86.4961	683.35	85.8113	683.35	86.8705
706.787	92.0946	706.787	90.907	706.787	92.1747	706.787	88.4725	706.787	91.1811	706.787	84.5042	706.787	89.0319	706.787	78.5649	706.787	85.4281	706.787	71.406	706.787	79.4475	706.787	66.9714	706.787	67.7561	706.787	61.2434	706.787	71.2151	706.787	71.3328	706.787	74.2448	706.787	76.5248	706.787	72.3589	706.787	78.2661	706.787	66.3145	706.787	77.4432	706.787	71.0303	706.787	73.7235	706.787	75.5744	706.787	69.1435	706.787	76.4763	706.787	75.5628	706.787	75.2647	706.787	80.7825	706.787	77.3319	706.787	84.1099	706.787	82.0577	706.787	85.9671	706.787	85.1157	706.787	86.3444
731.689	92.1753	731.689	91.0085	731.689	92.1759	731.689	88.4994	731.689	91.0413	731.689	84.2024	731.689	88.656	731.689	77.0161	731.689	84.5972	731.689	68.793	731.689	77.2697	731.689	70.7334	731.689	59.0727	731.689	67.5855	731.689	74.8961	731.689	69.9786	731.689	77.4208	731.689	76.6263	731.689	76.1673	731.689	79.3281	731.689	70.7584	731.689	79.3231	731.689	67.8339	731.689	76.6462	731.689	74.7126	731.689	71.7349	731.689	76.6163	731.689	76.2529	731.689	75.4903	731.689	81.883	731.689	77.0654	731.689	85.2794	731.689	82.291	731.689	87.0245	731.689	85.7348	731.689	87.2165
758.057	92.717	758.057	91.6706	758.057	92.585	758.057	89.2234	758.057	91.3276	758.057	84.7553	758.057	88.855	758.057	75.9471	758.057	84.7884	758.057	66.6464	758.057	77.6111	758.057	75.05	758.057	51.9282	758.057	74.2995	758.057	75.5618	758.057	70.5202	758.057	79.0581	758.057	75.2091	758.057	79.2874	758.057	79.0366	758.057	76.7918	758.057	79.9022	758.057	70.6915	758.057	78.266	758.057	73.1845	758.057	74.821	758.057	77.7698	758.057	77.334	758.057	78.6116	758.057	82.858	758.057	78.7354	758.057	86.4337	758.057	82.5179	758.057	88.1708	758.057	86.2906	758.057	88.1542
784.424	91.5789	784.424	90.5286	784.424	91.4337	784.424	88.0339	784.424	90.1687	784.424	83.3732	784.424	87.717	784.424	73.5089	784.424	83.6757	784.424	71.0998	784.424	76.2237	784.424	77.2384	784.424	62.3146	784.424	77.16	784.424	76.6084	784.424	73.6054	784.424	79.7434	784.424	73.5098	784.424	79.9107	784.424	77.8561	784.424	78.0064	784.424	79.5501	784.424	75.0055	784.424	78.6539	784.424	75.5964	784.424	75.6449	784.424	78.2449	784.424	75.1159	784.424	78.9743	784.424	79.602	784.424	78.1321	784.424	83.2639	784.424	79.8104	784.424	85.2115	784.424	83.3912	784.424	85.3107
812.256	90.9564	812.256	89.8483	812.256	90.7043	812.256	87.1451	812.256	89.1433	812.256	81.9826	812.256	86.2468	812.256	69.5687	812.256	81.8014	812.256	73.913	812.256	74.4483	812.256	78.7264	812.256	67.7756	812.256	78.6293	812.256	77.0016	812.256	75.8047	812.256	80.4891	812.256	75.639	812.256	81.0747	812.256	79.2831	812.256	79.0625	812.256	80.994	812.256	74.2911	812.256	80.2574	812.256	75.1593	812.256	76.8963	812.256	79.2618	812.256	73.7804	812.256	80.1629	812.256	78.7781	812.256	78.2113	812.256	82.9994	812.256	77.7182	812.256	84.9924	812.256	82.1613	812.256	84.7975
840.82	91.6796	840.82	90.5274	840.82	91.3591	840.82	87.6098	840.82	89.5433	840.82	81.5586	840.82	86.0075	840.82	49.4422	840.82	80.234	840.82	79.2949	840.82	72.3465	840.82	82.8109	840.82	73.4794	840.82	82.2699	840.82	77.6942	840.82	77.8817	840.82	80.2813	840.82	70.4567	840.82	81.0184	840.82	78.0865	840.82	79.265	840.82	81.3204	840.82	73.1558	840.82	81.2683	840.82	73.6965	840.82	78.6242	840.82	80.0927	840.82	76.8287	840.82	81.6453	840.82	81.2205	840.82	79.5216	840.82	84.7823	840.82	76.7971	840.82	86.2617	840.82	82.1303	840.82	85.5632
870.85	91.5879	870.85	90.166	870.85	91.4963	870.85	87.0763	870.85	89.7859	870.85	81.1877	870.85	86.1516	870.85	56.1776	870.85	80.1138	870.85	79.0752	870.85	74.6415	870.85	83.6295	870.85	76.1713	870.85	84.4251	870.85	78.2514	870.85	82.4363	870.85	80.7459	870.85	77.1095	870.85	82.5143	870.85	75.6814	870.85	82.4026	870.85	80.4521	870.85	79.2017	870.85	82.0161	870.85	65.6983	870.85	81.1601	870.85	75.7332	870.85	79.7365	870.85	80.6243	870.85	82.5334	870.85	79.8891	870.85	86.2365	870.85	77.8247	870.85	87.8865	870.85	83.4318	870.85	87.1175
901.611	90.8536	901.611	89.1965	901.611	90.7917	901.611	85.6573	901.611	88.8582	901.611	79.0824	901.611	84.4096	901.611	54.955	901.611	75.5766	901.611	78.26	901.611	76.3799	901.611	82.9384	901.611	80.3452	901.611	84.2409	901.611	80.7381	901.611	83.0364	901.611	80.1913	901.611	78.9509	901.611	80.8518	901.611	75.0385	901.611	81.732	901.611	79.2959	901.611	80.7744	901.611	81.4435	901.611	75.7376	901.611	81.0858	901.611	66.8185	901.611	79.5751	901.611	77.6295	901.611	80.5606	901.611	79.143	901.611	83.9106	901.611	75.8485	901.611	85.6038	901.611	79.6144	901.611	84.4621
933.105	91.7269	933.105	89.9383	933.105	91.6041	933.105	85.9085	933.105	89.4582	933.105	78.137	933.105	84.4791	933.105	68.9502	933.105	72.8384	933.105	78.4986	933.105	77.8561	933.105	82.2575	933.105	82.2748	933.105	83.8093	933.105	83.1157	933.105	83.4925	933.105	82.6657	933.105	80.9095	933.105	82.287	933.105	75.9793	933.105	82.3039	933.105	77.0477	933.105	81.4928	933.105	80.6332	933.105	78.1558	933.105	81.5281	933.105	71.1015	933.105	79.9779	933.105	74.6377	933.105	77.8783	933.105	75.8006	933.105	81.1264	933.105	67.0437	933.105	83.68	933.105	76.9876	933.105	82.7966
966.064	91.8502	966.064	89.7629	966.064	91.7828	966.064	84.8925	966.064	89.526	966.064	74.3604	966.064	84.1513	966.064	75.5848	966.064	69.308	966.064	80.8829	966.064	79.391	966.064	82.9217	966.064	83.6076	966.064	83.7764	966.064	84.2894	966.064	83.5621	966.064	83.4188	966.064	82.0149	966.064	82.5182	966.064	79.5073	966.064	82.469	966.064	78.7043	966.064	82.0359	966.064	79.8366	966.064	79.6696	966.064	80.1579	966.064	74.2077	966.064	78.9514	966.064	73.9505	966.064	76.5694	966.064	76.5182	966.064	78.7204	966.064	72.6301	966.064	81.6095	966.064	73.7347	966.064	80.5859
999.756	92.0369	999.756	89.9006	999.756	91.9113	999.756	84.7351	999.756	89.481	999.756	71.4086	999.756	83.7543	999.756	77.3775	999.756	70.4771	999.756	82.2681	999.756	80.0236	999.756	83.6712	999.756	83.7048	999.756	83.9214	999.756	84.3207	999.756	83.4429	999.756	83.4289	999.756	81.8518	999.756	82.1236	999.756	79.2102	999.756	81.4765	999.756	78.26	999.756	81.1118	999.756	79.451	999.756	79.7227	999.756	79.6305	999.756	76.5978	999.756	77.593	999.756	74.7167	999.756	70.0428	999.756	74.7429	999.756	74.9553	999.756	65.603	999.756	80.7887	999.756	74.1703	999.756	80.721
1,034.91	92.254	1,034.91	89.8394	1,034.91	92.1859	1,034.91	84.0035	1,034.91	89.5439	1,034.91	67.6344	1,034.91	82.785	1,034.91	78.7838	1,034.91	67.2299	1,034.91	83.1592	1,034.91	82.2032	1,034.91	84.8205	1,034.91	85.0956	1,034.91	85.1791	1,034.91	85.3352	1,034.91	84.3063	1,034.91	84.3203	1,034.91	82.0962	1,034.91	82.8759	1,034.91	79.1082	1,034.91	81.7431	1,034.91	78.0423	1,034.91	80.8763	1,034.91	78.2184	1,034.91	79.3086	1,034.91	77.1469	1,034.91	76.4052	1,034.91	75.5116	1,034.91	74.5129	1,034.91	69.6106	1,034.91	73.9522	1,034.91	75.3863	1,034.91	65.9965	1,034.91	81.7408	1,034.91	76.4277	1,034.91	81.9844
1,071.53	92.0592	1,071.53	89.6085	1,071.53	91.9004	1,071.53	83.2534	1,071.53	89.1017	1,071.53	64.9023	1,071.53	82.1599	1,071.53	80.7986	1,071.53	67.6077	1,071.53	83.893	1,071.53	81.0129	1,071.53	84.4121	1,071.53	83.6106	1,071.53	83.9645	1,071.53	83.659	1,071.53	83.0748	1,071.53	82.654	1,071.53	81.6232	1,071.53	81.4376	1,071.53	79.4032	1,071.53	80.6341	1,071.53	77.9974	1,071.53	80.3513	1,071.53	78.471	1,071.53	79.5161	1,071.53	78.0323	1,071.53	76.5832	1,071.53	75.9771	1,071.53	73.6491	1,071.53	68.0652	1,071.53	74.0818	1,071.53	73.5741	1,071.53	64.0384	1,071.53	81.1048	1,071.53	75.7832	1,071.53	81.6436
1,109.62	91.5254	1,109.62	88.9712	1,109.62	91.2876	1,109.62	82.063	1,109.62	88.2088	1,109.62	67.6239	1,109.62	80.3914	1,109.62	81.2117	1,109.62	70.2569	1,109.62	83.607	1,109.62	81.1528	1,109.62	83.4913	1,109.62	83.4174	1,109.62	82.4508	1,109.62	83.482	1,109.62	81.2501	1,109.62	82.4783	1,109.62	79.8668	1,109.62	81.2299	1,109.62	78.1759	1,109.62	80.6395	1,109.62	78.0572	1,109.62	80.1642	1,109.62	79.1023	1,109.62	79.0793	1,109.62	77.8568	1,109.62	77.5484	1,109.62	73.8912	1,109.62	75.4542	1,109.62	65.4529	1,109.62	74.2626	1,109.62	71.8431	1,109.62	68.5139	1,109.62	79.9761	1,109.62	73.6366	1,109.62	80.4311
1,148.44	92.1391	1,148.44	89.1906	1,148.44	91.9939	1,148.44	81.23	1,148.44	88.7416	1,148.44	69.7157	1,148.44	80.3619	1,148.44	80.7621	1,148.44	72.3952	1,148.44	82.6755	1,148.44	81.4642	1,148.44	83.1761	1,148.44	83.4977	1,148.44	83.1804	1,148.44	83.6911	1,148.44	82.3528	1,148.44	82.9433	1,148.44	80.3629	1,148.44	81.677	1,148.44	77.6981	1,148.44	80.4728	1,148.44	76.9853	1,148.44	79.7344	1,148.44	77.2815	1,148.44	78.7515	1,148.44	74.5026	1,148.44	76.098	1,148.44	70.3123	1,148.44	72.2097	1,148.44	64.9592	1,148.44	73.3315	1,148.44	74.207	1,148.44	69.5669	1,148.44	81.6992	1,148.44	74.0076	1,148.44	81.6686
1,189.45	92.8368	1,189.45	89.9114	1,189.45	92.6163	1,189.45	81.6951	1,189.45	89.1617	1,189.45	73.9989	1,189.45	79.5685	1,189.45	82.8763	1,189.45	77.1632	1,189.45	83.9843	1,189.45	84.3191	1,189.45	83.3144	1,189.45	85.7117	1,189.45	82.7591	1,189.45	85.0293	1,189.45	82.0868	1,189.45	83.3008	1,189.45	80.5347	1,189.45	81.5948	1,189.45	78.7418	1,189.45	80.8511	1,189.45	78.9511	1,189.45	80.6746	1,189.45	80.1063	1,189.45	80.268	1,189.45	78.835	1,189.45	80.1942	1,189.45	72.8293	1,189.45	79.5569	1,189.45	58.6236	1,189.45	76.6134	1,189.45	74.1463	1,189.45	71.0382	1,189.45	80.4493	1,189.45	71.6152	1,189.45	80.0102
1,231.2	93.3393	1,231.2	90.4777	1,231.2	93.01	1,231.2	82.0823	1,231.2	89.3548	1,231.2	75.7159	1,231.2	79.2463	1,231.2	84.2384	1,231.2	78.4896	1,231.2	85.0648	1,231.2	84.4684	1,231.2	83.6212	1,231.2	85.5652	1,231.2	82.1939	1,231.2	85.0158	1,231.2	81.6632	1,231.2	83.4314	1,231.2	80.7755	1,231.2	81.3016	1,231.2	78.772	1,231.2	80.3267	1,231.2	77.9677	1,231.2	80.8331	1,231.2	80.2291	1,231.2	80.5648	1,231.2	80.2107	1,231.2	79.0746	1,231.2	75.6365	1,231.2	77.8131	1,231.2	66.5848	1,231.2	76.9888	1,231.2	71.7421	1,231.2	73.2645	1,231.2	79.9475	1,231.2	66.4917	1,231.2	79.4709
1,274.41	92.9285	1,274.41	89.7706	1,274.41	92.6882	1,274.41	80.4896	1,274.41	88.7808	1,274.41	77.8814	1,274.41	76.5552	1,274.41	84.9051	1,274.41	80.9575	1,274.41	85.8895	1,274.41	85.2447	1,274.41	84.6005	1,274.41	85.3563	1,274.41	82.4842	1,274.41	84.2371	1,274.41	81.3671	1,274.41	82.7257	1,274.41	80.8168	1,274.41	80.8722	1,274.41	79.0957	1,274.41	79.2421	1,274.41	77.2445	1,274.41	79.0464	1,274.41	78.7581	1,274.41	79.1767	1,274.41	79.3614	1,274.41	78.2211	1,274.41	75.9285	1,274.41	77.2683	1,274.41	69.0643	1,274.41	75.6186	1,274.41	66.7359	1,274.41	69.484	1,274.41	78.9742	1,274.41	71.4761	1,274.41	79.8657
1,319.82	92.0445	1,319.82	88.5688	1,319.82	91.8225	1,319.82	77.6157	1,319.82	87.6813	1,319.82	80.2838	1,319.82	72.7398	1,319.82	85.4619	1,319.82	81.376	1,319.82	85.9041	1,319.82	85.3675	1,319.82	84.321	1,319.82	85.1038	1,319.82	81.9472	1,319.82	83.1159	1,319.82	80.1781	1,319.82	80.9501	1,319.82	79.4375	1,319.82	79.2716	1,319.82	78.4632	1,319.82	78.2168	1,319.82	77.7933	1,319.82	78.9376	1,319.82	79.2809	1,319.82	79.7247	1,319.82	79.0241	1,319.82	79.0856	1,319.82	74.4868	1,319.82	77.2624	1,319.82	66.8654	1,319.82	73.5375	1,319.82	66.6797	1,319.82	65.0201	1,319.82	78.3787	1,319.82	72.0285	1,319.82	79.5783
1,365.97	91.1851	1,365.97	87.2599	1,365.97	91.0483	1,365.97	72.5008	1,365.97	86.7269	1,365.97	81.2217	1,365.97	69.9117	1,365.97	85.2801	1,365.97	81.0679	1,365.97	85.0434	1,365.97	84.6158	1,365.97	83.0013	1,365.97	84.3351	1,365.97	80.3201	1,365.97	82.216	1,365.97	77.7118	1,365.97	78.7682	1,365.97	76.3392	1,365.97	75.2541	1,365.97	76.4073	1,365.97	74.6045	1,365.97	76.1399	1,365.97	75.7441	1,365.97	78.4833	1,365.97	76.9396	1,365.97	79.3495	1,365.97	77.9328	1,365.97	73.1645	1,365.97	77.5564	1,365.97	65.274	1,365.97	74.8163	1,365.97	68.4084	1,365.97	67.8018	1,365.97	78.6329	1,365.97	71.7367	1,365.97	79.6168
1,414.31	90.94	1,414.31	86.7206	1,414.31	90.9512	1,414.31	70.2315	1,414.31	86.6289	1,414.31	80.8377	1,414.31	68.7713	1,414.31	84.8252	1,414.31	81.1808	1,414.31	84.691	1,414.31	84.4249	1,414.31	82.2561	1,414.31	83.8188	1,414.31	78.0649	1,414.31	81.5922	1,414.31	74.3803	1,414.31	78.9283	1,414.31	73.046	1,414.31	76.2796	1,414.31	73.7325	1,414.31	72.224	1,414.31	74.6555	1,414.31	72.1002	1,414.31	76.9554	1,414.31	75.2727	1,414.31	79.5365	1,414.31	75.7506	1,414.31	75.599	1,414.31	76.8251	1,414.31	59.4178	1,414.31	75.3986	1,414.31	66.6682	1,414.31	69.6471	1,414.31	77.6094	1,414.31	65.5666	1,414.31	78.0098
1,464.11	91.096	1,464.11	86.7423	1,464.11	90.9856	1,464.11	70.1859	1,464.11	86.298	1,464.11	80.6232	1,464.11	63.3823	1,464.11	84.0578	1,464.11	81.8594	1,464.11	84.2383	1,464.11	84.742	1,464.11	82.8343	1,464.11	84.0619	1,464.11	79.5335	1,464.11	81.892	1,464.11	74.9322	1,464.11	79.3169	1,464.11	73.0173	1,464.11	77.1083	1,464.11	74.2502	1,464.11	75.1002	1,464.11	75.2611	1,464.11	71.9468	1,464.11	75.4124	1,464.11	73.1454	1,464.11	78.2814	1,464.11	76.8818	1,464.11	76.5872	1,464.11	78.2012	1,464.11	60.7035	1,464.11	75.6534	1,464.11	64.5779	1,464.11	69.3839	1,464.11	75.9562	1,464.11	66.8542	1,464.11	77.8963
1,515.38	91.3528	1,515.38	87.5213	1,515.38	90.7539	1,515.38	73.6776	1,515.38	85.5424	1,515.38	80.0825	1,515.38	60.5472	1,515.38	83.5489	1,515.38	80.8873	1,515.38	82.7747	1,515.38	83.6235	1,515.38	80.8793	1,515.38	82.6947	1,515.38	78.9197	1,515.38	80.4152	1,515.38	76.3216	1,515.38	78.3721	1,515.38	72.9584	1,515.38	76.3575	1,515.38	71.531	1,515.38	74.4065	1,515.38	74.0267	1,515.38	73.5289	1,515.38	75.2542	1,515.38	71.6263	1,515.38	76.8373	1,515.38	73.7683	1,515.38	76.248	1,515.38	78.9708	1,515.38	61.6581	1,515.38	77.5037	1,515.38	69.2138	1,515.38	67.5566	1,515.38	76.2235	1,515.38	67.7719	1,515.38	77.8378
1,568.85	91.2884	1,568.85	87.8785	1,568.85	90.5526	1,568.85	75.9512	1,568.85	85.3497	1,568.85	78.5692	1,568.85	63.1282	1,568.85	83.0441	1,568.85	80.5949	1,568.85	81.5913	1,568.85	82.7315	1,568.85	77.1055	1,568.85	80.1505	1,568.85	74.045	1,568.85	75.9976	1,568.85	73.6238	1,568.85	74.5162	1,568.85	69.9875	1,568.85	72.1081	1,568.85	61.6591	1,568.85	66.3349	1,568.85	70.7408	1,568.85	69.2034	1,568.85	74.4467	1,568.85	69.5426	1,568.85	76.6464	1,568.85	70.4045	1,568.85	77.1731	1,568.85	77.6969	1,568.85	67.6558	1,568.85	77.2933	1,568.85	68.0176	1,568.85	68.1583	1,568.85	76.1102	1,568.85	66.6842	1,568.85	77.0819
1,624.51	90.3872	1,624.51	86.6706	1,624.51	89.8019	1,624.51	74.3653	1,624.51	84.5358	1,624.51	77.3274	1,624.51	62.2599	1,624.51	81.6254	1,624.51	79.3819	1,624.51	80.7545	1,624.51	81.0947	1,624.51	76.3562	1,624.51	78.4046	1,624.51	69.8733	1,624.51	73.8903	1,624.51	70.9131	1,624.51	70.306	1,624.51	72.9916	1,624.51	69.2868	1,624.51	68.4124	1,624.51	67.8964	1,624.51	56.1388	1,624.51	66.8596	1,624.51	67.394	1,624.51	68.3051	1,624.51	71.2894	1,624.51	57.9277	1,624.51	73.8835	1,624.51	73.4587	1,624.51	69.3429	1,624.51	74.7929	1,624.51	63.95	1,624.51	54.3256	1,624.51	74.7249	1,624.51	69.5907	1,624.51	75.9919
1,681.64	89.3312	1,681.64	84.7002	1,681.64	89.1098	1,681.64	71.1916	1,681.64	83.7789	1,681.64	78.6846	1,681.64	64.7678	1,681.64	80.1027	1,681.64	79.7666	1,681.64	79.0784	1,681.64	80.9226	1,681.64	76.6239	1,681.64	77.8151	1,681.64	73.5319	1,681.64	72.1105	1,681.64	70.1235	1,681.64	65.8959	1,681.64	72.7871	1,681.64	67.8976	1,681.64	72.0227	1,681.64	69.1685	1,681.64	63.9914	1,681.64	65.7046	1,681.64	70.0069	1,681.64	71.0331	1,681.64	70.3448	1,681.64	64.9876	1,681.64	67.0069	1,681.64	71.0174	1,681.64	65.6347	1,681.64	74.7955	1,681.64	68.2353	1,681.64	66.3613	1,681.64	72.4379	1,681.64	72.4837	1,681.64	74.3794
1,740.97	89.521	1,740.97	84.3996	1,740.97	89.3779	1,740.97	57.4535	1,740.97	83.8606	1,740.97	79.2975	1,740.97	65.5608	1,740.97	80.0128	1,740.97	79.169	1,740.97	76.6725	1,740.97	79.8467	1,740.97	73.5384	1,740.97	77.5177	1,740.97	74.3298	1,740.97	75.0472	1,740.97	72.4402	1,740.97	73.3218	1,740.97	68.979	1,740.97	71.1033	1,740.97	73.0964	1,740.97	72.5182	1,740.97	64.8564	1,740.97	67.88	1,740.97	70.7822	1,740.97	70.3638	1,740.97	73.9279	1,740.97	74.6336	1,740.97	71.1104	1,740.97	60.3162	1,740.97	57.6179	1,740.97	74.0186	1,740.97	70.4577	1,740.97	72.9737	1,740.97	75.9682	1,740.97	72.5072	1,740.97	77.183
1,802.49	89.9031	1,802.49	85.3069	1,802.49	89.6102	1,802.49	68.0241	1,802.49	83.8455	1,802.49	78.3849	1,802.49	69.0055	1,802.49	80.5493	1,802.49	79.958	1,802.49	76.9217	1,802.49	79.3693	1,802.49	72.3159	1,802.49	75.8324	1,802.49	74.1977	1,802.49	73.4947	1,802.49	74.8004	1,802.49	74.3814	1,802.49	69.6337	1,802.49	72.2759	1,802.49	71.059	1,802.49	71.2234	1,802.49	71.7296	1,802.49	70.1048	1,802.49	62.3534	1,802.49	66.7272	1,802.49	71.6935	1,802.49	74.5095	1,802.49	73.9004	1,802.49	65.2054	1,802.49	66.1089	1,802.49	73.1845	1,802.49	66.6132	1,802.49	72.4748	1,802.49	75.4624	1,802.49	69.2044	1,802.49	77.1569
1,866.21	90.0447	1,866.21	85.2429	1,866.21	89.6627	1,866.21	68.4847	1,866.21	83.2892	1,866.21	78.9087	1,866.21	69.0357	1,866.21	79.889	1,866.21	79.2971	1,866.21	75.2136	1,866.21	76.798	1,866.21	73.6062	1,866.21	69.5078	1,866.21	74.8421	1,866.21	70.9454	1,866.21	76.4294	1,866.21	76.1319	1,866.21	75.2368	1,866.21	76.0403	1,866.21	70.3692	1,866.21	72.9547	1,866.21	71.7225	1,866.21	70.0701	1,866.21	69.3234	1,866.21	63.3461	1,866.21	69.4098	1,866.21	71.2292	1,866.21	71.2839	1,866.21	69.021	1,866.21	70.1097	1,866.21	68.1126	1,866.21	59.9161	1,866.21	70.8214	1,866.21	72.4883	1,866.21	63.8731	1,866.21	74.3542
1,932.13	89.5783	1,932.13	84.1305	1,932.13	89.2945	1,932.13	67.3444	1,932.13	82.9578	1,932.13	78.5917	1,932.13	63.9158	1,932.13	77.2073	1,932.13	77.6155	1,932.13	70.6055	1,932.13	74.0761	1,932.13	74.5004	1,932.13	71.3261	1,932.13	75.6461	1,932.13	75.9532	1,932.13	76.3748	1,932.13	77.3709	1,932.13	77.091	1,932.13	76.8069	1,932.13	74.2323	1,932.13	75.678	1,932.13	71.3894	1,932.13	73.8433	1,932.13	71.4963	1,932.13	68.9746	1,932.13	71.0939	1,932.13	71.6389	1,932.13	70.3657	1,932.13	70.5745	1,932.13	69.3541	1,932.13	64.6129	1,932.13	56.7145	1,932.13	65.197	1,932.13	72.5343	1,932.13	62.7264	1,932.13	73.2278
2,000.24	89.7149	2,000.24	83.9674	2,000.24	89.8326	2,000.24	60.3468	2,000.24	84.3046	2,000.24	77.2337	2,000.24	59.5931	2,000.24	72.9713	2,000.24	76.5635	2,000.24	74.5665	2,000.24	73.0563	2,000.24	79.5474	2,000.24	76.6306	2,000.24	79.2814	2,000.24	80.2066	2,000.24	76.8882	2,000.24	80.244	2,000.24	77.8742	2,000.24	78.5703	2,000.24	76.672	2,000.24	77.9092	2,000.24	71.9901	2,000.24	75.9674	2,000.24	72.3746	2,000.24	71.3599	2,000.24	73.2598	2,000.24	72.669	2,000.24	68.0751	2,000.24	73.361	2,000.24	64.9192	2,000.24	68.7168	2,000.24	62.3144	2,000.24	68.6262	2,000.24	72.957	2,000.24	61.191	2,000.24	72.5584
2,070.56	90.3945	2,070.56	85.8143	2,070.56	89.9748	2,070.56	67.1425	2,070.56	84.1157	2,070.56	75.1192	2,070.56	63.8792	2,070.56	72.3494	2,070.56	75.8682	2,070.56	78.645	2,070.56	74.2566	2,070.56	81.6728	2,070.56	81.6289	2,070.56	81.1915	2,070.56	83.9482	2,070.56	78.7341	2,070.56	83.2019	2,070.56	77.56	2,070.56	80.6397	2,070.56	75.5509	2,070.56	79.784	2,070.56	69.0067	2,070.56	78.8232	2,070.56	71.3052	2,070.56	75.5954	2,070.56	76.4637	2,070.56	73.5588	2,070.56	72.0762	2,070.56	74.216	2,070.56	67.9039	2,070.56	70.9503	2,070.56	62.3274	2,070.56	73.8427	2,070.56	72.6441	2,070.56	64.3677	2,070.56	73.3498
2,143.8	89.7966	2,143.8	85.5174	2,143.8	89.0196	2,143.8	69.0916	2,143.8	82.667	2,143.8	72.0748	2,143.8	60.138	2,143.8	73.4779	2,143.8	72.155	2,143.8	82.144	2,143.8	78.2348	2,143.8	84.0206	2,143.8	83.2018	2,143.8	82.5709	2,143.8	84.36	2,143.8	80.818	2,143.8	83.1946	2,143.8	79.4425	2,143.8	80.1806	2,143.8	78.3001	2,143.8	78.2385	2,143.8	76.6353	2,143.8	78.2368	2,143.8	67.4738	2,143.8	75.9235	2,143.8	73.9529	2,143.8	75.1132	2,143.8	68.8981	2,143.8	74.4397	2,143.8	61.1774	2,143.8	67.8632	2,143.8	66.1307	2,143.8	71.2237	2,143.8	71.6351	2,143.8	57.8894	2,143.8	73.0338
2,219.24	88.4551	2,219.24	83.4741	2,219.24	88.0479	2,219.24	62.3536	2,219.24	83.1979	2,219.24	70.0785	2,219.24	68.5191	2,219.24	77.9661	2,219.24	67.2845	2,219.24	83.9252	2,219.24	78.1731	2,219.24	84.6687	2,219.24	83.4957	2,219.24	83.12	2,219.24	83.4606	2,219.24	81.1801	2,219.24	81.7909	2,219.24	79.5919	2,219.24	80.0971	2,219.24	78.6161	2,219.24	77.4076	2,219.24	77.6338	2,219.24	77.1412	2,219.24	73.6256	2,219.24	74.9162	2,219.24	76.4386	2,219.24	74.2034	2,219.24	73.0074	2,219.24	73.9278	2,219.24	64.8891	2,219.24	69.6794	2,219.24	64.4465	2,219.24	69.8756	2,219.24	71.7387	2,219.24	64.9311	2,219.24	73.7485
2,297.61	88.5023	2,297.61	84.3297	2,297.61	88.0263	2,297.61	74.6319	2,297.61	82.6667	2,297.61	50.321	2,297.61	65.8797	2,297.61	79.8964	2,297.61	61.6132	2,297.61	85.4398	2,297.61	80.7437	2,297.61	85.1831	2,297.61	85.1843	2,297.61	82.1903	2,297.61	85.1767	2,297.61	78.9317	2,297.61	82.9572	2,297.61	77.1351	2,297.61	80.6302	2,297.61	77.1757	2,297.61	79.0951	2,297.61	75.7481	2,297.61	78.5862	2,297.61	71.6412	2,297.61	76.2231	2,297.61	76.1876	2,297.61	76.2945	2,297.61	74.3412	2,297.61	74.0809	2,297.61	65.9631	2,297.61	64.7411	2,297.61	68.6477	2,297.61	69.1946	2,297.61	68.8992	2,297.61	64.6924	2,297.61	71.5594
2,378.17	87.8355	2,378.17	85.3995	2,378.17	87.2159	2,378.17	77.7207	2,378.17	82.4911	2,378.17	70.0287	2,378.17	70.5395	2,378.17	82.285	2,378.17	72.2802	2,378.17	86.4403	2,378.17	83.3884	2,378.17	86.4207	2,378.17	86.6855	2,378.17	84.6252	2,378.17	85.8404	2,378.17	81.0715	2,378.17	82.9891	2,378.17	77.8722	2,378.17	79.0968	2,378.17	76.5067	2,378.17	76.2543	2,378.17	76.9286	2,378.17	78.4886	2,378.17	74.8756	2,378.17	77.5859	2,378.17	71.5644	2,378.17	77.9751	2,378.17	72.351	2,378.17	77.7495	2,378.17	58.0044	2,378.17	68.1691	2,378.17	69.9168	2,378.17	65.7292	2,378.17	70.7867	2,378.17	70.5453	2,378.17	71.3576
2,462.4	86.7667	2,462.4	83.4446	2,462.4	86.8277	2,462.4	75.5164	2,462.4	82.8937	2,462.4	72.054	2,462.4	74.6187	2,462.4	82.6765	2,462.4	73.1977	2,462.4	86.2545	2,462.4	83.5108	2,462.4	86.1883	2,462.4	86.2989	2,462.4	84.6015	2,462.4	85.5674	2,462.4	81.6659	2,462.4	83.0009	2,462.4	78.8974	2,462.4	79.6761	2,462.4	76.4381	2,462.4	75.2985	2,462.4	76.5581	2,462.4	73.7585	2,462.4	75.8417	2,462.4	75.4631	2,462.4	74.0226	2,462.4	75.3976	2,462.4	72.5813	2,462.4	75.702	2,462.4	62.6383	2,462.4	68.659	2,462.4	67.5615	2,462.4	63.4469	2,462.4	71.6084	2,462.4	69.9272	2,462.4	70.578
2,548.83	86.0942	2,548.83	83.4309	2,548.83	86.1591	2,548.83	78.0675	2,548.83	83.2339	2,548.83	76.2265	2,548.83	79.2269	2,548.83	83.3797	2,548.83	78.166	2,548.83	86.2765	2,548.83	84.4383	2,548.83	85.2196	2,548.83	86.4631	2,548.83	82.3951	2,548.83	85.5866	2,548.83	79.2308	2,548.83	83.2229	2,548.83	77.3519	2,548.83	79.9334	2,548.83	75.063	2,548.83	76.8968	2,548.83	74.5449	2,548.83	73.5282	2,548.83	76.8563	2,548.83	74.7338	2,548.83	76.5367	2,548.83	75.5173	2,548.83	73.8352	2,548.83	75.1737	2,548.83	63.3181	2,548.83	71.7822	2,548.83	67.9811	2,548.83	60.8647	2,548.83	65.791	2,548.83	71.9723	2,548.83	67.4331
2,638.92	86.2548	2,638.92	84.1637	2,638.92	85.9319	2,638.92	81.1323	2,638.92	83.6902	2,638.92	80.7432	2,638.92	81.7613	2,638.92	84.748	2,638.92	82.0705	2,638.92	86.8126	2,638.92	85.8602	2,638.92	85.7012	2,638.92	86.9703	2,638.92	82.9045	2,638.92	85.6081	2,638.92	79.9343	2,638.92	82.9776	2,638.92	76.486	2,638.92	80.1848	2,638.92	75.2125	2,638.92	78.2881	2,638.92	74.7101	2,638.92	75.947	2,638.92	73.9241	2,638.92	75.847	2,638.92	75.1682	2,638.92	76.2637	2,638.92	73.8981	2,638.92	76.5018	2,638.92	57.7932	2,638.92	73.1553	2,638.92	65.6387	2,638.92	53.2893	2,638.92	72.5521	2,638.92	67.928	2,638.92	72.5737
2,731.93	86.6159	2,731.93	83.5508	2,731.93	86.0795	2,731.93	81.2969	2,731.93	82.7188	2,731.93	81.9951	2,731.93	81.7681	2,731.93	85.1657	2,731.93	82.7596	2,731.93	87.2358	2,731.93	86.1089	2,731.93	86.7486	2,731.93	87.3514	2,731.93	84.0261	2,731.93	86.1611	2,731.93	81.0391	2,731.93	83.2644	2,731.93	76.8541	2,731.93	80.0339	2,731.93	76.8951	2,731.93	78.0487	2,731.93	75.7267	2,731.93	76.5787	2,731.93	76.5709	2,731.93	75.7975	2,731.93	77.1659	2,731.93	75.821	2,731.93	74.447	2,731.93	76.9045	2,731.93	56.1683	2,731.93	73.5241	2,731.93	68.8984	2,731.93	55.1708	2,731.93	68.9852	2,731.93	71.7071	2,731.93	66.4015
2,828.61	86.7451	2,828.61	84.0308	2,828.61	86.2833	2,828.61	83.1443	2,828.61	84.0552	2,828.61	82.4132	2,828.61	83.2751	2,828.61	85.0104	2,828.61	82.8996	2,828.61	87.4084	2,828.61	86.2397	2,828.61	87.5884	2,828.61	88.1725	2,828.61	85.6379	2,828.61	87.8876	2,828.61	81.9378	2,828.61	85.3846	2,828.61	77.1961	2,828.61	81.8911	2,828.61	75.2135	2,828.61	77.9386	2,828.61	77.852	2,828.61	77.4549	2,828.61	75.9664	2,828.61	77.1736	2,828.61	78.9665	2,828.61	74.9272	2,828.61	74.453	2,828.61	77.2781	2,828.61	67.655	2,828.61	74.1074	2,828.61	65.6287	2,828.61	63.8921	2,828.61	69.3318	2,828.61	67.9137	2,828.61	73.087
2,928.22	86.5286	2,928.22	84.1638	2,928.22	86.1475	2,928.22	84.5818	2,928.22	84.2183	2,928.22	82.961	2,928.22	84.5841	2,928.22	84.9068	2,928.22	82.7306	2,928.22	87.5886	2,928.22	85.1641	2,928.22	88.1354	2,928.22	88.2178	2,928.22	86.6776	2,928.22	88.3187	2,928.22	83.4338	2,928.22	86.2901	2,928.22	79.8983	2,928.22	83.1078	2,928.22	76.5893	2,928.22	79.0016	2,928.22	78.398	2,928.22	76.9272	2,928.22	77.2483	2,928.22	77.6579	2,928.22	77.8947	2,928.22	76.4274	2,928.22	74.1064	2,928.22	77.8974	2,928.22	69.4116	2,928.22	72.0463	2,928.22	70.6007	2,928.22	64.1924	2,928.22	71.5793	2,928.22	70.0653	2,928.22	71.6348
3,031.49	87.3522	3,031.49	84.3026	3,031.49	86.312	3,031.49	85.3708	3,031.49	83.0659	3,031.49	84.7359	3,031.49	85.532	3,031.49	85.5011	3,031.49	84.9064	3,031.49	88.1504	3,031.49	85.6126	3,031.49	88.4273	3,031.49	88.7187	3,031.49	86.3116	3,031.49	88.3597	3,031.49	82.9695	3,031.49	86.4784	3,031.49	79.9747	3,031.49	83.2451	3,031.49	77.0572	3,031.49	79.3306	3,031.49	78.1012	3,031.49	77.1681	3,031.49	76.2266	3,031.49	78.059	3,031.49	78.3387	3,031.49	77.7478	3,031.49	70.9715	3,031.49	78.3418	3,031.49	70.5818	3,031.49	67.962	3,031.49	69.1437	3,031.49	70.5162	3,031.49	68.4183	3,031.49	69.9817	3,031.49	69.1677
3,138.43	87.731	3,138.43	84.6769	3,138.43	87.2744	3,138.43	85.3925	3,138.43	84.0801	3,138.43	85.8567	3,138.43	85.5713	3,138.43	86.3346	3,138.43	86.2117	3,138.43	88.7051	3,138.43	87.1282	3,138.43	88.2051	3,138.43	89.3563	3,138.43	86.1566	3,138.43	88.4629	3,138.43	83.2814	3,138.43	86.2734	3,138.43	79.3941	3,138.43	82.8171	3,138.43	75.9367	3,138.43	79.9428	3,138.43	77.1666	3,138.43	78.3773	3,138.43	78.0397	3,138.43	78.0094	3,138.43	76.6081	3,138.43	79.1373	3,138.43	71.154	3,138.43	78.3961	3,138.43	69.7047	3,138.43	67.609	3,138.43	73.2473	3,138.43	69.1892	3,138.43	72.8246	3,138.43	69.6466	3,138.43	70.3686
3,249.02	88.4213	3,249.02	85.7188	3,249.02	88.131	3,249.02	85.4536	3,249.02	85.4161	3,249.02	87.2461	3,249.02	86.1055	3,249.02	87.1457	3,249.02	87.8603	3,249.02	88.7863	3,249.02	87.5679	3,249.02	87.8765	3,249.02	89.3634	3,249.02	85.9326	3,249.02	88.3636	3,249.02	82.3484	3,249.02	86.3693	3,249.02	80.2193	3,249.02	82.8748	3,249.02	77.6571	3,249.02	79.5434	3,249.02	77.4016	3,249.02	77.6437	3,249.02	78.5539	3,249.02	78.5	3,249.02	76.4869	3,249.02	79.4629	3,249.02	65.5598	3,249.02	78.9365	3,249.02	67.9259	3,249.02	69.2076	3,249.02	73.4761	3,249.02	69.5261	3,249.02	67.3722	3,249.02	71.5155	3,249.02	65.2673
3,363.28	87.3942	3,363.28	85.6702	3,363.28	87.765	3,363.28	85.5835	3,363.28	84.693	3,363.28	88.3566	3,363.28	86.1304	3,363.28	86.8082	3,363.28	88.3743	3,363.28	88.1309	3,363.28	86.9901	3,363.28	87.7213	3,363.28	88.0944	3,363.28	85.1902	3,363.28	87.5803	3,363.28	82.8432	3,363.28	86.184	3,363.28	81.3764	3,363.28	82.0414	3,363.28	77.1427	3,363.28	78.4196	3,363.28	77.0442	3,363.28	75.9826	3,363.28	79.4558	3,363.28	78.2269	3,363.28	76.9438	3,363.28	78.2881	3,363.28	74.1438	3,363.28	77.6376	3,363.28	65.0512	3,363.28	66.3143	3,363.28	70.3973	3,363.28	70.1054	3,363.28	67.0639	3,363.28	74.0219	3,363.28	67.5942
3,481.93	87.396	3,481.93	85.0346	3,481.93	87.51	3,481.93	85.6701	3,481.93	84.9826	3,481.93	89.3192	3,481.93	86.5682	3,481.93	86.3054	3,481.93	88.8614	3,481.93	87.4885	3,481.93	86.3658	3,481.93	88.0496	3,481.93	87.7868	3,481.93	85.6713	3,481.93	88.2932	3,481.93	82.5574	3,481.93	86.1909	3,481.93	80.7475	3,481.93	83.0908	3,481.93	76.5881	3,481.93	80.1751	3,481.93	77.2756	3,481.93	76.3717	3,481.93	77.6342	3,481.93	78.0777	3,481.93	78.7345	3,481.93	77.6328	3,481.93	68.7842	3,481.93	77.3231	3,481.93	67.7966	3,481.93	70.0205	3,481.93	70.7413	3,481.93	72.2161	3,481.93	57.0491	3,481.93	70.11	3,481.93	63.1235
3,604.98	87.3767	3,604.98	84.1577	3,604.98	87.4748	3,604.98	85.6569	3,604.98	83.9161	3,604.98	89.2698	3,604.98	86.7401	3,604.98	85.7913	3,604.98	88.8423	3,604.98	86.838	3,604.98	84.1962	3,604.98	88.634	3,604.98	87.023	3,604.98	86.1821	3,604.98	88.467	3,604.98	83.4768	3,604.98	86.0871	3,604.98	79.915	3,604.98	82.6633	3,604.98	77.4034	3,604.98	80.4426	3,604.98	75.1696	3,604.98	76.9675	3,604.98	77.1065	3,604.98	78.1806	3,604.98	76.8401	3,604.98	77.7766	3,604.98	69.6917	3,604.98	77.472	3,604.98	72.7515	3,604.98	68.8665	3,604.98	70.2978	3,604.98	73.8679	3,604.98	65.7658	3,604.98	68.4478	3,604.98	62.7733
3,732.42	87.1001	3,732.42	82.3571	3,732.42	86.7777	3,732.42	85.2147	3,732.42	81.8269	3,732.42	88.6718	3,732.42	86.1901	3,732.42	84.5753	3,732.42	88.5507	3,732.42	85.6263	3,732.42	84.1609	3,732.42	88.0583	3,732.42	86.411	3,732.42	86.8762	3,732.42	88.3332	3,732.42	82.9632	3,732.42	85.6474	3,732.42	78.8971	3,732.42	82.4897	3,732.42	75.7448	3,732.42	79.5718	3,732.42	75.7692	3,732.42	76.2076	3,732.42	77.1414	3,732.42	77.6726	3,732.42	78.0986	3,732.42	77.1057	3,732.42	69.1229	3,732.42	76.142	3,732.42	70.9891	3,732.42	67.6781	3,732.42	70.5642	3,732.42	73.9612	3,732.42	66.5275	3,732.42	62.8661	3,732.42	57.7976
3,863.53	88.3155	3,863.53	84.2404	3,863.53	87.4938	3,863.53	86.2588	3,863.53	83.3781	3,863.53	87.9621	3,863.53	86.6671	3,863.53	84.8281	3,863.53	87.9313	3,863.53	85.5195	3,863.53	84.1767	3,863.53	87.9681	3,863.53	86.5805	3,863.53	87.0984	3,863.53	88.1708	3,863.53	83.7906	3,863.53	86.1856	3,863.53	78.3062	3,863.53	82.2428	3,863.53	77.016	3,863.53	78.1817	3,863.53	74.309	3,863.53	76.737	3,863.53	76.8385	3,863.53	76.6134	3,863.53	76.9897	3,863.53	78.5631	3,863.53	66.2643	3,863.53	75.8244	3,863.53	74.4186	3,863.53	66.0465	3,863.53	63.5569	3,863.53	73.0719	3,863.53	65.7747	3,863.53	55.9061	3,863.53	68.8123
3,999.76	89.566	3,999.76	86.037	3,999.76	89.0282	3,999.76	87.3669	3,999.76	86.7414	3,999.76	87.9132	3,999.76	87.5602	3,999.76	85.2085	3,999.76	88.375	3,999.76	85.4765	3,999.76	84.6271	3,999.76	87.7348	3,999.76	86.1143	3,999.76	87.082	3,999.76	88.3621	3,999.76	83.7121	3,999.76	87.0791	3,999.76	77.884	3,999.76	83.3072	3,999.76	77.2595	3,999.76	78.6472	3,999.76	76.5097	3,999.76	77.6941	3,999.76	78.9076	3,999.76	77.6638	3,999.76	76.1026	3,999.76	78.5583	3,999.76	67.6779	3,999.76	76.8309	3,999.76	75.0024	3,999.76	60.0917	3,999.76	68.4349	3,999.76	73.1513	3,999.76	63.0184	3,999.76	65.5856	3,999.76	70.0629
4,141.11	89.7442	4,141.11	86.9108	4,141.11	89.1824	4,141.11	87.3833	4,141.11	87.2581	4,141.11	88.3428	4,141.11	87.3724	4,141.11	85.1701	4,141.11	88.4952	4,141.11	86.5016	4,141.11	85.352	4,141.11	88.4233	4,141.11	85.2411	4,141.11	87.3858	4,141.11	88.0634	4,141.11	83.3293	4,141.11	85.9599	4,141.11	79.2604	4,141.11	82.7503	4,141.11	77.7169	4,141.11	77.0813	4,141.11	76.9104	4,141.11	75.9336	4,141.11	77.4268	4,141.11	75.9921	4,141.11	74.9013	4,141.11	78.0043	4,141.11	69.728	4,141.11	73.7075	4,141.11	75.9736	4,141.11	59.0144	4,141.11	71.3464	4,141.11	70.9541	4,141.11	68.1421	4,141.11	64.8854	4,141.11	70.0074
4,286.87	90.977	4,286.87	88.3554	4,286.87	90.6127	4,286.87	87.2681	4,286.87	88.3367	4,286.87	89.5693	4,286.87	87.6933	4,286.87	86.444	4,286.87	89.6121	4,286.87	84.2916	4,286.87	86.5237	4,286.87	87.7679	4,286.87	86.1193	4,286.87	85.771	4,286.87	88.6729	4,286.87	80.927	4,286.87	86.4276	4,286.87	77.861	4,286.87	83.0903	4,286.87	78.0111	4,286.87	76.2165	4,286.87	76.3931	4,286.87	75.9223	4,286.87	78.949	4,286.87	75.6484	4,286.87	77.3776	4,286.87	77.1545	4,286.87	58.9855	4,286.87	73.4675	4,286.87	73.125	4,286.87	55.4054	4,286.87	71.4629	4,286.87	71.8168	4,286.87	62.6357	4,286.87	68.4792	4,286.87	66.7786
4,438.48	91.107	4,438.48	88.7899	4,438.48	90.9784	4,438.48	86.8101	4,438.48	88.3029	4,438.48	89.9157	4,438.48	86.7802	4,438.48	88.841	4,438.48	89.6294	4,438.48	84.264	4,438.48	86.9176	4,438.48	87.9342	4,438.48	85.2763	4,438.48	86.5653	4,438.48	88.0436	4,438.48	84.5188	4,438.48	85.14	4,438.48	82.0892	4,438.48	82.6843	4,438.48	72.9053	4,438.48	79.3768	4,438.48	73.3973	4,438.48	73.6485	4,438.48	77.6425	4,438.48	79.1042	4,438.48	77.2844	4,438.48	76.2044	4,438.48	65.5398	4,438.48	74.901	4,438.48	72.0761	4,438.48	58.1565	4,438.48	72.7819	4,438.48	71.1345	4,438.48	41.0278	4,438.48	65.2527	4,438.48	63.6847
4,594.48	91.5112	4,594.48	90.2717	4,594.48	91.7007	4,594.48	88.3115	4,594.48	89.4059	4,594.48	89.5614	4,594.48	88.1931	4,594.48	89.0853	4,594.48	89.6277	4,594.48	80.8732	4,594.48	87.3553	4,594.48	86.8609	4,594.48	82.8915	4,594.48	86.6152	4,594.48	87.1229	4,594.48	84.7868	4,594.48	86.6757	4,594.48	79.8921	4,594.48	83.1583	4,594.48	74.3132	4,594.48	79.1461	4,594.48	77.6661	4,594.48	74.7224	4,594.48	73.9043	4,594.48	76.2326	4,594.48	75.7156	4,594.48	77.9467	4,594.48	69.0522	4,594.48	70.4389	4,594.48	71.9715	4,594.48	64.1812	4,594.48	71.3412	4,594.48	67.9925	4,594.48	58.086	4,594.48	61.551	4,594.48	62.49
4,757.08	90.2023	4,757.08	90.8032	4,757.08	90.2589	4,757.08	88.9765	4,757.08	90.7037	4,757.08	89.3844	4,757.08	89.1198	4,757.08	86.9638	4,757.08	89.6676	4,757.08	83.9642	4,757.08	86.6124	4,757.08	87.8522	4,757.08	81.4483	4,757.08	89.1028	4,757.08	87.4939	4,757.08	85.0886	4,757.08	88.4154	4,757.08	77.228	4,757.08	83.7334	4,757.08	78.1392	4,757.08	77.8038	4,757.08	76.6398	4,757.08	77.6193	4,757.08	76.1814	4,757.08	72.9848	4,757.08	75.0775	4,757.08	79.2903	4,757.08	60.9164	4,757.08	75.0965	4,757.08	72.0183	4,757.08	55.5167	4,757.08	68.7859	4,757.08	70.9993	4,757.08	60.269	4,757.08	60.9794	4,757.08	64.5751
4,924.8	89.9861	4,924.8	90.7594	4,924.8	89.1872	4,924.8	89.807	4,924.8	91.04	4,924.8	89.6626	4,924.8	89.162	4,924.8	86.0389	4,924.8	88.9575	4,924.8	83.7643	4,924.8	87.8663	4,924.8	87.4435	4,924.8	84.3671	4,924.8	88.3094	4,924.8	88.257	4,924.8	82.773	4,924.8	87.5561	4,924.8	77.6349	4,924.8	82.9398	4,924.8	78.5174	4,924.8	79.1691	4,924.8	76.5034	4,924.8	75.6507	4,924.8	75.9304	4,924.8	75.8565	4,924.8	77.7138	4,924.8	78.7181	4,924.8	56.8456	4,924.8	72.3148	4,924.8	68.9509	4,924.8	66.0514	4,924.8	64.5772	4,924.8	69.2106	4,924.8	61.526	4,924.8	62.3428	4,924.8	67.6896
5,098.39	89.9724	5,098.39	89.9159	5,098.39	89.6422	5,098.39	89.974	5,098.39	90.2934	5,098.39	87.0641	5,098.39	89.8323	5,098.39	88.8115	5,098.39	87.9247	5,098.39	83.1312	5,098.39	88.7285	5,098.39	87.4152	5,098.39	85.2493	5,098.39	87.3307	5,098.39	88.299	5,098.39	83.0476	5,098.39	86.79	5,098.39	80.2551	5,098.39	84.1382	5,098.39	76.841	5,098.39	79.7249	5,098.39	75.2971	5,098.39	73.8433	5,098.39	76.5116	5,098.39	73.4673	5,098.39	74.9813	5,098.39	77.5477	5,098.39	65.3182	5,098.39	67.2772	5,098.39	68.1913	5,098.39	69.0236	5,098.39	59.9904	5,098.39	68.14	5,098.39	66.5824	5,098.39	60.7463	5,098.39	63.5896
5,277.83	88.5312	5,277.83	89.3538	5,277.83	88.8525	5,277.83	89.3964	5,277.83	88.8078	5,277.83	86.1871	5,277.83	88.7636	5,277.83	90.1414	5,277.83	87.8921	5,277.83	85.8258	5,277.83	88.5938	5,277.83	86.0537	5,277.83	83.415	5,277.83	87.1816	5,277.83	86.4132	5,277.83	84.2933	5,277.83	87.8497	5,277.83	80.3074	5,277.83	85.6501	5,277.83	71.7138	5,277.83	77.8224	5,277.83	77.6043	5,277.83	74.075	5,277.83	75.6638	5,277.83	75.0027	5,277.83	74.2086	5,277.83	79.8624	5,277.83	56.2176	5,277.83	70.7866	5,277.83	74.4578	5,277.83	66.48	5,277.83	63.7784	5,277.83	69.8323	5,277.83	61.6541	5,277.83	63.5109	5,277.83	61.8711
5,463.87	88.8763	5,463.87	89.5075	5,463.87	88.6146	5,463.87	88.1192	5,463.87	89.0497	5,463.87	88.0787	5,463.87	88.3277	5,463.87	89.3931	5,463.87	88.2301	5,463.87	85.2333	5,463.87	89.5118	5,463.87	84.2823	5,463.87	85.2535	5,463.87	86.7383	5,463.87	85.5448	5,463.87	83.1586	5,463.87	86.6181	5,463.87	78.4043	5,463.87	82.7217	5,463.87	75.1779	5,463.87	77.6129	5,463.87	76.1361	5,463.87	73.0557	5,463.87	75.2024	5,463.87	73.5158	5,463.87	72.5507	5,463.87	79.9619	5,463.87	60.0952	5,463.87	73.1171	5,463.87	72.6066	5,463.87	54.1415	5,463.87	68.0312	5,463.87	73.4279	5,463.87	60.4877	5,463.87	65.3782	5,463.87	58.376
5,656.49	89.58	5,656.49	87.4517	5,656.49	88.5252	5,656.49	88.0527	5,656.49	88.0311	5,656.49	88.9203	5,656.49	87.0892	5,656.49	88.6759	5,656.49	87.1239	5,656.49	84.0244	5,656.49	88.5137	5,656.49	85.4507	5,656.49	83.157	5,656.49	85.7605	5,656.49	83.098	5,656.49	83.3379	5,656.49	84.5891	5,656.49	79.3157	5,656.49	78.0204	5,656.49	74.4444	5,656.49	76.9075	5,656.49	68.0868	5,656.49	71.4056	5,656.49	76.4769	5,656.49	71.1109	5,656.49	71.6078	5,656.49	77.1205	5,656.49	62.1458	5,656.49	70.0551	5,656.49	71.3913	5,656.49	65.3355	5,656.49	63.2455	5,656.49	74.2351	5,656.49	55.2166	5,656.49	55.4055	5,656.49	59.4626
5,856.45	89.6897	5,856.45	86.7236	5,856.45	89.8002	5,856.45	88.196	5,856.45	86.6413	5,856.45	88.5343	5,856.45	88.1513	5,856.45	88.8305	5,856.45	87.7757	5,856.45	84.244	5,856.45	88.1775	5,856.45	84.9536	5,856.45	82.2602	5,856.45	84.1223	5,856.45	83.3542	5,856.45	81.9884	5,856.45	85.0157	5,856.45	75.5891	5,856.45	80.8246	5,856.45	72.8899	5,856.45	77.231	5,856.45	70.462	5,856.45	72.7331	5,856.45	74.8296	5,856.45	72.3639	5,856.45	72.6066	5,856.45	76.3594	5,856.45	46.4395	5,856.45	59.5037	5,856.45	67.3736	5,856.45	67.0108	5,856.45	53.492	5,856.45	66.7767	5,856.45	63.3751	5,856.45	60.1416	5,856.45	60.5845
6,062.99	89.6621	6,062.99	88.8305	6,062.99	90.2773	6,062.99	87.4633	6,062.99	87.8386	6,062.99	87.7175	6,062.99	89.2917	6,062.99	88.7763	6,062.99	87.7651	6,062.99	85.8714	6,062.99	88.3761	6,062.99	81.4988	6,062.99	85.1962	6,062.99	85.3695	6,062.99	83.3361	6,062.99	81.0444	6,062.99	85.166	6,062.99	78.0682	6,062.99	80.8828	6,062.99	73.3961	6,062.99	77.9922	6,062.99	71.5993	6,062.99	71.5783	6,062.99	67.6521	6,062.99	68.5581	6,062.99	66.4485	6,062.99	76.1156	6,062.99	62.1748	6,062.99	65.1498	6,062.99	67.8702	6,062.99	62.7458	6,062.99	63.9542	6,062.99	68.0986	6,062.99	63.6124	6,062.99	59.541	6,062.99	61
6,276.86	90.2826	6,276.86	89.1486	6,276.86	89.6242	6,276.86	89.656	6,276.86	88.9966	6,276.86	88.2643	6,276.86	89.5217	6,276.86	88.8436	6,276.86	87.5049	6,276.86	85.5926	6,276.86	88.9691	6,276.86	83.3531	6,276.86	86.8582	6,276.86	86.0508	6,276.86	81.7146	6,276.86	81.7443	6,276.86	84.6099	6,276.86	80.2645	6,276.86	79.4064	6,276.86	70.1543	6,276.86	77.4401	6,276.86	70.8873	6,276.86	66.9297	6,276.86	74.4279	6,276.86	67.4172	6,276.86	62.9208	6,276.86	73.7583	6,276.86	61.3708	6,276.86	66.6894	6,276.86	65.0738	6,276.86	61.8445	6,276.86	57.8109	6,276.86	64.8621	6,276.86	59.8288	6,276.86	61.4902	6,276.86	57.2572
6,498.05	89.6017	6,498.05	88.425	6,498.05	90.0289	6,498.05	89.9757	6,498.05	88.7168	6,498.05	87.8427	6,498.05	89.3372	6,498.05	88.8952	6,498.05	87.8357	6,498.05	86.6921	6,498.05	88.7255	6,498.05	82.5286	6,498.05	84.9201	6,498.05	84.9729	6,498.05	81.8124	6,498.05	81.7359	6,498.05	84.4914	6,498.05	80.4261	6,498.05	81.5161	6,498.05	66.7197	6,498.05	75.4596	6,498.05	68.8956	6,498.05	67.7671	6,498.05	75.4392	6,498.05	62.9489	6,498.05	68.9392	6,498.05	69.0698	6,498.05	59.8824	6,498.05	66.8547	6,498.05	56.9107	6,498.05	64.4296	6,498.05	65.1699	6,498.05	65.9117	6,498.05	55.7735	6,498.05	58.093	6,498.05	58.9376
6,727.29	89.4457	6,727.29	90.3059	6,727.29	90.1825	6,727.29	88.9158	6,727.29	89.5189	6,727.29	88.5072	6,727.29	89.1138	6,727.29	88.7175	6,727.29	89.0248	6,727.29	88.3534	6,727.29	87.7251	6,727.29	78.913	6,727.29	86.157	6,727.29	85.4952	6,727.29	80.6658	6,727.29	81.1716	6,727.29	84.5241	6,727.29	78.9213	6,727.29	82.1795	6,727.29	65.312	6,727.29	77.9835	6,727.29	72.2497	6,727.29	71.6778	6,727.29	72.6412	6,727.29	67.4623	6,727.29	68.2171	6,727.29	73.3068	6,727.29	64.9486	6,727.29	69.4053	6,727.29	61.9706	6,727.29	59.8175	6,727.29	58.8855	6,727.29	62.0349	6,727.29	62.2391	6,727.29	59.9358	6,727.29	61.7512
6,964.6	88.4835	6,964.6	90.1656	6,964.6	88.3698	6,964.6	88.4101	6,964.6	88.9933	6,964.6	88.4565	6,964.6	88.1439	6,964.6	88.7521	6,964.6	88.2828	6,964.6	87.6877	6,964.6	87.5071	6,964.6	79.9828	6,964.6	86.6612	6,964.6	85.189	6,964.6	82.946	6,964.6	80.3	6,964.6	86.0026	6,964.6	77.3774	6,964.6	80.0535	6,964.6	68.127	6,964.6	77.177	6,964.6	71.9301	6,964.6	71.7667	6,964.6	72.6362	6,964.6	64.9634	6,964.6	68.3791	6,964.6	71.7771	6,964.6	53.087	6,964.6	70.9739	6,964.6	63.7203	6,964.6	43.6896	6,964.6	59.7392	6,964.6	57.5286	6,964.6	55.867	6,964.6	62.2756	6,964.6	63.1507
7,209.96	87.8006	7,209.96	88.7174	7,209.96	88.6199	7,209.96	88.3063	7,209.96	88.7106	7,209.96	88.1733	7,209.96	87.6559	7,209.96	87.7966	7,209.96	86.945	7,209.96	87.3067	7,209.96	86.8391	7,209.96	81.7333	7,209.96	85.8046	7,209.96	83.6673	7,209.96	83.5075	7,209.96	82.1331	7,209.96	84.2172	7,209.96	75.3693	7,209.96	80.8786	7,209.96	70.8428	7,209.96	75.1055	7,209.96	71.8152	7,209.96	71.7011	7,209.96	71.3478	7,209.96	65.4833	7,209.96	67.7426	7,209.96	73.5844	7,209.96	53.1361	7,209.96	71.2258	7,209.96	56.5085	7,209.96	53.5427	7,209.96	60.57	7,209.96	63.9376	7,209.96	51.2413	7,209.96	59.4125	7,209.96	54.8505
7,464.11	88.1296	7,464.11	88.984	7,464.11	88.2278	7,464.11	87.6236	7,464.11	88.2858	7,464.11	86.2138	7,464.11	87.8127	7,464.11	86.547	7,464.11	86.5965	7,464.11	86.3774	7,464.11	86.4299	7,464.11	82.2863	7,464.11	86.226	7,464.11	82.4055	7,464.11	80.7107	7,464.11	82.2014	7,464.11	83.2602	7,464.11	74.0071	7,464.11	79.5379	7,464.11	70.4564	7,464.11	74.7682	7,464.11	72.2768	7,464.11	72.4204	7,464.11	70.2437	7,464.11	65.7811	7,464.11	68.0737	7,464.11	73.555	7,464.11	57.0439	7,464.11	71.2157	7,464.11	58.7842	7,464.11	58.3249	7,464.11	66.7612	7,464.11	64.2882	7,464.11	55.8512	7,464.11	59.4102	7,464.11	60.4099
7,727.78	88.2047	7,727.78	88.5124	7,727.78	87.7942	7,727.78	86.5674	7,727.78	88.5036	7,727.78	85.8159	7,727.78	87.0027	7,727.78	85.3809	7,727.78	85.488	7,727.78	85.384	7,727.78	86.8258	7,727.78	81.892	7,727.78	85.9987	7,727.78	82.0546	7,727.78	81.8544	7,727.78	81.5772	7,727.78	82.473	7,727.78	72.8685	7,727.78	78.7291	7,727.78	71.1183	7,727.78	71.4221	7,727.78	71.3941	7,727.78	72.7118	7,727.78	68.0014	7,727.78	68.3574	7,727.78	67.0706	7,727.78	73.693	7,727.78	59.9738	7,727.78	69.5534	7,727.78	56.8604	7,727.78	52.4439	7,727.78	64.4395	7,727.78	55.7557	7,727.78	54.3315	7,727.78	56.1432	7,727.78	59.9679
8,000.24	88.545	8,000.24	88.3321	8,000.24	89.2141	8,000.24	87.7371	8,000.24	88.533	8,000.24	86.5536	8,000.24	87.2015	8,000.24	85.6206	8,000.24	86.0665	8,000.24	84.9107	8,000.24	86.9141	8,000.24	82.2914	8,000.24	85.257	8,000.24	79.9724	8,000.24	82.3553	8,000.24	80.3917	8,000.24	81.0893	8,000.24	70.8693	8,000.24	78.9393	8,000.24	67.5745	8,000.24	65.0675	8,000.24	68.6522	8,000.24	71.5178	8,000.24	65.093	8,000.24	69.6996	8,000.24	60.6687	8,000.24	72.5492	8,000.24	54.4529	8,000.24	70.5736	8,000.24	63.4774	8,000.24	64.7757	8,000.24	61.4414	8,000.24	64.2145	8,000.24	55.933	8,000.24	60.4053	8,000.24	48.9205
8,282.23	90.4045	8,282.23	90.3737	8,282.23	89.5347	8,282.23	87.8111	8,282.23	89.6755	8,282.23	85.6118	8,282.23	88.4352	8,282.23	86.3878	8,282.23	87.2807	8,282.23	85.0486	8,282.23	87.2888	8,282.23	82.4287	8,282.23	86.2986	8,282.23	78.7307	8,282.23	81.5181	8,282.23	79.7018	8,282.23	81.7633	8,282.23	73.6094	8,282.23	79.1688	8,282.23	66.3819	8,282.23	72.5219	8,282.23	67.4848	8,282.23	73.8093	8,282.23	68.2986	8,282.23	67.3175	8,282.23	56.0705	8,282.23	70.3268	8,282.23	61.0684	8,282.23	65.6425	8,282.23	58.4704	8,282.23	63.5269	8,282.23	55.7518	8,282.23	62.3204	8,282.23	58.7988	8,282.23	56.5744	8,282.23	54.1707
8,574.46	90.1508	8,574.46	90.3633	8,574.46	90.5159	8,574.46	88.2072	8,574.46	90.1834	8,574.46	87.2232	8,574.46	89.027	8,574.46	86.4033	8,574.46	88.0985	8,574.46	84.9126	8,574.46	87.5209	8,574.46	82.3188	8,574.46	86.5278	8,574.46	80.9056	8,574.46	81.8309	8,574.46	80.4918	8,574.46	82.4385	8,574.46	74.2125	8,574.46	80.8887	8,574.46	69.0614	8,574.46	72.2976	8,574.46	65.1954	8,574.46	73.0906	8,574.46	63.1352	8,574.46	64.1972	8,574.46	61.534	8,574.46	66.6285	8,574.46	46.7931	8,574.46	63.351	8,574.46	60.6172	8,574.46	58.2474	8,574.46	61.1482	8,574.46	61.2658	8,574.46	54.1875	8,574.46	55.3225	8,574.46	53.2341
8,876.22	89.9817	8,876.22	89.8896	8,876.22	89.9885	8,876.22	88.5366	8,876.22	89.6739	8,876.22	87.1723	8,876.22	89.0242	8,876.22	86.0396	8,876.22	87.6833	8,876.22	85.5615	8,876.22	87.1667	8,876.22	82.033	8,876.22	85.6069	8,876.22	79.7513	8,876.22	82.7888	8,876.22	80.1113	8,876.22	81.506	8,876.22	72.3509	8,876.22	81.1596	8,876.22	66.1206	8,876.22	73.9536	8,876.22	63.7813	8,876.22	72.0224	8,876.22	63.0765	8,876.22	66.0558	8,876.22	58.974	8,876.22	66.8412	8,876.22	52.644	8,876.22	60.7228	8,876.22	57.8574	8,876.22	55.2344	8,876.22	59.4573	8,876.22	60.5062	8,876.22	53.9361	8,876.22	57.181	8,876.22	48.2773
9,189.7	89.3823	9,189.7	89.1661	9,189.7	89.5119	9,189.7	88.2179	9,189.7	88.8399	9,189.7	87.1266	9,189.7	88.6656	9,189.7	85.7054	9,189.7	86.6605	9,189.7	85.0712	9,189.7	85.69	9,189.7	81.3846	9,189.7	84.6778	9,189.7	80.5551	9,189.7	81.8849	9,189.7	78.3697	9,189.7	80.3092	9,189.7	73.5501	9,189.7	80.709	9,189.7	64.3278	9,189.7	74.1026	9,189.7	65.7154	9,189.7	72.0535	9,189.7	60.9684	9,189.7	61.4607	9,189.7	61.2685	9,189.7	64.4989	9,189.7	49.686	9,189.7	58.8774	9,189.7	60.6988	9,189.7	56.0896	9,189.7	54.1506	9,189.7	60.5342	9,189.7	58.284	9,189.7	58.3849	9,189.7	51.9481
9,513.43	88.9462	9,513.43	88.314	9,513.43	88.6639	9,513.43	88.4552	9,513.43	88.0482	9,513.43	86.9275	9,513.43	87.7618	9,513.43	84.7996	9,513.43	86.4807	9,513.43	86.007	9,513.43	84.7174	9,513.43	80.6247	9,513.43	83.9694	9,513.43	80.1911	9,513.43	81.6151	9,513.43	78.3125	9,513.43	79.982	9,513.43	70.5926	9,513.43	80.105	9,513.43	64.8231	9,513.43	73.9061	9,513.43	62.6926	9,513.43	71.3462	9,513.43	59.3635	9,513.43	65.1931	9,513.43	61.1188	9,513.43	61.324	9,513.43	54.3206	9,513.43	52.5388	9,513.43	57.7573	9,513.43	55.7949	9,513.43	55.9722	9,513.43	47.656	9,513.43	51.6889	9,513.43	56.1245	9,513.43	47.5262
9,848.88	89.2555	9,848.88	88.3938	9,848.88	89.1283	9,848.88	88.6409	9,848.88	88.2065	9,848.88	87.2188	9,848.88	88.3868	9,848.88	86.0001	9,848.88	85.5623	9,848.88	85.4261	9,848.88	84.5318	9,848.88	82.0823	9,848.88	83.6249	9,848.88	79.7868	9,848.88	82.468	9,848.88	78.4072	9,848.88	78.4427	9,848.88	71.5391	9,848.88	79.0656	9,848.88	66.2188	9,848.88	71.8336	9,848.88	58.3676	9,848.88	69.7679	9,848.88	62.4484	9,848.88	63.4675	9,848.88	59.1303	9,848.88	59.7253	9,848.88	56.8428	9,848.88	56.0263	9,848.88	43.6036	9,848.88	56.923	9,848.88	54.461	9,848.88	51.8005	9,848.88	46.9201	9,848.88	39.2989	9,848.88	47.6895
10,196.8	89.4995	10,196.8	88.4972	10,196.8	89.2373	10,196.8	88.7192	10,196.8	88.8683	10,196.8	86.9389	10,196.8	87.9805	10,196.8	85.5663	10,196.8	86.561	10,196.8	85.084	10,196.8	85.0333	10,196.8	81.8214	10,196.8	84.8956	10,196.8	78.4422	10,196.8	82.3286	10,196.8	78.4354	10,196.8	77.3175	10,196.8	71.2125	10,196.8	77.7561	10,196.8	66.7993	10,196.8	71.0631	10,196.8	57.725	10,196.8	67.0736	10,196.8	62.2756	10,196.8	60.6249	10,196.8	55.1158	10,196.8	54.3413	10,196.8	56.8218	10,196.8	56.8455	10,196.8	58.4247	10,196.8	54.755	10,196.8	54.0467	10,196.8	52.7493	10,196.8	54.3547	10,196.8	55.2839	10,196.8	50.6083
10,556.4	89.5262	10,556.4	88.9726	10,556.4	89.5461	10,556.4	88.5971	10,556.4	89.1445	10,556.4	86.6677	10,556.4	88.5362	10,556.4	83.9457	10,556.4	86.4632	10,556.4	83.1871	10,556.4	85.0018	10,556.4	80.0977	10,556.4	84.5804	10,556.4	75.0403	10,556.4	81.3476	10,556.4	75.4278	10,556.4	75.752	10,556.4	66.3648	10,556.4	76.0426	10,556.4	66.5821	10,556.4	71.1193	10,556.4	44.163	10,556.4	64.8913	10,556.4	59.8323	10,556.4	57.0408	10,556.4	59.9815	10,556.4	54.2789	10,556.4	58.2156	10,556.4	55.6618	10,556.4	50.5766	10,556.4	57.7898	10,556.4	53.8436	10,556.4	56.7861	10,556.4	47.2787	10,556.4	50.7567	10,556.4	41.9241
10,928.5	89.3802	10,928.5	88.655	10,928.5	89.4251	10,928.5	88.2578	10,928.5	88.9675	10,928.5	85.8723	10,928.5	88.2926	10,928.5	83.8554	10,928.5	86.2205	10,928.5	82.1926	10,928.5	85.1088	10,928.5	78.786	10,928.5	83.7631	10,928.5	72.7114	10,928.5	79.3567	10,928.5	73.6819	10,928.5	76.0217	10,928.5	66.4553	10,928.5	73.9984	10,928.5	64.6772	10,928.5	71.2017	10,928.5	53.8127	10,928.5	63.835	10,928.5	58.6943	10,928.5	57.2818	10,928.5	61.6315	10,928.5	57.6646	10,928.5	55.3199	10,928.5	53.032	10,928.5	52.1555	10,928.5	53.9682	10,928.5	52.3869	10,928.5	57.7076	10,928.5	55.7042	10,928.5	56.2208	10,928.5	43.1166
11,313.7	89.0734	11,313.7	88.484	11,313.7	89.1154	11,313.7	87.2037	11,313.7	88.6961	11,313.7	85.4092	11,313.7	87.6148	11,313.7	82.912	11,313.7	86.1213	11,313.7	80.6385	11,313.7	84.3755	11,313.7	78.5116	11,313.7	83.1278	11,313.7	70.9248	11,313.7	79.2353	11,313.7	71.156	11,313.7	75.329	11,313.7	65.2876	11,313.7	73.3036	11,313.7	62.7802	11,313.7	70.2915	11,313.7	58.8846	11,313.7	63.1512	11,313.7	52.6588	11,313.7	56.1299	11,313.7	61.8356	11,313.7	54.0149	11,313.7	56.81	11,313.7	53.4641	11,313.7	58.6167	11,313.7	58.2008	11,313.7	48.5254	11,313.7	57.9731	11,313.7	54.8331	11,313.7	54.4044	11,313.7	34.1987
11,712.9	88.6255	11,712.9	87.9741	11,712.9	88.5291	11,712.9	86.4714	11,712.9	87.9127	11,712.9	85.8836	11,712.9	86.8564	11,712.9	82.9729	11,712.9	86.0205	11,712.9	80.9225	11,712.9	83.6988	11,712.9	77.8312	11,712.9	82.2158	11,712.9	70.5406	11,712.9	78.9635	11,712.9	71.383	11,712.9	75.8244	11,712.9	63.9632	11,712.9	72.5084	11,712.9	63.3578	11,712.9	70.4933	11,712.9	56.119	11,712.9	63.1422	11,712.9	56.1767	11,712.9	56.4706	11,712.9	57.3211	11,712.9	37.8828	11,712.9	47.4407	11,712.9	49.4771	11,712.9	38.1184	11,712.9	52.5212	11,712.9	49.1842	11,712.9	48.3207	11,712.9	45.8358	11,712.9	53.1639	11,712.9	39.8163
12,126	88.9411	12,126	88.3358	12,126	89.0917	12,126	86.2197	12,126	88.1059	12,126	85.819	12,126	87.0933	12,126	82.7855	12,126	86.0347	12,126	80.8561	12,126	83.3882	12,126	78.2152	12,126	81.2142	12,126	72.5578	12,126	79.5172	12,126	70.7156	12,126	74.7505	12,126	64.6007	12,126	71.3984	12,126	63.3554	12,126	69.4405	12,126	50.6502	12,126	60.2275	12,126	49.0196	12,126	49.6753	12,126	57.6204	12,126	54.3668	12,126	50.0572	12,126	39.8661	12,126	53.1812	12,126	54.7015	12,126	48.6609	12,126	54.2883	12,126	52.2371	12,126	51.5442	12,126	46.3401
12,553.7	89.7341	12,553.7	89.0228	12,553.7	89.5263	12,553.7	87.3322	12,553.7	88.7454	12,553.7	86.0074	12,553.7	87.6577	12,553.7	83.4376	12,553.7	85.9275	12,553.7	80.7471	12,553.7	83.4453	12,553.7	76.3253	12,553.7	80.8237	12,553.7	70.8928	12,553.7	79.0963	12,553.7	68.2494	12,553.7	73.5509	12,553.7	60.9323	12,553.7	69.5191	12,553.7	61.3533	12,553.7	66.9299	12,553.7	47.9169	12,553.7	56.1711	12,553.7	47.6774	12,553.7	51.6505	12,553.7	55.072	12,553.7	53.7884	12,553.7	48.6901	12,553.7	43.865	12,553.7	44.0962	12,553.7	46.4805	12,553.7	44.0851	12,553.7	53.7072	12,553.7	37.5525	12,553.7	40.3776	12,553.7	31.4408
12,996.1	89.8591	12,996.1	88.9468	12,996.1	89.9104	12,996.1	87.4148	12,996.1	88.8711	12,996.1	85.3314	12,996.1	87.5104	12,996.1	82.3181	12,996.1	85.2377	12,996.1	79.9146	12,996.1	82.6914	12,996.1	74.7018	12,996.1	80.0804	12,996.1	69.1193	12,996.1	77.3974	12,996.1	64.9314	12,996.1	71.2401	12,996.1	61.2955	12,996.1	65.8799	12,996.1	58.3616	12,996.1	63.3773	12,996.1	28.3999	12,996.1	53.0962	12,996.1	39.0534	12,996.1	53.6726	12,996.1	48.376	12,996.1	55.6459	12,996.1	50.6278	12,996.1	50.8802	12,996.1	49.5965	12,996.1	50.4211	12,996.1	47.2457	12,996.1	47.3368	12,996.1	47.8665	12,996.1	44.8552	12,996.1	43.7263
13,454.6	89.4259	13,454.6	88.5885	13,454.6	89.319	13,454.6	86.9124	13,454.6	88.2023	13,454.6	84.4103	13,454.6	86.5837	13,454.6	81.1997	13,454.6	84.0829	13,454.6	77.9451	13,454.6	80.9592	13,454.6	72.0765	13,454.6	78.3821	13,454.6	67.1081	13,454.6	74.2515	13,454.6	61.9	13,454.6	68.6145	13,454.6	57.1258	13,454.6	62.2797	13,454.6	53.9407	13,454.6	61.6242	13,454.6	42.6114	13,454.6	52.4693	13,454.6	44.0606	13,454.6	53.618	13,454.6	44.5628	13,454.6	54.7903	13,454.6	47.0323	13,454.6	48.6628	13,454.6	46.6116	13,454.6	46.8185	13,454.6	40.6172	13,454.6	42.0923	13,454.6	38.8792	13,454.6	40.9517	13,454.6	36.4797
13,928.5	89.079	13,928.5	88.1161	13,928.5	88.8224	13,928.5	86.267	13,928.5	87.6895	13,928.5	83.3627	13,928.5	85.7293	13,928.5	79.9252	13,928.5	82.9701	13,928.5	75.8047	13,928.5	79.5617	13,928.5	69.5752	13,928.5	75.982	13,928.5	62.8533	13,928.5	70.5647	13,928.5	58.8677	13,928.5	65.6039	13,928.5	49.945	13,928.5	58.6698	13,928.5	51.4687	13,928.5	57.8027	13,928.5	38.1066	13,928.5	47.4353	13,928.5	41.3302	13,928.5	50.9306	13,928.5	43.5245	13,928.5	53.5621	13,928.5	31.1885	13,928.5	46.5472	13,928.5	36.3136	13,928.5	44.8836	13,928.5	33.2944	13,928.5	43.1629	13,928.5	39.9682	13,928.5	42.4962	13,928.5	36.2125
14,419.9	89.1949	14,419.9	88.1052	14,419.9	89.0623	14,419.9	86.0348	14,419.9	87.8667	14,419.9	82.6726	14,419.9	85.7206	14,419.9	78.5379	14,419.9	82.5458	14,419.9	73.2787	14,419.9	78.7618	14,419.9	62.8641	14,419.9	73.5567	14,419.9	50.227	14,419.9	67.3239	14,419.9	48.7529	14,419.9	61.3061	14,419.9	53.4219	14,419.9	52.9358	14,419.9	45.8001	14,419.9	52.79	14,419.9	39.6361	14,419.9	40.5298	14,419.9	38.2804	14,419.9	48.8784	14,419.9	43.572	14,419.9	49.9021	14,419.9	39.8143	14,419.9	44.2991	14,419.9	27.7723	14,419.9	35.9361	14,419.9	39.8504	14,419.9	42.1883	14,419.9	38.1236	14,419.9	21.5289	14,419.9	34.7439
14,928.2	89.2831	14,928.2	88.3491	14,928.2	89.1736	14,928.2	85.9089	14,928.2	88.1714	14,928.2	82.7384	14,928.2	85.8941	14,928.2	78.1859	14,928.2	83.0585	14,928.2	72.7531	14,928.2	79.5267	14,928.2	67.4913	14,928.2	74.1349	14,928.2	63.7337	14,928.2	70.63	14,928.2	53.5785	14,928.2	64.6849	14,928.2	61.037	14,928.2	54.1979	14,928.2	50.1001	14,928.2	56.5161	14,928.2	44.7965	14,928.2	43.1742	14,928.2	37.9889	14,928.2	47.4024	14,928.2	48.7763	14,928.2	50.0075	14,928.2	35.8867	14,928.2	19.2021	14,928.2	37.2149	14,928.2	42.2444	14,928.2	44.9569	14,928.2	36.8117	14,928.2	46.9933	14,928.2	43.8176	14,928.2	39.3536
15,454.8	88.7131	15,454.8	87.7253	15,454.8	88.5612	15,454.8	85.0998	15,454.8	87.5599	15,454.8	81.8474	15,454.8	84.8869	15,454.8	77.0997	15,454.8	82.0272	15,454.8	71.3381	15,454.8	78.0108	15,454.8	67.985	15,454.8	72.6746	15,454.8	64.9238	15,454.8	68.9034	15,454.8	55.7369	15,454.8	62.7115	15,454.8	60.8764	15,454.8	55.0357	15,454.8	48.9904	15,454.8	55.1171	15,454.8	42.6616	15,454.8	40.4468	15,454.8	44.4304	15,454.8	41.5033	15,454.8	47.1037	15,454.8	38.5954	15,454.8	39.7213	15,454.8	33.1778	15,454.8	47.6594	15,454.8	41.7292	15,454.8	49.8876	15,454.8	43.1229	15,454.8	52.9964	15,454.8	52.8931	15,454.8	29.1154
15,999.8	87.3669	15,999.8	86.26	15,999.8	87.4026	15,999.8	83.4772	15,999.8	86.2412	15,999.8	79.7544	15,999.8	83.3326	15,999.8	74.4118	15,999.8	79.956	15,999.8	68.5469	15,999.8	75.1994	15,999.8	65.4176	15,999.8	70.4728	15,999.8	66.4253	15,999.8	65.366	15,999.8	58.3148	15,999.8	61.5058	15,999.8	60.8412	15,999.8	59.0039	15,999.8	46.9603	15,999.8	54.3071	15,999.8	43.7821	15,999.8	41.6088	15,999.8	41.0064	15,999.8	41.5298	15,999.8	48.9281	15,999.8	45.6766	15,999.8	32.9777	15,999.8	41.3387	15,999.8	45.2869	15,999.8	44.8126	15,999.8	41.0063	15,999.8	40.4754	15,999.8	46.8166	15,999.8	44.6649	15,999.8	32.8222
16,564.5	86.1859	16,564.5	84.7011	16,564.5	86.3221	16,564.5	82.0617	16,564.5	85.0521	16,564.5	77.052	16,564.5	82.3767	16,564.5	72.2512	16,564.5	78.2323	16,564.5	68.8584	16,564.5	74.0801	16,564.5	65.7124	16,564.5	69.7804	16,564.5	68.4794	16,564.5	67.3064	16,564.5	60.5134	16,564.5	65.2153	16,564.5	60.3681	16,564.5	60.3965	16,564.5	42.5202	16,564.5	50.7861	16,564.5	44.2912	16,564.5	38.7666	16,564.5	41.2285	16,564.5	44.7318	16,564.5	48.0137	16,564.5	49.3523	16,564.5	36.1533	16,564.5	44.1406	16,564.5	41.7231	16,564.5	45.2519	16,564.5	44.2023	16,564.5	39.2741	16,564.5	48.2995	16,564.5	41.522	16,564.5	42.4213
17,148.2	88.6736	17,148.2	87.0764	17,148.2	88.8562	17,148.2	84.2044	17,148.2	87.2203	17,148.2	79.2159	17,148.2	84.5203	17,148.2	73.1797	17,148.2	79.7989	17,148.2	68.759	17,148.2	75.0567	17,148.2	59.656	17,148.2	70.2018	17,148.2	65.328	17,148.2	66.687	17,148.2	59.1359	17,148.2	64.223	17,148.2	57.5065	17,148.2	54.1051	17,148.2	35.0641	17,148.2	43.2484	17,148.2	33.7365	17,148.2	37.3972	17,148.2	37.8038	17,148.2	29.983	17,148.2	35.36	17,148.2	41.1096	17,148.2	42.3164	17,148.2	39.8157	17,148.2	36.521	17,148.2	36.9576	17,148.2	30.9976	17,148.2	40.7182	17,148.2	36.7946	17,148.2	33.7723	17,148.2	39.5892
17,753.2	88.1922	17,753.2	86.4549	17,753.2	88.3331	17,753.2	83.004	17,753.2	86.4512	17,753.2	77.5815	17,753.2	83.1214	17,753.2	70.0793	17,753.2	77.7584	17,753.2	63.2327	17,753.2	71.2378	17,753.2	59.1471	17,753.2	66.0274	17,753.2	62.6809	17,753.2	64.329	17,753.2	61.52	17,753.2	59.5389	17,753.2	53.8798	17,753.2	48.9559	17,753.2	44.1473	17,753.2	33.5564	17,753.2	41.0792	17,753.2	38.0785	17,753.2	31.474	17,753.2	33.2617	17,753.2	40.7581	17,753.2	29.5585	17,753.2	33.621	17,753.2	35.461	17,753.2	32.3554	17,753.2	34.5929	17,753.2	24.8542	17,753.2	41.0548	17,753.2	14.1638	17,753.2	40.3339	17,753.2	40.2162
18,379.4	87.0301	18,379.4	85.0234	18,379.4	86.9819	18,379.4	80.9501	18,379.4	85.0553	18,379.4	74.8811	18,379.4	80.7819	18,379.4	65.89	18,379.4	74.5447	18,379.4	54.4442	18,379.4	66.9747	18,379.4	60.7793	18,379.4	64.0655	18,379.4	60.2982	18,379.4	62.079	18,379.4	62.1102	18,379.4	52.0475	18,379.4	52.112	18,379.4	52.9088	18,379.4	41.5266	18,379.4	35.536	18,379.4	42.7478	18,379.4	38.0848	18,379.4	37.9753	18,379.4	34.1697	18,379.4	46.1366	18,379.4	43.5604	18,379.4	27.8787	18,379.4	35.5219	18,379.4	27.6532	18,379.4	39.8038	18,379.4	33.7571	18,379.4	36.9503	18,379.4	38.5612	18,379.4	39.771	18,379.4	35.3598
19,027.6	86.3624	19,027.6	83.7605	19,027.6	86.3518	19,027.6	78.9229	19,027.6	84.1278	19,027.6	70.8049	19,027.6	79.0658	19,027.6	61.6899	19,027.6	70.4653	19,027.6	49.6089	19,027.6	63.3743	19,027.6	60.1191	19,027.6	63.2742	19,027.6	56.8681	19,027.6	60.9877	19,027.6	60.8644	19,027.6	55.283	19,027.6	49.6628	19,027.6	55.0393	19,027.6	38.3258	19,027.6	40.009	19,027.6	39.9964	19,027.6	38.2199	19,027.6	38.5047	19,027.6	32.1407	19,027.6	44.3407	19,027.6	43.8912	19,027.6	27.6902	19,027.6	34.1243	19,027.6	26.6694	19,027.6	38.495	19,027.6	24.6179	19,027.6	39.6035	19,027.6	39.4168	19,027.6	39.3647	19,027.6	37.5742
19,698.5	85.6882	19,698.5	82.7037	19,698.5	85.6297	19,698.5	77.1513	19,698.5	82.9768	19,698.5	64.8209	19,698.5	77.3282	19,698.5	60.1276	19,698.5	65.5592	19,698.5	43.924	19,698.5	63.7118	19,698.5	56.9899	19,698.5	63.1113	19,698.5	56.506	19,698.5	63.1326	19,698.5	59.0922	19,698.5	58.9879	19,698.5	44.2192	19,698.5	56.0203	19,698.5	37.1691	19,698.5	37.3132	19,698.5	39.0724	19,698.5	37.452	19,698.5	35.1871	19,698.5	36.5018	19,698.5	32.1342	19,698.5	43.956	19,698.5	22.0644	19,698.5	35.9877	19,698.5	26.5407	19,698.5	40.4634	19,698.5	35.0323	19,698.5	41.3151	19,698.5	38.5996	19,698.5	37.7551	19,698.5	35.0076
19,999.5	85.1848	19,999.5	82.3794	19,999.5	85.2613	19,999.5	76.3035	19,999.5	81.9373	19,999.5	61.3931	19,999.5	76.585	19,999.5	62.0877	19,999.5	61.6714	19,999.5	40.2404	19,999.5	64.4954	19,999.5	57.276	19,999.5	64.3426	19,999.5	57.5146	19,999.5	63.3205	19,999.5	58.922	19,999.5	57.3298	19,999.5	45.2814	19,999.5	55.8499	19,999.5	35.4026	19,999.5	44.433	19,999.5	40.0949	19,999.5	41.5387	19,999.5	41.8401	19,999.5	41.856	19,999.5	30.4818	19,999.5	35.7745	19,999.5	34.3055	19,999.5	35.1485	19,999.5	24.0494	19,999.5	41.6684	19,999.5	36.2091	19,999.5	35.9112	19,999.5	30.096	19,999.5	44.4274	19,999.5	38.6868
