"SPL Vertical"																																																																							
"On-Axis"		"10°"		"-10°"		"20°"		"-20°"		"30°"		"-30°"		"40°"		"-40°"		"50°"		"-50°"		"60°"		"-60°"		"70°"		"-70°"		"80°"		"-80°"		"90°"		"-90°"		"100°"		"-100°"		"110°"		"-110°"		"120°"		"-120°"		"130°"		"-130°"		"140°"		"-140°"		"150°"		"-150°"		"160°"		"-160°"		"170°"		"-170°"		"180°"	
"Frequency [Hz]"	"Sound Pessure Level [dB]  / [2.83V 1m] "	"Frequency [Hz]"	"Sound Pessure Level [dB]  / [2.83V 1m] "	"Frequency [Hz]"	"Sound Pessure Level [dB]  / [2.83V 1m] "	"Frequency [Hz]"	"Sound Pessure Level [dB]  / [2.83V 1m] "	"Frequency [Hz]"	"Sound Pessure Level [dB]  / [2.83V 1m] "	"Frequency [Hz]"	"Sound Pessure Level [dB]  / [2.83V 1m] "	"Frequency [Hz]"	"Sound Pessure Level [dB]  / [2.83V 1m] "	"Frequency [Hz]"	"Sound Pessure Level [dB]  / [2.83V 1m] "	"Frequency [Hz]"	"Sound Pessure Level [dB]  / [2.83V 1m] "	"Frequency [Hz]"	"Sound Pessure Level [dB]  / [2.83V 1m] "	"Frequency [Hz]"	"Sound Pessure Level [dB]  / [2.83V 1m] "	"Frequency [Hz]"	"Sound Pessure Level [dB]  / [2.83V 1m] "	"Frequency [Hz]"	"Sound Pessure Level [dB]  / [2.83V 1m] "	"Frequency [Hz]"	"Sound Pessure Level [dB]  / [2.83V 1m] "	"Frequency [Hz]"	"Sound Pessure Level [dB]  / [2.83V 1m] "	"Frequency [Hz]"	"Sound Pessure Level [dB]  / [2.83V 1m] "	"Frequency [Hz]"	"Sound Pessure Level [dB]  / [2.83V 1m] "	"Frequency [Hz]"	"Sound Pessure Level [dB]  / [2.83V 1m] "	"Frequency [Hz]"	"Sound Pessure Level [dB]  / [2.83V 1m] "	"Frequency [Hz]"	"Sound Pessure Level [dB]  / [2.83V 1m] "	"Frequency [Hz]"	"Sound Pessure Level [dB]  / [2.83V 1m] "	"Frequency [Hz]"	"Sound Pessure Level [dB]  / [2.83V 1m] "	"Frequency [Hz]"	"Sound Pessure Level [dB]  / [2.83V 1m] "	"Frequency [Hz]"	"Sound Pessure Level [dB]  / [2.83V 1m] "	"Frequency [Hz]"	"Sound Pessure Level [dB]  / [2.83V 1m] "	"Frequency [Hz]"	"Sound Pessure Level [dB]  / [2.83V 1m] "	"Frequency [Hz]"	"Sound Pessure Level [dB]  / [2.83V 1m] "	"Frequency [Hz]"	"Sound Pessure Level [dB]  / [2.83V 1m] "	"Frequency [Hz]"	"Sound Pessure Level [dB]  / [2.83V 1m] "	"Frequency [Hz]"	"Sound Pessure Level [dB]  / [2.83V 1m] "	"Frequency [Hz]"	"Sound Pessure Level [dB]  / [2.83V 1m] "	"Frequency [Hz]"	"Sound Pessure Level [dB]  / [2.83V 1m] "	"Frequency [Hz]"	"Sound Pessure Level [dB]  / [2.83V 1m] "	"Frequency [Hz]"	"Sound Pessure Level [dB]  / [2.83V 1m] "	"Frequency [Hz]"	"Sound Pessure Level [dB]  / [2.83V 1m] "	"Frequency [Hz]"	"Sound Pessure Level [dB]  / [2.83V 1m] "
20.5078	62.9492	20.5078	62.878	20.5078	62.8893	20.5078	62.6724	20.5078	62.696	20.5078	62.3228	20.5078	62.3612	20.5078	61.8127	20.5078	61.8696	20.5078	61.1165	20.5078	61.1973	20.5078	60.1959	20.5078	60.3078	20.5078	58.9932	20.5078	59.1467	20.5078	57.4205	20.5078	57.6312	20.5078	55.3405	20.5078	55.6332	20.5078	52.5563	20.5078	52.9678	20.5078	49.0315	20.5078	49.5569	20.5078	46.8297	20.5078	47.0141	20.5078	49.1225	20.5078	48.829	20.5078	52.2171	20.5078	51.9312	20.5078	54.4567	20.5078	54.2547	20.5078	55.902	20.5078	55.7758	20.5078	56.7029	20.5078	56.6423	20.5078	56.9418
21.2402	60.2607	21.2402	60.139	21.2402	60.1698	21.2402	59.7957	21.2402	59.8605	21.2402	59.205	21.2402	59.3102	21.2402	58.318	21.2402	58.4753	21.2402	57.05	21.2402	57.2794	21.2402	55.2528	21.2402	55.5903	21.2402	52.6638	21.2402	53.1785	21.2402	48.936	21.2402	49.7325	21.2402	45.8368	21.2402	46.3655	21.2402	49.2228	21.2402	48.7757	21.2402	53.5279	21.2402	53.0796	21.2402	56.655	21.2402	56.316	21.2402	58.9239	21.2402	58.6724	21.2402	60.5904	21.2402	60.4061	21.2402	61.7936	21.2402	61.6637	21.2402	62.6088	21.2402	62.5258	21.2402	63.0769	21.2402	63.0363	21.2402	63.2176
21.9727	58.4708	21.9727	58.3178	21.9727	58.3571	21.9727	57.8891	21.9727	57.9706	21.9727	57.1621	21.9727	57.2912	21.9727	56.1099	21.9727	56.2919	21.9727	54.7472	21.9727	54.9754	21.9727	53.3055	21.9727	53.5184	21.9727	52.6157	21.9727	52.6383	21.9727	53.6656	21.9727	53.4097	21.9727	55.9174	21.9727	55.555	21.9727	58.3072	21.9727	57.9647	21.9727	60.4184	21.9727	60.1283	21.9727	62.1844	21.9727	61.9479	21.9727	63.6243	21.9727	63.4363	21.9727	64.7669	21.9727	64.6222	21.9727	65.6341	21.9727	65.5287	21.9727	66.2406	21.9727	66.1718	21.9727	66.595	21.9727	66.5609	21.9727	66.7014
22.7051	60.0699	22.7051	59.9898	22.7051	60.0008	22.7051	59.7689	22.7051	59.7892	22.7051	59.4369	22.7051	59.462	22.7051	59.062	22.7051	59.0817	22.7051	58.7745	22.7051	58.7703	22.7051	58.7687	22.7051	58.7172	22.7051	59.2237	22.7051	59.1117	22.7051	60.164	22.7051	60.0028	22.7051	61.4348	22.7051	61.2512	22.7051	62.8293	22.7051	62.6472	22.7051	64.1933	22.7051	64.0269	22.7051	65.4391	22.7051	65.2949	22.7051	66.5225	22.7051	66.4028	22.7051	67.4221	22.7051	67.3272	22.7051	68.1269	22.7051	68.0565	22.7051	68.6307	22.7051	68.5841	22.7051	68.9298	22.7051	68.9066	22.7051	69.022
23.4375	63.1961	23.4375	63.1583	23.4375	63.1574	23.4375	63.0512	23.4375	63.0478	23.4375	62.8967	23.4375	62.8875	23.4375	62.7366	23.4375	62.7156	23.4375	62.6362	23.4375	62.595	23.4375	62.6805	23.4375	62.6103	23.4375	62.9513	23.4375	62.8472	23.4375	63.4885	23.4375	63.3541	23.4375	64.2646	23.4375	64.1116	23.4375	65.1983	23.4375	65.0412	23.4375	66.1923	23.4375	66.0435	23.4375	67.1632	23.4375	67.0307	23.4375	68.0506	23.4375	67.9385	23.4375	68.8138	23.4375	68.7239	23.4375	69.4264	23.4375	69.3591	23.4375	69.8712	23.4375	69.8266	23.4375	70.1377	23.4375	70.1155	23.4375	70.2198
24.1699	64.7169	24.1699	64.6824	24.1699	64.6912	24.1699	64.5931	24.1699	64.61	24.1699	64.4661	24.1699	64.4891	24.1699	64.3329	24.1699	64.3584	24.1699	64.2418	24.1699	64.2638	24.1699	64.2561	24.1699	64.2666	24.1699	64.4404	24.1699	64.4317	24.1699	64.8368	24.1699	64.8045	24.1699	65.4422	24.1699	65.388	24.1699	66.2071	24.1699	66.1378	24.1699	67.0564	24.1699	66.9808	24.1699	67.9143	24.1699	67.8403	24.1699	68.7187	24.1699	68.652	24.1699	69.4237	24.1699	69.3677	24.1699	69.9973	24.1699	69.9542	24.1699	70.4183	24.1699	70.3891	24.1699	70.673	24.1699	70.6582	24.1699	70.7537
25.6348	66.0778	25.6348	66.06	25.6348	66.0537	25.6348	66.0048	25.6348	65.9916	25.6348	65.9256	25.6348	65.9043	25.6348	65.8466	25.6348	65.815	25.6348	65.8027	25.6348	65.7584	25.6348	65.8384	25.6348	65.7789	25.6348	65.9992	25.6348	65.9231	25.6348	66.3175	25.6348	66.2265	25.6348	66.7985	25.6348	66.6974	25.6348	67.4154	25.6348	67.311	25.6348	68.1174	25.6348	68.0166	25.6348	68.8454	25.6348	68.7537	25.6348	69.5439	25.6348	69.465	25.6348	70.1678	25.6348	70.1036	25.6348	70.6826	25.6348	70.6342	25.6348	71.064	25.6348	71.0316	25.6348	71.2957	25.6348	71.2795	25.6348	71.3685
26.3672	66.4765	26.3672	66.4599	26.3672	66.4578	26.3672	66.4121	26.3672	66.4076	26.3672	66.3456	26.3672	66.338	26.3672	66.2823	26.3672	66.2703	26.3672	66.2542	26.3672	66.2357	26.3672	66.3008	26.3672	66.2733	26.3672	66.4622	26.3672	66.4238	26.3672	66.7675	26.3672	66.7175	26.3672	67.2221	26.3672	67.1623	26.3672	67.8033	26.3672	67.7376	26.3672	68.4663	26.3672	68.3996	26.3672	69.1572	26.3672	69.0939	26.3672	69.8238	26.3672	69.7675	26.3672	70.4222	26.3672	70.3752	26.3672	70.9182	26.3672	70.8821	26.3672	71.2871	26.3672	71.2627	26.3672	71.5123	26.3672	71.5	26.3672	71.5842
27.0996	66.6263	27.0996	66.6119	27.0996	66.6133	27.0996	66.5743	27.0996	66.5765	27.0996	66.5262	27.0996	66.5282	27.0996	66.4894	27.0996	66.4893	27.0996	66.4946	27.0996	66.4896	27.0996	66.5783	27.0996	66.5651	27.0996	66.776	27.0996	66.7518	27.0996	67.1108	27.0996	67.0742	27.0996	67.5837	27.0996	67.5361	27.0996	68.1708	27.0996	68.1155	27.0996	68.8294	27.0996	68.771	27.0996	69.5092	27.0996	69.4524	27.0996	70.1619	27.0996	70.1104	27.0996	70.7463	27.0996	70.7028	27.0996	71.2303	27.0996	71.1965	27.0996	71.5902	27.0996	71.5672	27.0996	71.8099	27.0996	71.7983	27.0996	71.8803
27.832	67.1068	27.832	67.1025	27.832	67.099	27.832	67.0898	27.832	67.0828	27.832	67.0806	27.832	67.0697	27.832	67.0942	27.832	67.0789	27.832	67.157	27.832	67.1363	27.832	67.2984	27.832	67.2711	27.832	67.5446	27.832	67.51	27.832	67.9102	27.832	67.8685	27.832	68.3919	27.832	68.3444	27.832	68.9669	27.832	68.9162	27.832	69.5986	27.832	69.5477	27.832	70.2439	27.832	70.1957	27.832	70.8609	27.832	70.8179	27.832	71.4131	27.832	71.377	27.832	71.8708	27.832	71.8429	27.832	72.2117	27.832	72.1928	27.832	72.4204	27.832	72.4108	27.832	72.4877
29.2969	68.6381	29.2969	68.6384	29.2969	68.6414	29.2969	68.6452	29.2969	68.651	29.2969	68.6671	29.2969	68.6753	29.2969	68.7179	29.2969	68.7274	29.2969	68.8154	29.2969	68.8248	29.2969	68.9786	29.2969	68.9861	29.2969	69.2239	29.2969	69.2274	29.2969	69.5599	29.2969	69.558	29.2969	69.9835	29.2969	69.9757	29.2969	70.479	29.2969	70.4658	29.2969	71.02	29.2969	71.0031	29.2969	71.5743	29.2969	71.5555	29.2969	72.108	29.2969	72.0893	29.2969	72.5897	29.2969	72.5728	29.2969	72.9923	29.2969	72.9786	29.2969	73.2944	29.2969	73.2848	29.2969	73.4808	29.2969	73.4759	29.2969	73.5423
30.0293	69.3547	30.0293	69.357	30.0293	69.3622	30.0293	69.3716	30.0293	69.3817	30.0293	69.4059	30.0293	69.4201	30.0293	69.4711	30.0293	69.4881	30.0293	69.5818	30.0293	69.5999	30.0293	69.753	30.0293	69.7701	30.0293	69.9975	30.0293	70.0113	30.0293	70.3214	30.0293	70.3303	30.0293	70.7216	30.0293	70.7248	30.0293	71.1845	30.0293	71.1824	30.0293	71.6877	30.0293	71.6813	30.0293	72.203	30.0293	72.1938	30.0293	72.7	30.0293	72.6898	30.0293	73.1499	30.0293	73.1401	30.0293	73.5272	30.0293	73.519	30.0293	73.8113	30.0293	73.8054	30.0293	73.9871	30.0293	73.9841	30.0293	74.0457
31.4941	70.6915	31.4941	70.6958	31.4941	70.7011	31.4941	70.7161	31.4941	70.7262	31.4941	70.7574	31.4941	70.7713	31.4941	70.8273	31.4941	70.8436	31.4941	70.9356	31.4941	70.9525	31.4941	71.0925	31.4941	71.1079	31.4941	71.3066	31.4941	71.3184	31.4941	71.5824	31.4941	71.5892	31.4941	71.9181	31.4941	71.9192	31.4941	72.3047	31.4941	72.3004	31.4941	72.7259	31.4941	72.7173	31.4941	73.1601	31.4941	73.1489	31.4941	73.5827	31.4941	73.5705	31.4941	73.9687	31.4941	73.9571	31.4941	74.2951	31.4941	74.2853	31.4941	74.5423	31.4941	74.5353	31.4941	74.6958	31.4941	74.6922	31.4941	74.7468
32.2266	71.1121	32.2266	71.1198	32.2266	71.1193	32.2266	71.144	32.2266	71.1429	32.2266	71.1889	32.2266	71.1867	32.2266	71.2609	32.2266	71.2569	32.2266	71.3683	32.2266	71.3617	32.2266	71.5196	32.2266	71.5095	32.2266	71.7222	32.2266	71.7079	32.2266	71.9801	32.2266	71.9611	32.2266	72.2919	32.2266	72.2686	32.2266	72.65	32.2266	72.6234	32.2266	73.0403	32.2266	73.012	32.2266	73.4435	32.2266	73.4153	32.2266	73.8371	32.2266	73.8108	32.2266	74.1977	32.2266	74.1749	32.2266	74.5033	32.2266	74.4852	32.2266	74.735	32.2266	74.7225	32.2266	74.8787	32.2266	74.8723	32.2266	74.9254
33.6914	71.8022	33.6914	71.8102	33.6914	71.8095	33.6914	71.8346	33.6914	71.8331	33.6914	71.8781	33.6914	71.8761	33.6914	71.9456	33.6914	71.9429	33.6914	72.0429	33.6914	72.0394	33.6914	72.1764	33.6914	72.1719	33.6914	72.3518	33.6914	72.3458	33.6914	72.5723	33.6914	72.5648	33.6914	72.8377	33.6914	72.8285	33.6914	73.1427	33.6914	73.1319	33.6914	73.4766	33.6914	73.4649	33.6914	73.8241	33.6914	73.8121	33.6914	74.1662	33.6914	74.1548	33.6914	74.4823	33.6914	74.4722	33.6914	74.7524	33.6914	74.7443	33.6914	74.9588	33.6914	74.9531	33.6914	75.0878	33.6914	75.0849	33.6914	75.1308
34.4238	71.9845	34.4238	71.9918	34.4238	71.9923	34.4238	72.015	34.4238	72.0162	34.4238	72.0567	34.4238	72.0586	34.4238	72.121	34.4238	72.1237	34.4238	72.2131	34.4238	72.2165	34.4238	72.3386	34.4238	72.3426	34.4238	72.5028	34.4238	72.507	34.4238	72.7087	34.4238	72.7127	34.4238	72.9564	34.4238	72.9597	34.4238	73.2413	34.4238	73.2438	34.4238	73.5541	34.4238	73.5557	34.4238	73.8807	34.4238	73.8816	34.4238	74.2035	34.4238	74.2038	34.4238	74.503	34.4238	74.503	34.4238	74.76	34.4238	74.7598	34.4238	74.9573	34.4238	74.957	34.4238	75.0813	34.4238	75.0811	34.4238	75.1236
35.8887	72.3726	35.8887	72.3778	35.8887	72.3833	35.8887	72.3996	35.8887	72.4106	35.8887	72.44	35.8887	72.4562	35.8887	72.5021	35.8887	72.5231	35.8887	72.5898	35.8887	72.6149	35.8887	72.7075	35.8887	72.7357	35.8887	72.8589	35.8887	72.889	35.8887	73.0465	35.8887	73.077	35.8887	73.2702	35.8887	73.2998	35.8887	73.5261	35.8887	73.5538	35.8887	73.8067	35.8887	73.8315	35.8887	74.0999	35.8887	74.1212	35.8887	74.3905	35.8887	74.4081	35.8887	74.6613	35.8887	74.6751	35.8887	74.8946	35.8887	74.9048	35.8887	75.0746	35.8887	75.0813	35.8887	75.1887	35.8887	75.192	35.8887	75.2287
37.3535	72.832	37.3535	72.838	37.3535	72.8425	37.3535	72.8611	37.3535	72.87	37.3535	72.9025	37.3535	72.9158	37.3535	72.9647	37.3535	72.982	37.3535	73.0503	37.3535	73.0711	37.3535	73.1624	37.3535	73.186	37.3535	73.3037	37.3535	73.3292	37.3535	73.476	37.3535	73.5022	37.3535	73.6788	37.3535	73.7047	37.3535	73.9092	37.3535	73.9337	37.3535	74.1605	37.3535	74.1829	37.3535	74.4229	37.3535	74.4425	37.3535	74.6831	37.3535	74.6996	37.3535	74.9261	37.3535	74.9392	37.3535	75.136	37.3535	75.1457	37.3535	75.2983	37.3535	75.3048	37.3535	75.4014	37.3535	75.4046	37.3535	75.4377
38.8184	73.4079	38.8184	73.4119	38.8184	73.4206	38.8184	73.4329	38.8184	73.4501	38.8184	73.4718	38.8184	73.4973	38.8184	73.5303	38.8184	73.5635	38.8184	73.6103	38.8184	73.6503	38.8184	73.714	38.8184	73.7596	38.8184	73.8432	38.8184	73.8928	38.8184	73.9991	38.8184	74.0509	38.8184	74.1813	38.8184	74.2333	38.8184	74.3872	38.8184	74.4374	38.8184	74.6114	38.8184	74.6581	38.8184	74.8454	38.8184	74.8872	38.8184	75.0781	38.8184	75.1137	38.8184	75.296	38.8184	75.3249	38.8184	75.4851	38.8184	75.5069	38.8184	75.6323	38.8184	75.6469	38.8184	75.7268	38.8184	75.7341	38.8184	75.7615
39.5508	73.6905	39.5508	73.6943	39.5508	73.7033	39.5508	73.7149	39.5508	73.733	39.5508	73.7534	39.5508	73.7799	39.5508	73.8108	39.5508	73.8452	39.5508	73.8888	39.5508	73.9302	39.5508	73.9892	39.5508	74.0363	39.5508	74.1135	39.5508	74.1646	39.5508	74.2625	39.5508	74.3158	39.5508	74.4358	39.5508	74.4893	39.5508	74.6309	39.5508	74.6828	39.5508	74.8429	39.5508	74.8914	39.5508	75.064	39.5508	75.1076	39.5508	75.284	39.5508	75.3215	39.5508	75.4902	39.5508	75.5209	39.5508	75.6695	39.5508	75.6928	39.5508	75.8093	39.5508	75.825	39.5508	75.8994	39.5508	75.9072	39.5508	75.9328
41.0156	74.6335	41.0156	74.6368	41.0156	74.6466	41.0156	74.6567	41.0156	74.6761	41.0156	74.6938	41.0156	74.7222	41.0156	74.7488	41.0156	74.7852	41.0156	74.8224	41.0156	74.8658	41.0156	74.9158	41.0156	74.9646	41.0156	75.0295	41.0156	75.082	41.0156	75.164	41.0156	75.2182	41.0156	75.3185	41.0156	75.3724	41.0156	75.4909	41.0156	75.5425	41.0156	75.677	41.0156	75.7247	41.0156	75.8706	41.0156	75.9129	41.0156	76.0628	41.0156	76.0987	41.0156	76.2431	41.0156	76.2719	41.0156	76.4	41.0156	76.4215	41.0156	76.5225	41.0156	76.5367	41.0156	76.6014	41.0156	76.6085	41.0156	76.6308
42.4805	75.1917	42.4805	75.1976	42.4805	75.2001	42.4805	75.2179	42.4805	75.2231	42.4805	75.2528	42.4805	75.2607	42.4805	75.3027	42.4805	75.3133	42.4805	75.368	42.4805	75.3813	42.4805	75.4494	42.4805	75.4651	42.4805	75.5474	42.4805	75.5649	42.4805	75.6622	42.4805	75.681	42.4805	75.7935	42.4805	75.8126	42.4805	75.9397	42.4805	75.9581	42.4805	76.0976	42.4805	76.1145	42.4805	76.262	42.4805	76.2767	42.4805	76.4256	42.4805	76.4377	42.4805	76.5795	42.4805	76.5887	42.4805	76.7136	42.4805	76.7201	42.4805	76.8181	42.4805	76.8222	42.4805	76.8848	42.4805	76.8868	42.4805	76.9083
43.9453	75.7804	43.9453	75.7851	43.9453	75.7903	43.9453	75.8044	43.9453	75.8146	43.9453	75.8382	43.9453	75.8533	43.9453	75.8866	43.9453	75.9064	43.9453	75.9497	43.9453	75.9738	43.9453	76.0276	43.9453	76.0553	43.9453	76.1205	43.9453	76.1507	43.9453	76.2282	43.9453	76.2597	43.9453	76.3499	43.9453	76.3815	43.9453	76.4842	43.9453	76.5144	43.9453	76.6281	43.9453	76.6558	43.9453	76.7771	43.9453	76.8013	43.9453	76.9249	43.9453	76.945	43.9453	77.0636	43.9453	77.0793	43.9453	77.1846	43.9453	77.196	43.9453	77.279	43.9453	77.2864	43.9453	77.3397	43.9453	77.3432	43.9453	77.3616
45.4102	76.328	45.4102	76.3329	45.4102	76.3372	45.4102	76.3518	45.4102	76.3604	45.4102	76.3846	45.4102	76.3973	45.4102	76.431	45.4102	76.4477	45.4102	76.4909	45.4102	76.5111	45.4102	76.564	45.4102	76.5871	45.4102	76.65	45.4102	76.6751	45.4102	76.7486	45.4102	76.7747	45.4102	76.8588	45.4102	76.8847	45.4102	76.9793	45.4102	77.0038	45.4102	77.1075	45.4102	77.1296	45.4102	77.2395	45.4102	77.2584	45.4102	77.37	45.4102	77.3853	45.4102	77.4923	45.4102	77.5039	45.4102	77.5988	45.4102	77.6069	45.4102	77.6818	45.4102	77.6869	45.4102	77.735	45.4102	77.7374	45.4102	77.754
47.6074	77.0954	47.6074	77.099	47.6074	77.1052	47.6074	77.1159	47.6074	77.1283	47.6074	77.1458	47.6074	77.1642	47.6074	77.1882	47.6074	77.2124	47.6074	77.2423	47.6074	77.2721	47.6074	77.3076	47.6074	77.3422	47.6074	77.3833	47.6074	77.4218	47.6074	77.4686	47.6074	77.5099	47.6074	77.5626	47.6074	77.6053	47.6074	77.664	47.6074	77.7066	47.6074	77.7709	47.6074	77.8116	47.6074	77.8802	47.6074	77.9175	47.6074	77.988	47.6074	78.0207	47.6074	78.0891	47.6074	78.1161	47.6074	78.1775	47.6074	78.1982	47.6074	78.2472	47.6074	78.2612	47.6074	78.2929	47.6074	78.2999	47.6074	78.3109
49.0723	77.5681	49.0723	77.5692	49.0723	77.58	49.0723	77.5833	49.0723	77.6046	49.0723	77.6098	49.0723	77.6415	49.0723	77.6482	49.0723	77.6897	49.0723	77.6977	49.0723	77.7483	49.0723	77.7574	49.0723	77.8159	49.0723	77.8264	49.0723	77.8913	49.0723	77.9038	49.0723	77.9734	49.0723	77.9886	49.0723	78.0605	49.0723	78.0795	49.0723	78.1514	49.0723	78.1748	49.0723	78.2442	49.0723	78.2721	49.0723	78.3364	49.0723	78.3679	49.0723	78.4249	49.0723	78.458	49.0723	78.5058	49.0723	78.5374	49.0723	78.5744	49.0723	78.6008	49.0723	78.626	49.0723	78.6435	49.0723	78.6563	49.0723	78.6625
50.5371	78.0354	50.5371	78.0348	50.5371	78.0486	50.5371	78.0465	50.5371	78.0739	50.5371	78.0701	50.5371	78.1106	50.5371	78.1051	50.5371	78.1579	50.5371	78.1503	50.5371	78.2143	50.5371	78.205	50.5371	78.2786	50.5371	78.2679	50.5371	78.3492	50.5371	78.338	50.5371	78.4246	50.5371	78.4143	50.5371	78.5034	50.5371	78.4955	50.5371	78.5841	50.5371	78.58	50.5371	78.6651	50.5371	78.6658	50.5371	78.7444	50.5371	78.7501	50.5371	78.8195	50.5371	78.8294	50.5371	78.8874	50.5371	78.8993	50.5371	78.9442	50.5371	78.9556	50.5371	78.9861	50.5371	78.9943	50.5371	79.0098	50.5371	79.0128
52.7344	78.7296	52.7344	78.732	52.7344	78.7389	52.7344	78.7459	52.7344	78.7595	52.7344	78.7706	52.7344	78.791	52.7344	78.8053	52.7344	78.8322	52.7344	78.8487	52.7344	78.8817	52.7344	78.8996	52.7344	78.938	52.7344	78.9566	52.7344	78.9994	52.7344	79.0183	52.7344	79.0644	52.7344	79.0837	52.7344	79.1313	52.7344	79.1513	52.7344	79.1988	52.7344	79.2199	52.7344	79.2655	52.7344	79.288	52.7344	79.3299	52.7344	79.3535	52.7344	79.3904	52.7344	79.4141	52.7344	79.4446	52.7344	79.4667	52.7344	79.4902	52.7344	79.5084	52.7344	79.5242	52.7344	79.5363	52.7344	79.5443	52.7344	79.5485
54.1992	79.166	54.1992	79.1705	54.1992	79.1724	54.1992	79.1859	54.1992	79.1897	54.1992	79.2113	54.1992	79.2172	54.1992	79.2457	54.1992	79.2538	54.1992	79.2878	54.1992	79.2982	54.1992	79.3361	54.1992	79.3486	54.1992	79.389	54.1992	79.4034	54.1992	79.4452	54.1992	79.461	54.1992	79.5032	54.1992	79.5197	54.1992	79.5617	54.1992	79.5783	54.1992	79.6197	54.1992	79.6355	54.1992	79.6759	54.1992	79.6902	54.1992	79.7289	54.1992	79.7411	54.1992	79.7769	54.1992	79.7867	54.1992	79.8179	54.1992	79.8252	54.1992	79.8496	54.1992	79.8543	54.1992	79.87	54.1992	79.8724	54.1992	79.8778
56.3965	79.7645	56.3965	79.7675	56.3965	79.7721	56.3965	79.7806	56.3965	79.7899	56.3965	79.8033	56.3965	79.8173	56.3965	79.8342	56.3965	79.853	56.3965	79.8721	56.3965	79.8956	56.3965	79.9154	56.3965	79.9433	56.3965	79.9622	56.3965	79.9942	56.3965	80.0112	56.3965	80.0463	56.3965	80.0608	56.3965	80.0981	56.3965	80.1099	56.3965	80.1481	56.3965	80.1574	56.3965	80.1951	56.3965	80.2025	56.3965	80.2381	56.3965	80.2444	56.3965	80.2765	56.3965	80.2821	56.3965	80.3094	56.3965	80.3143	56.3965	80.3358	56.3965	80.3399	56.3965	80.3546	56.3965	80.3574	56.3965	80.3649	56.3965	80.3659
58.5938	80.3589	58.5938	80.364	58.5938	80.3634	58.5938	80.3783	58.5938	80.3774	58.5938	80.401	58.5938	80.4001	58.5938	80.4308	58.5938	80.4305	58.5938	80.4663	58.5938	80.4671	58.5938	80.5056	58.5938	80.5079	58.5938	80.5471	58.5938	80.5512	58.5938	80.5889	58.5938	80.595	58.5938	80.6297	58.5938	80.6375	58.5938	80.6683	58.5938	80.6773	58.5938	80.7037	58.5938	80.7135	58.5938	80.7355	58.5938	80.7454	58.5938	80.7634	58.5938	80.7727	58.5938	80.7871	58.5938	80.7952	58.5938	80.8065	58.5938	80.813	58.5938	80.8212	58.5938	80.8256	58.5938	80.8307	58.5938	80.8329	58.5938	80.8346
60.0586	80.8271	60.0586	80.83	60.0586	80.8329	60.0586	80.8413	60.0586	80.8471	60.0586	80.8603	60.0586	80.869	60.0586	80.8857	60.0586	80.8975	60.0586	80.916	60.0586	80.9309	60.0586	80.9497	60.0586	80.9675	60.0586	80.9848	60.0586	81.0052	60.0586	81.0198	60.0586	81.0424	60.0586	81.053	60.0586	81.0771	60.0586	81.0835	60.0586	81.1082	60.0586	81.1104	60.0586	81.1349	60.0586	81.1335	60.0586	81.1567	60.0586	81.1528	60.0586	81.1739	60.0586	81.1687	60.0586	81.1866	60.0586	81.1814	60.0586	81.1955	60.0586	81.1912	60.0586	81.2009	60.0586	81.1981	60.0586	81.203	60.0586	81.202
62.2559	81.4657	62.2559	81.4655	62.2559	81.4737	62.2559	81.4729	62.2559	81.4892	62.2559	81.4872	62.2559	81.5114	62.2559	81.5073	62.2559	81.5391	62.2559	81.5317	62.2559	81.5707	62.2559	81.5588	62.2559	81.6044	62.2559	81.5868	62.2559	81.638	62.2559	81.6141	62.2559	81.6696	62.2559	81.6392	62.2559	81.6976	62.2559	81.661	62.2559	81.7207	62.2559	81.6791	62.2559	81.738	62.2559	81.6935	62.2559	81.7495	62.2559	81.7045	62.2559	81.7555	62.2559	81.7131	62.2559	81.7569	62.2559	81.7202	62.2559	81.7549	62.2559	81.7266	62.2559	81.7507	62.2559	81.7327	62.2559	81.7451	62.2559	81.739
64.4531	82.065	64.4531	82.0637	64.4531	82.0734	64.4531	82.0691	64.4531	82.0885	64.4531	82.0806	64.4531	82.1096	64.4531	82.097	64.4531	82.1355	64.4531	82.1168	64.4531	82.1646	64.4531	82.1386	64.4531	82.1949	64.4531	82.1604	64.4531	82.2245	64.4531	82.1807	64.4531	82.2513	64.4531	82.1981	64.4531	82.2735	64.4531	82.2117	64.4531	82.2898	64.4531	82.2212	64.4531	82.2994	64.4531	82.2268	64.4531	82.3023	64.4531	82.2295	64.4531	82.2992	64.4531	82.2307	64.4531	82.2912	64.4531	82.2318	64.4531	82.2803	64.4531	82.2342	64.4531	82.2681	64.4531	82.2389	64.4531	82.2563	64.4531	82.2463
66.6504	82.617	66.6504	82.6145	66.6504	82.6253	66.6504	82.6176	66.6504	82.6393	66.6504	82.6256	66.6504	82.6582	66.6504	82.6374	66.6504	82.681	66.6504	82.6515	66.6504	82.706	66.6504	82.6663	66.6504	82.7314	66.6504	82.6803	66.6504	82.7551	66.6504	82.6919	66.6504	82.7752	66.6504	82.7	66.6504	82.7899	66.6504	82.7037	66.6504	82.7977	66.6504	82.703	66.6504	82.798	66.6504	82.6987	66.6504	82.791	66.6504	82.6919	66.6504	82.7776	66.6504	82.6847	66.6504	82.7596	66.6504	82.679	66.6504	82.7392	66.6504	82.6767	66.6504	82.7189	66.6504	82.6794	66.6504	82.7011	66.6504	82.6876
69.5801	83.3533	69.5801	83.347	69.5801	83.3653	69.5801	83.3462	69.5801	83.3826	69.5801	83.3503	69.5801	83.4045	69.5801	83.3583	69.5801	83.4296	69.5801	83.3692	69.5801	83.4565	69.5801	83.3812	69.5801	83.4831	69.5801	83.3931	69.5801	83.5075	69.5801	83.4031	69.5801	83.5274	69.5801	83.4101	69.5801	83.5411	69.5801	83.4132	69.5801	83.5471	69.5801	83.4124	69.5801	83.5447	69.5801	83.408	69.5801	83.5341	69.5801	83.4015	69.5801	83.5165	69.5801	83.3947	69.5801	83.4937	69.5801	83.3897	69.5801	83.4683	69.5801	83.3887	69.5801	83.4433	69.5801	83.3932	69.5801	83.4212	69.5801	83.4041
71.7773	83.8828	71.7773	83.8816	71.7773	83.8887	71.7773	83.8848	71.7773	83.8991	71.7773	83.8917	71.7773	83.9135	71.7773	83.9014	71.7773	83.9308	71.7773	83.9127	71.7773	83.9498	71.7773	83.9239	71.7773	83.9688	71.7773	83.9337	71.7773	83.9859	71.7773	83.9404	71.7773	83.9991	71.7773	83.9428	71.7773	84.0068	71.7773	83.9402	71.7773	84.0076	71.7773	83.9324	71.7773	84.0008	71.7773	83.9199	71.7773	83.9868	71.7773	83.9045	71.7773	83.9667	71.7773	83.8881	71.7773	83.9426	71.7773	83.8735	71.7773	83.9174	71.7773	83.8632	71.7773	83.894	71.7773	83.8594	71.7773	83.8753	71.7773	83.8634
73.9746	84.4561	73.9746	84.4573	73.9746	84.4587	73.9746	84.4619	73.9746	84.4651	73.9746	84.4694	73.9746	84.4747	73.9746	84.4787	73.9746	84.4867	73.9746	84.4885	73.9746	84.4998	73.9746	84.4972	73.9746	84.5124	73.9746	84.5033	73.9746	84.5227	73.9746	84.5052	73.9746	84.5289	73.9746	84.5017	73.9746	84.5294	73.9746	84.492	73.9746	84.523	73.9746	84.476	73.9746	84.5092	73.9746	84.4546	73.9746	84.4885	73.9746	84.4296	73.9746	84.4623	73.9746	84.4037	73.9746	84.4331	73.9746	84.3799	73.9746	84.4041	73.9746	84.3615	73.9746	84.3787	73.9746	84.3511	73.9746	84.3601	73.9746	84.3505
76.9043	85.1394	76.9043	85.1398	76.9043	85.1425	76.9043	85.1434	76.9043	85.149	76.9043	85.1496	76.9043	85.1583	76.9043	85.1575	76.9043	85.1696	76.9043	85.166	76.9043	85.1816	76.9043	85.1735	76.9043	85.193	76.9043	85.1786	76.9043	85.202	76.9043	85.1797	76.9043	85.2069	76.9043	85.1755	76.9043	85.206	76.9043	85.1651	76.9043	85.1983	76.9043	85.1484	76.9043	85.1832	76.9043	85.1262	76.9043	85.1612	76.9043	85.1002	76.9043	85.1337	76.9043	85.0732	76.9043	85.1033	76.9043	85.0484	76.9043	85.0731	76.9043	85.0291	76.9043	85.0467	76.9043	85.0182	76.9043	85.0274	76.9043	85.0175
79.834	85.7871	79.834	85.7878	79.834	85.7886	79.834	85.7906	79.834	85.7925	79.834	85.7948	79.834	85.7983	79.834	85.7998	79.834	85.8055	79.834	85.8047	79.834	85.8133	79.834	85.8081	79.834	85.8204	79.834	85.8089	79.834	85.8253	79.834	85.8057	79.834	85.8266	79.834	85.7973	79.834	85.8227	79.834	85.7832	79.834	85.8125	79.834	85.7632	79.834	85.7955	79.834	85.7381	79.834	85.7719	79.834	85.7098	79.834	85.7431	79.834	85.6808	79.834	85.7115	79.834	85.6546	79.834	85.6802	79.834	85.6344	79.834	85.6529	79.834	85.6231	79.834	85.6328	79.834	85.6224
82.7637	86.5051	82.7637	86.5046	82.7637	86.5058	82.7637	86.5038	82.7637	86.5066	82.7637	86.5022	82.7637	86.5074	82.7637	86.499	82.7637	86.5077	82.7637	86.4933	82.7637	86.5067	82.7637	86.484	82.7637	86.5033	82.7637	86.47	82.7637	86.4962	82.7637	86.4503	82.7637	86.4838	82.7637	86.424	82.7637	86.465	82.7637	86.3911	82.7637	86.4387	82.7637	86.352	82.7637	86.4047	82.7637	86.3083	82.7637	86.3637	82.7637	86.2626	82.7637	86.3175	82.7637	86.2186	82.7637	86.2692	82.7637	86.1804	82.7637	86.2229	82.7637	86.1521	82.7637	86.1828	82.7637	86.1372	82.7637	86.1532	82.7637	86.1375
85.6934	86.995	85.6934	86.9944	85.6934	86.9958	85.6934	86.9937	85.6934	86.9969	85.6934	86.9923	85.6934	86.9982	85.6934	86.9896	85.6934	86.9993	85.6934	86.9847	85.6934	86.9996	85.6934	86.9768	85.6934	86.998	85.6934	86.9647	85.6934	86.9934	85.6934	86.9475	85.6934	86.9842	85.6934	86.9243	85.6934	86.969	85.6934	86.8949	85.6934	86.9469	85.6934	86.8597	85.6934	86.9172	85.6934	86.82	85.6934	86.8805	85.6934	86.7784	85.6934	86.8383	85.6934	86.7381	85.6934	86.7935	85.6934	86.7033	85.6934	86.7497	85.6934	86.6778	85.6934	86.7113	85.6934	86.6648	85.6934	86.6824	85.6934	86.6664
88.623	87.5309	88.623	87.532	88.623	87.5296	88.623	87.5325	88.623	87.5281	88.623	87.5319	88.623	87.5265	88.623	87.5297	88.623	87.5246	88.623	87.5251	88.623	87.5218	88.623	87.5173	88.623	87.5173	88.623	87.5052	88.623	87.5101	88.623	87.4879	88.623	87.4989	88.623	87.4646	88.623	87.4824	88.623	87.4349	88.623	87.4595	88.623	87.3992	88.623	87.4299	88.623	87.3588	88.623	87.394	88.623	87.3162	88.623	87.3532	88.623	87.2746	88.623	87.3103	88.623	87.238	88.623	87.2689	88.623	87.2103	88.623	87.2332	88.623	87.195	88.623	87.2071	88.623	87.1938
91.5527	87.9339	91.5527	87.9352	91.5527	87.9327	91.5527	87.9362	91.5527	87.9316	91.5527	87.9366	91.5527	87.9307	91.5527	87.9361	91.5527	87.9299	91.5527	87.934	91.5527	87.9289	91.5527	87.9295	91.5527	87.9272	91.5527	87.9218	91.5527	87.9237	91.5527	87.91	91.5527	87.9173	91.5527	87.893	91.5527	87.9067	91.5527	87.8704	91.5527	87.8907	91.5527	87.8424	91.5527	87.8689	91.5527	87.8099	91.5527	87.8411	91.5527	87.7749	91.5527	87.8086	91.5527	87.7405	91.5527	87.7734	91.5527	87.71	91.5527	87.7389	91.5527	87.687	91.5527	87.7085	91.5527	87.6745	91.5527	87.686	91.5527	87.6741
94.4824	88.4461	94.4824	88.4464	94.4824	88.4423	94.4824	88.4427	94.4824	88.4352	94.4824	88.4349	94.4824	88.4253	94.4824	88.4229	94.4824	88.413	94.4824	88.4065	94.4824	88.3986	94.4824	88.3856	94.4824	88.3821	94.4824	88.3601	94.4824	88.3632	94.4824	88.3297	94.4824	88.3412	94.4824	88.2945	94.4824	88.3154	94.4824	88.2548	94.4824	88.2851	94.4824	88.2112	94.4824	88.25	94.4824	88.1654	94.4824	88.2104	94.4824	88.1197	94.4824	88.1675	94.4824	88.0771	94.4824	88.1235	94.4824	88.0412	94.4824	88.0815	94.4824	88.0153	94.4824	88.0451	94.4824	88.0022	94.4824	88.018	94.4824	88.0031
98.1445	88.9272	98.1445	88.9318	98.1445	88.9169	98.1445	88.9301	98.1445	88.9016	98.1445	88.9217	98.1445	88.8819	98.1445	88.9063	98.1445	88.8586	98.1445	88.8835	98.1445	88.8323	98.1445	88.8533	98.1445	88.8032	98.1445	88.8154	98.1445	88.7712	98.1445	88.77	98.1445	88.736	98.1445	88.7172	98.1445	88.6969	98.1445	88.658	98.1445	88.6533	98.1445	88.5938	98.1445	88.605	98.1445	88.5272	98.1445	88.5523	98.1445	88.4615	98.1445	88.4967	98.1445	88.4011	98.1445	88.4407	98.1445	88.3503	98.1445	88.388	98.1445	88.3135	98.1445	88.3429	98.1445	88.2938	98.1445	88.31	98.1445	88.2928
101.807	89.3026	101.807	89.3175	101.807	89.2815	101.807	89.3256	101.807	89.255	101.807	89.3263	101.807	89.2241	101.807	89.3195	101.807	89.19	101.807	89.3048	101.807	89.1536	101.807	89.2822	101.807	89.116	101.807	89.2514	101.807	89.0777	101.807	89.2123	101.807	89.0388	101.807	89.1649	101.807	88.9992	101.807	89.1099	101.807	88.9586	101.807	89.0485	101.807	88.9167	101.807	88.9829	101.807	88.8738	101.807	88.9162	101.807	88.8308	101.807	88.8524	101.807	88.7896	101.807	88.7958	101.807	88.7531	101.807	88.7506	101.807	88.7246	101.807	88.72	101.807	88.7079	101.807	88.7058
105.469	89.5661	105.469	89.5891	105.469	89.5352	105.469	89.6041	105.469	89.4973	105.469	89.6108	105.469	89.4532	105.469	89.6095	105.469	89.4043	105.469	89.6001	105.469	89.3521	105.469	89.5826	105.469	89.2984	105.469	89.5569	105.469	89.2447	105.469	89.5228	105.469	89.1922	105.469	89.4799	105.469	89.1421	105.469	89.4284	105.469	89.095	105.469	89.3689	105.469	89.0516	105.469	89.3029	105.469	89.0126	105.469	89.2331	105.469	88.979	105.469	89.1627	105.469	88.9522	105.469	89.0957	105.469	88.9342	105.469	89.0363	105.469	88.9271	105.469	88.9879	105.469	88.9329	105.469	88.9531
109.131	89.9318	109.131	89.9463	109.131	89.907	109.131	89.9507	109.131	89.8721	109.131	89.9454	109.131	89.8279	109.131	89.931	109.131	89.7753	109.131	89.908	109.131	89.716	109.131	89.8769	109.131	89.6514	109.131	89.838	109.131	89.5836	109.131	89.7914	109.131	89.5144	109.131	89.7371	109.131	89.4455	109.131	89.6756	109.131	89.3789	109.131	89.6074	109.131	89.3164	109.131	89.534	109.131	89.2597	109.131	89.4578	109.131	89.2109	109.131	89.382	109.131	89.1722	109.131	89.3103	109.131	89.1458	109.131	89.2469	109.131	89.1338	109.131	89.1953	109.131	89.1377	109.131	89.1583
112.793	90.1863	112.793	90.1907	112.793	90.171	112.793	90.1846	112.793	90.1449	112.793	90.1688	112.793	90.1085	112.793	90.1439	112.793	90.0629	112.793	90.1111	112.793	90.0092	112.793	90.0712	112.793	89.949	112.793	90.0247	112.793	89.8841	112.793	89.9722	112.793	89.8163	112.793	89.914	112.793	89.7471	112.793	89.8506	112.793	89.6785	112.793	89.7829	112.793	89.6122	112.793	89.7125	112.793	89.5502	112.793	89.6415	112.793	89.4945	112.793	89.5729	112.793	89.4475	112.793	89.5103	112.793	89.4117	112.793	89.4572	112.793	89.3893	112.793	89.4167	112.793	89.3822	112.793	89.3913
116.455	90.307	116.455	90.3064	116.455	90.296	116.455	90.2946	116.455	90.2734	116.455	90.2725	116.455	90.2399	116.455	90.2413	116.455	90.1967	116.455	90.2024	116.455	90.1452	116.455	90.157	116.455	90.0874	116.455	90.1064	116.455	90.0251	116.455	90.0514	116.455	89.9602	116.455	89.9929	116.455	89.8945	116.455	89.9315	116.455	89.8297	116.455	89.8682	116.455	89.7672	116.455	89.8044	116.455	89.7088	116.455	89.7421	116.455	89.6561	116.455	89.6837	116.455	89.6109	116.455	89.632	116.455	89.5753	116.455	89.5898	116.455	89.551	116.455	89.5594	116.455	89.5397	116.455	89.5424
120.85	90.4486	120.85	90.45	120.85	90.4334	120.85	90.438	120.85	90.4046	120.85	90.4137	120.85	90.3631	120.85	90.3787	120.85	90.3105	120.85	90.3348	120.85	90.2488	120.85	90.2838	120.85	90.1806	120.85	90.2275	120.85	90.1085	120.85	90.1674	120.85	90.035	120.85	90.1048	120.85	89.9626	120.85	90.0407	120.85	89.8936	120.85	89.9763	120.85	89.8298	120.85	89.9128	120.85	89.7729	120.85	89.8516	120.85	89.7245	120.85	89.7947	120.85	89.6859	120.85	89.744	120.85	89.6581	120.85	89.7015	120.85	89.6423	120.85	89.669	120.85	89.6387	120.85	89.6478
125.244	90.414	125.244	90.4117	125.244	90.4002	125.244	90.394	125.244	90.3705	125.244	90.3621	125.244	90.3261	125.244	90.318	125.244	90.2687	125.244	90.2638	125.244	90.2007	125.244	90.202	125.244	90.1252	125.244	90.135	125.244	90.0453	125.244	90.065	125.244	89.9641	125.244	89.994	125.244	89.8848	125.244	89.9237	125.244	89.8099	125.244	89.8556	125.244	89.7417	125.244	89.7912	125.244	89.6821	125.244	89.7317	125.244	89.6322	125.244	89.6786	125.244	89.5932	125.244	89.6329	125.244	89.5654	125.244	89.5959	125.244	89.5492	125.244	89.5683	125.244	89.5445	125.244	89.551
129.639	90.2748	129.639	90.273	129.639	90.2589	129.639	90.2539	129.639	90.2254	129.639	90.2189	129.639	90.1756	129.639	90.1697	129.639	90.1113	129.639	90.1088	129.639	90.0354	129.639	90.0385	129.639	89.951	129.639	89.9616	129.639	89.8617	129.639	89.8804	129.639	89.7711	129.639	89.7974	129.639	89.6826	129.639	89.7149	129.639	89.5993	129.639	89.6352	129.639	89.5236	129.639	89.5602	129.639	89.4573	129.639	89.4921	129.639	89.4018	129.639	89.4326	129.639	89.3579	129.639	89.383	129.639	89.3259	129.639	89.3444	129.639	89.3059	129.639	89.3171	129.639	89.2978	129.639	89.3016
134.033	90.1683	134.033	90.1614	134.033	90.1568	134.033	90.1368	134.033	90.127	134.033	90.0962	134.033	90.0802	134.033	90.042	134.033	90.0186	134.033	89.9771	134.033	89.9452	134.033	89.9046	134.033	89.8637	134.033	89.8277	134.033	89.778	134.033	89.7493	134.033	89.692	134.033	89.6721	134.033	89.6095	134.033	89.5984	134.033	89.5336	134.033	89.53	134.033	89.4666	134.033	89.4685	134.033	89.4098	134.033	89.415	134.033	89.3639	134.033	89.3704	134.033	89.3286	134.033	89.3349	134.033	89.3036	134.033	89.3086	134.033	89.2878	134.033	89.291	134.033	89.2807	134.033	89.2818
138.428	90.089	138.428	90.0757	138.428	90.0812	138.428	90.0426	138.428	90.0521	138.428	89.9921	138.428	90.0031	138.428	89.9273	138.428	89.9366	138.428	89.8522	138.428	89.856	138.428	89.771	138.428	89.766	138.428	89.6878	138.428	89.6717	138.428	89.6065	138.428	89.5783	138.428	89.5303	138.428	89.4908	138.428	89.4618	138.428	89.4135	138.428	89.4026	138.428	89.3493	138.428	89.3536	138.428	89.2997	138.428	89.3149	138.428	89.2644	138.428	89.2855	138.428	89.242	138.428	89.2642	138.428	89.23	138.428	89.2492	138.428	89.2257	138.428	89.2386	138.428	89.2267	138.428	89.2312
143.555	89.9508	143.555	89.9231	143.555	89.9521	143.555	89.8709	143.555	89.9268	143.555	89.797	143.555	89.876	143.555	89.7053	143.555	89.8019	143.555	89.6007	143.555	89.7082	143.555	89.4888	143.555	89.5999	143.555	89.3753	143.555	89.4825	143.555	89.2657	143.555	89.3626	143.555	89.165	143.555	89.2468	143.555	89.0773	143.555	89.1409	143.555	89.0052	143.555	89.05	143.555	88.9497	143.555	88.9773	143.555	88.9102	143.555	88.9238	143.555	88.8846	143.555	88.8882	143.555	88.8697	143.555	88.8676	143.555	88.8617	143.555	88.8578	143.555	88.8576	143.555	88.8549	143.555	88.8553
148.682	89.8344	148.682	89.7987	148.682	89.8403	148.682	89.7344	148.682	89.8167	148.682	89.6441	148.682	89.765	148.682	89.5318	148.682	89.6882	148.682	89.4027	148.682	89.5902	148.682	89.2631	148.682	89.4763	148.682	89.1203	148.682	89.3524	148.682	88.9816	148.682	89.225	148.682	88.8546	148.682	89.1007	148.682	88.7455	148.682	88.9855	148.682	88.6592	148.682	88.8846	148.682	88.5978	148.682	88.801	148.682	88.5608	148.682	88.7358	148.682	88.5452	148.682	88.6878	148.682	88.5459	148.682	88.6536	148.682	88.557	148.682	88.6288	148.682	88.5732	148.682	88.6091	148.682	88.591
153.809	89.7491	153.809	89.7255	153.809	89.7401	153.809	89.6698	153.809	89.6991	153.809	89.584	153.809	89.6283	153.809	89.4713	153.809	89.5309	153.809	89.3363	153.809	89.4115	153.809	89.1847	153.809	89.2755	153.809	89.0236	153.809	89.1296	153.809	88.8609	153.809	88.9808	153.809	88.7049	153.809	88.8364	153.809	88.5638	153.809	88.7034	153.809	88.4444	153.809	88.5871	153.809	88.3516	153.809	88.4913	153.809	88.2871	153.809	88.417	153.809	88.2494	153.809	88.3626	153.809	88.2339	153.809	88.3244	153.809	88.2344	153.809	88.2974	153.809	88.2446	153.809	88.2769	153.809	88.2595
159.668	89.7814	159.668	89.7393	159.668	89.7893	159.668	89.6636	159.668	89.7637	159.668	89.5563	159.668	89.7066	159.668	89.4208	159.668	89.6212	159.668	89.2623	159.668	89.5118	159.668	89.0871	159.668	89.3836	159.668	88.9032	159.668	89.2427	159.668	88.7197	159.668	89.0954	159.668	88.5463	159.668	88.9485	159.668	88.3927	159.668	88.8082	159.668	88.2669	159.668	88.6796	159.668	88.1743	159.668	88.5666	159.668	88.1165	159.668	88.4709	159.668	88.0912	159.668	88.3921	159.668	88.0926	159.668	88.3278	159.668	88.1132	159.668	88.2741	159.668	88.1457	159.668	88.2272	159.668	88.1846
164.795	89.5591	164.795	89.5385	164.795	89.5466	164.795	89.4849	164.795	89.5027	164.795	89.3997	164.795	89.4302	164.795	89.2855	164.795	89.3335	164.795	89.1468	164.795	89.218	164.795	88.9892	164.795	89.0903	164.795	88.8198	164.795	88.9571	164.795	88.647	164.795	88.8255	164.795	88.4804	164.795	88.7015	164.795	88.3297	164.795	88.5901	164.795	88.2039	164.795	88.4945	164.795	88.1099	164.795	88.4155	164.795	88.0508	164.795	88.3518	164.795	88.0257	164.795	88.3002	164.795	88.0294	164.795	88.2564	164.795	88.054	164.795	88.2159	164.795	88.091	164.795	88.1752	164.795	88.133
170.654	89.2831	170.654	89.2704	170.654	89.2619	170.654	89.2242	170.654	89.2083	170.654	89.1467	170.654	89.1254	170.654	89.0415	170.654	89.0184	170.654	88.914	170.654	88.894	170.654	88.771	170.654	88.7606	170.654	88.6206	170.654	88.6271	170.654	88.4721	170.654	88.5028	170.654	88.3352	170.654	88.3957	170.654	88.2193	170.654	88.3116	170.654	88.1317	170.654	88.2532	170.654	88.0769	170.654	88.2194	170.654	88.0548	170.654	88.206	170.654	88.0611	170.654	88.2062	170.654	88.0876	170.654	88.2116	170.654	88.1242	170.654	88.2146	170.654	88.1612	170.654	88.2087	170.654	88.1908
176.514	89.1593	176.514	89.1311	176.514	89.1467	176.514	89.0629	176.514	89.094	176.514	88.9578	176.514	89.0044	176.514	88.8206	176.514	88.8829	176.514	88.6584	176.514	88.7369	176.514	88.4801	176.514	88.5758	176.514	88.2966	176.514	88.4105	176.514	88.1202	176.514	88.2532	176.514	87.9639	176.514	88.1154	176.514	87.8394	176.514	88.0068	176.514	87.7555	176.514	87.9332	176.514	87.7158	176.514	87.8953	176.514	87.7175	176.514	87.8883	176.514	87.7517	176.514	87.903	176.514	87.8051	176.514	87.9273	176.514	87.8634	176.514	87.9489	176.514	87.9134	176.514	87.9574	176.514	87.9461
183.105	89.0091	183.105	88.9659	183.105	89.0061	183.105	88.8759	183.105	88.9593	183.105	88.7401	183.105	88.8728	183.105	88.5621	183.105	88.7527	183.105	88.3477	183.105	88.6065	183.105	88.1059	183.105	88.4436	183.105	87.849	183.105	88.2743	183.105	87.5933	183.105	88.1095	183.105	87.3581	183.105	87.9595	183.105	87.1636	183.105	87.8328	183.105	87.0275	183.105	87.7344	183.105	86.9602	183.105	87.665	183.105	86.9612	183.105	87.6206	183.105	87.0193	183.105	87.5927	183.105	87.1155	183.105	87.5704	183.105	87.2278	183.105	87.5418	183.105	87.3366	183.105	87.4966	183.105	87.4284
189.697	88.8153	189.697	88.8165	189.697	88.7684	189.697	88.771	189.697	88.6789	189.697	88.6795	189.697	88.5519	189.697	88.5447	189.697	88.395	189.697	88.3706	189.697	88.218	189.697	88.1639	189.697	88.0329	189.697	87.9336	189.697	87.8526	189.697	87.6918	189.697	87.69	189.697	87.4542	189.697	87.5557	189.697	87.2388	189.697	87.4564	189.697	87.0642	189.697	87.3933	189.697	86.9456	189.697	87.3618	189.697	86.891	189.697	87.3524	189.697	86.8977	189.697	87.3524	189.697	86.9535	189.697	87.3486	189.697	87.0392	189.697	87.3296	189.697	87.1342	189.697	87.2877	189.697	87.221
196.289	88.81	196.289	88.8354	196.289	88.7327	196.289	88.8079	196.289	88.607	196.289	88.7286	196.289	88.4392	196.289	88.6005	196.289	88.2387	196.289	88.4289	196.289	88.0189	196.289	88.2218	196.289	87.7964	196.289	87.9905	196.289	87.5901	196.289	87.75	196.289	87.4188	196.289	87.5188	196.289	87.2975	196.289	87.3179	196.289	87.2341	196.289	87.1671	196.289	87.2271	196.289	87.0807	196.289	87.2657	196.289	87.0628	196.289	87.3325	196.289	87.1055	196.289	87.4075	196.289	87.1906	196.289	87.4713	196.289	87.2945	196.289	87.5084	196.289	87.3936	196.289	87.5087	196.289	87.4691
202.881	88.826	202.881	88.8463	202.881	88.7478	202.881	88.8105	202.881	88.6117	202.881	88.722	202.881	88.4204	202.881	88.5853	202.881	88.1801	202.881	88.4063	202.881	87.9019	202.881	88.1929	202.881	87.6027	202.881	87.9554	202.881	87.3056	202.881	87.7079	202.881	87.0388	202.881	87.4678	202.881	86.831	202.881	87.2554	202.881	86.7047	202.881	87.0911	202.881	86.6689	202.881	86.99	202.881	86.7157	202.881	86.9576	202.881	86.8221	202.881	86.9862	202.881	86.9568	202.881	87.0563	202.881	87.0886	202.881	87.1418	202.881	87.1918	202.881	87.2159	202.881	87.2499	202.881	87.2565
210.205	88.6869	210.205	88.6879	210.205	88.6272	210.205	88.6326	210.205	88.508	210.205	88.5246	210.205	88.3307	210.205	88.3685	210.205	88.0999	210.205	88.1699	210.205	87.8244	210.205	87.9359	210.205	87.5185	210.205	87.6758	210.205	87.2029	210.205	87.4026	210.205	86.9038	210.205	87.1332	210.205	86.6503	210.205	86.8883	210.205	86.4685	210.205	86.6903	210.205	86.3741	210.205	86.558	210.205	86.3664	210.205	86.5005	210.205	86.4283	210.205	86.5126	210.205	86.5308	210.205	86.5751	210.205	86.6416	210.205	86.6597	210.205	86.732	210.205	86.737	210.205	86.782	210.205	86.7827
217.529	88.523	217.529	88.5179	217.529	88.4678	217.529	88.456	217.529	88.3511	217.529	88.3423	217.529	88.174	217.529	88.1833	217.529	87.9414	217.529	87.9869	217.529	87.6624	217.529	87.7626	217.529	87.3521	217.529	87.522	217.529	87.0318	217.529	87.2789	217.529	86.729	217.529	87.0494	217.529	86.4744	217.529	86.851	217.529	86.2954	217.529	86.7001	217.529	86.2085	217.529	86.608	217.529	86.2133	217.529	86.5772	217.529	86.2922	217.529	86.5988	217.529	86.4156	217.529	86.654	217.529	86.5506	217.529	86.7183	217.529	86.6683	217.529	86.7671	217.529	86.7483	217.529	86.7809
225.586	88.595	225.586	88.6075	225.586	88.5082	225.586	88.5495	225.586	88.3453	225.586	88.4266	225.586	88.1077	225.586	88.2462	225.586	87.801	225.586	88.0178	225.586	87.4373	225.586	87.7537	225.586	87.0378	225.586	87.4701	225.586	86.6349	225.586	87.1876	225.586	86.2722	225.586	86.9307	225.586	85.9981	225.586	86.7254	225.586	85.8531	225.586	86.5944	225.586	85.8537	225.586	86.5496	225.586	85.984	225.586	86.5871	225.586	86.2023	225.586	86.6868	225.586	86.4563	225.586	86.8171	225.586	86.6981	225.586	86.9429	225.586	86.8918	225.586	87.0324	225.586	87.0157	225.586	87.0614
232.91	88.9402	232.91	88.9224	232.91	88.8815	232.91	88.8341	232.91	88.741	232.91	88.6816	232.91	88.5146	232.91	88.4716	232.91	88.2006	232.91	88.2124	232.91	87.8016	232.91	87.9144	232.91	87.3286	232.91	87.5918	232.91	86.8052	232.91	87.2642	232.91	86.2734	232.91	86.9573	232.91	85.7959	232.91	86.7011	232.91	85.4473	232.91	86.5239	232.91	85.29	232.91	86.4436	232.91	85.3421	232.91	86.4589	232.91	85.5653	232.91	86.5472	232.91	85.8846	232.91	86.67	232.91	86.2208	232.91	86.7835	232.91	86.5124	232.91	86.8478	232.91	86.7218	232.91	86.8329
241.699	88.6073	241.699	88.531	241.699	88.6104	241.699	88.3882	241.699	88.534	241.699	88.1864	241.699	88.3726	241.699	87.9343	241.699	88.1221	241.699	87.6418	241.699	87.7812	241.699	87.3211	241.699	87.3536	241.699	86.9883	241.699	86.8517	241.699	86.6634	241.699	86.3021	241.699	86.3708	241.699	85.7512	241.699	86.1368	241.699	85.2664	241.699	85.9836	241.699	84.9255	241.699	85.9216	241.699	84.7872	241.699	85.9433	241.699	84.8593	241.699	86.0223	241.699	85.092	241.699	86.1199	241.699	85.4036	241.699	86.1941	241.699	85.7153	241.699	86.2084	241.699	85.9702	241.699	86.1372
249.756	88.9932	249.756	88.8624	249.756	89.0391	249.756	88.6495	249.756	88.9973	249.756	88.3575	249.756	88.8648	249.756	87.9905	249.756	88.6393	249.756	87.5551	249.756	88.3195	249.756	87.0628	249.756	87.9074	249.756	86.5338	249.756	87.4107	249.756	86.0009	249.756	86.8471	249.756	85.5115	249.756	86.2496	249.756	85.1233	249.756	85.671	249.756	84.8878	249.756	85.1813	249.756	84.827	249.756	84.8512	249.756	84.9182	249.756	84.7223	249.756	85.1023	249.756	84.7818	249.756	85.3077	249.756	84.9679	249.756	85.472	249.756	85.199	249.756	85.5525	249.756	85.4026	249.756	85.5287
258.545	88.927	258.545	88.8476	258.545	88.9347	258.545	88.6988	258.545	88.8681	258.545	88.4827	258.545	88.7247	258.545	88.2014	258.545	88.5027	258.545	87.858	258.545	88.2025	258.545	87.4582	258.545	87.8286	258.545	87.0134	258.545	87.3923	258.545	86.544	258.545	86.9152	258.545	86.0832	258.545	86.433	258.545	85.6774	258.545	85.9947	258.545	85.3787	258.545	85.6555	258.545	85.2271	258.545	85.4589	258.545	85.2307	258.545	85.4164	258.545	85.3577	258.545	85.4993	258.545	85.5495	258.545	85.6507	258.545	85.7424	258.545	85.8072	258.545	85.8853	258.545	85.9168	258.545	85.9467
268.066	88.7502	268.066	88.5953	268.066	88.827	268.066	88.3637	268.066	88.8229	268.066	88.0553	268.066	88.7335	268.066	87.6695	268.066	88.5534	268.066	87.2067	268.066	88.2775	268.066	86.6711	268.066	87.9034	268.066	86.0752	268.066	87.434	268.066	85.4463	268.066	86.8833	268.066	84.8347	268.066	86.2821	268.066	84.3156	268.066	85.6848	268.066	83.975	268.066	85.1679	268.066	83.8722	268.066	84.8122	268.066	84.001	268.066	84.6659	268.066	84.2884	268.066	84.7132	268.066	84.6329	268.066	84.881	268.066	84.9443	268.066	85.0756	268.066	85.1614	268.066	85.2172	268.066	85.2535
277.588	88.9378	277.588	88.9013	277.588	88.9017	277.588	88.7853	277.588	88.8005	277.588	88.583	277.588	88.6408	277.588	88.2882	277.588	88.4285	277.588	87.8958	277.588	88.1683	277.588	87.4032	277.588	87.864	277.588	86.8134	277.588	87.5198	277.588	86.1407	277.588	87.143	277.588	85.4208	277.588	86.7469	277.588	84.7212	277.588	86.354	277.588	84.1444	277.588	85.9956	277.588	83.8018	277.588	85.7064	277.588	83.7542	277.588	85.5124	277.588	83.9648	277.588	85.4167	277.588	84.3221	277.588	85.3932	277.588	84.7049	277.588	85.3926	277.588	85.0267	277.588	85.3591	277.588	85.2459
287.109	88.9528	287.109	88.996	287.109	88.8249	287.109	88.9515	287.109	88.6149	287.109	88.8158	287.109	88.3263	287.109	88.5837	287.109	87.9651	287.109	88.2494	287.109	87.5411	287.109	87.8069	287.109	87.0708	287.109	87.254	287.109	86.5793	287.109	86.5982	287.109	86.1033	287.109	85.8672	287.109	85.6887	287.109	85.1236	287.109	85.3837	287.109	84.4752	287.109	85.223	287.109	84.0571	287.109	85.2117	287.109	83.9641	287.109	85.3197	287.109	84.1784	287.109	85.4915	287.109	84.5792	287.109	85.6629	287.109	85.023	287.109	85.7758	287.109	85.4037	287.109	85.7855	287.109	85.6642
297.363	89.3033	297.363	89.3209	297.363	89.2129	297.363	89.2717	297.363	89.0413	297.363	89.1586	297.363	88.7793	297.363	88.9795	297.363	88.4185	297.363	88.7284	297.363	87.9534	297.363	88.3952	297.363	87.3851	297.363	87.9688	297.363	86.7269	297.363	87.4407	297.363	86.0132	297.363	86.8117	297.363	85.3092	297.363	86.1018	297.363	84.7129	297.363	85.3645	297.363	84.331	297.363	84.697	297.363	84.2231	297.363	84.2266	297.363	84.357	297.363	84.0512	297.363	84.6251	297.363	84.1653	297.363	84.9037	297.363	84.4582	297.363	85.0965	297.363	84.7865	297.363	85.1471	297.363	85.0373
307.617	88.6903	307.617	88.6234	307.617	88.6915	307.617	88.4997	307.617	88.6167	307.617	88.3263	307.617	88.455	307.617	88.1074	307.617	88.1961	307.617	87.8442	307.617	87.8314	307.617	87.5356	307.617	87.3574	307.617	87.1799	307.617	86.7804	307.617	86.7797	307.617	86.1247	307.617	86.3467	307.617	85.4444	307.617	85.9089	307.617	84.8305	307.617	85.513	307.617	84.3993	307.617	85.2182	307.617	84.2419	307.617	85.0739	307.617	84.3623	307.617	85.0915	307.617	84.6701	307.617	85.2314	307.617	85.0377	307.617	85.4189	307.617	85.358	307.617	85.5744	307.617	85.5658	307.617	85.6355
318.604	88.6408	318.604	88.567	318.604	88.6376	318.604	88.4212	318.604	88.5517	318.604	88.2072	318.604	88.3762	318.604	87.9279	318.604	88.1026	318.604	87.5851	318.604	87.7215	318.604	87.18	318.604	87.2241	318.604	86.7158	318.604	86.6061	318.604	86.2024	318.604	85.875	318.604	85.6635	318.604	85.0632	318.604	85.1433	318.604	84.2463	318.604	84.7077	318.604	83.5545	318.604	84.4275	318.604	83.1451	318.604	84.3434	318.604	83.1109	318.604	84.4344	318.604	83.4004	318.604	84.6227	318.604	83.8555	318.604	84.8102	318.604	84.3154	318.604	84.9127	318.604	84.6724	318.604	84.8747
329.59	88.882	329.59	88.7866	329.59	88.9082	329.59	88.6235	329.59	88.8618	329.59	88.3915	329.59	88.7371	329.59	88.0867	329.59	88.5266	329.59	87.7018	329.59	88.2208	329.59	87.2273	329.59	87.8103	329.59	86.6557	329.59	87.2884	329.59	85.988	329.59	86.6574	329.59	85.2478	329.59	85.9386	329.59	84.499	329.59	85.1869	329.59	83.8589	329.59	84.5027	329.59	83.4744	329.59	84.0195	329.59	83.4366	329.59	83.8417	329.59	83.7011	329.59	83.9645	329.59	84.1171	329.59	84.27	329.59	84.5247	329.59	84.6046	329.59	84.8127	329.59	84.8463	329.59	84.9244
341.309	88.2327	341.309	88.1805	341.309	88.205	341.309	88.0501	341.309	88.0963	341.309	87.8424	341.309	87.9052	341.309	87.5571	341.309	87.6309	341.309	87.1913	341.309	87.2726	341.309	86.7394	341.309	86.8318	341.309	86.1957	341.309	86.3155	341.309	85.5597	341.309	85.7423	341.309	84.8479	341.309	85.1507	341.309	84.1122	341.309	84.6054	341.309	83.458	341.309	84.1926	341.309	83.0359	341.309	83.9911	341.309	82.9692	341.309	84.026	341.309	83.2505	341.309	84.2438	341.309	83.7367	341.309	84.5381	341.309	84.25	341.309	84.7967	341.309	84.6584	341.309	84.9324	341.309	84.8925
353.76	88.9829	353.76	88.9501	353.76	88.9387	353.76	88.841	353.76	88.8138	353.76	88.6531	353.76	88.6021	353.76	88.3797	353.76	88.2953	353.76	88.0089	353.76	87.8839	353.76	87.5244	353.76	87.3583	353.76	86.9075	353.76	86.7137	353.76	86.1425	353.76	85.9576	353.76	85.2288	353.76	85.1237	353.76	84.2048	353.76	84.291	353.76	83.1883	353.76	83.5955	353.76	82.4052	353.76	83.1954	353.76	82.1086	353.76	83.1707	353.76	82.3558	353.76	83.4465	353.76	82.9351	353.76	83.8454	353.76	83.5676	353.76	84.196	353.76	84.0669	353.76	84.3833	353.76	84.3465
366.211	89.0339	366.211	89.0304	366.211	88.9588	366.211	88.956	366.211	88.7955	366.211	88.8153	366.211	88.5337	366.211	88.6081	366.211	88.1617	366.211	88.3271	366.211	87.6666	366.211	87.9578	366.211	87.0359	366.211	87.48	366.211	86.2615	366.211	86.8722	366.211	85.349	366.211	86.1182	366.211	84.3381	366.211	85.2212	366.211	83.3342	366.211	84.2273	366.211	82.5323	366.211	83.2607	366.211	82.1553	366.211	82.5373	366.211	82.2757	366.211	82.2697	366.211	82.7274	366.211	82.476	366.211	83.2523	366.211	82.9476	366.211	83.6554	366.211	83.4303	366.211	83.8339	366.211	83.7528
378.662	88.9571	378.662	88.865	378.662	88.9891	378.662	88.72	378.662	88.9518	378.662	88.5267	378.662	88.8331	378.662	88.2852	378.662	88.6178	378.662	87.9897	378.662	88.2866	378.662	87.6281	378.662	87.8174	378.662	87.1843	378.662	87.1876	378.662	86.6434	378.662	86.3812	378.662	86.0022	378.662	85.4039	378.662	85.2848	378.662	84.3137	378.662	84.5638	378.662	83.2722	378.662	83.9703	378.662	82.5653	378.662	83.6564	378.662	82.4503	378.662	83.6914	378.662	82.8841	378.662	83.9906	378.662	83.56	378.662	84.3736	378.662	84.1878	378.662	84.6701	378.662	84.6089	378.662	84.7674
392.578	87.896	392.578	87.8288	392.578	87.9201	392.578	87.7192	392.578	87.8982	392.578	87.5657	392.578	87.8241	392.578	87.3638	392.578	87.6869	392.578	87.1036	392.578	87.4703	392.578	86.7692	392.578	87.1537	392.578	86.3396	392.578	86.7159	392.578	85.794	392.578	86.1398	392.578	85.1206	392.578	85.4229	392.578	84.3345	392.578	84.5936	392.578	83.5043	392.578	83.7378	392.578	82.7789	392.578	83.0177	392.578	82.3628	392.578	82.6301	392.578	82.3812	392.578	82.6646	392.578	82.7478	392.578	83.0049	392.578	83.2328	392.578	83.4229	392.578	83.6252	392.578	83.7249	392.578	83.8026
405.762	87.8231	405.762	87.7985	405.762	87.7821	405.762	87.713	405.762	87.6695	405.762	87.5691	405.762	87.478	405.762	87.3647	405.762	87.1974	405.762	87.0908	405.762	86.8153	405.762	86.7302	405.762	86.3175	405.762	86.2593	405.762	85.6935	405.762	85.6534	405.762	84.9456	405.762	84.8981	405.762	84.1074	405.762	84.0122	405.762	83.2721	405.762	83.0875	405.762	82.6146	405.762	82.3342	405.762	82.3434	405.762	82.0351	405.762	82.5457	405.762	82.3129	405.762	83.0877	405.762	82.974	405.762	83.7252	405.762	83.7009	405.762	84.254	405.762	84.2662	405.762	84.5523	405.762	84.5611
420.41	87.9423	420.41	87.8454	420.41	88.001	420.41	87.7176	420.41	88.0118	420.41	87.5638	420.41	87.9616	420.41	87.3831	420.41	87.8306	420.41	87.1652	420.41	87.5917	420.41	86.8882	420.41	87.2115	420.41	86.5203	420.41	86.6529	420.41	86.0258	420.41	85.8811	420.41	85.3749	420.41	84.8758	420.41	84.5624	420.41	83.6622	420.41	83.6417	420.41	82.3827	420.41	82.7728	420.41	81.3925	420.41	82.2269	420.41	81.1443	420.41	82.2189	420.41	81.6827	420.41	82.6699	420.41	82.5603	420.41	83.2776	420.41	83.3489	420.41	83.7663	420.41	83.8423	420.41	83.9779
435.059	88.435	435.059	88.3472	435.059	88.4488	435.059	88.1948	435.059	88.3818	435.059	87.9886	435.059	88.2284	435.059	87.736	435.059	87.982	435.059	87.4366	435.059	87.6315	435.059	87.077	435.059	87.1602	435.059	86.631	435.059	86.5466	435.059	86.0642	435.059	85.7682	435.059	85.3449	435.059	84.8148	435.059	84.4636	435.059	83.7157	435.059	83.4692	435.059	82.5966	435.059	82.5239	435.059	81.7391	435.059	81.9206	435.059	81.4859	435.059	81.907	435.059	81.8933	435.059	82.4037	435.059	82.6331	435.059	83.0743	435.059	83.3323	435.059	83.6181	435.059	83.7739	435.059	83.8718
450.439	89.2082	450.439	89.0962	450.439	89.2443	450.439	88.9145	450.439	89.1998	450.439	88.671	450.439	89.0688	450.439	88.3725	450.439	88.8412	450.439	88.0195	450.439	88.4997	450.439	87.601	450.439	88.0194	450.439	87.0936	450.439	87.3686	450.439	86.4641	450.439	86.5123	450.439	85.6811	450.439	85.4209	450.439	84.734	450.439	84.0945	450.439	83.6724	450.439	82.6291	450.439	82.6674	450.439	81.3455	450.439	82.0325	450.439	80.7993	450.439	82.0268	450.439	81.2306	450.439	82.5454	450.439	82.1819	450.439	83.2185	450.439	83.0996	450.439	83.7315	450.439	83.7068	450.439	83.9168
466.553	89.2958	466.553	89.247	466.553	89.2999	466.553	89.1486	466.553	89.2605	466.553	88.9936	466.553	89.1723	466.553	88.7715	466.553	89.0213	466.553	88.4662	466.553	88.7833	466.553	88.0546	466.553	88.4257	466.553	87.5073	466.553	87.9102	466.553	86.7931	466.553	87.1973	466.553	85.8914	466.553	86.2528	466.553	84.8196	466.553	85.0647	466.553	83.6908	466.553	83.6908	466.553	82.782	466.553	82.362	466.553	82.4566	466.553	81.5631	466.553	82.8041	466.553	81.6964	466.553	83.5018	466.553	82.5229	466.553	84.1621	466.553	83.4815	466.553	84.555	466.553	84.2136	466.553	84.5815
482.666	88.94	482.666	88.9252	482.666	88.9405	482.666	88.8936	482.666	88.9312	482.666	88.8444	482.666	88.9127	482.666	88.7706	482.666	88.8729	482.666	88.6496	482.666	88.7829	482.666	88.4398	482.666	88.5988	482.666	88.083	482.666	88.2675	482.666	87.5098	482.666	87.7339	482.666	86.6462	482.666	86.9469	482.666	85.4229	482.666	85.872	482.666	83.8077	482.666	84.5272	482.666	81.936	482.666	83.0822	482.666	80.4491	482.666	82.0085	482.666	80.3961	482.666	81.8822	482.666	81.6107	482.666	82.6128	482.666	82.9837	482.666	83.5405	482.666	83.9392	482.666	84.1827	482.666	84.3386
500.244	88.3339	500.244	88.3148	500.244	88.3229	500.244	88.2776	500.244	88.2857	500.244	88.2431	500.244	88.2355	500.244	88.2235	500.244	88.1812	500.244	88.2062	500.244	88.1131	500.244	88.1482	500.244	87.9983	500.244	87.9851	500.244	87.7872	500.244	87.6455	500.244	87.4256	500.244	87.0618	500.244	86.8684	500.244	86.1803	500.244	86.0945	500.244	84.9859	500.244	85.134	500.244	83.5753	500.244	84.12	500.244	82.3158	500.244	83.3351	500.244	81.8466	500.244	83.0968	500.244	82.3743	500.244	83.4253	500.244	83.3173	500.244	83.9839	500.244	84.0963	500.244	84.405	500.244	84.4707
517.822	87.7373	517.822	87.6978	517.822	87.6719	517.822	87.576	517.822	87.5176	517.822	87.4268	517.822	87.3229	517.822	87.3158	517.822	87.1489	517.822	87.2814	517.822	87.0359	517.822	87.3033	517.822	86.9707	517.822	87.3029	517.822	86.8849	517.822	87.1733	517.822	86.6817	517.822	86.8066	517.822	86.2699	517.822	86.1104	517.822	85.5898	517.822	85.027	517.822	84.6508	517.822	83.6018	517.822	83.6128	517.822	82.1813	517.822	82.881	517.822	81.5697	517.822	82.8997	517.822	82.2041	517.822	83.5779	517.822	83.3905	517.822	84.3785	517.822	84.386	517.822	84.8819	517.822	84.9016
536.133	88.9304	536.133	88.7426	536.133	88.9041	536.133	88.3737	536.133	88.6519	536.133	87.8864	536.133	88.1794	536.133	87.3742	536.133	87.5106	536.133	86.9415	536.133	86.6966	536.133	86.649	536.133	85.8224	536.133	86.4597	536.133	84.9943	536.133	86.2423	536.133	84.2889	536.133	85.8254	536.133	83.6958	536.133	85.0476	536.133	83.1338	536.133	83.7894	536.133	82.5553	536.133	82.058	536.133	82.0777	536.133	80.3375	536.133	82.0104	536.133	79.979	536.133	82.5658	536.133	81.3665	536.133	83.5184	536.133	83.1002	536.133	84.4243	536.133	84.3543	536.133	84.9623	536.133	84.9668
554.443	88.6284	554.443	88.3659	554.443	88.7493	554.443	87.9835	554.443	88.7349	554.443	87.5451	554.443	88.604	554.443	87.1577	554.443	88.3725	554.443	86.9337	554.443	88.0423	554.443	86.9136	554.443	87.5922	554.443	87.0151	554.443	86.9748	554.443	87.0714	554.443	86.1166	554.443	86.9073	554.443	84.9231	554.443	86.3799	554.443	83.2965	554.443	85.3812	554.443	81.2309	554.443	83.849	554.443	79.227	554.443	81.8806	554.443	78.8152	554.443	80.1611	554.443	80.3335	554.443	80.0577	554.443	82.135	554.443	81.4227	554.443	83.3766	554.443	82.8571	554.443	83.9086	554.443	83.7284
574.219	89.0792	574.219	88.7184	574.219	89.1836	574.219	88.0846	574.219	89.0678	574.219	87.199	574.219	88.7875	574.219	86.1733	574.219	88.4187	574.219	85.2894	574.219	88.0468	574.219	84.9464	574.219	87.7294	574.219	85.2692	574.219	87.4485	574.219	85.9068	574.219	87.0954	574.219	86.4182	574.219	86.4979	574.219	86.5405	574.219	85.4544	574.219	86.1657	574.219	83.7505	574.219	85.2999	574.219	81.2467	574.219	84.1332	574.219	78.6689	574.219	83.2074	574.219	78.9878	574.219	83.1884	574.219	81.5662	574.219	83.9562	574.219	83.668	574.219	84.7774	574.219	84.8262	574.219	85.1456
594.727	90.2835	594.727	90.2129	594.727	90.1478	594.727	89.9125	594.727	89.8208	594.727	89.3517	594.727	89.3115	594.727	88.4954	594.727	88.6328	594.727	87.313	594.727	87.8237	594.727	85.8038	594.727	86.9751	594.727	84.0625	594.727	86.2233	594.727	82.3857	594.727	85.6586	594.727	81.2329	594.727	85.1993	594.727	80.7539	594.727	84.5901	594.727	80.5739	594.727	83.5151	594.727	80.3662	594.727	81.6923	594.727	80.2746	594.727	79.1445	594.727	80.7664	594.727	77.6422	594.727	81.9108	594.727	79.4795	594.727	83.1703	594.727	81.9825	594.727	84.0309	594.727	83.5841	594.727	84.2218
615.234	90.0032	615.234	89.8897	615.234	89.9997	615.234	89.6637	615.234	89.8733	615.234	89.3285	615.234	89.6145	615.234	88.8855	615.234	89.2093	615.234	88.3312	615.234	88.6394	615.234	87.6553	615.234	87.8869	615.234	86.8403	615.234	86.9395	615.234	85.8578	615.234	85.797	615.234	84.6596	615.234	84.4734	615.234	83.1622	615.234	82.9975	615.234	81.2457	615.234	81.4348	615.234	78.8668	615.234	79.9976	615.234	76.71	615.234	79.2234	615.234	76.8839	615.234	79.6293	615.234	79.0698	615.234	80.8428	615.234	81.1307	615.234	82.0665	615.234	82.4447	615.234	82.8421	615.234	82.9947
637.207	89.6864	637.207	89.4794	637.207	89.7361	637.207	89.1069	637.207	89.663	637.207	88.6009	637.207	89.5144	637.207	88.0437	637.207	89.3334	637.207	87.5544	637.207	89.1396	637.207	87.2235	637.207	88.9137	637.207	87.0236	637.207	88.594	637.207	86.7939	637.207	88.0815	637.207	86.3181	637.207	87.2433	637.207	85.4039	637.207	85.9054	637.207	83.9203	637.207	83.828	637.207	81.8459	637.207	80.6834	637.207	79.5106	637.207	76.543	637.207	78.1533	637.207	75.5696	637.207	78.8507	637.207	78.7444	637.207	80.4335	637.207	81.116	637.207	81.732	637.207	82.2389	637.207	82.3828
659.912	90.0719	659.912	89.8856	659.912	90.0047	659.912	89.4553	659.912	89.7022	659.912	88.8235	659.912	89.2193	659.912	88.0825	659.912	88.6645	659.912	87.3884	659.912	88.1974	659.912	86.9173	659.912	87.9559	659.912	86.7274	659.912	87.9286	659.912	86.6573	659.912	87.9241	659.912	86.4173	659.912	87.6797	659.912	85.7382	659.912	86.9586	659.912	84.4304	659.912	85.5627	659.912	82.4374	659.912	83.3527	659.912	80.2591	659.912	80.6385	659.912	79.8033	659.912	79.6044	659.912	81.5935	659.912	81.4881	659.912	83.5631	659.912	83.6061	659.912	84.824	659.912	84.8796	659.912	85.2679
683.35	91.6104	683.35	91.4169	683.35	91.557	683.35	90.9697	683.35	91.271	683.35	90.2758	683.35	90.7689	683.35	89.3656	683.35	90.076	683.35	88.3121	683.35	89.2527	683.35	87.2615	683.35	88.4315	683.35	86.4203	683.35	87.7883	683.35	85.8927	683.35	87.3688	683.35	85.4991	683.35	86.9443	683.35	84.8681	683.35	86.126	683.35	83.6438	683.35	84.5492	683.35	81.6311	683.35	82.0616	683.35	79.4711	683.35	79.8613	683.35	79.8589	683.35	81.0699	683.35	82.5087	683.35	83.7618	683.35	84.8272	683.35	85.6969	683.35	86.2633	683.35	86.696	683.35	86.8705
706.787	92.0946	706.787	91.8371	706.787	92.0907	706.787	91.3249	706.787	91.8384	706.787	90.5943	706.787	91.3616	706.787	89.7254	706.787	90.7008	706.787	88.8726	706.787	89.9452	706.787	88.263	706.787	89.2612	706.787	88.0421	706.787	88.818	706.787	88.0532	706.787	88.5893	706.787	87.9022	706.787	88.2883	706.787	87.1838	706.787	87.5183	706.787	85.5377	706.787	85.8422	706.787	82.5586	706.787	82.5844	706.787	78.0373	706.787	76.1551	706.787	76.7292	706.787	74.3	706.787	80.8076	706.787	81.2573	706.787	83.8558	706.787	84.6227	706.787	85.6064	706.787	86.0935	706.787	86.3444
731.689	92.1753	731.689	91.9592	731.689	92.1318	731.689	91.4701	731.689	91.8415	731.689	90.698	731.689	91.31	731.689	89.6514	731.689	90.5429	731.689	88.4201	731.689	89.5982	731.689	87.3146	731.689	88.6912	731.689	86.85	731.689	88.1967	731.689	87.1332	731.689	88.2494	731.689	87.567	731.689	88.4386	731.689	87.508	731.689	88.1992	731.689	86.5418	731.689	87.0966	731.689	84.2933	731.689	84.686	731.689	80.3622	731.689	80.2216	731.689	77.5609	731.689	75.8104	731.689	81.3644	731.689	80.8041	731.689	84.7674	731.689	84.7333	731.689	86.6076	731.689	86.6638	731.689	87.2165
758.057	92.717	758.057	92.4797	758.057	92.7804	758.057	92.0682	758.057	92.6415	758.057	91.454	758.057	92.2454	758.057	90.5757	758.057	91.5241	758.057	89.3496	758.057	90.4328	758.057	87.7553	758.057	89.0548	758.057	86.1129	758.057	87.8146	758.057	85.3284	758.057	87.3526	758.057	85.6961	758.057	87.5102	758.057	86.0914	758.057	87.3548	758.057	85.5165	758.057	86.1195	758.057	83.3354	758.057	83.103	758.057	78.7002	758.057	77.1329	758.057	75.6917	758.057	76.7908	758.057	81.5653	758.057	82.9606	758.057	85.3984	758.057	86.2515	758.057	87.4008	758.057	87.8121	758.057	88.1542
784.424	91.5789	784.424	91.5204	784.424	91.5969	784.424	91.4134	784.424	91.5399	784.424	91.1991	784.424	91.3421	784.424	90.7776	784.424	90.9235	784.424	90.0542	784.424	90.2158	784.424	89.0293	784.424	89.2192	784.424	87.9216	784.424	88.1137	784.424	87.139	784.424	87.332	784.424	86.8015	784.424	87.158	784.424	86.4257	784.424	87.157	784.424	85.3416	784.424	86.5648	784.424	82.8909	784.424	84.6769	784.424	77.897	784.424	80.2936	784.424	67.4983	784.424	66.0049	784.424	76.1462	784.424	76.6116	784.424	81.5352	784.424	82.7408	784.424	84.1948	784.424	84.9821	784.424	85.3107
812.256	90.9564	812.256	90.916	812.256	90.9775	812.256	90.8143	812.256	90.9781	812.256	90.6004	812.256	90.8916	812.256	90.2388	812.256	90.6114	812.256	89.7356	812.256	90.065	812.256	89.1752	812.256	89.3069	812.256	88.7162	812.256	88.5742	812.256	88.4543	812.256	88.1449	812.256	88.2393	812.256	87.9702	812.256	87.7016	812.256	87.6215	812.256	86.3951	812.256	86.6009	812.256	83.7723	812.256	84.3799	812.256	78.745	812.256	79.898	812.256	69.0091	812.256	69.2281	812.256	76.1162	812.256	76.2979	812.256	81.3181	812.256	82.0726	812.256	83.8229	812.256	84.3537	812.256	84.7975
840.82	91.6796	840.82	91.7514	840.82	91.5853	840.82	91.6586	840.82	91.473	840.82	91.2022	840.82	91.1779	840.82	90.1786	840.82	90.4397	840.82	88.4636	840.82	89.0441	840.82	86.5537	840.82	87.1884	840.82	86.6226	840.82	86.4498	840.82	88.8633	840.82	88.0432	840.82	90.8189	840.82	89.9781	840.82	91.6167	840.82	90.9856	840.82	91.0958	840.82	90.7961	840.82	89.0555	840.82	89.1831	840.82	84.7987	840.82	85.484	840.82	74.5916	840.82	76.8371	840.82	74.5818	840.82	72.7892	840.82	82.3959	840.82	82.0141	840.82	84.9227	840.82	84.8144	840.82	85.5632
870.85	91.5879	870.85	91.701	870.85	91.5944	870.85	91.9021	870.85	91.6854	870.85	92.0484	870.85	91.7573	870.85	91.8689	870.85	91.6041	870.85	90.9822	870.85	90.9074	870.85	88.8532	870.85	89.1973	870.85	84.4635	870.85	85.6087	870.85	76.187	870.85	78.2682	870.85	81.3887	870.85	80.4048	870.85	86.1126	870.85	86.0928	870.85	87.7465	870.85	88.215	870.85	87.2919	870.85	88.036	870.85	84.4279	870.85	85.513	870.85	76.1676	870.85	78.7178	870.85	74.4935	870.85	69.1063	870.85	83.5037	870.85	82.1299	870.85	86.4811	870.85	85.9063	870.85	87.1175
901.611	90.8536	901.611	91.0434	901.611	90.7358	901.611	91.2324	901.611	90.794	901.611	91.3724	901.611	91.0391	901.611	91.353	901.611	91.287	901.611	90.9677	901.611	91.226	901.611	89.9441	901.611	90.5548	901.611	87.962	901.611	89.0453	901.611	84.916	901.611	86.6526	901.611	83.1129	901.611	84.3489	901.611	85.2915	901.611	84.6235	901.611	87.3612	901.611	86.2293	901.611	87.8267	901.611	86.7132	901.611	86.582	901.611	85.1972	901.611	83.1944	901.611	80.427	901.611	76.0584	901.611	63.9539	901.611	76.7386	901.611	78.8666	901.611	82.5649	901.611	83.5419	901.611	84.4621
933.105	91.7269	933.105	91.8022	933.105	91.4465	933.105	91.7252	933.105	91.0825	933.105	91.6389	933.105	90.8276	933.105	91.5704	933.105	90.7154	933.105	91.306	933.105	90.5188	933.105	90.4628	933.105	89.8577	933.105	88.5472	933.105	88.2536	933.105	84.8065	933.105	85.1325	933.105	79.169	933.105	81.3368	933.105	81.9186	933.105	83.0545	933.105	86.0013	933.105	86.0082	933.105	87.4757	933.105	87.053	933.105	86.8552	933.105	86.2815	933.105	83.942	933.105	83.3732	933.105	77.1508	933.105	76.5607	933.105	73.7643	933.105	75.0741	933.105	80.783	933.105	81.33	933.105	82.7966
966.064	91.8502	966.064	91.801	966.064	91.6171	966.064	91.4607	966.064	91.217	966.064	90.9444	966.064	90.817	966.064	90.4319	966.064	90.5295	966.064	89.983	966.064	90.2937	966.064	89.4068	966.064	89.8468	966.064	88.3903	966.064	88.8079	966.064	86.67	966.064	86.8403	966.064	84.1405	966.064	84.0387	966.064	81.4987	966.064	81.9139	966.064	81.3007	966.064	81.8732	966.064	82.8453	966.064	82.0972	966.064	83.2355	966.064	81.1841	966.064	81.3838	966.064	78.3302	966.064	75.6546	966.064	73.1395	966.064	64.8527	966.064	76.0967	966.064	77.3293	966.064	80.1113	966.064	80.5859
999.756	92.0369	999.756	91.9492	999.756	91.6519	999.756	91.3999	999.756	90.9733	999.756	90.5881	999.756	90.2849	999.756	89.7914	999.756	89.7894	999.756	89.1026	999.756	89.4696	999.756	88.3053	999.756	89.0978	999.756	87.142	999.756	88.2728	999.756	85.6635	999.756	86.5542	999.756	84.4508	999.756	84.0668	999.756	84.1526	999.756	82.9951	999.756	84.3845	999.756	84.3613	999.756	84.2651	999.756	85.465	999.756	83.2174	999.756	85.0409	999.756	80.7667	999.756	82.3888	999.756	76.4679	999.756	76.3895	999.756	74.6472	999.756	75.6711	999.756	78.608	999.756	80.0072	999.756	80.721
1,034.91	92.254	1,034.91	92.2313	1,034.91	91.9179	1,034.91	91.8261	1,034.91	91.3007	1,034.91	91.0461	1,034.91	90.5908	1,034.91	89.965	1,034.91	90.0076	1,034.91	88.7209	1,034.91	89.5416	1,034.91	87.3318	1,034.91	88.8765	1,034.91	85.4358	1,034.91	87.5393	1,034.91	82.3199	1,034.91	85.0324	1,034.91	77.7908	1,034.91	81.5035	1,034.91	78.1585	1,034.91	80.674	1,034.91	81.8388	1,034.91	82.949	1,034.91	83.5934	1,034.91	84.0627	1,034.91	83.387	1,034.91	83.1055	1,034.91	81.0978	1,034.91	79.7803	1,034.91	76.8313	1,034.91	76.3689	1,034.91	76.2707	1,034.91	79.4253	1,034.91	79.9778	1,034.91	81.8759	1,034.91	81.9844
1,071.53	92.0592	1,071.53	92.0222	1,071.53	91.7801	1,071.53	91.6402	1,071.53	91.248	1,071.53	90.9489	1,071.53	90.5927	1,071.53	90.1227	1,071.53	89.9911	1,071.53	89.3521	1,071.53	89.5015	1,071.53	88.4749	1,071.53	88.9479	1,071.53	86.9709	1,071.53	87.9854	1,071.53	84.2516	1,071.53	86.1301	1,071.53	79.8611	1,071.53	82.7569	1,071.53	76.1147	1,071.53	78.7894	1,071.53	78.6288	1,071.53	81.2761	1,071.53	81.1238	1,071.53	84.2187	1,071.53	81.5555	1,071.53	84.2936	1,071.53	79.7979	1,071.53	81.2385	1,071.53	76.5891	1,071.53	74.8271	1,071.53	77.5914	1,071.53	76.3238	1,071.53	80.6479	1,071.53	80.3606	1,071.53	81.6436
1,109.62	91.5254	1,109.62	91.4681	1,109.62	91.3028	1,109.62	91.111	1,109.62	90.809	1,109.62	90.4187	1,109.62	90.102	1,109.62	89.4123	1,109.62	89.3788	1,109.62	88.3153	1,109.62	88.8219	1,109.62	87.4321	1,109.62	88.2396	1,109.62	86.6505	1,109.62	87.1499	1,109.62	85.423	1,109.62	85.1358	1,109.62	83.142	1,109.62	82.1271	1,109.62	80.2105	1,109.62	79.5036	1,109.62	80.4179	1,109.62	79.8703	1,109.62	81.6182	1,109.62	80.5969	1,109.62	80.4104	1,109.62	79.218	1,109.62	76.2248	1,109.62	75.3299	1,109.62	68.5606	1,109.62	72.4815	1,109.62	73.6577	1,109.62	76.2926	1,109.62	78.7538	1,109.62	79.5097	1,109.62	80.4311
1,148.44	92.1391	1,148.44	91.9454	1,148.44	91.8888	1,148.44	91.3361	1,148.44	91.1871	1,148.44	90.3397	1,148.44	90.1692	1,148.44	89.1027	1,148.44	89.2094	1,148.44	88.0299	1,148.44	88.7205	1,148.44	87.4736	1,148.44	88.6465	1,148.44	87.1467	1,148.44	88.3317	1,148.44	86.3406	1,148.44	86.9255	1,148.44	84.3217	1,148.44	83.5313	1,148.44	80.1893	1,148.44	76.6171	1,148.44	76.4261	1,148.44	74.0069	1,148.44	80.003	1,148.44	78.9255	1,148.44	81.3053	1,148.44	79.3675	1,148.44	78.8624	1,148.44	76.1164	1,148.44	71.3289	1,148.44	71.185	1,148.44	73.1949	1,148.44	77.1547	1,148.44	79.4496	1,148.44	81.0253	1,148.44	81.6686
1,189.45	92.8368	1,189.45	92.3146	1,189.45	92.8474	1,189.45	91.5148	1,189.45	92.1745	1,189.45	90.5231	1,189.45	90.8625	1,189.45	89.2218	1,189.45	89.2453	1,189.45	87.5844	1,189.45	87.9475	1,189.45	86.2094	1,189.45	87.4915	1,189.45	86.093	1,189.45	87.3573	1,189.45	86.6844	1,189.45	86.402	1,189.45	86.4406	1,189.45	83.9562	1,189.45	84.5079	1,189.45	79.9205	1,189.45	81.55	1,189.45	76.0016	1,189.45	80.641	1,189.45	76.898	1,189.45	80.2895	1,189.45	78.0527	1,189.45	77.553	1,189.45	75.6253	1,189.45	70.8292	1,189.45	64.9546	1,189.45	71.8156	1,189.45	75.0299	1,189.45	77.6848	1,189.45	79.5725	1,189.45	80.0102
1,231.2	93.3393	1,231.2	92.7963	1,231.2	93.3724	1,231.2	91.9931	1,231.2	92.6916	1,231.2	91.0206	1,231.2	91.3182	1,231.2	89.8118	1,231.2	89.5588	1,231.2	88.3867	1,231.2	88.0086	1,231.2	87.0582	1,231.2	87.4931	1,231.2	86.2736	1,231.2	87.8665	1,231.2	85.918	1,231.2	87.6801	1,231.2	85.2675	1,231.2	86.1515	1,231.2	83.9052	1,231.2	83.2178	1,231.2	82.131	1,231.2	78.9563	1,231.2	80.8651	1,231.2	75.0345	1,231.2	80.2486	1,231.2	73.4993	1,231.2	78.5403	1,231.2	70.8124	1,231.2	73.2512	1,231.2	67.5658	1,231.2	71.1006	1,231.2	75.3786	1,231.2	77.2856	1,231.2	79.0024	1,231.2	79.4709
1,274.41	92.9285	1,274.41	92.6461	1,274.41	92.9128	1,274.41	92.186	1,274.41	92.3778	1,274.41	91.4111	1,274.41	91.2637	1,274.41	90.1791	1,274.41	89.7845	1,274.41	88.6586	1,274.41	88.2302	1,274.41	87.2455	1,274.41	86.6932	1,274.41	86.1825	1,274.41	85.5	1,274.41	85.3073	1,274.41	84.7996	1,274.41	83.8296	1,274.41	83.7433	1,274.41	80.9219	1,274.41	81.7495	1,274.41	78.7201	1,274.41	79.7314	1,274.41	80.3163	1,274.41	80.1433	1,274.41	81.5799	1,274.41	80.7509	1,274.41	80.7221	1,274.41	78.7266	1,274.41	76.1739	1,274.41	70.4427	1,274.41	71.8632	1,274.41	69.3233	1,274.41	78.3917	1,274.41	77.6651	1,274.41	79.8657
1,319.82	92.0445	1,319.82	91.9288	1,319.82	92.0518	1,319.82	91.6399	1,319.82	91.7535	1,319.82	90.9321	1,319.82	90.9747	1,319.82	89.7523	1,319.82	89.756	1,319.82	88.3536	1,319.82	88.2701	1,319.82	87.0158	1,319.82	86.746	1,319.82	86.0595	1,319.82	85.6846	1,319.82	85.6896	1,319.82	85.2764	1,319.82	85.0383	1,319.82	84.5747	1,319.82	82.9878	1,319.82	82.257	1,319.82	79.3055	1,319.82	77.8362	1,319.82	76.7267	1,319.82	75.319	1,319.82	77.8411	1,319.82	74.5781	1,319.82	77.9406	1,319.82	71.398	1,319.82	73.8852	1,319.82	66.7294	1,319.82	70.6972	1,319.82	72.3394	1,319.82	77.8074	1,319.82	77.6899	1,319.82	79.5783
1,365.97	91.1851	1,365.97	91.2675	1,365.97	91.2496	1,365.97	91.2485	1,365.97	91.2477	1,365.97	90.8139	1,365.97	90.7462	1,365.97	89.8617	1,365.97	89.622	1,365.97	88.4322	1,365.97	88.1536	1,365.97	86.5287	1,365.97	86.5326	1,365.97	84.2933	1,365.97	84.8318	1,365.97	83.0126	1,365.97	84.086	1,365.97	83.8358	1,365.97	84.4813	1,365.97	84.5157	1,365.97	84.3032	1,365.97	83.7015	1,365.97	82.4083	1,365.97	81.5059	1,365.97	78.5316	1,365.97	79.6681	1,365.97	72.8986	1,365.97	78.9124	1,365.97	68.7548	1,365.97	75.4975	1,365.97	62.4171	1,365.97	68.7598	1,365.97	69.5306	1,365.97	76.9877	1,365.97	77.6159	1,365.97	79.6168
1,414.31	90.94	1,414.31	91.2948	1,414.31	90.6377	1,414.31	91.266	1,414.31	90.5186	1,414.31	90.6218	1,414.31	90.1726	1,414.31	89.5493	1,414.31	89.2033	1,414.31	88.396	1,414.31	87.7244	1,414.31	87.1639	1,414.31	86.1335	1,414.31	85.4165	1,414.31	84.6153	1,414.31	82.4758	1,414.31	83.7864	1,414.31	77.7639	1,414.31	84.1273	1,414.31	74.9608	1,414.31	84.1365	1,414.31	77.7345	1,414.31	82.4029	1,414.31	79.6163	1,414.31	79.5884	1,414.31	80.2239	1,414.31	77.2099	1,414.31	79.7538	1,414.31	74.4729	1,414.31	76.097	1,414.31	66.6958	1,414.31	67.2712	1,414.31	67.6344	1,414.31	75.4106	1,414.31	76.1793	1,414.31	78.0098
1,464.11	91.096	1,464.11	91.4498	1,464.11	90.4459	1,464.11	91.1777	1,464.11	89.8728	1,464.11	90.0903	1,464.11	89.4124	1,464.11	88.518	1,464.11	88.6273	1,464.11	87.2365	1,464.11	87.3245	1,464.11	86.3061	1,464.11	85.7171	1,464.11	84.9041	1,464.11	83.7296	1,464.11	82.7236	1,464.11	81.7147	1,464.11	80.4111	1,464.11	80.9388	1,464.11	78.2387	1,464.11	80.5508	1,464.11	76.9938	1,464.11	79.5711	1,464.11	78.5162	1,464.11	79.8441	1,464.11	78.6143	1,464.11	80.4388	1,464.11	77.9189	1,464.11	79.2094	1,464.11	75.8949	1,464.11	73.3937	1,464.11	70.8914	1,464.11	59.9837	1,464.11	75.9935	1,464.11	74.8919	1,464.11	77.8963
1,515.38	91.3528	1,515.38	91.0761	1,515.38	90.9465	1,515.38	90.2637	1,515.38	89.983	1,515.38	89.1036	1,515.38	89.0138	1,515.38	87.9557	1,515.38	88.1787	1,515.38	86.8539	1,515.38	86.77	1,515.38	85.3909	1,515.38	84.4711	1,515.38	83.6204	1,515.38	82.3133	1,515.38	82.2527	1,515.38	81.6155	1,515.38	81.8676	1,515.38	81.5149	1,515.38	81.079	1,515.38	79.8283	1,515.38	78.9949	1,515.38	77.1837	1,515.38	77.892	1,515.38	78.0333	1,515.38	75.7926	1,515.38	79.5449	1,515.38	74.3947	1,515.38	78.0863	1,515.38	74.6811	1,515.38	73.5833	1,515.38	68.1558	1,515.38	67.3444	1,515.38	74.436	1,515.38	74.8511	1,515.38	77.8378
1,568.85	91.2884	1,568.85	90.6201	1,568.85	91.0049	1,568.85	89.2959	1,568.85	90.0551	1,568.85	88.3058	1,568.85	89.0021	1,568.85	87.9435	1,568.85	87.9631	1,568.85	87.0355	1,568.85	86.3579	1,568.85	85.047	1,568.85	84.3574	1,568.85	82.8639	1,568.85	83.3857	1,568.85	81.146	1,568.85	82.9407	1,568.85	79.8895	1,568.85	81.2778	1,568.85	80.4261	1,568.85	79.1757	1,568.85	81.3093	1,568.85	77.6064	1,568.85	80.9899	1,568.85	75.2385	1,568.85	79.118	1,568.85	76.6534	1,568.85	76.4504	1,568.85	78.335	1,568.85	76.4174	1,568.85	76.0936	1,568.85	72.015	1,568.85	70.2694	1,568.85	71.786	1,568.85	74.3851	1,568.85	77.0819
1,624.51	90.3872	1,624.51	89.7125	1,624.51	90.5222	1,624.51	89.1199	1,624.51	89.7652	1,624.51	88.7064	1,624.51	88.4999	1,624.51	88.0062	1,624.51	87.2577	1,624.51	86.58	1,624.51	85.654	1,624.51	84.6436	1,624.51	83.7392	1,624.51	83.4302	1,624.51	82.7953	1,624.51	82.8869	1,624.51	81.7959	1,624.51	81.0727	1,624.51	79.6584	1,624.51	76.2992	1,624.51	79.7929	1,624.51	75.1833	1,624.51	80.0794	1,624.51	79.3016	1,624.51	77.6054	1,624.51	79.4034	1,624.51	77.5262	1,624.51	76.641	1,624.51	78.1528	1,624.51	76.5888	1,624.51	75.5064	1,624.51	74.5414	1,624.51	72.2312	1,624.51	69.5653	1,624.51	75.4884	1,624.51	75.9919
1,681.64	89.3312	1,681.64	88.9962	1,681.64	89.9025	1,681.64	89.1574	1,681.64	89.7823	1,681.64	89.0192	1,681.64	88.8446	1,681.64	88.103	1,681.64	87.5946	1,681.64	86.3869	1,681.64	85.8843	1,681.64	83.9151	1,681.64	83.5453	1,681.64	82.2433	1,681.64	82.655	1,681.64	83.297	1,681.64	83.3831	1,681.64	83.7374	1,681.64	82.2071	1,681.64	80.6935	1,681.64	79.9463	1,681.64	74.3807	1,681.64	79.3168	1,681.64	73.8391	1,681.64	77.6449	1,681.64	75.5984	1,681.64	77.7523	1,681.64	74.1913	1,681.64	77.3585	1,681.64	74.8056	1,681.64	74.614	1,681.64	74.1273	1,681.64	74.2445	1,681.64	70.6488	1,681.64	75.0585	1,681.64	74.3794
1,740.97	89.521	1,740.97	89.6767	1,740.97	89.5193	1,740.97	89.6057	1,740.97	89.3817	1,740.97	88.9816	1,740.97	88.5895	1,740.97	87.8462	1,740.97	87.2449	1,740.97	86.4867	1,740.97	85.836	1,740.97	85.1457	1,740.97	84.2129	1,740.97	83.4886	1,740.97	82.5353	1,740.97	82.541	1,740.97	82.5092	1,740.97	83.1122	1,740.97	82.4229	1,740.97	81.8535	1,740.97	79.7609	1,740.97	78.2181	1,740.97	74.148	1,740.97	76.2571	1,740.97	73.1688	1,740.97	76.974	1,740.97	73.5833	1,740.97	72.9681	1,740.97	73.2956	1,740.97	69.8915	1,740.97	69.7487	1,740.97	73.9507	1,740.97	71.9426	1,740.97	73.7734	1,740.97	77.2238	1,740.97	77.183
1,802.49	89.9031	1,802.49	89.8987	1,802.49	89.5691	1,802.49	89.4879	1,802.49	88.9501	1,802.49	88.512	1,802.49	88.0016	1,802.49	86.8876	1,802.49	86.6319	1,802.49	85.6743	1,802.49	85.2608	1,802.49	85.1492	1,802.49	84.194	1,802.49	83.7582	1,802.49	82.4455	1,802.49	81.7157	1,802.49	80.98	1,802.49	79.8669	1,802.49	81.6609	1,802.49	78.4167	1,802.49	81.1088	1,802.49	76.4469	1,802.49	77.3869	1,802.49	74.145	1,802.49	74.4424	1,802.49	77.0239	1,802.49	74.2758	1,802.49	75.3607	1,802.49	72.7015	1,802.49	67.5653	1,802.49	71.72	1,802.49	74.6434	1,802.49	74.1839	1,802.49	74.7364	1,802.49	77.8131	1,802.49	77.1569
1,866.21	90.0447	1,866.21	90.0544	1,866.21	89.9452	1,866.21	89.5765	1,866.21	89.5996	1,866.21	88.24	1,866.21	88.7847	1,866.21	86.5774	1,866.21	87.4024	1,866.21	85.8065	1,866.21	85.6992	1,866.21	85.1607	1,866.21	84.2462	1,866.21	82.7396	1,866.21	82.4126	1,866.21	78.9719	1,866.21	80.1674	1,866.21	78.5213	1,866.21	80.5771	1,866.21	78.8887	1,866.21	81.4856	1,866.21	77.9254	1,866.21	80.2923	1,866.21	74.9833	1,866.21	77.2166	1,866.21	76.2238	1,866.21	75.1254	1,866.21	76.9832	1,866.21	75.475	1,866.21	70.4686	1,866.21	72.1057	1,866.21	71.0941	1,866.21	70.6787	1,866.21	71.5245	1,866.21	75.2802	1,866.21	74.3542
1,932.13	89.5783	1,932.13	89.9594	1,932.13	89.365	1,932.13	89.3681	1,932.13	89.4878	1,932.13	87.8392	1,932.13	88.871	1,932.13	86.6854	1,932.13	87.4485	1,932.13	86.0006	1,932.13	86.1818	1,932.13	84.8501	1,932.13	85.0936	1,932.13	83.6118	1,932.13	83.0833	1,932.13	81.4779	1,932.13	81.3364	1,932.13	77.5316	1,932.13	82.5433	1,932.13	77.8274	1,932.13	82.4716	1,932.13	80.7351	1,932.13	79.7432	1,932.13	79.0634	1,932.13	77.423	1,932.13	75.7214	1,932.13	73.5427	1,932.13	76.9609	1,932.13	75.6683	1,932.13	74.046	1,932.13	75.0927	1,932.13	67.504	1,932.13	66.8991	1,932.13	71.1346	1,932.13	72.7433	1,932.13	73.2278
2,000.24	89.7149	2,000.24	89.7517	2,000.24	88.9412	2,000.24	88.5361	2,000.24	88.9685	2,000.24	87.3993	2,000.24	88.8137	2,000.24	87.3527	2,000.24	87.5512	2,000.24	86.6473	2,000.24	85.7627	2,000.24	84.2334	2,000.24	84.0104	2,000.24	82.1212	2,000.24	82.445	2,000.24	81.5865	2,000.24	81.4584	2,000.24	81.8146	2,000.24	81.1349	2,000.24	80.0637	2,000.24	80.9803	2,000.24	78.3629	2,000.24	81.2652	2,000.24	78.909	2,000.24	80.52	2,000.24	74.924	2,000.24	74.614	2,000.24	74.1581	2,000.24	74.2869	2,000.24	72.7477	2,000.24	73.8755	2,000.24	67.1072	2,000.24	67.3918	2,000.24	68.8187	2,000.24	72.0043	2,000.24	72.5584
2,070.56	90.3945	2,070.56	89.8535	2,070.56	89.4914	2,070.56	88.9814	2,070.56	88.2026	2,070.56	88.4073	2,070.56	87.9541	2,070.56	88.0619	2,070.56	87.5496	2,070.56	87.1466	2,070.56	86.7976	2,070.56	85.5367	2,070.56	85.3782	2,070.56	85.1166	2,070.56	82.8299	2,070.56	83.7534	2,070.56	81.2174	2,070.56	81.2592	2,070.56	79.9527	2,070.56	79.5237	2,070.56	77.859	2,070.56	73.9036	2,070.56	79.5742	2,070.56	76.487	2,070.56	80.2665	2,070.56	76.2726	2,070.56	73.994	2,070.56	74.7152	2,070.56	73.4254	2,070.56	74.3026	2,070.56	75.2779	2,070.56	69.9783	2,070.56	72.1655	2,070.56	71.5561	2,070.56	75.2805	2,070.56	73.3498
2,143.8	89.7966	2,143.8	89.4189	2,143.8	89.6472	2,143.8	89.237	2,143.8	88.5399	2,143.8	88.9008	2,143.8	87.4527	2,143.8	88.281	2,143.8	86.8542	2,143.8	86.5137	2,143.8	86.6495	2,143.8	84.7557	2,143.8	85.7365	2,143.8	84.3265	2,143.8	83.9357	2,143.8	82.7842	2,143.8	82.7303	2,143.8	81.0161	2,143.8	81.1052	2,143.8	79.9517	2,143.8	78.0067	2,143.8	73.3945	2,143.8	78.1164	2,143.8	70.5713	2,143.8	78.8543	2,143.8	76.0921	2,143.8	73.2826	2,143.8	73.3917	2,143.8	71.1153	2,143.8	74.3844	2,143.8	72.7015	2,143.8	67.4855	2,143.8	67.0247	2,143.8	69.632	2,143.8	73.1316	2,143.8	73.0338
2,219.24	88.4551	2,219.24	88.3937	2,219.24	88.6927	2,219.24	88.5711	2,219.24	88.2935	2,219.24	88.6288	2,219.24	87.6315	2,219.24	87.8505	2,219.24	86.8168	2,219.24	85.2421	2,219.24	85.6153	2,219.24	83.9094	2,219.24	84.2349	2,219.24	83.7699	2,219.24	83.0664	2,219.24	82.2151	2,219.24	81.6317	2,219.24	80.5356	2,219.24	80.2416	2,219.24	80.8057	2,219.24	79.1804	2,219.24	78.4786	2,219.24	77.5252	2,219.24	72.3301	2,219.24	76.3447	2,219.24	75.5081	2,219.24	73.6764	2,219.24	74.5669	2,219.24	72.0878	2,219.24	75.25	2,219.24	72.8786	2,219.24	72.9213	2,219.24	65.79	2,219.24	63.7515	2,219.24	70.4028	2,219.24	73.7485
2,297.61	88.5023	2,297.61	87.9169	2,297.61	88.1267	2,297.61	87.7964	2,297.61	87.0841	2,297.61	88.2004	2,297.61	86.6262	2,297.61	87.3983	2,297.61	86.4312	2,297.61	86.109	2,297.61	85.6698	2,297.61	85.4841	2,297.61	84.5635	2,297.61	82.2218	2,297.61	83.5474	2,297.61	78.5827	2,297.61	81.4351	2,297.61	77.5845	2,297.61	80.0864	2,297.61	77.0925	2,297.61	79.4694	2,297.61	78.5773	2,297.61	75.9301	2,297.61	75.355	2,297.61	75.5339	2,297.61	75.5357	2,297.61	75.5832	2,297.61	72.6537	2,297.61	73.1544	2,297.61	72.0258	2,297.61	73.3983	2,297.61	72.3192	2,297.61	68.5771	2,297.61	64.2052	2,297.61	69.6775	2,297.61	71.5594
2,378.17	87.8355	2,378.17	88.1927	2,378.17	87.9718	2,378.17	87.4904	2,378.17	87.5897	2,378.17	86.3973	2,378.17	86.4783	2,378.17	86.3338	2,378.17	86.0887	2,378.17	86.0385	2,378.17	85.2212	2,378.17	84.9632	2,378.17	83.5178	2,378.17	82.8503	2,378.17	83.472	2,378.17	80.0439	2,378.17	81.6009	2,378.17	78.9355	2,378.17	78.548	2,378.17	80.2854	2,378.17	80.8778	2,378.17	80.2819	2,378.17	78.3505	2,378.17	77.3247	2,378.17	65.7176	2,378.17	74.0197	2,378.17	70.6176	2,378.17	73.0048	2,378.17	71.919	2,378.17	72.1037	2,378.17	71.5423	2,378.17	72.4302	2,378.17	67.5106	2,378.17	62.8294	2,378.17	69.9495	2,378.17	71.3576
2,462.4	86.7667	2,462.4	87.2005	2,462.4	87.2922	2,462.4	87.5353	2,462.4	87.5498	2,462.4	87.0323	2,462.4	86.2539	2,462.4	87.0235	2,462.4	85.2949	2,462.4	86.5721	2,462.4	85.1049	2,462.4	83.2294	2,462.4	83.2999	2,462.4	82.8194	2,462.4	81.8251	2,462.4	81.4446	2,462.4	81.1995	2,462.4	78.3625	2,462.4	80.0632	2,462.4	77.8978	2,462.4	77.3546	2,462.4	77.4833	2,462.4	74.1785	2,462.4	76.2377	2,462.4	75.225	2,462.4	72.9465	2,462.4	74.8463	2,462.4	75.6356	2,462.4	71.5626	2,462.4	71.5821	2,462.4	69.8284	2,462.4	72.823	2,462.4	65.972	2,462.4	61.1732	2,462.4	68.057	2,462.4	70.578
2,548.83	86.0942	2,548.83	86.6161	2,548.83	86.1834	2,548.83	87.08	2,548.83	87.2374	2,548.83	87.9929	2,548.83	87.2537	2,548.83	87.1777	2,548.83	85.68	2,548.83	84.4833	2,548.83	84.8213	2,548.83	84.2302	2,548.83	83.6205	2,548.83	81.4783	2,548.83	82.3339	2,548.83	79.5566	2,548.83	82.6111	2,548.83	80.5156	2,548.83	80.3973	2,548.83	77.9469	2,548.83	78.9881	2,548.83	76.4964	2,548.83	80.2072	2,548.83	75.4313	2,548.83	73.201	2,548.83	73.352	2,548.83	72.5602	2,548.83	74.068	2,548.83	71.9737	2,548.83	70.5763	2,548.83	71.2745	2,548.83	71.9508	2,548.83	67.6219	2,548.83	60.553	2,548.83	65.5925	2,548.83	67.4331
2,638.92	86.2548	2,638.92	86.1631	2,638.92	86.0933	2,638.92	86.7447	2,638.92	86.5652	2,638.92	87.1098	2,638.92	87.1806	2,638.92	86.0802	2,638.92	86.2842	2,638.92	85.4392	2,638.92	85.0616	2,638.92	83.9829	2,638.92	83.9875	2,638.92	83.2511	2,638.92	81.5633	2,638.92	82.5462	2,638.92	79.4945	2,638.92	79.9452	2,638.92	75.6802	2,638.92	76.5428	2,638.92	77.5992	2,638.92	74.6993	2,638.92	81.4334	2,638.92	74.601	2,638.92	79.833	2,638.92	72.3162	2,638.92	74.8738	2,638.92	73.7683	2,638.92	72.3278	2,638.92	70.9433	2,638.92	73.197	2,638.92	72.5035	2,638.92	68.9035	2,638.92	58.6142	2,638.92	73.3248	2,638.92	72.5737
2,731.93	86.6159	2,731.93	87.0073	2,731.93	87.0266	2,731.93	86.702	2,731.93	87.2581	2,731.93	86.0146	2,731.93	87.2801	2,731.93	86.7066	2,731.93	86.2747	2,731.93	84.5836	2,731.93	84.8178	2,731.93	83.4879	2,731.93	83.2858	2,731.93	81.7255	2,731.93	81.3658	2,731.93	79.2753	2,731.93	79.3021	2,731.93	77.6543	2,731.93	78.7705	2,731.93	74.3814	2,731.93	82.4748	2,731.93	75.203	2,731.93	82.1566	2,731.93	74.9208	2,731.93	77.7728	2,731.93	72.5554	2,731.93	74.229	2,731.93	73.5799	2,731.93	72.3804	2,731.93	71.3579	2,731.93	72.432	2,731.93	72.2051	2,731.93	69.1899	2,731.93	65.7255	2,731.93	62.7514	2,731.93	66.4015
2,828.61	86.7451	2,828.61	86.9909	2,828.61	86.6696	2,828.61	86.9384	2,828.61	87.3273	2,828.61	87.7529	2,828.61	87.8852	2,828.61	86.7434	2,828.61	87.4914	2,828.61	86.211	2,828.61	85.9602	2,828.61	84.6478	2,828.61	84.4604	2,828.61	81.9214	2,828.61	82.1918	2,828.61	77.4118	2,828.61	76.5042	2,828.61	75.7911	2,828.61	77.6934	2,828.61	77.7099	2,828.61	83.4109	2,828.61	76.0981	2,828.61	82.8502	2,828.61	76.015	2,828.61	74.838	2,828.61	72.5636	2,828.61	74.6351	2,828.61	74.602	2,828.61	71.5799	2,828.61	72.5158	2,828.61	75.3392	2,828.61	73.991	2,828.61	71.4096	2,828.61	64.0713	2,828.61	72.3601	2,828.61	73.087
2,928.22	86.5286	2,928.22	86.6475	2,928.22	86.598	2,928.22	87.4837	2,928.22	87.7801	2,928.22	88.1487	2,928.22	87.962	2,928.22	86.5217	2,928.22	87.9264	2,928.22	86.2698	2,928.22	86.1636	2,928.22	84.4549	2,928.22	82.5796	2,928.22	82.2891	2,928.22	80.7763	2,928.22	81.0184	2,928.22	77.315	2,928.22	81.0707	2,928.22	81.9873	2,928.22	77.9727	2,928.22	84.2434	2,928.22	73.6048	2,928.22	79.2422	2,928.22	74.3726	2,928.22	76.4045	2,928.22	72.5243	2,928.22	75.7901	2,928.22	73.428	2,928.22	72.5769	2,928.22	73.3403	2,928.22	71.0728	2,928.22	73.1845	2,928.22	71.828	2,928.22	67.6209	2,928.22	69.6613	2,928.22	71.6348
3,031.49	87.3522	3,031.49	87.2534	3,031.49	87.0372	3,031.49	88.0666	3,031.49	88.1549	3,031.49	86.957	3,031.49	88.6215	3,031.49	87.2922	3,031.49	87.8988	3,031.49	86.2022	3,031.49	86.2655	3,031.49	83.9688	3,031.49	83.5472	3,031.49	82.3897	3,031.49	79.5721	3,031.49	82.9215	3,031.49	79.7785	3,031.49	79.5427	3,031.49	83.2502	3,031.49	76.6733	3,031.49	83.7844	3,031.49	72.9891	3,031.49	73.5182	3,031.49	74.1056	3,031.49	78.9126	3,031.49	73.1735	3,031.49	78.3343	3,031.49	72.7027	3,031.49	74.6735	3,031.49	71.3065	3,031.49	71.9642	3,031.49	72.4369	3,031.49	72.9368	3,031.49	65.1826	3,031.49	68.9243	3,031.49	69.1677
3,138.43	87.731	3,138.43	88.2099	3,138.43	87.6752	3,138.43	87.8806	3,138.43	88.1131	3,138.43	88.1032	3,138.43	89.0312	3,138.43	88.5144	3,138.43	88.3187	3,138.43	87.3471	3,138.43	87.0802	3,138.43	85.6831	3,138.43	85.4448	3,138.43	85.1608	3,138.43	81.0431	3,138.43	82.4999	3,138.43	79.7475	3,138.43	77.2534	3,138.43	82.551	3,138.43	77.0793	3,138.43	83.1619	3,138.43	76.1178	3,138.43	79.3204	3,138.43	74.278	3,138.43	79.5782	3,138.43	72.953	3,138.43	78.2109	3,138.43	72.7844	3,138.43	75.3222	3,138.43	73.5258	3,138.43	70.2938	3,138.43	73.4001	3,138.43	72.2936	3,138.43	72.3696	3,138.43	66.7785	3,138.43	70.3686
3,249.02	88.4213	3,249.02	87.7854	3,249.02	88.5179	3,249.02	87.9227	3,249.02	88.6607	3,249.02	88.9849	3,249.02	89.4115	3,249.02	88.5233	3,249.02	89.2576	3,249.02	88.4884	3,249.02	87.4561	3,249.02	86.2352	3,249.02	86.4758	3,249.02	84.3547	3,249.02	85.0593	3,249.02	78.7803	3,249.02	83.2551	3,249.02	79.5892	3,249.02	82.4951	3,249.02	77.7413	3,249.02	81.9395	3,249.02	76.2004	3,249.02	77.4126	3,249.02	71.433	3,249.02	78.9684	3,249.02	74.8969	3,249.02	71.8748	3,249.02	71.0346	3,249.02	76.4564	3,249.02	74.0742	3,249.02	69.7558	3,249.02	72.6773	3,249.02	71.9506	3,249.02	72.6976	3,249.02	68.1443	3,249.02	65.2673
3,363.28	87.3942	3,363.28	86.8899	3,363.28	88.326	3,363.28	88.4167	3,363.28	88.8026	3,363.28	89.3574	3,363.28	89.5225	3,363.28	90.0162	3,363.28	89.402	3,363.28	87.1673	3,363.28	87.7105	3,363.28	86.8494	3,363.28	86.4974	3,363.28	82.3685	3,363.28	85.657	3,363.28	82.9622	3,363.28	84.2064	3,363.28	81.1996	3,363.28	82.2037	3,363.28	77.8314	3,363.28	81.3857	3,363.28	76.5066	3,363.28	79.5904	3,363.28	74.7969	3,363.28	75.3983	3,363.28	74.3861	3,363.28	75.6681	3,363.28	71.6882	3,363.28	75.296	3,363.28	74.4461	3,363.28	69.3965	3,363.28	69.1756	3,363.28	74.9051	3,363.28	72.1067	3,363.28	70.0243	3,363.28	67.5942
3,481.93	87.396	3,481.93	87.1278	3,481.93	88.4741	3,481.93	88.8914	3,481.93	89.2235	3,481.93	89.779	3,481.93	90.1808	3,481.93	89.4513	3,481.93	89.7378	3,481.93	88.2554	3,481.93	88.2455	3,481.93	86.5531	3,481.93	86.9028	3,481.93	83.9173	3,481.93	85.9889	3,481.93	84.4474	3,481.93	82.6524	3,481.93	78.8574	3,481.93	77.8559	3,481.93	79.2496	3,481.93	77.5292	3,481.93	77.1667	3,481.93	79.7743	3,481.93	74.6059	3,481.93	78.0647	3,481.93	72.1154	3,481.93	77.8618	3,481.93	72.407	3,481.93	76.3473	3,481.93	74.4326	3,481.93	72.5236	3,481.93	70.8269	3,481.93	72.8838	3,481.93	71.1033	3,481.93	70.3252	3,481.93	63.1235
3,604.98	87.3767	3,604.98	88.3773	3,604.98	88.9249	3,604.98	89.6064	3,604.98	89.0733	3,604.98	89.8454	3,604.98	89.9875	3,604.98	89.6312	3,604.98	90.0778	3,604.98	88.4142	3,604.98	88.4949	3,604.98	84.8018	3,604.98	87.4518	3,604.98	85.5548	3,604.98	85.4046	3,604.98	80.8358	3,604.98	79.2893	3,604.98	80.5187	3,604.98	67.1588	3,604.98	77.6458	3,604.98	67.2722	3,604.98	76.7781	3,604.98	76.1802	3,604.98	72.3297	3,604.98	75.53	3,604.98	71.9143	3,604.98	78.4673	3,604.98	73.3322	3,604.98	75.3749	3,604.98	73.1795	3,604.98	72.8412	3,604.98	72.1591	3,604.98	73.2354	3,604.98	72.4764	3,604.98	70.6563	3,604.98	62.7733
3,732.42	87.1001	3,732.42	89.1655	3,732.42	88.5947	3,732.42	89.4615	3,732.42	89.4688	3,732.42	90.2991	3,732.42	89.4432	3,732.42	88.8492	3,732.42	89.8789	3,732.42	87.1522	3,732.42	88.77	3,732.42	85.5054	3,732.42	86.6355	3,732.42	84.1702	3,732.42	84.9811	3,732.42	80.2505	3,732.42	80.3521	3,732.42	80.0532	3,732.42	72.8769	3,732.42	77.6691	3,732.42	71.3748	3,732.42	76.9758	3,732.42	76.2496	3,732.42	75.1163	3,732.42	77.9548	3,732.42	72.5098	3,732.42	76.0226	3,732.42	71.9143	3,732.42	74.1974	3,732.42	73.7929	3,732.42	73.6178	3,732.42	70.2802	3,732.42	73.6654	3,732.42	72.453	3,732.42	68.882	3,732.42	57.7976
3,863.53	88.3155	3,863.53	89.4195	3,863.53	88.1722	3,863.53	89.2843	3,863.53	89.1058	3,863.53	89.9462	3,863.53	89.3665	3,863.53	88.5558	3,863.53	89.5422	3,863.53	88.3492	3,863.53	88.5172	3,863.53	87.6441	3,863.53	85.1956	3,863.53	83.7457	3,863.53	83.2482	3,863.53	83.9237	3,863.53	81.012	3,863.53	81.385	3,863.53	76.3753	3,863.53	79.2205	3,863.53	79.0699	3,863.53	77.1214	3,863.53	83.3125	3,863.53	75.005	3,863.53	81.564	3,863.53	73.3673	3,863.53	73.3359	3,863.53	71.8296	3,863.53	73.7931	3,863.53	73.424	3,863.53	73.7206	3,863.53	69.255	3,863.53	74.0973	3,863.53	71.1717	3,863.53	70.3835	3,863.53	68.8123
3,999.76	89.566	3,999.76	89.7906	3,999.76	88.0759	3,999.76	89.7225	3,999.76	88.8754	3,999.76	88.3488	3,999.76	88.519	3,999.76	89.2451	3,999.76	89.3316	3,999.76	87.1217	3,999.76	89.1087	3,999.76	87.0149	3,999.76	85.1706	3,999.76	85.4824	3,999.76	80.4697	3,999.76	84.4254	3,999.76	76.9116	3,999.76	79.8209	3,999.76	61.9996	3,999.76	78.7085	3,999.76	77.2595	3,999.76	76.1691	3,999.76	85.8159	3,999.76	74.3299	3,999.76	79.2442	3,999.76	73.5523	3,999.76	70.4491	3,999.76	71.6498	3,999.76	75.1845	3,999.76	73.6736	3,999.76	74.2269	3,999.76	72.3522	3,999.76	75.2676	3,999.76	69.3264	3,999.76	71.2745	3,999.76	70.0629
4,141.11	89.7442	4,141.11	90.107	4,141.11	88.4436	4,141.11	88.8633	4,141.11	88.3211	4,141.11	88.8864	4,141.11	88.3437	4,141.11	87.8374	4,141.11	88.4788	4,141.11	88.7651	4,141.11	88.483	4,141.11	85.6662	4,141.11	86.4654	4,141.11	86.8154	4,141.11	81.3946	4,141.11	77.3949	4,141.11	72.0771	4,141.11	79.864	4,141.11	77.1629	4,141.11	75.0534	4,141.11	80.6412	4,141.11	76.4359	4,141.11	85.0306	4,141.11	74.9056	4,141.11	73.1639	4,141.11	72.7152	4,141.11	78.7907	4,141.11	71.6692	4,141.11	73.4892	4,141.11	73.7584	4,141.11	69.4692	4,141.11	72.2028	4,141.11	74.8732	4,141.11	71.3422	4,141.11	69.8093	4,141.11	70.0074
4,286.87	90.977	4,286.87	90.3351	4,286.87	89.527	4,286.87	88.2656	4,286.87	88.3083	4,286.87	88.2869	4,286.87	88.3172	4,286.87	88.0437	4,286.87	88.2065	4,286.87	88.0287	4,286.87	87.6123	4,286.87	87.2826	4,286.87	86.5657	4,286.87	82.9064	4,286.87	80.3385	4,286.87	83.5406	4,286.87	79.1121	4,286.87	80.315	4,286.87	79.4633	4,286.87	77.3201	4,286.87	78.8736	4,286.87	73.6329	4,286.87	80.5494	4,286.87	73.6232	4,286.87	76.4481	4,286.87	71.2852	4,286.87	78.4248	4,286.87	72.7658	4,286.87	69.8634	4,286.87	70.7236	4,286.87	68.7319	4,286.87	72.3715	4,286.87	74.0303	4,286.87	70.4902	4,286.87	67.5813	4,286.87	66.7786
4,438.48	91.107	4,438.48	90.4742	4,438.48	90.2322	4,438.48	88.9266	4,438.48	88.9902	4,438.48	87.7357	4,438.48	88.6808	4,438.48	88.6052	4,438.48	87.2323	4,438.48	87.2103	4,438.48	87.2862	4,438.48	86.0157	4,438.48	86.1343	4,438.48	83.1892	4,438.48	80.7958	4,438.48	82.1316	4,438.48	83.5564	4,438.48	75.6457	4,438.48	79.9037	4,438.48	77.877	4,438.48	77.9838	4,438.48	73.8273	4,438.48	73.0763	4,438.48	71.5224	4,438.48	78.5858	4,438.48	70.9612	4,438.48	72.9335	4,438.48	71.2013	4,438.48	64.0807	4,438.48	69.0317	4,438.48	67.1518	4,438.48	70.9031	4,438.48	67.7897	4,438.48	71.8595	4,438.48	65.5133	4,438.48	63.6847
4,594.48	91.5112	4,594.48	89.577	4,594.48	89.4594	4,594.48	88.2314	4,594.48	87.7222	4,594.48	87.9017	4,594.48	87.6048	4,594.48	88.3581	4,594.48	86.3836	4,594.48	87.7012	4,594.48	87.05	4,594.48	84.7128	4,594.48	83.6318	4,594.48	86.8183	4,594.48	84.0789	4,594.48	77.564	4,594.48	86.011	4,594.48	81.4494	4,594.48	76.9409	4,594.48	74.204	4,594.48	76.9577	4,594.48	76.4466	4,594.48	75.4649	4,594.48	71.8208	4,594.48	77.9638	4,594.48	72.6722	4,594.48	67.6989	4,594.48	63.3907	4,594.48	71.6718	4,594.48	72.8883	4,594.48	67.6607	4,594.48	68.4565	4,594.48	71.8275	4,594.48	71.8857	4,594.48	68.9489	4,594.48	62.49
4,757.08	90.2023	4,757.08	88.691	4,757.08	89.8741	4,757.08	86.4882	4,757.08	86.2309	4,757.08	88.2243	4,757.08	87.097	4,757.08	88.1444	4,757.08	87.8972	4,757.08	87.5622	4,757.08	86.7153	4,757.08	86.6957	4,757.08	82.7013	4,757.08	81.9086	4,757.08	85.3413	4,757.08	83.9121	4,757.08	85.5647	4,757.08	76.2521	4,757.08	75.3418	4,757.08	78.3505	4,757.08	80.48	4,757.08	73.1648	4,757.08	64.1853	4,757.08	71.9798	4,757.08	73.2736	4,757.08	69.0158	4,757.08	73.545	4,757.08	69.9615	4,757.08	71.817	4,757.08	71.1263	4,757.08	64.7053	4,757.08	72.4331	4,757.08	74.2772	4,757.08	68.603	4,757.08	69.9558	4,757.08	64.5751
4,924.8	89.9861	4,924.8	88.6385	4,924.8	90.4958	4,924.8	88.2903	4,924.8	86.9364	4,924.8	89.0179	4,924.8	87.7327	4,924.8	88.6868	4,924.8	88.654	4,924.8	87.765	4,924.8	86.724	4,924.8	86.7688	4,924.8	85.9089	4,924.8	85.5091	4,924.8	89.1607	4,924.8	83.3353	4,924.8	84.5124	4,924.8	80.7686	4,924.8	80.9646	4,924.8	77.1504	4,924.8	77.2686	4,924.8	74.5048	4,924.8	66.1379	4,924.8	71.9013	4,924.8	70.8778	4,924.8	74.102	4,924.8	68.5776	4,924.8	70.5059	4,924.8	61.5497	4,924.8	70.0788	4,924.8	64.3198	4,924.8	71.6921	4,924.8	71.1786	4,924.8	63.378	4,924.8	69.4596	4,924.8	67.6896
5,098.39	89.9724	5,098.39	88.447	5,098.39	90.5404	5,098.39	89.225	5,098.39	89.3668	5,098.39	88.1178	5,098.39	87.1632	5,098.39	88.6862	5,098.39	88.9562	5,098.39	88.1619	5,098.39	87.4206	5,098.39	86.6321	5,098.39	87.3075	5,098.39	86.9993	5,098.39	89.229	5,098.39	80.231	5,098.39	82.8644	5,098.39	79.473	5,098.39	81.7876	5,098.39	76.7327	5,098.39	73.5662	5,098.39	74.1601	5,098.39	71.0221	5,098.39	73.5886	5,098.39	67.3903	5,098.39	71.8257	5,098.39	69.3384	5,098.39	70.8675	5,098.39	64.2238	5,098.39	68.9888	5,098.39	69.9335	5,098.39	68.0486	5,098.39	64.912	5,098.39	67.6449	5,098.39	49.4874	5,098.39	63.5896
5,277.83	88.5312	5,277.83	89.0345	5,277.83	90.0902	5,277.83	88.4247	5,277.83	89.689	5,277.83	88.2029	5,277.83	87.6949	5,277.83	88.1942	5,277.83	88.7049	5,277.83	87.9641	5,277.83	88.6553	5,277.83	86.8894	5,277.83	88.9721	5,277.83	82.449	5,277.83	86.965	5,277.83	83.9895	5,277.83	81.2611	5,277.83	79.6299	5,277.83	78.7382	5,277.83	78.2835	5,277.83	73.0973	5,277.83	73.9689	5,277.83	72.6573	5,277.83	73.4164	5,277.83	61.253	5,277.83	73.0744	5,277.83	68.6388	5,277.83	70.8743	5,277.83	59.8681	5,277.83	68.888	5,277.83	61.4164	5,277.83	69.4582	5,277.83	67.6683	5,277.83	71.9829	5,277.83	65.9232	5,277.83	61.8711
5,463.87	88.8763	5,463.87	89.8351	5,463.87	89.2221	5,463.87	88.6553	5,463.87	89.2361	5,463.87	88.0412	5,463.87	88.489	5,463.87	88.9128	5,463.87	88.1175	5,463.87	87.9876	5,463.87	88.9278	5,463.87	86.265	5,463.87	88.3916	5,463.87	85.9068	5,463.87	84.5554	5,463.87	82.9428	5,463.87	80.2695	5,463.87	78.6271	5,463.87	76.4721	5,463.87	76.1027	5,463.87	67.4736	5,463.87	74.5224	5,463.87	72.722	5,463.87	72.0471	5,463.87	70.9752	5,463.87	70.0226	5,463.87	66.7088	5,463.87	67.2004	5,463.87	68.2124	5,463.87	71.2493	5,463.87	64.5202	5,463.87	71.3236	5,463.87	65.238	5,463.87	70.2668	5,463.87	63.9193	5,463.87	58.376
5,656.49	89.58	5,656.49	89.4245	5,656.49	88.4703	5,656.49	89.3819	5,656.49	89.2951	5,656.49	87.853	5,656.49	88.4975	5,656.49	88.7532	5,656.49	88.2414	5,656.49	88.1808	5,656.49	88.6212	5,656.49	85.4324	5,656.49	87.9182	5,656.49	83.2455	5,656.49	84.1518	5,656.49	79.41	5,656.49	81.1669	5,656.49	78.6914	5,656.49	78.7537	5,656.49	75.4337	5,656.49	68.2951	5,656.49	73.1613	5,656.49	73.9075	5,656.49	71.8176	5,656.49	69.2636	5,656.49	67.5656	5,656.49	71.2185	5,656.49	69.9262	5,656.49	65.4951	5,656.49	70.1087	5,656.49	63.5382	5,656.49	70.9013	5,656.49	66.9182	5,656.49	66.3413	5,656.49	62.6538	5,656.49	59.4626
5,856.45	89.6897	5,856.45	89.8659	5,856.45	88.5957	5,856.45	87.7289	5,856.45	89.6225	5,856.45	88.2576	5,856.45	88.8041	5,856.45	88.6878	5,856.45	88.2315	5,856.45	88.0628	5,856.45	87.3678	5,856.45	85.0107	5,856.45	87.0201	5,856.45	82.3763	5,856.45	83.5093	5,856.45	82.5674	5,856.45	82.9972	5,856.45	76.7525	5,856.45	81.0383	5,856.45	76.1333	5,856.45	73.9897	5,856.45	73.5134	5,856.45	72.1368	5,856.45	71.7556	5,856.45	74.993	5,856.45	68.9629	5,856.45	71.5092	5,856.45	70.5035	5,856.45	67.4543	5,856.45	67.5042	5,856.45	52.4513	5,856.45	69.8761	5,856.45	66.8655	5,856.45	60.8782	5,856.45	67.1658	5,856.45	60.5845
6,062.99	89.6621	6,062.99	89.4427	6,062.99	89.1027	6,062.99	88.9474	6,062.99	89.3518	6,062.99	87.9327	6,062.99	88.1936	6,062.99	88.1543	6,062.99	88.1666	6,062.99	87.2042	6,062.99	85.7424	6,062.99	86.3005	6,062.99	84.9422	6,062.99	84.154	6,062.99	83.1777	6,062.99	78.1663	6,062.99	82.1814	6,062.99	79.0896	6,062.99	79.1672	6,062.99	75.2874	6,062.99	74.3692	6,062.99	74.4662	6,062.99	73.3787	6,062.99	72.6497	6,062.99	72.5526	6,062.99	70.0025	6,062.99	54.7827	6,062.99	69.9762	6,062.99	62.6743	6,062.99	71.065	6,062.99	65.657	6,062.99	67.8955	6,062.99	69.6077	6,062.99	63.0173	6,062.99	65.114	6,062.99	61
6,276.86	90.2826	6,276.86	89.8385	6,276.86	88.3607	6,276.86	88.7652	6,276.86	88.6687	6,276.86	87.9988	6,276.86	87.5175	6,276.86	86.8885	6,276.86	86.448	6,276.86	87.1497	6,276.86	86.3768	6,276.86	86.2962	6,276.86	85.3404	6,276.86	83.5885	6,276.86	83.864	6,276.86	83.3716	6,276.86	79.8922	6,276.86	77.1601	6,276.86	71.3672	6,276.86	76.4344	6,276.86	74.6333	6,276.86	71.886	6,276.86	73.5508	6,276.86	73.4436	6,276.86	72.496	6,276.86	69.1321	6,276.86	65.8474	6,276.86	69.6951	6,276.86	66.048	6,276.86	68.7662	6,276.86	64.0412	6,276.86	68.1792	6,276.86	69.2022	6,276.86	66.4903	6,276.86	60.5815	6,276.86	57.2572
6,498.05	89.6017	6,498.05	89.438	6,498.05	89.0053	6,498.05	88.5676	6,498.05	87.8538	6,498.05	87.6613	6,498.05	87.4322	6,498.05	86.5979	6,498.05	85.9273	6,498.05	86.6167	6,498.05	87.4882	6,498.05	86.4358	6,498.05	85.3978	6,498.05	84.2471	6,498.05	82.0419	6,498.05	80.5943	6,498.05	74.3636	6,498.05	78.2908	6,498.05	77.912	6,498.05	74.0827	6,498.05	71.0469	6,498.05	73.075	6,498.05	69.8992	6,498.05	72.0585	6,498.05	70.9997	6,498.05	70.1985	6,498.05	63.4572	6,498.05	69.6513	6,498.05	67.943	6,498.05	66.2314	6,498.05	63.2408	6,498.05	67.987	6,498.05	67.7623	6,498.05	63.6517	6,498.05	62.6973	6,498.05	58.9376
6,727.29	89.4457	6,727.29	88.9304	6,727.29	89.7518	6,727.29	89.9029	6,727.29	88.474	6,727.29	87.778	6,727.29	87.4943	6,727.29	87.2719	6,727.29	86.5425	6,727.29	87.1034	6,727.29	87.8695	6,727.29	86.4482	6,727.29	84.9018	6,727.29	83.9562	6,727.29	79.3901	6,727.29	82.4385	6,727.29	80.3375	6,727.29	77.8121	6,727.29	76.6376	6,727.29	75.9135	6,727.29	61.6923	6,727.29	70.022	6,727.29	67.2204	6,727.29	71.1297	6,727.29	68.5865	6,727.29	68.5463	6,727.29	64.2869	6,727.29	70.151	6,727.29	70.3026	6,727.29	68.8828	6,727.29	68.405	6,727.29	67.867	6,727.29	59.5977	6,727.29	63.9585	6,727.29	54.2013	6,727.29	61.7512
6,964.6	88.4835	6,964.6	89.6888	6,964.6	90.2464	6,964.6	88.9634	6,964.6	88.5648	6,964.6	86.9148	6,964.6	87.3005	6,964.6	87.0302	6,964.6	87.388	6,964.6	87.6544	6,964.6	87.8441	6,964.6	86.2881	6,964.6	83.6864	6,964.6	83.7344	6,964.6	81.8313	6,964.6	81.1735	6,964.6	82.7781	6,964.6	78.3556	6,964.6	77.3071	6,964.6	75.1016	6,964.6	71.2785	6,964.6	73.8931	6,964.6	60.921	6,964.6	69.9984	6,964.6	58.436	6,964.6	69.8579	6,964.6	65.6533	6,964.6	68.8867	6,964.6	62.3019	6,964.6	68.3377	6,964.6	65.3284	6,964.6	69.4077	6,964.6	52.0679	6,964.6	67.5235	6,964.6	58.0296	6,964.6	63.1507
7,209.96	87.8006	7,209.96	88.8649	7,209.96	88.9872	7,209.96	88.2605	7,209.96	87.9213	7,209.96	86.4023	7,209.96	87.3597	7,209.96	87.0817	7,209.96	87.7758	7,209.96	87.1032	7,209.96	87.3434	7,209.96	86.2146	7,209.96	81.9237	7,209.96	84.497	7,209.96	84.6395	7,209.96	82.054	7,209.96	84.2892	7,209.96	78.8073	7,209.96	76.9516	7,209.96	76.0406	7,209.96	77.5608	7,209.96	71.2853	7,209.96	64.9005	7,209.96	70.0126	7,209.96	49.2189	7,209.96	63.6026	7,209.96	66.5084	7,209.96	68.6068	7,209.96	63.965	7,209.96	70.2047	7,209.96	64.8282	7,209.96	69.9995	7,209.96	59.5043	7,209.96	64.7051	7,209.96	56.1726	7,209.96	54.8505
7,464.11	88.1296	7,464.11	88.3637	7,464.11	88.3317	7,464.11	87.9689	7,464.11	88.0722	7,464.11	86.3712	7,464.11	87.0535	7,464.11	86.3403	7,464.11	87.1523	7,464.11	86.7482	7,464.11	84.33	7,464.11	84.8982	7,464.11	82.5436	7,464.11	82.9358	7,464.11	86.0189	7,464.11	79.9193	7,464.11	83.9773	7,464.11	76.6349	7,464.11	78.4959	7,464.11	74.4068	7,464.11	74.5453	7,464.11	71.9439	7,464.11	71.0949	7,464.11	68.7706	7,464.11	48.4037	7,464.11	65.199	7,464.11	63.8261	7,464.11	66.4542	7,464.11	61.0447	7,464.11	67.8396	7,464.11	61.1669	7,464.11	70.4793	7,464.11	38.2424	7,464.11	66.741	7,464.11	54.8448	7,464.11	60.4099
7,727.78	88.2047	7,727.78	87.8922	7,727.78	88.2797	7,727.78	87.8045	7,727.78	87.4848	7,727.78	86.7078	7,727.78	85.4315	7,727.78	85.9126	7,727.78	84.4288	7,727.78	85.5591	7,727.78	80.5986	7,727.78	84.8752	7,727.78	83.0178	7,727.78	82.9675	7,727.78	85.8315	7,727.78	80.7287	7,727.78	81.1544	7,727.78	76.5619	7,727.78	79.8495	7,727.78	73.9023	7,727.78	72.9294	7,727.78	71.0491	7,727.78	71.7683	7,727.78	69.2195	7,727.78	66.3505	7,727.78	67.3998	7,727.78	63.0959	7,727.78	68.0766	7,727.78	54.3721	7,727.78	68.7562	7,727.78	59.3301	7,727.78	67.1396	7,727.78	56.4564	7,727.78	62.3455	7,727.78	43.9389	7,727.78	59.9679
8,000.24	88.545	8,000.24	88.1051	8,000.24	87.2126	8,000.24	88.5247	8,000.24	88.4505	8,000.24	87.1041	8,000.24	84.9945	8,000.24	86.1954	8,000.24	82.272	8,000.24	85.3757	8,000.24	83.0929	8,000.24	84.4026	8,000.24	85.2899	8,000.24	82.493	8,000.24	83.651	8,000.24	78.836	8,000.24	76.0111	8,000.24	76.6265	8,000.24	77.602	8,000.24	71.0972	8,000.24	71.6266	8,000.24	71.6539	8,000.24	62.2904	8,000.24	67.8975	8,000.24	64.9222	8,000.24	67.6587	8,000.24	55.0552	8,000.24	68.533	8,000.24	59.0885	8,000.24	67.7901	8,000.24	58.8284	8,000.24	68.6165	8,000.24	52.7715	8,000.24	62.0541	8,000.24	58.0718	8,000.24	48.9205
8,282.23	90.4045	8,282.23	89.0519	8,282.23	87.992	8,282.23	88.6255	8,282.23	88.7085	8,282.23	87.4484	8,282.23	88.1227	8,282.23	85.2036	8,282.23	84.423	8,282.23	84.8925	8,282.23	84.787	8,282.23	84.0851	8,282.23	85.8505	8,282.23	82.0426	8,282.23	79.459	8,282.23	79.5851	8,282.23	73.7054	8,282.23	74.7765	8,282.23	72.0033	8,282.23	70.4982	8,282.23	72.8656	8,282.23	68.7362	8,282.23	57.4154	8,282.23	67.2304	8,282.23	67.1661	8,282.23	66.1478	8,282.23	61.795	8,282.23	64.0621	8,282.23	38.4655	8,282.23	63.1072	8,282.23	65.6215	8,282.23	67.472	8,282.23	59.7656	8,282.23	62.5992	8,282.23	63.0453	8,282.23	54.1707
8,574.46	90.1508	8,574.46	89.1328	8,574.46	88.9622	8,574.46	88.694	8,574.46	87.8886	8,574.46	87.4278	8,574.46	88.5674	8,574.46	84.3059	8,574.46	85.6168	8,574.46	84.1149	8,574.46	84.7206	8,574.46	83.6544	8,574.46	84.5847	8,574.46	80.4796	8,574.46	72.5174	8,574.46	77.6505	8,574.46	74.546	8,574.46	73.1919	8,574.46	72.278	8,574.46	70.021	8,574.46	69.1528	8,574.46	67.4986	8,574.46	67.6427	8,574.46	66.0629	8,574.46	64.7543	8,574.46	62.7217	8,574.46	53.5869	8,574.46	63.4707	8,574.46	52.8281	8,574.46	64.2642	8,574.46	67.3714	8,574.46	65.2363	8,574.46	62.3864	8,574.46	60.2068	8,574.46	61.4154	8,574.46	53.2341
8,876.22	89.9817	8,876.22	89.2103	8,876.22	89.5108	8,876.22	88.8678	8,876.22	87.9875	8,876.22	86.9751	8,876.22	86.9087	8,876.22	84.2626	8,876.22	86.4361	8,876.22	83.3026	8,876.22	83.9206	8,876.22	82.5713	8,876.22	81.3209	8,876.22	79.1834	8,876.22	76.9376	8,876.22	75.4385	8,876.22	76.5214	8,876.22	69.4778	8,876.22	74.3105	8,876.22	67.3426	8,876.22	65.875	8,876.22	67.8442	8,876.22	70.2807	8,876.22	65.0919	8,876.22	62.6271	8,876.22	65.2059	8,876.22	58.0647	8,876.22	63.8436	8,876.22	61.0146	8,876.22	59.6911	8,876.22	61.1469	8,876.22	62.4142	8,876.22	53.4536	8,876.22	57.0085	8,876.22	49.8553	8,876.22	48.2773
9,189.7	89.3823	9,189.7	88.3393	9,189.7	89.0958	9,189.7	88.266	9,189.7	88.874	9,189.7	87.2524	9,189.7	86.0144	9,189.7	84.0943	9,189.7	85.0042	9,189.7	81.5168	9,189.7	82.0158	9,189.7	80.9721	9,189.7	75.3062	9,189.7	77.5153	9,189.7	79.5064	9,189.7	74.7667	9,189.7	75.2095	9,189.7	69.5807	9,189.7	72.9815	9,189.7	66.332	9,189.7	67.7545	9,189.7	64.411	9,189.7	62.0287	9,189.7	61.738	9,189.7	58.8127	9,189.7	64.5731	9,189.7	63.3162	9,189.7	59.6266	9,189.7	58.2244	9,189.7	58.3819	9,189.7	54.9154	9,189.7	62.8352	9,189.7	51.4871	9,189.7	58.7543	9,189.7	39.9612	9,189.7	51.9481
9,513.43	88.9462	9,513.43	88.3469	9,513.43	88.6366	9,513.43	87.858	9,513.43	88.6044	9,513.43	87.2635	9,513.43	87.2125	9,513.43	84.7517	9,513.43	84.0057	9,513.43	81.2659	9,513.43	81.7713	9,513.43	78.8423	9,513.43	77.1778	9,513.43	75.5251	9,513.43	79.9932	9,513.43	72.1136	9,513.43	73.0515	9,513.43	71.0946	9,513.43	69.6011	9,513.43	66.4136	9,513.43	65.5108	9,513.43	60.5538	9,513.43	68.5348	9,513.43	55.5446	9,513.43	60.1191	9,513.43	56.4597	9,513.43	61.8327	9,513.43	60.9082	9,513.43	60.9355	9,513.43	56.7892	9,513.43	55.8014	9,513.43	62.568	9,513.43	55.2846	9,513.43	59.9317	9,513.43	49.6738	9,513.43	47.5262
9,848.88	89.2555	9,848.88	88.9375	9,848.88	88.8467	9,848.88	88.1487	9,848.88	88.3728	9,848.88	87.4419	9,848.88	87.6328	9,848.88	84.8213	9,848.88	84.2397	9,848.88	81.4315	9,848.88	82.0166	9,848.88	79.5753	9,848.88	79.8977	9,848.88	76.0123	9,848.88	76.315	9,848.88	71.6506	9,848.88	71.7079	9,848.88	67.8954	9,848.88	68.3366	9,848.88	57.3802	9,848.88	68.8698	9,848.88	64.1214	9,848.88	71.8069	9,848.88	56.6367	9,848.88	60.37	9,848.88	59.6555	9,848.88	65.8302	9,848.88	59.969	9,848.88	49.6359	9,848.88	55.9229	9,848.88	57.8841	9,848.88	59.9839	9,848.88	53.4979	9,848.88	53.6336	9,848.88	46.2542	9,848.88	47.6895
10,196.8	89.4995	10,196.8	89.7974	10,196.8	89.3977	10,196.8	88.6636	10,196.8	88.1534	10,196.8	87.0408	10,196.8	87.3671	10,196.8	84.4909	10,196.8	85.3528	10,196.8	81.7291	10,196.8	81.4429	10,196.8	79.7585	10,196.8	79.6218	10,196.8	75.3746	10,196.8	77.0445	10,196.8	71.1361	10,196.8	73.2573	10,196.8	65.0315	10,196.8	68.6083	10,196.8	59.9425	10,196.8	71.8115	10,196.8	58.7842	10,196.8	72.8532	10,196.8	61.2467	10,196.8	57.1188	10,196.8	61.7645	10,196.8	62.0398	10,196.8	60.5702	10,196.8	52.8233	10,196.8	45.8175	10,196.8	47.3982	10,196.8	60.2659	10,196.8	50.4728	10,196.8	54.6485	10,196.8	58.2057	10,196.8	50.6083
10,556.4	89.5262	10,556.4	89.4543	10,556.4	89.3015	10,556.4	88.1878	10,556.4	88.6309	10,556.4	86.2071	10,556.4	87.2251	10,556.4	83.9206	10,556.4	85.425	10,556.4	81.8136	10,556.4	81.8061	10,556.4	78.5388	10,556.4	79.6043	10,556.4	75.7258	10,556.4	76.606	10,556.4	71.763	10,556.4	70.3888	10,556.4	67.7259	10,556.4	65.2499	10,556.4	61.8911	10,556.4	72.338	10,556.4	61.1031	10,556.4	74.2953	10,556.4	59.4832	10,556.4	62.1193	10,556.4	62.0751	10,556.4	62.1104	10,556.4	58.0496	10,556.4	58.9138	10,556.4	49.2585	10,556.4	44.7861	10,556.4	58.6133	10,556.4	55.3384	10,556.4	55.7932	10,556.4	55.7893	10,556.4	41.9241
10,928.5	89.3802	10,928.5	89.2418	10,928.5	89.423	10,928.5	87.4829	10,928.5	88.2444	10,928.5	85.7637	10,928.5	86.859	10,928.5	83.5383	10,928.5	84.7317	10,928.5	80.2826	10,928.5	80.8192	10,928.5	78.8598	10,928.5	80.4845	10,928.5	75.8438	10,928.5	75.6869	10,928.5	70.216	10,928.5	70.0407	10,928.5	68.0014	10,928.5	71.0123	10,928.5	59.6794	10,928.5	71.1354	10,928.5	60.9974	10,928.5	74.187	10,928.5	55.6727	10,928.5	65.6168	10,928.5	61.052	10,928.5	58.4804	10,928.5	55.8163	10,928.5	63.8872	10,928.5	52.1015	10,928.5	42.075	10,928.5	58.2837	10,928.5	54.1301	10,928.5	54.7381	10,928.5	52.975	10,928.5	43.1166
11,313.7	89.0734	11,313.7	88.792	11,313.7	89.2201	11,313.7	87.5428	11,313.7	87.6589	11,313.7	86.1078	11,313.7	86.8906	11,313.7	83.3839	11,313.7	84.3453	11,313.7	80.0699	11,313.7	80.4247	11,313.7	78.4061	11,313.7	79.9676	11,313.7	74.5255	11,313.7	73.8762	11,313.7	69.6335	11,313.7	68.6731	11,313.7	65.5953	11,313.7	69.6942	11,313.7	60.8617	11,313.7	68.8394	11,313.7	55.8482	11,313.7	72.6859	11,313.7	55.6849	11,313.7	66.4436	11,313.7	59.2154	11,313.7	50.5039	11,313.7	56.439	11,313.7	58.5151	11,313.7	48.6459	11,313.7	53.0525	11,313.7	53.237	11,313.7	49.9654	11,313.7	54.2766	11,313.7	52.8994	11,313.7	34.1987
11,712.9	88.6255	11,712.9	88.5277	11,712.9	88.5003	11,712.9	87.7043	11,712.9	87.3394	11,712.9	85.9258	11,712.9	86.2648	11,712.9	82.6414	11,712.9	83.7445	11,712.9	80.2381	11,712.9	81.1653	11,712.9	77.1609	11,712.9	76.8836	11,712.9	72.5488	11,712.9	75.1484	11,712.9	67.7992	11,712.9	69.3939	11,712.9	64.4663	11,712.9	69.9779	11,712.9	60.6642	11,712.9	69.7251	11,712.9	54.4538	11,712.9	73.2063	11,712.9	57.4804	11,712.9	65.693	11,712.9	57.2907	11,712.9	55.8393	11,712.9	52.8705	11,712.9	48.607	11,712.9	42.9257	11,712.9	54.1819	11,712.9	47.6198	11,712.9	49.6924	11,712.9	50.1586	11,712.9	52.861	11,712.9	39.8163
12,126	88.9411	12,126	88.5882	12,126	88.0298	12,126	87.3146	12,126	87.3302	12,126	84.7846	12,126	85.2364	12,126	82.3337	12,126	83.6758	12,126	78.8803	12,126	80.8434	12,126	75.4112	12,126	73.2054	12,126	69.9832	12,126	74.8354	12,126	66.4015	12,126	69.7221	12,126	61.9423	12,126	68.0255	12,126	58.5276	12,126	70.1577	12,126	44.4134	12,126	72.4196	12,126	55.7325	12,126	65.9695	12,126	54.1637	12,126	57.5754	12,126	51.6713	12,126	57.7257	12,126	43.2291	12,126	54.3517	12,126	53.0332	12,126	55.9286	12,126	52.8518	12,126	50.3094	12,126	46.3401
12,553.7	89.7341	12,553.7	88.6824	12,553.7	88.5605	12,553.7	86.7743	12,553.7	87.6629	12,553.7	84.2617	12,553.7	84.8274	12,553.7	81.4115	12,553.7	82.8894	12,553.7	76.995	12,553.7	78.1724	12,553.7	73.4127	12,553.7	73.7511	12,553.7	67.7531	12,553.7	73.4938	12,553.7	62.978	12,553.7	67.4904	12,553.7	58.6894	12,553.7	63.3028	12,553.7	54.0827	12,553.7	67.7723	12,553.7	50.5989	12,553.7	70.5756	12,553.7	53.579	12,553.7	63.1335	12,553.7	42.5148	12,553.7	56.1054	12,553.7	43.7605	12,553.7	55.9712	12,553.7	47.9298	12,553.7	50.606	12,553.7	48.7375	12,553.7	54.0326	12,553.7	47.7242	12,553.7	51.5826	12,553.7	31.4408
12,996.1	89.8591	12,996.1	88.7667	12,996.1	88.9077	12,996.1	86.6501	12,996.1	87.1777	12,996.1	84.32	12,996.1	85.3079	12,996.1	80.4277	12,996.1	81.7585	12,996.1	76.0596	12,996.1	76.628	12,996.1	71.8233	12,996.1	74.1497	12,996.1	66.2789	12,996.1	68.0151	12,996.1	57.6899	12,996.1	61.4585	12,996.1	53.7493	12,996.1	58.1548	12,996.1	49.7686	12,996.1	66.3278	12,996.1	46.0211	12,996.1	68.8213	12,996.1	47.0381	12,996.1	60.2142	12,996.1	46.4357	12,996.1	52.6044	12,996.1	49.3988	12,996.1	53.6312	12,996.1	46.5455	12,996.1	33.8274	12,996.1	47.8574	12,996.1	43.9851	12,996.1	48.5283	12,996.1	50.0728	12,996.1	43.7263
13,454.6	89.4259	13,454.6	88.8332	13,454.6	89.2757	13,454.6	86.9328	13,454.6	87.2865	13,454.6	84.1435	13,454.6	84.7138	13,454.6	79.7731	13,454.6	81.4173	13,454.6	74.4879	13,454.6	76.0732	13,454.6	69.7935	13,454.6	73.6556	13,454.6	62.3602	13,454.6	65.6478	13,454.6	53.1555	13,454.6	60.2508	13,454.6	35.9642	13,454.6	57.3077	13,454.6	46.6994	13,454.6	63.6363	13,454.6	42.9916	13,454.6	69.029	13,454.6	38.8766	13,454.6	58.3264	13,454.6	42.8461	13,454.6	54.0245	13,454.6	39.7486	13,454.6	48.0151	13,454.6	35.8883	13,454.6	44.7877	13,454.6	38.6088	13,454.6	41.389	13,454.6	41.3736	13,454.6	44.1669	13,454.6	36.4797
13,928.5	89.079	13,928.5	88.7626	13,928.5	88.7128	13,928.5	86.7634	13,928.5	86.9682	13,928.5	83.8709	13,928.5	84.3042	13,928.5	79.0127	13,928.5	80.5588	13,928.5	73.2533	13,928.5	75.1371	13,928.5	66.8765	13,928.5	69.8611	13,928.5	58.5134	13,928.5	64.878	13,928.5	43.8689	13,928.5	51.5926	13,928.5	35.9244	13,928.5	55.9052	13,928.5	42.5733	13,928.5	63.0294	13,928.5	36.6529	13,928.5	68.0195	13,928.5	37.5957	13,928.5	59.0899	13,928.5	39.0298	13,928.5	53.5854	13,928.5	34.7241	13,928.5	52.8744	13,928.5	30.2847	13,928.5	42.1274	13,928.5	34.5434	13,928.5	37.1195	13,928.5	33.8797	13,928.5	48.1838	13,928.5	36.2125
14,419.9	89.1949	14,419.9	88.5652	14,419.9	88.2621	14,419.9	86.3698	14,419.9	86.6044	14,419.9	83.5174	14,419.9	83.73	14,419.9	78.4639	14,419.9	80.1393	14,419.9	72.1993	14,419.9	73.6704	14,419.9	65.2594	14,419.9	66.1112	14,419.9	53.0357	14,419.9	62.1229	14,419.9	45.1413	14,419.9	54.5184	14,419.9	34.9197	14,419.9	53.5312	14,419.9	46.8683	14,419.9	60.2293	14,419.9	39.3832	14,419.9	65.3945	14,419.9	43.1124	14,419.9	57.1515	14,419.9	45.1446	14,419.9	53.6399	14,419.9	38.6294	14,419.9	51.1561	14,419.9	36.7488	14,419.9	43.0946	14,419.9	23.2118	14,419.9	42.3817	14,419.9	31.4483	14,419.9	45.7606	14,419.9	34.7439
14,928.2	89.2831	14,928.2	88.1486	14,928.2	88.4434	14,928.2	85.535	14,928.2	86.0533	14,928.2	82.3047	14,928.2	82.8201	14,928.2	76.5882	14,928.2	77.838	14,928.2	68.1144	14,928.2	71.031	14,928.2	62.3495	14,928.2	64.1323	14,928.2	58.0889	14,928.2	59.9129	14,928.2	55.2425	14,928.2	57.2821	14,928.2	49.5447	14,928.2	52.5018	14,928.2	46.8643	14,928.2	55.9361	14,928.2	34.7316	14,928.2	59.4075	14,928.2	46.1681	14,928.2	54.2424	14,928.2	45.3339	14,928.2	51.3035	14,928.2	37.0897	14,928.2	34.0626	14,928.2	43.6754	14,928.2	40.0229	14,928.2	30.0369	14,928.2	37.2169	14,928.2	40.5262	14,928.2	48.9855	14,928.2	39.3536
15,454.8	88.7131	15,454.8	87.5836	15,454.8	88.1807	15,454.8	84.5726	15,454.8	85.3597	15,454.8	80.725	15,454.8	81.4944	15,454.8	72.6772	15,454.8	75.3118	15,454.8	57.2162	15,454.8	66.0085	15,454.8	56.985	15,454.8	55.1995	15,454.8	61.2143	15,454.8	59.7997	15,454.8	59.9872	15,454.8	54.9563	15,454.8	51.7218	15,454.8	44.7973	15,454.8	50.9226	15,454.8	41.6373	15,454.8	26.6673	15,454.8	55.1823	15,454.8	50.0014	15,454.8	49.7383	15,454.8	51.0301	15,454.8	53.3698	15,454.8	42.3461	15,454.8	45.5358	15,454.8	43.0791	15,454.8	39.7532	15,454.8	42.479	15,454.8	31.5465	15,454.8	42.0906	15,454.8	47.5602	15,454.8	29.1154
15,999.8	87.3669	15,999.8	86.627	15,999.8	87.1379	15,999.8	83.9164	15,999.8	84.4247	15,999.8	79.4568	15,999.8	80.5626	15,999.8	71.2416	15,999.8	73.9727	15,999.8	57.8721	15,999.8	60.3862	15,999.8	59.3334	15,999.8	44.1687	15,999.8	62.3119	15,999.8	56.1428	15,999.8	60.2929	15,999.8	54.1792	15,999.8	53.7784	15,999.8	50.8773	15,999.8	52.3204	15,999.8	42.0585	15,999.8	32.7585	15,999.8	55.4548	15,999.8	49.7454	15,999.8	52.9318	15,999.8	51.0252	15,999.8	55.5874	15,999.8	42.3669	15,999.8	47.5643	15,999.8	39.1141	15,999.8	36.3676	15,999.8	39.2822	15,999.8	38.071	15,999.8	44.0517	15,999.8	45.1207	15,999.8	32.8222
16,564.5	86.1859	16,564.5	85.6262	16,564.5	85.709	16,564.5	82.813	16,564.5	83.2299	16,564.5	78.4285	16,564.5	79.1892	16,564.5	71.7979	16,564.5	73.3043	16,564.5	62.935	16,564.5	62.8215	16,564.5	60.398	16,564.5	53.2441	16,564.5	60.5101	16,564.5	45.2024	16,564.5	57.9119	16,564.5	51.2808	16,564.5	47.9086	16,564.5	43.6467	16,564.5	48.4251	16,564.5	45.2012	16,564.5	34.5717	16,564.5	57.4539	16,564.5	46.9653	16,564.5	51.3642	16,564.5	49.2472	16,564.5	54.264	16,564.5	40.5744	16,564.5	44.0611	16,564.5	38.129	16,564.5	39.684	16,564.5	38.2152	16,564.5	36.431	16,564.5	36.6396	16,564.5	44.7175	16,564.5	42.4213
17,148.2	88.6736	17,148.2	87.8473	17,148.2	87.8682	17,148.2	84.4028	17,148.2	84.7893	17,148.2	79.8368	17,148.2	80.3945	17,148.2	72.1682	17,148.2	73.3821	17,148.2	58.9569	17,148.2	62.6911	17,148.2	25.109	17,148.2	56.8871	17,148.2	49.0313	17,148.2	58.7648	17,148.2	48.2024	17,148.2	57.5151	17,148.2	43.5487	17,148.2	49.8249	17,148.2	44.6695	17,148.2	49.9845	17,148.2	45.1707	17,148.2	58.5323	17,148.2	38.6163	17,148.2	57.6266	17,148.2	42.0514	17,148.2	53.4026	17,148.2	38.3638	17,148.2	42.5466	17,148.2	37.2158	17,148.2	40.2014	17,148.2	38.8652	17,148.2	43.7459	17,148.2	39.3242	17,148.2	48.3715	17,148.2	39.5892
17,753.2	88.1922	17,753.2	87.3801	17,753.2	87.4859	17,753.2	83.4254	17,753.2	84.0245	17,753.2	78.206	17,753.2	78.9796	17,753.2	69.483	17,753.2	69.9718	17,753.2	42.7813	17,753.2	57.493	17,753.2	55.1945	17,753.2	58.5824	17,753.2	55.5531	17,753.2	58.7392	17,753.2	53.3909	17,753.2	58.7822	17,753.2	47.4358	17,753.2	50.6762	17,753.2	39.1452	17,753.2	46.9774	17,753.2	44.1894	17,753.2	55.1515	17,753.2	42.5284	17,753.2	58.1971	17,753.2	32.0772	17,753.2	54.7718	17,753.2	34.5163	17,753.2	43.4914	17,753.2	37.1341	17,753.2	42.095	17,753.2	38.5031	17,753.2	39.9604	17,753.2	36.3467	17,753.2	44.6923	17,753.2	40.2162
18,379.4	87.0301	18,379.4	86.2933	18,379.4	86.2266	18,379.4	82.3673	18,379.4	82.937	18,379.4	77.1152	18,379.4	76.9478	18,379.4	66.7344	18,379.4	66.6665	18,379.4	36.6478	18,379.4	58.0578	18,379.4	54.5018	18,379.4	55.9735	18,379.4	55.1237	18,379.4	56.9963	18,379.4	51.69	18,379.4	53.7827	18,379.4	46.0089	18,379.4	53.3887	18,379.4	40.3362	18,379.4	47.3441	18,379.4	41.3261	18,379.4	54.7245	18,379.4	35.3457	18,379.4	55.6825	18,379.4	21.7809	18,379.4	51.6389	18,379.4	24.9006	18,379.4	42.3489	18,379.4	36.3746	18,379.4	34.7246	18,379.4	37.7737	18,379.4	28.7745	18,379.4	37.5015	18,379.4	42.603	18,379.4	35.3598
19,027.6	86.3624	19,027.6	85.4583	19,027.6	85.2172	19,027.6	81.1302	19,027.6	81.2563	19,027.6	75.4061	19,027.6	74.9863	19,027.6	63.7142	19,027.6	62.6701	19,027.6	47.8991	19,027.6	57.0329	19,027.6	54.9321	19,027.6	59.7539	19,027.6	53.7826	19,027.6	52.6695	19,027.6	50.3054	19,027.6	49.843	19,027.6	45.045	19,027.6	49.4812	19,027.6	33.7393	19,027.6	42.0026	19,027.6	41.2007	19,027.6	53.1999	19,027.6	35.705	19,027.6	54.5833	19,027.6	18.9443	19,027.6	51.9484	19,027.6	35.7757	19,027.6	41.808	19,027.6	35.7251	19,027.6	21.9141	19,027.6	35.4766	19,027.6	37.3885	19,027.6	33.6498	19,027.6	41.3093	19,027.6	37.5742
19,698.5	85.6882	19,698.5	84.2485	19,698.5	84.3503	19,698.5	79.4434	19,698.5	79.7859	19,698.5	72.5323	19,698.5	72.4262	19,698.5	60.0988	19,698.5	59.4541	19,698.5	53.6048	19,698.5	57.4045	19,698.5	56.3599	19,698.5	58.9394	19,698.5	52.5191	19,698.5	53.7843	19,698.5	42.0953	19,698.5	47.4023	19,698.5	43.7909	19,698.5	47.0909	19,698.5	33.3684	19,698.5	43.8224	19,698.5	37.1665	19,698.5	50.0693	19,698.5	30.4378	19,698.5	51.384	19,698.5	34.8394	19,698.5	50.1189	19,698.5	36.8567	19,698.5	42.1384	19,698.5	32.9586	19,698.5	26.0792	19,698.5	21.3251	19,698.5	19.7558	19,698.5	27.3104	19,698.5	38.8641	19,698.5	35.0076
19,999.5	85.1848	19,999.5	83.3752	19,999.5	83.9607	19,999.5	78.1826	19,999.5	78.758	19,999.5	70.9114	19,999.5	71.3504	19,999.5	54.9835	19,999.5	56.1161	19,999.5	54.2011	19,999.5	58.7572	19,999.5	56.2193	19,999.5	56.5645	19,999.5	50.7125	19,999.5	49.8158	19,999.5	45.911	19,999.5	49.6928	19,999.5	44.6948	19,999.5	50.6775	19,999.5	36.2148	19,999.5	42.9292	19,999.5	42.3281	19,999.5	48.7788	19,999.5	33.6232	19,999.5	48.5784	19,999.5	34.7007	19,999.5	47.0415	19,999.5	40.1512	19,999.5	35.201	19,999.5	35.9425	19,999.5	29.2117	19,999.5	37.4625	19,999.5	35.5566	19,999.5	38.8191	19,999.5	39.8462	19,999.5	38.6868
