"SPL Vertical"
"On-Axis"		"10°"		"-10°"		"20°"		"-20°"		"30°"		"-30°"		"40°"		"-40°"		"50°"		"-50°"		"60°"		"-60°"		"70°"		"-70°"		"80°"		"-80°"		"90°"		"-90°"		"100°"		"-100°"		"110°"		"-110°"		"120°"		"-120°"		"130°"		"-130°"		"140°"		"-140°"		"150°"		"-150°"		"160°"		"-160°"		"170°"		"-170°"		"180°"
"Frequency / Hz"	"Sound Pressure Level / dB (re 20 µPa/V)  [2.83  V @ 1. m]"	"Frequency / Hz"	"Sound Pressure Level / dB (re 20 µPa/V)  [2.83  V @ 1. m]"	"Frequency / Hz"	"Sound Pressure Level / dB (re 20 µPa/V)  [2.83  V @ 1. m]"	"Frequency / Hz"	"Sound Pressure Level / dB (re 20 µPa/V)  [2.83  V @ 1. m]"	"Frequency / Hz"	"Sound Pressure Level / dB (re 20 µPa/V)  [2.83  V @ 1. m]"	"Frequency / Hz"	"Sound Pressure Level / dB (re 20 µPa/V)  [2.83  V @ 1. m]"	"Frequency / Hz"	"Sound Pressure Level / dB (re 20 µPa/V)  [2.83  V @ 1. m]"	"Frequency / Hz"	"Sound Pressure Level / dB (re 20 µPa/V)  [2.83  V @ 1. m]"	"Frequency / Hz"	"Sound Pressure Level / dB (re 20 µPa/V)  [2.83  V @ 1. m]"	"Frequency / Hz"	"Sound Pressure Level / dB (re 20 µPa/V)  [2.83  V @ 1. m]"	"Frequency / Hz"	"Sound Pressure Level / dB (re 20 µPa/V)  [2.83  V @ 1. m]"	"Frequency / Hz"	"Sound Pressure Level / dB (re 20 µPa/V)  [2.83  V @ 1. m]"	"Frequency / Hz"	"Sound Pressure Level / dB (re 20 µPa/V)  [2.83  V @ 1. m]"	"Frequency / Hz"	"Sound Pressure Level / dB (re 20 µPa/V)  [2.83  V @ 1. m]"	"Frequency / Hz"	"Sound Pressure Level / dB (re 20 µPa/V)  [2.83  V @ 1. m]"	"Frequency / Hz"	"Sound Pressure Level / dB (re 20 µPa/V)  [2.83  V @ 1. m]"	"Frequency / Hz"	"Sound Pressure Level / dB (re 20 µPa/V)  [2.83  V @ 1. m]"	"Frequency / Hz"	"Sound Pressure Level / dB (re 20 µPa/V)  [2.83  V @ 1. m]"	"Frequency / Hz"	"Sound Pressure Level / dB (re 20 µPa/V)  [2.83  V @ 1. m]"	"Frequency / Hz"	"Sound Pressure Level / dB (re 20 µPa/V)  [2.83  V @ 1. m]"	"Frequency / Hz"	"Sound Pressure Level / dB (re 20 µPa/V)  [2.83  V @ 1. m]"	"Frequency / Hz"	"Sound Pressure Level / dB (re 20 µPa/V)  [2.83  V @ 1. m]"	"Frequency / Hz"	"Sound Pressure Level / dB (re 20 µPa/V)  [2.83  V @ 1. m]"	"Frequency / Hz"	"Sound Pressure Level / dB (re 20 µPa/V)  [2.83  V @ 1. m]"	"Frequency / Hz"	"Sound Pressure Level / dB (re 20 µPa/V)  [2.83  V @ 1. m]"	"Frequency / Hz"	"Sound Pressure Level / dB (re 20 µPa/V)  [2.83  V @ 1. m]"	"Frequency / Hz"	"Sound Pressure Level / dB (re 20 µPa/V)  [2.83  V @ 1. m]"	"Frequency / Hz"	"Sound Pressure Level / dB (re 20 µPa/V)  [2.83  V @ 1. m]"	"Frequency / Hz"	"Sound Pressure Level / dB (re 20 µPa/V)  [2.83  V @ 1. m]"	"Frequency / Hz"	"Sound Pressure Level / dB (re 20 µPa/V)  [2.83  V @ 1. m]"	"Frequency / Hz"	"Sound Pressure Level / dB (re 20 µPa/V)  [2.83  V @ 1. m]"	"Frequency / Hz"	"Sound Pressure Level / dB (re 20 µPa/V)  [2.83  V @ 1. m]"	"Frequency / Hz"	"Sound Pressure Level / dB (re 20 µPa/V)  [2.83  V @ 1. m]"	"Frequency / Hz"	"Sound Pressure Level / dB (re 20 µPa/V)  [2.83  V @ 1. m]"	"Frequency / Hz"	"Sound Pressure Level / dB (re 20 µPa/V)  [2.83  V @ 1. m]"	"Frequency / Hz"	"Sound Pressure Level / dB (re 20 µPa/V)  [2.83  V @ 1. m]"
20.5078	66.8943	20.5078	66.8099	20.5078	67.0025	20.5078	66.7507	20.5078	67.1329	20.5078	66.7172	20.5078	67.2834	20.5078	66.7101	20.5078	67.4511	20.5078	66.7293	20.5078	67.6324	20.5078	66.7746	20.5078	67.8229	20.5078	66.8455	20.5078	68.0172	20.5078	66.9409	20.5078	68.2089	20.5078	67.0595	20.5078	68.3909	20.5078	67.1995	20.5078	68.5557	20.5078	67.3583	20.5078	68.6958	20.5078	67.5328	20.5078	68.8044	20.5078	67.7189	20.5078	68.8759	20.5078	67.9118	20.5078	68.9066	20.5078	68.1056	20.5078	68.8949	20.5078	68.2935	20.5078	68.8414	20.5078	68.4684	20.5078	68.749	20.5078	68.6226
21.9727	70.0465	21.9727	69.9544	21.9727	70.1613	21.9727	69.8864	21.9727	70.2968	21.9727	69.8434	21.9727	70.4507	21.9727	69.8259	21.9727	70.6197	21.9727	69.834	21.9727	70.7999	21.9727	69.8675	21.9727	70.9867	21.9727	69.9258	21.9727	71.1743	21.9727	70.0078	21.9727	71.3562	21.9727	70.1124	21.9727	71.5251	21.9727	70.2378	21.9727	71.6737	21.9727	70.3817	21.9727	71.7947	21.9727	70.5414	21.9727	71.8818	21.9727	70.7134	21.9727	71.9304	21.9727	70.8937	21.9727	71.938	21.9727	71.0775	21.9727	71.9046	21.9727	71.2591	21.9727	71.8324	21.9727	71.4322	21.9727	71.7256	21.9727	71.59
23.4375	72.006	23.4375	71.9137	23.4375	72.1207	23.4375	71.8453	23.4375	72.2562	23.4375	71.8017	23.4375	72.4099	23.4375	71.7833	23.4375	72.5789	23.4375	71.7903	23.4375	72.7592	23.4375	71.8227	23.4375	72.9461	23.4375	71.8798	23.4375	73.134	23.4375	71.9609	23.4375	73.3164	23.4375	72.0647	23.4375	73.486	23.4375	72.1895	23.4375	73.6354	23.4375	72.3333	23.4375	73.7572	23.4375	72.4933	23.4375	73.8453	23.4375	72.6661	23.4375	73.8948	23.4375	72.8476	23.4375	73.903	23.4375	73.0331	23.4375	73.8697	23.4375	73.2166	23.4375	73.7969	23.4375	73.3918	23.4375	73.689	23.4375	73.5517
24.9023	73.6561	24.9023	73.5619	24.9023	73.7718	24.9023	73.4906	24.9023	73.9071	24.9023	73.4429	24.9023	74.0596	24.9023	73.4195	24.9023	74.2261	24.9023	73.4206	24.9023	74.4028	24.9023	73.4461	24.9023	74.5849	24.9023	73.4955	24.9023	74.7666	24.9023	73.5682	24.9023	74.9416	24.9023	73.6632	24.9023	75.1027	24.9023	73.7789	24.9023	75.2427	24.9023	73.9137	24.9023	75.3546	24.9023	74.065	24.9023	75.4326	24.9023	74.2298	24.9023	75.4721	24.9023	74.4045	24.9023	75.4711	24.9023	74.5845	24.9023	75.4296	24.9023	74.7643	24.9023	75.3503	24.9023	74.9377	24.9023	75.2377	24.9023	75.0979
26.3672	75.2996	26.3672	75.2035	26.3672	75.417	26.3672	75.1302	26.3672	75.5538	26.3672	75.0806	26.3672	75.7076	26.3672	75.0554	26.3672	75.8751	26.3672	75.055	26.3672	76.0525	26.3672	75.0793	26.3672	76.2351	26.3672	75.1281	26.3672	76.4172	26.3672	75.2007	26.3672	76.5924	26.3672	75.2963	26.3672	76.7537	26.3672	75.4133	26.3672	76.8939	26.3672	75.5498	26.3672	77.006	26.3672	75.7034	26.3672	77.0842	26.3672	75.8708	26.3672	77.1239	26.3672	76.048	26.3672	77.1231	26.3672	76.2305	26.3672	77.0818	26.3672	76.4124	26.3672	77.0025	26.3672	76.5876	26.3672	76.8896	26.3672	76.749
27.832	76.731	27.832	76.6325	27.832	76.8508	27.832	76.5567	27.832	76.9898	27.832	76.5047	27.832	77.1455	27.832	76.4772	27.832	77.3145	27.832	76.4746	27.832	77.4929	27.832	76.4969	27.832	77.6758	27.832	76.5439	27.832	77.8575	27.832	76.615	27.832	78.0316	27.832	76.7091	27.832	78.1911	27.832	76.8249	27.832	78.3289	27.832	76.9603	27.832	78.4382	27.832	77.1131	27.832	78.5132	27.832	77.2799	27.832	78.5497	27.832	77.4569	27.832	78.5455	27.832	77.6394	27.832	78.501	27.832	77.8218	27.832	78.4188	27.832	77.9979	27.832	78.3034	27.832	78.1608
29.2969	78.0763	29.2969	77.9808	29.2969	78.193	29.2969	77.9077	29.2969	78.3288	29.2969	77.8581	29.2969	78.4813	29.2969	77.8326	29.2969	78.6473	29.2969	77.8315	29.2969	78.8228	29.2969	77.8549	29.2969	79.0032	29.2969	77.9023	29.2969	79.1828	29.2969	77.9733	29.2969	79.3552	29.2969	78.0667	29.2969	79.5134	29.2969	78.1812	29.2969	79.6503	29.2969	78.3148	29.2969	79.7591	29.2969	78.4652	29.2969	79.8341	29.2969	78.6291	29.2969	79.871	29.2969	78.8028	29.2969	79.8678	29.2969	78.9816	29.2969	79.8248	29.2969	79.1604	29.2969	79.7446	29.2969	79.3328	29.2969	79.6318	29.2969	79.4922
30.7617	79.3642	30.7617	79.2683	30.7617	79.4815	30.7617	79.1953	30.7617	79.6183	30.7617	79.146	30.7617	79.772	30.7617	79.1212	30.7617	79.9395	30.7617	79.1211	30.7617	80.1166	30.7617	79.1457	30.7617	80.2987	30.7617	79.1945	30.7617	80.4799	30.7617	79.2668	30.7617	80.6539	30.7617	79.3617	30.7617	80.8136	30.7617	79.4776	30.7617	80.9519	30.7617	79.6126	30.7617	81.0619	30.7617	79.7643	30.7617	81.1378	30.7617	79.9295	30.7617	81.1755	30.7617	80.1044	30.7617	81.1728	30.7617	80.2844	30.7617	81.1301	30.7617	80.464	30.7617	81.05	30.7617	80.6372	30.7617	80.9371	30.7617	80.7972
32.2266	80.6285	32.2266	80.5327	32.2266	80.7458	32.2266	80.4598	32.2266	80.8826	32.2266	80.4108	32.2266	81.0363	32.2266	80.3862	32.2266	81.2037	32.2266	80.3865	32.2266	81.3809	32.2266	80.4115	32.2266	81.5631	32.2266	80.461	32.2266	81.7445	32.2266	80.5342	32.2266	81.9188	32.2266	80.63	32.2266	82.0789	32.2266	80.747	32.2266	82.2176	32.2266	80.8832	32.2266	82.3283	32.2266	81.036	32.2266	82.405	32.2266	81.2022	32.2266	82.4436	32.2266	81.3778	32.2266	82.442	32.2266	81.5583	32.2266	82.4005	32.2266	81.7381	32.2266	82.3215	32.2266	81.911	32.2266	82.2095	32.2266	82.0705
33.6914	81.8918	33.6914	81.7952	33.6914	82.0098	33.6914	81.7215	33.6914	82.1475	33.6914	81.6719	33.6914	82.302	33.6914	81.6469	33.6914	82.4703	33.6914	81.6468	33.6914	82.6484	33.6914	81.6717	33.6914	82.8313	33.6914	81.7211	33.6914	83.0134	33.6914	81.7944	33.6914	83.1883	33.6914	81.8905	33.6914	83.3488	33.6914	82.0079	33.6914	83.4879	33.6914	82.1446	33.6914	83.5988	33.6914	82.2979	33.6914	83.6754	33.6914	82.4648	33.6914	83.7138	33.6914	82.6412	33.6914	83.7118	33.6914	82.8225	33.6914	83.6697	33.6914	83.0031	33.6914	83.59	33.6914	83.177	33.6914	83.4772	33.6914	83.3373
35.1562	83.0646	35.1562	82.9678	35.1562	83.1829	35.1562	82.8939	35.1562	83.3207	35.1562	82.844	35.1562	83.4754	35.1562	82.8187	35.1562	83.6439	35.1562	82.8183	35.1562	83.822	35.1562	82.8428	35.1562	84.0051	35.1562	82.892	35.1562	84.1873	35.1562	82.9651	35.1562	84.3623	35.1562	83.0611	35.1562	84.5229	35.1562	83.1785	35.1562	84.6621	35.1562	83.3154	35.1562	84.7729	35.1562	83.4691	35.1562	84.8495	35.1562	83.6364	35.1562	84.8879	35.1562	83.8133	35.1562	84.8857	35.1562	83.995	35.1562	84.8435	35.1562	84.176	35.1562	84.7637	35.1562	84.3502	35.1562	84.6509	35.1562	84.5108
36.6211	84.1431	36.6211	84.0462	36.6211	84.2613	36.6211	83.9721	36.6211	84.3987	36.6211	83.9218	36.6211	84.5529	36.6211	83.8961	36.6211	84.7205	36.6211	83.8951	36.6211	84.8976	36.6211	83.9191	36.6211	85.0794	36.6211	83.9676	36.6211	85.2602	36.6211	84.0399	36.6211	85.4335	36.6211	84.135	36.6211	85.5925	36.6211	84.2514	36.6211	85.7301	36.6211	84.3871	36.6211	85.8394	36.6211	84.5395	36.6211	85.9148	36.6211	84.7054	36.6211	85.952	36.6211	84.881	36.6211	85.949	36.6211	85.0613	36.6211	85.9062	36.6211	85.2412	36.6211	85.8263	36.6211	85.4143	36.6211	85.7136	36.6211	85.574
38.0859	85.067	38.0859	84.9708	38.0859	85.1845	38.0859	84.8975	38.0859	85.3213	38.0859	84.8479	38.0859	85.475	38.0859	84.8228	38.0859	85.6423	38.0859	84.8224	38.0859	85.8192	38.0859	84.8468	38.0859	86.001	38.0859	84.8957	38.0859	86.1821	38.0859	84.9684	38.0859	86.3559	38.0859	85.0638	38.0859	86.5157	38.0859	85.1805	38.0859	86.6541	38.0859	85.3165	38.0859	86.7645	38.0859	85.4692	38.0859	86.841	38.0859	85.6355	38.0859	86.8793	38.0859	85.8113	38.0859	86.8775	38.0859	85.9921	38.0859	86.8357	38.0859	86.1721	38.0859	86.7565	38.0859	86.3454	38.0859	86.6444	38.0859	86.5051
39.5508	85.7164	39.5508	85.62	39.5508	85.834	39.5508	85.5463	39.5508	85.9709	39.5508	85.4965	39.5508	86.1246	39.5508	85.4711	39.5508	86.2919	39.5508	85.4705	39.5508	86.4687	39.5508	85.4947	39.5508	86.6504	39.5508	85.5434	39.5508	86.8312	39.5508	85.616	39.5508	87.0048	39.5508	85.7114	39.5508	87.1643	39.5508	85.8281	39.5508	87.3025	39.5508	85.9641	39.5508	87.4126	39.5508	86.1168	39.5508	87.4889	39.5508	86.283	39.5508	87.527	39.5508	86.4588	39.5508	87.525	39.5508	86.6395	39.5508	87.4831	39.5508	86.8195	39.5508	87.4038	39.5508	86.9926	39.5508	87.2916	39.5508	87.1523
41.0156	86.1314	41.0156	86.0326	41.0156	86.2517	41.0156	85.9568	41.0156	86.3915	41.0156	85.905	41.0156	86.5481	41.0156	85.878	41.0156	86.7182	41.0156	85.8761	41.0156	86.8979	41.0156	85.8993	41.0156	87.0821	41.0156	85.9474	41.0156	87.2651	41.0156	86.0196	41.0156	87.4406	41.0156	86.1149	41.0156	87.6013	41.0156	86.2319	41.0156	87.7402	41.0156	86.3685	41.0156	87.8503	41.0156	86.5223	41.0156	87.9259	41.0156	86.6901	41.0156	87.9626	41.0156	86.8678	41.0156	87.9584	41.0156	87.0508	41.0156	87.9138	41.0156	87.2336	41.0156	87.8313	41.0156	87.4099	41.0156	87.7157	41.0156	87.573
42.4805	86.2783	42.4805	86.18	42.4805	86.3981	42.4805	86.1048	42.4805	86.5374	42.4805	86.0538	42.4805	86.6936	42.4805	86.0276	42.4805	86.8634	42.4805	86.0267	42.4805	87.0428	42.4805	86.051	42.4805	87.227	42.4805	86.1003	42.4805	87.4102	42.4805	86.174	42.4805	87.5861	42.4805	86.2708	42.4805	87.7477	42.4805	86.3894	42.4805	87.8878	42.4805	86.5278	42.4805	87.9995	42.4805	86.6832	42.4805	88.077	42.4805	86.8525	42.4805	88.1161	42.4805	87.0315	42.4805	88.1145	42.4805	87.2154	42.4805	88.0724	42.4805	87.3987	42.4805	87.9922	42.4805	87.5749	42.4805	87.8785	42.4805	87.7372
43.9453	86.2714	43.9453	86.173	43.9453	86.3914	43.9453	86.0977	43.9453	86.531	43.9453	86.0465	43.9453	86.6874	43.9453	86.0203	43.9453	86.8576	43.9453	86.0194	43.9453	87.0373	43.9453	86.0439	43.9453	87.2219	43.9453	86.0934	43.9453	87.4057	43.9453	86.1673	43.9453	87.5821	43.9453	86.2645	43.9453	87.7443	43.9453	86.3836	43.9453	87.885	43.9453	86.5225	43.9453	87.9973	43.9453	86.6786	43.9453	88.0754	43.9453	86.8484	43.9453	88.1149	43.9453	87.0281	43.9453	88.1136	43.9453	87.2127	43.9453	88.0717	43.9453	87.3965	43.9453	87.9915	43.9453	87.5732	43.9453	87.8777	43.9453	87.736
45.4102	86.1975	45.4102	86.0991	45.4102	86.3173	45.4102	86.0238	45.4102	86.4565	45.4102	85.9727	45.4102	86.6127	45.4102	85.9464	45.4102	86.7824	45.4102	85.9454	45.4102	86.9618	45.4102	85.9698	45.4102	87.146	45.4102	86.0192	45.4102	87.3295	45.4102	86.0929	45.4102	87.5057	45.4102	86.19	45.4102	87.6678	45.4102	86.309	45.4102	87.8085	45.4102	86.4477	45.4102	87.921	45.4102	86.6036	45.4102	87.9992	45.4102	86.7733	45.4102	88.039	45.4102	86.9529	45.4102	88.0379	45.4102	87.1374	45.4102	87.9962	45.4102	87.3212	45.4102	87.9162	45.4102	87.4979	45.4102	87.8024	45.4102	87.6607
46.875	86.1046	46.875	86.0055	46.875	86.2252	46.875	85.9293	46.875	86.3651	46.875	85.8772	46.875	86.5219	46.875	85.8499	46.875	86.6921	46.875	85.8479	46.875	86.8719	46.875	85.8711	46.875	87.0564	46.875	85.9194	46.875	87.2399	46.875	85.9921	46.875	87.416	46.875	86.0882	46.875	87.5777	46.875	86.2062	46.875	87.7178	46.875	86.3442	46.875	87.8295	46.875	86.4996	46.875	87.9067	46.875	86.669	46.875	87.9452	46.875	86.8486	46.875	87.9427	46.875	87.0334	46.875	87.8994	46.875	87.2178	46.875	87.8179	46.875	87.3955	46.875	87.7025	46.875	87.5594
48.3398	85.9849	48.3398	85.8851	48.3398	86.1059	48.3398	85.808	48.3398	86.2462	48.3398	85.7548	48.3398	86.403	48.3398	85.7262	48.3398	86.5732	48.3398	85.7228	48.3398	86.7527	48.3398	85.7445	48.3398	86.9368	48.3398	85.7912	48.3398	87.1198	48.3398	85.8624	48.3398	87.2954	48.3398	85.9571	48.3398	87.4566	48.3398	86.074	48.3398	87.596	48.3398	86.2111	48.3398	87.707	48.3398	86.3659	48.3398	87.7835	48.3398	86.5352	48.3398	87.8212	48.3398	86.715	48.3398	87.8178	48.3398	86.9004	48.3398	87.7735	48.3398	87.0857	48.3398	87.6907	48.3398	87.2645	48.3398	87.5741	48.3398	87.4297
51.2695	85.8194	51.2695	85.7189	51.2695	85.941	51.2695	85.6411	51.2695	86.0816	51.2695	85.5872	51.2695	86.2385	51.2695	85.558	51.2695	86.4087	51.2695	85.554	51.2695	86.5879	51.2695	85.5754	51.2695	86.7716	51.2695	85.622	51.2695	86.9541	51.2695	85.6935	51.2695	87.1291	51.2695	85.7887	51.2695	87.2898	51.2695	85.9063	51.2695	87.4289	51.2695	86.0443	51.2695	87.5397	51.2695	86.2002	51.2695	87.6163	51.2695	86.3706	51.2695	87.6544	51.2695	86.5513	51.2695	87.6516	51.2695	86.7374	51.2695	87.608	51.2695	86.923	51.2695	87.5261	51.2695	87.1018	51.2695	87.4103	51.2695	87.2666
52.7344	85.7671	52.7344	85.6693	52.7344	85.8866	52.7344	85.5948	52.7344	86.0258	52.7344	85.5446	52.7344	86.1819	52.7344	85.5197	52.7344	86.3519	52.7344	85.5203	52.7344	86.5318	52.7344	85.5467	52.7344	86.7168	52.7344	85.5985	52.7344	86.9013	52.7344	85.675	52.7344	87.0791	52.7344	85.7752	52.7344	87.2431	52.7344	85.8974	52.7344	87.3864	52.7344	86.0395	52.7344	87.5019	52.7344	86.1987	52.7344	87.5837	52.7344	86.3715	52.7344	87.6272	52.7344	86.5537	52.7344	87.63	52.7344	86.7402	52.7344	87.5919	52.7344	86.9251	52.7344	87.5152	52.7344	87.1021	52.7344	87.404	52.7344	87.264
54.1992	85.7474	54.1992	85.651	54.1992	85.8653	54.1992	85.5779	54.1992	86.003	54.1992	85.5289	54.1992	86.1578	54.1992	85.5049	54.1992	86.3265	54.1992	85.5061	54.1992	86.5052	54.1992	85.5327	54.1992	86.6892	54.1992	85.5841	54.1992	86.8727	54.1992	85.6599	54.1992	87.0496	54.1992	85.7587	54.1992	87.2129	54.1992	85.8792	54.1992	87.3553	54.1992	86.0192	54.1992	87.4701	54.1992	86.1761	54.1992	87.5512	54.1992	86.3466	54.1992	87.594	54.1992	86.5265	54.1992	87.5963	54.1992	86.7109	54.1992	87.5579	54.1992	86.8941	54.1992	87.481	54.1992	87.0696	54.1992	87.37	54.1992	87.2306
55.6641	85.7333	55.6641	85.6367	55.6641	85.851	55.6641	85.5626	55.6641	85.9879	55.6641	85.5122	55.6641	86.1414	55.6641	85.4862	55.6641	86.3084	55.6641	85.485	55.6641	86.485	55.6641	85.5086	55.6641	86.6663	55.6641	85.5568	55.6641	86.847	55.6641	85.629	55.6641	87.0207	55.6641	85.7243	55.6641	87.1805	55.6641	85.8412	55.6641	87.3194	55.6641	85.9778	55.6641	87.4306	55.6641	86.1316	55.6641	87.5083	55.6641	86.2992	55.6641	87.548	55.6641	86.4766	55.6641	87.5475	55.6641	86.659	55.6641	87.5067	55.6641	86.8408	55.6641	87.4281	55.6641	87.0154	55.6641	87.316	55.6641	87.1762
58.5938	85.7181	58.5938	85.6196	58.5938	85.8371	58.5938	85.5431	58.5938	85.9746	58.5938	85.4898	58.5938	86.1281	58.5938	85.4605	58.5938	86.2943	58.5938	85.4556	58.5938	86.4695	58.5938	85.4754	58.5938	86.6488	58.5938	85.5197	58.5938	86.8269	58.5938	85.5881	58.5938	86.9976	58.5938	85.6797	58.5938	87.1542	58.5938	85.7932	58.5938	87.2898	58.5938	85.9268	58.5938	87.3977	58.5938	86.078	58.5938	87.472	58.5938	86.2437	58.5938	87.5084	58.5938	86.4199	58.5938	87.5048	58.5938	86.6019	58.5938	87.461	58.5938	86.7841	58.5938	87.3794	58.5938	86.9599	58.5938	87.2646	58.5938	87.1225
60.0586	85.7218	60.0586	85.6238	60.0586	85.8405	60.0586	85.5482	60.0586	85.9781	60.0586	85.4961	60.0586	86.1319	60.0586	85.4682	60.0586	86.2988	60.0586	85.4651	60.0586	86.4749	60.0586	85.4869	60.0586	86.6555	60.0586	85.5334	60.0586	86.8351	60.0586	85.6042	60.0586	87.0076	60.0586	85.6983	60.0586	87.1663	60.0586	85.8145	60.0586	87.3042	60.0586	85.9508	60.0586	87.4145	60.0586	86.1046	60.0586	87.4915	60.0586	86.2727	60.0586	87.5306	60.0586	86.4509	60.0586	87.5296	60.0586	86.6344	60.0586	87.4883	60.0586	86.8173	60.0586	87.4091	60.0586	86.9933	60.0586	87.2961	60.0586	87.1553
62.9883	85.7974	62.9883	85.6978	62.9883	85.9183	62.9883	85.6213	62.9883	86.0586	62.9883	85.569	62.9883	86.2156	62.9883	85.5418	62.9883	86.386	62.9883	85.54	62.9883	86.5659	62.9883	85.5639	62.9883	86.7505	62.9883	85.6133	62.9883	86.9343	62.9883	85.6875	62.9883	87.111	62.9883	85.7856	62.9883	87.2737	62.9883	85.906	62.9883	87.4154	62.9883	86.0468	62.9883	87.5294	62.9883	86.2051	62.9883	87.6094	62.9883	86.3777	62.9883	87.6512	62.9883	86.5602	62.9883	87.6521	62.9883	86.7476	62.9883	87.6119	62.9883	86.934	62.9883	87.5329	62.9883	87.1129	62.9883	87.4193	62.9883	87.277
64.4531	85.8043	64.4531	85.7031	64.4531	85.9271	64.4531	85.625	64.4531	86.0692	64.4531	85.5714	64.4531	86.228	64.4531	85.5429	64.4531	86.4002	64.4531	85.5402	64.4531	86.5816	64.4531	85.5634	64.4531	86.7676	64.4531	85.6123	64.4531	86.9525	64.4531	85.6863	64.4531	87.13	64.4531	85.7845	64.4531	87.2933	64.4531	85.9053	64.4531	87.4352	64.4531	86.0467	64.4531	87.5489	64.4531	86.206	64.4531	87.6285	64.4531	86.3797	64.4531	87.6694	64.4531	86.5636	64.4531	87.6692	64.4531	86.7526	64.4531	87.6277	64.4531	86.9408	64.4531	87.5471	64.4531	87.1215	64.4531	87.4318	64.4531	87.2876
67.3828	85.9057	67.3828	85.8019	67.3828	86.0304	67.3828	85.7211	67.3828	86.1741	67.3828	85.6644	67.3828	86.3338	67.3828	85.633	67.3828	86.5061	67.3828	85.6273	67.3828	86.6869	67.3828	85.6476	67.3828	86.8715	67.3828	85.6939	67.3828	87.0543	67.3828	85.7656	67.3828	87.2291	67.3828	85.8618	67.3828	87.3892	67.3828	85.981	67.3828	87.5279	67.3828	86.1212	67.3828	87.6384	67.3828	86.2797	67.3828	87.7149	67.3828	86.453	67.3828	87.7532	67.3828	86.6369	67.3828	87.7507	67.3828	86.8262	67.3828	87.7073	67.3828	87.0149	67.3828	87.6252	67.3828	87.1963	67.3828	87.5086	67.3828	87.3633
68.8477	85.9768	68.8477	85.8732	68.8477	86.1009	68.8477	85.792	68.8477	86.2433	68.8477	85.7346	68.8477	86.4012	68.8477	85.7019	68.8477	86.5713	68.8477	85.6946	68.8477	86.7494	68.8477	85.7131	68.8477	86.9309	68.8477	85.7572	68.8477	87.1103	68.8477	85.8266	68.8477	87.2816	68.8477	85.9203	68.8477	87.4381	68.8477	86.0369	68.8477	87.5733	68.8477	86.1744	68.8477	87.6807	68.8477	86.3302	68.8477	87.7546	68.8477	86.5009	68.8477	87.7908	68.8477	86.6822	68.8477	87.7869	68.8477	86.8691	68.8477	87.7428	68.8477	87.0556	68.8477	87.6606	68.8477	87.235	68.8477	87.5445	68.8477	87.4004
71.7773	86.0772	71.7773	85.9761	71.7773	86.1979	71.7773	85.8965	71.7773	86.3362	71.7773	85.8397	71.7773	86.4893	71.7773	85.8068	71.7773	86.6539	71.7773	85.7983	71.7773	86.8261	71.7773	85.8147	71.7773	87.0012	71.7773	85.8558	71.7773	87.174	71.7773	85.9213	71.7773	87.3387	71.7773	86.0104	71.7773	87.4889	71.7773	86.1217	71.7773	87.6182	71.7773	86.2534	71.7773	87.7204	71.7773	86.4029	71.7773	87.79	71.7773	86.567	71.7773	87.8231	71.7773	86.7417	71.7773	87.8173	71.7773	86.922	71.7773	87.7727	71.7773	87.1024	71.7773	87.6914	71.7773	87.2764	71.7773	87.5777	71.7773	87.4371
74.707	86.1849	74.707	86.0852	74.707	86.304	74.707	86.0067	74.707	86.4405	74.707	85.9506	74.707	86.5915	74.707	85.9179	74.707	86.7538	74.707	85.9091	74.707	86.9236	74.707	85.9246	74.707	87.0962	74.707	85.9642	74.707	87.2664	74.707	86.0277	74.707	87.4284	74.707	86.1142	74.707	87.5759	74.707	86.2225	74.707	87.7027	74.707	86.3508	74.707	87.8026	74.707	86.4968	74.707	87.8702	74.707	86.6574	74.707	87.9017	74.707	86.8288	74.707	87.8947	74.707	87.0061	74.707	87.8494	74.707	87.1839	74.707	87.768	74.707	87.3558	74.707	87.6546	74.707	87.515
77.6367	86.238	77.6367	86.1372	77.6367	86.3581	77.6367	86.0575	77.6367	86.4953	77.6367	86.0001	77.6367	86.6469	77.6367	85.9659	77.6367	86.8094	77.6367	85.9557	77.6367	86.9789	77.6367	85.9696	77.6367	87.1509	77.6367	86.0077	77.6367	87.32	77.6367	86.0695	77.6367	87.4804	77.6367	86.1543	77.6367	87.6261	77.6367	86.261	77.6367	87.7507	77.6367	86.3878	77.6367	87.8483	77.6367	86.5325	77.6367	87.9136	77.6367	86.6919	77.6367	87.9428	77.6367	86.8624	77.6367	87.9338	77.6367	87.0391	77.6367	87.8866	77.6367	87.2166	77.6367	87.8036	77.6367	87.3887	77.6367	87.689	77.6367	87.5485
79.1016	86.3061	79.1016	86.2041	79.1016	86.4271	79.1016	86.123	79.1016	86.5649	79.1016	86.0639	79.1016	86.7166	79.1016	86.028	79.1016	86.879	79.1016	86.0159	79.1016	87.048	79.1016	86.0279	79.1016	87.219	79.1016	86.0639	79.1016	87.3867	79.1016	86.1238	79.1016	87.5454	79.1016	86.2067	79.1016	87.6891	79.1016	86.3115	79.1016	87.8114	79.1016	86.4366	79.1016	87.9066	79.1016	86.5798	79.1016	87.9695	79.1016	86.738	79.1016	87.9963	79.1016	86.9075	79.1016	87.9851	79.1016	87.0837	79.1016	87.936	79.1016	87.2611	79.1016	87.8512	79.1016	87.4333	79.1016	87.7353	79.1016	87.5937
82.0312	86.4082	82.0312	86.3038	82.0312	86.531	82.0312	86.2198	82.0312	86.67	82.0312	86.1576	82.0312	86.8223	82.0312	86.1183	82.0312	86.9845	82.0312	86.1025	82.0312	87.1524	82.0312	86.1106	82.0312	87.3213	82.0312	86.1427	82.0312	87.4862	82.0312	86.1985	82.0312	87.6412	82.0312	86.2775	82.0312	87.7804	82.0312	86.3784	82.0312	87.8979	82.0312	86.4998	82.0312	87.988	82.0312	86.6397	82.0312	88.0457	82.0312	86.795	82.0312	88.0675	82.0312	86.9623	82.0312	88.0516	82.0312	87.1369	82.0312	87.9983	82.0312	87.3136	82.0312	87.91	82.0312	87.4861	82.0312	87.7912	82.0312	87.6476
84.9609	86.5124	84.9609	86.4074	84.9609	86.6351	84.9609	86.3219	84.9609	86.7732	84.9609	86.2573	84.9609	86.9239	84.9609	86.2148	84.9609	87.0837	84.9609	86.1949	84.9609	87.2485	84.9609	86.1983	84.9609	87.4139	84.9609	86.2249	84.9609	87.5746	84.9609	86.2747	84.9609	87.7251	84.9609	86.3473	84.9609	87.8595	84.9609	86.4419	84.9609	87.9719	84.9609	86.5573	84.9609	88.057	84.9609	86.6915	84.9609	88.1098	84.9609	86.8421	84.9609	88.127	84.9609	87.0057	84.9609	88.1066	84.9609	87.1779	84.9609	88.0492	84.9609	87.3535	84.9609	87.9572	84.9609	87.5263	84.9609	87.8352	84.9609	87.6892
87.8906	86.5046	87.8906	86.3971	87.8906	86.6312	87.8906	86.3106	87.8906	86.7742	87.8906	86.2467	87.8906	86.9305	87.8906	86.2064	87.8906	87.0964	87.8906	86.1904	87.8906	87.2674	87.8906	86.1987	87.8906	87.4386	87.8906	86.2315	87.8906	87.6048	87.8906	86.2883	87.8906	87.76	87.8906	86.3683	87.8906	87.8986	87.8906	86.4705	87.8906	88.0148	87.8906	86.5932	87.8906	88.1032	87.8906	86.7343	87.8906	88.1593	87.8906	86.8911	87.8906	88.1796	87.8906	87.06	87.8906	88.1625	87.8906	87.2365	87.8906	88.1081	87.8906	87.4152	87.8906	88.0187	87.8906	87.5897	87.8906	87.8984	87.8906	87.7532
90.8203	86.7152	90.8203	86.6071	90.8203	86.8393	90.8203	86.517	90.8203	86.9769	90.8203	86.4465	90.8203	87.1249	90.8203	86.3967	90.8203	87.2798	90.8203	86.3682	90.8203	87.4372	90.8203	86.3617	90.8203	87.5925	90.8203	86.3773	90.8203	87.7407	90.8203	86.415	90.8203	87.8766	90.8203	86.4747	90.8203	87.9949	90.8203	86.5559	90.8203	88.0904	90.8203	86.6577	90.8203	88.1586	90.8203	86.7788	90.8203	88.1956	90.8203	86.9171	90.8203	88.1986	90.8203	87.0696	90.8203	88.1665	90.8203	87.2326	90.8203	88.0999	90.8203	87.401	90.8203	88.0017	90.8203	87.569	90.8203	87.8763	90.8203	87.7297
95.2148	86.7016	95.2148	86.5938	95.2148	86.8251	95.2148	86.5037	95.2148	86.9614	95.2148	86.433	95.2148	87.1075	95.2148	86.3827	95.2148	87.2594	95.2148	86.3536	95.2148	87.413	95.2148	86.3463	95.2148	87.5634	95.2148	86.3609	95.2148	87.7059	95.2148	86.3974	95.2148	87.8354	95.2148	86.4555	95.2148	87.9472	95.2148	86.5346	95.2148	88.0366	95.2148	86.634	95.2148	88.0996	95.2148	86.7522	95.2148	88.1329	95.2148	86.8871	95.2148	88.134	95.2148	87.0358	95.2148	88.1018	95.2148	87.1946	95.2148	88.0368	95.2148	87.3585	95.2148	87.9415	95.2148	87.5218	95.2148	87.82	95.2148	87.6779
98.1445	86.7288	98.1445	86.6213	98.1445	86.8507	98.1445	86.5305	98.1445	86.9844	98.1445	86.4581	98.1445	87.1264	98.1445	86.4052	98.1445	87.273	98.1445	86.3727	98.1445	87.4198	98.1445	86.3609	98.1445	87.5621	98.1445	86.3702	98.1445	87.6952	98.1445	86.4006	98.1445	87.8145	98.1445	86.4518	98.1445	87.9156	98.1445	86.5234	98.1445	87.9944	98.1445	86.6148	98.1445	88.0475	98.1445	86.7247	98.1445	88.0722	98.1445	86.8513	98.1445	88.0664	98.1445	86.9919	98.1445	88.0295	98.1445	87.143	98.1445	87.9621	98.1445	87.2999	98.1445	87.8665	98.1445	87.457	98.1445	87.7467	98.1445	87.6082
101.074	86.7751	101.074	86.6679	101.074	86.8951	101.074	86.5756	101.074	87.025	101.074	86.5002	101.074	87.1613	101.074	86.443	101.074	87.3001	101.074	86.4048	101.074	87.4371	101.074	86.3863	101.074	87.5679	101.074	86.3879	101.074	87.6879	101.074	86.4097	101.074	87.7929	101.074	86.4518	101.074	87.879	101.074	86.5138	101.074	87.9431	101.074	86.5952	101.074	87.9826	101.074	86.6949	101.074	87.9954	101.074	86.8112	101.074	87.9804	101.074	86.9415	101.074	87.9373	101.074	87.0826	101.074	87.867	101.074	87.2299	101.074	87.7717	101.074	87.3784	101.074	87.6551	101.074	87.5221
105.469	86.9085	105.469	86.8011	105.469	87.0259	105.469	86.7059	105.469	87.1503	105.469	86.625	105.469	87.2787	105.469	86.5597	105.469	87.4072	105.469	86.5113	105.469	87.532	105.469	86.4807	105.469	87.6487	105.469	86.4685	105.469	87.7532	105.469	86.4752	105.469	87.8416	105.469	86.5011	105.469	87.9103	105.469	86.5463	105.469	87.9566	105.469	86.6105	105.469	87.9782	105.469	86.693	105.469	87.9738	105.469	86.7926	105.469	87.943	105.469	86.9074	105.469	87.8861	105.469	87.0347	105.469	87.8049	105.469	87.1706	105.469	87.7022	105.469	87.3108	105.469	87.5822	105.469	87.4498
108.398	86.9251	108.398	86.8112	108.398	87.0483	108.398	86.7092	108.398	87.1777	108.398	86.621	108.398	87.3095	108.398	86.5482	108.398	87.4396	108.398	86.4919	108.398	87.5634	108.398	86.4529	108.398	87.676	108.398	86.4318	108.398	87.7729	108.398	86.429	108.398	87.8499	108.398	86.4446	108.398	87.9039	108.398	86.4789	108.398	87.9326	108.398	86.5317	108.398	87.9348	108.398	86.6025	108.398	87.9105	108.398	86.6907	108.398	87.8604	108.398	86.7949	108.398	87.7862	108.398	86.9128	108.398	87.6906	108.398	87.0416	108.398	87.5772	108.398	87.1773	108.398	87.4504	108.398	87.3153
112.793	87.0313	112.793	86.9187	112.793	87.1496	112.793	86.8145	112.793	87.2706	112.793	86.7207	112.793	87.3903	112.793	86.6389	112.793	87.5045	112.793	86.57	112.793	87.6085	112.793	86.5148	112.793	87.6977	112.793	86.474	112.793	87.7678	112.793	86.4482	112.793	87.8153	112.793	86.4378	112.793	87.8379	112.793	86.4435	112.793	87.8345	112.793	86.4659	112.793	87.8053	112.793	86.5056	112.793	87.7517	112.793	86.563	112.793	87.6756	112.793	86.638	112.793	87.58	112.793	86.7297	112.793	87.4685	112.793	86.8366	112.793	87.3452	112.793	86.9558	112.793	87.2151	112.793	87.0836
117.188	87.0842	117.188	86.9713	117.188	87.1994	117.188	86.8633	117.188	87.3135	117.188	86.7624	117.188	87.4229	117.188	86.6701	117.188	87.5232	117.188	86.5878	117.188	87.6098	117.188	86.5165	117.188	87.6784	117.188	86.4572	117.188	87.7249	117.188	86.4107	117.188	87.7462	117.188	86.3781	117.188	87.7409	117.188	86.3604	117.188	87.7088	117.188	86.3586	117.188	87.6514	117.188	86.3741	117.188	87.5714	117.188	86.4077	117.188	87.4723	117.188	86.4601	117.188	87.358	117.188	86.5312	117.188	87.2331	117.188	86.6203	117.188	87.1024	117.188	86.7255	117.188	86.9709	117.188	86.8437
120.117	87.163	120.117	87.0477	120.117	87.2788	120.117	86.9355	120.117	87.3917	120.117	86.8285	120.117	87.498	120.117	86.7281	120.117	87.593	120.117	86.6356	120.117	87.672	120.117	86.5521	120.117	87.7304	120.117	86.4783	120.117	87.7638	120.117	86.4154	120.117	87.7693	120.117	86.3644	120.117	87.7454	120.117	86.3267	120.117	87.6923	120.117	86.3039	120.117	87.6121	120.117	86.2977	120.117	87.5083	120.117	86.3101	120.117	87.3856	120.117	86.3426	120.117	87.2492	120.117	86.3966	120.117	87.1049	120.117	86.4726	120.117	86.9589	120.117	86.5697	120.117	86.8172	120.117	86.6858
124.512	87.2121	124.512	87.0893	124.512	87.3333	124.512	86.9678	124.512	87.4495	124.512	86.8495	124.512	87.5564	124.512	86.7359	124.512	87.6492	124.512	86.6281	124.512	87.7226	124.512	86.5269	124.512	87.7714	124.512	86.4331	124.512	87.7913	124.512	86.3477	124.512	87.779	124.512	86.272	124.512	87.7333	124.512	86.2078	124.512	87.6547	124.512	86.1576	124.512	87.5464	124.512	86.1243	124.512	87.4127	124.512	86.1113	124.512	87.2594	124.512	86.1222	124.512	87.0932	124.512	86.1599	124.512	86.9211	124.512	86.2264	124.512	86.7506	124.512	86.3219	124.512	86.5892	124.512	86.4442
128.906	87.2216	128.906	87.0933	128.906	87.3462	128.906	86.9642	128.906	87.4632	128.906	86.8367	128.906	87.5678	128.906	86.7121	128.906	87.6548	128.906	86.5917	128.906	87.7186	128.906	86.4761	128.906	87.7537	128.906	86.3661	128.906	87.7556	128.906	86.2626	128.906	87.7211	128.906	86.167	128.906	87.6495	128.906	86.0811	128.906	87.5423	128.906	86.0079	128.906	87.4037	128.906	85.951	128.906	87.2399	128.906	85.9146	128.906	87.0585	128.906	85.9035	128.906	86.8675	128.906	85.9219	128.906	86.6755	128.906	85.9729	128.906	86.4908	128.906	86.0578	128.906	86.3216	128.906	86.1753
133.301	87.2693	133.301	87.133	133.301	87.398	133.301	86.9924	133.301	87.5148	133.301	86.8502	133.301	87.6146	133.301	86.708	133.301	87.6916	133.301	86.5669	133.301	87.7398	133.301	86.4278	133.301	87.7534	133.301	86.2913	133.301	87.7277	133.301	86.1582	133.301	87.6598	133.301	86.0298	133.301	87.5492	133.301	85.9085	133.301	87.3985	133.301	85.7976	133.301	87.2134	133.301	85.7016	133.301	87.0021	133.301	85.6262	133.301	86.7747	133.301	85.5781	133.301	86.5419	133.301	85.5639	133.301	86.3148	133.301	85.5889	133.301	86.1038	133.301	85.6567	133.301	85.9187	133.301	85.7676
139.16	87.3288	139.16	87.1865	139.16	87.4585	139.16	87.0352	139.16	87.5708	139.16	86.8776	139.16	87.6603	139.16	86.7154	139.16	87.7208	139.16	86.5499	139.16	87.7459	139.16	86.3816	139.16	87.7297	139.16	86.211	139.16	87.667	139.16	86.0389	139.16	87.5552	139.16	85.8668	139.16	87.3943	139.16	85.6971	139.16	87.1879	139.16	85.5341	139.16	86.9435	139.16	85.384	139.16	86.6719	139.16	85.2544	139.16	86.3864	139.16	85.1549	139.16	86.1011	139.16	85.0951	139.16	85.8302	139.16	85.0838	139.16	85.5869	139.16	85.1272	139.16	85.3829	139.16	85.2276
143.555	87.3198	143.555	87.1697	143.555	87.4542	143.555	87.008	143.555	87.5681	143.555	86.8377	143.555	87.6556	143.555	86.6608	143.555	87.7101	143.555	86.4784	143.555	87.7249	143.555	86.2912	143.555	87.6936	143.555	86.0996	143.555	87.6111	143.555	85.9041	143.555	87.4741	143.555	85.706	143.555	87.2828	143.555	85.5081	143.555	87.0413	143.555	85.3147	143.555	86.758	143.555	85.1325	143.555	86.4455	143.555	84.9706	143.555	86.119	143.555	84.8399	143.555	85.7956	143.555	84.7524	143.555	85.492	143.555	84.7189	143.555	85.2237	143.555	84.748	143.555	85.0041	143.555	84.8434
147.949	87.3564	147.949	87.195	147.949	87.4971	147.949	87.0176	147.949	87.6118	147.949	86.8275	147.949	87.6943	147.949	86.6272	147.949	87.7376	147.949	86.4181	147.949	87.7349	147.949	86.2011	147.949	87.6793	147.949	85.9767	147.949	87.5654	147.949	85.7456	147.949	87.3901	147.949	85.5092	147.949	87.1536	147.949	85.2701	147.949	86.8605	147.949	85.0333	147.949	86.5208	147.949	84.8063	147.949	86.149	147.949	84.5991	147.949	85.7638	147.949	84.4249	147.949	85.3857	147.949	84.2978	147.949	85.0356	147.949	84.2321	147.949	84.7324	147.949	84.2391	147.949	84.4919	147.949	84.3255
153.809	87.4375	153.809	87.2634	153.809	87.583	153.809	87.0653	153.809	87.6943	153.809	86.8474	153.809	87.7649	153.809	86.6126	153.809	87.7878	153.809	86.3632	153.809	87.7558	153.809	86.1006	153.809	87.6618	153.809	85.8258	153.809	87.5	153.809	85.5398	153.809	87.2668	153.809	85.2441	153.809	86.9623	153.809	84.9412	153.809	86.5916	153.809	84.636	153.809	86.1658	153.809	84.3365	153.809	85.7023	153.809	84.0543	153.809	85.2238	153.809	83.8052	153.809	84.757	153.809	83.608	153.809	84.3295	153.809	83.4829	153.809	83.967	153.809	83.4482	153.809	83.6911	153.809	83.5163
159.668	87.6227	159.668	87.4513	159.668	87.7595	159.668	87.2496	159.668	87.8566	159.668	87.0208	159.668	87.9079	159.668	86.7676	159.668	87.9064	159.668	86.4919	159.668	87.8446	159.668	86.1951	159.668	87.7148	159.668	85.8784	159.668	87.5105	159.668	85.543	159.668	87.227	159.668	85.1908	159.668	86.8635	159.668	84.8249	159.668	86.4247	159.668	84.451	159.668	85.9224	159.668	84.0778	159.668	85.3761	159.668	83.7189	159.668	84.813	159.668	83.3926	159.668	84.266	159.668	83.1218	159.668	83.7703	159.668	82.9323	159.668	83.3593	159.668	82.8481	159.668	83.0596	159.668	82.8878
165.527	87.6699	165.527	87.5057	165.527	87.7954	165.527	87.3073	165.527	87.8766	165.527	87.0781	165.527	87.9066	165.527	86.8202	165.527	87.8774	165.527	86.5347	165.527	87.7806	165.527	86.222	165.527	87.6071	165.527	85.8816	165.527	87.3491	165.527	85.5132	165.527	87.0005	165.527	85.1166	165.527	86.5591	165.527	84.6932	165.527	86.0288	165.527	84.2466	165.527	85.4218	165.527	83.7845	165.527	84.7603	165.527	83.3202	165.527	84.0779	165.527	82.874	165.527	83.4178	165.527	82.4743	165.527	82.8293	165.527	82.1564	165.527	82.3603	165.527	81.9588	165.527	82.0491	165.527	81.9158
171.387	87.8239	171.387	87.6418	171.387	87.9599	171.387	87.4186	171.387	88.0436	171.387	87.1581	171.387	88.0674	171.387	86.8625	171.387	88.0227	171.387	86.5333	171.387	87.9	171.387	86.1704	171.387	87.6891	171.387	85.7732	171.387	87.3802	171.387	85.3401	171.387	86.9651	171.387	84.87	171.387	86.439	171.387	84.3626	171.387	85.8032	171.387	83.82	171.387	85.068	171.387	83.2485	171.387	84.256	171.387	82.6613	171.387	83.405	171.387	82.0809	171.387	82.5693	171.387	81.5422	171.387	81.816	171.387	81.0931	171.387	81.2165	171.387	80.7906	171.387	80.8307	171.387	80.6904
177.246	87.815	177.246	87.6271	177.246	87.9508	177.246	87.3918	177.246	88.0286	177.246	87.1124	177.246	88.0411	177.246	86.791	177.246	87.9797	177.246	86.4283	177.246	87.8342	177.246	86.024	177.246	87.5936	177.246	85.5764	177.246	87.2467	177.246	85.0833	177.246	86.7827	177.246	84.542	177.246	86.1938	177.246	83.9504	177.246	85.4772	177.246	83.3088	177.246	84.6389	177.246	82.622	177.246	83.6984	177.246	81.9027	177.246	82.6931	177.246	81.1764	177.246	81.6834	177.246	80.4858	177.246	80.7523	177.246	79.8949	177.246	79.9967	177.246	79.4846	177.246	79.5068	177.246	79.3369
183.105	87.6665	183.105	87.4731	183.105	87.8019	183.105	87.2264	183.105	87.8733	183.105	86.9295	183.105	87.8729	183.105	86.5843	183.105	87.7916	183.105	86.1907	183.105	87.619	183.105	85.7477	183.105	87.3435	183.105	85.2527	183.105	86.9528	183.105	84.7023	183.105	86.4353	183.105	84.0929	183.105	85.7811	183.105	83.4214	183.105	84.9851	183.105	82.6873	183.105	84.0506	183.105	81.895	183.105	82.9945	183.105	81.058	183.105	81.8539	183.105	80.2042	183.105	80.6939	183.105	79.3825	183.105	79.6106	183.105	78.6683	183.105	78.7239	183.105	78.1607	183.105	78.1509	183.105	77.9642
188.965	87.5932	188.965	87.395	188.965	87.7235	188.965	87.1337	188.965	87.7796	188.965	86.8128	188.965	87.7536	188.965	86.434	188.965	87.6359	188.965	85.9973	188.965	87.4154	188.965	85.501	188.965	87.0795	188.965	84.9417	188.965	86.6141	188.965	84.3148	188.965	86.0048	188.965	83.6146	188.965	85.2384	188.965	82.836	188.965	84.305	188.965	81.9757	188.965	83.2028	188.965	81.0352	188.965	81.9442	188.965	80.0254	188.965	80.567	188.965	78.9734	188.965	79.147	188.965	77.9318	188.965	77.8104	188.965	76.9885	188.965	76.7269	188.965	76.2695	188.965	76.066	188.965	75.9222
196.289	87.479	196.289	87.2886	196.289	87.5967	196.289	87.0305	196.289	87.635	196.289	86.7078	196.289	87.5855	196.289	86.3217	196.289	87.4378	196.289	85.8714	196.289	87.1795	196.289	85.3536	196.289	86.796	196.289	84.7627	196.289	86.2707	196.289	84.0907	196.289	85.5854	196.289	83.3275	196.289	84.7209	196.289	82.4616	196.289	83.6592	196.289	81.482	196.289	82.387	196.289	80.3807	196.289	80.9031	196.289	79.1585	196.289	79.2325	196.289	77.8345	196.289	77.4517	196.289	76.4609	196.289	75.7221	196.289	75.1435	196.289	74.3047	196.289	74.0566	196.289	73.4899	196.289	73.4322
203.613	87.5217	203.613	87.3178	203.613	87.6438	203.613	87.037	203.613	87.6772	203.613	86.6826	203.613	87.6133	203.613	86.2558	203.613	87.4411	203.613	85.756	203.613	87.1473	203.613	85.1801	203.613	86.7157	203.613	84.5223	203.613	86.1274	203.613	83.7741	203.613	85.3608	203.613	82.9241	203.613	84.392	203.613	81.9581	203.613	83.196	203.613	80.8605	203.613	81.7497	203.613	79.6166	203.613	80.0383	203.613	78.2183	203.613	78.071	203.613	76.6756	203.613	75.9168	203.613	75.0359	203.613	73.7673	203.613	73.4122	203.613	71.9957	203.613	72.0075	203.613	71.0476	203.613	71.1117
210.938	87.471	210.938	87.283	210.938	87.5802	210.938	87.0196	210.938	87.6048	210.938	86.682	210.938	87.5362	210.938	86.2694	210.938	87.3635	210.938	85.7786	210.938	87.0726	210.938	85.2038	210.938	86.6461	210.938	84.5371	210.938	86.0641	210.938	83.7677	210.938	85.3031	210.938	82.8825	210.938	84.3374	210.938	81.8657	210.938	83.1392	210.938	80.7009	210.938	81.6811	210.938	79.3732	210.938	79.9419	210.938	77.8762	210.938	77.9216	210.938	76.2252	210.938	75.6783	210.938	74.4808	210.938	73.4008	210.938	72.7775	210.938	71.4886	210.938	71.3387	210.938	70.439	210.938	70.4542
218.262	87.3263	218.262	87.123	218.262	87.4479	218.262	86.8433	218.262	87.4799	218.262	86.4904	218.262	87.4124	218.262	86.0645	218.262	87.2329	218.262	85.5632	218.262	86.9265	218.262	84.9811	218.262	86.4755	218.262	84.3098	218.262	85.8591	218.262	83.538	218.262	85.054	218.262	82.6524	218.262	84.0343	218.262	81.6384	218.262	82.7739	218.262	80.4833	218.262	81.2505	218.262	79.1816	218.262	79.4585	218.262	77.7465	218.262	77.4388	218.262	76.2284	218.262	75.3393	218.262	74.7373	218.262	73.4798	218.262	73.4377	218.262	72.2543	218.262	72.4805	218.262	71.7957	218.262	71.9231
225.586	87.5015	225.586	87.2947	225.586	87.6187	225.586	87.0038	225.586	87.6382	225.586	86.6316	225.586	87.5496	225.586	86.1784	225.586	87.3396	225.586	85.6411	225.586	86.9919	225.586	85.0135	225.586	86.4862	225.586	84.2859	225.586	85.7981	225.586	83.4452	225.586	84.8982	225.586	82.4758	225.586	83.7522	225.586	81.3611	225.586	82.3221	225.586	80.0885	225.586	80.5727	225.586	78.6603	225.586	78.4948	225.586	77.1171	225.586	76.1786	225.586	75.5761	225.586	73.9747	225.586	74.2519	225.586	72.5422	225.586	73.361	225.586	72.1828	225.586	72.9071	225.586	72.3896	225.586	72.6554
232.91	87.4121	232.91	87.2026	232.91	87.5321	232.91	86.9096	232.91	87.5539	232.91	86.5362	232.91	87.4658	232.91	86.0825	232.91	87.2528	232.91	85.5452	232.91	86.896	232.91	84.9171	232.91	86.3714	232.91	84.187	232.91	85.6493	232.91	83.3396	232.91	84.6926	232.91	82.356	232.91	83.4556	232.91	81.2151	232.91	81.8834	232.91	79.899	232.91	79.9158	232.91	78.4066	232.91	77.5167	232.91	76.7857	232.91	74.8008	232.91	75.1899	232.91	72.3998	232.91	73.9107	232.91	71.4582	232.91	73.2089	232.91	71.8842	232.91	72.9954	232.91	72.5309	232.91	72.8818
241.699	87.3221	241.699	87.0774	241.699	87.4763	241.699	86.75	241.699	87.5299	241.699	86.3449	241.699	87.4705	241.699	85.8642	241.699	87.2826	241.699	85.3061	241.699	86.9467	241.699	84.6646	241.699	86.4382	241.699	83.9291	241.699	85.7257	241.699	83.0845	241.699	84.7684	241.699	82.1127	241.699	83.5131	241.699	80.9953	241.699	81.8899	241.699	79.7222	241.699	79.8107	241.699	78.3107	241.699	77.1927	241.699	76.8439	241.699	74.1249	241.699	75.5201	241.699	71.5501	241.699	74.6176	241.699	71.2533	241.699	74.2555	241.699	72.4651	241.699	74.2033	241.699	73.5323	241.699	74.0673
250.488	87.7633	250.488	87.4834	250.488	87.9351	250.488	87.1003	250.488	87.9919	250.488	86.617	250.488	87.9251	250.488	86.0342	250.488	87.7231	250.488	85.3499	250.488	87.3707	250.488	84.5584	250.488	86.8473	250.488	83.6508	250.488	86.1249	250.488	82.6149	250.488	85.1656	250.488	81.4373	250.488	83.9177	250.488	80.1101	250.488	82.3117	250.488	78.6477	250.488	80.2585	250.488	77.1252	250.488	77.6715	250.488	75.7389	250.488	74.6321	250.488	74.8067	250.488	72.0847	250.488	74.5304	250.488	71.8617	250.488	74.7195	250.488	73.1769	250.488	74.9571	250.488	74.3282	250.488	74.8979
259.277	87.4011	259.277	87.1804	259.277	87.5244	259.277	86.8655	259.277	87.5452	259.277	86.4575	259.277	87.4556	259.277	85.955	259.277	87.2445	259.277	85.3535	259.277	86.8959	259.277	84.6452	259.277	86.3877	259.277	83.8181	259.277	85.6892	259.277	82.8571	259.277	84.7592	259.277	81.7457	259.277	83.542	259.277	80.4739	259.277	81.9633	259.277	79.0552	259.277	79.931	259.277	77.5674	259.277	77.3694	259.277	76.2143	259.277	74.4384	259.277	75.3217	259.277	72.2943	259.277	75.0893	259.277	72.5257	259.277	75.3167	259.277	73.9288	259.277	75.5873	259.277	75.0397	259.277	75.564
268.066	87.5879	268.066	87.3299	268.066	87.7403	268.066	86.9695	268.066	87.7814	268.066	86.5062	268.066	87.7026	268.066	85.9366	268.066	87.4924	268.066	85.2533	268.066	87.1361	268.066	84.4456	268.066	86.6148	268.066	83.4991	268.066	85.903	268.066	82.3981	268.066	84.9659	268.066	81.1304	268.066	83.7545	268.066	79.7029	268.066	82.2001	268.066	78.1802	268.066	80.2155	268.066	76.7587	268.066	77.7397	268.066	75.8071	268.066	74.9958	268.066	75.6304	268.066	73.2419	268.066	76.0765	268.066	73.8059	268.066	76.6856	268.066	75.322	268.066	77.0849	268.066	76.4919	268.066	77.0622
276.855	87.2965	276.855	87.0709	276.855	87.428	276.855	86.7526	276.855	87.4621	276.855	86.3396	276.855	87.3925	276.855	85.8263	276.855	87.209	276.855	85.2023	276.855	86.8971	276.855	84.4506	276.855	86.436	276.855	83.5476	276.855	85.7981	276.855	82.4635	276.855	84.9481	276.855	81.1649	276.855	83.841	276.855	79.6266	276.855	82.4204	276.855	77.8705	276.855	80.6226	276.855	76.0737	276.855	78.412	276.855	74.7359	276.855	75.9518	276.855	74.457	276.855	74.0694	276.855	75.0969	276.855	73.9488	276.855	75.9417	276.855	75.0261	276.855	76.4976	276.855	76.0499	276.855	76.558
287.109	87.2918	287.109	87.0786	287.109	87.4017	287.109	86.7656	287.109	87.402	287.109	86.3537	287.109	87.2849	287.109	85.8397	287.109	87.0401	287.109	85.2164	287.109	86.6551	287.109	84.471	287.109	86.1141	287.109	83.5858	287.109	85.3976	287.109	82.5385	287.109	84.4812	287.109	81.3081	287.109	83.3375	287.109	79.8895	287.109	81.9437	287.109	78.3361	287.109	80.3118	287.109	76.8517	287.109	78.5713	287.109	75.8668	287.109	77.1111	287.109	75.7712	287.109	76.4945	287.109	76.3924	287.109	76.7915	287.109	77.2019	287.109	77.4393	287.109	77.8201	287.109	77.9393	287.109	78.0814
297.363	87.4599	297.363	87.265	297.363	87.5462	297.363	86.9677	297.363	87.515	297.363	86.5703	297.363	87.3549	297.363	86.0699	297.363	87.0514	297.363	85.4566	297.363	86.5859	297.363	84.7129	297.363	85.9341	297.363	83.8123	297.363	85.0648	297.363	82.7198	297.363	83.9393	297.363	81.396	297.363	82.5166	297.363	79.8151	297.363	80.7765	297.363	78.031	297.363	78.8077	297.363	76.365	297.363	77.0509	297.363	75.5838	297.363	76.4034	297.363	76.1687	297.363	77.1241	297.363	77.4735	297.363	78.3388	297.363	78.7241	297.363	79.3475	297.363	79.5958	297.363	79.9172	297.363	80.0002
307.617	87.2863	307.617	87.0611	307.617	87.4175	307.617	86.7489	307.617	87.445	307.617	86.3532	307.617	87.3576	307.617	85.8714	307.617	87.1411	307.617	85.2938	307.617	86.7774	307.617	84.6019	307.617	86.2409	307.617	83.7681	307.617	85.495	307.617	82.756	307.617	84.4857	307.617	81.5222	307.617	83.1339	307.617	80.0266	307.617	81.3291	307.617	78.2754	307.617	78.9496	307.617	76.4668	307.617	76.0739	307.617	75.2642	307.617	73.9804	307.617	75.4566	307.617	74.777	307.617	76.69	307.617	76.8362	307.617	78.0306	307.617	78.4181	307.617	78.996	307.617	79.2619	307.617	79.43
319.336	87.2982	319.336	87.0624	319.336	87.4294	319.336	86.7309	319.336	87.447	319.336	86.3113	319.336	87.3428	319.336	85.8074	319.336	87.1084	319.336	85.2162	319.336	86.7331	319.336	84.5259	319.336	86.2008	319.336	83.7149	319.336	85.4863	319.336	82.7533	319.336	84.5489	319.336	81.6087	319.336	83.3269	319.336	80.2628	319.336	81.7345	319.336	78.7602	319.336	79.6885	319.336	77.3244	319.336	77.2754	319.336	76.4747	319.336	75.3696	319.336	76.6712	319.336	75.5712	319.336	77.6346	319.336	77.2057	319.336	78.7154	319.336	78.6967	319.336	79.5039	319.336	79.5736	319.336	79.8208
329.59	87.5853	329.59	87.3681	329.59	87.6927	329.59	87.0497	329.59	87.6826	329.59	86.6388	329.59	87.5487	329.59	86.1405	329.59	87.2846	329.59	85.5533	329.59	86.8821	329.59	84.8653	329.59	86.3282	329.59	84.0523	329.59	85.6018	329.59	83.0784	329.59	84.6678	329.59	81.9019	329.59	83.4687	329.59	80.4949	329.59	81.9178	329.59	78.9072	329.59	79.9169	329.59	77.4314	329.59	77.5087	329.59	76.7464	329.59	75.5342	329.59	77.2998	329.59	75.7955	329.59	78.5445	329.59	77.6582	329.59	79.7395	329.59	79.3624	329.59	80.5264	329.59	80.4042	329.59	80.7718
341.309	87.5526	341.309	87.3008	341.309	87.6914	341.309	86.9486	341.309	87.7062	341.309	86.5082	341.309	87.5879	341.309	85.9876	341.309	87.329	341.309	85.3871	341.309	86.9229	341.309	84.6953	341.309	86.3621	341.309	83.8878	341.309	85.6368	341.309	82.9287	341.309	84.7285	341.309	81.7782	341.309	83.6003	341.309	80.4149	341.309	82.1837	341.309	78.902	341.309	80.3828	341.309	77.5449	341.309	78.1658	341.309	76.9822	341.309	76.0185	341.309	77.567	341.309	75.5794	341.309	78.7595	341.309	77.1647	341.309	79.8746	341.309	78.9756	341.309	80.5679	341.309	80.1855	341.309	80.6984
353.027	87.5093	353.027	87.2293	353.027	87.6679	353.027	86.8396	353.027	87.6968	353.027	86.3544	353.027	87.5899	353.027	85.7883	353.027	87.3418	353.027	85.1515	353.027	86.9469	353.027	84.4436	353.027	86.3972	353.027	83.6479	353.027	85.6811	353.027	82.7288	353.027	84.7802	353.027	81.6367	353.027	83.6646	353.027	80.3275	353.027	82.292	353.027	78.8243	353.027	80.631	353.027	77.3822	353.027	78.7694	353.027	76.6676	353.027	77.2123	353.027	77.1968	353.027	76.9262	353.027	78.4527	353.027	77.9629	353.027	79.6515	353.027	79.2854	353.027	80.4142	353.027	80.2341	353.027	80.619
366.211	88.1412	366.211	87.863	366.211	88.2718	366.211	87.4455	366.211	88.2495	366.211	86.9007	366.211	88.0701	366.211	86.2434	366.211	87.7282	366.211	85.4877	366.211	87.2158	366.211	84.6414	366.211	86.5226	366.211	83.6984	366.211	85.6384	366.211	82.6329	366.211	84.5571	366.211	81.3997	366.211	83.2793	366.211	79.9553	366.211	81.816	366.211	78.3375	366.211	80.2111	366.211	76.892	366.211	78.6409	366.211	76.4548	366.211	77.606	366.211	77.414	366.211	77.7236	366.211	78.9455	366.211	78.7995	366.211	80.2606	366.211	80.0384	366.211	81.0654	366.211	80.9297	366.211	81.2888
379.395	87.7267	379.395	87.4939	379.395	87.8419	379.395	87.1524	379.395	87.8303	379.395	86.7094	379.395	87.6822	379.395	86.1687	379.395	87.3868	379.395	85.5283	379.395	86.9317	379.395	84.778	379.395	86.3018	379.395	83.8979	379.395	85.4776	379.395	82.8586	379.395	84.4331	379.395	81.623	379.395	83.1361	379.395	80.1641	379.395	81.5653	379.395	78.5348	379.395	79.7914	379.395	77.0689	379.395	78.2152	379.395	76.5522	379.395	77.7026	379.395	77.4078	379.395	78.5423	379.395	78.9126	379.395	79.8705	379.395	80.2929	379.395	80.9656	379.395	81.2411	379.395	81.5843	379.395	81.677
392.578	87.6892	392.578	87.4462	392.578	87.7938	392.578	87.0741	392.578	87.7572	392.578	86.5886	392.578	87.5805	392.578	86.0097	392.578	87.2658	392.578	85.3566	392.578	86.8117	392.578	84.6389	392.578	86.2078	392.578	83.8476	392.578	85.4297	392.578	82.9484	392.578	84.4327	392.578	81.883	392.578	83.1439	392.578	80.5863	392.578	81.4592	392.578	79.0496	392.578	79.2835	392.578	77.5252	392.578	76.8342	392.578	76.8387	392.578	75.6391	392.578	77.6883	392.578	77.1183	392.578	79.354	392.578	79.3731	392.578	80.8835	392.578	81.0768	392.578	81.8984	392.578	82.0387	392.578	82.2971
405.762	87.8155	405.762	87.5971	405.762	87.8782	405.762	87.229	405.762	87.787	405.762	86.7258	405.762	87.5498	405.762	86.109	405.762	87.1769	405.762	85.4028	405.762	86.679	405.762	84.6253	405.762	86.0642	405.762	83.7772	405.762	85.3346	405.762	82.832	405.762	84.4749	405.762	81.7346	405.762	83.4333	405.762	80.4188	405.762	82.102	405.762	78.8745	405.762	80.3249	405.762	77.3582	405.762	78.0128	405.762	76.6987	405.762	75.7707	405.762	77.5577	405.762	75.7647	405.762	79.1825	405.762	77.9014	405.762	80.6266	405.762	79.9469	405.762	81.5128	405.762	81.2289	405.762	81.7317
420.41	88.0274	420.41	87.7942	420.41	88.1356	420.41	87.4442	420.41	88.1138	420.41	86.9878	420.41	87.9584	420.41	86.4364	420.41	87.6654	420.41	85.7986	420.41	87.2297	420.41	85.0765	420.41	86.6469	420.41	84.2614	420.41	85.9136	420.41	83.3272	420.41	85.0234	420.41	82.2251	420.41	83.9514	420.41	80.8884	420.41	82.6335	420.41	79.2809	420.41	80.9694	420.41	77.6025	420.41	78.9439	420.41	76.7223	420.41	77.1432	420.41	77.5738	420.41	77.1678	420.41	79.38	420.41	78.9518	420.41	81.006	420.41	80.7776	420.41	82.0307	420.41	81.9435	420.41	82.3546
435.059	87.9325	435.059	87.6916	435.059	88.0226	435.059	87.3093	435.059	87.9594	435.059	86.8034	435.059	87.7456	435.059	86.201	435.059	87.39	435.059	85.5357	435.059	86.9101	435.059	84.8381	435.059	86.333	435.059	84.1217	435.059	85.6875	435.059	83.3676	435.059	84.9782	435.059	82.5213	435.059	84.1516	435.059	81.5077	435.059	83.0836	435.059	80.2819	435.059	81.6204	435.059	78.967	435.059	79.7229	435.059	78.1048	435.059	77.9261	435.059	78.4396	435.059	77.7145	435.059	79.7531	435.059	79.2159	435.059	81.1426	435.059	80.8802	435.059	82.0742	435.059	81.9735	435.059	82.3688
451.172	88.8061	451.172	88.4543	451.172	88.9652	451.172	87.9292	451.172	88.9193	451.172	87.2584	451.172	88.6614	451.172	86.4774	451.172	88.1871	451.172	85.6267	451.172	87.4949	451.172	84.7459	451.172	86.5922	451.172	83.8594	451.172	85.5102	451.172	82.9559	451.172	84.3192	451.172	81.9723	451.172	83.1124	451.172	80.8089	451.172	81.9208	451.172	79.4245	451.172	80.6337	451.172	78.1328	451.172	79.1428	451.172	77.9613	451.172	77.9305	451.172	79.4332	451.172	78.4083	451.172	81.4446	451.172	80.4403	451.172	83.0755	451.172	82.4431	451.172	84.0424	451.172	83.753	451.172	84.2787
465.82	88.5869	465.82	88.4069	465.82	88.5798	465.82	88.0327	465.82	88.3989	465.82	87.4649	465.82	88.059	465.82	86.7151	465.82	87.5731	465.82	85.809	465.82	86.9503	465.82	84.7902	465.82	86.1997	465.82	83.7195	465.82	85.3371	465.82	82.6555	465.82	84.3843	465.82	81.6078	465.82	83.3403	465.82	80.4951	465.82	82.1242	465.82	79.1741	465.82	80.538	465.82	77.6325	465.82	78.3139	465.82	76.5128	465.82	75.5333	465.82	77.1237	465.82	74.4993	465.82	79.0692	465.82	76.9935	465.82	80.8834	465.82	79.713	465.82	81.9587	465.82	81.4377	465.82	82.161
483.398	88.6589	483.398	88.3613	483.398	88.7944	483.398	87.9187	483.398	88.7493	483.398	87.3433	483.398	88.5064	483.398	86.6406	483.398	88.0501	483.398	85.8143	483.398	87.3726	483.398	84.8764	483.398	86.4898	483.398	83.8564	483.398	85.4698	483.398	82.7906	483.398	84.4442	483.398	81.6798	483.398	83.5345	483.398	80.4374	483.398	82.6954	483.398	78.9077	483.398	81.6707	483.398	77.098	483.398	80.1557	483.398	75.9385	483.398	78.1168	483.398	77.0384	483.398	76.6604	483.398	79.3551	483.398	77.6965	483.398	81.2532	483.398	79.917	483.398	82.2889	483.398	81.612	483.398	82.4104
499.512	88.7886	499.512	88.4724	499.512	88.941	499.512	88.0094	499.512	88.9192	499.512	87.4199	499.512	88.713	499.512	86.7182	499.512	88.3042	499.512	85.9018	499.512	87.6622	499.512	84.9532	499.512	86.7508	499.512	83.8599	499.512	85.5601	499.512	82.6444	499.512	84.1764	499.512	81.374	499.512	82.8592	499.512	80.106	499.512	81.9199	499.512	78.7838	499.512	81.3055	499.512	77.2437	499.512	80.5513	499.512	75.569	499.512	79.2433	499.512	74.8877	499.512	77.4577	499.512	76.2584	499.512	76.4107	499.512	78.2095	499.512	77.3341	499.512	79.4506	499.512	78.852	499.512	79.6646
517.09	88.0785	517.09	87.796	517.09	88.1511	517.09	87.3214	517.09	88.0221	517.09	86.7043	517.09	87.7152	517.09	86.0215	517.09	87.2583	517.09	85.3492	517.09	86.6771	517.09	84.7183	517.09	85.9956	517.09	84.0831	517.09	85.2372	517.09	83.3355	517.09	84.4089	517.09	82.3443	517.09	83.4653	517.09	80.9855	517.09	82.2924	517.09	79.1763	517.09	80.7777	517.09	77.0647	517.09	79.0733	517.09	75.7225	517.09	78.0864	517.09	76.7128	517.09	78.769	517.09	78.9397	517.09	80.3005	517.09	80.8602	517.09	81.6244	517.09	82.0751	517.09	82.4061	517.09	82.5728
536.133	88.1388	536.133	87.8486	536.133	88.1836	536.133	87.3035	536.133	87.9997	536.133	86.5131	536.133	87.5962	536.133	85.5229	536.133	86.9592	536.133	84.4397	536.133	86.0491	536.133	83.4454	536.133	84.833	536.133	82.73	536.133	83.3852	536.133	82.3285	536.133	82.0574	536.133	82.0495	536.133	81.3887	536.133	81.6095	536.133	81.3355	536.133	80.775	536.133	81.1414	536.133	79.443	536.133	80.1229	536.133	77.8888	536.133	78.0039	536.133	77.3275	536.133	75.9613	536.133	78.6742	536.133	77.3127	536.133	80.5975	536.133	80.0312	536.133	81.9419	536.133	81.7773	536.133	82.3749
555.176	87.8119	555.176	87.583	555.176	87.8792	555.176	87.1667	555.176	87.8069	555.176	86.5429	555.176	87.5976	555.176	85.7048	555.176	87.2208	555.176	84.6751	555.176	86.6093	555.176	83.5325	555.176	85.672	555.176	82.4332	555.176	84.3222	555.176	81.561	555.176	82.5636	555.176	80.9648	555.176	80.7571	555.176	80.4504	555.176	79.8585	555.176	79.6999	555.176	80.1842	555.176	78.4995	555.176	80.582	555.176	77.1491	555.176	80.0666	555.176	77.0833	555.176	78.3238	555.176	78.8917	555.176	76.5418	555.176	80.8638	555.176	77.9133	555.176	81.9504	555.176	80.449	555.176	81.8583
574.219	87.8335	574.219	87.6436	574.219	87.8345	574.219	87.2416	574.219	87.6754	574.219	86.6142	574.219	87.3813	574.219	85.7565	574.219	86.9578	574.219	84.6761	574.219	86.3783	574.219	83.4102	574.219	85.5769	574.219	82.0616	574.219	84.4495	574.219	80.8263	574.219	82.867	574.219	79.9145	574.219	80.7598	574.219	79.3341	574.219	78.5088	574.219	78.8271	574.219	77.555	574.219	78.1333	574.219	78.2938	574.219	77.3801	574.219	78.9635	574.219	77.4044	574.219	78.7578	574.219	78.7557	574.219	78.3367	574.219	80.4715	574.219	79.1291	574.219	81.5647	574.219	80.6907	574.219	81.6538
594.727	87.2633	594.727	87.2018	594.727	87.1339	594.727	86.9223	594.727	86.8656	594.727	86.4352	594.727	86.5044	594.727	85.7773	594.727	86.0623	594.727	84.9799	594.727	85.5174	594.727	84.0289	594.727	84.8371	594.727	82.851	594.727	83.9924	594.727	81.3639	594.727	82.9323	594.727	79.6086	594.727	81.518	594.727	77.9243	594.727	79.4942	594.727	76.8125	594.727	76.8091	594.727	76.2892	594.727	75.2637	594.727	76.1414	594.727	76.8852	594.727	76.8069	594.727	78.7682	594.727	78.4593	594.727	79.674	594.727	80.1563	594.727	80.1053	594.727	81.1282	594.727	80.6768	594.727	81.2091
615.234	86.995	615.234	86.8699	615.234	86.9972	615.234	86.585	615.234	86.8928	615.234	86.1057	615.234	86.6676	615.234	85.4237	615.234	86.2848	615.234	84.5741	615.234	85.6958	615.234	83.634	615.234	84.8482	615.234	82.6822	615.234	83.7116	615.234	81.7332	615.234	82.3575	615.234	80.7183	615.234	81.0556	615.234	79.5395	615.234	80.1198	615.234	78.1046	615.234	79.4317	615.234	76.31	615.234	78.4389	615.234	74.3004	615.234	76.6089	615.234	73.6948	615.234	73.9876	615.234	75.8527	615.234	73.4679	615.234	78.3655	615.234	76.41	615.234	79.8368	615.234	78.9194	615.234	80.0446
637.207	87.3686	637.207	87.1762	637.207	87.3677	637.207	86.7633	637.207	87.2262	637.207	86.125	637.207	87.0002	637.207	85.275	637.207	86.7035	637.207	84.2588	637.207	86.2702	637.207	83.1779	637.207	85.5563	637.207	82.1689	637.207	84.374	637.207	81.3103	637.207	82.5511	637.207	80.5739	637.207	80.1398	637.207	79.8965	637.207	78.1327	637.207	79.2019	637.207	78.0902	637.207	78.326	637.207	78.8787	637.207	77.1654	637.207	78.8684	637.207	76.4476	637.207	77.8856	637.207	77.7546	637.207	77.5614	637.207	80.1764	637.207	79.4925	637.207	81.9287	637.207	81.5695	637.207	82.4341
659.18	86.8204	659.18	86.9224	659.18	86.5365	659.18	86.7852	659.18	86.132	659.18	86.3721	659.18	85.6527	659.18	85.6711	659.18	85.1227	659.18	84.6934	659.18	84.5472	659.18	83.4822	659.18	83.9109	659.18	82.138	659.18	83.1678	659.18	80.8293	659.18	82.2147	659.18	79.7172	659.18	80.8423	659.18	78.7967	659.18	78.719	659.18	77.8538	659.18	75.8391	659.18	76.6448	659.18	74.8505	659.18	75.3468	659.18	77.0008	659.18	75.3463	659.18	78.2434	659.18	77.3323	659.18	77.4659	659.18	79.3687	659.18	75.841	659.18	80.1899	659.18	77.0876	659.18	79.3885
682.617	86.9014	682.617	86.8096	682.617	86.7603	682.617	86.4568	682.617	86.4699	682.617	85.8734	682.617	86.119	682.617	85.1163	682.617	85.7304	682.617	84.2293	682.617	85.2354	682.617	83.2273	682.617	84.5317	682.617	82.1174	682.617	83.5823	682.617	80.9449	682.617	82.4798	682.617	79.8287	682.617	81.3701	682.617	78.9158	682.617	80.2599	682.617	78.209	682.617	79.0672	682.617	77.46	682.617	77.908	682.617	76.4158	682.617	76.9208	682.617	75.6202	682.617	75.892	682.617	76.6964	682.617	75.2778	682.617	78.931	682.617	76.7231	682.617	80.404	682.617	79.0929	682.617	80.4776
707.52	87.4051	707.52	87.3269	707.52	87.2839	707.52	86.9797	707.52	87.0281	707.52	86.3296	707.52	86.6694	707.52	85.3997	707.52	86.2025	707.52	84.268	707.52	85.5851	707.52	83.0561	707.52	84.7314	707.52	81.9035	707.52	83.5349	707.52	80.8948	707.52	81.9552	707.52	79.9843	707.52	80.1166	707.52	79.0797	707.52	78.3524	707.52	78.1814	707.52	77.5387	707.52	77.237	707.52	78.563	707.52	75.9589	707.52	80.1392	707.52	74.8359	707.52	80.9879	707.52	76.3611	707.52	81.0952	707.52	79.2786	707.52	81.0432	707.52	81.1123	707.52	81.3216	707.52	81.6131
732.422	87.117	732.422	87.1703	732.422	86.8401	732.422	86.9699	732.422	86.4256	732.422	86.5402	732.422	85.9686	732.422	85.9204	732.422	85.5109	732.422	85.1154	732.422	85.0117	732.422	84.0795	732.422	84.3658	732.422	82.7708	732.422	83.4464	732.422	81.2683	732.422	82.1327	732.422	79.8523	732.422	80.2672	732.422	78.8718	732.422	77.466	732.422	78.42	732.422	73.0787	732.422	78.156	732.422	71.3785	732.422	77.468	732.422	75.8351	732.422	76.1161	732.422	78.3103	732.422	75.9407	732.422	78.7174	732.422	78.3983	732.422	78.6395	732.422	80.4703	732.422	79.7582	732.422	80.8501
757.324	86.5843	757.324	86.548	757.324	86.4398	757.324	86.3579	757.324	86.1094	757.324	86.0471	757.324	85.637	757.324	85.6315	757.324	85.1157	757.324	85.0468	757.324	84.6172	757.324	84.1182	757.324	84.0928	757.324	82.6724	757.324	83.3791	757.324	80.7965	757.324	82.3562	757.324	79.1164	757.324	81.0354	757.324	78.2859	757.324	79.3863	757.324	77.9177	757.324	77.4747	757.324	77.3376	757.324	76.2573	757.324	76.3423	757.324	76.108	757.324	75.4447	757.324	75.5092	757.324	76.4413	757.324	74.4159	757.324	78.92	757.324	75.7024	757.324	80.55	757.324	78.689	757.324	80.5071
785.156	87.6725	785.156	88.109	785.156	86.2763	785.156	87.4802	785.156	84.5766	785.156	85.9943	785.156	83.8333	785.156	84.334	785.156	84.2651	785.156	83.5522	785.156	84.799	785.156	83.6474	785.156	84.75	785.156	83.6349	785.156	84.023	785.156	82.9652	785.156	82.9323	785.156	81.6807	785.156	81.818	785.156	80.3435	785.156	80.3273	785.156	79.5278	785.156	77.5337	785.156	78.8535	785.156	74.7434	785.156	77.5653	785.156	77.5584	785.156	75.5286	785.156	79.8903	785.156	74.6819	785.156	79.7348	785.156	77.2803	785.156	79.084	785.156	80.0412	785.156	80.2519	785.156	81.0647
811.523	86.5841	811.523	87.1726	811.523	85.8305	811.523	87.2499	811.523	85.3126	811.523	86.6777	811.523	85.1241	811.523	85.5185	811.523	85.0734	811.523	84.1241	811.523	84.9323	811.523	83.0925	811.523	84.4463	811.523	82.5438	811.523	83.3764	811.523	81.8719	811.523	81.6942	811.523	80.6316	811.523	79.8655	811.523	78.964	811.523	78.4575	811.523	77.3873	811.523	76.7394	811.523	76.1954	811.523	72.4805	811.523	75.3073	811.523	67.3208	811.523	74.8624	811.523	76.099	811.523	75.9121	811.523	79.5463	811.523	78.4212	811.523	79.9247	811.523	80.2335	811.523	79.7231	811.523	80.379
840.82	86.8714	840.82	87.4197	840.82	85.717	840.82	87.0516	840.82	84.7519	840.82	85.9323	840.82	84.3973	840.82	84.5543	840.82	84.2555	840.82	83.4506	840.82	84.0446	840.82	82.7472	840.82	83.7642	840.82	82.2731	840.82	83.4575	840.82	81.9381	840.82	83.0998	840.82	81.5841	840.82	82.3526	840.82	80.749	840.82	80.5121	840.82	79.0488	840.82	76.9563	840.82	77.0108	840.82	73.8448	840.82	76.287	840.82	76.1146	840.82	76.7121	840.82	78.3256	840.82	77.1382	840.82	77.8902	840.82	78.866	840.82	74.7952	840.82	80.8057	840.82	76.8724	840.82	80.4355
870.117	87.5729	870.117	87.9436	870.117	86.8427	870.117	87.6374	870.117	86.183	870.117	86.7133	870.117	85.6655	870.117	85.5294	870.117	85.1154	870.117	84.3414	870.117	84.465	870.117	82.9271	870.117	83.6428	870.117	80.9377	870.117	82.5532	870.117	78.7005	870.117	81.6153	870.117	77.9771	870.117	81.6584	870.117	79.1	870.117	82.0174	870.117	79.9781	870.117	81.216	870.117	79.7539	870.117	77.8876	870.117	78.6878	870.117	71.1178	870.117	77.8861	870.117	75.3335	870.117	78.3038	870.117	77.5516	870.117	79.5923	870.117	75.7423	870.117	80.436	870.117	76.4438	870.117	79.5142
900.879	87.9844	900.879	88.3297	900.879	87.1699	900.879	87.8231	900.879	86.426	900.879	86.5054	900.879	85.8315	900.879	84.9097	900.879	85.1742	900.879	83.8477	900.879	84.4859	900.879	83.4135	900.879	83.7072	900.879	82.9319	900.879	82.4814	900.879	81.8186	900.879	80.6994	900.879	79.9449	900.879	79.1393	900.879	78.3339	900.879	78.7182	900.879	78.1806	900.879	79.5546	900.879	78.0188	900.879	80.501	900.879	76.7668	900.879	79.163	900.879	75.6927	900.879	75.7288	900.879	77.2773	900.879	78.4086	900.879	79.8417	900.879	80.4857	900.879	81.1428	900.879	80.5669	900.879	80.9512
933.105	87.466	933.105	87.9982	933.105	87.0076	933.105	87.9634	933.105	86.9113	933.105	87.1143	933.105	86.6617	933.105	85.554	933.105	85.9282	933.105	83.6625	933.105	84.9238	933.105	82.1062	933.105	83.7728	933.105	81.1248	933.105	82.1146	933.105	79.9773	933.105	80.0878	933.105	78.4029	933.105	79.57	933.105	78.0362	933.105	79.837	933.105	79.2402	933.105	78.4678	933.105	79.8176	933.105	76.8109	933.105	78.8832	933.105	77.0142	933.105	76.2008	933.105	77.5335	933.105	74.1068	933.105	79.0228	933.105	77.6142	933.105	79.93	933.105	79.9299	933.105	79.9059	933.105	80.0976
965.332	88.2799	965.332	88.7366	965.332	87.5702	965.332	88.2374	965.332	87.1726	965.332	86.6348	965.332	86.5812	965.332	84.3951	965.332	85.2661	965.332	82.5732	965.332	83.6668	965.332	81.7086	965.332	82.5932	965.332	81.2944	965.332	81.6056	965.332	80.7522	965.332	79.5293	965.332	79.7732	965.332	76.8085	965.332	78.8469	965.332	76.8638	965.332	78.7793	965.332	78.275	965.332	78.9908	965.332	79.0467	965.332	78.6207	965.332	78.4866	965.332	77.1538	965.332	76.8301	965.332	75.3554	965.332	76.9557	965.332	76.688	965.332	77.822	965.332	79.8096	965.332	79.6488	965.332	80.9599
1,000.49	87.8871	1,000.49	88.3366	1,000.49	87.4938	1,000.49	88.1045	1,000.49	87.5474	1,000.49	86.9121	1,000.49	87.2578	1,000.49	84.9178	1,000.49	85.9166	1,000.49	82.7827	1,000.49	83.8146	1,000.49	81.2444	1,000.49	82.0035	1,000.49	80.432	1,000.49	80.7828	1,000.49	79.8571	1,000.49	79.4151	1,000.49	78.567	1,000.49	78.2302	1,000.49	76.9005	1,000.49	77.0299	1,000.49	76.6768	1,000.49	72.4321	1,000.49	76.966	1,000.49	70.9705	1,000.49	76.9545	1,000.49	75.7446	1,000.49	76.3293	1,000.49	77.7944	1,000.49	73.3953	1,000.49	79.0134	1,000.49	73.6483	1,000.49	78.2822	1,000.49	78.581	1,000.49	78.0457	1,000.49	79.5366
1,035.64	87.7608	1,035.64	88.2109	1,035.64	87.4964	1,035.64	88.1015	1,035.64	87.4755	1,035.64	87.0847	1,035.64	86.9475	1,035.64	85.4319	1,035.64	85.4288	1,035.64	83.6769	1,035.64	83.1576	1,035.64	81.993	1,035.64	81.2871	1,035.64	80.616	1,035.64	80.388	1,035.64	79.2957	1,035.64	78.747	1,035.64	75.6872	1,035.64	76.3226	1,035.64	66.6755	1,035.64	77.639	1,035.64	73.6921	1,035.64	79.2391	1,035.64	77.0852	1,035.64	79.2019	1,035.64	77.5362	1,035.64	76.8053	1,035.64	77.8543	1,035.64	69.4223	1,035.64	78.119	1,035.64	75.8009	1,035.64	78.7396	1,035.64	78.0098	1,035.64	79.4894	1,035.64	75.9494	1,035.64	77.5009
1,072.27	87.2211	1,072.27	88.2225	1,072.27	87.3549	1,072.27	88.3341	1,072.27	88.2828	1,072.27	86.9019	1,072.27	87.9162	1,072.27	84.3102	1,072.27	85.9226	1,072.27	82.6811	1,072.27	83.3677	1,072.27	82.8712	1,072.27	82.0938	1,072.27	82.7876	1,072.27	81.7984	1,072.27	82.1542	1,072.27	80.3592	1,072.27	81.0795	1,072.27	77.0025	1,072.27	79.0006	1,072.27	73.9239	1,072.27	76.6099	1,072.27	69.7328	1,072.27	76.2578	1,072.27	72.4427	1,072.27	77.4215	1,072.27	77.5211	1,072.27	78.0908	1,072.27	79.1087	1,072.27	76.109	1,072.27	78.1627	1,072.27	73.0592	1,072.27	76.3408	1,072.27	76.7673	1,072.27	78.1249	1,072.27	78.8341
1,108.89	87.0459	1,108.89	87.1998	1,108.89	87.6126	1,108.89	87.7035	1,108.89	87.8353	1,108.89	87.347	1,108.89	87.1464	1,108.89	85.5185	1,108.89	85.9327	1,108.89	82.6826	1,108.89	84.7391	1,108.89	80.8531	1,108.89	83.5523	1,108.89	80.7711	1,108.89	83.0682	1,108.89	81.2792	1,108.89	82.6159	1,108.89	80.8947	1,108.89	80.0935	1,108.89	78.2048	1,108.89	77.2665	1,108.89	74.712	1,108.89	76.3502	1,108.89	75.4643	1,108.89	77.1627	1,108.89	76.2816	1,108.89	78.7276	1,108.89	77.3206	1,108.89	73.7904	1,108.89	77.6085	1,108.89	76.7459	1,108.89	77.3171	1,108.89	80.3008	1,108.89	77.1724	1,108.89	77.7656	1,108.89	74.3851
1,148.44	85.8383	1,148.44	86.052	1,148.44	87.6226	1,148.44	87.151	1,148.44	88.2304	1,148.44	86.6083	1,148.44	86.83	1,148.44	84.055	1,148.44	84.9249	1,148.44	80.361	1,148.44	84.6003	1,148.44	78.5123	1,148.44	84.6206	1,148.44	79.3331	1,148.44	84.4594	1,148.44	81.1481	1,148.44	83.205	1,148.44	82.1698	1,148.44	79.9308	1,148.44	80.9799	1,148.44	77.6375	1,148.44	78.533	1,148.44	76.7128	1,148.44	76.7707	1,148.44	71.1452	1,148.44	73.5339	1,148.44	69.6546	1,148.44	72.145	1,148.44	77.2102	1,148.44	74.719	1,148.44	79.6879	1,148.44	76.5411	1,148.44	77.8046	1,148.44	78.1924	1,148.44	75.484	1,148.44	77.9924
1,189.45	87.8708	1,189.45	86.9524	1,189.45	88.2356	1,189.45	86.8887	1,189.45	87.4381	1,189.45	86.7614	1,189.45	86.5417	1,189.45	85.0565	1,189.45	86.624	1,189.45	81.9598	1,189.45	86.6165	1,189.45	79.8768	1,189.45	85.2765	1,189.45	79.3295	1,189.45	83.4132	1,189.45	79.5215	1,189.45	82.664	1,189.45	80.7975	1,189.45	81.2039	1,189.45	80.3331	1,189.45	78.516	1,189.45	78.0033	1,189.45	75.7585	1,189.45	76.5372	1,189.45	70.4742	1,189.45	76.525	1,189.45	76.5213	1,189.45	76.8094	1,189.45	76.7783	1,189.45	75.4084	1,189.45	76.5385	1,189.45	73.6619	1,189.45	78.4263	1,189.45	74.3217	1,189.45	77.2717	1,189.45	74.8179
1,230.47	87.3762	1,230.47	86.678	1,230.47	88.1233	1,230.47	86.5001	1,230.47	87.9924	1,230.47	86.0986	1,230.47	86.9973	1,230.47	84.9495	1,230.47	85.8962	1,230.47	83.1528	1,230.47	84.7855	1,230.47	81.0748	1,230.47	82.7247	1,230.47	79.0512	1,230.47	80.1538	1,230.47	76.7292	1,230.47	79.3285	1,230.47	74.0921	1,230.47	77.8959	1,230.47	74.5064	1,230.47	74.7132	1,230.47	76.0444	1,230.47	75.0804	1,230.47	75.6924	1,230.47	73.157	1,230.47	74.9813	1,230.47	70.4239	1,230.47	76.1772	1,230.47	70.1305	1,230.47	76.3339	1,230.47	75.204	1,230.47	75.9928	1,230.47	78.9534	1,230.47	76.9289	1,230.47	77.8699	1,230.47	75.0246
1,274.41	88.2413	1,274.41	86.9691	1,274.41	88.6203	1,274.41	86.4129	1,274.41	87.6589	1,274.41	86.208	1,274.41	86.6631	1,274.41	84.8096	1,274.41	86.1638	1,274.41	81.8781	1,274.41	84.9548	1,274.41	79.0011	1,274.41	82.5444	1,274.41	77.6179	1,274.41	79.2642	1,274.41	77.0964	1,274.41	76.1258	1,274.41	77.8724	1,274.41	73.4834	1,274.41	76.3957	1,274.41	72.5829	1,274.41	75.2704	1,274.41	74.4429	1,274.41	77.0784	1,274.41	74.5128	1,274.41	76.2265	1,274.41	74.8403	1,274.41	74.7525	1,274.41	74.0954	1,274.41	73.3208	1,274.41	74.9773	1,274.41	71.939	1,274.41	77.3797	1,274.41	73.7128	1,274.41	76.9985	1,274.41	74.7653
1,319.82	87.5817	1,319.82	86.5671	1,319.82	87.9648	1,319.82	86.1707	1,319.82	87.3376	1,319.82	85.9856	1,319.82	86.8659	1,319.82	84.7481	1,319.82	86.428	1,319.82	81.9272	1,319.82	84.8962	1,319.82	79.031	1,319.82	81.6389	1,319.82	77.9202	1,319.82	76.6478	1,319.82	75.0297	1,319.82	73.9833	1,319.82	73.6699	1,319.82	75.087	1,319.82	75.283	1,319.82	71.6053	1,319.82	74.6435	1,319.82	69.6249	1,319.82	74.286	1,319.82	72.8332	1,319.82	74.5251	1,319.82	76.6292	1,319.82	76.0747	1,319.82	73.7769	1,319.82	77.0392	1,319.82	74.6067	1,319.82	74.5383	1,319.82	79.6957	1,319.82	74.174	1,319.82	77.8776	1,319.82	73.3601
1,366.7	87.2452	1,366.7	86.2865	1,366.7	87.5846	1,366.7	85.3723	1,366.7	87.3565	1,366.7	84.8142	1,366.7	86.5379	1,366.7	84.085	1,366.7	84.8746	1,366.7	82.624	1,366.7	82.9281	1,366.7	80.8315	1,366.7	81.0945	1,366.7	79.8374	1,366.7	78.7434	1,366.7	77.7688	1,366.7	76.7961	1,366.7	70.8396	1,366.7	77.895	1,366.7	65.3572	1,366.7	77.8268	1,366.7	70.1403	1,366.7	74.5079	1,366.7	66.1024	1,366.7	68.7551	1,366.7	70.6032	1,366.7	66.1585	1,366.7	75.8258	1,366.7	75.4616	1,366.7	73.6831	1,366.7	74.9365	1,366.7	68.7112	1,366.7	74.378	1,366.7	71.6523	1,366.7	78.0247	1,366.7	73.5514
1,413.57	87.2309	1,413.57	86.1442	1,413.57	87.7532	1,413.57	85.223	1,413.57	87.9497	1,413.57	85.0387	1,413.57	87.3235	1,413.57	84.2715	1,413.57	85.0861	1,413.57	81.9029	1,413.57	81.9078	1,413.57	78.6302	1,413.57	80.1722	1,413.57	77.4312	1,413.57	79.65	1,413.57	77.5822	1,413.57	77.1995	1,413.57	76.8137	1,413.57	74.5259	1,413.57	73.6295	1,413.57	76.239	1,413.57	68.3037	1,413.57	75.7209	1,413.57	69.1755	1,413.57	70.0754	1,413.57	69.7365	1,413.57	67.6789	1,413.57	76.8383	1,413.57	74.6631	1,413.57	77.3505	1,413.57	73.001	1,413.57	70.3732	1,413.57	76.5167	1,413.57	65.7097	1,413.57	76.5266	1,413.57	71.2545
1,463.38	87.0827	1,463.38	85.9614	1,463.38	88.2747	1,463.38	85.7443	1,463.38	87.8248	1,463.38	84.6157	1,463.38	86.4018	1,463.38	82.972	1,463.38	85.0715	1,463.38	81.5616	1,463.38	82.2833	1,463.38	80.1944	1,463.38	78.6464	1,463.38	79.819	1,463.38	77.6152	1,463.38	78.632	1,463.38	77.2846	1,463.38	77.4772	1,463.38	73.9468	1,463.38	77.5996	1,463.38	72.894	1,463.38	75.5484	1,463.38	72.8978	1,463.38	76.4407	1,463.38	73.9378	1,463.38	72.6949	1,463.38	72.8343	1,463.38	78.0205	1,463.38	67.8071	1,463.38	77.6902	1,463.38	74.1936	1,463.38	64.9573	1,463.38	76.1236	1,463.38	59.7837	1,463.38	76.2503	1,463.38	75.0554
1,516.11	87.9516	1,516.11	85.7011	1,516.11	88.5354	1,516.11	84.0828	1,516.11	87.4428	1,516.11	83.5604	1,516.11	85.9901	1,516.11	82.5573	1,516.11	83.7928	1,516.11	80.8642	1,516.11	80.2374	1,516.11	78.6914	1,516.11	78.8849	1,516.11	78.8248	1,516.11	79.479	1,516.11	79.0978	1,516.11	80.3923	1,516.11	78.5748	1,516.11	79.1758	1,516.11	78.7205	1,516.11	74.7981	1,516.11	75.1447	1,516.11	70.0898	1,516.11	76.6275	1,516.11	72.2995	1,516.11	72.7065	1,516.11	70.9734	1,516.11	74.4944	1,516.11	65.2481	1,516.11	77.6274	1,516.11	73.0636	1,516.11	69.9379	1,516.11	75.1717	1,516.11	55.9608	1,516.11	74.8258	1,516.11	68.7275
1,568.85	88.5187	1,568.85	86.2036	1,568.85	88.6667	1,568.85	83.3358	1,568.85	87.5955	1,568.85	82.8666	1,568.85	85.8004	1,568.85	82.3451	1,568.85	82.6156	1,568.85	81.4938	1,568.85	81.2254	1,568.85	79.7234	1,568.85	81.2906	1,568.85	79.1297	1,568.85	79.5672	1,568.85	80.2831	1,568.85	79.1159	1,568.85	78.0755	1,568.85	78.2834	1,568.85	77.8777	1,568.85	78.5426	1,568.85	76.4784	1,568.85	76.9136	1,568.85	75.728	1,568.85	70.1948	1,568.85	73.2197	1,568.85	64.6276	1,568.85	71.6767	1,568.85	74.8488	1,568.85	75.1865	1,568.85	71.0719	1,568.85	71.4388	1,568.85	77.0553	1,568.85	62.6845	1,568.85	77.4991	1,568.85	69.8821
1,624.51	87.5158	1,624.51	85.8967	1,624.51	88.2319	1,624.51	82.5402	1,624.51	87.9853	1,624.51	81.2456	1,624.51	85.1129	1,624.51	81.5651	1,624.51	82.1905	1,624.51	81.1608	1,624.51	82.2776	1,624.51	79.9565	1,624.51	79.9226	1,624.51	75.302	1,624.51	74.0217	1,624.51	74.7616	1,624.51	74.4961	1,624.51	76.3313	1,624.51	76.2805	1,624.51	77.1455	1,624.51	76.5861	1,624.51	73.1346	1,624.51	75.9915	1,624.51	71.8928	1,624.51	73.5463	1,624.51	73.5379	1,624.51	68.603	1,624.51	63.5169	1,624.51	69.4213	1,624.51	74.2568	1,624.51	68.765	1,624.51	71.5883	1,624.51	75.7863	1,624.51	59.1362	1,624.51	75.7733	1,624.51	69.0865
1,681.64	86.0908	1,681.64	85.1036	1,681.64	87.2903	1,681.64	81.903	1,681.64	87.1747	1,681.64	79.338	1,681.64	84.1094	1,681.64	81.7781	1,681.64	82.6132	1,681.64	81.6828	1,681.64	81.3522	1,681.64	80.9843	1,681.64	77.9932	1,681.64	78.2509	1,681.64	75.9906	1,681.64	70.9586	1,681.64	72.8955	1,681.64	65.8423	1,681.64	74.1804	1,681.64	74.6174	1,681.64	66.2673	1,681.64	71.4707	1,681.64	66.5117	1,681.64	63.9098	1,681.64	75.7772	1,681.64	69.9913	1,681.64	77.5486	1,681.64	72.5543	1,681.64	57.2663	1,681.64	73.0709	1,681.64	70.7716	1,681.64	68.7715	1,681.64	69.9003	1,681.64	65.3492	1,681.64	74.5988	1,681.64	71.3512
1,741.7	85.9458	1,741.7	83.1663	1,741.7	87.1696	1,741.7	80.9029	1,741.7	85.2493	1,741.7	76.3339	1,741.7	82.8616	1,741.7	79.3389	1,741.7	81.2728	1,741.7	82.0905	1,741.7	78.0177	1,741.7	82.0807	1,741.7	80.7153	1,741.7	79.3012	1,741.7	81.3718	1,741.7	72.8232	1,741.7	78.8889	1,741.7	66.6208	1,741.7	77.3068	1,741.7	63.2489	1,741.7	71.336	1,741.7	61.8162	1,741.7	66.3472	1,741.7	62.9048	1,741.7	70.7365	1,741.7	71.3768	1,741.7	77.3421	1,741.7	72.3376	1,741.7	64.1275	1,741.7	72.3881	1,741.7	70.269	1,741.7	69.0431	1,741.7	69.7852	1,741.7	58.6825	1,741.7	73.4602	1,741.7	69.3834
1,803.22	87.7693	1,803.22	84.694	1,803.22	88.0598	1,803.22	79.7979	1,803.22	85.6082	1,803.22	78.7185	1,803.22	81.4686	1,803.22	81.4622	1,803.22	79.2404	1,803.22	82.3927	1,803.22	80.5321	1,803.22	81.9157	1,803.22	81.2204	1,803.22	80.2531	1,803.22	79.4406	1,803.22	78.5268	1,803.22	76.9585	1,803.22	77.7395	1,803.22	76.3797	1,803.22	72.0997	1,803.22	72.5339	1,803.22	74.2537	1,803.22	69.0505	1,803.22	71.6836	1,803.22	69.113	1,803.22	71.251	1,803.22	72.9797	1,803.22	73.9805	1,803.22	65.709	1,803.22	71.8292	1,803.22	71.2971	1,803.22	67.2908	1,803.22	69.9826	1,803.22	64.097	1,803.22	73.8992	1,803.22	70.0769
1,866.21	88.0538	1,866.21	85.234	1,866.21	88.4144	1,866.21	79.5178	1,866.21	86.0215	1,866.21	77.2334	1,866.21	80.6971	1,866.21	81.7046	1,866.21	77.378	1,866.21	82.0446	1,866.21	79.387	1,866.21	81.4036	1,866.21	80.9332	1,866.21	80.7422	1,866.21	79.8137	1,866.21	77.4514	1,866.21	76.4986	1,866.21	74.4179	1,866.21	74.6708	1,866.21	71.5763	1,866.21	71.9679	1,866.21	70.4463	1,866.21	70.2599	1,866.21	72.9393	1,866.21	64.3623	1,866.21	69.2148	1,866.21	71.7953	1,866.21	74.3327	1,866.21	66.0724	1,866.21	72.4198	1,866.21	68.7664	1,866.21	67.154	1,866.21	69.354	1,866.21	63.6278	1,866.21	74.323	1,866.21	71.4373
1,932.13	87.0769	1,932.13	85.4702	1,932.13	87.5403	1,932.13	79.6514	1,932.13	85.3297	1,932.13	73.4712	1,932.13	79.5657	1,932.13	79.895	1,932.13	77.4847	1,932.13	81.873	1,932.13	80.369	1,932.13	81.7613	1,932.13	80.9409	1,932.13	80.1134	1,932.13	80.4533	1,932.13	78.3671	1,932.13	77.3726	1,932.13	76.2068	1,932.13	73.9226	1,932.13	74.775	1,932.13	72.1159	1,932.13	71.4549	1,932.13	70.3239	1,932.13	70.704	1,932.13	65.7973	1,932.13	70.2816	1,932.13	71.4132	1,932.13	72.9031	1,932.13	69.4294	1,932.13	73.6189	1,932.13	69.0432	1,932.13	65.1858	1,932.13	66.8989	1,932.13	65.7844	1,932.13	74.0591	1,932.13	72.5396
1,999.51	86.7118	1,999.51	85.1112	1,999.51	86.4412	1,999.51	77.5145	1,999.51	83.9782	1,999.51	68.7748	1,999.51	77.1095	1,999.51	78.8378	1,999.51	77.1318	1,999.51	82.6376	1,999.51	80.8096	1,999.51	82.6771	1,999.51	81.7425	1,999.51	80.824	1,999.51	80.7736	1,999.51	79.4383	1,999.51	77.8907	1,999.51	78.2478	1,999.51	75.8347	1,999.51	74.7891	1,999.51	72.4431	1,999.51	70.8163	1,999.51	66.4124	1,999.51	71.4514	1,999.51	67.2648	1,999.51	71.3374	1,999.51	63.2112	1,999.51	71.5621	1,999.51	67.7871	1,999.51	72.8025	1,999.51	68.5029	1,999.51	64.3863	1,999.51	68.3597	1,999.51	68.3617	1,999.51	74.1572	1,999.51	72.1547
2,069.82	87.74	2,069.82	85.037	2,069.82	86.5811	2,069.82	77.1114	2,069.82	82.9937	2,069.82	65.474	2,069.82	74.1965	2,069.82	80.6685	2,069.82	78.4952	2,069.82	83.8635	2,069.82	81.7611	2,069.82	83.4444	2,069.82	82.3835	2,069.82	81.8836	2,069.82	80.8934	2,069.82	79.4112	2,069.82	78.3415	2,069.82	75.0791	2,069.82	76.2895	2,069.82	72.6945	2,069.82	72.1262	2,069.82	74.5818	2,069.82	65.5331	2,069.82	68.9906	2,069.82	69.5712	2,069.82	72.9332	2,069.82	62.7923	2,069.82	71.2408	2,069.82	67.842	2,069.82	73.8235	2,069.82	66.2586	2,069.82	66.6767	2,069.82	67.3156	2,069.82	68.3444	2,069.82	72.2816	2,069.82	70.8765
2,143.07	88.231	2,143.07	86.088	2,143.07	87.2738	2,143.07	79.6649	2,143.07	82.9478	2,143.07	70.1627	2,143.07	72.9695	2,143.07	82.1687	2,143.07	80.0848	2,143.07	84.6556	2,143.07	83.0904	2,143.07	83.4996	2,143.07	83.4262	2,143.07	81.4103	2,143.07	81.9729	2,143.07	79.4111	2,143.07	78.812	2,143.07	78.3111	2,143.07	77.0492	2,143.07	73.9116	2,143.07	73.5318	2,143.07	72.9323	2,143.07	67.1302	2,143.07	71.9503	2,143.07	71.9439	2,143.07	70.9196	2,143.07	63.5111	2,143.07	72.0051	2,143.07	69.0436	2,143.07	73.4613	2,143.07	64.3393	2,143.07	65.6868	2,143.07	67.57	2,143.07	71.4181	2,143.07	74.4631	2,143.07	71.9994
2,219.24	87.7648	2,219.24	86.3173	2,219.24	86.8753	2,219.24	81.3412	2,219.24	82.9596	2,219.24	74.548	2,219.24	72.5735	2,219.24	83.6044	2,219.24	80.572	2,219.24	83.8391	2,219.24	84.4077	2,219.24	82.8192	2,219.24	84.3283	2,219.24	81.5647	2,219.24	83.1311	2,219.24	78.521	2,219.24	78.5149	2,219.24	75.1643	2,219.24	74.205	2,219.24	72.8879	2,219.24	72.0238	2,219.24	67.6546	2,219.24	67.1554	2,219.24	72.4434	2,219.24	72.2538	2,219.24	68.5212	2,219.24	68.8218	2,219.24	73.4822	2,219.24	67.6713	2,219.24	73.0072	2,219.24	61.2845	2,219.24	68.9333	2,219.24	67.3671	2,219.24	72.2002	2,219.24	72.8742	2,219.24	71.9324
2,296.88	86.8886	2,296.88	86.0106	2,296.88	86.1227	2,296.88	80.2508	2,296.88	81.3352	2,296.88	78.2724	2,296.88	63.2743	2,296.88	83.4026	2,296.88	79.4126	2,296.88	84.7217	2,296.88	85.1295	2,296.88	83.5626	2,296.88	84.9347	2,296.88	80.4672	2,296.88	83.1329	2,296.88	78.7487	2,296.88	78.8876	2,296.88	74.4324	2,296.88	70.9479	2,296.88	70.4797	2,296.88	69.813	2,296.88	68.2725	2,296.88	70.0061	2,296.88	72.3994	2,296.88	73.158	2,296.88	67.1611	2,296.88	72.0092	2,296.88	73.4153	2,296.88	64.842	2,296.88	73.709	2,296.88	60.4456	2,296.88	70.226	2,296.88	68.2849	2,296.88	71.097	2,296.88	71.1924	2,296.88	69.2794
2,378.91	87.3517	2,378.91	86.0334	2,378.91	85.7973	2,378.91	78.7165	2,378.91	81.0197	2,378.91	78.7208	2,378.91	66.5414	2,378.91	84.5503	2,378.91	80.1287	2,378.91	85.0893	2,378.91	84.6177	2,378.91	83.0972	2,378.91	84.7726	2,378.91	81.3942	2,378.91	82.0727	2,378.91	78.3726	2,378.91	80.015	2,378.91	72.9551	2,378.91	76.8686	2,378.91	72.0754	2,378.91	75.2156	2,378.91	67.8816	2,378.91	57.6516	2,378.91	68.9004	2,378.91	72.4544	2,378.91	66.7637	2,378.91	73.002	2,378.91	71.5472	2,378.91	68.9706	2,378.91	71.5784	2,378.91	60.3094	2,378.91	70.9321	2,378.91	65.2619	2,378.91	70.7319	2,378.91	71.9681	2,378.91	70.4762
2,462.4	87.377	2,462.4	86.2689	2,462.4	85.9376	2,462.4	80.2342	2,462.4	81.9717	2,462.4	81.2022	2,462.4	70.3328	2,462.4	85.1286	2,462.4	82.001	2,462.4	84.933	2,462.4	84.7716	2,462.4	82.3016	2,462.4	85.3707	2,462.4	78.1511	2,462.4	82.6348	2,462.4	77.1693	2,462.4	78.9998	2,462.4	75.7578	2,462.4	75.4422	2,462.4	69.0291	2,462.4	75.3229	2,462.4	68.1434	2,462.4	65.2556	2,462.4	66.3348	2,462.4	64.0193	2,462.4	67.1735	2,462.4	71.1908	2,462.4	67.3754	2,462.4	68.37	2,462.4	70.7644	2,462.4	55.9797	2,462.4	70.7929	2,462.4	61.9367	2,462.4	71.091	2,462.4	70.6196	2,462.4	70.1251
2,548.83	87.0203	2,548.83	86.0035	2,548.83	84.7325	2,548.83	80.7365	2,548.83	81.572	2,548.83	83.0594	2,548.83	75.0914	2,548.83	84.932	2,548.83	82.7072	2,548.83	83.335	2,548.83	85.6873	2,548.83	81.3661	2,548.83	85.5872	2,548.83	77.9627	2,548.83	82.4296	2,548.83	75.9182	2,548.83	77.3889	2,548.83	72.7105	2,548.83	77.7681	2,548.83	71.7646	2,548.83	76.848	2,548.83	68.0051	2,548.83	63.5846	2,548.83	67.7879	2,548.83	53.5039	2,548.83	65.4846	2,548.83	71.3005	2,548.83	68.6158	2,548.83	67.972	2,548.83	70.7795	2,548.83	59.2818	2,548.83	70.3857	2,548.83	62.6673	2,548.83	71.0632	2,548.83	71.15	2,548.83	71.4746
2,639.65	87.4225	2,639.65	85.8455	2,639.65	84.86	2,639.65	81.1641	2,639.65	80.6211	2,639.65	83.9976	2,639.65	79.297	2,639.65	84.8151	2,639.65	82.7239	2,639.65	84.0999	2,639.65	85.8483	2,639.65	81.8444	2,639.65	85.8202	2,639.65	79.5189	2,639.65	82.7346	2,639.65	76.9332	2,639.65	77.2331	2,639.65	73.9905	2,639.65	77.8665	2,639.65	71.2665	2,639.65	77.2571	2,639.65	67.3651	2,639.65	63.8648	2,639.65	67.9455	2,639.65	61.0073	2,639.65	65.9861	2,639.65	66.1507	2,639.65	70.0002	2,639.65	68.2824	2,639.65	69.7873	2,639.65	63.7598	2,639.65	71.2695	2,639.65	65.3555	2,639.65	70.5274	2,639.65	69.3063	2,639.65	69.809
2,731.93	87.1712	2,731.93	85.3413	2,731.93	84.9046	2,731.93	82.6838	2,731.93	81.0481	2,731.93	83.5644	2,731.93	81.3337	2,731.93	85.0452	2,731.93	83.8172	2,731.93	83.2949	2,731.93	85.5826	2,731.93	81.2712	2,731.93	85.2808	2,731.93	78.1326	2,731.93	81.9164	2,731.93	75.249	2,731.93	75.9107	2,731.93	71.2417	2,731.93	75.9725	2,731.93	65.7164	2,731.93	77.1368	2,731.93	67.2197	2,731.93	68.552	2,731.93	66.939	2,731.93	61.2634	2,731.93	62.5809	2,731.93	65.084	2,731.93	67.9041	2,731.93	67.0569	2,731.93	68.2926	2,731.93	64.7294	2,731.93	70.3633	2,731.93	63.7	2,731.93	71.3113	2,731.93	68.4382	2,731.93	70.9074
2,828.61	86.2962	2,828.61	85.3545	2,828.61	84.3206	2,828.61	83.1672	2,828.61	80.9733	2,828.61	83.8524	2,828.61	82.6536	2,828.61	84.9817	2,828.61	84.5783	2,828.61	82.6551	2,828.61	85.1077	2,828.61	80.2554	2,828.61	84.2781	2,828.61	77.7936	2,828.61	81.1773	2,828.61	74.2041	2,828.61	78.6845	2,828.61	73.0879	2,828.61	76.3111	2,828.61	71.302	2,828.61	72.7493	2,828.61	67.884	2,828.61	65.2333	2,828.61	64.1679	2,828.61	66.4904	2,828.61	66.3712	2,828.61	64.9822	2,828.61	67.9709	2,828.61	68.4724	2,828.61	69.3792	2,828.61	67.0565	2,828.61	70.4867	2,828.61	64.6494	2,828.61	70.5666	2,828.61	66.0624	2,828.61	68.7966
2,928.22	86.9555	2,928.22	85.9076	2,928.22	84.7993	2,928.22	83.5892	2,928.22	80.5916	2,928.22	84.4493	2,928.22	83.2747	2,928.22	84.4194	2,928.22	84.245	2,928.22	83.7341	2,928.22	84.9959	2,928.22	80.901	2,928.22	83.5304	2,928.22	78.9263	2,928.22	79.6466	2,928.22	76.0716	2,928.22	77.0829	2,928.22	74.4113	2,928.22	75.6761	2,928.22	70.4564	2,928.22	65.1423	2,928.22	66.0056	2,928.22	69.0871	2,928.22	66.3793	2,928.22	66.6023	2,928.22	63.74	2,928.22	63.7343	2,928.22	66.0628	2,928.22	65.267	2,928.22	69.2654	2,928.22	66.7723	2,928.22	69.211	2,928.22	62.164	2,928.22	71.5092	2,928.22	65.7207	2,928.22	71.6089
3,030.76	86.3631	3,030.76	85.7531	3,030.76	84.889	3,030.76	84.0398	3,030.76	82.024	3,030.76	84.6612	3,030.76	83.7143	3,030.76	84.814	3,030.76	83.9699	3,030.76	83.3522	3,030.76	84.4969	3,030.76	79.9204	3,030.76	83.4124	3,030.76	78.6209	3,030.76	80.1384	3,030.76	73.3518	3,030.76	76.4884	3,030.76	72.2671	3,030.76	68.365	3,030.76	68.9595	3,030.76	57.1868	3,030.76	65.6793	3,030.76	68.429	3,030.76	62.5679	3,030.76	57.5784	3,030.76	64.8582	3,030.76	66.7065	3,030.76	65.9166	3,030.76	63.1312	3,030.76	69.2125	3,030.76	66.2005	3,030.76	69.1443	3,030.76	62.2784	3,030.76	71.4866	3,030.76	65.6854	3,030.76	70.9668
3,137.7	86.5054	3,137.7	85.9525	3,137.7	84.5122	3,137.7	84.3762	3,137.7	83.2097	3,137.7	84.4578	3,137.7	84.5932	3,137.7	85.517	3,137.7	83.7425	3,137.7	83.1192	3,137.7	83.4967	3,137.7	81.0799	3,137.7	82.8945	3,137.7	77.4728	3,137.7	79.931	3,137.7	76.9374	3,137.7	77.1415	3,137.7	75.6337	3,137.7	71.7823	3,137.7	72.3984	3,137.7	66.6881	3,137.7	67.9966	3,137.7	68.3935	3,137.7	57.1543	3,137.7	65.3221	3,137.7	66.5141	3,137.7	65.7316	3,137.7	66.3183	3,137.7	61.3591	3,137.7	68.7232	3,137.7	68.6745	3,137.7	69.6319	3,137.7	63.9591	3,137.7	69.8692	3,137.7	63.5048	3,137.7	67.5468
3,249.02	87.2567	3,249.02	86.3427	3,249.02	84.7525	3,249.02	84.9202	3,249.02	84.1144	3,249.02	85.401	3,249.02	86.2196	3,249.02	85.5228	3,249.02	84.4138	3,249.02	83.8881	3,249.02	82.7247	3,249.02	79.8277	3,249.02	82.9042	3,249.02	79.4282	3,249.02	81.12	3,249.02	74.2421	3,249.02	80.1482	3,249.02	72.5698	3,249.02	76.5965	3,249.02	68.7618	3,249.02	71.8702	3,249.02	65.198	3,249.02	69.7292	3,249.02	58.5235	3,249.02	67.2217	3,249.02	60.4468	3,249.02	66.9443	3,249.02	65.0314	3,249.02	60.1206	3,249.02	69.2739	3,249.02	68.555	3,249.02	68.4953	3,249.02	63.417	3,249.02	72.2543	3,249.02	61.3013	3,249.02	70.3272
3,363.28	87.6386	3,363.28	87.1505	3,363.28	86.1141	3,363.28	85.3274	3,363.28	84.1641	3,363.28	86.2458	3,363.28	87.2798	3,363.28	85.672	3,363.28	84.7525	3,363.28	83.2402	3,363.28	82.0906	3,363.28	80.7889	3,363.28	82.4962	3,363.28	79.3867	3,363.28	81.4313	3,363.28	74.433	3,363.28	80.243	3,363.28	76.1454	3,363.28	78.6368	3,363.28	72.639	3,363.28	75.6406	3,363.28	66.7795	3,363.28	67.1786	3,363.28	57.3108	3,363.28	65.8224	3,363.28	63.3889	3,363.28	65.8558	3,363.28	64.251	3,363.28	61.7863	3,363.28	68.766	3,363.28	67.0999	3,363.28	68.6662	3,363.28	65.3555	3,363.28	71.9089	3,363.28	61.4533	3,363.28	71.4021
3,481.93	87.1561	3,481.93	86.905	3,481.93	85.7428	3,481.93	85.1521	3,481.93	84.9119	3,481.93	86.5194	3,481.93	87.1527	3,481.93	85.2082	3,481.93	84.8542	3,481.93	82.8015	3,481.93	81.8631	3,481.93	80.6798	3,481.93	83.0962	3,481.93	77.3468	3,481.93	81.9668	3,481.93	77.4331	3,481.93	80.3263	3,481.93	73.4557	3,481.93	78.7738	3,481.93	68.8201	3,481.93	71.9392	3,481.93	64.5014	3,481.93	68.4839	3,481.93	56.3823	3,481.93	39.9007	3,481.93	61.7145	3,481.93	59.5824	3,481.93	62.9754	3,481.93	62.0944	3,481.93	66.3041	3,481.93	68.402	3,481.93	68.1735	3,481.93	65.285	3,481.93	70.4417	3,481.93	59.4941	3,481.93	71.3166
3,604.98	87.6019	3,604.98	86.5902	3,604.98	85.8333	3,604.98	84.9354	3,604.98	84.5216	3,604.98	86.4011	3,604.98	86.8693	3,604.98	84.6946	3,604.98	84.7835	3,604.98	82.5614	3,604.98	80.7117	3,604.98	79.516	3,604.98	82.7042	3,604.98	78.337	3,604.98	81.4732	3,604.98	73.9879	3,604.98	80.029	3,604.98	74.1917	3,604.98	78.826	3,604.98	71.4243	3,604.98	68.0243	3,604.98	64.2275	3,604.98	70.8809	3,604.98	61.2054	3,604.98	53.0202	3,604.98	64.3047	3,604.98	59.4521	3,604.98	62.5955	3,604.98	61.7492	3,604.98	65.5539	3,604.98	68.1545	3,604.98	68.4837	3,604.98	63.9053	3,604.98	70.8759	3,604.98	53.0682	3,604.98	69.6513
3,732.42	87.2794	3,732.42	86.4319	3,732.42	85.6051	3,732.42	85.6207	3,732.42	85.1337	3,732.42	85.8926	3,732.42	86.2941	3,732.42	84.2794	3,732.42	84.5012	3,732.42	81.6153	3,732.42	79.4368	3,732.42	80.5602	3,732.42	82.5159	3,732.42	77.862	3,732.42	80.8391	3,732.42	76.608	3,732.42	80.0765	3,732.42	75.0654	3,732.42	75.6338	3,732.42	69.7026	3,732.42	66.333	3,732.42	65.0388	3,732.42	74.1608	3,732.42	60.1026	3,732.42	57.8885	3,732.42	61.8562	3,732.42	56.3069	3,732.42	60.4708	3,732.42	63.403	3,732.42	64.9687	3,732.42	67.2046	3,732.42	68.2332	3,732.42	64.2584	3,732.42	71.474	3,732.42	54.176	3,732.42	69.4929
3,864.26	87.4891	3,864.26	85.6783	3,864.26	85.3291	3,864.26	85.5357	3,864.26	85.797	3,864.26	85.2897	3,864.26	85.815	3,864.26	84.2795	3,864.26	84.2314	3,864.26	81.7155	3,864.26	78.857	3,864.26	80.6241	3,864.26	82.4286	3,864.26	78.3831	3,864.26	82.2722	3,864.26	76.1949	3,864.26	78.8291	3,864.26	68.529	3,864.26	72.7451	3,864.26	71.2811	3,864.26	67.3476	3,864.26	58.1868	3,864.26	73.9564	3,864.26	64.3538	3,864.26	39.5863	3,864.26	58.7705	3,864.26	60.4426	3,864.26	60.9779	3,864.26	65.493	3,864.26	63.4078	3,864.26	67.4572	3,864.26	67.2164	3,864.26	63.6561	3,864.26	69.8652	3,864.26	55.4766	3,864.26	68.7822
4,000.49	87.5898	4,000.49	86.0816	4,000.49	85.4498	4,000.49	85.3168	4,000.49	85.8427	4,000.49	85.302	4,000.49	85.6201	4,000.49	84.0163	4,000.49	83.5877	4,000.49	82.0172	4,000.49	79.9989	4,000.49	79.5933	4,000.49	83.7586	4,000.49	77.7438	4,000.49	82.106	4,000.49	70.5529	4,000.49	78.4526	4,000.49	72.0029	4,000.49	72.6782	4,000.49	68.2558	4,000.49	66.1617	4,000.49	65.8219	4,000.49	72.0303	4,000.49	57.3854	4,000.49	56.6866	4,000.49	54.5244	4,000.49	61.4736	4,000.49	58.3175	4,000.49	62.7417	4,000.49	64.0786	4,000.49	64.3885	4,000.49	67.4606	4,000.49	65.2006	4,000.49	68.8857	4,000.49	52.4144	4,000.49	69.2175
4,141.11	87.7116	4,141.11	85.8039	4,141.11	85.96	4,141.11	85.6585	4,141.11	85.3171	4,141.11	85.35	4,141.11	85.6134	4,141.11	84.1231	4,141.11	83.2439	4,141.11	81.2539	4,141.11	80.4248	4,141.11	79.4491	4,141.11	83.2024	4,141.11	74.746	4,141.11	81.4869	4,141.11	75.2411	4,141.11	76.2761	4,141.11	65.1403	4,141.11	65.9615	4,141.11	68.0086	4,141.11	60.3519	4,141.11	57.7383	4,141.11	67.1299	4,141.11	63.619	4,141.11	61.72	4,141.11	49.6584	4,141.11	54.642	4,141.11	43.9741	4,141.11	62.0757	4,141.11	60.9913	4,141.11	63.7602	4,141.11	65.025	4,141.11	64.7165	4,141.11	68.2396	4,141.11	53.9553	4,141.11	68.7043
4,287.6	87.5663	4,287.6	86.1546	4,287.6	86.2322	4,287.6	85.2507	4,287.6	86.1567	4,287.6	85.3913	4,287.6	85.6319	4,287.6	84.2013	4,287.6	83.2766	4,287.6	81.6376	4,287.6	80.7439	4,287.6	77.4052	4,287.6	82.1738	4,287.6	76.2652	4,287.6	79.7551	4,287.6	72.8257	4,287.6	73.3996	4,287.6	73.9531	4,287.6	73.4259	4,287.6	69.5799	4,287.6	64.8616	4,287.6	66.3963	4,287.6	66.9847	4,287.6	58.5704	4,287.6	58.1041	4,287.6	51.3402	4,287.6	56.9339	4,287.6	54.9692	4,287.6	59.9754	4,287.6	59.1666	4,287.6	65.2044	4,287.6	64.5679	4,287.6	63.8308	4,287.6	68.5474	4,287.6	52.6055	4,287.6	68.005
4,438.48	87.8065	4,438.48	86.3768	4,438.48	87.0654	4,438.48	85.4354	4,438.48	85.4102	4,438.48	85.8111	4,438.48	85.7569	4,438.48	84.1539	4,438.48	82.7933	4,438.48	80.3454	4,438.48	79.5988	4,438.48	78.7135	4,438.48	80.9818	4,438.48	76.8305	4,438.48	74.9737	4,438.48	75.6187	4,438.48	74.7514	4,438.48	66.915	4,438.48	75.0982	4,438.48	69.8899	4,438.48	67.2889	4,438.48	63.9072	4,438.48	65.1251	4,438.48	63.6468	4,438.48	63.9402	4,438.48	51.8813	4,438.48	59.805	4,438.48	45.3872	4,438.48	62.0118	4,438.48	56.2777	4,438.48	65.4099	4,438.48	65.9996	4,438.48	63.9053	4,438.48	69.0954	4,438.48	52.6305	4,438.48	67.7445
4,595.21	87.8283	4,595.21	86.1939	4,595.21	86.4563	4,595.21	85.588	4,595.21	86.0002	4,595.21	85.5417	4,595.21	84.543	4,595.21	84.098	4,595.21	83.0131	4,595.21	80.824	4,595.21	78.7379	4,595.21	79.057	4,595.21	78.7221	4,595.21	77.5939	4,595.21	75.1323	4,595.21	73.9753	4,595.21	76.943	4,595.21	73.6053	4,595.21	72.8359	4,595.21	68.4799	4,595.21	69.2334	4,595.21	66.3253	4,595.21	67.4758	4,595.21	56.7526	4,595.21	67.41	4,595.21	50.2221	4,595.21	60.3097	4,595.21	55.9683	4,595.21	62.8042	4,595.21	55.5198	4,595.21	65.852	4,595.21	66.2413	4,595.21	63.1057	4,595.21	67.5722	4,595.21	53.9103	4,595.21	66.9258
4,756.35	87.6824	4,756.35	86.0507	4,756.35	87.0072	4,756.35	85.035	4,756.35	85.5454	4,756.35	85.2851	4,756.35	84.1696	4,756.35	83.1646	4,756.35	83.8542	4,756.35	80.1373	4,756.35	79.4565	4,756.35	79.7738	4,756.35	78.0917	4,756.35	76.3627	4,756.35	80.6741	4,756.35	72.7711	4,756.35	78.9162	4,756.35	67.4759	4,756.35	74.7556	4,756.35	69.3626	4,756.35	63.0889	4,756.35	63.4734	4,756.35	67.521	4,756.35	59.7754	4,756.35	65.5014	4,756.35	46.3758	4,756.35	59.8023	4,756.35	47.9682	4,756.35	59.3663	4,756.35	45.6502	4,756.35	64.4517	4,756.35	62.5071	4,756.35	62.0693	4,756.35	65.5073	4,756.35	52.1352	4,756.35	65.2153
4,924.8	87.2293	4,924.8	85.7669	4,924.8	86.219	4,924.8	85.3177	4,924.8	85.7951	4,924.8	85.2527	4,924.8	83.3695	4,924.8	82.3859	4,924.8	83.4717	4,924.8	81.1684	4,924.8	80.9417	4,924.8	78.0121	4,924.8	79.0196	4,924.8	75.0113	4,924.8	82.5568	4,924.8	73.4332	4,924.8	77.2358	4,924.8	70.931	4,924.8	71.8856	4,924.8	66.2952	4,924.8	66.0222	4,924.8	65.483	4,924.8	63.183	4,924.8	56.7423	4,924.8	64.5931	4,924.8	53.5473	4,924.8	56.6346	4,924.8	51.4305	4,924.8	54.6325	4,924.8	48.3944	4,924.8	59.4148	4,924.8	61.5466	4,924.8	61.3731	4,924.8	65.769	4,924.8	54.0869	4,924.8	65.667
5,097.66	87.3319	5,097.66	86.038	5,097.66	86.6053	5,097.66	84.9463	5,097.66	84.9654	5,097.66	84.7927	5,097.66	83.206	5,097.66	82.4881	5,097.66	82.7123	5,097.66	80.3798	5,097.66	80.7318	5,097.66	77.8232	5,097.66	79.4369	5,097.66	76.0915	5,097.66	82.5604	5,097.66	73.4268	5,097.66	76.1544	5,097.66	71.0261	5,097.66	73.2187	5,097.66	68.7699	5,097.66	56.6977	5,097.66	67.1861	5,097.66	59.9602	5,097.66	57.6899	5,097.66	59.4168	5,097.66	49.0261	5,097.66	54.0358	5,097.66	51.5031	5,097.66	57.0845	5,097.66	53.1127	5,097.66	57.9253	5,097.66	61.5362	5,097.66	60.533	5,097.66	63.4249	5,097.66	50.2626	5,097.66	63.0344
5,277.83	87.6756	5,277.83	85.9979	5,277.83	86.7287	5,277.83	85.851	5,277.83	85.8899	5,277.83	84.7308	5,277.83	83.1579	5,277.83	82.6295	5,277.83	83.3035	5,277.83	80.5573	5,277.83	81.181	5,277.83	78.9694	5,277.83	79.4127	5,277.83	76.8347	5,277.83	80.4471	5,277.83	74.5141	5,277.83	73.5273	5,277.83	70.2031	5,277.83	73.3287	5,277.83	66.8404	5,277.83	64.0759	5,277.83	66.4124	5,277.83	58.1009	5,277.83	55.3878	5,277.83	56.1887	5,277.83	51.4561	5,277.83	48.469	5,277.83	53.8972	5,277.83	62.8597	5,277.83	53.1697	5,277.83	61.6155	5,277.83	59.7347	5,277.83	59.3944	5,277.83	64.4031	5,277.83	55.4966	5,277.83	63.4378
5,463.87	87.5945	5,463.87	86.4823	5,463.87	86.3924	5,463.87	85.928	5,463.87	85.6099	5,463.87	84.0941	5,463.87	83.6033	5,463.87	82.8695	5,463.87	82.6071	5,463.87	80.1621	5,463.87	80.4531	5,463.87	79.8671	5,463.87	78.6321	5,463.87	77.1032	5,463.87	79.2617	5,463.87	74.1162	5,463.87	74.9252	5,463.87	70.4637	5,463.87	72.1926	5,463.87	66.3626	5,463.87	60.9918	5,463.87	67.146	5,463.87	64.9728	5,463.87	50.3194	5,463.87	53.4022	5,463.87	51.6774	5,463.87	44.6246	5,463.87	51.4503	5,463.87	62.7004	5,463.87	54.4002	5,463.87	59.5966	5,463.87	60.5958	5,463.87	60.386	5,463.87	64.7727	5,463.87	47.267	5,463.87	62.8269
5,657.23	87.8197	5,657.23	86.6179	5,657.23	87.1515	5,657.23	85.9129	5,657.23	86.1108	5,657.23	84.4671	5,657.23	83.3444	5,657.23	82.531	5,657.23	83.1157	5,657.23	80.8092	5,657.23	80.1561	5,657.23	79.3733	5,657.23	76.9109	5,657.23	76.3019	5,657.23	76.5865	5,657.23	72.4839	5,657.23	76.1449	5,657.23	68.1999	5,657.23	72.0507	5,657.23	65.6255	5,657.23	68.2368	5,657.23	63.8808	5,657.23	66.1336	5,657.23	55.1513	5,657.23	58.2297	5,657.23	52.3666	5,657.23	52.9733	5,657.23	53.8608	5,657.23	63.2895	5,657.23	51.9185	5,657.23	59.6026	5,657.23	59.5295	5,657.23	58.4856	5,657.23	61.8297	5,657.23	53.4995	5,657.23	61.4898
5,856.45	87.9555	5,856.45	86.9357	5,856.45	86.9367	5,856.45	86.0162	5,856.45	86.0001	5,856.45	84.4554	5,856.45	83.5969	5,856.45	82.2555	5,856.45	83.3569	5,856.45	81.1598	5,856.45	80.8766	5,856.45	79.038	5,856.45	76.9063	5,856.45	75.5929	5,856.45	77.0931	5,856.45	72.6805	5,856.45	73.6722	5,856.45	66.7145	5,856.45	67.5339	5,856.45	66.0163	5,856.45	69.1144	5,856.45	65.1644	5,856.45	66.4332	5,856.45	55.598	5,856.45	61.6349	5,856.45	54.6811	5,856.45	54.2456	5,856.45	43.4237	5,856.45	60.1592	5,856.45	55.6414	5,856.45	60.5368	5,856.45	55.0873	5,856.45	56.2356	5,856.45	62.3239	5,856.45	54.8099	5,856.45	62.2196
6,062.99	87.5246	6,062.99	87.1526	6,062.99	86.7621	6,062.99	85.6742	6,062.99	86.5676	6,062.99	84.4238	6,062.99	84.2282	6,062.99	82.4967	6,062.99	83.5528	6,062.99	80.9277	6,062.99	81.7323	6,062.99	79.0345	6,062.99	77.1691	6,062.99	75.2296	6,062.99	75.9005	6,062.99	72.7218	6,062.99	74.2739	6,062.99	68.4264	6,062.99	68.2377	6,062.99	64.9561	6,062.99	64.4765	6,062.99	63.5444	6,062.99	65.4404	6,062.99	57.1567	6,062.99	49.4285	6,062.99	54.7842	6,062.99	57.7549	6,062.99	43.6729	6,062.99	61.0358	6,062.99	55.1809	6,062.99	58.1354	6,062.99	52.9967	6,062.99	55.3347	6,062.99	59.8279	6,062.99	55.4848	6,062.99	61.7673
6,276.86	87.3436	6,276.86	87.2424	6,276.86	87.2532	6,276.86	85.7924	6,276.86	86.1318	6,276.86	84.5045	6,276.86	83.9942	6,276.86	82.8825	6,276.86	83.1123	6,276.86	80.603	6,276.86	81.7994	6,276.86	78.5142	6,276.86	76.6675	6,276.86	74.5073	6,276.86	76.0624	6,276.86	70.3058	6,276.86	75.229	6,276.86	67.362	6,276.86	71.4182	6,276.86	62.7708	6,276.86	57.5118	6,276.86	64.784	6,276.86	52.3746	6,276.86	57.6912	6,276.86	58.7504	6,276.86	52.7333	6,276.86	55.6423	6,276.86	45.4762	6,276.86	57.3045	6,276.86	54.9655	6,276.86	55.6288	6,276.86	50.8444	6,276.86	57.0416	6,276.86	60.0918	6,276.86	53.3582	6,276.86	60.4988
6,498.05	88.0848	6,498.05	87.4396	6,498.05	86.6914	6,498.05	85.9063	6,498.05	86.5302	6,498.05	84.1422	6,498.05	84.2225	6,498.05	83.2477	6,498.05	80.977	6,498.05	80.3871	6,498.05	81.4953	6,498.05	78.0272	6,498.05	74.5866	6,498.05	73.4475	6,498.05	75.9234	6,498.05	70.6522	6,498.05	76.8808	6,498.05	67.4206	6,498.05	73.1266	6,498.05	61.0481	6,498.05	59.1669	6,498.05	64.8935	6,498.05	64.6206	6,498.05	58.6632	6,498.05	60.9834	6,498.05	56.1324	6,498.05	51.9431	6,498.05	48.2149	6,498.05	59.9365	6,498.05	58.702	6,498.05	55.712	6,498.05	57.6941	6,498.05	56.3762	6,498.05	56.2053	6,498.05	53.7841	6,498.05	61.6031
6,726.56	87.4745	6,726.56	87.0995	6,726.56	86.6471	6,726.56	86.0582	6,726.56	86.2141	6,726.56	84.4687	6,726.56	84.4893	6,726.56	83.4415	6,726.56	81.6355	6,726.56	80.3359	6,726.56	81.0414	6,726.56	77.2784	6,726.56	73.5372	6,726.56	74.9029	6,726.56	76.9352	6,726.56	72.9765	6,726.56	77.1986	6,726.56	68.2211	6,726.56	70.546	6,726.56	62.8718	6,726.56	63.5653	6,726.56	64.6467	6,726.56	67.4705	6,726.56	58.9154	6,726.56	56.4216	6,726.56	53.7616	6,726.56	51.3448	6,726.56	49.929	6,726.56	55.0944	6,726.56	58.3623	6,726.56	61.0784	6,726.56	56.5114	6,726.56	54.5195	6,726.56	58.8124	6,726.56	49.7777	6,726.56	59.6007
6,963.87	87.7301	6,963.87	87.2476	6,963.87	87.0388	6,963.87	86.0841	6,963.87	86.0851	6,963.87	84.6835	6,963.87	83.6388	6,963.87	83.144	6,963.87	82.2582	6,963.87	80.2301	6,963.87	81.0311	6,963.87	77.3271	6,963.87	74.188	6,963.87	75.7823	6,963.87	77.8122	6,963.87	71.8195	6,963.87	75.2269	6,963.87	67.3993	6,963.87	65.3649	6,963.87	62.2458	6,963.87	59.9433	6,963.87	62.9568	6,963.87	63.9522	6,963.87	60.0958	6,963.87	57.925	6,963.87	51.8976	6,963.87	49.687	6,963.87	51.0799	6,963.87	57.3195	6,963.87	58.1905	6,963.87	58.5575	6,963.87	57.4082	6,963.87	54.2234	6,963.87	51.9946	6,963.87	55.9973	6,963.87	59.0821
7,209.96	87.413	7,209.96	87.5226	7,209.96	87.0171	7,209.96	85.892	7,209.96	86.3787	7,209.96	85.2007	7,209.96	84.3875	7,209.96	83.0531	7,209.96	81.7823	7,209.96	79.9355	7,209.96	81.1254	7,209.96	78.6864	7,209.96	76.57	7,209.96	75.0569	7,209.96	76.36	7,209.96	71.8776	7,209.96	70.6422	7,209.96	67.6856	7,209.96	64.7454	7,209.96	61.1417	7,209.96	53.2693	7,209.96	59.4865	7,209.96	59.0254	7,209.96	61.8204	7,209.96	47.0018	7,209.96	53.3135	7,209.96	55.0638	7,209.96	50.7633	7,209.96	63.7371	7,209.96	60.9261	7,209.96	54.7013	7,209.96	59.9444	7,209.96	52.3	7,209.96	55.8658	7,209.96	50.3242	7,209.96	60.5349
7,464.84	86.7615	7,464.84	87.1129	7,464.84	86.8663	7,464.84	86.0771	7,464.84	86.6889	7,464.84	85.3639	7,464.84	84.8916	7,464.84	82.5969	7,464.84	82.8816	7,464.84	79.9888	7,464.84	81.5779	7,464.84	78.512	7,464.84	77.2299	7,464.84	75.7647	7,464.84	70.4349	7,464.84	72.0637	7,464.84	70.4873	7,464.84	67.3107	7,464.84	69.2941	7,464.84	59.4108	7,464.84	61.5096	7,464.84	59.6609	7,464.84	59.0469	7,464.84	60.9351	7,464.84	52.6837	7,464.84	50.4723	7,464.84	57.9733	7,464.84	53.1491	7,464.84	62.3484	7,464.84	61.0569	7,464.84	57.0277	7,464.84	58.0323	7,464.84	54.5774	7,464.84	56.3317	7,464.84	53.9098	7,464.84	60.1143
7,727.05	86.8094	7,727.05	87.015	7,727.05	86.6297	7,727.05	86.4773	7,727.05	86.7376	7,727.05	85.3432	7,727.05	85.1843	7,727.05	82.2629	7,727.05	82.9443	7,727.05	80.6324	7,727.05	80.8282	7,727.05	78.3816	7,727.05	74.3634	7,727.05	74.5363	7,727.05	64.6545	7,727.05	69.9042	7,727.05	76.3261	7,727.05	65.5339	7,727.05	64.6348	7,727.05	58.9162	7,727.05	58.1986	7,727.05	59.8876	7,727.05	60.5033	7,727.05	60.2764	7,727.05	52.2539	7,727.05	48.3009	7,727.05	56.6715	7,727.05	52.7928	7,727.05	55.9624	7,727.05	59.7547	7,727.05	59.0931	7,727.05	56.555	7,727.05	55.0715	7,727.05	49.7947	7,727.05	49.9701	7,727.05	60.1684
7,999.51	86.5916	7,999.51	86.6872	7,999.51	86.3335	7,999.51	86.7865	7,999.51	86.4815	7,999.51	85.2409	7,999.51	85.2779	7,999.51	82.4552	7,999.51	81.7999	7,999.51	81.1605	7,999.51	80.7905	7,999.51	77.7184	7,999.51	71.8726	7,999.51	73.3066	7,999.51	75.1446	7,999.51	69.5218	7,999.51	75.938	7,999.51	65.9916	7,999.51	67.0171	7,999.51	59.9533	7,999.51	56.3644	7,999.51	61.0679	7,999.51	55.846	7,999.51	58.999	7,999.51	50.6086	7,999.51	40.7334	7,999.51	51.9751	7,999.51	51.2604	7,999.51	57.6101	7,999.51	60.1985	7,999.51	55.1673	7,999.51	58.0214	7,999.51	54.8924	7,999.51	54.0277	7,999.51	41.5352	7,999.51	60.4995
8,282.23	86.161	8,282.23	86.4056	8,282.23	86.1182	8,282.23	86.7013	8,282.23	86.1934	8,282.23	85.0331	8,282.23	85.096	8,282.23	82.6	8,282.23	81.9543	8,282.23	80.971	8,282.23	80.1235	8,282.23	77.2796	8,282.23	74.7953	8,282.23	73.2738	8,282.23	75.2736	8,282.23	70.0622	8,282.23	72.8073	8,282.23	66.3051	8,282.23	66.8006	8,282.23	59.3574	8,282.23	46.3128	8,282.23	60.4463	8,282.23	52.1092	8,282.23	60.937	8,282.23	51.4767	8,282.23	36.9512	8,282.23	46.3472	8,282.23	53.1652	8,282.23	58.8793	8,282.23	59.6664	8,282.23	56.4572	8,282.23	57.9995	8,282.23	55.7113	8,282.23	51.971	8,282.23	36.3584	8,282.23	59.0178
8,573.73	85.784	8,573.73	85.9264	8,573.73	85.8602	8,573.73	86.5467	8,573.73	85.7766	8,573.73	84.6276	8,573.73	84.4415	8,573.73	82.9011	8,573.73	81.1836	8,573.73	80.2892	8,573.73	79.6363	8,573.73	77.2645	8,573.73	75.489	8,573.73	73.4217	8,573.73	71.0197	8,573.73	70.2097	8,573.73	70.1412	8,573.73	65.7043	8,573.73	63.3145	8,573.73	61.1339	8,573.73	54.1005	8,573.73	59.3931	8,573.73	53.1385	8,573.73	59.175	8,573.73	41.9221	8,573.73	47.4075	8,573.73	50.4023	8,573.73	48.6291	8,573.73	56.2618	8,573.73	59.1454	8,573.73	53.998	8,573.73	57.2979	8,573.73	53.0059	8,573.73	54.2794	8,573.73	41.816	8,573.73	59.5339
8,876.95	85.8383	8,876.95	85.775	8,876.95	85.7247	8,876.95	86.2734	8,876.95	85.3826	8,876.95	84.6302	8,876.95	84.278	8,876.95	82.6122	8,876.95	81.4818	8,876.95	79.9469	8,876.95	79.0002	8,876.95	76.8801	8,876.95	75.1071	8,876.95	73.3795	8,876.95	68.1628	8,876.95	69.7741	8,876.95	69.2678	8,876.95	65.7442	8,876.95	65.1088	8,876.95	62.2359	8,876.95	50.1247	8,876.95	57.498	8,876.95	51.7807	8,876.95	57.9925	8,876.95	46.1961	8,876.95	48.8359	8,876.95	56.4941	8,876.95	45.5069	8,876.95	56.0277	8,876.95	57.379	8,876.95	52.1665	8,876.95	56.7373	8,876.95	48.2614	8,876.95	52.6227	8,876.95	20.1364	8,876.95	57.9193
9,188.96	85.9399	9,188.96	86.0557	9,188.96	85.6418	9,188.96	85.6115	9,188.96	84.6801	9,188.96	84.6238	9,188.96	83.8725	9,188.96	81.7868	9,188.96	81.1648	9,188.96	79.0088	9,188.96	79.5769	9,188.96	77.0216	9,188.96	74.6879	9,188.96	73.0939	9,188.96	69.1837	9,188.96	69.1413	9,188.96	70.5046	9,188.96	63.7598	9,188.96	64.1187	9,188.96	61.4101	9,188.96	52.6041	9,188.96	54.7089	9,188.96	49.4785	9,188.96	54.6374	9,188.96	54.1077	9,188.96	48.4632	9,188.96	45.2351	9,188.96	39.1107	9,188.96	56.0647	9,188.96	56.3133	9,188.96	49.2464	9,188.96	53.5074	9,188.96	48.7003	9,188.96	49.2123	9,188.96	37.5196	9,188.96	56.5802
9,514.16	86.4058	9,514.16	86.3773	9,514.16	85.6585	9,514.16	85.3669	9,514.16	84.0549	9,514.16	84.5898	9,514.16	83.6786	9,514.16	81.0723	9,514.16	81.0618	9,514.16	78.4823	9,514.16	79.3982	9,514.16	76.7961	9,514.16	74.8138	9,514.16	71.9418	9,514.16	68.4245	9,514.16	67.0438	9,514.16	69.67	9,514.16	61.6098	9,514.16	62.1969	9,514.16	60.6885	9,514.16	51.3415	9,514.16	51.6973	9,514.16	53.6562	9,514.16	52.1867	9,514.16	46.7868	9,514.16	51.5945	9,514.16	46.2422	9,514.16	41.5263	9,514.16	51.6922	9,514.16	53.8748	9,514.16	44.8175	9,514.16	51.345	9,514.16	49.1554	9,514.16	44.6858	9,514.16	42.8482	9,514.16	53.3728
9,849.61	86.7713	9,849.61	86.6509	9,849.61	85.8569	9,849.61	85.5143	9,849.61	84.1467	9,849.61	84.7499	9,849.61	83.4206	9,849.61	80.8535	9,849.61	80.9134	9,849.61	78.7953	9,849.61	78.8787	9,849.61	76.4663	9,849.61	73.7408	9,849.61	70.8305	9,849.61	67.0017	9,849.61	65.6637	9,849.61	66.4027	9,849.61	60.9365	9,849.61	58.8533	9,849.61	59.831	9,849.61	53.7287	9,849.61	45.9062	9,849.61	56.7256	9,849.61	50.0282	9,849.61	33.7839	9,849.61	49.2296	9,849.61	42.1627	9,849.61	42.4132	9,849.61	51.9072	9,849.61	52.0773	9,849.61	43.379	9,849.61	48.0483	9,849.61	45.6853	9,849.61	39.0396	9,849.61	42.6801	9,849.61	53.6072
10,196.8	86.7915	10,196.8	86.6195	10,196.8	86.0946	10,196.8	85.5259	10,196.8	84.4066	10,196.8	84.6009	10,196.8	83.2506	10,196.8	80.9195	10,196.8	80.5142	10,196.8	78.7009	10,196.8	78.7419	10,196.8	75.6273	10,196.8	71.4856	10,196.8	69.9986	10,196.8	66.8793	10,196.8	65.2877	10,196.8	60.2648	10,196.8	60.026	10,196.8	58.5056	10,196.8	60.219	10,196.8	52.3619	10,196.8	32.0226	10,196.8	54.5495	10,196.8	46.243	10,196.8	43.405	10,196.8	47.0984	10,196.8	47.9586	10,196.8	42.1368	10,196.8	52.5136	10,196.8	52.5637	10,196.8	44.0419	10,196.8	47.9548	10,196.8	42.3857	10,196.8	37.9382	10,196.8	39.2749	10,196.8	52.7045
10,555.7	86.4554	10,555.7	86.1579	10,555.7	86.089	10,555.7	85.3061	10,555.7	84.5763	10,555.7	84.1181	10,555.7	82.7717	10,555.7	80.8556	10,555.7	80.0415	10,555.7	78.1399	10,555.7	77.6504	10,555.7	74.0066	10,555.7	71.0414	10,555.7	69.4195	10,555.7	62.6684	10,555.7	65.2877	10,555.7	61.9613	10,555.7	57.8783	10,555.7	50.9515	10,555.7	58.9833	10,555.7	46.7985	10,555.7	40.7384	10,555.7	58.1401	10,555.7	46.497	10,555.7	50.152	10,555.7	46.1486	10,555.7	44.9834	10,555.7	35.5199	10,555.7	50.0632	10,555.7	49.5862	10,555.7	41.8514	10,555.7	45.2606	10,555.7	35.3286	10,555.7	43.8575	10,555.7	32.5446	10,555.7	51.8585
10,927.7	86.1772	10,927.7	85.9154	10,927.7	85.9483	10,927.7	85.1361	10,927.7	84.413	10,927.7	83.8033	10,927.7	82.3808	10,927.7	80.6408	10,927.7	79.4173	10,927.7	76.9998	10,927.7	76.843	10,927.7	73.0402	10,927.7	71.6021	10,927.7	68.3341	10,927.7	61.7081	10,927.7	64.1971	10,927.7	60.1855	10,927.7	57.8201	10,927.7	51.2901	10,927.7	56.696	10,927.7	39.3977	10,927.7	46.7979	10,927.7	56.3881	10,927.7	47.9035	10,927.7	50.2943	10,927.7	39.8421	10,927.7	40.2214	10,927.7	36.0381	10,927.7	47.1001	10,927.7	48.6501	10,927.7	38.1175	10,927.7	42.5553	10,927.7	32.8374	10,927.7	40.1152	10,927.7	13.8182	10,927.7	49.3751
11,313	86.1109	11,313	86.0379	11,313	85.9288	11,313	85.2658	11,313	84.3057	11,313	83.6538	11,313	82.0991	11,313	80.1571	11,313	79.1164	11,313	76.0927	11,313	76.4118	11,313	72.1588	11,313	70.2797	11,313	67.2582	11,313	60.1412	11,313	62.8436	11,313	58.5681	11,313	56.7256	11,313	54.0792	11,313	55.1893	11,313	42.2614	11,313	50.0091	11,313	47.3005	11,313	47.3614	11,313	49.9907	11,313	38.4253	11,313	39.6106	11,313	39.6955	11,313	45.0418	11,313	48.2358	11,313	35.8076	11,313	42.5664	11,313	37.7069	11,313	40.5312	11,313	33.2218	11,313	49.2834
11,712.9	86.0738	11,712.9	86.1114	11,712.9	85.8886	11,712.9	85.2518	11,712.9	84.3192	11,712.9	83.6147	11,712.9	82.0279	11,712.9	79.517	11,712.9	78.6019	11,712.9	75.5427	11,712.9	74.9505	11,712.9	70.9141	11,712.9	67.5863	11,712.9	65.4924	11,712.9	60.2116	11,712.9	62.4079	11,712.9	54.813	11,712.9	57.0206	11,712.9	37.2315	11,712.9	54.8755	11,712.9	46.0204	11,712.9	50.7061	11,712.9	50.8397	11,712.9	44.7343	11,712.9	47.9032	11,712.9	37.2641	11,712.9	44.4713	11,712.9	38.1504	11,712.9	47.4018	11,712.9	46.819	11,712.9	38.3963	11,712.9	42.3123	11,712.9	39.0319	11,712.9	42.745	11,712.9	32.6136	11,712.9	49.8961
12,126	86.1767	12,126	86.0828	12,126	85.7328	12,126	85.0041	12,126	84.182	12,126	83.5074	12,126	81.9538	12,126	78.8341	12,126	77.9033	12,126	74.8401	12,126	72.737	12,126	69.7892	12,126	66.0405	12,126	64.4569	12,126	58.2983	12,126	60.3593	12,126	54.5613	12,126	58.1394	12,126	50.1989	12,126	54.2991	12,126	51.304	12,126	52.1307	12,126	54.1901	12,126	40.9507	12,126	49.1042	12,126	34.5723	12,126	40.8104	12,126	40.6684	12,126	47.7556	12,126	45.0468	12,126	41.0668	12,126	38.1557	12,126	37.2727	12,126	38.8719	12,126	31.6463	12,126	49.6807
12,553.7	86.1835	12,553.7	86.0105	12,553.7	85.5198	12,553.7	84.6416	12,553.7	84.0143	12,553.7	83.1646	12,553.7	81.7801	12,553.7	77.8869	12,553.7	77.3881	12,553.7	74.0845	12,553.7	72.5235	12,553.7	68.7897	12,553.7	66.2702	12,553.7	64.2159	12,553.7	56.4751	12,553.7	59.0737	12,553.7	55.488	12,553.7	60.1727	12,553.7	52.2175	12,553.7	54.8045	12,553.7	51.3675	12,553.7	50.7333	12,553.7	56.0084	12,553.7	38.1983	12,553.7	48.9831	12,553.7	36.4837	12,553.7	45.9028	12,553.7	38.001	12,553.7	49.3266	12,553.7	44.7728	12,553.7	42.0952	12,553.7	39.2449	12,553.7	44.7259	12,553.7	32.7639	12,553.7	40.4331	12,553.7	49.6096
12,996.1	86.2097	12,996.1	85.8678	12,996.1	85.3037	12,996.1	84.3099	12,996.1	83.8158	12,996.1	82.7102	12,996.1	81.2629	12,996.1	76.9659	12,996.1	76.0148	12,996.1	73.0051	12,996.1	71.1097	12,996.1	67.9295	12,996.1	65.6459	12,996.1	65.1146	12,996.1	60.9394	12,996.1	59.7474	12,996.1	55.9644	12,996.1	60.7206	12,996.1	51.0649	12,996.1	55.648	12,996.1	48.1815	12,996.1	50.8528	12,996.1	58.9129	12,996.1	40.8698	12,996.1	44.3731	12,996.1	37.8374	12,996.1	41.3398	12,996.1	38.3637	12,996.1	48.7274	12,996.1	45.5795	12,996.1	39.9654	12,996.1	43.1082	12,996.1	45.0478	12,996.1	30.0351	12,996.1	45.8253	12,996.1	48.1442
13,454.6	86.175	13,454.6	85.8136	13,454.6	85.1901	13,454.6	84.2063	13,454.6	83.5293	13,454.6	82.2693	13,454.6	80.6996	13,454.6	76.1969	13,454.6	75.3233	13,454.6	72.0837	13,454.6	70.5525	13,454.6	67.5211	13,454.6	62.9333	13,454.6	65.9808	13,454.6	61.6542	13,454.6	61.5643	13,454.6	60.9099	13,454.6	61.111	13,454.6	47.1914	13,454.6	56.8354	13,454.6	56.831	13,454.6	50.1595	13,454.6	62.9785	13,454.6	43.9912	13,454.6	38.8682	13,454.6	40.1563	13,454.6	42.6252	13,454.6	32.0087	13,454.6	40.7788	13,454.6	47.4279	13,454.6	42.1846	13,454.6	45.7293	13,454.6	44.8565	13,454.6	41.8686	13,454.6	46.5119	13,454.6	45.4988
13,929.2	86.0825	13,929.2	85.7479	13,929.2	85.2284	13,929.2	84.2659	13,929.2	83.4376	13,929.2	81.7391	13,929.2	79.9426	13,929.2	75.6295	13,929.2	75.0086	13,929.2	71.7174	13,929.2	70.282	13,929.2	67.9134	13,929.2	66.0906	13,929.2	67.4196	13,929.2	65.5756	13,929.2	62.4467	13,929.2	56.503	13,929.2	61.7395	13,929.2	54.4774	13,929.2	57.1033	13,929.2	57.3094	13,929.2	49.3064	13,929.2	63.6224	13,929.2	46.782	13,929.2	50.4705	13,929.2	41.0651	13,929.2	35.809	13,929.2	33.5531	13,929.2	45.3229	13,929.2	49.7599	13,929.2	41.6992	13,929.2	48.7004	13,929.2	46.2168	13,929.2	48.0185	13,929.2	47.6898	13,929.2	44.2498
14,419.9	85.9255	14,419.9	85.7122	14,419.9	85.3786	14,419.9	84.3157	14,419.9	83.4478	14,419.9	81.2878	14,419.9	79.6316	14,419.9	74.9846	14,419.9	74.512	14,419.9	71.919	14,419.9	68.8195	14,419.9	69.4839	14,419.9	68.34	14,419.9	68.1214	14,419.9	63.7599	14,419.9	62.5522	14,419.9	61.4818	14,419.9	61.7498	14,419.9	52.7792	14,419.9	57.072	14,419.9	58.9004	14,419.9	48.8474	14,419.9	65.8333	14,419.9	47.2064	14,419.9	50.5929	14,419.9	40.4731	14,419.9	46.5154	14,419.9	41.7076	14,419.9	23.724	14,419.9	51.6699	14,419.9	36.6655	14,419.9	50.4962	14,419.9	43.2848	14,419.9	49.895	14,419.9	47.6537	14,419.9	42.5682
14,928.2	85.8629	14,928.2	85.7079	14,928.2	85.305	14,928.2	84.2484	14,928.2	83.3152	14,928.2	81.0975	14,928.2	79.4366	14,928.2	74.1402	14,928.2	73.6278	14,928.2	72.0642	14,928.2	70.1953	14,928.2	71.0988	14,928.2	68.7053	14,928.2	68.672	14,928.2	66.4277	14,928.2	62.2948	14,928.2	61.1002	14,928.2	62.1877	14,928.2	53.6778	14,928.2	55.0938	14,928.2	61.2527	14,928.2	50.4044	14,928.2	66.8499	14,928.2	49.2613	14,928.2	53.5721	14,928.2	41.4262	14,928.2	44.0197	14,928.2	44.7398	14,928.2	37.9319	14,928.2	50.813	14,928.2	38.5958	14,928.2	50.3009	14,928.2	41.7617	14,928.2	49.4415	14,928.2	47.2789	14,928.2	41.3113
15,455.6	85.6997	15,455.6	85.6339	15,455.6	85.2294	15,455.6	84.0458	15,455.6	82.9548	15,455.6	80.8345	15,455.6	79.1963	15,455.6	73.4875	15,455.6	71.3634	15,455.6	72.9389	15,455.6	71.336	15,455.6	72.0017	15,455.6	70.0609	15,455.6	69.5145	15,455.6	66.2741	15,455.6	63.4641	15,455.6	58.1431	15,455.6	61.8016	15,455.6	52.4124	15,455.6	54.043	15,455.6	62.9374	15,455.6	51.245	15,455.6	68.0925	15,455.6	49.7296	15,455.6	53.9665	15,455.6	39.547	15,455.6	45.3959	15,455.6	48.056	15,455.6	28.8794	15,455.6	48.4228	15,455.6	35.5267	15,455.6	49.9289	15,455.6	39.4659	15,455.6	47.9442	15,455.6	49.2501	15,455.6	44.6857
16,000.5	85.6719	16,000.5	85.6712	16,000.5	85.1325	16,000.5	83.4199	16,000.5	82.228	16,000.5	79.567	16,000.5	77.5881	16,000.5	72.9671	16,000.5	70.6651	16,000.5	74.2711	16,000.5	71.7564	16,000.5	72.5962	16,000.5	71.4749	16,000.5	69.5672	16,000.5	65.0471	16,000.5	62.5538	16,000.5	61.5584	16,000.5	60.903	16,000.5	51.4739	16,000.5	52.0744	16,000.5	63.483	16,000.5	52.5382	16,000.5	68.0633	16,000.5	48.533	16,000.5	54.9392	16,000.5	40.7819	16,000.5	45.8033	16,000.5	48.3757	16,000.5	40.6142	16,000.5	45.1883	16,000.5	40.4651	16,000.5	44.5615	16,000.5	46.673	16,000.5	45.0157	16,000.5	48.5338	16,000.5	44.3713
16,564.5	85.7605	16,564.5	85.3321	16,564.5	84.9424	16,564.5	81.8876	16,564.5	80.8462	16,564.5	77.2149	16,564.5	74.765	16,564.5	73.5884	16,564.5	71.9113	16,564.5	74.4272	16,564.5	72.5045	16,564.5	71.1211	16,564.5	69.1721	16,564.5	66.7889	16,564.5	62.8723	16,564.5	58.692	16,564.5	57.4447	16,564.5	57.0271	16,564.5	45.7869	16,564.5	47.8551	16,564.5	64.535	16,564.5	51.0365	16,564.5	68.0357	16,564.5	45.5069	16,564.5	54.7474	16,564.5	38.8128	16,564.5	44.808	16,564.5	44.6142	16,564.5	45.8245	16,564.5	27.4186	16,564.5	39.1775	16,564.5	43.8739	16,564.5	46.7514	16,564.5	46.7582	16,564.5	46.5442	16,564.5	44.0403
17,148.9	85.5632	17,148.9	84.6523	17,148.9	84.203	17,148.9	81.0197	17,148.9	79.9185	17,148.9	77.9562	17,148.9	75.5645	17,148.9	75.317	17,148.9	73.7336	17,148.9	73.2086	17,148.9	71.2797	17,148.9	65.337	17,148.9	62.5354	17,148.9	58.2273	17,148.9	47.0306	17,148.9	46.9841	17,148.9	55.2679	17,148.9	52.0167	17,148.9	44.6571	17,148.9	41.4727	17,148.9	65.9082	17,148.9	47.921	17,148.9	68.6792	17,148.9	42.7263	17,148.9	53.8638	17,148.9	33.5649	17,148.9	46.197	17,148.9	35.444	17,148.9	48.134	17,148.9	45.1971	17,148.9	36.3015	17,148.9	45.5821	17,148.9	45.8636	17,148.9	43.1999	17,148.9	43.3475	17,148.9	42.4933
17,752.4	85.3173	17,752.4	84.2482	17,752.4	83.835	17,752.4	81.4533	17,752.4	80.3237	17,752.4	79.3521	17,752.4	77.3353	17,752.4	75.8037	17,752.4	74.644	17,752.4	71.8584	17,752.4	69.7634	17,752.4	62.4511	17,752.4	60.7547	17,752.4	56.0982	17,752.4	52.591	17,752.4	46.3755	17,752.4	48.6923	17,752.4	50.7881	17,752.4	51.7703	17,752.4	24.8655	17,752.4	67.2493	17,752.4	46.0984	17,752.4	69.8654	17,752.4	37.9004	17,752.4	54.5453	17,752.4	34.8639	17,752.4	39.9393	17,752.4	42.3857	17,752.4	42.8826	17,752.4	46.6491	17,752.4	35.6386	17,752.4	38.9424	17,752.4	38.8273	17,752.4	28.6066	17,752.4	43.6988	17,752.4	36.6223
18,379.4	85.0018	18,379.4	84.197	18,379.4	83.7146	18,379.4	81.9724	18,379.4	80.604	18,379.4	80.0672	18,379.4	77.5395	18,379.4	75.7806	18,379.4	74.4047	18,379.4	71.9287	18,379.4	69.6681	18,379.4	63.7801	18,379.4	61.9565	18,379.4	57.4957	18,379.4	56.9187	18,379.4	49.667	18,379.4	45.946	18,379.4	50.2349	18,379.4	52.1337	18,379.4	40.5761	18,379.4	68.1232	18,379.4	44.0768	18,379.4	70.2553	18,379.4	39.8369	18,379.4	53.8744	18,379.4	38.0372	18,379.4	36.4205	18,379.4	44.8599	18,379.4	41.982	18,379.4	42.49	18,379.4	37.1254	18,379.4	43.127	18,379.4	43.0855	18,379.4	42.6917	18,379.4	46.568	18,379.4	28.647
19,026.9	84.7852	19,026.9	84.1689	19,026.9	83.6143	19,026.9	82.3145	19,026.9	80.485	19,026.9	80.4203	19,026.9	77.3197	19,026.9	75.3875	19,026.9	74.3842	19,026.9	71.2265	19,026.9	70.5346	19,026.9	64.0488	19,026.9	61.9795	19,026.9	57.3212	19,026.9	57.6522	19,026.9	52.0283	19,026.9	44.9751	19,026.9	49.1147	19,026.9	54.159	19,026.9	43.0315	19,026.9	68.067	19,026.9	45.451	19,026.9	69.8327	19,026.9	39.5592	19,026.9	53.7956	19,026.9	40.8325	19,026.9	37.4428	19,026.9	44.8766	19,026.9	41.3266	19,026.9	42.1001	19,026.9	33.531	19,026.9	47.2725	19,026.9	42.2666	19,026.9	43.2288	19,026.9	45.7745	19,026.9	33.0634
19,697.8	84.5256	19,697.8	84.1503	19,697.8	83.1737	19,697.8	82.4658	19,697.8	80.4861	19,697.8	80.8091	19,697.8	77.927	19,697.8	75.1627	19,697.8	75.2532	19,697.8	70.3856	19,697.8	70.3148	19,697.8	62.3218	19,697.8	62.6481	19,697.8	56.8584	19,697.8	58.8634	19,697.8	51.8601	19,697.8	44.0054	19,697.8	44.0867	19,697.8	51.7721	19,697.8	47.034	19,697.8	68.4428	19,697.8	46.3434	19,697.8	69.5826	19,697.8	40.3959	19,697.8	52.3965	19,697.8	42.8523	19,697.8	38.3068	19,697.8	42.2274	19,697.8	37.4759	19,697.8	43.534	19,697.8	31.2879	19,697.8	46.7867	19,697.8	42.5624	19,697.8	41.9286	19,697.8	45.0463	19,697.8	37.1734
19,999.5	84.4494	19,999.5	83.9809	19,999.5	83.104	19,999.5	82.4331	19,999.5	80.5192	19,999.5	80.8812	19,999.5	78.4866	19,999.5	75.1055	19,999.5	74.8292	19,999.5	69.4004	19,999.5	69.7325	19,999.5	61.7119	19,999.5	63.168	19,999.5	55.2872	19,999.5	61.4601	19,999.5	56.2138	19,999.5	52.475	19,999.5	41.4005	19,999.5	54.1746	19,999.5	42.9866	19,999.5	69.0282	19,999.5	44.0399	19,999.5	69.9237	19,999.5	42.1091	19,999.5	54.9682	19,999.5	47.5395	19,999.5	54.1314	19,999.5	42.1031	19,999.5	39.5075	19,999.5	44.7729	19,999.5	40.6815	19,999.5	52.0167	19,999.5	45.6239	19,999.5	40.4275	19,999.5	47.2194	19,999.5	38.6056
