"SPL Horizontal"
"On-Axis"		"10°"		"-10°"		"20°"		"-20°"		"30°"		"-30°"		"40°"		"-40°"		"50°"		"-50°"		"60°"		"-60°"		"70°"		"-70°"		"80°"		"-80°"		"90°"		"-90°"		"100°"		"-100°"		"110°"		"-110°"		"120°"		"-120°"		"130°"		"-130°"		"140°"		"-140°"		"150°"		"-150°"		"160°"		"-160°"		"170°"		"-170°"		"180°"
"Frequency / Hz"	"Sound Pressure Level / dB (re 20 µPa/V)  [2.83  V @ 1. m]"	"Frequency / Hz"	"Sound Pressure Level / dB (re 20 µPa/V)  [2.83  V @ 1. m]"	"Frequency / Hz"	"Sound Pressure Level / dB (re 20 µPa/V)  [2.83  V @ 1. m]"	"Frequency / Hz"	"Sound Pressure Level / dB (re 20 µPa/V)  [2.83  V @ 1. m]"	"Frequency / Hz"	"Sound Pressure Level / dB (re 20 µPa/V)  [2.83  V @ 1. m]"	"Frequency / Hz"	"Sound Pressure Level / dB (re 20 µPa/V)  [2.83  V @ 1. m]"	"Frequency / Hz"	"Sound Pressure Level / dB (re 20 µPa/V)  [2.83  V @ 1. m]"	"Frequency / Hz"	"Sound Pressure Level / dB (re 20 µPa/V)  [2.83  V @ 1. m]"	"Frequency / Hz"	"Sound Pressure Level / dB (re 20 µPa/V)  [2.83  V @ 1. m]"	"Frequency / Hz"	"Sound Pressure Level / dB (re 20 µPa/V)  [2.83  V @ 1. m]"	"Frequency / Hz"	"Sound Pressure Level / dB (re 20 µPa/V)  [2.83  V @ 1. m]"	"Frequency / Hz"	"Sound Pressure Level / dB (re 20 µPa/V)  [2.83  V @ 1. m]"	"Frequency / Hz"	"Sound Pressure Level / dB (re 20 µPa/V)  [2.83  V @ 1. m]"	"Frequency / Hz"	"Sound Pressure Level / dB (re 20 µPa/V)  [2.83  V @ 1. m]"	"Frequency / Hz"	"Sound Pressure Level / dB (re 20 µPa/V)  [2.83  V @ 1. m]"	"Frequency / Hz"	"Sound Pressure Level / dB (re 20 µPa/V)  [2.83  V @ 1. m]"	"Frequency / Hz"	"Sound Pressure Level / dB (re 20 µPa/V)  [2.83  V @ 1. m]"	"Frequency / Hz"	"Sound Pressure Level / dB (re 20 µPa/V)  [2.83  V @ 1. m]"	"Frequency / Hz"	"Sound Pressure Level / dB (re 20 µPa/V)  [2.83  V @ 1. m]"	"Frequency / Hz"	"Sound Pressure Level / dB (re 20 µPa/V)  [2.83  V @ 1. m]"	"Frequency / Hz"	"Sound Pressure Level / dB (re 20 µPa/V)  [2.83  V @ 1. m]"	"Frequency / Hz"	"Sound Pressure Level / dB (re 20 µPa/V)  [2.83  V @ 1. m]"	"Frequency / Hz"	"Sound Pressure Level / dB (re 20 µPa/V)  [2.83  V @ 1. m]"	"Frequency / Hz"	"Sound Pressure Level / dB (re 20 µPa/V)  [2.83  V @ 1. m]"	"Frequency / Hz"	"Sound Pressure Level / dB (re 20 µPa/V)  [2.83  V @ 1. m]"	"Frequency / Hz"	"Sound Pressure Level / dB (re 20 µPa/V)  [2.83  V @ 1. m]"	"Frequency / Hz"	"Sound Pressure Level / dB (re 20 µPa/V)  [2.83  V @ 1. m]"	"Frequency / Hz"	"Sound Pressure Level / dB (re 20 µPa/V)  [2.83  V @ 1. m]"	"Frequency / Hz"	"Sound Pressure Level / dB (re 20 µPa/V)  [2.83  V @ 1. m]"	"Frequency / Hz"	"Sound Pressure Level / dB (re 20 µPa/V)  [2.83  V @ 1. m]"	"Frequency / Hz"	"Sound Pressure Level / dB (re 20 µPa/V)  [2.83  V @ 1. m]"	"Frequency / Hz"	"Sound Pressure Level / dB (re 20 µPa/V)  [2.83  V @ 1. m]"	"Frequency / Hz"	"Sound Pressure Level / dB (re 20 µPa/V)  [2.83  V @ 1. m]"	"Frequency / Hz"	"Sound Pressure Level / dB (re 20 µPa/V)  [2.83  V @ 1. m]"	"Frequency / Hz"	"Sound Pressure Level / dB (re 20 µPa/V)  [2.83  V @ 1. m]"	"Frequency / Hz"	"Sound Pressure Level / dB (re 20 µPa/V)  [2.83  V @ 1. m]"
20.5078	66.8943	20.5078	66.9301	20.5078	66.8831	20.5078	66.9897	20.5078	66.897	20.5078	67.0715	20.5078	66.9359	20.5078	67.1734	20.5078	66.9991	20.5078	67.2929	20.5078	67.0854	20.5078	67.427	20.5078	67.1926	20.5078	67.5719	20.5078	67.318	20.5078	67.7237	20.5078	67.4582	20.5078	67.8775	20.5078	67.6088	20.5078	68.0286	20.5078	67.7649	20.5078	68.1717	20.5078	67.9211	20.5078	68.3019	20.5078	68.0718	20.5078	68.4147	20.5078	68.2118	20.5078	68.5064	20.5078	68.3365	20.5078	68.5742	20.5078	68.4422	20.5078	68.6166	20.5078	68.5263	20.5078	68.6327	20.5078	68.5869	20.5078	68.6226
21.9727	70.0465	21.9727	70.0735	21.9727	70.0424	21.9727	70.1226	21.9727	70.0614	21.9727	70.1926	21.9727	70.1033	21.9727	70.2815	21.9727	70.1671	21.9727	70.3872	21.9727	70.2513	21.9727	70.5065	21.9727	70.3539	21.9727	70.6362	21.9727	70.4719	21.9727	70.7723	21.9727	70.6017	21.9727	70.9103	21.9727	70.739	21.9727	71.0456	21.9727	70.8791	21.9727	71.1736	21.9727	71.0169	21.9727	71.2899	21.9727	71.1474	21.9727	71.3905	21.9727	71.2663	21.9727	71.4725	21.9727	71.3697	21.9727	71.5341	21.9727	71.4551	21.9727	71.5743	21.9727	71.5208	21.9727	71.5929	21.9727	71.5659	21.9727	71.59
23.4375	72.006	23.4375	72.0279	23.4375	72.0068	23.4375	72.0722	23.4375	72.0305	23.4375	72.1376	23.4375	72.0767	23.4375	72.2227	23.4375	72.1442	23.4375	72.3251	23.4375	72.2314	23.4375	72.4422	23.4375	72.3363	23.4375	72.5706	23.4375	72.4557	23.4375	72.7062	23.4375	72.5862	23.4375	72.8446	23.4375	72.7235	23.4375	72.9811	23.4375	72.863	23.4375	73.1109	23.4375	72.9996	23.4375	73.2295	23.4375	73.1285	23.4375	73.333	23.4375	73.2452	23.4375	73.4183	23.4375	73.346	23.4375	73.4836	23.4375	73.4283	23.4375	73.5277	23.4375	73.4904	23.4375	73.5504	23.4375	73.5317	23.4375	73.5517
24.9023	73.6561	24.9023	73.6751	24.9023	73.659	24.9023	73.7154	24.9023	73.6836	24.9023	73.7761	24.9023	73.7296	24.9023	73.8555	24.9023	73.7956	24.9023	73.9516	24.9023	73.8802	24.9023	74.0617	24.9023	73.9808	24.9023	74.1825	24.9023	74.0946	24.9023	74.3101	24.9023	74.2179	24.9023	74.4403	24.9023	74.3467	24.9023	74.5684	24.9023	74.4762	24.9023	74.6898	24.9023	74.6021	24.9023	74.8003	24.9023	74.7198	24.9023	74.8963	24.9023	74.8254	24.9023	74.9751	24.9023	74.9159	24.9023	75.035	24.9023	74.9892	24.9023	75.0754	24.9023	75.0443	24.9023	75.0962	24.9023	75.0805	24.9023	75.0979
26.3672	75.2996	26.3672	75.3164	26.3672	75.3044	26.3672	75.3544	26.3672	75.3306	26.3672	75.4128	26.3672	75.3776	26.3672	75.4902	26.3672	75.4443	26.3672	75.5847	26.3672	75.529	26.3672	75.6937	26.3672	75.6294	26.3672	75.8141	26.3672	75.7429	26.3672	75.942	26.3672	75.8659	26.3672	76.0731	26.3672	75.9945	26.3672	76.2028	26.3672	76.1243	26.3672	76.3263	26.3672	76.2507	26.3672	76.4392	26.3672	76.3691	26.3672	76.5377	26.3672	76.4757	26.3672	76.6189	26.3672	76.5671	26.3672	76.6812	26.3672	76.641	26.3672	76.7236	26.3672	76.6963	26.3672	76.7461	26.3672	76.7323	26.3672	76.749
27.832	76.731	27.832	76.7466	27.832	76.7367	27.832	76.7831	27.832	76.7634	27.832	76.8397	27.832	76.8108	27.832	76.915	27.832	76.8776	27.832	77.007	27.832	76.9623	27.832	77.1134	27.832	77.0628	27.832	77.2311	27.832	77.176	27.832	77.3562	27.832	77.2986	27.832	77.4846	27.832	77.4266	27.832	77.6119	27.832	77.5553	27.832	77.7333	27.832	77.6803	27.832	77.8447	27.832	77.797	27.832	77.9424	27.832	77.9014	27.832	78.0236	27.832	77.9903	27.832	78.0866	27.832	78.0616	27.832	78.1306	27.832	78.114	27.832	78.1553	27.832	78.147	27.832	78.1608
29.2969	78.0763	29.2969	78.0915	29.2969	78.0819	29.2969	78.1273	29.2969	78.1083	29.2969	78.1828	29.2969	78.1547	29.2969	78.2568	29.2969	78.2202	29.2969	78.3477	29.2969	78.3033	29.2969	78.4529	29.2969	78.4017	29.2969	78.5694	29.2969	78.5128	29.2969	78.6937	29.2969	78.6331	29.2969	78.8215	29.2969	78.7589	29.2969	78.9483	29.2969	78.8856	29.2969	79.0696	29.2969	79.0089	29.2969	79.181	29.2969	79.1243	29.2969	79.2786	29.2969	79.228	29.2969	79.3597	29.2969	79.3167	29.2969	79.4221	29.2969	79.3885	29.2969	79.4652	29.2969	79.442	29.2969	79.4885	29.2969	79.4767	29.2969	79.4922
30.7617	79.3642	30.7617	79.3806	30.7617	79.3688	30.7617	79.4177	30.7617	79.3943	30.7617	79.4748	30.7617	79.4401	30.7617	79.5505	30.7617	79.5053	30.7617	79.6431	30.7617	79.5883	30.7617	79.7502	30.7617	79.6869	30.7617	79.8686	30.7617	79.7984	30.7617	79.9947	30.7617	79.9195	30.7617	80.1243	30.7617	80.0463	30.7617	80.2527	30.7617	80.1744	30.7617	80.3754	30.7617	80.2994	30.7617	80.4877	30.7617	80.4168	30.7617	80.586	30.7617	80.5227	30.7617	80.6673	30.7617	80.6139	30.7617	80.7296	30.7617	80.688	30.7617	80.7721	30.7617	80.7436	30.7617	80.7946	30.7617	80.7801	30.7617	80.7972
32.2266	80.6285	32.2266	80.6449	32.2266	80.633	32.2266	80.6818	32.2266	80.6581	32.2266	80.7384	32.2266	80.7035	32.2266	80.8135	32.2266	80.768	32.2266	80.9055	32.2266	80.8504	32.2266	81.0119	32.2266	80.9486	32.2266	81.1299	32.2266	81.0599	32.2266	81.2557	32.2266	81.1811	32.2266	81.3854	32.2266	81.3083	32.2266	81.5144	32.2266	81.4373	32.2266	81.6381	32.2266	81.5635	32.2266	81.7519	32.2266	81.6825	32.2266	81.852	32.2266	81.7901	32.2266	81.9352	32.2266	81.8831	32.2266	81.9995	32.2266	81.9588	32.2266	82.0437	32.2266	82.0159	32.2266	82.0674	32.2266	82.0532	32.2266	82.0705
33.6914	81.8918	33.6914	81.9058	33.6914	81.8984	33.6914	81.9401	33.6914	81.9255	33.6914	81.9942	33.6914	81.9725	33.6914	82.0668	33.6914	82.0387	33.6914	82.1564	33.6914	82.1224	33.6914	82.2607	33.6914	82.2216	33.6914	82.3769	33.6914	82.3339	33.6914	82.5016	33.6914	82.4558	33.6914	82.6308	33.6914	82.5836	33.6914	82.7599	33.6914	82.7129	33.6914	82.8845	33.6914	82.8393	33.6914	83	33.6914	82.9581	33.6914	83.1025	33.6914	83.0654	33.6914	83.1887	33.6914	83.1576	33.6914	83.2563	33.6914	83.2322	33.6914	83.304	33.6914	83.2876	33.6914	83.3311	33.6914	83.3228	33.6914	83.3373
35.1562	83.0646	35.1562	83.079	35.1562	83.0706	35.1562	83.1135	35.1562	83.0969	35.1562	83.1676	35.1562	83.143	35.1562	83.2402	35.1562	83.2079	35.1562	83.3296	35.1562	83.2903	35.1562	83.4339	35.1562	83.3884	35.1562	83.5501	35.1562	83.4995	35.1562	83.675	35.1562	83.6206	35.1562	83.8044	35.1562	83.748	35.1562	83.934	35.1562	83.8773	35.1562	84.0591	35.1562	84.004	35.1562	84.175	35.1562	84.1237	35.1562	84.2779	35.1562	84.2321	35.1562	84.3643	35.1562	84.3257	35.1562	84.4318	35.1562	84.4017	35.1562	84.4791	35.1562	84.4586	35.1562	84.5055	35.1562	84.4951	35.1562	84.5108
36.6211	84.1431	36.6211	84.1583	36.6211	84.1478	36.6211	84.1932	36.6211	84.1725	36.6211	84.2472	36.6211	84.2166	36.6211	84.3193	36.6211	84.2793	36.6211	84.408	36.6211	84.3594	36.6211	84.5111	36.6211	84.4551	36.6211	84.6261	36.6211	84.5639	36.6211	84.7495	36.6211	84.6829	36.6211	84.8775	36.6211	84.8084	36.6211	85.0056	36.6211	84.9363	36.6211	85.1294	36.6211	85.062	36.6211	85.2443	36.6211	85.1812	36.6211	85.3461	36.6211	85.2897	36.6211	85.4316	36.6211	85.3838	36.6211	85.4983	36.6211	85.4609	36.6211	85.5447	36.6211	85.519	36.6211	85.57	36.6211	85.5569	36.6211	85.574
38.0859	85.067	38.0859	85.0823	38.0859	85.0714	38.0859	85.1171	38.0859	85.0955	38.0859	85.1708	38.0859	85.1389	38.0859	85.2424	38.0859	85.2008	38.0859	85.3306	38.0859	85.2802	38.0859	85.4332	38.0859	85.3753	38.0859	85.5479	38.0859	85.4838	38.0859	85.6712	38.0859	85.6027	38.0859	85.7994	38.0859	85.7286	38.0859	85.9281	38.0859	85.8572	38.0859	86.0528	38.0859	85.9841	38.0859	86.1688	38.0859	86.1047	38.0859	86.2721	38.0859	86.2148	38.0859	86.3591	38.0859	86.3107	38.0859	86.4272	38.0859	86.3894	38.0859	86.4748	38.0859	86.4488	38.0859	86.5009	38.0859	86.4877	38.0859	86.5051
39.5508	85.7164	39.5508	85.7331	39.5508	85.719	39.5508	85.769	39.5508	85.7411	39.5508	85.8235	39.5508	85.7823	39.5508	85.8956	39.5508	85.842	39.5508	85.984	39.5508	85.9191	39.5508	86.0868	39.5508	86.0121	39.5508	86.2014	39.5508	86.1187	39.5508	86.3246	39.5508	86.2363	39.5508	86.4527	39.5508	86.3612	39.5508	86.5814	39.5508	86.4895	39.5508	86.706	39.5508	86.6167	39.5508	86.822	39.5508	86.7383	39.5508	86.9251	39.5508	86.8499	39.5508	87.0118	39.5508	86.9478	39.5508	87.0792	39.5508	87.0289	39.5508	87.1256	39.5508	87.091	39.5508	87.1501	39.5508	87.1324	39.5508	87.1523
41.0156	86.1314	41.0156	86.1483	41.0156	86.1339	41.0156	86.1842	41.0156	86.1556	41.0156	86.2386	41.0156	86.1962	41.0156	86.3107	41.0156	86.2552	41.0156	86.3991	41.0156	86.3315	41.0156	86.502	41.0156	86.4237	41.0156	86.617	41.0156	86.5297	41.0156	86.7408	41.0156	86.6467	41.0156	86.8696	41.0156	86.7714	41.0156	86.9993	41.0156	86.8999	41.0156	87.125	41.0156	87.0276	41.0156	87.2421	41.0156	87.1501	41.0156	87.3463	41.0156	87.2629	41.0156	87.4337	41.0156	87.3623	41.0156	87.5015	41.0156	87.445	41.0156	87.5479	41.0156	87.5087	41.0156	87.5718	41.0156	87.5517	41.0156	87.573
42.4805	86.2783	42.4805	86.2984	42.4805	86.2773	42.4805	86.3372	42.4805	86.2954	42.4805	86.3943	42.4805	86.3325	42.4805	86.4687	42.4805	86.3882	42.4805	86.5592	42.4805	86.4615	42.4805	86.6639	42.4805	86.5512	42.4805	86.7804	42.4805	86.6555	42.4805	86.9056	42.4805	86.7717	42.4805	87.0359	42.4805	86.8966	42.4805	87.1667	42.4805	87.0263	42.4805	87.2936	42.4805	87.1565	42.4805	87.4117	42.4805	87.2827	42.4805	87.5166	42.4805	87.4002	42.4805	87.6045	42.4805	87.5051	42.4805	87.6721	42.4805	87.5937	42.4805	87.7174	42.4805	87.6632	42.4805	87.7392	42.4805	87.7115	42.4805	87.7372
43.9453	86.2714	43.9453	86.2945	43.9453	86.2673	43.9453	86.336	43.9453	86.2821	43.9453	86.3953	43.9453	86.3159	43.9453	86.4716	43.9453	86.3683	43.9453	86.5637	43.9453	86.4388	43.9453	86.6696	43.9453	86.5261	43.9453	86.7872	43.9453	86.6286	43.9453	86.9132	43.9453	86.7437	43.9453	87.044	43.9453	86.8683	43.9453	87.1754	43.9453	86.9986	43.9453	87.3026	43.9453	87.1302	43.9453	87.4208	43.9453	87.2586	43.9453	87.5256	43.9453	87.3791	43.9453	87.6127	43.9453	87.4874	43.9453	87.6791	43.9453	87.58	43.9453	87.7224	43.9453	87.6538	43.9453	87.7415	43.9453	87.7063	43.9453	87.736
45.4102	86.1975	45.4102	86.2199	45.4102	86.1935	45.4102	86.2605	45.4102	86.2083	45.4102	86.3187	45.4102	86.2417	45.4102	86.3937	45.4102	86.2937	45.4102	86.4844	45.4102	86.3635	45.4102	86.589	45.4102	86.4502	45.4102	86.7054	45.4102	86.5521	45.4102	86.8305	45.4102	86.6668	45.4102	86.9608	45.4102	86.7913	45.4102	87.0921	45.4102	86.9216	45.4102	87.2196	45.4102	87.0535	45.4102	87.3386	45.4102	87.1823	45.4102	87.4444	45.4102	87.3033	45.4102	87.5329	45.4102	87.4122	45.4102	87.6006	45.4102	87.5052	45.4102	87.6452	45.4102	87.5791	45.4102	87.6654	45.4102	87.6316	45.4102	87.6607
46.875	86.1046	46.875	86.1265	46.875	86.101	46.875	86.1662	46.875	86.1157	46.875	86.2233	46.875	86.1488	46.875	86.297	46.875	86.2002	46.875	86.3862	46.875	86.2693	46.875	86.4894	46.875	86.3551	46.875	86.6044	46.875	86.4561	46.875	86.7282	46.875	86.5699	46.875	86.8574	46.875	86.6936	46.875	86.9878	46.875	86.8233	46.875	87.1147	46.875	86.9548	46.875	87.2333	46.875	87.0833	46.875	87.3391	46.875	87.2041	46.875	87.428	46.875	87.3129	46.875	87.4964	46.875	87.4057	46.875	87.542	46.875	87.4793	46.875	87.5632	46.875	87.5311	46.875	87.5594
48.3398	85.9849	48.3398	86.0053	48.3398	85.9821	48.3398	86.0431	48.3398	85.9972	48.3398	86.0978	48.3398	86.0301	48.3398	86.1689	48.3398	86.0809	48.3398	86.2553	48.3398	86.149	48.3398	86.3557	48.3398	86.2337	48.3398	86.468	48.3398	86.3334	48.3398	86.5896	48.3398	86.446	48.3398	86.717	48.3398	86.5686	48.3398	86.8464	48.3398	86.6975	48.3398	86.973	48.3398	86.8284	48.3398	87.0921	48.3398	86.9566	48.3398	87.1992	48.3398	87.0773	48.3398	87.2898	48.3398	87.1861	48.3398	87.3604	48.3398	87.2787	48.3398	87.4082	48.3398	87.3518	48.3398	87.4316	48.3398	87.4028	48.3398	87.4297
51.2695	85.8194	51.2695	85.8375	51.2695	85.8183	51.2695	85.8724	51.2695	85.8344	51.2695	85.9238	51.2695	85.8677	51.2695	85.9913	51.2695	85.9182	51.2695	86.0742	51.2695	85.9858	51.2695	86.1715	51.2695	86.0696	51.2695	86.2814	51.2695	86.1686	51.2695	86.4014	51.2695	86.2805	51.2695	86.5284	51.2695	86.4028	51.2695	86.6584	51.2695	86.5317	51.2695	86.7867	51.2695	86.6631	51.2695	86.9087	51.2695	86.7921	51.2695	87.0192	51.2695	86.9138	51.2695	87.1137	51.2695	87.0235	51.2695	87.1883	51.2695	87.1169	51.2695	87.2399	51.2695	87.1904	51.2695	87.2663	51.2695	87.2409	51.2695	87.2666
52.7344	85.7671	52.7344	85.7873	52.7344	85.7643	52.7344	85.8245	52.7344	85.7789	52.7344	85.8785	52.7344	85.8113	52.7344	85.9488	52.7344	85.8615	52.7344	86.0347	52.7344	85.9294	52.7344	86.1352	52.7344	86.0144	52.7344	86.2484	52.7344	86.1153	52.7344	86.372	52.7344	86.2301	52.7344	86.5028	52.7344	86.3561	52.7344	86.6367	52.7344	86.4896	52.7344	86.7692	52.7344	86.6261	52.7344	86.8952	52.7344	86.7608	52.7344	87.0097	52.7344	86.8885	52.7344	87.1077	52.7344	87.0042	52.7344	87.1849	52.7344	87.1032	52.7344	87.2381	52.7344	87.1815	52.7344	87.2648	52.7344	87.2358	52.7344	87.264
54.1992	85.7474	54.1992	85.7663	54.1992	85.7454	54.1992	85.8019	54.1992	85.7606	54.1992	85.8539	54.1992	85.7931	54.1992	85.9221	54.1992	85.8432	54.1992	86.0056	54.1992	85.9107	54.1992	86.1037	54.1992	85.9949	54.1992	86.2146	54.1992	86.0948	54.1992	86.3361	54.1992	86.2085	54.1992	86.465	54.1992	86.3332	54.1992	86.5976	54.1992	86.4653	54.1992	86.7294	54.1992	86.6005	54.1992	86.8552	54.1992	86.734	54.1992	86.97	54.1992	86.8605	54.1992	87.0688	54.1992	86.9751	54.1992	87.1473	54.1992	87.0731	54.1992	87.2019	54.1992	87.1503	54.1992	87.23	54.1992	87.2036	54.1992	87.2306
55.6641	85.7333	55.6641	85.7506	55.6641	85.7319	55.6641	85.7837	55.6641	85.7466	55.6641	85.8324	55.6641	85.7778	55.6641	85.8964	55.6641	85.8256	55.6641	85.9755	55.6641	85.8901	55.6641	86.0687	55.6641	85.9708	55.6641	86.1748	55.6641	86.067	55.6641	86.2917	55.6641	86.1768	55.6641	86.4166	55.6641	86.2978	55.6641	86.5457	55.6641	86.4264	55.6641	86.6747	55.6641	86.5586	55.6641	86.7986	55.6641	86.6894	55.6641	86.9122	55.6641	86.8138	55.6641	87.0107	55.6641	86.9266	55.6641	87.0895	55.6641	87.023	55.6641	87.1448	55.6641	87.0989	55.6641	87.1742	55.6641	87.1507	55.6641	87.1762
58.5938	85.7181	58.5938	85.7298	58.5938	85.7211	58.5938	85.7561	58.5938	85.7388	58.5938	85.797	58.5938	85.7717	58.5938	85.8528	58.5938	85.82	58.5938	85.9235	58.5938	85.8839	58.5938	86.0085	58.5938	85.9633	58.5938	86.1071	58.5938	86.0573	58.5938	86.2177	58.5938	86.1645	58.5938	86.3375	58.5938	86.2826	58.5938	86.4634	58.5938	86.4081	58.5938	86.5909	58.5938	86.537	58.5938	86.7152	58.5938	86.6644	58.5938	86.8311	58.5938	86.7851	58.5938	86.9334	58.5938	86.894	58.5938	87.0172	58.5938	86.9859	58.5938	87.0785	58.5938	87.0567	58.5938	87.1142	58.5938	87.103	58.5938	87.1225
60.0586	85.7218	60.0586	85.7319	60.0586	85.7262	60.0586	85.7566	60.0586	85.7452	60.0586	85.796	60.0586	85.7793	60.0586	85.8504	60.0586	85.8287	60.0586	85.9199	60.0586	85.8938	60.0586	86.0044	60.0586	85.9745	60.0586	86.1031	60.0586	86.0701	60.0586	86.2144	60.0586	86.1792	60.0586	86.336	60.0586	86.2995	60.0586	86.4645	60.0586	86.4277	60.0586	86.5955	60.0586	86.5594	60.0586	86.7239	60.0586	86.6898	60.0586	86.8445	60.0586	86.8134	60.0586	86.9516	60.0586	86.9248	60.0586	87.0401	60.0586	87.0187	60.0586	87.1055	60.0586	87.0907	60.0586	87.1446	60.0586	87.137	60.0586	87.1553
62.9883	85.7974	62.9883	85.8065	62.9883	85.8026	62.9883	85.8301	62.9883	85.8224	62.9883	85.8687	62.9883	85.8571	62.9883	85.9224	62.9883	85.9071	62.9883	85.9918	62.9883	85.9728	62.9883	86.0768	62.9883	86.0544	62.9883	86.1768	62.9883	86.1513	62.9883	86.2904	62.9883	86.2622	62.9883	86.4153	62.9883	86.3851	62.9883	86.5481	62.9883	86.5167	62.9883	86.6844	62.9883	86.6527	62.9883	86.8189	62.9883	86.7881	62.9883	86.9457	62.9883	86.9171	62.9883	87.0591	62.9883	87.034	62.9883	87.1532	62.9883	87.1329	62.9883	87.2232	62.9883	87.2089	62.9883	87.2653	62.9883	87.2579	62.9883	87.277
64.4531	85.8043	64.4531	85.8122	64.4531	85.8106	64.4531	85.8343	64.4531	85.831	64.4531	85.8711	64.4531	85.866	64.4531	85.9231	64.4531	85.9161	64.4531	85.9907	64.4531	85.9817	64.4531	86.0741	64.4531	86.0629	64.4531	86.1727	64.4531	86.1594	64.4531	86.2855	64.4531	86.2701	64.4531	86.4101	64.4531	86.3928	64.4531	86.5432	64.4531	86.5244	64.4531	86.6804	64.4531	86.6607	64.4531	86.8164	64.4531	86.7967	64.4531	86.9454	64.4531	86.9265	64.4531	87.0612	64.4531	87.0442	64.4531	87.1579	64.4531	87.1439	64.4531	87.2303	64.4531	87.2204	64.4531	87.2744	64.4531	87.2692	64.4531	87.2876
67.3828	85.9057	67.3828	85.9106	67.3828	85.9136	67.3828	85.9288	67.3828	85.9347	67.3828	85.9608	67.3828	85.9692	67.3828	86.0072	67.3828	86.0177	67.3828	86.069	67.3828	86.0809	67.3828	86.1465	67.3828	86.1591	67.3828	86.2398	67.3828	86.2523	67.3828	86.3478	67.3828	86.3595	67.3828	86.4687	67.3828	86.479	67.3828	86.5995	67.3828	86.6079	67.3828	86.736	67.3828	86.7422	67.3828	86.8727	67.3828	86.8768	67.3828	87.0039	67.3828	87.0059	67.3828	87.1228	67.3828	87.1233	67.3828	87.2234	67.3828	87.2229	67.3828	87.2997	67.3828	87.299	67.3828	87.3473	67.3828	87.3468	67.3828	87.3633
68.8477	85.9768	68.8477	85.9792	68.8477	85.9865	68.8477	85.994	68.8477	86.0083	68.8477	86.022	68.8477	86.0427	68.8477	86.0641	68.8477	86.0903	68.8477	86.1211	68.8477	86.1518	68.8477	86.1938	68.8477	86.2277	68.8477	86.2823	68.8477	86.318	68.8477	86.386	68.8477	86.4221	68.8477	86.5033	68.8477	86.5384	68.8477	86.6312	68.8477	86.6641	68.8477	86.7656	68.8477	86.7953	68.8477	86.9013	68.8477	86.9271	68.8477	87.0323	68.8477	87.0537	68.8477	87.1521	68.8477	87.1689	68.8477	87.2541	68.8477	87.2664	68.8477	87.3324	68.8477	87.3404	68.8477	87.3822	68.8477	87.3861	68.8477	87.4004
71.7773	86.0772	71.7773	86.0781	71.7773	86.0867	71.7773	86.09	71.7773	86.1067	71.7773	86.1137	71.7773	86.1377	71.7773	86.1504	71.7773	86.1805	71.7773	86.2012	71.7773	86.236	71.7773	86.2672	71.7773	86.3051	71.7773	86.3489	71.7773	86.3883	71.7773	86.446	71.7773	86.4852	71.7773	86.5571	71.7773	86.5948	71.7773	86.6796	71.7773	86.7145	71.7773	86.8096	71.7773	86.8409	71.7773	86.942	71.7773	86.9691	71.7773	87.0707	71.7773	87.0933	71.7773	87.189	71.7773	87.207	71.7773	87.2904	71.7773	87.3038	71.7773	87.3687	71.7773	87.3774	71.7773	87.4186	71.7773	87.423	71.7773	87.4371
74.707	86.1849	74.707	86.1921	74.707	86.187	74.707	86.2089	74.707	86.1985	74.707	86.2362	74.707	86.2201	74.707	86.2753	74.707	86.253	74.707	86.3274	74.707	86.2983	74.707	86.3937	74.707	86.3576	74.707	86.4749	74.707	86.4317	74.707	86.5708	74.707	86.521	74.707	86.6802	74.707	86.6248	74.707	86.8004	74.707	86.7411	74.707	86.9277	74.707	86.8668	74.707	87.0569	74.707	86.997	74.707	87.1818	74.707	87.1258	74.707	87.2956	74.707	87.2466	74.707	87.3916	74.707	87.3521	74.707	87.4632	74.707	87.4355	74.707	87.5054	74.707	87.4911	74.707	87.515
77.6367	86.238	77.6367	86.2487	77.6367	86.2355	77.6367	86.2677	77.6367	86.2412	77.6367	86.2961	77.6367	86.2562	77.6367	86.3351	77.6367	86.2818	77.6367	86.3862	77.6367	86.3197	77.6367	86.4508	77.6367	86.3717	77.6367	86.5298	77.6367	86.4391	77.6367	86.6233	77.6367	86.5228	77.6367	86.7303	77.6367	86.6225	77.6367	86.8486	77.6367	86.7367	77.6367	86.9744	77.6367	86.8623	77.6367	87.1025	77.6367	86.9946	77.6367	87.2267	77.6367	87.1275	77.6367	87.3399	77.6367	87.2539	77.6367	87.4347	77.6367	87.3661	77.6367	87.5043	77.6367	87.4565	77.6367	87.5434	77.6367	87.5189	77.6367	87.5485
79.1016	86.3061	79.1016	86.3174	79.1016	86.3021	79.1016	86.3364	79.1016	86.3058	79.1016	86.364	79.1016	86.3181	79.1016	86.4015	79.1016	86.3405	79.1016	86.4506	79.1016	86.375	79.1016	86.5127	79.1016	86.4233	79.1016	86.589	79.1016	86.4872	79.1016	86.6797	79.1016	86.5676	79.1016	86.7841	79.1016	86.6645	79.1016	86.9001	79.1016	86.7765	79.1016	87.0241	79.1016	86.9008	79.1016	87.151	79.1016	87.0325	79.1016	87.2744	79.1016	87.1658	79.1016	87.3871	79.1016	87.2932	79.1016	87.4817	79.1016	87.4068	79.1016	87.551	79.1016	87.4989	79.1016	87.5895	79.1016	87.5628	79.1016	87.5937
82.0312	86.4082	82.0312	86.4201	82.0312	86.4022	82.0312	86.4384	82.0312	86.4025	82.0312	86.4639	82.0312	86.4103	82.0312	86.4982	82.0312	86.4272	82.0312	86.543	82.0312	86.4553	82.0312	86.6001	82.0312	86.4968	82.0312	86.6709	82.0312	86.5538	82.0312	86.7562	82.0312	86.6276	82.0312	86.8555	82.0312	86.7186	82.0312	86.967	82.0312	86.8258	82.0312	87.0873	82.0312	86.9466	82.0312	87.2116	82.0312	87.0765	82.0312	87.3333	82.0312	87.2094	82.0312	87.445	82.0312	87.3378	82.0312	87.5389	82.0312	87.4534	82.0312	87.6076	82.0312	87.548	82.0312	87.6451	82.0312	87.6145	82.0312	87.6476
84.9609	86.5124	84.9609	86.5235	84.9609	86.5054	84.9609	86.5392	84.9609	86.503	84.9609	86.5605	84.9609	86.5066	84.9609	86.5892	84.9609	86.5178	84.9609	86.6273	84.9609	86.5393	84.9609	86.6771	84.9609	86.5735	84.9609	86.7404	84.9609	86.6229	84.9609	86.8184	84.9609	86.6893	84.9609	86.9112	84.9609	86.7736	84.9609	87.0173	84.9609	86.875	84.9609	87.1336	84.9609	86.9912	84.9609	87.2552	84.9609	87.1179	84.9609	87.3755	84.9609	87.2489	84.9609	87.4868	84.9609	87.3766	84.9609	87.5807	84.9609	87.4925	84.9609	87.6496	84.9609	87.5879	84.9609	87.6871	84.9609	87.6553	84.9609	87.6892
87.8906	86.5046	87.8906	86.5185	87.8906	86.4954	87.8906	86.5374	87.8906	86.4912	87.8906	86.5622	87.8906	86.4935	87.8906	86.5947	87.8906	86.5042	87.8906	86.6368	87.8906	86.5257	87.8906	86.6908	87.8906	86.5608	87.8906	86.7585	87.8906	86.6122	87.8906	86.8411	87.8906	86.6818	87.8906	86.9388	87.8906	86.7706	87.8906	87.05	87.8906	86.878	87.8906	87.1718	87.8906	87.0015	87.8906	87.2992	87.8906	87.1367	87.8906	87.4253	87.8906	87.2771	87.8906	87.5421	87.8906	87.4144	87.8906	87.6408	87.8906	87.5393	87.8906	87.7131	87.8906	87.6425	87.8906	87.752	87.8906	87.7158	87.8906	87.7532
90.8203	86.7152	90.8203	86.7218	90.8203	86.7091	90.8203	86.7294	90.8203	86.7043	90.8203	86.7391	90.8203	86.702	90.8203	86.7529	90.8203	86.7046	90.8203	86.7733	90.8203	86.7148	90.8203	86.8032	90.8203	86.7356	90.8203	86.8454	90.8203	86.7702	90.8203	86.9023	90.8203	86.8211	90.8203	86.9753	90.8203	86.8898	90.8203	87.0642	90.8203	86.9767	90.8203	87.167	90.8203	87.0799	90.8203	87.2795	90.8203	87.1956	90.8203	87.3952	90.8203	87.3178	90.8203	87.5062	90.8203	87.4386	90.8203	87.6033	90.8203	87.5489	90.8203	87.6775	90.8203	87.6393	90.8203	87.7213	90.8203	87.7016	90.8203	87.7297
95.2148	86.7016	95.2148	86.7058	95.2148	86.6964	95.2148	86.7093	95.2148	86.6904	95.2148	86.7135	95.2148	86.6851	95.2148	86.7208	95.2148	86.6829	95.2148	86.734	95.2148	86.6866	95.2148	86.7565	95.2148	86.6998	95.2148	86.7915	95.2148	86.7261	95.2148	86.842	95.2148	86.7688	95.2148	86.9099	95.2148	86.8302	95.2148	86.9955	95.2148	86.9115	95.2148	87.0969	95.2148	87.0112	95.2148	87.2102	95.2148	87.126	95.2148	87.3285	95.2148	87.2497	95.2148	87.4433	95.2148	87.3737	95.2148	87.5447	95.2148	87.4883	95.2148	87.6227	95.2148	87.5829	95.2148	87.6689	95.2148	87.6483	95.2148	87.6779
98.1445	86.7288	98.1445	86.7337	98.1445	86.7207	98.1445	86.7361	98.1445	86.7101	98.1445	86.7373	98.1445	86.6984	98.1445	86.7396	98.1445	86.688	98.1445	86.7462	98.1445	86.6823	98.1445	86.7605	98.1445	86.685	98.1445	86.7863	98.1445	86.7002	98.1445	86.8269	98.1445	86.7318	98.1445	86.8848	98.1445	86.7828	98.1445	86.9608	98.1445	86.8546	98.1445	87.0537	98.1445	86.9467	98.1445	87.1598	98.1445	87.0558	98.1445	87.2726	98.1445	87.1759	98.1445	87.3832	98.1445	87.2985	98.1445	87.4815	98.1445	87.4132	98.1445	87.5571	98.1445	87.5091	98.1445	87.6012	98.1445	87.5764	98.1445	87.6082
101.074	86.7751	101.074	86.7814	101.074	86.7637	101.074	86.7827	101.074	86.7477	101.074	86.7804	101.074	86.729	101.074	86.7767	101.074	86.7101	101.074	86.7746	101.074	86.6944	101.074	86.7779	101.074	86.6859	101.074	86.7906	101.074	86.6892	101.074	86.8169	101.074	86.7082	101.074	86.8598	101.074	86.7466	101.074	86.9212	101.074	86.8065	101.074	87.0008	101.074	86.8878	101.074	87.0956	101.074	86.9878	101.074	87.1995	101.074	87.1008	101.074	87.304	101.074	87.2184	101.074	87.3984	101.074	87.33	101.074	87.472	101.074	87.4241	101.074	87.5153	101.074	87.4907	101.074	87.5221
105.469	86.9085	105.469	86.9017	105.469	86.907	105.469	86.8873	105.469	86.8977	105.469	86.8668	105.469	86.8819	105.469	86.8429	105.469	86.862	105.469	86.8193	105.469	86.8412	105.469	86.8003	105.469	86.8235	105.469	86.7908	105.469	86.8133	105.469	86.7956	105.469	86.8155	105.469	86.8189	105.469	86.8341	105.469	86.8632	105.469	86.8723	105.469	86.929	105.469	86.9312	105.469	87.0136	105.469	87.0092	105.469	87.1112	105.469	87.1016	105.469	87.213	105.469	87.2003	105.469	87.308	105.469	87.2952	105.469	87.3852	105.469	87.3748	105.469	87.4346	105.469	87.4288	105.469	87.4498
108.398	86.9251	108.398	86.9241	108.398	86.9155	108.398	86.913	108.398	86.8957	108.398	86.8932	108.398	86.8672	108.398	86.8672	108.398	86.8324	108.398	86.8385	108.398	86.7949	108.398	86.8114	108.398	86.759	108.398	86.791	108.398	86.7298	108.398	86.7823	108.398	86.7129	108.398	86.7904	108.398	86.7136	108.398	86.8186	108.398	86.7362	108.398	86.8684	108.398	86.7828	108.398	86.9381	108.398	86.8527	108.398	87.0225	108.398	86.9414	108.398	87.1129	108.398	87.0405	108.398	87.1983	108.398	87.1391	108.398	87.2668	108.398	87.2249	108.398	87.3081	108.398	87.2864	108.398	87.3153
112.793	87.0313	112.793	87.0314	112.793	87.0155	112.793	87.0164	112.793	86.9846	112.793	86.9876	112.793	86.9401	112.793	86.9474	112.793	86.8845	112.793	86.8996	112.793	86.8215	112.793	86.8486	112.793	86.756	112.793	86.8002	112.793	86.694	112.793	86.7607	112.793	86.6422	112.793	86.7364	112.793	86.6076	112.793	86.7323	112.793	86.5962	112.793	86.7514	112.793	86.6121	112.793	86.7936	112.793	86.6562	112.793	86.8543	112.793	86.7251	112.793	86.9254	112.793	86.811	112.793	86.9953	112.793	86.9024	112.793	87.0518	112.793	86.9862	112.793	87.0836	112.793	87.0497	112.793	87.0836
117.188	87.0842	117.188	87.0694	117.188	87.0791	117.188	87.0353	117.188	87.0543	117.188	86.9837	117.188	87.0109	117.188	86.9174	117.188	86.9515	117.188	86.8404	117.188	86.8796	117.188	86.7581	117.188	86.8001	117.188	86.6768	117.188	86.7195	117.188	86.6041	117.188	86.6449	117.188	86.5477	117.188	86.5844	117.188	86.5144	117.188	86.545	117.188	86.509	117.188	86.5322	117.188	86.5327	117.188	86.5481	117.188	86.5819	117.188	86.5901	117.188	86.6485	117.188	86.6511	117.188	86.7207	117.188	86.7198	117.188	86.7849	117.188	86.7827	117.188	86.8287	117.188	86.8271	117.188	86.8437
120.117	87.163	120.117	87.142	120.117	87.1612	120.117	87.0988	120.117	87.1365	120.117	87.0351	120.117	87.0902	120.117	86.9537	120.117	87.0245	120.117	86.8588	120.117	86.9428	120.117	86.7557	120.117	86.8502	120.117	86.6516	120.117	86.7532	120.117	86.5544	120.117	86.6594	120.117	86.4731	120.117	86.5774	120.117	86.4158	120.117	86.5154	120.117	86.3887	120.117	86.4799	120.117	86.3941	120.117	86.474	120.117	86.4295	120.117	86.4961	120.117	86.487	120.117	86.5394	120.117	86.5546	120.117	86.593	120.117	86.6183	120.117	86.6433	120.117	86.6651	120.117	86.6774	120.117	86.6858
124.512	87.2121	124.512	87.1889	124.512	87.2082	124.512	87.1394	124.512	87.1777	124.512	87.065	124.512	87.1217	124.512	86.9684	124.512	87.0424	124.512	86.8538	124.512	86.9434	124.512	86.727	124.512	86.8299	124.512	86.5956	124.512	86.7086	124.512	86.469	124.512	86.5882	124.512	86.3575	124.512	86.478	124.512	86.271	124.512	86.3876	124.512	86.2172	124.512	86.325	124.512	86.1999	124.512	86.2948	124.512	86.2173	124.512	86.2964	124.512	86.2618	124.512	86.3237	124.512	86.3207	124.512	86.3657	124.512	86.3793	124.512	86.4082	124.512	86.4237	124.512	86.4378	124.512	86.4442
128.906	87.2216	128.906	87.2044	128.906	87.2082	128.906	87.157	128.906	87.1645	128.906	87.0806	128.906	87.092	128.906	86.9778	128.906	86.9927	128.906	86.8524	128.906	86.8706	128.906	86.7104	128.906	86.731	128.906	86.5596	128.906	86.5813	128.906	86.4098	128.906	86.4309	128.906	86.2721	128.906	86.2906	128.906	86.1578	128.906	86.1716	128.906	86.0759	128.906	86.0837	128.906	86.0318	128.906	86.0331	128.906	86.025	128.906	86.0204	128.906	86.0483	128.906	86.0397	128.906	86.0895	128.906	86.0795	128.906	86.1332	128.906	86.1246	128.906	86.1652	128.906	86.1603	128.906	86.1753
133.301	87.2693	133.301	87.2626	133.301	87.2402	133.301	87.2203	133.301	87.1756	133.301	87.1438	133.301	87.0768	133.301	87.035	133.301	86.9459	133.301	86.8979	133.301	86.7867	133.301	86.7378	133.301	86.6049	133.301	86.5627	133.301	86.4088	133.301	86.3825	133.301	86.2088	133.301	86.209	133.301	86.018	133.301	86.0543	133.301	85.8501	133.301	85.9293	133.301	85.7179	133.301	85.8408	133.301	85.6305	133.301	85.7902	133.301	85.591	133.301	85.7719	133.301	85.5948	133.301	85.7745	133.301	85.6302	133.301	85.7832	133.301	85.6813	133.301	85.7842	133.301	85.7314	133.301	85.7676
139.16	87.3288	139.16	87.3208	139.16	87.2945	139.16	87.271	139.16	87.2181	139.16	87.1803	139.16	87.1003	139.16	87.0508	139.16	86.943	139.16	86.8859	139.16	86.7494	139.16	86.691	139.16	86.5252	139.16	86.4741	139.16	86.2789	139.16	86.2457	139.16	86.0221	139.16	86.019	139.16	85.7695	139.16	85.8082	139.16	85.5379	139.16	85.6266	139.16	85.3438	139.16	85.4842	139.16	85.2002	139.16	85.3849	139.16	85.114	139.16	85.325	139.16	85.0828	139.16	85.2937	139.16	85.0957	139.16	85.2761	139.16	85.1358	139.16	85.2574	139.16	85.1846	139.16	85.2276
143.555	87.3198	143.555	87.2935	143.555	87.2995	143.555	87.2212	143.555	87.2327	143.555	87.1039	143.555	87.12	143.555	86.9437	143.555	86.9628	143.555	86.7442	143.555	86.764	143.555	86.5111	143.555	86.529	143.555	86.2532	143.555	86.2659	143.555	85.9821	143.555	85.9863	143.555	85.7129	143.555	85.7051	143.555	85.4618	143.555	85.4398	143.555	85.2449	143.555	85.2079	143.555	85.0747	143.555	85.0242	143.555	84.9569	143.555	84.8973	143.555	84.8887	143.555	84.8266	143.555	84.8591	143.555	84.8026	143.555	84.8519	143.555	84.8089	143.555	84.8506	143.555	84.8273	143.555	84.8434
147.949	87.3564	147.949	87.3254	147.949	87.3354	147.949	87.243	147.949	87.2623	147.949	87.1099	147.949	87.1376	147.949	86.928	147.949	86.9622	147.949	86.7006	147.949	86.7388	147.949	86.4333	147.949	86.4724	147.949	86.1348	147.949	86.171	147.949	85.8176	147.949	85.8467	147.949	85.4974	147.949	85.5154	147.949	85.1926	147.949	85.1963	147.949	84.9215	147.949	84.9095	147.949	84.6996	147.949	84.6727	147.949	84.5357	147.949	84.4974	147.949	84.4294	147.949	84.3857	147.949	84.3712	147.949	84.3292	147.949	84.3451	147.949	84.3122	147.949	84.334	147.949	84.316	147.949	84.3255
153.809	87.4375	153.809	87.4117	153.809	87.4034	153.809	87.326	153.809	87.309	153.809	87.1809	153.809	87.1546	153.809	86.9775	153.809	86.9408	153.809	86.7184	153.809	86.6698	153.809	86.4085	153.809	86.3464	153.809	86.0561	153.809	85.9787	153.809	85.6735	153.809	85.5793	153.809	85.2775	153.809	85.1658	153.809	84.8883	153.809	84.7603	153.809	84.5279	153.809	84.3867	153.809	84.2161	153.809	84.0678	153.809	83.9669	153.809	83.82	153.809	83.7847	153.809	83.6494	153.809	83.6634	153.809	83.5503	153.809	83.5889	153.809	83.5075	153.809	83.5441	153.809	83.5016	153.809	83.5163
159.668	87.6227	159.668	87.5845	159.668	87.5973	159.668	87.4828	159.668	87.5077	159.668	87.3177	159.668	87.3532	159.668	87.0897	159.668	87.1337	159.668	86.8006	159.668	86.8499	159.668	86.4542	159.668	86.5047	159.668	86.0577	159.668	86.1047	159.668	85.6224	159.668	85.6607	159.668	85.1646	159.668	85.1891	159.668	84.705	159.668	84.7117	159.668	84.2668	159.668	84.2539	159.668	83.8734	159.668	83.8418	159.668	83.5434	159.668	83.4975	159.668	83.287	159.668	83.234	159.668	83.1042	159.668	83.053	159.668	82.9854	159.668	82.9451	159.668	82.917	159.668	82.8948	159.668	82.8878
165.527	87.6699	165.527	87.6278	165.527	87.642	165.527	87.516	165.527	87.5436	165.527	87.3342	165.527	87.3737	165.527	87.0825	165.527	87.1314	165.527	86.7622	165.527	86.8169	165.527	86.3764	165.527	86.4323	165.527	85.9315	165.527	85.9831	165.527	85.4381	165.527	85.4792	165.527	84.9118	165.527	84.9362	165.527	84.3726	165.527	84.3755	165.527	83.8441	165.527	83.8233	165.527	83.3509	165.527	83.3078	165.527	82.9157	165.527	82.8556	165.527	82.5552	165.527	82.487	165.527	82.2777	165.527	82.2125	165.527	82.0828	165.527	82.0317	165.527	81.9643	165.527	81.9362	165.527	81.9158
171.387	87.8239	171.387	87.763	171.387	87.8074	171.387	87.6242	171.387	87.7133	171.387	87.4062	171.387	87.5404	171.387	87.1077	171.387	87.2875	171.387	86.7286	171.387	86.9536	171.387	86.2706	171.387	86.5395	171.387	85.7388	171.387	86.0485	171.387	85.1436	171.387	85.4884	171.387	84.5007	171.387	84.8722	171.387	83.8322	171.387	84.2188	171.387	83.1651	171.387	83.5528	171.387	82.5297	171.387	82.9026	171.387	81.9565	171.387	82.2981	171.387	81.4723	171.387	81.7668	171.387	81.097	171.387	81.3306	171.387	80.8412	171.387	81.0029	171.387	80.7067	171.387	80.7894	171.387	80.6904
177.246	87.815	177.246	87.7688	177.246	87.7779	177.246	87.6383	177.246	87.6577	177.246	87.4214	177.246	87.4533	177.246	87.1158	177.246	87.1634	177.246	86.7196	177.246	86.7868	177.246	86.2327	177.246	86.3238	177.246	85.6581	177.246	85.7774	177.246	85.003	177.246	85.1543	177.246	84.2804	177.246	84.466	177.246	83.5098	177.246	83.7293	177.246	82.717	177.246	82.9658	177.246	81.9335	177.246	82.2013	177.246	81.1951	177.246	81.4652	177.246	80.5392	177.246	80.7903	177.246	80.0015	177.246	80.211	177.246	79.6109	177.246	79.7602	177.246	79.3864	177.246	79.4636	177.246	79.3369
183.105	87.6665	183.105	87.6353	183.105	87.6071	183.105	87.5132	183.105	87.456	183.105	87.2989	183.105	87.2112	183.105	86.9906	183.105	86.8699	183.105	86.5869	183.105	86.43	183.105	86.0874	183.105	85.891	183.105	85.4948	183.105	85.2556	183.105	84.815	183.105	84.5315	183.105	84.0585	183.105	83.7324	183.105	83.2408	183.105	82.8781	183.105	82.3818	183.105	81.994	183.105	81.5066	183.105	81.1095	183.105	80.6453	183.105	80.2577	183.105	79.8345	183.105	79.4769	183.105	79.117	183.105	78.812	183.105	78.5387	183.105	78.3124	183.105	78.143	183.105	78.0213	183.105	77.9642
188.965	87.5932	188.965	87.5416	188.965	87.5446	188.965	87.3897	188.965	87.3942	188.965	87.1362	188.965	87.1387	188.965	86.7789	188.965	86.7736	188.965	86.316	188.965	86.2941	188.965	85.7473	188.965	85.6966	188.965	85.0753	188.965	84.9802	188.965	84.3068	188.965	84.1487	188.965	83.4525	188.965	83.2123	188.965	82.5273	188.965	82.1896	188.965	81.5489	188.965	81.1072	188.965	80.5368	188.965	80.0004	188.965	79.5143	188.965	78.9123	188.965	78.5134	188.965	77.8957	188.965	77.5822	188.965	77.0162	188.965	76.7876	188.965	76.3497	188.965	76.2097	188.965	75.9695	188.965	75.9222
196.289	87.479	196.289	87.4068	196.289	87.4454	196.289	87.2279	196.289	87.305	196.289	86.9392	196.289	87.0547	196.289	86.5368	196.289	86.6896	196.289	86.0165	196.289	86.204	196.289	85.3753	196.289	85.5926	196.289	84.6129	196.289	84.8518	196.289	83.7328	196.289	83.9809	196.289	82.743	196.289	82.9843	196.289	81.6557	196.289	81.8715	196.289	80.4865	196.289	80.6584	196.289	79.2533	196.289	79.3678	196.289	77.9789	196.289	78.0318	196.289	76.7004	196.289	76.699	196.289	75.4837	196.289	75.4467	196.289	74.4376	196.289	74.3906	196.289	73.7074	196.289	73.676	196.289	73.4322
203.613	87.5217	203.613	87.4362	203.613	87.4957	203.613	87.2366	203.613	87.3577	203.613	86.9182	203.613	87.1052	203.613	86.4746	203.613	86.7334	203.613	85.8985	203.613	86.2366	203.613	85.1832	203.613	85.6084	203.613	84.3241	203.613	84.844	203.613	83.3204	203.613	83.9403	203.613	82.1767	203.613	82.8978	203.613	80.9034	203.613	81.7202	203.613	79.5158	203.613	80.4146	203.613	78.0339	203.613	78.9907	203.613	76.4846	203.613	77.464	203.613	74.9131	203.613	75.8652	203.613	73.407	203.613	74.2622	203.613	72.1239	203.613	72.7888	203.613	71.2881	203.613	71.6582	203.613	71.1117
210.938	87.471	210.938	87.4034	210.938	87.4276	210.938	87.2231	210.938	87.272	210.938	86.9263	210.938	87.0012	210.938	86.5069	210.938	86.6102	210.938	85.9579	210.938	86.0934	210.938	85.2718	210.938	85.4453	210.938	84.4424	210.938	84.6616	210.938	83.4656	210.938	83.7405	210.938	82.341	210.938	82.6832	210.938	81.0714	210.938	81.4931	210.938	79.6634	210.938	80.1749	210.938	78.1275	210.938	78.733	210.938	76.4836	210.938	77.175	210.938	74.7754	210.938	75.5232	210.938	73.1003	210.938	73.8406	210.938	71.6434	210.938	72.2675	210.938	70.6764	210.938	71.0435	210.938	70.4542
218.262	87.3263	218.262	87.2709	218.262	87.2649	218.262	87.0968	218.262	87.0856	218.262	86.8001	218.262	86.7853	218.262	86.3745	218.262	86.3594	218.262	85.8128	218.262	85.8031	218.262	85.1081	218.262	85.113	218.262	84.2555	218.262	84.289	218.262	83.2539	218.262	83.3362	218.262	82.108	218.262	82.2659	218.262	80.8293	218.262	81.0953	218.262	79.4374	218.262	79.8443	218.262	77.9609	218.262	78.5319	218.262	76.4438	218.262	77.1763	218.262	74.9572	218.262	75.8051	218.262	73.615	218.262	74.4747	218.262	72.572	218.262	73.2887	218.262	71.9799	218.262	72.3905	218.262	71.9231
225.586	87.5015	225.586	87.4503	225.586	87.432	225.586	87.2781	225.586	87.2384	225.586	86.9818	225.586	86.9145	225.586	86.5556	225.586	86.4518	225.586	85.9921	225.586	85.84	225.586	85.2832	225.586	85.0697	225.586	84.4217	225.586	84.134	225.586	83.403	225.586	83.0323	225.586	82.2268	225.586	81.7756	225.586	80.8994	225.586	80.3917	225.586	79.438	225.586	78.9313	225.586	77.8795	225.586	77.469	225.586	76.2987	225.586	76.0974	225.586	74.8294	225.586	74.9099	225.586	73.6564	225.586	73.9753	225.586	72.9257	225.586	73.312	225.586	72.6334	225.586	72.8866	225.586	72.6554
232.91	87.4121	232.91	87.3387	232.91	87.3637	232.91	87.1437	232.91	87.19	232.91	86.8241	232.91	86.8839	232.91	86.3744	232.91	86.4353	232.91	85.788	232.91	85.8316	232.91	85.0577	232.91	85.0592	232.91	84.1778	232.91	84.1048	232.91	83.1455	232.91	82.9585	232.91	81.9618	232.91	81.6184	232.91	80.6339	232.91	80.0981	232.91	79.1787	232.91	78.4414	232.91	77.6344	232.91	76.7445	232.91	76.0843	232.91	75.1773	232.91	74.6862	232.91	73.9602	232.91	73.6481	232.91	73.2383	232.91	73.0868	232.91	72.9501	232.91	72.9026	232.91	72.8888	232.91	72.8818
241.699	87.3221	241.699	87.2256	241.699	87.2956	241.699	87.0044	241.699	87.1444	241.699	86.654	241.699	86.8637	241.699	86.1679	241.699	86.4455	241.699	85.5388	241.699	85.8794	241.699	84.7604	241.699	85.1535	241.699	83.8297	241.699	84.2552	241.699	82.7494	241.699	83.173	241.699	81.5314	241.699	81.8985	241.699	80.1998	241.699	80.4322	241.699	78.7965	241.699	78.7972	241.699	77.3919	241.699	77.0717	241.699	76.101	241.699	75.4423	241.699	75.0818	241.699	74.2198	241.699	74.4611	241.699	73.6536	241.699	74.2116	241.699	73.6512	241.699	74.1477	241.699	73.8769	241.699	74.0673
250.488	87.7633	250.488	87.6838	250.488	87.7114	250.488	87.47	250.488	87.5273	250.488	87.1158	250.488	87.2069	250.488	86.6118	250.488	86.7428	250.488	85.9471	250.488	86.1259	250.488	85.1099	250.488	85.346	250.488	84.0897	250.488	84.3934	250.488	82.881	250.488	83.2605	250.488	81.4893	250.488	81.9444	250.488	79.9444	250.488	80.4524	250.488	78.3223	250.488	78.8168	250.488	76.7764	250.488	77.1299	250.488	75.5414	250.488	75.6014	250.488	74.8299	250.488	74.556	250.488	74.645	250.488	74.202	250.488	74.7601	250.488	74.3698	250.488	74.9037	250.488	74.69	250.488	74.8979
259.277	87.4011	259.277	87.3237	259.277	87.3505	259.277	87.116	259.277	87.1709	259.277	86.7721	259.277	86.8576	259.277	86.2832	259.277	86.4038	259.277	85.6387	259.277	85.8011	259.277	84.8276	259.277	85.0415	259.277	83.8404	259.277	84.1197	259.277	82.6717	259.277	83.0357	259.277	81.326	259.277	81.7981	259.277	79.8295	259.277	80.4293	259.277	78.2561	259.277	78.9763	259.277	76.7677	259.277	77.5335	259.277	75.6259	259.277	76.2721	259.277	75.0603	259.277	75.4188	259.277	75.0377	259.277	75.1018	259.277	75.2801	259.277	75.1969	259.277	75.507	259.277	75.4269	259.277	75.564
268.066	87.5879	268.066	87.4863	268.066	87.5608	268.066	87.254	268.066	87.4025	268.066	86.8848	268.066	87.1058	268.066	86.3687	268.066	86.6598	268.066	85.6928	268.066	86.0502	268.066	84.8423	268.066	85.2615	268.066	83.8018	268.066	84.2802	268.066	82.5577	268.066	83.0992	268.066	81.1056	268.066	81.7268	268.066	79.4698	268.066	80.2034	268.066	77.7565	268.066	78.631	268.066	76.2443	268.066	77.2128	268.066	75.3749	268.066	76.2389	268.066	75.3642	268.066	75.907	268.066	75.8956	268.066	76.1112	268.066	76.5067	268.066	76.5383	268.066	76.9276	268.066	76.9092	268.066	77.0622
276.855	87.2965	276.855	87.2437	276.855	87.243	276.855	87.0808	276.855	87.0821	276.855	86.799	276.855	86.8074	276.855	86.3857	276.855	86.408	276.855	85.826	276.855	85.8695	276.855	85.1046	276.855	85.1748	276.855	84.207	276.855	84.306	276.855	83.1205	276.855	83.2479	276.855	81.8352	276.855	81.9941	276.855	80.3465	276.855	80.5598	276.855	78.6723	276.855	79.0087	276.855	76.9111	276.855	77.5026	276.855	75.3666	276.855	76.3361	276.855	74.5708	276.855	75.807	276.855	74.7626	276.855	75.9025	276.855	75.487	276.855	76.2763	276.855	76.1784	276.855	76.5657	276.855	76.558
287.109	87.2918	287.109	87.2281	287.109	87.2254	287.109	87.0364	287.109	87.0241	287.109	86.7172	287.109	86.6808	287.109	86.2693	287.109	86.1867	287.109	85.6911	287.109	85.5329	287.109	84.9814	287.109	84.7115	287.109	84.1396	287.109	83.7192	287.109	83.1673	287.109	82.5612	287.109	82.0722	287.109	81.2633	287.109	80.8781	287.109	79.8948	287.109	79.6474	287.109	78.6033	287.109	78.5107	287.109	77.6212	287.109	77.6674	287.109	77.1524	287.109	77.2842	287.109	77.1833	287.109	77.3384	287.109	77.4898	287.109	77.6252	287.109	77.8295	287.109	77.9204	287.109	78.0494	287.109	78.0814
297.363	87.4599	297.363	87.3623	297.363	87.4357	297.363	87.1446	297.363	87.2847	297.363	86.8053	297.363	86.9975	297.363	86.3407	297.363	86.5597	297.363	85.7458	297.363	85.9522	297.363	85.0146	297.363	85.151	297.363	84.1409	297.363	84.1276	297.363	83.1206	297.363	82.8521	297.363	81.9584	297.363	81.3029	297.363	80.6888	297.363	79.5024	297.363	79.421	297.363	77.629	297.363	78.3966	297.363	76.2243	297.363	77.9355	297.363	76.0141	297.363	78.1463	297.363	76.901	297.363	78.7649	297.363	78.1015	297.363	79.422	297.363	79.1074	297.363	79.8734	297.363	79.7505	297.363	80.0002
307.617	87.2863	307.617	87.1174	307.617	87.3362	307.617	86.824	307.617	87.271	307.617	86.3998	307.617	87.0916	307.617	85.8405	307.617	86.7956	307.617	85.1466	307.617	86.3756	307.617	84.3267	307.617	85.8175	307.617	83.3995	307.617	85.0964	307.617	82.3921	307.617	84.1733	307.617	81.3352	307.617	82.9922	307.617	80.2627	307.617	81.4837	307.617	79.2348	307.617	79.5917	307.617	78.3873	307.617	77.3988	307.617	77.9398	307.617	75.5248	307.617	78.0346	307.617	75.2278	307.617	78.5309	307.617	76.4502	307.617	79.1001	307.617	77.8923	307.617	79.4573	307.617	78.9217	307.617	79.43
319.336	87.2982	319.336	87.2034	319.336	87.2626	319.336	86.9727	319.336	87.0998	319.336	86.5987	319.336	86.8121	319.336	86.0722	319.336	86.4023	319.336	85.3845	319.336	85.8757	319.336	84.5299	319.336	85.24	319.336	83.509	319.336	84.5034	319.336	82.3338	319.336	83.6695	319.336	81.0377	319.336	82.7314	319.336	79.6974	319.336	81.6731	319.336	78.4744	319.336	80.4942	319.336	77.6401	319.336	79.2752	319.336	77.4532	319.336	78.2742	319.336	77.8892	319.336	77.8805	319.336	78.6249	319.336	78.2089	319.336	79.3164	319.336	78.897	319.336	79.7488	319.336	79.5124	319.336	79.8208
329.59	87.5853	329.59	87.5106	329.59	87.5364	329.59	87.3074	329.59	87.3662	329.59	86.9679	329.59	87.076	329.59	86.4816	329.59	86.6674	329.59	85.837	329.59	86.1437	329.59	85.023	329.59	85.5089	329.59	84.0314	329.59	84.7651	329.59	82.8612	329.59	83.9064	329.59	81.5306	329.59	82.9158	329.59	80.1102	329.59	81.7715	329.59	78.7926	329.59	80.4809	329.59	77.9458	329.59	79.1699	329.59	77.9074	329.59	78.2068	329.59	78.5688	329.59	78.0657	329.59	79.4772	329.59	78.728	329.59	80.2573	329.59	79.6571	329.59	80.7162	329.59	80.4028	329.59	80.7718
341.309	87.5526	341.309	87.5313	341.309	87.4279	341.309	87.3634	341.309	87.1574	341.309	87.0473	341.309	86.7441	341.309	86.5807	341.309	86.1979	341.309	85.9616	341.309	85.5417	341.309	85.188	341.309	84.8136	341.309	84.2557	341.309	84.0598	341.309	83.154	341.309	83.3133	341.309	81.8621	341.309	82.5687	341.309	80.3662	341.309	81.7806	341.309	78.7421	341.309	80.9028	341.309	77.3599	341.309	79.9657	341.309	76.9446	341.309	79.165	341.309	77.7103	341.309	78.8361	341.309	78.933	341.309	79.1327	341.309	79.9658	341.309	79.7878	341.309	80.568	341.309	80.3976	341.309	80.6984
353.027	87.5093	353.027	87.4189	353.027	87.4696	353.027	87.1986	353.027	87.2944	353.027	86.8467	353.027	86.9726	353.027	86.3636	353.027	86.4891	353.027	85.7564	353.027	85.83	353.027	85.0402	353.027	84.9897	353.027	84.2332	353.027	83.9809	353.027	83.3462	353.027	82.8425	353.027	82.3709	353.027	81.6398	353.027	81.2845	353.027	80.4563	353.027	80.0894	353.027	79.3981	353.027	78.9071	353.027	78.6294	353.027	78.0852	353.027	78.3669	353.027	78.0357	353.027	78.6909	353.027	78.7039	353.027	79.3788	353.027	79.5928	353.027	80.0791	353.027	80.2912	353.027	80.5352	353.027	80.619
366.211	88.1412	366.211	88.0148	366.211	88.1204	366.211	87.7389	366.211	87.9513	366.211	87.3072	366.211	87.6315	366.211	86.7111	366.211	87.1588	366.211	85.9423	366.211	86.5338	366.211	84.9983	366.211	85.7616	366.211	83.8882	366.211	84.8515	366.211	82.6372	366.211	83.8143	366.211	81.2887	366.211	82.6563	366.211	79.9187	366.211	81.3786	366.211	78.6939	366.211	80.0023	366.211	77.9564	366.211	78.662	366.211	78.0643	366.211	77.7562	366.211	78.9105	366.211	77.7967	366.211	79.9774	366.211	78.7098	366.211	80.8412	366.211	79.8684	366.211	81.3018	366.211	80.7932	366.211	81.2888
379.395	87.7267	379.395	87.7087	379.395	87.6235	379.395	87.5631	379.395	87.4043	379.395	87.2823	379.395	87.0743	379.395	86.8569	379.395	86.6405	379.395	86.2761	379.395	86.1136	379.395	85.5262	379.395	85.5072	379.395	84.5885	379.395	84.833	379.395	83.4355	379.395	84.0901	379.395	82.0327	379.395	83.2568	379.395	80.3644	379.395	82.2994	379.395	78.5422	379.395	81.2169	379.395	77.0831	379.395	80.137	379.395	76.9016	379.395	79.4085	379.395	78.0267	379.395	79.4114	379.395	79.4951	379.395	80.0593	379.395	80.6874	379.395	80.8739	379.395	81.4227	379.395	81.472	379.395	81.677
392.578	87.6892	392.578	87.6541	392.578	87.5743	392.578	87.4754	392.578	87.3049	392.578	87.1611	392.578	86.8813	392.578	86.7228	392.578	86.3142	392.578	86.1772	392.578	85.631	392.578	85.5441	392.578	84.8796	392.578	84.8351	392.578	84.1193	392.578	84.0336	392.578	83.3906	392.578	83.076	392.578	82.6805	392.578	81.8568	392.578	81.9204	392.578	80.2848	392.578	81.0474	392.578	78.4844	392.578	80.1277	392.578	77.2745	392.578	79.495	392.578	77.7932	392.578	79.6043	392.578	79.4236	392.578	80.4212	392.578	80.9465	392.578	81.4026	392.578	81.924	392.578	82.0966	392.578	82.2971
405.762	87.8155	405.762	87.7364	405.762	87.7313	405.762	87.4965	405.762	87.4755	405.762	87.096	405.762	87.0343	405.762	86.5393	405.762	86.3934	405.762	85.8436	405.762	85.55	405.762	85.0445	405.762	84.5308	405.762	84.1929	405.762	83.4136	405.762	83.3324	405.762	82.3288	405.762	82.4597	405.762	81.4022	405.762	81.5022	405.762	80.6627	405.762	80.3563	405.762	80.0454	405.762	79.0265	405.762	79.5375	405.762	77.9075	405.762	79.3059	405.762	77.8336	405.762	79.5743	405.762	78.9252	405.762	80.2857	405.762	80.2881	405.762	81.0863	405.762	81.2848	405.762	81.6345	405.762	81.7317
420.41	88.0274	420.41	87.938	420.41	87.9944	420.41	87.7246	420.41	87.8364	420.41	87.3824	420.41	87.5486	420.41	86.9084	420.41	87.1287	420.41	86.3074	420.41	86.5805	420.41	85.598	420.41	85.9137	420.41	84.8109	420.41	85.135	420.41	83.9739	420.41	84.2294	420.41	83.0885	420.41	83.1422	420.41	82.1221	420.41	81.7816	420.41	81.0534	420.41	80.0776	420.41	79.9958	420.41	78.205	420.41	79.3424	420.41	77.0866	420.41	79.5436	420.41	77.7888	420.41	80.451	420.41	79.4904	420.41	81.4651	420.41	81.0142	420.41	82.1591	420.41	81.983	420.41	82.3546
435.059	87.9325	435.059	87.8394	435.059	87.8696	435.059	87.5937	435.059	87.6388	435.059	87.1918	435.059	87.2224	435.059	86.6287	435.059	86.604	435.059	85.9061	435.059	85.784	435.059	85.039	435.059	84.8025	435.059	84.0535	435.059	83.765	435.059	82.9696	435.059	82.832	435.059	81.7797	435.059	82.12	435.059	80.4624	435.059	81.5796	435.059	79.0886	435.059	81.0392	435.059	78.0437	435.059	80.4042	435.059	77.9985	435.059	79.8423	435.059	79.0212	435.059	79.7683	435.059	80.3872	435.059	80.3708	435.059	81.5204	435.059	81.2838	435.059	82.2003	435.059	82.0344	435.059	82.3688
451.172	88.8061	451.172	88.7002	451.172	88.7491	451.172	88.4334	451.172	88.528	451.172	88.0138	451.172	88.1432	451.172	87.4644	451.172	87.6009	451.172	86.8336	451.172	86.9207	451.172	86.1931	451.172	86.1404	451.172	85.6016	451.172	85.3054	451.172	85.0375	451.172	84.4312	451.172	84.3557	451.172	83.455	451.172	83.3135	451.172	82.2313	451.172	81.6252	451.172	80.6201	451.172	79.0789	451.172	78.7935	451.172	76.4565	451.172	77.9368	451.172	77.1713	451.172	79.2162	451.172	80.1279	451.172	81.3215	451.172	82.4449	451.172	83.0163	451.172	83.7864	451.172	84.0118	451.172	84.2787
465.82	88.5869	465.82	88.5024	465.82	88.524	465.82	88.2635	465.82	88.3102	465.82	87.8546	465.82	87.9339	465.82	87.2618	465.82	87.386	465.82	86.4952	465.82	86.6771	465.82	85.6245	465.82	85.8621	465.82	84.803	465.82	85.0499	465.82	84.2007	465.82	84.348	465.82	83.8253	465.82	83.734	465.82	83.4474	465.82	82.9899	465.82	82.7555	465.82	81.7924	465.82	81.5262	465.82	79.8648	465.82	79.7972	465.82	77.3953	465.82	78.3661	465.82	76.4395	465.82	78.6848	465.82	78.374	465.82	80.2509	465.82	80.5572	465.82	81.5913	465.82	81.8385	465.82	82.161
483.398	88.6589	483.398	88.5091	483.398	88.6293	483.398	88.1826	483.398	88.4054	483.398	87.6778	483.398	87.9601	483.398	87.0051	483.398	87.2637	483.398	86.2097	483.398	86.3109	483.398	85.3912	483.398	85.1754	483.398	84.6814	483.398	84.084	483.398	84.1401	483.398	83.3735	483.398	83.6393	483.398	83.1518	483.398	82.884	483.398	83.0876	483.398	81.5309	483.398	82.7342	483.398	79.324	483.398	81.8237	483.398	76.7565	483.398	80.3853	483.398	76.6963	483.398	79.0706	483.398	79.1677	483.398	79.1252	483.398	81.2327	483.398	80.4294	483.398	82.2839	483.398	81.7309	483.398	82.4104
499.512	88.7886	499.512	88.639	499.512	88.7802	499.512	88.3167	499.512	88.6027	499.512	87.7842	499.512	88.2218	499.512	86.9937	499.512	87.5865	499.512	85.9137	499.512	86.6387	499.512	84.5878	499.512	85.3354	499.512	83.246	499.512	83.7128	499.512	82.3499	499.512	82.0336	499.512	82.1877	499.512	80.8611	499.512	82.4025	499.512	80.4784	499.512	82.3958	499.512	80.3409	499.512	81.7675	499.512	79.7885	499.512	80.3138	499.512	78.6394	499.512	78.1194	499.512	77.4719	499.512	76.3854	499.512	77.5243	499.512	77.0464	499.512	78.6694	499.512	78.7062	499.512	79.6027	499.512	79.6646
517.09	88.0785	517.09	87.9928	517.09	88.057	517.09	87.7879	517.09	87.9158	517.09	87.4282	517.09	87.6228	517.09	86.8622	517.09	87.1362	517.09	86.0389	517.09	86.4216	517.09	84.9392	517.09	85.4755	517.09	83.6334	517.09	84.3543	517.09	82.3556	517.09	83.188	517.09	81.4543	517.09	82.1304	517.09	81.0584	517.09	81.2446	517.09	80.9128	517.09	80.4807	517.09	80.7489	517.09	79.851	517.09	80.5923	517.09	79.5885	517.09	80.6979	517.09	79.9443	517.09	81.1968	517.09	80.7766	517.09	81.8745	517.09	81.6726	517.09	82.402	517.09	82.3191	517.09	82.5728
536.133	88.1388	536.133	88.055	536.133	88.1128	536.133	87.8446	536.133	87.9689	536.133	87.4665	536.133	87.6736	536.133	86.8614	536.133	87.1709	536.133	85.9654	536.133	86.3889	536.133	84.7437	536.133	85.2584	536.133	83.2602	536.133	83.7571	536.133	81.7666	536.133	82.0171	536.133	80.6157	536.133	80.4709	536.133	79.8322	536.133	79.6221	536.133	79.032	536.133	79.3024	536.133	78.0352	536.133	78.8858	536.133	77.4681	536.133	78.1874	536.133	78.2791	536.133	77.8821	536.133	79.9529	536.133	78.8159	536.133	81.4257	536.133	80.4258	536.133	82.2656	536.133	81.7388	536.133	82.3749
555.176	87.8119	555.176	87.7786	555.176	87.761	555.176	87.6477	555.176	87.6304	555.176	87.3979	555.176	87.4075	555.176	86.996	555.176	87.0574	555.176	86.3929	555.176	86.523	555.176	85.5292	555.176	85.7367	555.176	84.3615	555.176	84.6457	555.176	82.9218	555.176	83.2588	555.176	81.413	555.176	81.702	555.176	80.1972	555.176	80.1789	555.176	79.4036	555.176	78.7214	555.176	78.6612	555.176	77.1253	555.176	77.6694	555.176	75.7747	555.176	77.022	555.176	76.3987	555.176	77.8842	555.176	78.6678	555.176	79.68	555.176	80.6353	555.176	81.1538	555.176	81.7029	555.176	81.8583
574.219	87.8335	574.219	87.7203	574.219	87.85	574.219	87.4929	574.219	87.7641	574.219	87.1153	574.219	87.5527	574.219	86.5501	574.219	87.1824	574.219	85.7894	574.219	86.6172	574.219	84.8905	574.219	85.8354	574.219	83.9803	574.219	84.8653	574.219	83.153	574.219	83.8151	574.219	82.2999	574.219	82.8171	574.219	81.0815	574.219	81.855	574.219	79.0717	574.219	80.6876	574.219	76.1214	574.219	79.0176	574.219	74.4937	574.219	76.851	574.219	77.0173	574.219	75.4	574.219	79.7792	574.219	76.5079	574.219	81.3786	574.219	78.7623	574.219	81.9456	574.219	80.5814	574.219	81.6538
594.727	87.2633	594.727	87.2442	594.727	87.21	594.727	87.125	594.727	87.0731	594.727	86.8419	594.727	86.8105	594.727	86.3108	594.727	86.3712	594.727	85.4537	594.727	85.7252	594.727	84.2567	594.727	84.8977	594.727	82.909	594.727	83.9866	594.727	81.9491	594.727	83.126	594.727	81.8346	594.727	82.3744	594.727	82.156	594.727	81.6133	594.727	82.1503	594.727	80.5685	594.727	81.3472	594.727	78.9305	594.727	79.5164	594.727	76.7607	594.727	76.8283	594.727	75.9285	594.727	75.4877	594.727	77.9576	594.727	77.5564	594.727	80.1778	594.727	79.9263	594.727	81.2976	594.727	81.2091
615.234	86.995	615.234	86.9443	615.234	87.0028	615.234	86.8491	615.234	86.9395	615.234	86.6658	615.234	86.7579	615.234	86.3096	615.234	86.3934	615.234	85.6769	615.234	85.7672	615.234	84.681	615.234	84.8069	615.234	83.3055	615.234	83.5119	615.234	81.6937	615.234	82.0958	615.234	80.1952	615.234	81.0737	615.234	79.0668	615.234	80.7589	615.234	78.0499	615.234	80.6772	615.234	76.7269	615.234	80.1617	615.234	75.3747	615.234	78.9145	615.234	75.4568	615.234	77.2028	615.234	77.2171	615.234	76.3823	615.234	79.0129	615.234	77.5024	615.234	80.0131	615.234	79.1158	615.234	80.0446
637.207	87.3686	637.207	87.387	637.207	87.2869	637.207	87.31	637.207	87.1559	637.207	87.092	637.207	86.9523	637.207	86.6673	637.207	86.6034	637.207	85.9502	637.207	85.9965	637.207	84.8661	637.207	85.0143	637.207	83.4455	637.207	83.6023	637.207	81.9984	637.207	81.9141	637.207	81.0845	637.207	80.4817	637.207	80.7419	637.207	79.7836	637.207	80.1993	637.207	79.3368	637.207	78.7051	637.207	78.1995	637.207	76.2002	637.207	75.8172	637.207	75.4749	637.207	73.6954	637.207	78.3221	637.207	76.1378	637.207	80.9008	637.207	79.488	637.207	82.2342	637.207	81.5582	637.207	82.4341
659.18	86.8204	659.18	86.7322	659.18	86.8771	659.18	86.6227	659.18	86.8777	659.18	86.4594	659.18	86.8001	659.18	86.1572	659.18	86.6176	659.18	85.6065	659.18	86.2801	659.18	84.7239	659.18	85.7146	659.18	83.5038	659.18	84.8702	659.18	82.0866	659.18	83.8044	659.18	80.7978	659.18	82.7351	659.18	79.9026	659.18	81.8589	659.18	79.1675	659.18	80.9903	659.18	78.041	659.18	79.6012	659.18	76.2413	659.18	77.1992	659.18	74.604	659.18	74.1254	659.18	75.3001	659.18	73.9549	659.18	77.4204	659.18	76.6673	659.18	78.949	659.18	78.6548	659.18	79.3885
682.617	86.9014	682.617	86.8346	682.617	86.8936	682.617	86.7062	682.617	86.7991	682.617	86.517	682.617	86.5931	682.617	86.2186	682.617	86.2201	682.617	85.6972	682.617	85.5899	682.617	84.8156	682.617	84.603	682.617	83.5201	682.617	83.2359	682.617	82.033	682.617	81.7379	682.617	80.9677	682.617	80.7689	682.617	80.6557	682.617	80.6541	682.617	80.4708	682.617	80.6454	682.617	79.6333	682.617	79.8709	682.617	77.7435	682.617	77.9451	682.617	75.2636	682.617	75.6223	682.617	75.235	682.617	76.0358	682.617	77.7675	682.617	78.411	682.617	79.7267	682.617	80.0393	682.617	80.4776
707.52	87.4051	707.52	87.3259	707.52	87.4022	707.52	87.1557	707.52	87.3051	707.52	86.8795	707.52	87.084	707.52	86.4797	707.52	86.6998	707.52	85.8974	707.52	86.1019	707.52	84.9933	707.52	85.2221	707.52	83.6173	707.52	84.0024	707.52	81.8634	707.52	82.5212	707.52	80.4455	707.52	81.1666	707.52	80.0473	707.52	80.3271	707.52	79.8078	707.52	79.5955	707.52	78.3838	707.52	78.1037	707.52	74.8438	707.52	75.3908	707.52	71.8819	707.52	73.2658	707.52	76.2316	707.52	75.6494	707.52	79.6752	707.52	78.8044	707.52	81.3011	707.52	80.79	707.52	81.6131
732.422	87.117	732.422	87.0744	732.422	87.0539	732.422	86.9398	732.422	86.8925	732.422	86.7158	732.422	86.6582	732.422	86.3747	732.422	86.3421	732.422	85.8719	732.422	85.8554	732.422	85.1635	732.422	85.0651	732.422	84.2142	732.422	83.9044	732.422	83.0591	732.422	82.5139	732.422	81.9241	732.422	81.3642	732.422	81.0814	732.422	80.9517	732.422	80.3163	732.422	80.9483	732.422	78.9706	732.422	80.3548	732.422	76.4503	732.422	78.2065	732.422	72.9803	732.422	73.9892	732.422	73.4686	732.422	73.6471	732.422	77.3342	732.422	77.931	732.422	79.891	732.422	80.2833	732.422	80.8501
757.324	86.5843	757.324	86.6095	757.324	86.5303	757.324	86.6013	757.324	86.4423	757.324	86.5436	757.324	86.3087	757.324	86.3848	757.324	86.116	757.324	86.0029	757.324	85.8191	757.324	85.1892	757.324	85.2927	757.324	83.709	757.324	84.3322	757.324	81.6503	757.324	82.7677	757.324	80.3598	757.324	80.8523	757.324	80.9655	757.324	79.7913	757.324	81.5806	757.324	79.9629	757.324	80.8176	757.324	79.6927	757.324	78.3173	757.324	77.6847	757.324	75.1026	757.324	73.296	757.324	76.018	757.324	72.1941	757.324	78.7599	757.324	76.8179	757.324	80.2606	757.324	79.5045	757.324	80.5071
785.156	87.6725	785.156	87.4868	785.156	87.7619	785.156	87.2497	785.156	87.716	785.156	86.9689	785.156	87.5321	785.156	86.6265	785.156	87.2235	785.156	86.2035	785.156	86.7715	785.156	85.6222	785.156	86.0935	785.156	84.6964	785.156	85.0666	785.156	83.2854	785.156	83.6171	785.156	81.6753	785.156	81.943	785.156	80.752	785.156	80.8384	785.156	80.6623	785.156	80.7926	785.156	80.23	785.156	80.6657	785.156	78.4929	785.156	79.1004	785.156	75.3572	785.156	75.1002	785.156	74.4912	785.156	72.4542	785.156	77.6837	785.156	77.368	785.156	80.15	785.156	80.3047	785.156	81.0647
811.523	86.5841	811.523	86.4433	811.523	86.6044	811.523	86.1987	811.523	86.5096	811.523	85.8814	811.523	86.3169	811.523	85.5254	811.523	86.0235	811.523	85.1202	811.523	85.5817	811.523	84.5356	811.523	84.8775	811.523	83.5464	811.523	83.7334	811.523	82.085	811.523	82.0963	811.523	80.7774	811.523	80.5543	811.523	80.6488	811.523	80.1341	811.523	80.9575	811.523	80.3177	811.523	80.1952	811.523	79.8244	811.523	77.484	811.523	77.8377	811.523	72.9978	811.523	73.1297	811.523	74.4179	811.523	67.4361	811.523	78.411	811.523	74.6662	811.523	80.2956	811.523	78.7286	811.523	80.379
840.82	86.8714	840.82	86.9064	840.82	86.6672	840.82	86.7451	840.82	86.3868	840.82	86.4384	840.82	86.1391	840.82	86.0746	840.82	85.9584	840.82	85.6666	840.82	85.7266	840.82	85.0281	840.82	85.2142	840.82	83.801	840.82	84.206	840.82	81.7263	840.82	82.6003	840.82	79.4478	840.82	80.6013	840.82	78.9948	840.82	79.2729	840.82	79.6223	840.82	79.6343	840.82	79.0571	840.82	80.1622	840.82	76.1284	840.82	79.0435	840.82	69.3024	840.82	75.0751	840.82	71.8452	840.82	71.6617	840.82	77.396	840.82	76.7327	840.82	79.7752	840.82	79.628	840.82	80.4355
870.117	87.5729	870.117	87.1479	870.117	87.7479	870.117	86.7043	870.117	87.5364	870.117	86.3582	870.117	86.9507	870.117	85.9738	870.117	86.1438	870.117	85.3825	870.117	85.3633	870.117	84.6145	870.117	84.7236	870.117	83.7515	870.117	83.9426	870.117	82.5951	870.117	82.5738	870.117	80.8389	870.117	80.5817	870.117	79.1701	870.117	78.9199	870.117	79.3801	870.117	78.9635	870.117	80.1152	870.117	79.9706	870.117	79.2373	870.117	80.0807	870.117	75.6234	870.117	78.0055	870.117	69.3095	870.117	73.2638	870.117	74.2863	870.117	74.2811	870.117	78.3783	870.117	78.2532	870.117	79.5142
900.879	87.9844	900.879	87.758	900.879	87.8662	900.879	87.2332	900.879	87.4839	900.879	86.6071	900.879	86.9757	900.879	86.0859	900.879	86.4705	900.879	85.675	900.879	86.0285	900.879	85.1901	900.879	85.57	900.879	84.2821	900.879	84.7924	900.879	82.4623	900.879	83.238	900.879	79.7355	900.879	80.7325	900.879	78.5658	900.879	78.6977	900.879	79.8671	900.879	78.9851	900.879	80.1733	900.879	79.3879	900.879	78.0304	900.879	78.3353	900.879	72.7304	900.879	75.2981	900.879	73.1493	900.879	71.5048	900.879	78.1125	900.879	75.5104	900.879	80.4874	900.879	79.463	900.879	80.9512
933.105	87.466	933.105	87.263	933.105	87.5393	933.105	86.9417	933.105	87.3721	933.105	86.3712	933.105	86.8912	933.105	85.4695	933.105	86.1699	933.105	84.4848	933.105	85.4782	933.105	83.9006	933.105	85.0288	933.105	83.6353	933.105	84.6024	933.105	82.946	933.105	83.7857	933.105	81.453	933.105	82.3509	933.105	80.0281	933.105	80.4359	933.105	79.8189	933.105	79.211	933.105	79.595	933.105	79.6611	933.105	77.868	933.105	79.6867	933.105	73.282	933.105	76.9807	933.105	62.5639	933.105	69.424	933.105	72.8579	933.105	74.8906	933.105	78.162	933.105	79.3639	933.105	80.0976
965.332	88.2799	965.332	87.8703	965.332	88.2714	965.332	87.2303	965.332	87.8418	965.332	86.5758	965.332	87.1066	965.332	85.8681	965.332	86.1656	965.332	84.9708	965.332	85.1498	965.332	84.1109	965.332	84.4239	965.332	83.4896	965.332	84.1243	965.332	82.3799	965.332	83.5365	965.332	79.9151	965.332	82.087	965.332	78.0448	965.332	80.6094	965.332	80.1037	965.332	80.5466	965.332	81.4124	965.332	80.8725	965.332	80.0798	965.332	79.9706	965.332	75.0939	965.332	76.3029	965.332	69.6316	965.332	67.0406	965.332	76.7453	965.332	75.2059	965.332	80.0644	965.332	79.7607	965.332	80.9599
1,000.49	87.8871	1,000.49	87.6899	1,000.49	87.7806	1,000.49	87.1676	1,000.49	87.4543	1,000.49	86.3896	1,000.49	86.9695	1,000.49	85.4487	1,000.49	86.2904	1,000.49	84.3714	1,000.49	85.303	1,000.49	83.2187	1,000.49	84.0279	1,000.49	82.0879	1,000.49	82.6825	1,000.49	80.8263	1,000.49	81.09	1,000.49	79.2891	1,000.49	78.8463	1,000.49	78.2052	1,000.49	77.2635	1,000.49	78.8142	1,000.49	78.2453	1,000.49	79.9253	1,000.49	79.6008	1,000.49	79.4634	1,000.49	79.4699	1,000.49	75.7676	1,000.49	76.6296	1,000.49	61.6422	1,000.49	69.5763	1,000.49	73.0791	1,000.49	73.0194	1,000.49	78.3691	1,000.49	77.9711	1,000.49	79.5366
1,035.64	87.7608	1,035.64	87.6349	1,035.64	87.7729	1,035.64	87.4178	1,035.64	87.4835	1,035.64	86.8789	1,035.64	86.7564	1,035.64	85.8588	1,035.64	85.6515	1,035.64	84.4989	1,035.64	84.5049	1,035.64	83.2009	1,035.64	83.7298	1,035.64	82.5612	1,035.64	83.3242	1,035.64	82.2395	1,035.64	82.7456	1,035.64	80.6449	1,035.64	81.2632	1,035.64	76.9594	1,035.64	78.3372	1,035.64	76.7141	1,035.64	76.4082	1,035.64	79.6043	1,035.64	78.4569	1,035.64	79.9005	1,035.64	79.3142	1,035.64	77.0647	1,035.64	77.1509	1,035.64	68.8818	1,035.64	68.5568	1,035.64	67.6387	1,035.64	69.0625	1,035.64	75.105	1,035.64	76.4828	1,035.64	77.5009
1,072.27	87.2211	1,072.27	86.7992	1,072.27	86.9649	1,072.27	85.9951	1,072.27	86.2063	1,072.27	85.4499	1,072.27	85.4535	1,072.27	85.1916	1,072.27	84.9578	1,072.27	84.3983	1,072.27	84.2031	1,072.27	82.8404	1,072.27	82.7843	1,072.27	81.2912	1,072.27	81.3008	1,072.27	79.7668	1,072.27	80.3214	1,072.27	77.5414	1,072.27	79.3252	1,072.27	76.5219	1,072.27	78.3164	1,072.27	77.8336	1,072.27	77.7116	1,072.27	78.9333	1,072.27	78.2716	1,072.27	78.431	1,072.27	79.0764	1,072.27	75.0227	1,072.27	77.7331	1,072.27	64.5852	1,072.27	71.9868	1,072.27	69.9198	1,072.27	68.4436	1,072.27	76.9389	1,072.27	76.7211	1,072.27	78.8341
1,108.89	87.0459	1,108.89	86.8381	1,108.89	86.9958	1,108.89	86.3593	1,108.89	86.5917	1,108.89	85.705	1,108.89	85.6713	1,108.89	84.9972	1,108.89	84.3971	1,108.89	84.121	1,108.89	83.2315	1,108.89	82.8701	1,108.89	82.3105	1,108.89	81.5676	1,108.89	81.6065	1,108.89	80.5504	1,108.89	80.821	1,108.89	78.6053	1,108.89	78.6543	1,108.89	74.492	1,108.89	74.1088	1,108.89	72.4649	1,108.89	72.3424	1,108.89	76.2222	1,108.89	76.3095	1,108.89	77.9558	1,108.89	78.6661	1,108.89	76.5558	1,108.89	78.4685	1,108.89	70.6215	1,108.89	73.6661	1,108.89	70.0272	1,108.89	55.8914	1,108.89	74.237	1,108.89	72.2088	1,108.89	74.3851
1,148.44	85.8383	1,148.44	85.991	1,148.44	85.6326	1,148.44	85.6944	1,148.44	85.5329	1,148.44	84.8799	1,148.44	85.2152	1,148.44	84.0244	1,148.44	84.3177	1,148.44	83.4617	1,148.44	82.9131	1,148.44	82.6865	1,148.44	81.3493	1,148.44	81.3137	1,148.44	79.7257	1,148.44	79.8965	1,148.44	77.8079	1,148.44	78.47	1,148.44	74.9385	1,148.44	74.9929	1,148.44	70.6504	1,148.44	68.9691	1,148.44	70.2249	1,148.44	73.4919	1,148.44	74.5197	1,148.44	75.7763	1,148.44	77.033	1,148.44	74.1216	1,148.44	76.0385	1,148.44	67.6074	1,148.44	68.7292	1,148.44	64.9189	1,148.44	69.3285	1,148.44	74.8218	1,148.44	76.7601	1,148.44	77.9924
1,189.45	87.8708	1,189.45	87.6232	1,189.45	87.7058	1,189.45	86.81	1,189.45	87.2266	1,189.45	85.6498	1,189.45	86.3866	1,189.45	84.7678	1,189.45	85.3964	1,189.45	84.1286	1,189.45	84.6081	1,189.45	82.7047	1,189.45	83.58	1,189.45	80.1592	1,189.45	82.1076	1,189.45	78.5083	1,189.45	81.0458	1,189.45	77.3998	1,189.45	79.5749	1,189.45	73.1626	1,189.45	76.4439	1,189.45	70.3457	1,189.45	73.4506	1,189.45	75.0663	1,189.45	73.9139	1,189.45	76.7186	1,189.45	77.0024	1,189.45	75.9468	1,189.45	77.5153	1,189.45	71.209	1,189.45	72.8617	1,189.45	68.5567	1,189.45	59.6146	1,189.45	74.3868	1,189.45	71.2934	1,189.45	74.8179
1,230.47	87.3762	1,230.47	87.4203	1,230.47	87.2298	1,230.47	87.1563	1,230.47	86.9616	1,230.47	86.288	1,230.47	86.4981	1,230.47	84.9882	1,230.47	85.8184	1,230.47	83.9976	1,230.47	84.8934	1,230.47	83.1584	1,230.47	83.6372	1,230.47	81.6936	1,230.47	82.2816	1,230.47	80.1827	1,230.47	81.6392	1,230.47	79.3163	1,230.47	81.1874	1,230.47	77.6741	1,230.47	78.9121	1,230.47	74.2126	1,230.47	74.9615	1,230.47	74.1957	1,230.47	74.9526	1,230.47	78.0154	1,230.47	76.2468	1,230.47	78.4339	1,230.47	77.1798	1,230.47	74.5342	1,230.47	74.7241	1,230.47	61.8984	1,230.47	52.1902	1,230.47	69.8626	1,230.47	73.3101	1,230.47	75.0246
1,274.41	88.2413	1,274.41	88.0274	1,274.41	88.1204	1,274.41	87.4414	1,274.41	87.757	1,274.41	86.5013	1,274.41	87.0563	1,274.41	85.2928	1,274.41	85.8843	1,274.41	84.397	1,274.41	84.6972	1,274.41	84.071	1,274.41	83.8842	1,274.41	83.2007	1,274.41	82.7512	1,274.41	81.7889	1,274.41	81.2969	1,274.41	81.2802	1,274.41	80.1251	1,274.41	80.2346	1,274.41	78.0493	1,274.41	75.8358	1,274.41	73.6705	1,274.41	71.6552	1,274.41	68.8039	1,274.41	76.244	1,274.41	74.3673	1,274.41	76.3528	1,274.41	76.5577	1,274.41	71.8335	1,274.41	73.6026	1,274.41	61.0334	1,274.41	63.4969	1,274.41	72.3204	1,274.41	72.0149	1,274.41	74.7653
1,319.82	87.5817	1,319.82	87.571	1,319.82	87.4336	1,319.82	87.2243	1,319.82	87.1255	1,319.82	86.5064	1,319.82	86.557	1,319.82	85.5988	1,319.82	85.6604	1,319.82	84.4666	1,319.82	84.6995	1,319.82	83.488	1,319.82	83.7254	1,319.82	82.9251	1,319.82	81.9246	1,319.82	81.8453	1,319.82	80.1939	1,319.82	80.4837	1,319.82	79.9321	1,319.82	78.4303	1,319.82	78.6552	1,319.82	73.5639	1,319.82	75.0043	1,319.82	73.2777	1,319.82	73.7271	1,319.82	75.9016	1,319.82	76.3649	1,319.82	76.0975	1,319.82	75.996	1,319.82	73.6922	1,319.82	72.7699	1,319.82	65.0676	1,319.82	65.4544	1,319.82	71.8681	1,319.82	66.4885	1,319.82	73.3601
1,366.7	87.2452	1,366.7	86.7446	1,366.7	87.2523	1,366.7	86.1485	1,366.7	86.58	1,366.7	85.4896	1,366.7	85.6327	1,366.7	84.4492	1,366.7	84.6907	1,366.7	83.1139	1,366.7	83.4108	1,366.7	82.1101	1,366.7	82.2456	1,366.7	80.8971	1,366.7	81.6544	1,366.7	78.8806	1,366.7	80.0734	1,366.7	76.5464	1,366.7	77.8815	1,366.7	75.7542	1,366.7	77.2991	1,366.7	76.2906	1,366.7	75.2545	1,366.7	75.8347	1,366.7	71.151	1,366.7	76.6968	1,366.7	72.8864	1,366.7	77.0345	1,366.7	75.1921	1,366.7	74.3992	1,366.7	73.4705	1,366.7	68.3595	1,366.7	62.5602	1,366.7	72.0952	1,366.7	68.3095	1,366.7	73.5514
1,413.57	87.2309	1,413.57	87.1158	1,413.57	87.1496	1,413.57	86.6627	1,413.57	86.815	1,413.57	85.6725	1,413.57	86.1732	1,413.57	84.4258	1,413.57	85.2928	1,413.57	83.3469	1,413.57	84.1917	1,413.57	82.043	1,413.57	82.8561	1,413.57	80.9799	1,413.57	81.1564	1,413.57	80.1191	1,413.57	80.0937	1,413.57	78.5272	1,413.57	79.5723	1,413.57	78.4442	1,413.57	77.0643	1,413.57	77.5181	1,413.57	74.9057	1,413.57	73.7455	1,413.57	73.1032	1,413.57	75.4838	1,413.57	72.6692	1,413.57	76.148	1,413.57	75.6989	1,413.57	72.5332	1,413.57	73.7933	1,413.57	62.7285	1,413.57	65.1871	1,413.57	67.3272	1,413.57	70.4218	1,413.57	71.2545
1,463.38	87.0827	1,463.38	86.7849	1,463.38	87.1098	1,463.38	86.2656	1,463.38	86.8752	1,463.38	85.5216	1,463.38	86.4242	1,463.38	84.4213	1,463.38	85.5643	1,463.38	82.9302	1,463.38	84.0645	1,463.38	81.652	1,463.38	82.6702	1,463.38	80.9511	1,463.38	81.8356	1,463.38	79.5371	1,463.38	80.2688	1,463.38	78.2557	1,463.38	78.0662	1,463.38	77.7343	1,463.38	77.3674	1,463.38	75.3037	1,463.38	75.6767	1,463.38	72.9459	1,463.38	72.6898	1,463.38	74.5751	1,463.38	74.3902	1,463.38	75.6287	1,463.38	74.2823	1,463.38	73.0487	1,463.38	71.2368	1,463.38	68.611	1,463.38	60.6192	1,463.38	72.6333	1,463.38	71.0386	1,463.38	75.0554
1,516.11	87.9516	1,516.11	87.8948	1,516.11	87.5077	1,516.11	87.3558	1,516.11	86.8957	1,516.11	86.5578	1,516.11	86.3065	1,516.11	85.5789	1,516.11	85.6127	1,516.11	84.3472	1,516.11	84.6547	1,516.11	82.9269	1,516.11	83.811	1,516.11	81.6253	1,516.11	83.152	1,516.11	80.5283	1,516.11	81.6928	1,516.11	78.9119	1,516.11	80.919	1,516.11	76.4874	1,516.11	79.5509	1,516.11	73.1439	1,516.11	76.7067	1,516.11	70.4541	1,516.11	73.7645	1,516.11	72.1372	1,516.11	72.862	1,516.11	74.426	1,516.11	73.879	1,516.11	73.1221	1,516.11	72.0274	1,516.11	67.1119	1,516.11	65.3939	1,516.11	66.0665	1,516.11	62.9879	1,516.11	68.7275
1,568.85	88.5187	1,568.85	88.1684	1,568.85	88.2792	1,568.85	87.4753	1,568.85	87.5144	1,568.85	86.6092	1,568.85	86.4442	1,568.85	85.4692	1,568.85	85.5012	1,568.85	84.3374	1,568.85	84.7673	1,568.85	83.1666	1,568.85	83.3056	1,568.85	81.6661	1,568.85	82.0114	1,568.85	80.9039	1,568.85	81.5082	1,568.85	79.5108	1,568.85	79.8592	1,568.85	77.3408	1,568.85	78.3144	1,568.85	75.6277	1,568.85	77.1595	1,568.85	72.4429	1,568.85	74.7797	1,568.85	72.2117	1,568.85	73.6639	1,568.85	75.0225	1,568.85	76.8303	1,568.85	73.218	1,568.85	75.9425	1,568.85	62.3683	1,568.85	69.157	1,568.85	66.8494	1,568.85	63.7312	1,568.85	69.8821
1,624.51	87.5158	1,624.51	87.7467	1,624.51	86.9183	1,624.51	86.9818	1,624.51	86.4837	1,624.51	85.8702	1,624.51	85.9943	1,624.51	85.1924	1,624.51	85.152	1,624.51	84.2543	1,624.51	83.9195	1,624.51	82.7528	1,624.51	82.3495	1,624.51	81.3486	1,624.51	80.9623	1,624.51	80.5647	1,624.51	80.0191	1,624.51	79.1198	1,624.51	78.9849	1,624.51	77.6613	1,624.51	76.4176	1,624.51	76.0585	1,624.51	74.4561	1,624.51	73.3027	1,624.51	75.5664	1,624.51	74.2035	1,624.51	73.1786	1,624.51	75.2881	1,624.51	76.2296	1,624.51	73.5164	1,624.51	75.4664	1,624.51	64.8543	1,624.51	68.6462	1,624.51	68.1962	1,624.51	58.4341	1,624.51	69.0865
1,681.64	86.0908	1,681.64	86.0403	1,681.64	85.8245	1,681.64	85.7578	1,681.64	85.3282	1,681.64	85.1893	1,681.64	84.7599	1,681.64	84.2384	1,681.64	83.6195	1,681.64	83.2317	1,681.64	81.5491	1,681.64	82.448	1,681.64	80.4331	1,681.64	80.9974	1,681.64	79.6778	1,681.64	79.4915	1,681.64	78.3001	1,681.64	78.5506	1,681.64	76.9287	1,681.64	77.0151	1,681.64	73.0622	1,681.64	76.0013	1,681.64	70.2443	1,681.64	72.7013	1,681.64	70.8845	1,681.64	71.8387	1,681.64	72.5298	1,681.64	74.6627	1,681.64	75.5008	1,681.64	75.981	1,681.64	76.723	1,681.64	73.2034	1,681.64	73.58	1,681.64	72.6702	1,681.64	71.0609	1,681.64	71.3512
1,741.7	85.9458	1,741.7	85.7519	1,741.7	86.3223	1,741.7	85.8898	1,741.7	86.1423	1,741.7	85.175	1,741.7	85.6193	1,741.7	83.7144	1,741.7	84.898	1,741.7	82.404	1,741.7	83.4954	1,741.7	81.359	1,741.7	81.3802	1,741.7	79.424	1,741.7	80.0901	1,741.7	77.5817	1,741.7	78.8534	1,741.7	77.9613	1,741.7	76.8087	1,741.7	76.0751	1,741.7	77.1692	1,741.7	73.8766	1,741.7	74.1585	1,741.7	71.7737	1,741.7	67.9465	1,741.7	66.938	1,741.7	66.9153	1,741.7	72.832	1,741.7	71.871	1,741.7	73.3002	1,741.7	72.7605	1,741.7	69.5417	1,741.7	69.9155	1,741.7	67.3805	1,741.7	68.2729	1,741.7	69.3834
1,803.22	87.7693	1,803.22	87.4757	1,803.22	87.7081	1,803.22	86.8683	1,803.22	87.4404	1,803.22	86.1411	1,803.22	86.7427	1,803.22	85.0856	1,803.22	85.8102	1,803.22	83.5585	1,803.22	84.7966	1,803.22	81.6534	1,803.22	83.1519	1,803.22	80.1436	1,803.22	81.3506	1,803.22	78.2987	1,803.22	79.2986	1,803.22	76.9683	1,803.22	78.4168	1,803.22	76.4555	1,803.22	78.1425	1,803.22	73.9068	1,803.22	76.8068	1,803.22	71.5939	1,803.22	75.1076	1,803.22	67.433	1,803.22	71.8893	1,803.22	72.3894	1,803.22	71.7224	1,803.22	73.7622	1,803.22	74.2484	1,803.22	67.3278	1,803.22	72.2981	1,803.22	67.589	1,803.22	67.3201	1,803.22	70.0769
1,866.21	88.0538	1,866.21	87.7912	1,866.21	87.8829	1,866.21	87.42	1,866.21	87.4294	1,866.21	86.671	1,866.21	86.9007	1,866.21	85.7875	1,866.21	85.9573	1,866.21	84.5546	1,866.21	84.8748	1,866.21	83.0132	1,866.21	83.297	1,866.21	81.2653	1,866.21	81.7759	1,866.21	79.1664	1,866.21	79.9545	1,866.21	77.6285	1,866.21	77.5416	1,866.21	77.2661	1,866.21	77.33	1,866.21	74.8647	1,866.21	75.7108	1,866.21	73.2304	1,866.21	74.3496	1,866.21	68.2582	1,866.21	72.9732	1,866.21	70.2904	1,866.21	72.0974	1,866.21	73.5182	1,866.21	74.4452	1,866.21	70.2418	1,866.21	71.2937	1,866.21	70.2165	1,866.21	68.7716	1,866.21	71.4373
1,932.13	87.0769	1,932.13	87.0981	1,932.13	86.7819	1,932.13	86.6259	1,932.13	86.2421	1,932.13	85.9027	1,932.13	85.5589	1,932.13	85.0836	1,932.13	84.4773	1,932.13	84.1538	1,932.13	83.3872	1,932.13	82.8794	1,932.13	82.1092	1,932.13	81.1773	1,932.13	80.3313	1,932.13	79.5808	1,932.13	78.7873	1,932.13	77.7342	1,932.13	76.5258	1,932.13	77.1911	1,932.13	75.7359	1,932.13	76.4821	1,932.13	75.0678	1,932.13	75.2122	1,932.13	72.907	1,932.13	72.7953	1,932.13	70.4711	1,932.13	68.5927	1,932.13	68.5028	1,932.13	72.5783	1,932.13	73.4517	1,932.13	69.5792	1,932.13	70.4901	1,932.13	70.5567	1,932.13	68.3219	1,932.13	72.5396
1,999.51	86.7118	1,999.51	86.4957	1,999.51	86.5592	1,999.51	85.9581	1,999.51	86.0741	1,999.51	85.1782	1,999.51	85.3	1,999.51	84.1697	1,999.51	84.2637	1,999.51	83.2515	1,999.51	82.9969	1,999.51	81.8616	1,999.51	81.6848	1,999.51	80.4846	1,999.51	80.1584	1,999.51	78.9834	1,999.51	78.961	1,999.51	76.7693	1,999.51	76.69	1,999.51	76.1452	1,999.51	74.5819	1,999.51	75.1602	1,999.51	74.7579	1,999.51	73.9107	1,999.51	73.0592	1,999.51	73.0338	1,999.51	72.4618	1,999.51	70.9766	1,999.51	67.8317	1,999.51	72.1736	1,999.51	70.6374	1,999.51	68.1086	1,999.51	69.2851	1,999.51	69.8317	1,999.51	65.7941	1,999.51	72.1547
2,069.82	87.74	2,069.82	87.3739	2,069.82	87.6499	2,069.82	86.8506	2,069.82	87.2432	2,069.82	86.0542	2,069.82	86.6174	2,069.82	84.7171	2,069.82	85.5678	2,069.82	83.0867	2,069.82	84.2634	2,069.82	81.8569	2,069.82	83.0091	2,069.82	80.2572	2,069.82	81.5495	2,069.82	78.191	2,069.82	79.8647	2,069.82	76.0324	2,069.82	78.1022	2,069.82	74.5817	2,069.82	75.6322	2,069.82	74.0986	2,069.82	74.4657	2,069.82	72.8374	2,069.82	73.4064	2,069.82	71.2674	2,069.82	73.4242	2,069.82	69.523	2,069.82	70.5599	2,069.82	71.1932	2,069.82	72.1546	2,069.82	67.1062	2,069.82	69.8558	2,069.82	69.5686	2,069.82	67.5744	2,069.82	70.8765
2,143.07	88.231	2,143.07	88.128	2,143.07	88.0256	2,143.07	87.7843	2,143.07	87.7259	2,143.07	87.1877	2,143.07	87.1423	2,143.07	86.0347	2,143.07	86.232	2,143.07	84.4878	2,143.07	84.7458	2,143.07	83.0085	2,143.07	83.3222	2,143.07	81.3468	2,143.07	81.6386	2,143.07	79.8515	2,143.07	80.1319	2,143.07	77.9985	2,143.07	78.9744	2,143.07	74.4878	2,143.07	76.5647	2,143.07	74.9742	2,143.07	75.9719	2,143.07	73.321	2,143.07	73.6229	2,143.07	71.9245	2,143.07	72.114	2,143.07	68.1537	2,143.07	70.8604	2,143.07	72.4308	2,143.07	72.2931	2,143.07	67.8446	2,143.07	70.9632	2,143.07	66.8808	2,143.07	66.6093	2,143.07	71.9994
2,219.24	87.7648	2,219.24	87.7411	2,219.24	87.6125	2,219.24	87.4967	2,219.24	87.2462	2,219.24	87.0828	2,219.24	86.6384	2,219.24	86.2999	2,219.24	85.8641	2,219.24	85.1434	2,219.24	84.5451	2,219.24	83.4865	2,219.24	82.6356	2,219.24	81.8437	2,219.24	80.9193	2,219.24	80.6808	2,219.24	79.2489	2,219.24	79.5827	2,219.24	78.1124	2,219.24	77.1756	2,219.24	75.5354	2,219.24	75.6463	2,219.24	74.658	2,219.24	73.7284	2,219.24	73.6872	2,219.24	73.4531	2,219.24	72.467	2,219.24	71.7474	2,219.24	70.1167	2,219.24	73.4614	2,219.24	71.029	2,219.24	69.9656	2,219.24	69.544	2,219.24	69.9315	2,219.24	65.0581	2,219.24	71.9324
2,296.88	86.8886	2,296.88	86.8044	2,296.88	86.9164	2,296.88	86.4374	2,296.88	86.7118	2,296.88	85.9804	2,296.88	86.2886	2,296.88	85.6062	2,296.88	85.7089	2,296.88	84.4801	2,296.88	84.78	2,296.88	82.6829	2,296.88	83.0427	2,296.88	81.0929	2,296.88	81.3199	2,296.88	79.1538	2,296.88	79.5156	2,296.88	78.6236	2,296.88	77.8922	2,296.88	76.3248	2,296.88	76.1004	2,296.88	74.7612	2,296.88	75.0736	2,296.88	72.0324	2,296.88	73.7317	2,296.88	72.556	2,296.88	72.0806	2,296.88	70.8437	2,296.88	70.004	2,296.88	71.4997	2,296.88	71.5938	2,296.88	69.0995	2,296.88	70.7444	2,296.88	68.9558	2,296.88	65.1378	2,296.88	69.2794
2,378.91	87.3517	2,378.91	87.2743	2,378.91	87.3824	2,378.91	87.0508	2,378.91	87.2498	2,378.91	86.3636	2,378.91	86.9428	2,378.91	85.5433	2,378.91	86.2535	2,378.91	84.4805	2,378.91	85.2827	2,378.91	82.8904	2,378.91	83.8186	2,378.91	80.5348	2,378.91	82.0541	2,378.91	77.6612	2,378.91	80.0112	2,378.91	76.1879	2,378.91	78.0551	2,378.91	73.9107	2,378.91	75.7227	2,378.91	72.8854	2,378.91	73.8466	2,378.91	73.2769	2,378.91	74.4734	2,378.91	70.5741	2,378.91	72.2757	2,378.91	66.7857	2,378.91	71.1893	2,378.91	69.6543	2,378.91	69.8586	2,378.91	68.0438	2,378.91	71.3353	2,378.91	65.7913	2,378.91	65.8571	2,378.91	70.4762
2,462.4	87.377	2,462.4	87.3142	2,462.4	87.2671	2,462.4	87.2231	2,462.4	86.9119	2,462.4	86.7365	2,462.4	86.3328	2,462.4	85.95	2,462.4	85.3699	2,462.4	84.8149	2,462.4	84.1551	2,462.4	83.496	2,462.4	82.7137	2,462.4	81.7005	2,462.4	80.3269	2,462.4	79.4508	2,462.4	78.8515	2,462.4	76.8402	2,462.4	76.817	2,462.4	75.413	2,462.4	75.4854	2,462.4	73.0005	2,462.4	71.7989	2,462.4	73.1693	2,462.4	72.9815	2,462.4	71.9688	2,462.4	70.0752	2,462.4	69.9957	2,462.4	68.2539	2,462.4	67.5949	2,462.4	67.9718	2,462.4	68.2605	2,462.4	68.7562	2,462.4	64.8103	2,462.4	66.8182	2,462.4	70.1251
2,548.83	87.0203	2,548.83	86.8533	2,548.83	86.9296	2,548.83	86.6297	2,548.83	86.7536	2,548.83	86.1325	2,548.83	86.125	2,548.83	85.0988	2,548.83	85.1932	2,548.83	84.1032	2,548.83	83.8723	2,548.83	82.657	2,548.83	82.554	2,548.83	80.5887	2,548.83	80.2253	2,548.83	78.8362	2,548.83	78.1665	2,548.83	76.7673	2,548.83	76.0173	2,548.83	75.9736	2,548.83	74.5945	2,548.83	73.735	2,548.83	71.9073	2,548.83	73.2015	2,548.83	71.6893	2,548.83	70.9231	2,548.83	70.5734	2,548.83	69.2385	2,548.83	70.5084	2,548.83	71.7617	2,548.83	67.6483	2,548.83	68.1885	2,548.83	68.5823	2,548.83	68.6139	2,548.83	62.2632	2,548.83	71.4746
2,639.65	87.4225	2,639.65	87.2638	2,639.65	87.3433	2,639.65	86.8744	2,639.65	87.1933	2,639.65	86.2263	2,639.65	86.8308	2,639.65	85.2533	2,639.65	85.9868	2,639.65	83.6764	2,639.65	84.4845	2,639.65	81.9801	2,639.65	82.826	2,639.65	79.8534	2,639.65	81.3844	2,639.65	77.8078	2,639.65	79.1171	2,639.65	75.2825	2,639.65	76.229	2,639.65	74.176	2,639.65	75.2305	2,639.65	71.2495	2,639.65	74.2482	2,639.65	71.3541	2,639.65	72.374	2,639.65	70.2248	2,639.65	70.1171	2,639.65	70.5618	2,639.65	70.7322	2,639.65	69.3247	2,639.65	69.7732	2,639.65	67.3572	2,639.65	69.9239	2,639.65	66.6133	2,639.65	65.6624	2,639.65	69.809
2,731.93	87.1712	2,731.93	87.0875	2,731.93	87.0589	2,731.93	86.9009	2,731.93	86.758	2,731.93	86.417	2,731.93	86.2227	2,731.93	85.4799	2,731.93	85.1589	2,731.93	83.8501	2,731.93	83.7229	2,731.93	82.1671	2,731.93	81.9025	2,731.93	80.4666	2,731.93	80.1843	2,731.93	77.951	2,731.93	77.6569	2,731.93	75.228	2,731.93	75.764	2,731.93	73.5762	2,731.93	72.9248	2,731.93	71.2429	2,731.93	71.3568	2,731.93	71.254	2,731.93	71.2989	2,731.93	70.0864	2,731.93	70.4019	2,731.93	70.3113	2,731.93	70.6049	2,731.93	69.1963	2,731.93	68.9493	2,731.93	67.0339	2,731.93	68.2004	2,731.93	68.1703	2,731.93	65.0928	2,731.93	70.9074
2,828.61	86.2962	2,828.61	86.3656	2,828.61	86.2819	2,828.61	86.2012	2,828.61	86.0555	2,828.61	85.7464	2,828.61	85.6867	2,828.61	84.5623	2,828.61	84.8008	2,828.61	83.3233	2,828.61	83.4255	2,828.61	81.3547	2,828.61	81.6129	2,828.61	79.3105	2,828.61	79.2162	2,828.61	77.1026	2,828.61	76.9174	2,828.61	75.2183	2,828.61	75.1277	2,828.61	73.1707	2,828.61	72.7289	2,828.61	71.0797	2,828.61	69.9278	2,828.61	69.2911	2,828.61	69.4463	2,828.61	69.2409	2,828.61	67.5046	2,828.61	68.8159	2,828.61	68.5459	2,828.61	66.3086	2,828.61	67.3465	2,828.61	67.8059	2,828.61	68.5686	2,828.61	66.1417	2,828.61	61.803	2,828.61	68.7966
2,928.22	86.9555	2,928.22	86.9333	2,928.22	86.9253	2,928.22	86.7024	2,928.22	86.6229	2,928.22	86.0166	2,928.22	86.227	2,928.22	84.8581	2,928.22	85.3035	2,928.22	83.4318	2,928.22	84.224	2,928.22	81.6447	2,928.22	82.5227	2,928.22	79.3098	2,928.22	80.2342	2,928.22	77.4261	2,928.22	78.3393	2,928.22	74.9262	2,928.22	75.9861	2,928.22	71.7877	2,928.22	73.0886	2,928.22	70.7112	2,928.22	71.1697	2,928.22	69.4097	2,928.22	70.238	2,928.22	66.826	2,928.22	68.4613	2,928.22	68.6338	2,928.22	68.8352	2,928.22	68.4785	2,928.22	68.4521	2,928.22	66.3629	2,928.22	68.8767	2,928.22	68.3218	2,928.22	62.1974	2,928.22	71.6089
3,030.76	86.3631	3,030.76	86.4039	3,030.76	86.4435	3,030.76	86.3771	3,030.76	86.3193	3,030.76	85.7059	3,030.76	85.8057	3,030.76	84.8225	3,030.76	84.7905	3,030.76	83.4369	3,030.76	83.6015	3,030.76	81.3193	3,030.76	81.9946	3,030.76	79.5009	3,030.76	79.9213	3,030.76	77.531	3,030.76	77.8741	3,030.76	74.6529	3,030.76	75.55	3,030.76	72.4696	3,030.76	73.4683	3,030.76	69.9875	3,030.76	71.0097	3,030.76	67.9949	3,030.76	69.0139	3,030.76	67.1203	3,030.76	67.8587	3,030.76	66.956	3,030.76	68.5911	3,030.76	67.763	3,030.76	67.2932	3,030.76	68.1923	3,030.76	69.5041	3,030.76	64.7128	3,030.76	64.574	3,030.76	70.9668
3,137.7	86.5054	3,137.7	86.5387	3,137.7	86.4596	3,137.7	86.3073	3,137.7	86.2841	3,137.7	85.5016	3,137.7	85.6588	3,137.7	84.5819	3,137.7	84.7205	3,137.7	83.1935	3,137.7	83.3283	3,137.7	81.0942	3,137.7	81.8551	3,137.7	78.5532	3,137.7	79.2928	3,137.7	76.6852	3,137.7	77.7826	3,137.7	74.6372	3,137.7	74.2666	3,137.7	72.6006	3,137.7	73.0573	3,137.7	70.7436	3,137.7	71.3384	3,137.7	68.5483	3,137.7	67.8069	3,137.7	66.8568	3,137.7	66.5065	3,137.7	66.8277	3,137.7	66.1657	3,137.7	67.7315	3,137.7	65.3756	3,137.7	67.364	3,137.7	67.7382	3,137.7	65.399	3,137.7	62.4669	3,137.7	67.5468
3,249.02	87.2567	3,249.02	87.2076	3,249.02	87.2062	3,249.02	86.9589	3,249.02	87.0637	3,249.02	86.6021	3,249.02	86.6414	3,249.02	85.1393	3,249.02	85.7247	3,249.02	83.9631	3,249.02	84.262	3,249.02	82.0844	3,249.02	82.664	3,249.02	79.8131	3,249.02	80.7036	3,249.02	77.7596	3,249.02	78.2899	3,249.02	75.0401	3,249.02	76.8076	3,249.02	73.6046	3,249.02	74.2163	3,249.02	71.7337	3,249.02	72.617	3,249.02	68.0343	3,249.02	70.768	3,249.02	67.6531	3,249.02	68.5117	3,249.02	65.8307	3,249.02	66.5794	3,249.02	65.6	3,249.02	68.7283	3,249.02	68.0213	3,249.02	69.2067	3,249.02	63.2449	3,249.02	60.2251	3,249.02	70.3272
3,363.28	87.6386	3,363.28	87.4451	3,363.28	87.723	3,363.28	87.3106	3,363.28	87.4602	3,363.28	86.943	3,363.28	87.0046	3,363.28	85.9899	3,363.28	86.2242	3,363.28	84.0908	3,363.28	84.7592	3,363.28	82.6578	3,363.28	82.9102	3,363.28	80.3834	3,363.28	80.6066	3,363.28	77.6854	3,363.28	78.634	3,363.28	75.726	3,363.28	77.3224	3,363.28	73.8237	3,363.28	75.0851	3,363.28	71.6239	3,363.28	72.4788	3,363.28	68.9055	3,363.28	71.524	3,363.28	67.3597	3,363.28	69.4433	3,363.28	64.2156	3,363.28	65.6505	3,363.28	65.9312	3,363.28	66.9388	3,363.28	68.679	3,363.28	68.1275	3,363.28	63.1069	3,363.28	62.4737	3,363.28	71.4021
3,481.93	87.1561	3,481.93	87.1171	3,481.93	87.1894	3,481.93	87.0865	3,481.93	87.0772	3,481.93	86.6517	3,481.93	86.6648	3,481.93	85.814	3,481.93	85.9584	3,481.93	83.9771	3,481.93	84.4285	3,481.93	82.1387	3,481.93	82.706	3,481.93	79.9941	3,481.93	80.5191	3,481.93	77.1548	3,481.93	78.3048	3,481.93	75.4619	3,481.93	75.7779	3,481.93	74.347	3,481.93	74.0929	3,481.93	71.9961	3,481.93	71.745	3,481.93	70.1964	3,481.93	69.956	3,481.93	67.6262	3,481.93	68.0935	3,481.93	65.5337	3,481.93	63.5924	3,481.93	66.2978	3,481.93	66.56	3,481.93	67.4253	3,481.93	66.9501	3,481.93	64.9247	3,481.93	61.6203	3,481.93	71.3166
3,604.98	87.6019	3,604.98	87.6658	3,604.98	87.6411	3,604.98	87.4271	3,604.98	87.4682	3,604.98	86.495	3,604.98	86.9819	3,604.98	85.4158	3,604.98	86.0942	3,604.98	84.0739	3,604.98	84.6861	3,604.98	81.8075	3,604.98	82.6619	3,604.98	79.8696	3,604.98	80.8672	3,604.98	77.9395	3,604.98	78.4116	3,604.98	75.2848	3,604.98	76.8214	3,604.98	72.7057	3,604.98	74.8534	3,604.98	71.2361	3,604.98	73.0422	3,604.98	69.4747	3,604.98	71.943	3,604.98	67.0552	3,604.98	68.5652	3,604.98	63.3428	3,604.98	64.6002	3,604.98	63.2831	3,604.98	65.2034	3,604.98	66.9493	3,604.98	67.8562	3,604.98	61.2716	3,604.98	61.2038	3,604.98	69.6513
3,732.42	87.2794	3,732.42	87.3404	3,732.42	87.1279	3,732.42	87.0285	3,732.42	86.9895	3,732.42	86.3371	3,732.42	86.3415	3,732.42	84.5912	3,732.42	85.3718	3,732.42	83.451	3,732.42	83.8152	3,732.42	81.8498	3,732.42	81.8299	3,732.42	79.5868	3,732.42	79.7704	3,732.42	77.5132	3,732.42	77.2387	3,732.42	73.9866	3,732.42	75.4878	3,732.42	72.6132	3,732.42	73.4284	3,732.42	71.0825	3,732.42	71.3971	3,732.42	67.8718	3,732.42	70.1195	3,732.42	66.8724	3,732.42	67.3546	3,732.42	62.3224	3,732.42	65.2926	3,732.42	64.3633	3,732.42	66.5375	3,732.42	66.4284	3,732.42	65.1883	3,732.42	61.2256	3,732.42	56.1381	3,732.42	69.4929
3,864.26	87.4891	3,864.26	87.1505	3,864.26	87.4711	3,864.26	86.8471	3,864.26	87.0831	3,864.26	85.9242	3,864.26	86.2635	3,864.26	84.6815	3,864.26	85.2977	3,864.26	82.3751	3,864.26	83.6448	3,864.26	80.3518	3,864.26	81.9671	3,864.26	78.3428	3,864.26	79.7277	3,864.26	74.8304	3,864.26	77.8652	3,864.26	74.4386	3,864.26	75.0054	3,864.26	72.8966	3,864.26	73.4318	3,864.26	69.1806	3,864.26	70.0054	3,864.26	68.581	3,864.26	69.5529	3,864.26	64.2938	3,864.26	68.3239	3,864.26	63.1199	3,864.26	63.7158	3,864.26	62.9818	3,864.26	63.6069	3,864.26	63.5085	3,864.26	65.4006	3,864.26	62.6622	3,864.26	59.7508	3,864.26	68.7822
4,000.49	87.5898	4,000.49	87.4892	4,000.49	87.7172	4,000.49	86.9106	4,000.49	86.8637	4,000.49	85.8099	4,000.49	86.3179	4,000.49	85.2283	4,000.49	85.002	4,000.49	83.4027	4,000.49	83.654	4,000.49	80.7156	4,000.49	81.2372	4,000.49	78.8505	4,000.49	79.0331	4,000.49	77.4048	4,000.49	76.4607	4,000.49	75.3469	4,000.49	75.5588	4,000.49	72.4426	4,000.49	73.2411	4,000.49	70.3991	4,000.49	71.8887	4,000.49	67.4574	4,000.49	69.3652	4,000.49	67.7093	4,000.49	65.8271	4,000.49	63.7243	4,000.49	62.4608	4,000.49	62.3027	4,000.49	62.8384	4,000.49	61.8096	4,000.49	64.3011	4,000.49	60.7368	4,000.49	58.6508	4,000.49	69.2175
4,141.11	87.7116	4,141.11	87.5169	4,141.11	87.2	4,141.11	86.8033	4,141.11	87.2185	4,141.11	86.5061	4,141.11	85.9476	4,141.11	83.9486	4,141.11	85.0551	4,141.11	82.6887	4,141.11	83.2912	4,141.11	80.8193	4,141.11	81.5519	4,141.11	79.4561	4,141.11	79.4018	4,141.11	77.3011	4,141.11	77.6883	4,141.11	73.122	4,141.11	75.7083	4,141.11	72.3923	4,141.11	72.0613	4,141.11	69.7831	4,141.11	70.4274	4,141.11	67.504	4,141.11	68.1918	4,141.11	65.7982	4,141.11	66.8727	4,141.11	60.8709	4,141.11	65.4039	4,141.11	63.3504	4,141.11	63.1638	4,141.11	64.4824	4,141.11	62.1378	4,141.11	59.1229	4,141.11	59.5543	4,141.11	68.7043
4,287.6	87.5663	4,287.6	87.1416	4,287.6	87.5496	4,287.6	86.6374	4,287.6	86.7294	4,287.6	85.2273	4,287.6	85.9186	4,287.6	84.0767	4,287.6	84.3459	4,287.6	81.6443	4,287.6	83.044	4,287.6	80.5501	4,287.6	80.9871	4,287.6	77.4792	4,287.6	78.8064	4,287.6	75.551	4,287.6	76.4568	4,287.6	73.9416	4,287.6	74.4597	4,287.6	70.8834	4,287.6	72.4903	4,287.6	71.2397	4,287.6	70.7987	4,287.6	69.0449	4,287.6	68.8658	4,287.6	66.8802	4,287.6	66.1603	4,287.6	63.3997	4,287.6	60.5981	4,287.6	63.6991	4,287.6	60.7482	4,287.6	62.9992	4,287.6	62.4489	4,287.6	56.8537	4,287.6	60.0089	4,287.6	68.005
4,438.48	87.8065	4,438.48	88.0593	4,438.48	87.9444	4,438.48	86.8536	4,438.48	87.2651	4,438.48	85.5668	4,438.48	86.378	4,438.48	84.5307	4,438.48	85.0231	4,438.48	83.3511	4,438.48	83.2761	4,438.48	79.8639	4,438.48	81.0488	4,438.48	77.9971	4,438.48	79.6867	4,438.48	76.3641	4,438.48	77.2458	4,438.48	73.6762	4,438.48	75.7991	4,438.48	71.6516	4,438.48	72.5017	4,438.48	70.6684	4,438.48	70.9538	4,438.48	68.1141	4,438.48	69.0061	4,438.48	66.0485	4,438.48	66.7084	4,438.48	62.6907	4,438.48	64.5712	4,438.48	61.8534	4,438.48	61.861	4,438.48	58.2231	4,438.48	60.0619	4,438.48	55.4938	4,438.48	58.3995	4,438.48	67.7445
4,595.21	87.8283	4,595.21	86.8855	4,595.21	87.2434	4,595.21	86.6238	4,595.21	86.651	4,595.21	85.8307	4,595.21	85.2698	4,595.21	83.3617	4,595.21	83.854	4,595.21	81.5577	4,595.21	82.4944	4,595.21	81.0201	4,595.21	81.2401	4,595.21	79.3667	4,595.21	78.5448	4,595.21	77.5006	4,595.21	76.3694	4,595.21	75.7927	4,595.21	75.1293	4,595.21	72.4546	4,595.21	72.6425	4,595.21	70.6535	4,595.21	70.2218	4,595.21	67.9234	4,595.21	68.8321	4,595.21	64.7722	4,595.21	67.2834	4,595.21	64.4481	4,595.21	66.5152	4,595.21	60.9316	4,595.21	61.7301	4,595.21	61.158	4,595.21	57.7979	4,595.21	59.5313	4,595.21	62.3984	4,595.21	66.9258
4,756.35	87.6824	4,756.35	87.6252	4,756.35	88.0242	4,756.35	86.382	4,756.35	86.6825	4,756.35	84.8299	4,756.35	85.6963	4,756.35	84.1487	4,756.35	84.2455	4,756.35	82.6771	4,756.35	82.7907	4,756.35	80.1517	4,756.35	80.1664	4,756.35	77.6282	4,756.35	79.0614	4,756.35	75.6269	4,756.35	77.1777	4,756.35	73.2359	4,756.35	74.4258	4,756.35	71.4459	4,756.35	73.2132	4,756.35	70.3987	4,756.35	70.3949	4,756.35	68.3751	4,756.35	69.303	4,756.35	67.1299	4,756.35	67.0998	4,756.35	65.332	4,756.35	63.5663	4,756.35	59.3205	4,756.35	62.219	4,756.35	57.5408	4,756.35	62.6244	4,756.35	53.7406	4,756.35	62.5267	4,756.35	65.2153
4,924.8	87.2293	4,924.8	86.8949	4,924.8	86.5322	4,924.8	85.7916	4,924.8	86.1702	4,924.8	84.5201	4,924.8	84.5339	4,924.8	83.067	4,924.8	83.3005	4,924.8	81.9429	4,924.8	82.1805	4,924.8	80.182	4,924.8	81.4923	4,924.8	79.6223	4,924.8	79.2216	4,924.8	76.8865	4,924.8	77.4143	4,924.8	74.4681	4,924.8	75.176	4,924.8	72.8163	4,924.8	72.5939	4,924.8	69.9227	4,924.8	70.6494	4,924.8	68.3715	4,924.8	67.273	4,924.8	64.6778	4,924.8	66.7446	4,924.8	63.8337	4,924.8	65.0406	4,924.8	62.9507	4,924.8	62.0079	4,924.8	57.6449	4,924.8	53.932	4,924.8	59.7637	4,924.8	60.4641	4,924.8	65.667
5,097.66	87.3319	5,097.66	86.7143	5,097.66	87.3047	5,097.66	85.975	5,097.66	85.923	5,097.66	84.7207	5,097.66	84.8727	5,097.66	83.6748	5,097.66	83.4121	5,097.66	82.1191	5,097.66	82.5428	5,097.66	80.8753	5,097.66	80.7381	5,097.66	78.2982	5,097.66	79.1183	5,097.66	75.8651	5,097.66	76.3521	5,097.66	73.2009	5,097.66	73.3251	5,097.66	70.3795	5,097.66	71.0818	5,097.66	68.3911	5,097.66	68.6471	5,097.66	65.8034	5,097.66	67.6466	5,097.66	63.2759	5,097.66	65.6604	5,097.66	61.6318	5,097.66	62.7134	5,097.66	57.4662	5,097.66	58.3504	5,097.66	56.428	5,097.66	54.2121	5,097.66	54.7803	5,097.66	61.376	5,097.66	63.0344
5,277.83	87.6756	5,277.83	87.2566	5,277.83	86.99	5,277.83	85.6003	5,277.83	86.2318	5,277.83	84.3489	5,277.83	84.8808	5,277.83	83.2124	5,277.83	83.7333	5,277.83	81.9142	5,277.83	82.2472	5,277.83	79.5677	5,277.83	80.4726	5,277.83	77.778	5,277.83	77.8968	5,277.83	75.2331	5,277.83	75.727	5,277.83	72.4608	5,277.83	74.2409	5,277.83	71.7582	5,277.83	71.0644	5,277.83	69.3823	5,277.83	67.7039	5,277.83	65.812	5,277.83	65.9077	5,277.83	65.7144	5,277.83	65.2269	5,277.83	63.361	5,277.83	62.5758	5,277.83	60.7818	5,277.83	55.5468	5,277.83	52.6444	5,277.83	47.4795	5,277.83	56.6468	5,277.83	57.2405	5,277.83	63.4378
5,463.87	87.5945	5,463.87	86.8993	5,463.87	87.5371	5,463.87	85.9387	5,463.87	86.4264	5,463.87	84.7965	5,463.87	85.0272	5,463.87	83.648	5,463.87	83.5669	5,463.87	81.847	5,463.87	82.1343	5,463.87	80.2171	5,463.87	79.978	5,463.87	77.9047	5,463.87	77.9175	5,463.87	75.034	5,463.87	75.4205	5,463.87	72.0127	5,463.87	72.2984	5,463.87	68.7075	5,463.87	70.3057	5,463.87	67.845	5,463.87	68.4385	5,463.87	63.486	5,463.87	66.4566	5,463.87	62.0457	5,463.87	63.902	5,463.87	61.3057	5,463.87	61.3998	5,463.87	58.3429	5,463.87	57.2642	5,463.87	45.475	5,463.87	49.5627	5,463.87	55.816	5,463.87	59.554	5,463.87	62.8269
5,657.23	87.8197	5,657.23	87.3108	5,657.23	87.1084	5,657.23	86.0431	5,657.23	86.1231	5,657.23	84.3831	5,657.23	84.7537	5,657.23	82.8487	5,657.23	83.2604	5,657.23	81.0207	5,657.23	81.443	5,657.23	78.6613	5,657.23	79.0606	5,657.23	76.3495	5,657.23	76.6951	5,657.23	74.4261	5,657.23	73.6241	5,657.23	71.0299	5,657.23	71.5124	5,657.23	69.7943	5,657.23	69.9236	5,657.23	68.0097	5,657.23	67.1798	5,657.23	65.6264	5,657.23	63.7168	5,657.23	65.0251	5,657.23	65.4362	5,657.23	61.44	5,657.23	62.6486	5,657.23	60.2502	5,657.23	57.2716	5,657.23	50.863	5,657.23	53.2133	5,657.23	53.3772	5,657.23	56.6624	5,657.23	61.4898
5,856.45	87.9555	5,856.45	87.2713	5,856.45	87.8428	5,856.45	86.0365	5,856.45	86.4361	5,856.45	84.3563	5,856.45	84.7829	5,856.45	82.904	5,856.45	83.1398	5,856.45	80.8911	5,856.45	81.8287	5,856.45	78.5635	5,856.45	79.8302	5,856.45	76.6689	5,856.45	77.1197	5,856.45	74.4381	5,856.45	75.1985	5,856.45	72.5035	5,856.45	72.4234	5,856.45	69.8188	5,856.45	69.6664	5,856.45	67.6365	5,856.45	67.6471	5,856.45	66.258	5,856.45	65.6297	5,856.45	64.6262	5,856.45	64.5339	5,856.45	63.5908	5,856.45	61.2694	5,856.45	56.6412	5,856.45	57.9381	5,856.45	50.9184	5,856.45	56.7714	5,856.45	52.306	5,856.45	57.6538	5,856.45	62.2196
6,062.99	87.5246	6,062.99	86.7617	6,062.99	87.0562	6,062.99	85.167	6,062.99	85.7845	6,062.99	83.4479	6,062.99	84.2628	6,062.99	82.4262	6,062.99	83.1667	6,062.99	81.0094	6,062.99	81.7903	6,062.99	78.8166	6,062.99	79.3213	6,062.99	76.693	6,062.99	77.1722	6,062.99	73.9486	6,062.99	74.3488	6,062.99	71.265	6,062.99	72.3789	6,062.99	68.2684	6,062.99	69.2967	6,062.99	67.148	6,062.99	66.8336	6,062.99	65.372	6,062.99	64.1328	6,062.99	65.3705	6,062.99	65.0331	6,062.99	60.2933	6,062.99	62.1834	6,062.99	51.7868	6,062.99	56.6484	6,062.99	51.7382	6,062.99	57.3923	6,062.99	53.2786	6,062.99	56.698	6,062.99	61.7673
6,276.86	87.3436	6,276.86	86.7087	6,276.86	87.0212	6,276.86	85.4344	6,276.86	85.6765	6,276.86	84.6256	6,276.86	84.4075	6,276.86	83.3877	6,276.86	83.0536	6,276.86	81.4258	6,276.86	81.4287	6,276.86	78.9212	6,276.86	79.6207	6,276.86	76.3268	6,276.86	76.8869	6,276.86	73.4287	6,276.86	74.7692	6,276.86	70.9387	6,276.86	72.7133	6,276.86	68.2027	6,276.86	70.1974	6,276.86	66.0459	6,276.86	67.6138	6,276.86	64.9468	6,276.86	64.9025	6,276.86	64.1374	6,276.86	64.916	6,276.86	61.8446	6,276.86	62.8288	6,276.86	58.0748	6,276.86	59.51	6,276.86	52.5066	6,276.86	58.3298	6,276.86	46.337	6,276.86	55.5097	6,276.86	60.4988
6,498.05	88.0848	6,498.05	87.2709	6,498.05	87.2552	6,498.05	85.8919	6,498.05	86.1199	6,498.05	84.7047	6,498.05	84.935	6,498.05	83.2359	6,498.05	83.6474	6,498.05	81.0588	6,498.05	81.7295	6,498.05	78.6174	6,498.05	79.4112	6,498.05	75.2901	6,498.05	76.9005	6,498.05	73.4017	6,498.05	74.8263	6,498.05	71.0591	6,498.05	71.5579	6,498.05	68.176	6,498.05	69.4767	6,498.05	66.171	6,498.05	67.3134	6,498.05	64.7731	6,498.05	63.9877	6,498.05	64.6251	6,498.05	64.7417	6,498.05	62.2949	6,498.05	62.8528	6,498.05	56.4712	6,498.05	56.0302	6,498.05	51.8883	6,498.05	54.4711	6,498.05	57.5307	6,498.05	58.1727	6,498.05	61.6031
6,726.56	87.4745	6,726.56	86.5792	6,726.56	87.2062	6,726.56	85.5143	6,726.56	85.867	6,726.56	84.5261	6,726.56	84.9052	6,726.56	82.9774	6,726.56	83.3881	6,726.56	80.6523	6,726.56	81.4328	6,726.56	78.883	6,726.56	79.3607	6,726.56	76.7745	6,726.56	76.9539	6,726.56	74.0027	6,726.56	73.9481	6,726.56	71.3514	6,726.56	71.7334	6,726.56	69.1537	6,726.56	69.6225	6,726.56	65.596	6,726.56	66.3161	6,726.56	66.1183	6,726.56	64.9968	6,726.56	63.8912	6,726.56	64.0215	6,726.56	62.6021	6,726.56	63.1217	6,726.56	60.47	6,726.56	61.3136	6,726.56	53.0544	6,726.56	53.0273	6,726.56	54.3631	6,726.56	57.2001	6,726.56	59.6007
6,963.87	87.7301	6,963.87	86.8904	6,963.87	87.0274	6,963.87	85.7737	6,963.87	86.0606	6,963.87	85.0301	6,963.87	85.0068	6,963.87	83.7198	6,963.87	83.6111	6,963.87	81.3276	6,963.87	81.7787	6,963.87	79.3074	6,963.87	79.7052	6,963.87	76.8309	6,963.87	77.6158	6,963.87	74.7651	6,963.87	74.8448	6,963.87	71.6578	6,963.87	71.8998	6,963.87	68.0658	6,963.87	70.2971	6,963.87	67.2584	6,963.87	66.8379	6,963.87	64.9825	6,963.87	64.9924	6,963.87	63.6765	6,963.87	64.3583	6,963.87	60.6881	6,963.87	62.5544	6,963.87	60.5268	6,963.87	60.9638	6,963.87	54.3182	6,963.87	58.3978	6,963.87	56.2634	6,963.87	54.4322	6,963.87	59.0821
7,209.96	87.413	7,209.96	86.834	7,209.96	87.0474	7,209.96	86.4924	7,209.96	86.2388	7,209.96	85.2257	7,209.96	85.2115	7,209.96	83.4595	7,209.96	83.9649	7,209.96	81.2142	7,209.96	82.3077	7,209.96	79.2022	7,209.96	79.9579	7,209.96	76.9831	7,209.96	77.8518	7,209.96	74.0501	7,209.96	74.9334	7,209.96	71.1454	7,209.96	72.0296	7,209.96	68.5455	7,209.96	70.4328	7,209.96	66.2625	7,209.96	67.4597	7,209.96	67.576	7,209.96	65.9593	7,209.96	61.9248	7,209.96	64.0106	7,209.96	63.1233	7,209.96	63.2694	7,209.96	62.769	7,209.96	62.8811	7,209.96	53.841	7,209.96	53.8028	7,209.96	56.9374	7,209.96	57.8871	7,209.96	60.5349
7,464.84	86.7615	7,464.84	86.6271	7,464.84	86.8327	7,464.84	86.4309	7,464.84	86.4381	7,464.84	85.2362	7,464.84	85.5347	7,464.84	83.4765	7,464.84	83.9448	7,464.84	81.3543	7,464.84	82.2822	7,464.84	79.1914	7,464.84	80.4198	7,464.84	76.617	7,464.84	77.8275	7,464.84	73.405	7,464.84	75.333	7,464.84	71.5247	7,464.84	71.9785	7,464.84	68.2631	7,464.84	69.38	7,464.84	67.1204	7,464.84	67.8447	7,464.84	67.1123	7,464.84	65.0511	7,464.84	63.8244	7,464.84	63.8655	7,464.84	62.5691	7,464.84	63.8507	7,464.84	61.3724	7,464.84	61.8895	7,464.84	53.8333	7,464.84	56.2863	7,464.84	55.7616	7,464.84	55.2694	7,464.84	60.1143
7,727.05	86.8094	7,727.05	86.6282	7,727.05	86.6756	7,727.05	86.2344	7,727.05	86.677	7,727.05	85.1358	7,727.05	85.5261	7,727.05	83.2767	7,727.05	84.2458	7,727.05	81.5007	7,727.05	82.6883	7,727.05	79.4477	7,727.05	80.4596	7,727.05	76.8272	7,727.05	77.8165	7,727.05	73.9467	7,727.05	74.8458	7,727.05	71.4613	7,727.05	72.8258	7,727.05	68.719	7,727.05	70.4798	7,727.05	66.8854	7,727.05	67.5283	7,727.05	66.0531	7,727.05	64.2391	7,727.05	62.8625	7,727.05	64.7253	7,727.05	63.1911	7,727.05	63.7503	7,727.05	62.2053	7,727.05	63.4262	7,727.05	54.7999	7,727.05	58.1539	7,727.05	54.701	7,727.05	55.7297	7,727.05	60.1684
7,999.51	86.5916	7,999.51	86.5472	7,999.51	86.819	7,999.51	86.3983	7,999.51	86.821	7,999.51	85.0509	7,999.51	85.5992	7,999.51	83.4699	7,999.51	84.2133	7,999.51	81.8951	7,999.51	82.6761	7,999.51	79.4796	7,999.51	80.4523	7,999.51	76.8227	7,999.51	77.6374	7,999.51	73.2775	7,999.51	74.8346	7,999.51	71.4808	7,999.51	71.8131	7,999.51	67.6357	7,999.51	69.6722	7,999.51	64.7755	7,999.51	68.0918	7,999.51	65.8692	7,999.51	64.9869	7,999.51	61.9185	7,999.51	64.013	7,999.51	61.0674	7,999.51	63.2768	7,999.51	61.6533	7,999.51	62.3752	7,999.51	55.4899	7,999.51	57.765	7,999.51	54.0477	7,999.51	55.7392	7,999.51	60.4995
8,282.23	86.161	8,282.23	86.4577	8,282.23	86.6731	8,282.23	86.3214	8,282.23	86.7007	8,282.23	84.7454	8,282.23	85.3701	8,282.23	83.3535	8,282.23	83.9467	8,282.23	81.6791	8,282.23	82.2311	8,282.23	79.0484	8,282.23	79.8804	8,282.23	76.219	8,282.23	77.5325	8,282.23	72.9205	8,282.23	74.6839	8,282.23	70.5146	8,282.23	72.2477	8,282.23	66.8068	8,282.23	69.4584	8,282.23	64.6668	8,282.23	67.2231	8,282.23	63.3825	8,282.23	64.1306	8,282.23	62.1851	8,282.23	65.0179	8,282.23	59.346	8,282.23	62.1936	8,282.23	59.7657	8,282.23	62.3801	8,282.23	54.3424	8,282.23	56.5898	8,282.23	55.8552	8,282.23	56.0441	8,282.23	59.0178
8,573.73	85.784	8,573.73	86.2447	8,573.73	86.5229	8,573.73	86.0864	8,573.73	86.3942	8,573.73	84.491	8,573.73	85.0917	8,573.73	83.2585	8,573.73	83.6719	8,573.73	81.307	8,573.73	81.9358	8,573.73	78.6449	8,573.73	79.5534	8,573.73	75.6466	8,573.73	76.9369	8,573.73	73.1902	8,573.73	74.8723	8,573.73	70.2543	8,573.73	72.0025	8,573.73	67.8521	8,573.73	69.6166	8,573.73	64.5471	8,573.73	66.7636	8,573.73	63.8994	8,573.73	64.1529	8,573.73	58.9155	8,573.73	64.1013	8,573.73	59.6336	8,573.73	62.0762	8,573.73	59.9055	8,573.73	60.5204	8,573.73	54.46	8,573.73	57.2301	8,573.73	54.0429	8,573.73	57.2424	8,573.73	59.5339
8,876.95	85.8383	8,876.95	86.3562	8,876.95	86.0053	8,876.95	85.7065	8,876.95	86.0046	8,876.95	84.3721	8,876.95	84.8746	8,876.95	83.1839	8,876.95	83.2364	8,876.95	80.8781	8,876.95	81.1799	8,876.95	77.9709	8,876.95	79.2511	8,876.95	75.3147	8,876.95	76.8662	8,876.95	73.2607	8,876.95	74.4749	8,876.95	70.8025	8,876.95	71.1125	8,876.95	67.5774	8,876.95	68.8262	8,876.95	64.2192	8,876.95	66.0266	8,876.95	62.4401	8,876.95	63.9194	8,876.95	59.4555	8,876.95	62.4885	8,876.95	58.9115	8,876.95	61.2277	8,876.95	58.3214	8,876.95	58.2038	8,876.95	54.93	8,876.95	52.4032	8,876.95	55.4176	8,876.95	57.7521	8,876.95	57.9193
9,188.96	85.9399	9,188.96	86.2878	9,188.96	85.5688	9,188.96	85.1626	9,188.96	85.7032	9,188.96	84.1869	9,188.96	84.7073	9,188.96	82.8887	9,188.96	82.7802	9,188.96	79.9405	9,188.96	80.6521	9,188.96	77.7935	9,188.96	78.5224	9,188.96	75.7343	9,188.96	76.2119	9,188.96	72.9178	9,188.96	73.5775	9,188.96	69.9552	9,188.96	70.0679	9,188.96	67.1236	9,188.96	67.8328	9,188.96	63.7008	9,188.96	64.4246	9,188.96	61.3241	9,188.96	62.4058	9,188.96	59.602	9,188.96	62.2925	9,188.96	57.5701	9,188.96	59.4178	9,188.96	55.808	9,188.96	57.9633	9,188.96	52.6029	9,188.96	52.5762	9,188.96	56.4375	9,188.96	57.003	9,188.96	56.5802
9,514.16	86.4058	9,514.16	86.1721	9,514.16	85.5563	9,514.16	84.864	9,514.16	85.352	9,514.16	84.219	9,514.16	84.4808	9,514.16	82.1239	9,514.16	82.3668	9,514.16	79.4792	9,514.16	80.2723	9,514.16	77.8614	9,514.16	78.0742	9,514.16	75.2579	9,514.16	75.1706	9,514.16	71.6361	9,514.16	72.3114	9,514.16	68.2526	9,514.16	68.5037	9,514.16	64.2693	9,514.16	66.1124	9,514.16	60.7132	9,514.16	63.7501	9,514.16	59.5473	9,514.16	61.155	9,514.16	59.6336	9,514.16	59.8447	9,514.16	56.6135	9,514.16	58.4809	9,514.16	54.2711	9,514.16	55.261	9,514.16	51.3722	9,514.16	53.3453	9,514.16	55.5036	9,514.16	56.2954	9,514.16	53.3728
9,849.61	86.7713	9,849.61	86.0043	9,849.61	85.864	9,849.61	84.901	9,849.61	85.2096	9,849.61	84.2844	9,849.61	84.4138	9,849.61	81.7473	9,849.61	82.3351	9,849.61	79.8651	9,849.61	80.0005	9,849.61	77.6226	9,849.61	77.5178	9,849.61	73.6762	9,849.61	74.2043	9,849.61	69.4345	9,849.61	71.4646	9,849.61	65.9773	9,849.61	67.699	9,849.61	61.9607	9,849.61	65.4598	9,849.61	59.0205	9,849.61	62.8677	9,849.61	57.8108	9,849.61	60.856	9,849.61	57.0593	9,849.61	59.0707	9,849.61	55.4107	9,849.61	57.6404	9,849.61	51.6983	9,849.61	53.8278	9,849.61	48.9478	9,849.61	53.7035	9,849.61	55.973	9,849.61	55.736	9,849.61	53.6072
10,196.8	86.7915	10,196.8	85.6599	10,196.8	85.9276	10,196.8	85.1175	10,196.8	85.2608	10,196.8	84.0367	10,196.8	84.4979	10,196.8	81.7856	10,196.8	82.5635	10,196.8	80.17	10,196.8	79.8915	10,196.8	76.6669	10,196.8	76.9684	10,196.8	71.9693	10,196.8	73.7323	10,196.8	68.3127	10,196.8	70.2672	10,196.8	65.7087	10,196.8	66.8679	10,196.8	61.7747	10,196.8	64.629	10,196.8	59.201	10,196.8	61.3621	10,196.8	57.5539	10,196.8	59.1577	10,196.8	55.3526	10,196.8	57.2045	10,196.8	55.9461	10,196.8	55.6012	10,196.8	49.5913	10,196.8	51.3185	10,196.8	48.5208	10,196.8	53.0993	10,196.8	56.0232	10,196.8	54.3943	10,196.8	52.7045
10,555.7	86.4554	10,555.7	85.6448	10,555.7	85.993	10,555.7	85.2831	10,555.7	85.4031	10,555.7	83.6423	10,555.7	84.4096	10,555.7	81.9826	10,555.7	82.7784	10,555.7	79.6777	10,555.7	79.7999	10,555.7	75.3156	10,555.7	75.9199	10,555.7	71.8438	10,555.7	72.2142	10,555.7	68.6587	10,555.7	68.686	10,555.7	66.3888	10,555.7	65.5346	10,555.7	62.2335	10,555.7	62.7951	10,555.7	59.1989	10,555.7	59.7216	10,555.7	58.334	10,555.7	57.6588	10,555.7	55.3142	10,555.7	55.2565	10,555.7	56.3891	10,555.7	52.2718	10,555.7	49.4767	10,555.7	49.2205	10,555.7	50.15	10,555.7	51.1562	10,555.7	54.6715	10,555.7	52.7849	10,555.7	51.8585
10,927.7	86.1772	10,927.7	85.8095	10,927.7	86.1926	10,927.7	85.1942	10,927.7	85.4397	10,927.7	83.3491	10,927.7	84.1128	10,927.7	81.7389	10,927.7	82.5234	10,927.7	78.4992	10,927.7	79.461	10,927.7	74.3952	10,927.7	75.1292	10,927.7	71.6979	10,927.7	71.3951	10,927.7	68.4474	10,927.7	67.5517	10,927.7	65.157	10,927.7	64.4933	10,927.7	61.1033	10,927.7	61.3115	10,927.7	58.3622	10,927.7	58.5653	10,927.7	56.8253	10,927.7	56.8167	10,927.7	53.6572	10,927.7	53.1899	10,927.7	54.2642	10,927.7	51.5412	10,927.7	48.7383	10,927.7	46.1555	10,927.7	49.9974	10,927.7	48.7278	10,927.7	53.7161	10,927.7	50.6859	10,927.7	49.3751
11,313	86.1109	11,313	85.9717	11,313	86.2563	11,313	85.1374	11,313	85.3247	11,313	83.227	11,313	83.745	11,313	81.1891	11,313	82.054	11,313	77.4702	11,313	78.661	11,313	73.8204	11,313	74.5091	11,313	70.6135	11,313	70.8416	11,313	67.0715	11,313	67.0458	11,313	63.4705	11,313	63.7953	11,313	59.1457	11,313	60.1353	11,313	57.7197	11,313	57.751	11,313	55.1947	11,313	55.8389	11,313	52.263	11,313	48.1889	11,313	51.1669	11,313	49.9923	11,313	43.9722	11,313	44.9568	11,313	50.5895	11,313	44.4098	11,313	52.6052	11,313	50.4482	11,313	49.2834
11,712.9	86.0738	11,712.9	86.0173	11,712.9	86.1227	11,712.9	84.9573	11,712.9	85.2433	11,712.9	83.2362	11,712.9	83.6174	11,712.9	80.6454	11,712.9	81.5999	11,712.9	76.6655	11,712.9	77.8156	11,712.9	73.1793	11,712.9	73.7259	11,712.9	69.6659	11,712.9	69.947	11,712.9	65.3527	11,712.9	65.8838	11,712.9	63.0258	11,712.9	62.8468	11,712.9	58.6115	11,712.9	59.1427	11,712.9	56.4095	11,712.9	57.4748	11,712.9	54.58	11,712.9	54.0468	11,712.9	50.2165	11,712.9	49.7185	11,712.9	50.2969	11,712.9	47.0939	11,712.9	40.9464	11,712.9	44.1448	11,712.9	49.6546	11,712.9	44.9944	11,712.9	50.6719	11,712.9	49.0836	11,712.9	49.8961
12,126	86.1767	12,126	85.9551	12,126	86.0193	12,126	84.6818	12,126	85.1703	12,126	83.0735	12,126	83.5389	12,126	80.0535	12,126	81.1335	12,126	76.0711	12,126	77.067	12,126	72.3419	12,126	72.8981	12,126	68.0066	12,126	68.6599	12,126	63.7383	12,126	64.3659	12,126	61.5925	12,126	61.4248	12,126	57.3146	12,126	57.6168	12,126	55.9266	12,126	56.4868	12,126	53.0786	12,126	53.9975	12,126	50.2967	12,126	48.1483	12,126	49.064	12,126	45.5961	12,126	43.9468	12,126	46.6617	12,126	50.0617	12,126	44.4466	12,126	50.0145	12,126	49.0946	12,126	49.6807
12,553.7	86.1835	12,553.7	85.7571	12,553.7	85.8191	12,553.7	84.5589	12,553.7	84.986	12,553.7	82.8611	12,553.7	83.3743	12,553.7	79.2773	12,553.7	80.6191	12,553.7	75.3541	12,553.7	76.5645	12,553.7	70.9718	12,553.7	72.1478	12,553.7	65.9361	12,553.7	67.4749	12,553.7	63.3331	12,553.7	64.3051	12,553.7	61.1363	12,553.7	61.3165	12,553.7	57.5068	12,553.7	58.26	12,553.7	55.6902	12,553.7	56.8282	12,553.7	52.3228	12,553.7	53.343	12,553.7	51.423	12,553.7	47.8958	12,553.7	47.3945	12,553.7	45.7761	12,553.7	45.7589	12,553.7	49.5029	12,553.7	50.0885	12,553.7	44.5781	12,553.7	51.3585	12,553.7	47.7091	12,553.7	49.6096
12,996.1	86.2097	12,996.1	85.5186	12,996.1	85.6343	12,996.1	84.3212	12,996.1	84.8536	12,996.1	82.4464	12,996.1	83.1039	12,996.1	78.5941	12,996.1	79.8398	12,996.1	74.6913	12,996.1	75.8074	12,996.1	69.5786	12,996.1	71.2706	12,996.1	66.0395	12,996.1	67.1674	12,996.1	64.0024	12,996.1	65.4187	12,996.1	62.4056	12,996.1	62.299	12,996.1	59.0139	12,996.1	58.8683	12,996.1	57.4356	12,996.1	57.3694	12,996.1	52.7162	12,996.1	54.319	12,996.1	51.7217	12,996.1	46.9548	12,996.1	48.3409	12,996.1	44.0263	12,996.1	46.8256	12,996.1	49.0319	12,996.1	48.022	12,996.1	46.9031	12,996.1	52.1279	12,996.1	44.3195	12,996.1	48.1442
13,454.6	86.175	13,454.6	85.3592	13,454.6	85.4458	13,454.6	84.3405	13,454.6	84.796	13,454.6	81.9915	13,454.6	82.8114	13,454.6	78.0047	13,454.6	79.1706	13,454.6	73.9696	13,454.6	75.2864	13,454.6	69.5506	13,454.6	70.8839	13,454.6	67.5878	13,454.6	68.1961	13,454.6	65.5054	13,454.6	67.0099	13,454.6	63.4224	13,454.6	63.4668	13,454.6	59.8526	13,454.6	60.6528	13,454.6	57.7167	13,454.6	58.2891	13,454.6	52.9599	13,454.6	54.3023	13,454.6	52.2513	13,454.6	49.6031	13,454.6	46.8979	13,454.6	42.1191	13,454.6	46.4133	13,454.6	48.6875	13,454.6	44.6864	13,454.6	46.3368	13,454.6	52.4502	13,454.6	38.9273	13,454.6	45.4988
13,929.2	86.0825	13,929.2	85.2656	13,929.2	85.3955	13,929.2	84.4156	13,929.2	84.8358	13,929.2	81.7131	13,929.2	82.4479	13,929.2	77.6955	13,929.2	78.7684	13,929.2	73.4348	13,929.2	74.7234	13,929.2	70.6745	13,929.2	71.6121	13,929.2	69.3522	13,929.2	70.4046	13,929.2	66.6219	13,929.2	69.2519	13,929.2	64.6298	13,929.2	64.956	13,929.2	60.5905	13,929.2	61.7317	13,929.2	57.7664	13,929.2	58.7791	13,929.2	53.6603	13,929.2	53.4135	13,929.2	52.1609	13,929.2	51.7972	13,929.2	45.1651	13,929.2	40.424	13,929.2	44.846	13,929.2	47.6106	13,929.2	43.3068	13,929.2	47.6109	13,929.2	52.6628	13,929.2	25.0647	13,929.2	44.2498
14,419.9	85.9255	14,419.9	85.3006	14,419.9	85.3373	14,419.9	84.3078	14,419.9	84.8451	14,419.9	81.1513	14,419.9	82.0069	14,419.9	76.9819	14,419.9	78.34	14,419.9	73.1712	14,419.9	73.9701	14,419.9	72.0937	14,419.9	72.9673	14,419.9	70.7534	14,419.9	71.874	14,419.9	67.9944	14,419.9	70.1014	14,419.9	65.4951	14,419.9	65.5347	14,419.9	61.2778	14,419.9	62.6367	14,419.9	58.494	14,419.9	59.5876	14,419.9	54.2	14,419.9	54.7132	14,419.9	52.2808	14,419.9	52.7486	14,419.9	43.5031	14,419.9	34.1667	14,419.9	43.8655	14,419.9	46.6372	14,419.9	44.5218	14,419.9	48.2027	14,419.9	50.941	14,419.9	43.4822	14,419.9	42.5682
14,928.2	85.8629	14,928.2	85.4329	14,928.2	85.4827	14,928.2	84.1188	14,928.2	84.8387	14,928.2	80.9242	14,928.2	81.8238	14,928.2	76.3705	14,928.2	77.8263	14,928.2	73.2186	14,928.2	74.1061	14,928.2	73.3842	14,928.2	74.0354	14,928.2	71.9015	14,928.2	72.6297	14,928.2	68.7824	14,928.2	69.9675	14,928.2	65.3081	14,928.2	65.4715	14,928.2	61.5682	14,928.2	62.7712	14,928.2	58.4934	14,928.2	59.5131	14,928.2	54.3013	14,928.2	54.0015	14,928.2	52.5061	14,928.2	53.7527	14,928.2	41.5254	14,928.2	40.6802	14,928.2	46.0888	14,928.2	45.9965	14,928.2	45.6802	14,928.2	42.1508	14,928.2	47.9457	14,928.2	45.8637	14,928.2	41.3113
15,455.6	85.6997	15,455.6	85.362	15,455.6	85.4319	15,455.6	83.7366	15,455.6	84.415	15,455.6	80.2887	15,455.6	81.3414	15,455.6	75.158	15,455.6	76.6963	15,455.6	74.1575	15,455.6	74.5926	15,455.6	74.4127	15,455.6	75.0951	15,455.6	72.5009	15,455.6	73.1252	15,455.6	68.8581	15,455.6	70.5893	15,455.6	65.356	15,455.6	65.8912	15,455.6	61.7693	15,455.6	62.7835	15,455.6	58.2069	15,455.6	58.9434	15,455.6	55.8756	15,455.6	54.1163	15,455.6	51.6137	15,455.6	54.0945	15,455.6	42.8654	15,455.6	40.5821	15,455.6	49.3392	15,455.6	44.4312	15,455.6	46.994	15,455.6	38.4654	15,455.6	45.9942	15,455.6	49.1208	15,455.6	44.6857
16,000.5	85.6719	16,000.5	85.2162	16,000.5	85.4222	16,000.5	83.0121	16,000.5	83.9261	16,000.5	78.9785	16,000.5	80.1735	16,000.5	74.4206	16,000.5	75.4453	16,000.5	75.1693	16,000.5	75.6102	16,000.5	75.3427	16,000.5	76.1785	16,000.5	72.8191	16,000.5	73.7481	16,000.5	68.5244	16,000.5	70.2906	16,000.5	64.7174	16,000.5	65.6376	16,000.5	61.0565	16,000.5	62.0688	16,000.5	57.0388	16,000.5	58.0798	16,000.5	54.6736	16,000.5	53.6858	16,000.5	52.1083	16,000.5	54.2139	16,000.5	40.6626	16,000.5	41.0618	16,000.5	49.5772	16,000.5	45.0861	16,000.5	45.6449	16,000.5	31.2059	16,000.5	48.5191	16,000.5	47.9402	16,000.5	44.3713
16,564.5	85.7605	16,564.5	84.9494	16,564.5	85.2687	16,564.5	81.5056	16,564.5	82.6567	16,564.5	76.6114	16,564.5	77.5395	16,564.5	74.4802	16,564.5	74.9402	16,564.5	75.6662	16,564.5	76.1504	16,564.5	74.248	16,564.5	75.3877	16,564.5	70.4551	16,564.5	71.7861	16,564.5	64.9843	16,564.5	67.3242	16,564.5	61.0808	16,564.5	62.7755	16,564.5	57.7402	16,564.5	57.7757	16,564.5	49.9657	16,564.5	53.1623	16,564.5	48.195	16,564.5	47.6167	16,564.5	49.867	16,564.5	51.9713	16,564.5	39.3839	16,564.5	37.287	16,564.5	46.4444	16,564.5	39.5324	16,564.5	37.0162	16,564.5	39.2277	16,564.5	48.5296	16,564.5	44.1415	16,564.5	44.0403
17,148.9	85.5632	17,148.9	84.3608	17,148.9	84.6075	17,148.9	80.979	17,148.9	81.7878	17,148.9	77.661	17,148.9	78.2229	17,148.9	76.2431	17,148.9	77.1387	17,148.9	74.1227	17,148.9	75.2903	17,148.9	68.6194	17,148.9	70.4742	17,148.9	60.8962	17,148.9	63.5379	17,148.9	53.0899	17,148.9	55.2169	17,148.9	46.2488	17,148.9	50.7273	17,148.9	45.006	17,148.9	27.1711	17,148.9	44.0228	17,148.9	31.7303	17,148.9	29.4222	17,148.9	33.0757	17,148.9	40.6087	17,148.9	46.0087	17,148.9	36.1872	17,148.9	35.0851	17,148.9	40.1117	17,148.9	35.716	17,148.9	37.6678	17,148.9	30.132	17,148.9	49.2372	17,148.9	46.1312	17,148.9	42.4933
17,752.4	85.3173	17,752.4	84.0494	17,752.4	84.2312	17,752.4	81.5063	17,752.4	81.9961	17,752.4	79.3215	17,752.4	79.7266	17,752.4	77.2344	17,752.4	78.3494	17,752.4	73.1501	17,752.4	74.4235	17,752.4	65.7888	17,752.4	67.3536	17,752.4	57.5653	17,752.4	56.5632	17,752.4	54.1711	17,752.4	55.4765	17,752.4	55.7309	17,752.4	51.8564	17,752.4	51.0098	17,752.4	52.3211	17,752.4	50.2487	17,752.4	49.3507	17,752.4	39.6204	17,752.4	45.4744	17,752.4	41.6917	17,752.4	40.8522	17,752.4	35.3201	17,752.4	41.475	17,752.4	37.1878	17,752.4	39.5579	17,752.4	42.9528	17,752.4	43.1632	17,752.4	49.3906	17,752.4	46.0468	17,752.4	36.6223
18,379.4	85.0018	18,379.4	83.8705	18,379.4	83.994	18,379.4	81.7459	18,379.4	82.1432	18,379.4	79.8916	18,379.4	80.2088	18,379.4	77.4284	18,379.4	78.591	18,379.4	73.0799	18,379.4	74.3376	18,379.4	67.4613	18,379.4	68.0233	18,379.4	62.3323	18,379.4	62.4633	18,379.4	60.1375	18,379.4	60.5172	18,379.4	59.2912	18,379.4	57.2631	18,379.4	54.2156	18,379.4	55.9394	18,379.4	50.0816	18,379.4	52.8018	18,379.4	41.491	18,379.4	46.5123	18,379.4	44.5755	18,379.4	48.2896	18,379.4	37.9198	18,379.4	41.412	18,379.4	40.2447	18,379.4	36.9123	18,379.4	40.1479	18,379.4	46.481	18,379.4	49.1506	18,379.4	40.2136	18,379.4	28.647
19,026.9	84.7852	19,026.9	83.7414	19,026.9	83.8343	19,026.9	81.6313	19,026.9	82.1242	19,026.9	79.8258	19,026.9	80.2931	19,026.9	77.4441	19,026.9	78.3657	19,026.9	72.8501	19,026.9	74.0922	19,026.9	67.9512	19,026.9	68.1979	19,026.9	64.0155	19,026.9	64.454	19,026.9	62.2456	19,026.9	62.1544	19,026.9	60.0804	19,026.9	58.5163	19,026.9	54.8016	19,026.9	56.125	19,026.9	48.9105	19,026.9	52.3412	19,026.9	43.3948	19,026.9	46.8477	19,026.9	47.5474	19,026.9	49.3058	19,026.9	41.7425	19,026.9	37.8464	19,026.9	36.941	19,026.9	35.2557	19,026.9	37.3239	19,026.9	46.9074	19,026.9	48.6471	19,026.9	38.4353	19,026.9	33.0634
19,697.8	84.5256	19,697.8	83.5332	19,697.8	83.7123	19,697.8	81.624	19,697.8	82.1037	19,697.8	80.0503	19,697.8	80.5268	19,697.8	77.4854	19,697.8	78.2789	19,697.8	72.5642	19,697.8	73.6961	19,697.8	67.3664	19,697.8	68.4372	19,697.8	64.3411	19,697.8	65.3638	19,697.8	61.9095	19,697.8	62.7586	19,697.8	59.2327	19,697.8	58.5426	19,697.8	54.079	19,697.8	55.5575	19,697.8	46.826	19,697.8	51.47	19,697.8	42.7802	19,697.8	46.4962	19,697.8	45.3237	19,697.8	49.3274	19,697.8	37.8701	19,697.8	34.5459	19,697.8	32.6122	19,697.8	33.5958	19,697.8	38.424	19,697.8	45.3288	19,697.8	46.1467	19,697.8	43.0628	19,697.8	37.1734
19,999.5	84.4494	19,999.5	83.5261	19,999.5	83.7357	19,999.5	81.861	19,999.5	82.2116	19,999.5	80.4571	19,999.5	80.7088	19,999.5	77.6881	19,999.5	78.5132	19,999.5	72.1116	19,999.5	73.5837	19,999.5	67.1584	19,999.5	68.3592	19,999.5	63.2189	19,999.5	66.5002	19,999.5	59.0974	19,999.5	62.1444	19,999.5	57.2888	19,999.5	58.6124	19,999.5	51.8695	19,999.5	58.2212	19,999.5	51.0606	19,999.5	46.6501	19,999.5	45.001	19,999.5	51.977	19,999.5	51.229	19,999.5	50.1809	19,999.5	48.2347	19,999.5	52.0391	19,999.5	42.7577	19,999.5	47.2675	19,999.5	52.8358	19,999.5	44.9454	19,999.5	38.2358	19,999.5	42.549	19,999.5	38.6056
