"SPL Vertical"
"On-Axis"		"10°"		"-10°"		"20°"		"-20°"		"30°"		"-30°"		"40°"		"-40°"		"50°"		"-50°"		"60°"		"-60°"		"70°"		"-70°"		"80°"		"-80°"		"90°"		"-90°"		"100°"		"-100°"		"110°"		"-110°"		"120°"		"-120°"		"130°"		"-130°"		"140°"		"-140°"		"150°"		"-150°"		"160°"		"-160°"		"170°"		"-170°"		"180°"
"Frequency / Hz"	"Sound Pressure Level / dB (re 20 µPa/V)  [2.83  V @ 1. m]"	"Frequency / Hz"	"Sound Pressure Level / dB (re 20 µPa/V)  [2.83  V @ 1. m]"	"Frequency / Hz"	"Sound Pressure Level / dB (re 20 µPa/V)  [2.83  V @ 1. m]"	"Frequency / Hz"	"Sound Pressure Level / dB (re 20 µPa/V)  [2.83  V @ 1. m]"	"Frequency / Hz"	"Sound Pressure Level / dB (re 20 µPa/V)  [2.83  V @ 1. m]"	"Frequency / Hz"	"Sound Pressure Level / dB (re 20 µPa/V)  [2.83  V @ 1. m]"	"Frequency / Hz"	"Sound Pressure Level / dB (re 20 µPa/V)  [2.83  V @ 1. m]"	"Frequency / Hz"	"Sound Pressure Level / dB (re 20 µPa/V)  [2.83  V @ 1. m]"	"Frequency / Hz"	"Sound Pressure Level / dB (re 20 µPa/V)  [2.83  V @ 1. m]"	"Frequency / Hz"	"Sound Pressure Level / dB (re 20 µPa/V)  [2.83  V @ 1. m]"	"Frequency / Hz"	"Sound Pressure Level / dB (re 20 µPa/V)  [2.83  V @ 1. m]"	"Frequency / Hz"	"Sound Pressure Level / dB (re 20 µPa/V)  [2.83  V @ 1. m]"	"Frequency / Hz"	"Sound Pressure Level / dB (re 20 µPa/V)  [2.83  V @ 1. m]"	"Frequency / Hz"	"Sound Pressure Level / dB (re 20 µPa/V)  [2.83  V @ 1. m]"	"Frequency / Hz"	"Sound Pressure Level / dB (re 20 µPa/V)  [2.83  V @ 1. m]"	"Frequency / Hz"	"Sound Pressure Level / dB (re 20 µPa/V)  [2.83  V @ 1. m]"	"Frequency / Hz"	"Sound Pressure Level / dB (re 20 µPa/V)  [2.83  V @ 1. m]"	"Frequency / Hz"	"Sound Pressure Level / dB (re 20 µPa/V)  [2.83  V @ 1. m]"	"Frequency / Hz"	"Sound Pressure Level / dB (re 20 µPa/V)  [2.83  V @ 1. m]"	"Frequency / Hz"	"Sound Pressure Level / dB (re 20 µPa/V)  [2.83  V @ 1. m]"	"Frequency / Hz"	"Sound Pressure Level / dB (re 20 µPa/V)  [2.83  V @ 1. m]"	"Frequency / Hz"	"Sound Pressure Level / dB (re 20 µPa/V)  [2.83  V @ 1. m]"	"Frequency / Hz"	"Sound Pressure Level / dB (re 20 µPa/V)  [2.83  V @ 1. m]"	"Frequency / Hz"	"Sound Pressure Level / dB (re 20 µPa/V)  [2.83  V @ 1. m]"	"Frequency / Hz"	"Sound Pressure Level / dB (re 20 µPa/V)  [2.83  V @ 1. m]"	"Frequency / Hz"	"Sound Pressure Level / dB (re 20 µPa/V)  [2.83  V @ 1. m]"	"Frequency / Hz"	"Sound Pressure Level / dB (re 20 µPa/V)  [2.83  V @ 1. m]"	"Frequency / Hz"	"Sound Pressure Level / dB (re 20 µPa/V)  [2.83  V @ 1. m]"	"Frequency / Hz"	"Sound Pressure Level / dB (re 20 µPa/V)  [2.83  V @ 1. m]"	"Frequency / Hz"	"Sound Pressure Level / dB (re 20 µPa/V)  [2.83  V @ 1. m]"	"Frequency / Hz"	"Sound Pressure Level / dB (re 20 µPa/V)  [2.83  V @ 1. m]"	"Frequency / Hz"	"Sound Pressure Level / dB (re 20 µPa/V)  [2.83  V @ 1. m]"	"Frequency / Hz"	"Sound Pressure Level / dB (re 20 µPa/V)  [2.83  V @ 1. m]"	"Frequency / Hz"	"Sound Pressure Level / dB (re 20 µPa/V)  [2.83  V @ 1. m]"	"Frequency / Hz"	"Sound Pressure Level / dB (re 20 µPa/V)  [2.83  V @ 1. m]"	"Frequency / Hz"	"Sound Pressure Level / dB (re 20 µPa/V)  [2.83  V @ 1. m]"
20.5078	49.9495	20.5078	50.6575	20.5078	49.0241	20.5078	51.173	20.5078	47.9106	20.5078	51.5291	20.5078	46.819	20.5078	51.7541	20.5078	46.3062	20.5078	51.869	20.5078	46.9284	20.5078	51.8881	20.5078	48.3898	20.5078	51.8197	20.5078	49.9538	20.5078	51.6672	20.5078	51.1889	20.5078	51.4297	20.5078	51.9435	20.5078	51.1029	20.5078	52.1755	20.5078	50.679	20.5078	51.8753	20.5078	50.1463	20.5078	51.043	20.5078	49.4895	20.5078	49.6864	20.5078	48.6877	20.5078	47.8458	20.5078	47.7151	20.5078	45.6893	20.5078	46.5468	20.5078	43.7665	20.5078	45.1927	20.5078	43.0657	20.5078	43.8263
21.9727	50.8542	21.9727	51.5196	21.9727	50.2029	21.9727	52.0761	21.9727	49.8496	21.9727	52.4904	21.9727	50.1686	21.9727	52.7638	21.9727	51.2548	21.9727	52.9075	21.9727	52.7668	21.9727	52.9328	21.9727	54.2881	21.9727	52.8482	21.9727	55.5674	21.9727	52.6587	21.9727	56.4906	21.9727	52.3657	21.9727	57.0117	21.9727	51.9681	21.9727	57.1151	21.9727	51.4628	21.9727	56.8008	21.9727	50.8473	21.9727	56.0808	21.9727	50.1232	21.9727	54.9804	21.9727	49.3057	21.9727	53.5451	21.9727	48.4442	21.9727	51.8572	21.9727	47.664	21.9727	50.0729	21.9727	47.2183	21.9727	48.4729	21.9727	47.4412
23.4375	54.3864	23.4375	54.362	23.4375	54.6125	23.4375	54.4394	23.4375	55.1299	23.4375	54.5431	23.4375	55.9581	23.4375	54.6276	23.4375	57.0172	23.4375	54.6691	23.4375	58.1646	23.4375	54.6564	23.4375	59.2551	23.4375	54.5858	23.4375	60.1745	23.4375	54.4576	23.4375	60.8454	23.4375	54.2751	23.4375	61.2204	23.4375	54.0457	23.4375	61.2759	23.4375	53.7819	23.4375	61.0089	23.4375	53.5046	23.4375	60.436	23.4375	53.2465	23.4375	59.5945	23.4375	53.0544	23.4375	58.5448	23.4375	52.989	23.4375	57.3703	23.4375	53.1174	23.4375	56.1745	23.4375	53.4969	23.4375	55.0689	23.4375	54.1539
24.9023	57.5967	24.9023	57.3795	24.9023	57.9947	24.9023	57.2848	24.9023	58.61	24.9023	57.2567	24.9023	59.4311	24.9023	57.253	24.9023	60.3933	24.9023	57.2462	24.9023	61.3977	24.9023	57.2205	24.9023	62.3407	24.9023	57.1677	24.9023	63.1337	24.9023	57.0853	24.9023	63.7098	24.9023	56.9753	24.9023	64.0251	24.9023	56.8438	24.9023	64.0566	24.9023	56.7021	24.9023	63.8012	24.9023	56.5679	24.9023	63.2759	24.9023	56.4666	24.9023	62.5184	24.9023	56.4321	24.9023	61.5869	24.9023	56.5053	24.9023	60.558	24.9023	56.729	24.9023	59.5204	24.9023	57.1391	24.9023	58.5616	24.9023	57.7535
26.3672	60.572	26.3672	60.1881	26.3672	61.104	26.3672	59.9256	26.3672	61.7894	26.3672	59.7495	26.3672	62.6028	26.3672	59.6268	26.3672	63.49	26.3672	59.5318	26.3672	64.3785	26.3672	59.4468	26.3672	65.1925	26.3672	59.3611	26.3672	65.8633	26.3672	59.2702	26.3672	66.3365	26.3672	59.1747	26.3672	66.5742	26.3672	59.0803	26.3672	66.5568	26.3672	58.9978	26.3672	66.2831	26.3672	58.9443	26.3672	65.7712	26.3672	58.9426	26.3672	65.0579	26.3672	59.0205	26.3672	64.1977	26.3672	59.2076	26.3672	63.2576	26.3672	59.5307	26.3672	62.3095	26.3672	60.0073	26.3672	61.42	26.3672	60.6416
27.832	63.9895	27.832	63.5281	27.832	64.5592	27.832	63.1664	27.832	65.2315	27.832	62.8874	27.832	65.9826	27.832	62.6715	27.832	66.7714	27.832	62.5011	27.832	67.5449	27.832	62.3623	27.832	68.2449	27.832	62.2463	27.832	68.8164	27.832	62.1489	27.832	69.2134	27.832	62.0711	27.832	69.4029	27.832	62.0183	27.832	69.3682	27.832	62.0008	27.832	69.11	27.832	62.0327	27.832	68.6466	27.832	62.1308	27.832	68.0135	27.832	62.3131	27.832	67.2594	27.832	62.595	27.832	66.4405	27.832	62.9872	27.832	65.6127	27.832	63.4935	27.832	64.8241	27.832	64.1099
29.2969	68.7357	29.2969	68.2343	29.2969	69.321	29.2969	67.818	29.2969	69.9793	29.2969	67.4816	29.2969	70.6879	29.2969	67.216	29.2969	71.4122	29.2969	67.0114	29.2969	72.1075	29.2969	66.8582	29.2969	72.7242	29.2969	66.7489	29.2969	73.2129	29.2969	66.678	29.2969	73.5315	29.2969	66.6424	29.2969	73.6498	29.2969	66.6415	29.2969	73.5544	29.2969	66.6775	29.2969	73.2505	29.2969	66.755	29.2969	72.7621	29.2969	66.881	29.2969	72.13	29.2969	67.0652	29.2969	71.4062	29.2969	67.3188	29.2969	70.6463	29.2969	67.6531	29.2969	69.9008	29.2969	68.0776	29.2969	69.2091	29.2969	68.5971
30.7617	71.1493	30.7617	70.6784	30.7617	71.6942	30.7617	70.2827	30.7617	72.3036	30.7617	69.9579	30.7617	72.9576	30.7617	69.6972	30.7617	73.625	30.7617	69.4927	30.7617	74.265	30.7617	69.3373	30.7617	74.8312	30.7617	69.2252	30.7617	75.277	30.7617	69.152	30.7617	75.5622	30.7617	69.1151	30.7617	75.6586	30.7617	69.1134	30.7617	75.5536	30.7617	69.1481	30.7617	75.2534	30.7617	69.2218	30.7617	74.7823	30.7617	69.3398	30.7617	74.1802	30.7617	69.5094	30.7617	73.4973	30.7617	69.7401	30.7617	72.7863	30.7617	70.0425	30.7617	72.0943	30.7617	70.4262	30.7617	71.4573	30.7617	70.8979
32.2266	73.4316	32.2266	72.9644	32.2266	73.9645	32.2266	72.5663	32.2266	74.5525	32.2266	72.2355	32.2266	75.1763	32.2266	71.9673	32.2266	75.8068	32.2266	71.7556	32.2266	76.4065	32.2266	71.5943	32.2266	76.9328	32.2266	71.4778	32.2266	77.3426	32.2266	71.4018	32.2266	77.5983	32.2266	71.3632	32.2266	77.6733	32.2266	71.3607	32.2266	77.5564	32.2266	71.3944	32.2266	77.2544	32.2266	71.4667	32.2266	76.7917	32.2266	71.5818	32.2266	76.2077	32.2266	71.7463	32.2266	75.551	32.2266	71.9688	32.2266	74.8714	32.2266	72.259	32.2266	74.2125	32.2266	72.6258	32.2266	73.6071	32.2266	73.0752
33.6914	75.4683	33.6914	75.0159	33.6914	75.9774	33.6914	74.624	33.6914	76.5332	33.6914	74.2924	33.6914	77.1179	33.6914	74.0181	33.6914	77.7055	33.6914	73.797	33.6914	78.2618	33.6914	73.6249	33.6914	78.7475	33.6914	73.4976	33.6914	79.1226	33.6914	73.4119	33.6914	79.3519	33.6914	73.3655	33.6914	79.4107	33.6914	73.3573	33.6914	79.2886	33.6914	73.3873	33.6914	78.9927	33.6914	73.4573	33.6914	78.5468	33.6914	73.5707	33.6914	77.9887	33.6914	73.7329	33.6914	77.3644	33.6914	73.951	33.6914	76.7202	33.6914	74.2331	33.6914	76.0964	33.6914	74.5866	33.6914	75.5225	33.6914	75.0165
35.1562	77.2671	35.1562	76.8276	35.1562	77.7567	35.1562	76.4428	35.1562	78.2867	35.1562	76.1135	35.1562	78.8402	35.1562	75.8381	35.1562	79.3932	35.1562	75.6139	35.1562	79.9141	35.1562	75.4376	35.1562	80.3664	35.1562	75.3063	35.1562	80.7127	35.1562	75.2172	35.1562	80.9198	35.1562	75.1684	35.1562	80.9647	35.1562	75.159	35.1562	80.8381	35.1562	75.1888	35.1562	80.5475	35.1562	75.2591	35.1562	80.1169	35.1562	75.3727	35.1562	79.5832	35.1562	75.5338	35.1562	78.9903	35.1562	75.7483	35.1562	78.3816	35.1562	76.0226	35.1562	77.7934	35.1562	76.3628	35.1562	77.252	35.1562	76.7728
36.6211	78.5604	36.6211	78.1309	36.6211	79.0371	36.6211	77.7533	36.6211	79.5514	36.6211	77.4289	36.6211	80.0875	36.6211	77.1568	36.6211	80.6224	36.6211	76.935	36.6211	81.1262	36.6211	76.7611	36.6211	81.564	36.6211	76.6324	36.6211	81.8999	36.6211	76.5468	36.6211	82.1024	36.6211	76.5027	36.6211	82.1491	36.6211	76.499	36.6211	82.0314	36.6211	76.5357	36.6211	81.757	36.6211	76.6138	36.6211	81.3488	36.6211	76.7355	36.6211	80.8423	36.6211	76.9044	36.6211	80.2787	36.6211	77.1251	36.6211	79.6985	36.6211	77.4029	36.6211	79.1351	36.6211	77.7425	36.6211	78.6128	36.6211	78.1462
38.0859	79.3309	38.0859	78.9087	38.0859	79.7964	38.0859	78.535	38.0859	80.2952	38.0859	78.212	38.0859	80.8117	38.0859	77.9396	38.0859	81.3238	38.0859	77.7168	38.0859	81.8025	38.0859	77.5417	38.0859	82.2148	38.0859	77.4121	38.0859	82.5263	38.0859	77.3261	38.0859	82.7071	38.0859	77.2821	38.0859	82.7364	38.0859	77.2787	38.0859	82.6068	38.0859	77.3156	38.0859	82.327	38.0859	77.3929	38.0859	81.921	38.0859	77.512	38.0859	81.4244	38.0859	77.6756	38.0859	80.8782	38.0859	77.8872	38.0859	80.3214	38.0859	78.1512	38.0859	79.7853	38.0859	78.4718	38.0859	79.2915	38.0859	78.852
39.5508	79.9671	39.5508	79.5435	39.5508	80.4304	39.5508	79.1659	39.5508	80.9229	39.5508	78.8373	39.5508	81.4287	39.5508	78.5589	39.5508	81.9258	39.5508	78.3301	39.5508	82.3865	39.5508	78.1499	39.5508	82.7791	39.5508	78.0166	39.5508	83.0712	39.5508	77.9283	39.5508	83.2346	39.5508	77.8834	39.5508	83.2503	39.5508	77.8805	39.5508	83.1126	39.5508	77.9185	39.5508	82.8309	39.5508	77.9974	39.5508	82.4292	39.5508	78.1178	39.5508	81.9425	39.5508	78.2816	39.5508	81.4099	39.5508	78.4919	39.5508	80.8684	39.5508	78.7525	39.5508	80.3475	39.5508	79.0672	39.5508	79.8672	39.5508	79.4388
41.0156	80.6474	41.0156	80.2212	41.0156	81.1073	41.0156	79.8357	41.0156	81.5901	41.0156	79.4953	41.0156	82.08	41.0156	79.2022	41.0156	82.556	41.0156	78.9573	41.0156	82.9918	41.0156	78.7605	41.0156	83.3572	41.0156	78.6108	41.0156	83.6221	41.0156	78.5071	41.0156	83.7601	41.0156	78.4481	41.0156	83.754	41.0156	78.4324	41.0156	83.5995	41.0156	78.4592	41.0156	83.3072	41.0156	78.5283	41.0156	82.9014	41.0156	78.6404	41.0156	82.4161	41.0156	78.7975	41.0156	81.889	41.0156	79.0025	41.0156	81.3547	41.0156	79.2593	41.0156	80.8405	41.0156	79.5713	41.0156	80.3652	41.0156	79.9403
42.4805	81.282	42.4805	80.888	42.4805	81.7068	42.4805	80.5306	42.4805	82.153	42.4805	80.2134	42.4805	82.6068	42.4805	79.9381	42.4805	83.0495	42.4805	79.7057	42.4805	83.4567	42.4805	79.5163	42.4805	83.8006	42.4805	79.3697	42.4805	84.0524	42.4805	79.2657	42.4805	84.1866	42.4805	79.2038	42.4805	84.1861	42.4805	79.1838	42.4805	84.0458	42.4805	79.2059	42.4805	83.7749	42.4805	79.2705	42.4805	83.3964	42.4805	79.3786	42.4805	82.9431	42.4805	79.5318	42.4805	82.451	42.4805	79.7319	42.4805	81.9529	42.4805	79.981	42.4805	81.4739	42.4805	80.2806	42.4805	81.0301	42.4805	80.6308
43.9453	81.7122	43.9453	81.3246	43.9453	82.131	43.9453	80.9744	43.9453	82.5713	43.9453	80.6656	43.9453	83.0191	43.9453	80.4003	43.9453	83.4555	43.9453	80.1793	43.9453	83.8566	43.9453	80.0028	43.9453	84.1951	43.9453	79.8702	43.9453	84.4428	43.9453	79.7807	43.9453	84.5752	43.9453	79.7332	43.9453	84.5759	43.9453	79.7268	43.9453	84.4404	43.9453	79.7606	43.9453	84.1783	43.9453	79.8341	43.9453	83.8123	43.9453	79.9473	43.9453	83.3744	43.9453	80.101	43.9453	82.8998	43.9453	80.2965	43.9453	82.4203	43.9453	80.536	43.9453	81.9603	43.9453	80.8217	43.9453	81.5356	43.9453	81.155
45.4102	82.6122	45.4102	82.2152	45.4102	83.0388	45.4102	81.8539	45.4102	83.4859	45.4102	81.5321	45.4102	83.9397	45.4102	81.2521	45.4102	84.3814	45.4102	81.0154	45.4102	84.7862	45.4102	80.8225	45.4102	85.1252	45.4102	80.6737	45.4102	85.368	45.4102	80.5689	45.4102	85.4877	45.4102	80.5078	45.4102	85.4669	45.4102	80.4899	45.4102	85.3025	45.4102	80.5147	45.4102	85.007	45.4102	80.5819	45.4102	84.6082	45.4102	80.6911	45.4102	84.1427	45.4102	80.8426	45.4102	83.6483	45.4102	81.0368	45.4102	83.1575	45.4102	81.2749	45.4102	82.693	45.4102	81.5587	45.4102	82.2682	45.4102	81.8895
46.875	82.8488	46.875	82.4561	46.875	83.2693	46.875	82.0974	46.875	83.7081	46.875	81.7769	46.875	84.152	46.875	81.4976	46.875	84.5822	46.875	81.261	46.875	84.9749	46.875	81.0683	46.875	85.3019	46.875	80.9199	46.875	85.534	46.875	80.8158	46.875	85.6454	46.875	80.7557	46.875	85.6196	46.875	80.7388	46.875	85.4538	46.875	80.7646	46.875	85.1611	46.875	80.8321	46.875	84.7688	46.875	80.941	46.875	84.3129	46.875	81.091	46.875	83.8302	46.875	81.2824	46.875	83.3519	46.875	81.5162	46.875	82.8996	46.875	81.7939	46.875	82.4861	46.875	82.117
48.3398	83.0884	48.3398	82.706	48.3398	83.4969	48.3398	82.3559	48.3398	83.9225	48.3398	82.0421	48.3398	84.352	48.3398	81.7673	48.3398	84.7675	48.3398	81.5333	48.3398	85.1456	48.3398	81.3411	48.3398	85.459	48.3398	81.1913	48.3398	85.6792	48.3398	81.0842	48.3398	85.7813	48.3398	81.0196	48.3398	85.7495	48.3398	80.9971	48.3398	85.5812	48.3398	81.0164	48.3398	85.2898	48.3398	81.077	48.3398	84.9024	48.3398	81.1785	48.3398	84.4543	48.3398	81.321	48.3398	83.9817	48.3398	81.5048	48.3398	83.5148	48.3398	81.7307	48.3398	83.0744	48.3398	81.9998	48.3398	82.6722	48.3398	82.3135
51.2695	83.4773	51.2695	83.0983	51.2695	83.881	51.2695	82.7509	51.2695	84.2997	51.2695	82.4399	51.2695	84.7201	51.2695	82.1688	51.2695	85.1244	51.2695	81.9397	51.2695	85.4905	51.2695	81.7541	51.2695	85.7923	51.2695	81.6126	51.2695	86.0034	51.2695	81.5152	51.2695	86.1009	51.2695	81.4618	51.2695	86.071	51.2695	81.4515	51.2695	85.9126	51.2695	81.4835	51.2695	85.6394	51.2695	81.5568	51.2695	85.2771	51.2695	81.6704	51.2695	84.8587	51.2695	81.8236	51.2695	84.4167	51.2695	82.0157	51.2695	83.9778	51.2695	82.2466	51.2695	83.5602	51.2695	82.5166	51.2695	83.1746	51.2695	82.826
52.7344	83.632	52.7344	83.2603	52.7344	84.0277	52.7344	82.9197	52.7344	84.4376	52.7344	82.6152	52.7344	84.8483	52.7344	82.3504	52.7344	85.2423	52.7344	82.1276	52.7344	85.5979	52.7344	81.9483	52.7344	85.89	52.7344	81.813	52.7344	86.093	52.7344	81.7218	52.7344	86.1854	52.7344	81.6741	52.7344	86.1543	52.7344	81.6692	52.7344	85.9997	52.7344	81.7059	52.7344	85.7354	52.7344	81.7829	52.7344	85.3872	52.7344	81.899	52.7344	84.9867	52.7344	82.0531	52.7344	84.5646	52.7344	82.2443	52.7344	84.1454	52.7344	82.4723	52.7344	83.7456	52.7344	82.7368	52.7344	83.3748	52.7344	83.0378
54.1992	83.8371	54.1992	83.4708	54.1992	84.2259	54.1992	83.1342	54.1992	84.6274	54.1992	82.8327	54.1992	85.0288	54.1992	82.5701	54.1992	85.4131	54.1992	82.3491	54.1992	85.7592	54.1992	82.1715	54.1992	86.0429	54.1992	82.0379	54.1992	86.2395	54.1992	81.9487	54.1992	86.328	54.1992	81.9033	54.1992	86.296	54.1992	81.9007	54.1992	86.1436	54.1992	81.9398	54.1992	85.8851	54.1992	82.0189	54.1992	85.5458	54.1992	82.1368	54.1992	85.1568	54.1992	82.2918	54.1992	84.7479	54.1992	82.4829	54.1992	84.3421	54.1992	82.7092	54.1992	83.9547	54.1992	82.9702	54.1992	83.5943	54.1992	83.2655
55.6641	84.0491	55.6641	83.6795	55.6641	84.4396	55.6641	83.3381	55.6641	84.8408	55.6641	83.0304	55.6641	85.2392	55.6641	82.7602	55.6641	85.6171	55.6641	82.53	55.6641	85.953	55.6641	82.3416	55.6641	86.2223	55.6641	82.1958	55.6641	86.4	55.6641	82.093	55.6641	86.4656	55.6641	82.0328	55.6641	86.4079	55.6641	82.0149	55.6641	86.2286	55.6641	82.0384	55.6641	85.944	55.6641	82.1021	55.6641	85.5817	55.6641	82.205	55.6641	85.1744	55.6641	82.3458	55.6641	84.7527	55.6641	82.5235	55.6641	84.3401	55.6641	82.7374	55.6641	83.9515	55.6641	82.9871	55.6641	83.5946	55.6641	83.2729
58.5938	84.4946	58.5938	84.127	58.5938	84.8807	58.5938	83.7862	58.5938	85.2746	58.5938	83.4787	58.5938	85.6625	58.5938	83.2095	58.5938	86.0273	58.5938	82.982	58.5938	86.3483	58.5938	82.7984	58.5938	86.6019	58.5938	82.6596	58.5938	86.765	58.5938	82.5659	58.5938	86.8186	58.5938	82.5164	58.5938	86.753	58.5938	82.5098	58.5938	86.5715	58.5938	82.5443	58.5938	86.2912	58.5938	82.6178	58.5938	85.9402	58.5938	82.7281	58.5938	85.5508	58.5938	82.873	58.5938	85.1523	58.5938	83.0506	58.5938	84.7657	58.5938	83.2595	58.5938	84.4034	58.5938	83.499	58.5938	84.0707	58.5938	83.7693
60.0586	84.6203	60.0586	84.2528	60.0586	85.0047	60.0586	83.9106	60.0586	85.3955	60.0586	83.6003	60.0586	85.7792	60.0586	83.3272	60.0586	86.139	60.0586	83.0953	60.0586	86.4543	60.0586	82.9072	60.0586	86.7022	60.0586	82.7645	60.0586	86.8598	60.0586	82.6675	60.0586	86.9082	60.0586	82.6154	60.0586	86.8375	60.0586	82.6067	60.0586	86.6506	60.0586	82.6392	60.0586	86.3646	60.0586	82.7102	60.0586	86.0075	60.0586	82.8171	60.0586	85.6122	60.0586	82.9573	60.0586	85.2087	60.0586	83.129	60.0586	84.8191	60.0586	83.3312	60.0586	84.456	60.0586	83.5639	60.0586	84.1253	60.0586	83.8282
62.9883	84.7499	62.9883	84.3948	62.9883	85.1214	62.9883	84.064	62.9883	85.4989	62.9883	83.7638	62.9883	85.8694	62.9883	83.4992	62.9883	86.2166	62.9883	83.2737	62.9883	86.5207	62.9883	83.0899	62.9883	86.7598	62.9883	82.9494	62.9883	86.9121	62.9883	82.8526	62.9883	86.96	62.9883	82.7993	62.9883	86.8946	62.9883	82.7882	62.9883	86.7193	62.9883	82.8178	62.9883	86.4501	62.9883	82.8859	62.9883	86.1133	62.9883	82.9904	62.9883	85.7388	62.9883	83.1292	62.9883	85.3536	62.9883	83.3005	62.9883	84.9778	62.9883	83.5033	62.9883	84.6237	62.9883	83.7371	62.9883	84.2975	62.9883	84.0018
64.4531	84.8251	64.4531	84.4701	64.4531	85.196	64.4531	84.1394	64.4531	85.5722	64.4531	83.8395	64.4531	85.9403	64.4531	83.5756	64.4531	86.2841	64.4531	83.3514	64.4531	86.5838	64.4531	83.1695	64.4531	86.818	64.4531	83.0314	64.4531	86.9654	64.4531	82.9374	64.4531	87.0091	64.4531	82.887	64.4531	86.941	64.4531	82.8791	64.4531	86.7651	64.4531	82.9118	64.4531	86.4983	64.4531	82.9829	64.4531	86.1668	64.4531	83.0901	64.4531	85.7999	64.4531	83.231	64.4531	85.4238	64.4531	83.4036	64.4531	85.0573	64.4531	83.6067	64.4531	84.7115	64.4531	83.8392	64.4531	84.392	64.4531	84.101
67.3828	85.0239	67.3828	84.6676	67.3828	85.3937	67.3828	84.3337	67.3828	85.7661	67.3828	84.0292	67.3828	86.1278	67.3828	83.7599	67.3828	86.4626	67.3828	83.53	67.3828	86.7512	67.3828	83.3426	67.3828	86.9729	67.3828	83.1994	67.3828	87.1071	67.3828	83.1012	67.3828	87.1381	67.3828	83.0475	67.3828	87.0589	67.3828	83.0371	67.3828	86.8745	67.3828	83.0679	67.3828	86.6026	67.3828	83.1376	67.3828	86.2699	67.3828	83.2435	67.3828	85.9056	67.3828	83.383	67.3828	85.5349	67.3828	83.5538	67.3828	85.1753	67.3828	83.754	67.3828	84.8369	67.3828	83.9827	67.3828	84.5244	67.3828	84.2395
68.8477	85.2119	68.8477	84.8511	68.8477	85.5859	68.8477	84.5124	68.8477	85.9621	68.8477	84.2028	68.8477	86.3272	68.8477	83.9281	68.8477	86.6646	68.8477	83.6925	68.8477	86.955	68.8477	83.4991	68.8477	87.1768	68.8477	83.3499	68.8477	87.3092	68.8477	83.2459	68.8477	87.3358	68.8477	83.187	68.8477	87.2502	68.8477	83.1724	68.8477	87.0589	68.8477	83.2007	68.8477	86.7819	68.8477	83.27	68.8477	86.4477	68.8477	83.3781	68.8477	86.0855	68.8477	83.5225	68.8477	85.7188	68.8477	83.7007	68.8477	85.3623	68.8477	83.9104	68.8477	85.0241	68.8477	84.1494	68.8477	84.7078	68.8477	84.4157
71.7773	85.2639	71.7773	84.9051	71.7773	85.6342	71.7773	84.5668	71.7773	86.0048	71.7773	84.2565	71.7773	86.3622	71.7773	83.9802	71.7773	86.69	71.7773	83.7423	71.7773	86.9692	71.7773	83.5463	71.7773	87.179	71.7773	83.3943	71.7773	87.2994	71.7773	83.2874	71.7773	87.315	71.7773	83.2259	71.7773	87.2204	71.7773	83.2088	71.7773	87.023	71.7773	83.2346	71.7773	86.7431	71.7773	83.3014	71.7773	86.4092	71.7773	83.4066	71.7773	86.0503	71.7773	83.5476	71.7773	85.689	71.7773	83.7216	71.7773	85.3396	71.7773	83.926	71.7773	85.0094	71.7773	84.1586	71.7773	84.7015	71.7773	84.4175
74.707	85.423	74.707	85.0679	74.707	85.7881	74.707	84.7321	74.707	86.1518	74.707	84.4237	74.707	86.5005	74.707	84.1487	74.707	86.8181	74.707	83.9121	74.707	87.0862	74.707	83.7175	74.707	87.2851	74.707	83.567	74.707	87.3961	74.707	83.4619	74.707	87.4053	74.707	83.4021	74.707	87.3087	74.707	83.3867	74.707	87.1145	74.707	83.4141	74.707	86.843	74.707	83.482	74.707	86.5216	74.707	83.5879	74.707	86.1771	74.707	83.729	74.707	85.8299	74.707	83.9024	74.707	85.4927	74.707	84.1056	74.707	85.1719	74.707	84.336	74.707	84.8709	74.707	84.5917
77.6367	85.6133	77.6367	85.2579	77.6367	85.9769	77.6367	84.9206	77.6367	86.3369	77.6367	84.6098	77.6367	86.6799	77.6367	84.3323	77.6367	86.9899	77.6367	84.0936	77.6367	87.2491	77.6367	83.8975	77.6367	87.4385	77.6367	83.7468	77.6367	87.5403	77.6367	83.6426	77.6367	87.5419	77.6367	83.5849	77.6367	87.4401	77.6367	83.5727	77.6367	87.2444	77.6367	83.6039	77.6367	86.9755	77.6367	83.6759	77.6367	86.6607	77.6367	83.7857	77.6367	86.3258	77.6367	83.93	77.6367	85.9899	77.6367	84.1054	77.6367	85.6642	77.6367	84.3089	77.6367	85.3539	77.6367	84.5376	77.6367	85.0618	77.6367	84.7891
79.1016	85.6686	79.1016	85.3154	79.1016	86.0289	79.1016	84.9794	79.1016	86.3846	79.1016	84.6692	79.1016	86.7221	79.1016	84.3917	79.1016	87.0259	79.1016	84.1527	79.1016	87.2781	79.1016	83.9562	79.1016	87.4604	79.1016	83.8052	79.1016	87.5555	79.1016	83.7008	79.1016	87.5515	79.1016	83.6431	79.1016	87.4462	79.1016	83.6311	79.1016	87.2497	79.1016	83.6628	79.1016	86.9831	79.1016	83.7353	79.1016	86.6732	79.1016	83.8455	79.1016	86.3452	79.1016	83.9899	79.1016	86.0171	79.1016	84.1649	79.1016	85.6991	79.1016	84.3671	79.1016	85.3959	79.1016	84.5935	79.1016	85.1096	79.1016	84.8417
82.0312	85.9226	82.0312	85.5741	82.0312	86.2755	82.0312	85.2402	82.0312	86.6212	82.0312	84.9298	82.0312	86.9462	82.0312	84.6506	82.0312	87.2355	82.0312	84.4087	82.0312	87.472	82.0312	84.2088	82.0312	87.6381	82.0312	84.0541	82.0312	87.7175	82.0312	83.9459	82.0312	87.6994	82.0312	83.8845	82.0312	87.5823	82.0312	83.8687	82.0312	87.3773	82.0312	83.8963	82.0312	87.106	82.0312	83.9641	82.0312	86.7956	82.0312	84.0687	82.0312	86.4708	82.0312	84.2062	82.0312	86.1491	82.0312	84.373	82.0312	85.84	82.0312	84.5655	82.0312	85.5475	82.0312	84.7809	82.0312	85.273	82.0312	85.0172
84.9609	86.3389	84.9609	85.9992	84.9609	86.6811	84.9609	85.6717	84.9609	87.0151	84.9609	85.3645	84.9609	87.3279	84.9609	85.0844	84.9609	87.6047	84.9609	84.8373	84.9609	87.8289	84.9609	84.6279	84.9609	87.9833	84.9609	84.4597	84.9609	88.0521	84.9609	84.3349	84.9609	88.0253	84.9609	84.2549	84.9609	87.9023	84.9609	84.2195	84.9609	87.6943	84.9609	84.2279	84.9609	87.4226	84.9609	84.2781	84.9609	87.1126	84.9609	84.3677	84.9609	86.7872	84.9609	84.4937	84.9609	86.4623	84.9609	84.6529	84.9609	86.147	84.9609	84.8422	84.9609	85.8462	84.9609	85.0586	84.9609	85.5629	84.9609	85.2996
87.8906	86.4418	87.8906	86.0919	87.8906	86.7974	87.8906	85.7588	87.8906	87.146	87.8906	85.4515	87.8906	87.4731	87.8906	85.1777	87.8906	87.7627	87.8906	84.9431	87.8906	87.9975	87.8906	84.7519	87.8906	88.1604	87.8906	84.6064	87.8906	88.2367	87.8906	84.5077	87.8906	88.2178	87.8906	84.4555	87.8906	88.1052	87.8906	84.4486	87.8906	87.912	87.8906	84.4848	87.8906	87.6606	87.8906	84.5614	87.8906	87.3762	87.8906	84.6751	87.8906	87.0796	87.8906	84.8226	87.8906	86.7832	87.8906	85.0001	87.8906	86.4926	87.8906	85.2041	87.8906	86.21	87.8906	85.4307	87.8906	85.937	87.8906	85.6762
90.8203	86.7186	90.8203	86.3738	90.8203	87.0649	90.8203	86.0419	90.8203	87.3999	90.8203	85.7334	90.8203	87.7101	90.8203	85.4575	90.8203	87.9806	90.8203	85.2214	90.8203	88.1961	90.8203	85.0306	90.8203	88.3409	90.8203	84.8886	90.8203	88.402	90.8203	84.7966	90.8203	88.3719	90.8203	84.7536	90.8203	88.2527	90.8203	84.7574	90.8203	88.0573	90.8203	84.8043	90.8203	87.808	90.8203	84.8896	90.8203	87.5299	90.8203	85.0084	90.8203	87.2437	90.8203	85.1559	90.8203	86.9623	90.8203	85.3275	90.8203	86.6913	90.8203	85.519	90.8203	86.4322	90.8203	85.7273	90.8203	86.185	90.8203	85.9498
95.2148	87.2108	95.2148	86.8741	95.2148	87.545	95.2148	86.5466	95.2148	87.8638	95.2148	86.239	95.2148	88.1535	95.2148	85.9605	95.2148	88.3997	95.2148	85.7186	95.2148	88.5875	95.2148	85.5189	95.2148	88.703	95.2148	85.3649	95.2148	88.7351	95.2148	85.2584	95.2148	88.6793	95.2148	85.1993	95.2148	88.5406	95.2148	85.1859	95.2148	88.3346	95.2148	85.2155	95.2148	88.0845	95.2148	85.2844	95.2148	87.8133	95.2148	85.3883	95.2148	87.5385	95.2148	85.5228	95.2148	87.2689	95.2148	85.6837	95.2148	87.0081	95.2148	85.8667	95.2148	86.7567	95.2148	86.0684	95.2148	86.5154	95.2148	86.2854
98.1445	87.4453	98.1445	87.1065	98.1445	87.7783	98.1445	86.7744	98.1445	88.0925	98.1445	86.46	98.1445	88.3742	98.1445	86.1736	98.1445	88.6094	98.1445	85.9232	98.1445	88.7838	98.1445	85.7152	98.1445	88.8844	98.1445	85.5537	98.1445	88.9012	98.1445	85.4405	98.1445	88.8309	98.1445	85.3756	98.1445	88.6799	98.1445	85.3572	98.1445	88.4652	98.1445	85.3821	98.1445	88.21	98.1445	85.4464	98.1445	87.937	98.1445	85.5456	98.1445	87.6623	98.1445	85.6752	98.1445	87.3939	98.1445	85.8309	98.1445	87.1344	98.1445	86.0088	98.1445	86.8847	98.1445	86.2057	98.1445	86.6457	98.1445	86.4187
101.074	87.5823	101.074	87.249	101.074	87.9062	101.074	86.9192	101.074	88.2074	101.074	86.6052	101.074	88.4724	101.074	86.318	101.074	88.6875	101.074	86.0669	101.074	88.8397	101.074	85.8588	101.074	88.9177	101.074	85.6984	101.074	88.9138	101.074	85.5874	101.074	88.8277	101.074	85.5256	101.074	88.6686	101.074	85.5105	101.074	88.4555	101.074	85.5384	101.074	88.2117	101.074	85.6048	101.074	87.9577	101.074	85.7046	101.074	87.7059	101.074	85.8332	101.074	87.4608	101.074	85.986	101.074	87.2227	101.074	86.1591	101.074	86.9913	101.074	86.349	101.074	86.7674	101.074	86.5526
105.469	88.0126	105.469	87.6803	105.469	88.3272	105.469	87.3437	105.469	88.6107	105.469	87.0159	105.469	88.8497	105.469	86.709	105.469	89.0312	105.469	86.4339	105.469	89.143	105.469	86.1995	105.469	89.1749	105.469	86.0123	105.469	89.1216	105.469	85.8759	105.469	88.9861	105.469	85.7914	105.469	88.7834	105.469	85.7576	105.469	88.5387	105.469	85.771	105.469	88.2809	105.469	85.8271	105.469	88.0319	105.469	85.9205	105.469	87.8	105.469	86.0455	105.469	87.582	105.469	86.1963	105.469	87.3712	105.469	86.3676	105.469	87.1626	105.469	86.5542	105.469	86.9554	105.469	86.7515
108.398	88.1966	108.398	87.874	108.398	88.4995	108.398	87.5447	108.398	88.77	108.398	87.2213	108.398	88.9956	108.398	86.916	108.398	89.164	108.398	86.6401	108.398	89.2635	108.398	86.4029	108.398	89.2841	108.398	86.2115	108.398	89.2205	108.398	86.0704	108.398	89.0756	108.398	85.981	108.398	88.8641	108.398	85.9424	108.398	88.6123	108.398	85.9516	108.398	88.3506	108.398	86.0038	108.398	88.1027	108.398	86.0936	108.398	87.8779	108.398	86.215	108.398	87.6723	108.398	86.3618	108.398	87.4766	108.398	86.5282	108.398	87.2835	108.398	86.7085	108.398	87.0901	108.398	86.8973
112.793	88.2687	112.793	87.9665	112.793	88.5511	112.793	87.6569	112.793	88.8015	112.793	87.352	112.793	89.0075	112.793	87.0637	112.793	89.1572	112.793	86.8028	112.793	89.2391	112.793	86.5785	112.793	89.244	112.793	86.398	112.793	89.1673	112.793	86.2659	112.793	89.0134	112.793	86.184	112.793	88.7987	112.793	86.1514	112.793	88.5507	112.793	86.1651	112.793	88.3005	112.793	86.2199	112.793	88.0712	112.793	86.3097	112.793	87.8709	112.793	86.4276	112.793	87.6945	112.793	86.5668	112.793	87.5312	112.793	86.7205	112.793	87.3719	112.793	86.8824	112.793	87.211	112.793	87.0473
117.188	88.3437	117.188	88.0423	117.188	88.6206	117.188	87.7299	117.188	88.8599	117.188	87.4198	117.188	89.0488	117.188	87.1249	117.188	89.175	117.188	86.857	117.188	89.2275	117.188	86.6262	117.188	89.1981	117.188	86.4402	117.188	89.0843	117.188	86.3038	117.188	88.894	117.188	86.2186	117.188	88.6483	117.188	86.1832	117.188	88.3804	117.188	86.194	117.188	88.125	117.188	86.2452	117.188	87.9051	117.188	86.33	117.188	87.7244	117.188	86.4413	117.188	87.572	117.188	86.5718	117.188	87.4332	117.188	86.7144	117.188	87.2967	117.188	86.8628	117.188	87.1567	117.188	87.0115
120.117	88.5692	120.117	88.2677	120.117	88.844	120.117	87.9526	120.117	89.079	120.117	87.6373	120.117	89.2618	120.117	87.3349	120.117	89.3803	120.117	87.0575	120.117	89.4237	120.117	86.8158	120.117	89.3837	120.117	86.6181	120.117	89.2575	120.117	86.4704	120.117	89.0526	120.117	86.3752	120.117	88.7905	120.117	86.3324	120.117	88.5062	120.117	86.3388	120.117	88.2376	120.117	86.3889	120.117	88.0108	120.117	86.4756	120.117	87.8308	120.117	86.5904	120.117	87.6853	120.117	86.7247	120.117	87.557	120.117	86.8699	120.117	87.4318	120.117	87.0181	120.117	87.3015	120.117	87.1633
124.512	88.7274	124.512	88.4271	124.512	89.0014	124.512	88.1144	124.512	89.236	124.512	87.803	124.512	89.4179	124.512	87.5063	124.512	89.5348	124.512	87.2365	124.512	89.5754	124.512	87.0041	124.512	89.5308	124.512	86.8172	124.512	89.3979	124.512	86.681	124.512	89.1842	124.512	86.5976	124.512	88.9125	124.512	86.566	124.512	88.6202	124.512	86.5823	124.512	88.3484	124.512	86.6401	124.512	88.1252	124.512	86.7314	124.512	87.9556	124.512	86.847	124.512	87.8259	124.512	86.9778	124.512	87.7166	124.512	87.1151	124.512	87.6116	124.512	87.2514	124.512	87.5012	124.512	87.3812
128.906	88.7958	128.906	88.4774	128.906	89.0877	128.906	88.147	128.906	89.3389	128.906	87.8195	128.906	89.5358	128.906	87.5091	128.906	89.6657	128.906	87.229	128.906	89.717	128.906	86.9902	128.906	89.6805	128.906	86.8013	128.906	89.5527	128.906	86.6676	128.906	89.3408	128.906	86.5908	128.906	89.0673	128.906	86.5694	128.906	88.77	128.906	86.5987	128.906	88.4913	128.906	86.6716	128.906	88.2613	128.906	86.779	128.906	88.0863	128.906	86.9109	128.906	87.9528	128.906	87.057	128.906	87.8406	128.906	87.2079	128.906	87.733	128.906	87.3553	128.906	87.6189	128.906	87.4933
133.301	88.7523	133.301	88.4289	133.301	89.0462	133.301	88.0912	133.301	89.2966	133.301	87.7547	133.301	89.49	133.301	87.4344	133.301	89.6142	133.301	87.1445	133.301	89.6585	133.301	86.8966	133.301	89.6145	133.301	86.7	133.301	89.4791	133.301	86.5603	133.301	89.2598	133.301	86.4797	133.301	88.9798	133.301	86.4568	133.301	88.6777	133.301	86.487	133.301	88.3968	133.301	86.5628	133.301	88.167	133.301	86.6745	133.301	87.9937	133.301	86.8114	133.301	87.8622	133.301	86.9623	133.301	87.7518	133.301	87.117	133.301	87.6454	133.301	87.267	133.301	87.532	133.301	87.4062
139.16	88.48	139.16	88.1406	139.16	88.7852	139.16	87.7827	139.16	89.0421	139.16	87.4225	139.16	89.2374	139.16	87.0764	139.16	89.3594	139.16	86.7598	139.16	89.3974	139.16	86.4859	139.16	89.3428	139.16	86.2651	139.16	89.1927	139.16	86.1042	139.16	88.9554	139.16	86.0061	139.16	88.6568	139.16	85.9698	139.16	88.3392	139.16	85.9905	139.16	88.048	139.16	86.0609	139.16	87.8118	139.16	86.1711	139.16	87.6314	139.16	86.3103	139.16	87.488	139.16	86.4673	139.16	87.3603	139.16	86.6319	139.16	87.2329	139.16	86.7955	139.16	87.0979	139.16	86.952
143.555	88.1804	143.555	87.8289	143.555	88.498	143.555	87.46	143.555	88.7663	143.555	87.0908	143.555	88.9712	143.555	86.7382	143.555	89.0993	143.555	86.4178	143.555	89.1386	143.555	86.1428	143.555	89.0789	143.555	85.9227	143.555	88.9157	143.555	85.7632	143.555	88.656	143.555	85.6657	143.555	88.3249	143.555	85.6277	143.555	87.9666	143.555	85.6433	143.555	87.6317	143.555	85.704	143.555	87.3566	143.555	85.8	143.555	87.1484	143.555	85.9208	143.555	86.9904	143.555	86.0566	143.555	86.8589	143.555	86.1988	143.555	86.7357	143.555	86.3411	143.555	86.6104	143.555	86.479
147.949	87.7995	147.949	87.4451	147.949	88.1145	147.949	87.0694	147.949	88.374	147.949	86.6913	147.949	88.5637	147.949	86.3296	147.949	88.6714	147.949	86.0016	147.949	88.6871	147.949	85.7219	147.949	88.6043	147.949	85.5009	147.949	88.4222	147.949	85.3447	147.949	88.1515	147.949	85.2543	147.949	87.8194	147.949	85.2263	147.949	87.4686	147.949	85.2535	147.949	87.1464	147.949	85.326	147.949	86.8851	147.949	85.4324	147.949	86.6908	147.949	85.5611	147.949	86.5488	147.949	85.7013	147.949	86.4363	147.949	85.844	147.949	86.3335	147.949	85.982	147.949	86.2272	147.949	86.1105
153.809	87.5976	153.809	87.2513	153.809	87.89	153.809	86.8701	153.809	88.113	153.809	86.4756	153.809	88.2552	153.809	86.0907	153.809	88.3094	153.809	85.7374	153.809	88.2714	153.809	85.4347	153.809	88.1416	153.809	85.1966	153.809	87.9271	153.809	85.0313	153.809	87.6467	153.809	84.9406	153.809	87.3345	153.809	84.9203	153.809	87.0345	153.809	84.9614	153.809	86.7834	153.809	85.0516	153.809	86.5936	153.809	85.1768	153.809	86.4522	153.809	85.3229	153.809	86.3374	153.809	85.4771	153.809	86.2324	153.809	85.629	153.809	86.1282	153.809	85.7716	153.809	86.0195	153.809	85.9016
159.668	87.4307	159.668	87.0838	159.668	87.7145	159.668	86.6917	159.668	87.9215	159.668	86.276	159.668	88.0417	159.668	85.8611	159.668	88.0674	159.668	85.4723	159.668	87.9936	159.668	85.1332	159.668	87.8186	159.668	84.8631	159.668	87.5483	159.668	84.6746	159.668	87.2046	159.668	84.5721	159.668	86.832	159.668	84.5522	159.668	86.4925	159.668	84.6047	159.668	86.2412	159.668	84.7151	159.668	86.0962	159.668	84.8668	159.668	86.0325	159.668	85.0432	159.668	86.0056	159.668	85.2291	159.668	85.9777	159.668	85.4118	159.668	85.9266	159.668	85.5805	159.668	85.8432	159.668	85.7266
165.527	87.3553	165.527	87.0141	165.527	87.6294	165.527	86.6224	165.527	87.8234	165.527	86.2008	165.527	87.9275	165.527	85.7729	165.527	87.9342	165.527	85.364	165.527	87.8379	165.527	84.9984	165.527	87.6364	165.527	84.6972	165.527	87.3352	165.527	84.4758	165.527	86.9557	165.527	84.3418	165.527	86.5426	165.527	84.2949	165.527	86.1601	165.527	84.3271	165.527	85.8677	165.527	84.4243	165.527	85.6889	165.527	84.5685	165.527	85.6034	165.527	84.7403	165.527	85.5693	165.527	84.921	165.527	85.5488	165.527	85.094	165.527	85.5169	165.527	85.2465	165.527	85.4595	165.527	85.3697
171.387	87.307	171.387	86.9673	171.387	87.5753	171.387	86.5716	171.387	87.7598	171.387	86.1391	171.387	87.851	171.387	85.6928	171.387	87.842	171.387	85.2583	171.387	87.7287	171.387	84.8625	171.387	87.5115	171.387	84.5305	171.387	87.1999	171.387	84.2834	171.387	86.8193	171.387	84.134	171.387	86.418	171.387	84.0857	171.387	86.0613	171.387	84.131	171.387	85.805	171.387	84.2538	171.387	85.665	171.387	84.4323	171.387	85.6133	171.387	84.6426	171.387	85.6039	171.387	84.8619	171.387	85.5976	171.387	85.0705	171.387	85.5694	171.387	85.2533	171.387	85.5056	171.387	85.4002
177.246	86.9493	177.246	86.6222	177.246	87.2038	177.246	86.2399	177.246	87.3711	177.246	85.8226	177.246	87.4404	177.246	85.3926	177.246	87.4045	177.246	84.9736	177.246	87.2608	177.246	84.5893	177.246	87.0116	177.246	84.2623	177.246	86.6683	177.246	84.0115	177.246	86.2581	177.246	83.8503	177.246	85.8319	177.246	83.7838	177.246	85.4582	177.246	83.8083	177.246	85.1959	177.246	83.9111	177.246	85.0616	177.246	84.0724	177.246	85.0264	177.246	84.2683	177.246	85.0421	177.246	84.4743	177.246	85.0665	177.246	84.6687	177.246	85.0708	177.246	84.8342	177.246	85.0378	177.246	84.9592
183.105	86.6197	183.105	86.2922	183.105	86.8641	183.105	85.9018	183.105	87.01	183.105	85.4722	183.105	87.047	183.105	85.0295	183.105	86.9703	183.105	84.601	183.105	86.7805	183.105	84.2133	183.105	86.4854	183.105	83.8907	183.105	86.1044	183.105	83.6524	183.105	85.6782	183.105	83.5102	183.105	85.2734	183.105	83.4668	183.105	84.9678	183.105	83.5152	183.105	84.8088	183.105	83.6402	183.105	84.7827	183.105	83.8211	183.105	84.8324	183.105	84.0348	183.105	84.8996	183.105	84.2589	183.105	84.9463	183.105	84.4733	183.105	84.9522	183.105	84.661	183.105	84.9072	183.105	84.8088
188.965	86.7821	188.965	86.4352	188.965	87.0337	188.965	86.0143	188.965	87.174	188.965	85.5444	188.965	87.1914	188.965	85.0532	188.965	87.0794	188.965	84.5702	188.965	86.8353	188.965	84.1247	188.965	86.4624	188.965	83.7445	188.965	85.9754	188.965	83.4531	188.965	85.4154	188.965	83.2676	188.965	84.8648	188.965	83.1952	188.965	84.439	188.965	83.2314	188.965	84.2285	188.965	83.3613	188.965	84.2321	188.965	83.5616	188.965	84.3662	188.965	83.8046	188.965	84.5352	188.965	84.0622	188.965	84.6744	188.965	84.3076	188.965	84.7507	188.965	84.5167	188.965	84.7497	188.965	84.6692
196.289	86.854	196.289	86.5218	196.289	87.0774	196.289	86.1009	196.289	87.1779	196.289	85.6168	196.289	87.1476	196.289	85.099	196.289	86.9847	196.289	84.5791	196.289	86.6929	196.289	84.089	196.289	86.2824	196.289	83.6594	196.289	85.7739	196.289	83.318	196.289	85.2069	196.289	83.0866	196.289	84.6475	196.289	82.9771	196.289	84.1806	196.289	82.9884	196.289	83.8758	196.289	83.1048	196.289	83.7515	196.289	83.2982	196.289	83.7737	196.289	83.5331	196.289	83.885	196.289	83.7728	196.289	84.028	196.289	83.9839	196.289	84.1535	196.289	84.1398	196.289	84.2254	196.289	84.2227
203.613	86.6881	203.613	86.3401	203.613	86.916	203.613	85.8967	203.613	87.0036	203.613	85.387	203.613	86.9362	203.613	84.8432	203.613	86.7056	203.613	84.2996	203.613	86.3115	203.613	83.7901	203.613	85.766	203.613	83.3462	203.613	85.1018	203.613	82.9946	203.613	84.3882	203.613	82.7549	203.613	83.7429	203.613	82.6372	203.613	83.3019	203.613	82.6404	203.613	83.1324	203.613	82.7506	203.613	83.1821	203.613	82.9422	203.613	83.3413	203.613	83.181	203.613	83.5271	203.613	83.4291	203.613	83.6992	203.613	83.6506	203.613	83.8336	203.613	83.8155	203.613	83.9078	203.613	83.9038
210.938	86.4668	210.938	86.1375	210.938	86.6688	210.938	85.7083	210.938	86.722	210.938	85.2118	210.938	86.6122	210.938	84.6835	210.938	86.3327	210.938	84.1603	210.938	85.8842	210.938	83.6776	210.938	85.2764	210.938	83.2674	210.938	84.5341	210.938	82.9548	210.938	83.7172	210.938	82.7562	210.938	82.9469	210.938	82.6776	210.938	82.3989	210.938	82.7129	210.938	82.2066	210.938	82.8443	210.938	82.3452	210.938	83.0436	210.938	82.6687	210.938	83.2761	210.938	83.0371	210.938	83.5047	210.938	83.3696	210.938	83.6951	210.938	83.6276	210.938	83.8186	210.938	83.792	210.938	83.8549
218.262	86.6225	218.262	86.3371	218.262	86.7722	218.262	85.9402	218.262	86.7686	218.262	85.4621	218.262	86.6018	218.262	84.9373	218.262	86.27	218.262	84.4029	218.262	85.7806	218.262	83.8962	218.262	85.1524	218.262	83.4522	218.262	84.421	218.262	83.1003	218.262	83.6508	218.262	82.8619	218.262	82.9461	218.262	82.7467	218.262	82.4346	218.262	82.7517	218.262	82.2026	218.262	82.8602	218.262	82.2377	218.262	83.0439	218.262	82.4569	218.262	83.2658	218.262	82.772	218.262	83.4858	218.262	83.1131	218.262	83.664	218.262	83.4209	218.262	83.7657	218.262	83.6476	218.262	83.7645
225.586	86.8473	225.586	86.5561	225.586	86.9894	225.586	86.145	225.586	86.9608	225.586	85.649	225.586	86.748	225.586	85.1074	225.586	86.3483	225.586	84.5613	225.586	85.7722	225.586	84.0503	225.586	85.0497	225.586	83.6108	225.586	84.2394	225.586	83.2728	225.586	83.4429	225.586	83.0582	225.586	82.8077	225.586	82.9778	225.586	82.4744	225.586	83.0284	225.586	82.4754	225.586	83.1913	225.586	82.7111	225.586	83.4339	225.586	83.0497	225.586	83.7136	225.586	83.4087	225.586	83.9843	225.586	83.749	225.586	84.2025	225.586	84.0404	225.586	84.3325	225.586	84.2498	225.586	84.3508
232.91	87.3426	232.91	87.0945	232.91	87.4175	232.91	86.7038	232.91	87.295	232.91	86.207	232.91	86.9592	232.91	85.6459	232.91	86.4045	232.91	85.0653	232.91	85.6403	232.91	84.5104	232.91	84.6989	232.91	84.0223	232.91	83.6515	232.91	83.6339	232.91	82.6325	232.91	83.3658	232.91	81.846	232.91	83.2249	232.91	81.4743	232.91	83.2044	232.91	81.5219	232.91	83.2839	232.91	81.8234	232.91	83.432	232.91	82.2144	232.91	83.6089	232.91	82.6166	232.91	83.7719	232.91	83.0036	232.91	83.881	232.91	83.353	232.91	83.9044	232.91	83.6352	232.91	83.8235
241.699	87.5983	241.699	87.3536	241.699	87.6689	241.699	86.9687	241.699	87.5371	241.699	86.4815	241.699	87.1824	241.699	85.9322	241.699	86.5949	241.699	85.3618	241.699	85.7815	241.699	84.8111	241.699	84.776	241.699	84.3194	241.699	83.6586	241.699	83.9242	241.699	82.5833	241.699	83.6574	241.699	81.78	241.699	83.5395	241.699	81.4444	241.699	83.5713	241.699	81.5626	241.699	83.729	241.699	81.938	241.699	83.9667	241.699	82.3938	241.699	84.2257	241.699	82.8614	241.699	84.4464	241.699	83.3299	241.699	84.5777	241.699	83.7799	241.699	84.5831	241.699	84.1672	241.699	84.4447
250.488	87.6856	250.488	87.4361	250.488	87.7234	250.488	87.0154	250.488	87.5162	250.488	86.4703	250.488	87.0386	250.488	85.8525	250.488	86.2775	250.488	85.2159	250.488	85.241	250.488	84.6119	250.488	83.9793	250.488	84.0844	250.488	82.6268	250.488	83.6677	250.488	81.4613	250.488	83.3871	250.488	80.8606	250.488	83.2592	250.488	80.9932	250.488	83.2893	250.488	81.6109	250.488	83.4634	250.488	82.348	250.488	83.7436	250.488	83.0023	250.488	84.0708	250.488	83.5284	250.488	84.3782	250.488	83.9475	250.488	84.6059	250.488	84.2832	250.488	84.7138	250.488	84.5363	250.488	84.6874
259.277	88.6651	259.277	88.3846	259.277	88.7199	259.277	87.9192	259.277	88.5127	259.277	87.3142	259.277	88.0123	259.277	86.6189	259.277	87.1929	259.277	85.8845	259.277	86.0372	259.277	85.162	259.277	84.5477	259.277	84.4983	259.277	82.7839	259.277	83.9336	259.277	80.9728	259.277	83.5	259.277	79.6769	259.277	83.2208	259.277	79.5196	259.277	83.1086	259.277	80.3182	259.277	83.1596	259.277	81.3854	259.277	83.3475	259.277	82.3361	259.277	83.6236	259.277	83.0884	259.277	83.9263	259.277	83.6604	259.277	84.1929	259.277	84.0716	259.277	84.371	259.277	84.3257	259.277	84.4227
268.066	88.3118	268.066	88.006	268.066	88.406	268.066	87.5311	268.066	88.2495	268.066	86.9329	268.066	87.8074	268.066	86.2599	268.066	87.0509	268.066	85.5626	268.066	85.9634	268.066	84.8907	268.066	84.5545	268.066	84.2908	268.066	82.8976	268.066	83.8028	268.066	81.2107	268.066	83.4574	268.066	79.9428	268.066	83.2739	268.066	79.5654	268.066	83.2562	268.066	80.0265	268.066	83.3878	268.066	80.8572	268.066	83.6283	268.066	81.7172	268.066	83.9172	268.066	82.4897	268.066	84.1865	268.066	83.1516	268.066	84.3744	268.066	83.6919	268.066	84.4356	268.066	84.0947	268.066	84.3447
276.855	88.0372	276.855	87.8286	276.855	88.0333	276.855	87.4473	276.855	87.7801	276.855	86.9364	276.855	87.2452	276.855	86.3423	276.855	86.4027	276.855	85.713	276.855	85.2411	276.855	85.0943	276.855	83.7827	276.855	84.5229	276.855	82.1315	276.855	84.0214	276.855	80.5629	276.855	83.5999	276.855	79.5549	276.855	83.2666	276.855	79.4528	276.855	83.0413	276.855	80.0535	276.855	82.9578	276.855	80.919	276.855	83.0441	276.855	81.7926	276.855	83.2895	276.855	82.5907	276.855	83.6297	276.855	83.2787	276.855	83.9681	276.855	83.8149	276.855	84.2102	276.855	84.1578	276.855	84.2866
287.109	88.2363	287.109	88.07	287.109	88.1846	287.109	87.7241	287.109	87.8809	287.109	87.2403	287.109	87.2959	287.109	86.6634	287.109	86.4068	287.109	86.0408	287.109	85.2049	287.109	85.4217	287.109	83.7176	287.109	84.8543	287.109	82.0664	287.109	84.3789	287.109	80.5646	287.109	84.0208	287.109	79.6959	287.109	83.7863	287.109	79.685	287.109	83.666	287.109	80.2135	287.109	83.6417	287.109	80.8691	287.109	83.692	287.109	81.4761	287.109	83.7902	287.109	82.0337	287.109	83.9002	287.109	82.5759	287.109	83.9748	287.109	83.0903	287.109	83.9619	287.109	83.5213	287.109	83.8175
297.363	88.3886	297.363	88.2654	297.363	88.2583	297.363	87.9349	297.363	87.8296	297.363	87.4464	297.363	87.0582	297.363	86.8525	297.363	85.9024	297.363	86.2095	297.363	84.334	297.363	85.574	297.363	82.3808	297.363	84.9957	297.363	80.2564	297.363	84.5065	297.363	78.5834	297.363	84.1127	297.363	78.114	297.363	83.7976	297.363	78.6754	297.363	83.537	297.363	79.532	297.363	83.3176	297.363	80.3121	297.363	83.1479	297.363	80.9662	297.363	83.048	297.363	81.5349	297.363	83.0236	297.363	82.0417	297.363	83.0452	297.363	82.4715	297.363	83.0526	297.363	82.7916	297.363	82.9821
307.617	88.1317	307.617	87.9766	307.617	88.0534	307.617	87.6245	307.617	87.7107	307.617	87.1166	307.617	87.0771	307.617	86.499	307.617	86.1291	307.617	85.8239	307.617	84.8464	307.617	85.1515	307.617	83.2221	307.617	84.5513	307.617	81.3071	307.617	84.0933	307.617	79.3293	307.617	83.8265	307.617	77.8222	307.617	83.7532	307.617	77.2868	307.617	83.8219	307.617	77.5245	307.617	83.9501	307.617	78.025	307.617	84.0543	307.617	78.5752	307.617	84.0695	307.617	79.2061	307.617	83.9511	307.617	79.9775	307.617	83.6701	307.617	80.8629	307.617	83.2091	307.617	81.7607	307.617	82.5647
319.336	87.6549	319.336	87.5885	319.336	87.4384	319.336	87.2856	319.336	86.9017	319.336	86.7994	319.336	86.0202	319.336	86.1877	319.336	84.791	319.336	85.5098	319.336	83.2538	319.336	84.8254	319.336	81.5348	319.336	84.1919	319.336	79.8936	319.336	83.6615	319.336	78.6552	319.336	83.2753	319.336	77.9549	319.336	83.056	319.336	77.656	319.336	83.0036	319.336	77.6111	319.336	83.0932	319.336	77.8198	319.336	83.2759	319.336	78.3369	319.336	83.4818	319.336	79.1485	319.336	83.6275	319.336	80.1547	319.336	83.6276	319.336	81.2123	319.336	83.4088	319.336	82.1739	319.336	82.9249
329.59	87.498	329.59	87.4122	329.59	87.3148	329.59	87.1012	329.59	86.8227	329.59	86.611	329.59	85.9875	329.59	85.9896	329.59	84.7867	329.59	85.2871	329.59	83.2293	329.59	84.559	329.59	81.4138	329.59	83.8677	329.59	79.6395	329.59	83.2806	329.59	78.4177	329.59	82.8583	329.59	78.0387	329.59	82.6347	329.59	78.2383	329.59	82.6033	329.59	78.6627	329.59	82.7223	329.59	79.1905	329.59	82.9324	329.59	79.822	329.59	83.1692	329.59	80.547	329.59	83.367	329.59	81.3148	329.59	83.4612	329.59	82.0506	329.59	83.3961	329.59	82.6779	329.59	83.1365
341.309	87.6517	341.309	87.5651	341.309	87.4742	341.309	87.2527	341.309	87.0024	341.309	86.758	341.309	86.2156	341.309	86.129	341.309	85.1079	341.309	85.4182	341.309	83.701	341.309	84.6833	341.309	82.0771	341.309	83.9857	341.309	80.4377	341.309	83.383	341.309	79.1322	341.309	82.9153	341.309	78.4948	341.309	82.5956	341.309	78.551	341.309	82.4148	341.309	79.0586	341.309	82.3605	341.309	79.7749	341.309	82.4259	341.309	80.5443	341.309	82.5961	341.309	81.2725	341.309	82.8251	341.309	81.9105	341.309	83.0339	341.309	82.4379	341.309	83.1367	341.309	82.8357	341.309	83.0754
353.027	88.0595	353.027	87.8979	353.027	87.9743	353.027	87.5317	353.027	87.605	353.027	87.0046	353.027	86.922	353.027	86.3588	353.027	85.9072	353.027	85.6336	353.027	84.5651	353.027	84.8687	353.027	82.9603	353.027	84.1118	353.027	81.3026	353.027	83.4255	353.027	80.0277	353.027	82.885	353.027	79.574	353.027	82.5533	353.027	79.8823	353.027	82.4422	353.027	80.528	353.027	82.4964	353.027	81.2091	353.027	82.6253	353.027	81.8205	353.027	82.7539	353.027	82.3328	353.027	82.8505	353.027	82.7197	353.027	82.9228	353.027	82.9581	353.027	82.9888	353.027	83.053	353.027	83.0449
366.211	87.8239	366.211	87.651	366.211	87.7824	366.211	87.2865	366.211	87.5118	366.211	86.7613	366.211	87.0027	366.211	86.1124	366.211	86.2487	366.211	85.3834	366.211	85.2472	366.211	84.6278	366.211	84.0177	366.211	83.9153	366.211	82.6563	366.211	83.3315	366.211	81.4207	366.211	82.9547	366.211	80.6796	366.211	82.8112	366.211	80.5321	366.211	82.8515	366.211	80.6589	366.211	82.9779	366.211	80.7594	366.211	83.0968	366.211	80.8118	366.211	83.1483	366.211	80.9468	366.211	83.107	366.211	81.2348	366.211	82.9683	366.211	81.6272	366.211	82.7367	366.211	82.0419	366.211	82.4221
379.395	87.3746	379.395	87.2229	379.395	87.3471	379.395	86.8914	379.395	87.1587	379.395	86.3996	379.395	86.8323	379.395	85.7817	379.395	86.377	379.395	85.0749	379.395	85.7738	379.395	84.314	379.395	84.9788	379.395	83.5371	379.395	83.9512	379.395	82.8058	379.395	82.7099	379.395	82.2225	379.395	81.4068	379.395	81.9086	379.395	80.3208	379.395	81.9271	379.395	79.6387	379.395	82.2137	379.395	79.2809	379.395	82.6082	379.395	79.1105	379.395	82.9411	379.395	79.1348	379.395	83.0842	379.395	79.4465	379.395	82.9576	379.395	80.0837	379.395	82.5286	379.395	80.9441	379.395	81.8223
392.578	87.4348	392.578	87.4866	392.578	87.1462	392.578	87.2785	392.578	86.698	392.578	86.8321	392.578	86.2055	392.578	86.1962	392.578	85.7627	392.578	85.4306	392.578	85.3738	392.578	84.5951	392.578	84.9516	392.578	83.748	392.578	84.3937	392.578	82.9515	392.578	83.668	392.578	82.28	392.578	82.8361	392.578	81.8218	392.578	81.9656	392.578	81.6602	392.578	81.0073	392.578	81.8234	392.578	79.8796	392.578	82.2331	392.578	78.7487	392.578	82.7164	392.578	78.1121	392.578	83.075	392.578	78.375	392.578	83.1411	392.578	79.425	392.578	82.7982	392.578	80.7862	392.578	81.9939
405.762	87.0372	405.762	87.0169	405.762	86.7745	405.762	86.7346	405.762	86.2599	405.762	86.2428	405.762	85.5889	405.762	85.6035	405.762	84.9021	405.762	84.8721	405.762	84.3138	405.762	84.0932	405.762	83.829	405.762	83.3155	405.762	83.3546	405.762	82.6133	405.762	82.8081	405.762	82.0848	405.762	82.1942	405.762	81.7946	405.762	81.5453	405.762	81.7086	405.762	80.8021	405.762	81.7213	405.762	79.8691	405.762	81.7537	405.762	78.8304	405.762	81.7954	405.762	78.056	405.762	81.8465	405.762	78.0109	405.762	81.8307	405.762	78.797	405.762	81.59	405.762	79.9623	405.762	80.9739
420.41	86.9967	420.41	86.8154	420.41	86.9202	420.41	86.4458	420.41	86.5497	420.41	85.9707	420.41	85.8874	420.41	85.455	420.41	84.9695	420.41	84.9159	420.41	83.8683	420.41	84.3166	420.41	82.7313	420.41	83.5905	420.41	81.8603	420.41	82.6963	420.41	81.644	420.41	81.7036	420.41	82.1065	420.41	80.8811	420.41	82.7489	420.41	80.6003	420.41	83.0597	420.41	80.9221	420.41	82.8107	420.41	81.4845	420.41	82.0372	420.41	81.907	420.41	80.9958	420.41	82.0022	420.41	80.1006	420.41	81.7379	420.41	79.7148	420.41	81.1835	420.41	79.9122	420.41	80.4955
435.059	87.3699	435.059	87.4111	435.059	87.2169	435.059	87.2967	435.059	87.0109	435.059	87.0293	435.059	86.766	435.059	86.6512	435.059	86.3984	435.059	86.2111	435.059	85.7226	435.059	85.7239	435.059	84.484	435.059	85.1522	435.059	82.4385	435.059	84.426	435.059	79.8362	435.059	83.4906	435.059	78.9844	435.059	82.3803	435.059	80.7597	435.059	81.3379	435.059	82.2316	435.059	80.858	435.059	82.4563	435.059	81.2472	435.059	81.6082	435.059	82.1388	435.059	80.2719	435.059	82.9447	435.059	79.4014	435.059	83.3055	435.059	79.7182	435.059	83.0673	435.059	80.9228	435.059	82.2138
451.172	88.0928	451.172	88.0592	451.172	87.9101	451.172	87.7277	451.172	87.6761	451.172	87.1143	451.172	87.5307	451.172	86.3035	451.172	87.4349	451.172	85.4031	451.172	87.1558	451.172	84.4947	451.172	86.3873	451.172	83.6063	451.172	84.8319	451.172	82.7313	451.172	82.243	451.172	81.8764	451.172	78.7872	451.172	81.0984	451.172	76.6837	451.172	80.4938	451.172	77.7213	451.172	80.1538	451.172	79.1904	451.172	80.1373	451.172	80.1916	451.172	80.466	451.172	80.9571	451.172	81.0771	451.172	81.6491	451.172	81.7853	451.172	82.2342	451.172	82.3628	451.172	82.5989	451.172	82.6518
465.82	88.1276	465.82	88.1912	465.82	87.66	465.82	87.8155	465.82	86.9843	465.82	87.0763	465.82	86.4608	465.82	86.1273	465.82	86.3694	465.82	85.1571	465.82	86.5516	465.82	84.3102	465.82	86.5417	465.82	83.6092	465.82	85.9192	465.82	82.9613	465.82	84.3874	465.82	82.252	465.82	81.7938	465.82	81.4519	465.82	78.8484	465.82	80.6779	465.82	78.4386	465.82	80.154	465.82	80.0859	465.82	80.0142	465.82	81.2532	465.82	80.1513	465.82	81.6863	465.82	80.3647	465.82	81.7223	465.82	80.5661	465.82	81.5907	465.82	80.7875	465.82	81.3575	465.82	81.0648
483.398	87.6767	483.398	87.6039	483.398	87.432	483.398	87.2412	483.398	86.9052	483.398	86.6618	483.398	86.2117	483.398	85.965	483.398	85.5418	483.398	85.2513	483.398	85.0721	483.398	84.5923	483.398	84.8008	483.398	83.9959	483.398	84.5224	483.398	83.3928	483.398	83.9968	483.398	82.673	483.398	83.1121	483.398	81.7812	483.398	82.0017	483.398	80.8611	483.398	81.0693	483.398	80.3326	483.398	80.5654	483.398	80.5072	483.398	80.2125	483.398	81.0545	483.398	79.7289	483.398	81.3898	483.398	79.1954	483.398	81.193	483.398	78.8395	483.398	80.4663	483.398	78.8965	483.398	79.5267
499.512	87.1959	499.512	87.3514	499.512	86.8427	499.512	87.2271	499.512	86.432	499.512	86.8173	499.512	86.0786	499.512	86.1812	499.512	85.764	499.512	85.4207	499.512	85.3272	499.512	84.6491	499.512	84.5769	499.512	83.9486	499.512	83.4531	499.512	83.3277	499.512	82.3162	499.512	82.7051	499.512	82.0696	499.512	81.9426	499.512	82.7957	499.512	80.9423	499.512	83.3233	499.512	79.8311	499.512	82.8673	499.512	79.1512	499.512	81.3139	499.512	79.3915	499.512	79.1184	499.512	80.0993	499.512	77.3859	499.512	80.4974	499.512	77.0644	499.512	80.2141	499.512	77.9569	499.512	79.2507
517.09	87.9456	517.09	87.599	517.09	87.793	517.09	86.7868	517.09	87.2722	517.09	85.6538	517.09	86.7357	517.09	84.4409	517.09	86.5592	517.09	83.4518	517.09	86.6497	517.09	82.9367	517.09	86.4728	517.09	82.9172	517.09	85.5016	517.09	83.1404	517.09	83.4636	517.09	83.24	517.09	81.4068	517.09	82.9069	517.09	82.5204	517.09	81.9529	517.09	84.8241	517.09	80.3775	517.09	85.8649	517.09	78.6369	517.09	85.472	517.09	77.8071	517.09	83.9421	517.09	78.1315	517.09	81.7637	517.09	78.5405	517.09	79.6594	517.09	78.4642	517.09	78.3823	517.09	78.165
536.133	88.5569	536.133	87.7995	536.133	88.817	536.133	86.6182	536.133	88.6232	536.133	85.1718	536.133	88.165	536.133	83.6311	536.133	87.7061	536.133	82.084	536.133	87.292	536.133	80.6012	536.133	86.5709	536.133	79.5982	536.133	84.9505	536.133	79.9119	536.133	81.8098	536.133	81.4082	536.133	79.899	536.133	82.9218	536.133	83.9707	536.133	83.7127	536.133	86.8408	536.133	83.488	536.133	87.393	536.133	82.1102	536.133	86.142	536.133	79.8098	536.133	83.5998	536.133	78.3854	536.133	79.97	536.133	79.2838	536.133	76.3059	536.133	80.1174	536.133	77.2359	536.133	79.4767
555.176	87.6645	555.176	87.2719	555.176	87.7163	555.176	86.6919	555.176	87.4092	555.176	86.0684	555.176	86.9864	555.176	85.4494	555.176	86.8578	555.176	84.7832	555.176	87.1098	555.176	83.9213	555.176	87.2823	555.176	82.5893	555.176	86.6929	555.176	80.4348	555.176	84.476	555.176	77.6337	555.176	79.3457	555.176	77.2263	555.176	77.9782	555.176	79.8669	555.176	82.7475	555.176	81.8135	555.176	83.8651	555.176	82.228	555.176	82.0583	555.176	81.1737	555.176	77.558	555.176	79.3135	555.176	71.4733	555.176	78.7963	555.176	75.6755	555.176	79.9123	555.176	79.3345	555.176	80.4429
574.219	87.8881	574.219	87.2277	574.219	88.1181	574.219	86.5657	574.219	87.6062	574.219	86.107	574.219	86.3382	574.219	85.7152	574.219	84.9184	574.219	85.207	574.219	84.687	574.219	84.5383	574.219	85.4683	574.219	83.7393	574.219	85.5544	574.219	82.7709	574.219	83.7545	574.219	81.4757	574.219	78.8739	574.219	79.8248	574.219	75.0788	574.219	78.6811	574.219	78.8725	574.219	79.4522	574.219	79.0287	574.219	81.0307	574.219	76.4602	574.219	81.7925	574.219	74.8343	574.219	81.3374	574.219	77.1667	574.219	80.2457	574.219	80.1752	574.219	80.2141	574.219	81.6015	574.219	81.3038
594.727	87.594	594.727	87.6889	594.727	87.8092	594.727	87.7776	594.727	88.0574	594.727	87.4477	594.727	87.8224	594.727	86.6028	594.727	86.8707	594.727	85.4583	594.727	85.5213	594.727	84.3941	594.727	84.6801	594.727	83.6757	594.727	84.3491	594.727	83.2021	594.727	83.0349	594.727	82.5705	594.727	78.7534	594.727	81.3235	594.727	66.6958	594.727	79.3022	594.727	75.6699	594.727	77.9201	594.727	78.7152	594.727	79.3408	594.727	78.1671	594.727	81.1666	594.727	77.196	594.727	81.6807	594.727	77.1585	594.727	80.9888	594.727	77.8459	594.727	80.0544	594.727	78.9562	594.727	79.611
615.234	87.6886	615.234	87.6697	615.234	87.5629	615.234	87.2805	615.234	87.5589	615.234	86.4772	615.234	87.6562	615.234	85.3557	615.234	87.5143	615.234	84.0627	615.234	86.8146	615.234	82.7207	615.234	85.4879	615.234	81.4293	615.234	83.7295	615.234	80.3861	615.234	81.8862	615.234	79.9396	615.234	80.3362	615.234	80.2293	615.234	79.7551	615.234	80.8595	615.234	80.7068	615.234	81.2419	615.234	81.9911	615.234	80.9745	615.234	82.158	615.234	80.0834	615.234	80.5782	615.234	79.3615	615.234	77.2883	615.234	79.4444	615.234	74.3688	615.234	79.2471	615.234	75.1511	615.234	77.6846
637.207	88.7781	637.207	88.327	637.207	88.5491	637.207	87.2925	637.207	87.7993	637.207	85.9306	637.207	86.9705	637.207	84.5272	637.207	86.4759	637.207	83.3014	637.207	86.1912	637.207	82.3817	637.207	85.6688	637.207	81.751	637.207	84.6087	637.207	81.2624	637.207	82.8654	637.207	80.692	637.207	80.5806	637.207	79.6944	637.207	79.4819	637.207	78.0551	637.207	80.4541	637.207	76.9572	637.207	80.6223	637.207	78.2773	637.207	78.9795	637.207	79.7669	637.207	76.5461	637.207	79.6749	637.207	77.5131	637.207	78.5414	637.207	80.5016	637.207	78.924	637.207	81.5805	637.207	80.7195
659.18	87.1239	659.18	87.2675	659.18	87.3147	659.18	87.3658	659.18	87.4602	659.18	86.9641	659.18	86.9502	659.18	85.9708	659.18	85.7519	659.18	84.6082	659.18	84.769	659.18	83.3152	659.18	84.7443	659.18	82.5224	659.18	84.4547	659.18	82.2772	659.18	82.4137	659.18	82.1286	659.18	78.9519	659.18	81.431	659.18	80.2808	659.18	79.6125	659.18	82.365	659.18	76.9615	659.18	81.7748	659.18	77.2939	659.18	78.9669	659.18	79.8845	659.18	75.4558	659.18	80.8993	659.18	75.3207	659.18	79.997	659.18	77.5862	659.18	78.4883	659.18	78.9959	659.18	78.6968
682.617	87.8832	682.617	87.6497	682.617	88.198	682.617	87.2349	682.617	88.4178	682.617	86.4016	682.617	88.0712	682.617	85.1541	682.617	87.0212	682.617	83.688	682.617	85.8196	682.617	82.3318	682.617	85.0885	682.617	81.4452	682.617	84.0272	682.617	81.1253	682.617	81.032	682.617	81.0967	682.617	77.2047	682.617	80.9422	682.617	80.1339	682.617	80.2033	682.617	82.2538	682.617	78.5835	682.617	82.0933	682.617	77.0224	682.617	80.8463	682.617	77.702	682.617	79.5616	682.617	78.9848	682.617	79.2986	682.617	79.192	682.617	80.1625	682.617	79.0881	682.617	80.5884	682.617	79.8829
707.52	87.5476	707.52	87.2385	707.52	87.6555	707.52	86.8338	707.52	87.6042	707.52	86.3446	707.52	87.4727	707.52	85.577	707.52	87.0674	707.52	84.3249	707.52	86.174	707.52	82.4803	707.52	85.0979	707.52	80.0015	707.52	84.1731	707.52	77.145	707.52	82.4808	707.52	75.8842	707.52	77.6408	707.52	77.8711	707.52	64.8572	707.52	79.9854	707.52	78.3292	707.52	80.3989	707.52	80.7738	707.52	79.0756	707.52	79.5849	707.52	79.0374	707.52	77.7635	707.52	80.9269	707.52	77.6809	707.52	80.9865	707.52	78.0058	707.52	78.5836	707.52	77.5546	707.52	76.5085
732.422	87.7794	732.422	88.0148	732.422	87.6121	732.422	87.7754	732.422	87.4978	732.422	86.7663	732.422	87.0639	732.422	85.1981	732.422	86.2968	732.422	83.615	732.422	85.5485	732.422	82.4747	732.422	85.0444	732.422	81.6205	732.422	84.1705	732.422	80.4901	732.422	81.7087	732.422	79.1087	732.422	75.4228	732.422	78.9487	732.422	75.2043	732.422	80.148	732.422	80.9497	732.422	80.4235	732.422	81.0064	732.422	78.3765	732.422	77.008	732.422	74.6349	732.422	73.1487	732.422	76.5642	732.422	75.221	732.422	79.1919	732.422	77.3565	732.422	78.7951	732.422	76.8227	732.422	76.7101
757.324	86.8625	757.324	87.2566	757.324	86.782	757.324	87.4055	757.324	86.9819	757.324	86.8682	757.324	86.9615	757.324	85.7368	757.324	86.3579	757.324	84.4426	757.324	85.4275	757.324	83.2469	757.324	84.7789	757.324	81.9411	757.324	84.1493	757.324	80.3438	757.324	82.4008	757.324	78.9808	757.324	78.3127	757.324	78.4625	757.324	74.7064	757.324	78.372	757.324	76.6308	757.324	78.2657	757.324	76.0802	757.324	78.0694	757.324	73.6006	757.324	78.1512	757.324	76.7921	757.324	79.1126	757.324	77.8476	757.324	79.6652	757.324	77.8532	757.324	78.2889	757.324	77.796	757.324	76.881
785.156	87.3367	785.156	87.491	785.156	86.9031	785.156	87.4133	785.156	86.485	785.156	86.9883	785.156	86.6031	785.156	86.0856	785.156	86.8183	785.156	84.8874	785.156	86.154	785.156	83.6929	785.156	84.1795	785.156	82.601	785.156	82.29	785.156	81.9056	785.156	82.3434	785.156	81.8734	785.156	82.1194	785.156	81.6335	785.156	79.4369	785.156	80.5177	785.156	75.9136	785.156	79.4415	785.156	77.2128	785.156	78.386	785.156	77.1062	785.156	75.039	785.156	78.6657	785.156	75.7017	785.156	79.9742	785.156	80.3954	785.156	78.836	785.156	80.9144	785.156	76.4585	785.156	77.6926
811.523	87.2525	811.523	87.3272	811.523	87.0077	811.523	86.9655	811.523	86.9916	811.523	86.198	811.523	86.7579	811.523	85.7095	811.523	86.0232	811.523	85.4798	811.523	86.1318	811.523	85.1009	811.523	87.1357	811.523	84.2604	811.523	87.102	811.523	82.7579	811.523	84.8143	811.523	80.7815	811.523	81.1309	811.523	78.2974	811.523	80.1756	811.523	76.4166	811.523	79.9631	811.523	79.0174	811.523	79.0315	811.523	80.4347	811.523	76.4596	811.523	78.3067	811.523	71.9045	811.523	76.8548	811.523	75.2832	811.523	77.9871	811.523	78.692	811.523	77.9908	811.523	78.0139	811.523	76.4168
840.82	88.1404	840.82	88.6149	840.82	87.0622	840.82	88.4044	840.82	86.264	840.82	87.5106	840.82	86.836	840.82	86.2747	840.82	87.7452	840.82	85.2272	840.82	87.4129	840.82	84.1616	840.82	85.6522	840.82	82.6217	840.82	83.1703	840.82	81.1179	840.82	81.0343	840.82	80.2371	840.82	78.7783	840.82	78.0144	840.82	77.9039	840.82	72.4305	840.82	78.8589	840.82	74.9946	840.82	77.8526	840.82	81.0478	840.82	76.941	840.82	82.4465	840.82	77.5746	840.82	79.9455	840.82	76.1292	840.82	80.0408	840.82	73.5059	840.82	80.6986	840.82	69.5172	840.82	75.9455
870.117	88.2928	870.117	88.3206	870.117	88.8872	870.117	88.3271	870.117	89.0715	870.117	87.91	870.117	88.0839	870.117	87.0231	870.117	86.979	870.117	85.4806	870.117	87.6216	870.117	84.1954	870.117	88.2208	870.117	84.3467	870.117	86.2584	870.117	84.9395	870.117	80.0958	870.117	84.9901	870.117	77.3738	870.117	84.852	870.117	81.6551	870.117	83.7975	870.117	82.0685	870.117	80.0025	870.117	80.8954	870.117	77.2739	870.117	81.101	870.117	79.1856	870.117	81.8636	870.117	77.9338	870.117	81.0146	870.117	76.242	870.117	77.9152	870.117	78.0032	870.117	75.8741	870.117	77.9611
900.879	87.8814	900.879	87.9254	900.879	87.9864	900.879	88.225	900.879	87.7334	900.879	88.3537	900.879	87.0099	900.879	88.1398	900.879	86.2118	900.879	87.4893	900.879	86.2703	900.879	86.2438	900.879	86.1954	900.879	84.1226	900.879	84.8262	900.879	80.8266	900.879	82.5905	900.879	77.078	900.879	80.9477	900.879	76.4195	900.879	81.0592	900.879	78.3442	900.879	82.4693	900.879	78.5889	900.879	80.8556	900.879	77.6375	900.879	74.7873	900.879	83.4262	900.879	76.2167	900.879	84.6231	900.879	82.3242	900.879	80.0562	900.879	82.7031	900.879	77.4666	900.879	79.2234	900.879	76.3712
933.105	88.0887	933.105	88.366	933.105	88.0719	933.105	88.5611	933.105	87.7536	933.105	87.9505	933.105	87.1712	933.105	86.4486	933.105	86.6318	933.105	84.4998	933.105	86.0518	933.105	82.2311	933.105	85.3908	933.105	79.9509	933.105	84.897	933.105	78.0802	933.105	83.9333	933.105	76.2521	933.105	78.6752	933.105	77.0694	933.105	77.0693	933.105	79.0571	933.105	78.3365	933.105	78.5479	933.105	71.3491	933.105	69.0495	933.105	51.2973	933.105	79.7732	933.105	71.1437	933.105	83.9358	933.105	74.2123	933.105	79.6664	933.105	74.4127	933.105	75.4113	933.105	78.859	933.105	81.1129
965.332	87.9684	965.332	88.1815	965.332	88.0362	965.332	88.0868	965.332	87.8988	965.332	87.5896	965.332	86.7593	965.332	86.5873	965.332	86.1802	965.332	85.0544	965.332	87.2829	965.332	83.5778	965.332	87.2767	965.332	82.2163	965.332	83.9191	965.332	79.9353	965.332	79.4627	965.332	77.219	965.332	80.8224	965.332	77.5682	965.332	80.6932	965.332	80.5523	965.332	80.1189	965.332	82.8017	965.332	79.5319	965.332	81.1988	965.332	78.5074	965.332	76.6322	965.332	77.3185	965.332	79.9457	965.332	74.384	965.332	78.2977	965.332	74.5488	965.332	73.9586	965.332	75.4105	965.332	75.4495
1,000.49	87.6448	1,000.49	88.4572	1,000.49	87.5356	1,000.49	88.7939	1,000.49	87.5222	1,000.49	87.3396	1,000.49	87.3479	1,000.49	84.793	1,000.49	87.5579	1,000.49	83.2766	1,000.49	87.616	1,000.49	82.6949	1,000.49	86.3375	1,000.49	81.3298	1,000.49	83.4342	1,000.49	80.0299	1,000.49	80.4968	1,000.49	78.469	1,000.49	76.1422	1,000.49	74.9231	1,000.49	75.2889	1,000.49	66.9824	1,000.49	82.4718	1,000.49	77.2653	1,000.49	79.0294	1,000.49	81.926	1,000.49	70.8739	1,000.49	78.6777	1,000.49	67.7387	1,000.49	78.3256	1,000.49	76.598	1,000.49	80.9673	1,000.49	82.8425	1,000.49	76.6165	1,000.49	80.4302	1,000.49	74.2875
1,035.64	88.134	1,035.64	87.5087	1,035.64	87.1451	1,035.64	87.8094	1,035.64	85.047	1,035.64	89.0288	1,035.64	84.1396	1,035.64	88.7666	1,035.64	85.655	1,035.64	86.241	1,035.64	87.3617	1,035.64	81.7129	1,035.64	87.2835	1,035.64	77.9111	1,035.64	85.9532	1,035.64	78.3177	1,035.64	84.2424	1,035.64	79.0245	1,035.64	82.5831	1,035.64	80.2403	1,035.64	70.6826	1,035.64	80.1244	1,035.64	73.3906	1,035.64	79.022	1,035.64	73.4637	1,035.64	80.1593	1,035.64	82.5624	1,035.64	76.553	1,035.64	83.2817	1,035.64	70.7937	1,035.64	74.188	1,035.64	75.1523	1,035.64	75.4296	1,035.64	78.9555	1,035.64	76.6989	1,035.64	80.0212
1,072.27	88.1366	1,072.27	87.5848	1,072.27	87.3993	1,072.27	87.5613	1,072.27	86.204	1,072.27	88.244	1,072.27	87.0252	1,072.27	88.11	1,072.27	88.2074	1,072.27	87.2151	1,072.27	87.5972	1,072.27	86.3562	1,072.27	86.1479	1,072.27	84.6226	1,072.27	85.0663	1,072.27	80.8893	1,072.27	81.1089	1,072.27	78.4982	1,072.27	71.9008	1,072.27	80.5052	1,072.27	80.9069	1,072.27	80.9986	1,072.27	82.9355	1,072.27	78.8423	1,072.27	82.9194	1,072.27	81.9318	1,072.27	79.9162	1,072.27	83.4152	1,072.27	77.3003	1,072.27	75.9122	1,072.27	75.3785	1,072.27	78.7881	1,072.27	74.7327	1,072.27	76.1312	1,072.27	69.8459	1,072.27	66.5454
1,108.89	87.4887	1,108.89	86.6472	1,108.89	88.1302	1,108.89	88.0302	1,108.89	87.0003	1,108.89	88.9777	1,108.89	86.7419	1,108.89	87.9315	1,108.89	87.3723	1,108.89	86.0378	1,108.89	86.4454	1,108.89	83.7927	1,108.89	86.1965	1,108.89	79.3898	1,108.89	86.0269	1,108.89	70.7151	1,108.89	82.5168	1,108.89	61.6181	1,108.89	74.3701	1,108.89	70.5006	1,108.89	74.7662	1,108.89	77.6716	1,108.89	79.954	1,108.89	78.1368	1,108.89	55.6478	1,108.89	80.0816	1,108.89	73.9454	1,108.89	80.9715	1,108.89	77.3553	1,108.89	76.4367	1,108.89	72.3409	1,108.89	73.484	1,108.89	74.3808	1,108.89	75.3319	1,108.89	76.7669	1,108.89	76.5645
1,148.44	86.8196	1,148.44	87.7025	1,148.44	85.6809	1,148.44	88.1097	1,148.44	85.8064	1,148.44	88.2139	1,148.44	87.6421	1,148.44	88.4919	1,148.44	88.585	1,148.44	87.6994	1,148.44	86.7688	1,148.44	84.4336	1,148.44	85.432	1,148.44	81.2118	1,148.44	85.5349	1,148.44	81.0987	1,148.44	83.6014	1,148.44	80.6664	1,148.44	79.4407	1,148.44	75.2845	1,148.44	59.4349	1,148.44	78.6884	1,148.44	74.0658	1,148.44	79.7986	1,148.44	74.9107	1,148.44	69.636	1,148.44	76.0017	1,148.44	76.149	1,148.44	80.032	1,148.44	77.5143	1,148.44	80.2027	1,148.44	73.4506	1,148.44	69.7611	1,148.44	77.2011	1,148.44	66.8367	1,148.44	77.1821
1,189.45	87.4134	1,189.45	87.743	1,189.45	86.9988	1,189.45	88.225	1,189.45	85.5412	1,189.45	88.5175	1,189.45	83.6568	1,189.45	87.9352	1,189.45	83.3526	1,189.45	86.3729	1,189.45	85.0375	1,189.45	85.3558	1,189.45	86.1029	1,189.45	84.226	1,189.45	85.9177	1,189.45	81.4285	1,189.45	84.787	1,189.45	80.0961	1,189.45	82.2989	1,189.45	80.0481	1,189.45	75.5921	1,189.45	76.0746	1,189.45	75.4039	1,189.45	72.3609	1,189.45	69.8742	1,189.45	75.1466	1,189.45	73.9151	1,189.45	78.0355	1,189.45	71.6853	1,189.45	78.9656	1,189.45	64.7273	1,189.45	73.8295	1,189.45	66.6386	1,189.45	68.1026	1,189.45	75.2681	1,189.45	73.9572
1,230.47	86.4019	1,230.47	88.9586	1,230.47	85.685	1,230.47	89.7217	1,230.47	86.5535	1,230.47	88.0413	1,230.47	85.4302	1,230.47	86.5926	1,230.47	85.5217	1,230.47	85.6219	1,230.47	87.4649	1,230.47	84.8698	1,230.47	87.791	1,230.47	84.6159	1,230.47	87.6264	1,230.47	83.5137	1,230.47	87.4666	1,230.47	80.7897	1,230.47	83.3358	1,230.47	78.2153	1,230.47	82.3626	1,230.47	78.2153	1,230.47	78.7332	1,230.47	80.6572	1,230.47	72.7729	1,230.47	77.5771	1,230.47	78.7566	1,230.47	78.2491	1,230.47	80.464	1,230.47	79.9051	1,230.47	80.5478	1,230.47	77.3875	1,230.47	75.9513	1,230.47	74.7956	1,230.47	77.3895	1,230.47	76.2326
1,274.41	88.0084	1,274.41	88.4786	1,274.41	86.0369	1,274.41	88.0206	1,274.41	83.3091	1,274.41	87.8894	1,274.41	84.3364	1,274.41	86.3904	1,274.41	86.4908	1,274.41	84.1449	1,274.41	87.0169	1,274.41	81.4409	1,274.41	86.5616	1,274.41	76.8997	1,274.41	85.1141	1,274.41	61.6242	1,274.41	81.5117	1,274.41	73.653	1,274.41	76.9232	1,274.41	74.5004	1,274.41	72.4493	1,274.41	75.5208	1,274.41	80.127	1,274.41	68.4495	1,274.41	70.6359	1,274.41	82.6092	1,274.41	68.8797	1,274.41	80.016	1,274.41	70.1168	1,274.41	75.5719	1,274.41	77.0465	1,274.41	73.4136	1,274.41	64.8047	1,274.41	74.128	1,274.41	67.8232	1,274.41	78.8281
1,319.82	85.1763	1,319.82	88.1247	1,319.82	86.1877	1,319.82	89.3522	1,319.82	87.1891	1,319.82	87.9259	1,319.82	85.5311	1,319.82	86.4526	1,319.82	86.7667	1,319.82	85.6635	1,319.82	88.1342	1,319.82	83.613	1,319.82	85.6993	1,319.82	81.919	1,319.82	83.5283	1,319.82	80.8626	1,319.82	83.0567	1,319.82	73.7654	1,319.82	80.3031	1,319.82	60.7349	1,319.82	74.3313	1,319.82	64.14	1,319.82	65.8253	1,319.82	62.3336	1,319.82	78.5928	1,319.82	72.769	1,319.82	80.9919	1,319.82	76.2804	1,319.82	78.7562	1,319.82	74.3102	1,319.82	77.9373	1,319.82	77.2799	1,319.82	77.3573	1,319.82	73.8078	1,319.82	74.8076	1,319.82	70.2301
1,366.7	87.2021	1,366.7	87.3842	1,366.7	85.8048	1,366.7	87.7937	1,366.7	84.5621	1,366.7	88.4793	1,366.7	86.2598	1,366.7	87.5907	1,366.7	85.93	1,366.7	83.9683	1,366.7	83.2467	1,366.7	79.4852	1,366.7	83.2519	1,366.7	77.5586	1,366.7	85.7358	1,366.7	78.29	1,366.7	84.8006	1,366.7	81.5388	1,366.7	80.8862	1,366.7	79.8531	1,366.7	77.6532	1,366.7	78.7072	1,366.7	71.517	1,366.7	75.7266	1,366.7	65.282	1,366.7	72.3225	1,366.7	75.8184	1,366.7	75.5763	1,366.7	65.6461	1,366.7	71.8246	1,366.7	73.9395	1,366.7	76.0184	1,366.7	77.3787	1,366.7	76.4956	1,366.7	71.7577	1,366.7	70.9695
1,413.57	86.8691	1,413.57	87.3877	1,413.57	86.5422	1,413.57	88.594	1,413.57	85.7617	1,413.57	87.4731	1,413.57	85.5018	1,413.57	84.7428	1,413.57	86.3097	1,413.57	83.0563	1,413.57	87.0094	1,413.57	82.7146	1,413.57	87.9635	1,413.57	79.5974	1,413.57	85.8208	1,413.57	63.5927	1,413.57	79.793	1,413.57	56.3565	1,413.57	78.4207	1,413.57	76.6438	1,413.57	76.4332	1,413.57	65.7757	1,413.57	79.4765	1,413.57	79.4963	1,413.57	76.5026	1,413.57	71.3758	1,413.57	71.2684	1,413.57	74.5858	1,413.57	79.4394	1,413.57	73.572	1,413.57	77.0653	1,413.57	71.3007	1,413.57	74.3341	1,413.57	73.3075	1,413.57	67.4632	1,413.57	64.2939
1,463.38	87.8994	1,463.38	87.7311	1,463.38	86.304	1,463.38	87.9357	1,463.38	86.4902	1,463.38	88.0285	1,463.38	87.0653	1,463.38	86.1376	1,463.38	85.4044	1,463.38	84.3955	1,463.38	85.611	1,463.38	82.5021	1,463.38	86.5043	1,463.38	77.0756	1,463.38	85.7256	1,463.38	76.0988	1,463.38	82.4983	1,463.38	78.8054	1,463.38	80.5331	1,463.38	81.0527	1,463.38	78.1586	1,463.38	74.4516	1,463.38	70.381	1,463.38	79.7609	1,463.38	51.3833	1,463.38	76.2165	1,463.38	74.0417	1,463.38	64.7497	1,463.38	78.5353	1,463.38	70.96	1,463.38	70.4446	1,463.38	79.4005	1,463.38	76.5735	1,463.38	75.3453	1,463.38	78.0266	1,463.38	73.8882
1,516.11	87.9941	1,516.11	88.9133	1,516.11	87.1359	1,516.11	87.6461	1,516.11	84.3936	1,516.11	85.1764	1,516.11	81.2321	1,516.11	85.5556	1,516.11	82.9147	1,516.11	85.7874	1,516.11	84.5367	1,516.11	81.3628	1,516.11	84.7694	1,516.11	73.3802	1,516.11	84.1631	1,516.11	80.0496	1,516.11	80.1389	1,516.11	77.1724	1,516.11	74.8871	1,516.11	75.6925	1,516.11	74.854	1,516.11	75.1668	1,516.11	77.725	1,516.11	70.0387	1,516.11	70.9027	1,516.11	70.1925	1,516.11	71.5636	1,516.11	51.3202	1,516.11	72.9448	1,516.11	73.8841	1,516.11	75.9686	1,516.11	73.111	1,516.11	71.2891	1,516.11	71.9577	1,516.11	68.4974	1,516.11	74.8685
1,568.85	87.9807	1,568.85	88.4452	1,568.85	86.2647	1,568.85	86.5604	1,568.85	86.9973	1,568.85	86.5723	1,568.85	85.931	1,568.85	86.4352	1,568.85	83.2199	1,568.85	81.9967	1,568.85	83.65	1,568.85	79.1148	1,568.85	83.2778	1,568.85	79.5639	1,568.85	83.6649	1,568.85	76.8603	1,568.85	82.6581	1,568.85	80.3206	1,568.85	75.3204	1,568.85	76.8229	1,568.85	62.7219	1,568.85	79.8749	1,568.85	72.4078	1,568.85	81.0215	1,568.85	74.802	1,568.85	66.3673	1,568.85	72.5568	1,568.85	65.3514	1,568.85	80.262	1,568.85	69.4813	1,568.85	74.3858	1,568.85	75.238	1,568.85	65.8551	1,568.85	67.7322	1,568.85	79.1936	1,568.85	76.2425
1,624.51	87.4343	1,624.51	86.1516	1,624.51	86.555	1,624.51	87.7958	1,624.51	81.0698	1,624.51	85.9354	1,624.51	84.585	1,624.51	81.7259	1,624.51	85.1901	1,624.51	83.4531	1,624.51	81.4565	1,624.51	82.499	1,624.51	83.3112	1,624.51	80.2514	1,624.51	85.8266	1,624.51	79.4255	1,624.51	84.1296	1,624.51	79.2085	1,624.51	80.8077	1,624.51	77.083	1,624.51	81.0781	1,624.51	75.7154	1,624.51	70.5793	1,624.51	79.8223	1,624.51	76.9342	1,624.51	76.5914	1,624.51	72.6447	1,624.51	74.1887	1,624.51	69.5609	1,624.51	68.5689	1,624.51	72.2018	1,624.51	73.3577	1,624.51	72.3815	1,624.51	75.4045	1,624.51	71.6233	1,624.51	67.5845
1,681.64	87.8823	1,681.64	86.7282	1,681.64	86.3565	1,681.64	86.2797	1,681.64	84.7575	1,681.64	84.6589	1,681.64	85.3726	1,681.64	82.7855	1,681.64	83.1305	1,681.64	83.5761	1,681.64	81.5518	1,681.64	81.4164	1,681.64	84.7662	1,681.64	77.4275	1,681.64	86.1441	1,681.64	77.4939	1,681.64	83.3131	1,681.64	67.6418	1,681.64	76.5545	1,681.64	73.5029	1,681.64	68.0044	1,681.64	71.3542	1,681.64	71.4111	1,681.64	47.063	1,681.64	66.4314	1,681.64	65.2173	1,681.64	76.4202	1,681.64	67.6633	1,681.64	72.485	1,681.64	72.9831	1,681.64	71.0312	1,681.64	64.9448	1,681.64	73.0338	1,681.64	64.6771	1,681.64	77.6812	1,681.64	75.0825
1,741.7	88.6232	1,741.7	86.8284	1,741.7	87.6547	1,741.7	85.0302	1,741.7	84.8472	1,741.7	84.0892	1,741.7	82.7008	1,741.7	82.1955	1,741.7	82.4779	1,741.7	80.4421	1,741.7	81.4556	1,741.7	78.0907	1,741.7	83.0707	1,741.7	77.215	1,741.7	83.1267	1,741.7	78.044	1,741.7	82.0565	1,741.7	75.9819	1,741.7	79.2919	1,741.7	73.8971	1,741.7	69.2114	1,741.7	74.5529	1,741.7	69.6	1,741.7	64.4925	1,741.7	60.441	1,741.7	71.3462	1,741.7	63.5353	1,741.7	76.2124	1,741.7	70.8325	1,741.7	75.9346	1,741.7	67.0025	1,741.7	66.0108	1,741.7	74.2129	1,741.7	72.614	1,741.7	64.8322	1,741.7	76.1571
1,803.22	88.9547	1,803.22	87.1277	1,803.22	88.5049	1,803.22	84.8055	1,803.22	85.0421	1,803.22	82.6522	1,803.22	81.5966	1,803.22	81.8116	1,803.22	80.5348	1,803.22	81.441	1,803.22	81.669	1,803.22	79.2645	1,803.22	82.3644	1,803.22	78.0604	1,803.22	84.1067	1,803.22	76.0169	1,803.22	83.1573	1,803.22	75.1984	1,803.22	74.3866	1,803.22	71.3893	1,803.22	73.8836	1,803.22	75.659	1,803.22	61.8657	1,803.22	73.2451	1,803.22	66.0782	1,803.22	74.5723	1,803.22	70.1519	1,803.22	67.5924	1,803.22	18.4822	1,803.22	68.0744	1,803.22	64.0356	1,803.22	75.5315	1,803.22	69.6348	1,803.22	63.3206	1,803.22	77.901	1,803.22	74.4749
1,866.21	88.1935	1,866.21	87.0613	1,866.21	88.0164	1,866.21	84.6933	1,866.21	85.3468	1,866.21	81.7187	1,866.21	81.3905	1,866.21	80.3929	1,866.21	79.1389	1,866.21	78.6512	1,866.21	80.0805	1,866.21	77.9906	1,866.21	83.1001	1,866.21	77.6849	1,866.21	83.4164	1,866.21	74.4663	1,866.21	81.6587	1,866.21	71.9924	1,866.21	80.8032	1,866.21	73.166	1,866.21	71.1079	1,866.21	72.0812	1,866.21	73.897	1,866.21	66.8559	1,866.21	65.3755	1,866.21	64.8434	1,866.21	66.7751	1,866.21	71.9399	1,866.21	71.8431	1,866.21	68.9828	1,866.21	66.0703	1,866.21	63.9615	1,866.21	71.1859	1,866.21	77.0161	1,866.21	71.3396	1,866.21	74.4331
1,932.13	87.1401	1,932.13	85.6842	1,932.13	86.8869	1,932.13	83.8702	1,932.13	84.6323	1,932.13	80.2194	1,932.13	81.0951	1,932.13	78.1891	1,932.13	79.1069	1,932.13	80.2341	1,932.13	79.0804	1,932.13	80.7658	1,932.13	80.389	1,932.13	79.1142	1,932.13	82.6106	1,932.13	79.509	1,932.13	80.8804	1,932.13	78.1844	1,932.13	70.1449	1,932.13	76.9175	1,932.13	70.7192	1,932.13	72.6041	1,932.13	72.2052	1,932.13	75.5094	1,932.13	66.7593	1,932.13	74.9016	1,932.13	62.3472	1,932.13	66.8563	1,932.13	67.6332	1,932.13	70.2319	1,932.13	52.8359	1,932.13	71.6609	1,932.13	73.2648	1,932.13	56.5171	1,932.13	74.5171	1,932.13	76.0367
1,999.51	87.908	1,999.51	85.8436	1,999.51	87.7902	1,999.51	82.2584	1,999.51	83.0908	1,999.51	77.2851	1,999.51	78.2993	1,999.51	76.5585	1,999.51	78.3037	1,999.51	80.7092	1,999.51	78.3797	1,999.51	81.5229	1,999.51	79.7804	1,999.51	80.1518	1,999.51	82.2637	1,999.51	80.1621	1,999.51	81.0093	1,999.51	78.9012	1,999.51	80.3688	1,999.51	76.7179	1,999.51	71.9191	1,999.51	73.7783	1,999.51	71.9877	1,999.51	70.742	1,999.51	60.7449	1,999.51	71.0307	1,999.51	61.978	1,999.51	66.5245	1,999.51	59.0784	1,999.51	67.5507	1,999.51	65.0126	1,999.51	68.3324	1,999.51	65.727	1,999.51	70.1105	1,999.51	74.9081	1,999.51	71.3925
2,069.82	88.0227	2,069.82	86.7433	2,069.82	87.7868	2,069.82	81.9593	2,069.82	84.1177	2,069.82	75.6717	2,069.82	75.638	2,069.82	77.5029	2,069.82	75.0995	2,069.82	80.5108	2,069.82	78.7266	2,069.82	80.7714	2,069.82	78.5572	2,069.82	81.6074	2,069.82	82.7604	2,069.82	77.5899	2,069.82	79.2295	2,069.82	73.5883	2,069.82	63.8012	2,069.82	70.9066	2,069.82	70.7463	2,069.82	74.5289	2,069.82	75.2487	2,069.82	70.0714	2,069.82	57.9734	2,069.82	70.8434	2,069.82	57.7721	2,069.82	64.4657	2,069.82	57.0778	2,069.82	66.1487	2,069.82	61.6985	2,069.82	68.7127	2,069.82	69.2859	2,069.82	71.6685	2,069.82	76.251	2,069.82	77.1307
2,143.07	87.6397	2,143.07	86.6143	2,143.07	87.3909	2,143.07	81.2675	2,143.07	83.8997	2,143.07	65.1036	2,143.07	75.9233	2,143.07	77.4821	2,143.07	67.1232	2,143.07	82.6678	2,143.07	76.6495	2,143.07	83.5716	2,143.07	79.9766	2,143.07	80.2111	2,143.07	81.4948	2,143.07	80.0788	2,143.07	82.3231	2,143.07	79.6807	2,143.07	79.7518	2,143.07	76.7714	2,143.07	65.6125	2,143.07	70.6808	2,143.07	71.6	2,143.07	75.1927	2,143.07	63.9457	2,143.07	68.6837	2,143.07	68.0402	2,143.07	72.9877	2,143.07	52.7064	2,143.07	64.2513	2,143.07	60.4806	2,143.07	63.4169	2,143.07	65.2641	2,143.07	55.2933	2,143.07	76.8057	2,143.07	74.0685
2,219.24	86.9736	2,219.24	86.4383	2,219.24	85.7814	2,219.24	82.7746	2,219.24	83.0378	2,219.24	70.0648	2,219.24	72.3886	2,219.24	78.8903	2,219.24	67.5146	2,219.24	82.6483	2,219.24	77.8408	2,219.24	81.7103	2,219.24	79.2826	2,219.24	81.805	2,219.24	83.9814	2,219.24	80.8718	2,219.24	80.0505	2,219.24	78.8377	2,219.24	54.6563	2,219.24	76.8405	2,219.24	73.3131	2,219.24	73.673	2,219.24	69.2484	2,219.24	64.2548	2,219.24	64.4957	2,219.24	70.8439	2,219.24	69.625	2,219.24	63.4177	2,219.24	53.1001	2,219.24	64.8735	2,219.24	61.9873	2,219.24	65.6509	2,219.24	67.8438	2,219.24	73.1273	2,219.24	71.049	2,219.24	72.9303
2,296.88	86.9878	2,296.88	85.1372	2,296.88	86.7235	2,296.88	80.8507	2,296.88	81.513	2,296.88	65.3588	2,296.88	70.8484	2,296.88	82.1295	2,296.88	68.3161	2,296.88	84.5015	2,296.88	78.6873	2,296.88	83.0524	2,296.88	82.3574	2,296.88	81.7647	2,296.88	82.5874	2,296.88	78.567	2,296.88	84.1642	2,296.88	75.5097	2,296.88	78.8731	2,296.88	69.9599	2,296.88	69.6749	2,296.88	73.0752	2,296.88	73.0824	2,296.88	72.0933	2,296.88	64.4146	2,296.88	69.383	2,296.88	69.7359	2,296.88	66.5177	2,296.88	60.5036	2,296.88	57.3257	2,296.88	63.8879	2,296.88	65.5192	2,296.88	67.3812	2,296.88	70.0092	2,296.88	74.2409	2,296.88	76.0549
2,378.91	87.6306	2,378.91	86.907	2,378.91	85.9827	2,378.91	83.2083	2,378.91	83.1997	2,378.91	76.1686	2,378.91	70.1494	2,378.91	83.4261	2,378.91	75.6623	2,378.91	83.7673	2,378.91	81.8829	2,378.91	84.2442	2,378.91	83.0123	2,378.91	81.5126	2,378.91	85.489	2,378.91	82.0596	2,378.91	82.3354	2,378.91	81.3383	2,378.91	72.4557	2,378.91	78.6374	2,378.91	73.5333	2,378.91	71.9176	2,378.91	67.9922	2,378.91	71.9835	2,378.91	70.8386	2,378.91	67.9061	2,378.91	70.2694	2,378.91	69.9633	2,378.91	67.6088	2,378.91	60.9556	2,378.91	62.6945	2,378.91	60.53	2,378.91	64.0164	2,378.91	62.6595	2,378.91	77.4651	2,378.91	76.1818
2,462.4	85.7224	2,462.4	85.8931	2,462.4	85.389	2,462.4	83.3744	2,462.4	82.8994	2,462.4	80.3521	2,462.4	75.0625	2,462.4	84.0939	2,462.4	80.3349	2,462.4	85.5821	2,462.4	81.452	2,462.4	83.7521	2,462.4	85.8646	2,462.4	82.9617	2,462.4	83.7395	2,462.4	81.1281	2,462.4	85.2778	2,462.4	75.6925	2,462.4	75.8443	2,462.4	72.6889	2,462.4	69.8384	2,462.4	72.7611	2,462.4	72.2572	2,462.4	71.0756	2,462.4	70.0363	2,462.4	69.6004	2,462.4	69.6625	2,462.4	67.5067	2,462.4	68.9605	2,462.4	66.8807	2,462.4	68.2184	2,462.4	64.1103	2,462.4	67.4374	2,462.4	70.8954	2,462.4	73.0368	2,462.4	72.0331
2,548.83	86.8665	2,548.83	86.8989	2,548.83	84.8713	2,548.83	82.947	2,548.83	81.6184	2,548.83	83.0466	2,548.83	78.1994	2,548.83	84.9492	2,548.83	80.339	2,548.83	84.9894	2,548.83	84.1666	2,548.83	85.1185	2,548.83	85.0406	2,548.83	82.2211	2,548.83	86.6533	2,548.83	79.4352	2,548.83	82.6274	2,548.83	80.5714	2,548.83	82.2466	2,548.83	76.3218	2,548.83	72.6477	2,548.83	73.4902	2,548.83	72.0747	2,548.83	67.2995	2,548.83	70.9878	2,548.83	69.8971	2,548.83	71.3564	2,548.83	59.9105	2,548.83	70.3392	2,548.83	57.7064	2,548.83	57.9308	2,548.83	56.6916	2,548.83	71.249	2,548.83	74.0806	2,548.83	72.6437	2,548.83	74.1883
2,639.65	86.1919	2,639.65	85.8772	2,639.65	85.6977	2,639.65	82.7689	2,639.65	82.443	2,639.65	84.5358	2,639.65	78.4864	2,639.65	85.5908	2,639.65	82.5353	2,639.65	86.5304	2,639.65	84.7839	2,639.65	84.1436	2,639.65	86.3254	2,639.65	82.9425	2,639.65	85.9191	2,639.65	83.5149	2,639.65	86.2808	2,639.65	80.0617	2,639.65	80.5235	2,639.65	75.8303	2,639.65	69.6635	2,639.65	67.108	2,639.65	66.5873	2,639.65	70.9686	2,639.65	65.8566	2,639.65	64.7326	2,639.65	69.0103	2,639.65	66.6338	2,639.65	64.1727	2,639.65	56.7108	2,639.65	68.2222	2,639.65	64.1366	2,639.65	67.5213	2,639.65	71.4332	2,639.65	75.6219	2,639.65	78.3659
2,731.93	85.8601	2,731.93	86.0455	2,731.93	83.7907	2,731.93	84.0191	2,731.93	83.8028	2,731.93	84.8747	2,731.93	81.2462	2,731.93	86.3013	2,731.93	84.0233	2,731.93	85.2362	2,731.93	85.7808	2,731.93	85.9268	2,731.93	85.7287	2,731.93	82.8247	2,731.93	85.3648	2,731.93	78.6139	2,731.93	82.5797	2,731.93	77.4266	2,731.93	79.9757	2,731.93	73.7552	2,731.93	73.6374	2,731.93	75.8286	2,731.93	66.4904	2,731.93	65.4948	2,731.93	69.0679	2,731.93	60.5138	2,731.93	67.4797	2,731.93	60.9967	2,731.93	70.0798	2,731.93	56.8292	2,731.93	66.8551	2,731.93	67.2318	2,731.93	68.4325	2,731.93	61.8675	2,731.93	73.4859	2,731.93	73.4911
2,828.61	86.7437	2,828.61	85.6639	2,828.61	85.0556	2,828.61	85.3982	2,828.61	84.0292	2,828.61	85.4537	2,828.61	82.5489	2,828.61	85.8829	2,828.61	85.4252	2,828.61	86.4888	2,828.61	86.0522	2,828.61	84.6318	2,828.61	85.4926	2,828.61	80.7307	2,828.61	86.4831	2,828.61	81.7112	2,828.61	84.7615	2,828.61	80.9593	2,828.61	58.1506	2,828.61	76.9255	2,828.61	65.0255	2,828.61	48.8622	2,828.61	67.9071	2,828.61	69.4208	2,828.61	65.4073	2,828.61	64.3737	2,828.61	69.0726	2,828.61	61.0947	2,828.61	71.4703	2,828.61	58.403	2,828.61	72.2536	2,828.61	67.3263	2,828.61	66.8817	2,828.61	67.4567	2,828.61	74.7306	2,828.61	74.1501
2,928.22	86.5394	2,928.22	85.4847	2,928.22	84.7653	2,928.22	85.9098	2,928.22	84.6103	2,928.22	86.4682	2,928.22	83.6583	2,928.22	87.4489	2,928.22	85.7468	2,928.22	85.673	2,928.22	86.0171	2,928.22	83.6693	2,928.22	86.9656	2,928.22	80.7016	2,928.22	84.896	2,928.22	79.5406	2,928.22	84.4299	2,928.22	77.3398	2,928.22	76.3732	2,928.22	74.7203	2,928.22	72.162	2,928.22	77.9666	2,928.22	62.542	2,928.22	64.2523	2,928.22	69.1254	2,928.22	63.3839	2,928.22	74.6719	2,928.22	62.0224	2,928.22	73.269	2,928.22	57.9571	2,928.22	71.4955	2,928.22	67.8207	2,928.22	69.3459	2,928.22	70.0638	2,928.22	73.5969	2,928.22	72.4455
3,030.76	85.9646	3,030.76	85.9369	3,030.76	84.5564	3,030.76	86.1318	3,030.76	85.5241	3,030.76	86.4743	3,030.76	85.1822	3,030.76	86.4419	3,030.76	86.0095	3,030.76	84.5642	3,030.76	86.219	3,030.76	84.7695	3,030.76	85.7174	3,030.76	81.8993	3,030.76	85.8315	3,030.76	82.7628	3,030.76	83.0087	3,030.76	82.346	3,030.76	80.1615	3,030.76	80.1751	3,030.76	73.2989	3,030.76	65.0734	3,030.76	66.6647	3,030.76	68.3314	3,030.76	71.4596	3,030.76	55.834	3,030.76	72.823	3,030.76	60.8587	3,030.76	73.0448	3,030.76	49.0308	3,030.76	71.7732	3,030.76	68.0799	3,030.76	66.6217	3,030.76	73.6913	3,030.76	73.0997	3,030.76	71.9844
3,137.7	86.9664	3,137.7	85.4992	3,137.7	86.0832	3,137.7	86.5337	3,137.7	85.1945	3,137.7	86.441	3,137.7	85.6851	3,137.7	86.645	3,137.7	85.5379	3,137.7	84.9367	3,137.7	85.328	3,137.7	85.1262	3,137.7	84.5893	3,137.7	83.3284	3,137.7	84.1459	3,137.7	79.6633	3,137.7	84.8515	3,137.7	77.5422	3,137.7	74.2321	3,137.7	71.8404	3,137.7	68.7779	3,137.7	73.2355	3,137.7	65.8325	3,137.7	59.6125	3,137.7	67.4193	3,137.7	45.7905	3,137.7	75.5073	3,137.7	46.6198	3,137.7	72.0366	3,137.7	59.5077	3,137.7	70.2612	3,137.7	64.2743	3,137.7	65.6684	3,137.7	74.5678	3,137.7	72.1684	3,137.7	74.8701
3,249.02	85.9489	3,249.02	86.7063	3,249.02	85.7698	3,249.02	86.801	3,249.02	85.9692	3,249.02	87.2723	3,249.02	86.1736	3,249.02	85.4364	3,249.02	84.9601	3,249.02	85.9407	3,249.02	85.0646	3,249.02	84.748	3,249.02	83.815	3,249.02	80.8906	3,249.02	83.9219	3,249.02	83.2567	3,249.02	86.1615	3,249.02	81.1499	3,249.02	76.9155	3,249.02	79.5179	3,249.02	65.5633	3,249.02	71.2306	3,249.02	70.172	3,249.02	62.5949	3,249.02	69.6394	3,249.02	53.8507	3,249.02	73.8483	3,249.02	48.2581	3,249.02	70.9356	3,249.02	65.9122	3,249.02	72.6005	3,249.02	53.9156	3,249.02	68.9494	3,249.02	74.3187	3,249.02	72.642	3,249.02	73.1938
3,363.28	86.4051	3,363.28	86.7791	3,363.28	86.1049	3,363.28	86.4883	3,363.28	86.4871	3,363.28	86.1344	3,363.28	87.2361	3,363.28	86.2378	3,363.28	83.5193	3,363.28	86.3219	3,363.28	85.2652	3,363.28	84.2271	3,363.28	82.5223	3,363.28	83.5703	3,363.28	85.5804	3,363.28	79.1764	3,363.28	82.9553	3,363.28	78.9396	3,363.28	77.8112	3,363.28	73.5371	3,363.28	73.9329	3,363.28	71.085	3,363.28	68.4997	3,363.28	67.2069	3,363.28	71.6073	3,363.28	56.0983	3,363.28	72.8652	3,363.28	47.0298	3,363.28	67.1169	3,363.28	66.3512	3,363.28	74.1299	3,363.28	62.5947	3,363.28	66.505	3,363.28	73.6973	3,363.28	70.426	3,363.28	73.6267
3,481.93	87.7945	3,481.93	87.0277	3,481.93	86.7163	3,481.93	86.9435	3,481.93	86.3855	3,481.93	85.6088	3,481.93	87.403	3,481.93	86.4991	3,481.93	84.3392	3,481.93	85.4583	3,481.93	84.1587	3,481.93	85.3702	3,481.93	83.537	3,481.93	80.9817	3,481.93	86.0722	3,481.93	82.4487	3,481.93	83.4735	3,481.93	79.1669	3,481.93	76.4669	3,481.93	78.411	3,481.93	69.5849	3,481.93	64.4029	3,481.93	71.4021	3,481.93	67.5491	3,481.93	72.1434	3,481.93	61.8991	3,481.93	72.7483	3,481.93	60.0287	3,481.93	67.7898	3,481.93	67.732	3,481.93	74.4733	3,481.93	64.0694	3,481.93	58.5745	3,481.93	75.1055	3,481.93	72.6307	3,481.93	71.8937
3,604.98	87.5478	3,604.98	87.3	3,604.98	86.5943	3,604.98	86.5581	3,604.98	87.2974	3,604.98	85.8898	3,604.98	86.6667	3,604.98	87.0435	3,604.98	83.6638	3,604.98	86.0642	3,604.98	83.204	3,604.98	83.98	3,604.98	82.8328	3,604.98	82.3132	3,604.98	85.6757	3,604.98	76.818	3,604.98	81.6512	3,604.98	80.2664	3,604.98	73.634	3,604.98	72.3922	3,604.98	71.718	3,604.98	71.0398	3,604.98	65.8376	3,604.98	57.4218	3,604.98	71.0804	3,604.98	60.3733	3,604.98	67.5311	3,604.98	59.7878	3,604.98	69.3456	3,604.98	62.6418	3,604.98	71.9305	3,604.98	62.3845	3,604.98	64.2485	3,604.98	73.0589	3,604.98	71.7666	3,604.98	72.7367
3,732.42	87.2788	3,732.42	87.4254	3,732.42	86.5185	3,732.42	85.0515	3,732.42	87.0554	3,732.42	85.4841	3,732.42	87.114	3,732.42	85.8429	3,732.42	83.2642	3,732.42	85.0052	3,732.42	82.8871	3,732.42	83.033	3,732.42	81.331	3,732.42	80.2736	3,732.42	84.7543	3,732.42	78.2436	3,732.42	83.1122	3,732.42	73.1846	3,732.42	71.857	3,732.42	76.0907	3,732.42	59.4032	3,732.42	71.951	3,732.42	64.315	3,732.42	60.9189	3,732.42	71.1967	3,732.42	62.9498	3,732.42	67.5847	3,732.42	63.8922	3,732.42	70.0846	3,732.42	48.1174	3,732.42	73.7508	3,732.42	65.2412	3,732.42	62.1115	3,732.42	73.0272	3,732.42	69.9513	3,732.42	69.78
3,864.26	88.7639	3,864.26	88.2904	3,864.26	87.0654	3,864.26	85.8259	3,864.26	87.2895	3,864.26	86.1702	3,864.26	87.1231	3,864.26	86	3,864.26	84.1756	3,864.26	84.5887	3,864.26	81.9938	3,864.26	81.8268	3,864.26	81.8791	3,864.26	79.1152	3,864.26	84.0149	3,864.26	77.3788	3,864.26	80.4995	3,864.26	80.3722	3,864.26	72.6621	3,864.26	76.6358	3,864.26	52.101	3,864.26	64.769	3,864.26	70.3086	3,864.26	66.0398	3,864.26	68.3856	3,864.26	62.9332	3,864.26	69.3609	3,864.26	60.4473	3,864.26	69.8002	3,864.26	66.7209	3,864.26	70.0969	3,864.26	57.3922	3,864.26	55.2062	3,864.26	70.3145	3,864.26	72.7761	3,864.26	67.5667
4,000.49	88.7942	4,000.49	87.5241	4,000.49	86.6852	4,000.49	85.313	4,000.49	87.4767	4,000.49	85.8312	4,000.49	87.1274	4,000.49	84.9094	4,000.49	83.827	4,000.49	83.6817	4,000.49	80.2978	4,000.49	80.5462	4,000.49	81.8821	4,000.49	81.9323	4,000.49	80.1755	4,000.49	75.5975	4,000.49	77.3618	4,000.49	77.8836	4,000.49	79.0093	4,000.49	69.7903	4,000.49	65.0228	4,000.49	75.4305	4,000.49	68.4777	4,000.49	55.076	4,000.49	63.4572	4,000.49	62.2411	4,000.49	70.2019	4,000.49	60.4835	4,000.49	68.7868	4,000.49	66.6971	4,000.49	70.5688	4,000.49	66.5511	4,000.49	64.1446	4,000.49	64.9367	4,000.49	69.9158	4,000.49	71.4525
4,141.11	89.4141	4,141.11	87.573	4,141.11	86.6567	4,141.11	85.753	4,141.11	87.3757	4,141.11	86.4349	4,141.11	87.1282	4,141.11	85.2765	4,141.11	83.7632	4,141.11	83.1783	4,141.11	81.1425	4,141.11	81.6952	4,141.11	82.5428	4,141.11	81.2147	4,141.11	79.764	4,141.11	77.1611	4,141.11	77.1135	4,141.11	74.8814	4,141.11	81.1674	4,141.11	74.2444	4,141.11	65.9175	4,141.11	70.1132	4,141.11	56.9937	4,141.11	67.9147	4,141.11	67.191	4,141.11	64.1545	4,141.11	68.5857	4,141.11	62.649	4,141.11	67.9216	4,141.11	62.117	4,141.11	70.6324	4,141.11	60.3264	4,141.11	63.9184	4,141.11	66.8121	4,141.11	67.4358	4,141.11	73.7883
4,287.6	89.5457	4,287.6	87.7818	4,287.6	87.2131	4,287.6	86.3279	4,287.6	87.1032	4,287.6	85.9685	4,287.6	86.8965	4,287.6	84.202	4,287.6	84.5617	4,287.6	83.5903	4,287.6	79.0556	4,287.6	82.0952	4,287.6	84.395	4,287.6	81.0077	4,287.6	81.5073	4,287.6	77.8784	4,287.6	81.7549	4,287.6	77.4724	4,287.6	80.3031	4,287.6	75.0249	4,287.6	58.7243	4,287.6	64.7203	4,287.6	61.1569	4,287.6	60.7947	4,287.6	67.4426	4,287.6	55.9422	4,287.6	67.0748	4,287.6	65	4,287.6	66.4162	4,287.6	61.5396	4,287.6	68.0829	4,287.6	50.351	4,287.6	59.8407	4,287.6	70.4033	4,287.6	67.5938	4,287.6	70.9344
4,438.48	89.2835	4,438.48	88.0479	4,438.48	87.149	4,438.48	86.3148	4,438.48	86.8896	4,438.48	85.5778	4,438.48	86.4261	4,438.48	83.3949	4,438.48	83.4417	4,438.48	83.2901	4,438.48	79.5147	4,438.48	81.3277	4,438.48	82.1841	4,438.48	80.513	4,438.48	83.2194	4,438.48	75.5076	4,438.48	82.9849	4,438.48	76.6795	4,438.48	75.6064	4,438.48	72.79	4,438.48	60.1257	4,438.48	71.4993	4,438.48	56.7934	4,438.48	56.8748	4,438.48	61.8372	4,438.48	65.9511	4,438.48	63.3969	4,438.48	50.2455	4,438.48	64.3726	4,438.48	63.9394	4,438.48	69.6034	4,438.48	47.5652	4,438.48	64.576	4,438.48	67.7151	4,438.48	69.5895	4,438.48	64.2821
4,595.21	89.7108	4,595.21	88.2742	4,595.21	87.9487	4,595.21	86.6259	4,595.21	86.5427	4,595.21	85.2174	4,595.21	86.0879	4,595.21	83.527	4,595.21	84.7974	4,595.21	83.2449	4,595.21	80.5728	4,595.21	80.6211	4,595.21	81.6895	4,595.21	80.0251	4,595.21	82.9586	4,595.21	74.4447	4,595.21	82.3354	4,595.21	73.2315	4,595.21	73.9691	4,595.21	69.9017	4,595.21	65.2649	4,595.21	71.3563	4,595.21	60.5389	4,595.21	64.0314	4,595.21	64.1416	4,595.21	58.8242	4,595.21	65.7059	4,595.21	57.8553	4,595.21	64.7656	4,595.21	65.3293	4,595.21	68.2661	4,595.21	65.015	4,595.21	63.3563	4,595.21	59.5281	4,595.21	65.0959	4,595.21	71.972
4,756.35	89.2061	4,756.35	88.0962	4,756.35	87.2194	4,756.35	86.1817	4,756.35	87.0302	4,756.35	85.4739	4,756.35	86.0682	4,756.35	83.7405	4,756.35	84.131	4,756.35	83.0054	4,756.35	79.9966	4,756.35	80.4509	4,756.35	81.0326	4,756.35	77.5632	4,756.35	81.8823	4,756.35	75.581	4,756.35	82.0482	4,756.35	73.4904	4,756.35	67.3975	4,756.35	74.883	4,756.35	64.5989	4,756.35	64.492	4,756.35	64.0264	4,756.35	65.402	4,756.35	61.5837	4,756.35	54.9674	4,756.35	63.5894	4,756.35	53.2484	4,756.35	68.4308	4,756.35	59.443	4,756.35	67.5574	4,756.35	60.1648	4,756.35	64.2284	4,756.35	68.0803	4,756.35	65.6542	4,756.35	68.47
4,924.8	89.8247	4,924.8	88.8632	4,924.8	87.9563	4,924.8	87.1594	4,924.8	86.2681	4,924.8	85.4834	4,924.8	86.5479	4,924.8	83.9113	4,924.8	84.4109	4,924.8	83.49	4,924.8	80.2236	4,924.8	79.8504	4,924.8	76.9435	4,924.8	80.986	4,924.8	77.8283	4,924.8	77.5586	4,924.8	78.1734	4,924.8	76.0455	4,924.8	74.6403	4,924.8	73.4459	4,924.8	57.8923	4,924.8	71.7575	4,924.8	54.0939	4,924.8	67.6029	4,924.8	64.4407	4,924.8	59.0857	4,924.8	67.3408	4,924.8	60.9323	4,924.8	65.0195	4,924.8	62.0433	4,924.8	67.8169	4,924.8	50.1834	4,924.8	63.7017	4,924.8	59.7408	4,924.8	65.1673	4,924.8	69.6052
5,097.66	89.1893	5,097.66	88.8177	5,097.66	87.6788	5,097.66	86.5166	5,097.66	86.4514	5,097.66	85.595	5,097.66	86.6118	5,097.66	83.4081	5,097.66	85.0765	5,097.66	83.0844	5,097.66	79.6454	5,097.66	81.5904	5,097.66	78.9035	5,097.66	80.6768	5,097.66	78.3262	5,097.66	77.2758	5,097.66	78.8095	5,097.66	75.2713	5,097.66	74.9118	5,097.66	74.7224	5,097.66	56.5793	5,097.66	68.1307	5,097.66	66.926	5,097.66	61.4934	5,097.66	65.8861	5,097.66	51.5919	5,097.66	61.5481	5,097.66	64.4337	5,097.66	64.7021	5,097.66	63.1264	5,097.66	65.3256	5,097.66	61.023	5,097.66	65.8815	5,097.66	67.6252	5,097.66	61.939	5,097.66	69.3993
5,277.83	88.6544	5,277.83	88.8569	5,277.83	87.5777	5,277.83	86.6409	5,277.83	86.3654	5,277.83	85.4708	5,277.83	86.0476	5,277.83	83.8621	5,277.83	85.3354	5,277.83	83.0629	5,277.83	78.7457	5,277.83	82.506	5,277.83	74.6366	5,277.83	81.5144	5,277.83	80.0369	5,277.83	77.2444	5,277.83	79.7191	5,277.83	74.1009	5,277.83	72.9603	5,277.83	71.6243	5,277.83	60.5695	5,277.83	69.9319	5,277.83	65.7606	5,277.83	61.3135	5,277.83	61.2391	5,277.83	63.0567	5,277.83	67.4192	5,277.83	50.7756	5,277.83	66.4399	5,277.83	67.5417	5,277.83	63.7219	5,277.83	59.3378	5,277.83	65.5852	5,277.83	53.4948	5,277.83	64.8096	5,277.83	68.8499
5,463.87	87.9283	5,463.87	88.2388	5,463.87	86.9525	5,463.87	85.8341	5,463.87	86.2374	5,463.87	85.7153	5,463.87	85.8506	5,463.87	83.5804	5,463.87	84.7805	5,463.87	83.8441	5,463.87	81.2518	5,463.87	82.5873	5,463.87	76.7914	5,463.87	79.3093	5,463.87	81.0005	5,463.87	74.6735	5,463.87	78.7041	5,463.87	71.4479	5,463.87	75.8066	5,463.87	70.9836	5,463.87	63.6687	5,463.87	67.3427	5,463.87	64.7062	5,463.87	62.6734	5,463.87	60.9725	5,463.87	67.7664	5,463.87	63.506	5,463.87	63.5927	5,463.87	64.8053	5,463.87	67.0969	5,463.87	63.6398	5,463.87	58.9608	5,463.87	63.0264	5,463.87	63.4367	5,463.87	61.922	5,463.87	65.6068
5,657.23	87.6473	5,657.23	88.1218	5,657.23	86.5833	5,657.23	85.6765	5,657.23	86.0446	5,657.23	86.1231	5,657.23	85.1604	5,657.23	83.8439	5,657.23	84.5415	5,657.23	84.3871	5,657.23	82.2557	5,657.23	81.3074	5,657.23	72.6293	5,657.23	78.747	5,657.23	80.0036	5,657.23	76.3754	5,657.23	80.2037	5,657.23	73.2345	5,657.23	72.5901	5,657.23	73.3724	5,657.23	50.5681	5,657.23	67.2158	5,657.23	59.6004	5,657.23	69.1533	5,657.23	59.2381	5,657.23	55.7935	5,657.23	59.0036	5,657.23	64.9434	5,657.23	60.8328	5,657.23	59.4081	5,657.23	61.303	5,657.23	59.3387	5,657.23	64.2456	5,657.23	58.0811	5,657.23	58.7136	5,657.23	66.5003
5,856.45	86.957	5,856.45	87.4769	5,856.45	86.0149	5,856.45	85.3516	5,856.45	86.7505	5,856.45	85.7105	5,856.45	84.2809	5,856.45	84.283	5,856.45	85.1536	5,856.45	84.7165	5,856.45	83.8199	5,856.45	81.4709	5,856.45	77.9925	5,856.45	79.8179	5,856.45	76.7239	5,856.45	75.6732	5,856.45	76.8215	5,856.45	73.6741	5,856.45	71.1851	5,856.45	68.8783	5,856.45	55.3593	5,856.45	68.2468	5,856.45	45.542	5,856.45	63.5859	5,856.45	58.7097	5,856.45	62.7585	5,856.45	64.5421	5,856.45	55.2644	5,856.45	63.634	5,856.45	68.5085	5,856.45	61.0356	5,856.45	62.3683	5,856.45	62.763	5,856.45	61.1892	5,856.45	61.2284	5,856.45	65.6206
6,062.99	86.7017	6,062.99	85.9854	6,062.99	86.3242	6,062.99	85.9734	6,062.99	86.8419	6,062.99	85.7328	6,062.99	83.3321	6,062.99	85.1444	6,062.99	85.3641	6,062.99	83.6576	6,062.99	84.6985	6,062.99	81.3418	6,062.99	78.8738	6,062.99	78.5295	6,062.99	77.8981	6,062.99	75.8446	6,062.99	81.1695	6,062.99	72.3574	6,062.99	76.5006	6,062.99	69.8182	6,062.99	58.1606	6,062.99	69.7902	6,062.99	54.9423	6,062.99	49.968	6,062.99	59.7345	6,062.99	67.7026	6,062.99	61.5525	6,062.99	61.0793	6,062.99	62.6615	6,062.99	68.0013	6,062.99	57.2563	6,062.99	60.2907	6,062.99	63.0562	6,062.99	59.339	6,062.99	60.7987	6,062.99	63.7751
6,276.86	87.1461	6,276.86	86.1632	6,276.86	85.8903	6,276.86	86.1929	6,276.86	86.563	6,276.86	85.8561	6,276.86	83.9049	6,276.86	85.1551	6,276.86	84.9354	6,276.86	83.3392	6,276.86	84.643	6,276.86	81.3363	6,276.86	80.1285	6,276.86	78.2952	6,276.86	77.292	6,276.86	75.2863	6,276.86	80.1754	6,276.86	71.5089	6,276.86	73.8903	6,276.86	71.22	6,276.86	59.2821	6,276.86	68.716	6,276.86	53.094	6,276.86	59.9715	6,276.86	59.2746	6,276.86	67.202	6,276.86	63.6008	6,276.86	62.1825	6,276.86	62.5883	6,276.86	58.4071	6,276.86	56.4069	6,276.86	40.119	6,276.86	63.6281	6,276.86	54.6434	6,276.86	56.3129	6,276.86	63.1153
6,498.05	86.5901	6,498.05	86.1495	6,498.05	85.5655	6,498.05	85.7572	6,498.05	86.6946	6,498.05	86.3657	6,498.05	84.643	6,498.05	84.0109	6,498.05	85.3751	6,498.05	83.4693	6,498.05	85.1562	6,498.05	80.9065	6,498.05	80.9483	6,498.05	78.7579	6,498.05	77.8228	6,498.05	76.8101	6,498.05	77.3175	6,498.05	73.0384	6,498.05	70.6199	6,498.05	72.3137	6,498.05	40.5586	6,498.05	68.6367	6,498.05	60.6058	6,498.05	65.3323	6,498.05	59.2486	6,498.05	61.9391	6,498.05	60.4218	6,498.05	59.2311	6,498.05	61.6059	6,498.05	64.0145	6,498.05	38.6989	6,498.05	63.6462	6,498.05	64.2688	6,498.05	56.0012	6,498.05	53.2396	6,498.05	64.5246
6,726.56	86.3273	6,726.56	86.0092	6,726.56	86.3776	6,726.56	85.703	6,726.56	86.203	6,726.56	86.9766	6,726.56	84.893	6,726.56	83.4206	6,726.56	85.7582	6,726.56	83.1162	6,726.56	84.8944	6,726.56	81.4761	6,726.56	78.9998	6,726.56	79.6549	6,726.56	74.6044	6,726.56	76.8276	6,726.56	72.9828	6,726.56	71.9314	6,726.56	71.0865	6,726.56	71.9787	6,726.56	48.8752	6,726.56	63.9845	6,726.56	58.5542	6,726.56	65.6162	6,726.56	61.8319	6,726.56	63.931	6,726.56	60.6517	6,726.56	44.9226	6,726.56	60.1328	6,726.56	65.7228	6,726.56	55.8661	6,726.56	63.2729	6,726.56	61.3206	6,726.56	58.7395	6,726.56	50.7195	6,726.56	63.2399
6,963.87	86.7796	6,963.87	86.2611	6,963.87	86.7899	6,963.87	85.4828	6,963.87	85.5017	6,963.87	86.7986	6,963.87	85.4765	6,963.87	82.7489	6,963.87	85.026	6,963.87	82.0176	6,963.87	84.5247	6,963.87	82.5093	6,963.87	78.4459	6,963.87	78.5932	6,963.87	73.2319	6,963.87	76.2649	6,963.87	71.4894	6,963.87	71.8243	6,963.87	72.3258	6,963.87	71.3759	6,963.87	57.9937	6,963.87	65.8189	6,963.87	53.1798	6,963.87	63.0363	6,963.87	52.47	6,963.87	66.7132	6,963.87	61.2444	6,963.87	59.3085	6,963.87	61.0657	6,963.87	56.9949	6,963.87	55.8636	6,963.87	63.0682	6,963.87	62.2094	6,963.87	55.7715	6,963.87	51.5948	6,963.87	62.1829
7,209.96	86.703	7,209.96	86.0647	7,209.96	86.7475	7,209.96	86.2112	7,209.96	85.9607	7,209.96	86.0522	7,209.96	86.1446	7,209.96	83.1784	7,209.96	84.7805	7,209.96	82.0868	7,209.96	83.7866	7,209.96	81.9092	7,209.96	77.5121	7,209.96	78.2464	7,209.96	74.0321	7,209.96	74.7868	7,209.96	75.6506	7,209.96	73.1921	7,209.96	74.4887	7,209.96	69.1857	7,209.96	55.119	7,209.96	67.2439	7,209.96	56.7929	7,209.96	58.5962	7,209.96	57.5371	7,209.96	64.4868	7,209.96	62.2768	7,209.96	53.8448	7,209.96	59.0025	7,209.96	66.3782	7,209.96	56.3096	7,209.96	59.451	7,209.96	62.2578	7,209.96	62.4535	7,209.96	46.6736	7,209.96	63.7536
7,464.84	87.0742	7,464.84	86.3667	7,464.84	86.4702	7,464.84	86.6423	7,464.84	86.0959	7,464.84	85.8361	7,464.84	86.2851	7,464.84	83.5377	7,464.84	83.8648	7,464.84	82.311	7,464.84	83.1434	7,464.84	81.058	7,464.84	79.191	7,464.84	78.0143	7,464.84	77.6735	7,464.84	75.0446	7,464.84	77.8215	7,464.84	72.034	7,464.84	74.2395	7,464.84	68.5566	7,464.84	34.7822	7,464.84	69.3498	7,464.84	51.5023	7,464.84	55.7194	7,464.84	44.7461	7,464.84	64.8438	7,464.84	61.6752	7,464.84	53.152	7,464.84	58.3807	7,464.84	63.8201	7,464.84	55.2932	7,464.84	63.1414	7,464.84	57.1778	7,464.84	56.8477	7,464.84	46.8114	7,464.84	61.0149
7,727.05	86.9831	7,727.05	87.2097	7,727.05	86.5111	7,727.05	86.6274	7,727.05	86.4133	7,727.05	85.5647	7,727.05	86.132	7,727.05	83.325	7,727.05	82.7584	7,727.05	82.1372	7,727.05	82.7809	7,727.05	80.3902	7,727.05	80.3123	7,727.05	77.3827	7,727.05	79.5095	7,727.05	73.781	7,727.05	73.7053	7,727.05	68.5341	7,727.05	72.8003	7,727.05	66.9718	7,727.05	50.8887	7,727.05	66.43	7,727.05	46.8122	7,727.05	64.6096	7,727.05	49.6046	7,727.05	61.8787	7,727.05	58.3862	7,727.05	57.5748	7,727.05	58.7195	7,727.05	51.1412	7,727.05	57.2961	7,727.05	64.1442	7,727.05	56.6949	7,727.05	59.9235	7,727.05	43.4234	7,727.05	61.4211
7,999.51	86.7905	7,999.51	87.8278	7,999.51	86.7639	7,999.51	86.0657	7,999.51	87.0126	7,999.51	85.8964	7,999.51	86.0028	7,999.51	82.9657	7,999.51	82.3582	7,999.51	81.7233	7,999.51	82.5332	7,999.51	80.2173	7,999.51	79.7973	7,999.51	75.4583	7,999.51	75.7684	7,999.51	72.5618	7,999.51	70.6601	7,999.51	67.8659	7,999.51	67.473	7,999.51	66.7008	7,999.51	49.3812	7,999.51	61.7892	7,999.51	43.2426	7,999.51	65.9514	7,999.51	52.6293	7,999.51	60.5289	7,999.51	60.5018	7,999.51	46.9769	7,999.51	49.6598	7,999.51	68.3605	7,999.51	52.7462	7,999.51	60.8822	7,999.51	55.0756	7,999.51	50.7608	7,999.51	48.8709	7,999.51	59.3407
8,282.23	86.8373	8,282.23	87.8325	8,282.23	86.9816	8,282.23	86.1006	8,282.23	87.6203	8,282.23	85.4993	8,282.23	85.7194	8,282.23	83.0572	8,282.23	83.2809	8,282.23	81.8556	8,282.23	82.0966	8,282.23	79.3394	8,282.23	79.378	8,282.23	74.1472	8,282.23	72.9701	8,282.23	72.3872	8,282.23	72.8862	8,282.23	68.2097	8,282.23	66.8924	8,282.23	63.3311	8,282.23	51.8861	8,282.23	65.368	8,282.23	58.4773	8,282.23	46.3379	8,282.23	59.498	8,282.23	64.1431	8,282.23	56.1096	8,282.23	55.4091	8,282.23	50.4207	8,282.23	56.6444	8,282.23	58.5502	8,282.23	63.2244	8,282.23	47.3179	8,282.23	54.1805	8,282.23	46.9204	8,282.23	59.8619
8,573.73	86.7498	8,573.73	87.6873	8,573.73	86.9598	8,573.73	86.1161	8,573.73	87.5701	8,573.73	85.2425	8,573.73	85.4821	8,573.73	83.4193	8,573.73	83.9539	8,573.73	80.999	8,573.73	81.9994	8,573.73	79.15	8,573.73	78.3489	8,573.73	73.7045	8,573.73	73.5342	8,573.73	71.8181	8,573.73	72.9601	8,573.73	67.2693	8,573.73	68.8738	8,573.73	65.1053	8,573.73	53.3574	8,573.73	64.0168	8,573.73	46.9381	8,573.73	62.9285	8,573.73	49.8622	8,573.73	63.8751	8,573.73	57.2971	8,573.73	49.7911	8,573.73	56.8901	8,573.73	61.92	8,573.73	53.8325	8,573.73	57.6263	8,573.73	50.7997	8,573.73	53.7998	8,573.73	45.2255	8,573.73	52.6906
8,876.95	86.802	8,876.95	87.9248	8,876.95	87.237	8,876.95	86.1662	8,876.95	87.2885	8,876.95	85.5227	8,876.95	85.3615	8,876.95	83.0473	8,876.95	83.8003	8,876.95	80.8407	8,876.95	81.9885	8,876.95	78.554	8,876.95	78.7015	8,876.95	73.8432	8,876.95	73.8476	8,876.95	71.597	8,876.95	73.2942	8,876.95	67.725	8,876.95	66.5631	8,876.95	60.1991	8,876.95	55.7236	8,876.95	64.152	8,876.95	55.7489	8,876.95	41.2079	8,876.95	55.9269	8,876.95	62.8259	8,876.95	51.6377	8,876.95	46.4239	8,876.95	54.0239	8,876.95	65.3452	8,876.95	55.9599	8,876.95	62.2781	8,876.95	51.8755	8,876.95	50.1483	8,876.95	48.0755	8,876.95	58.4201
9,188.96	87.1327	9,188.96	87.8884	9,188.96	87.0664	9,188.96	86.1056	9,188.96	86.8571	9,188.96	85.8182	9,188.96	84.9835	9,188.96	82.6781	9,188.96	83.3144	9,188.96	80.7274	9,188.96	81.2288	9,188.96	78.9878	9,188.96	79.1486	9,188.96	73.7614	9,188.96	72.4686	9,188.96	71.7342	9,188.96	74.6211	9,188.96	68.2359	9,188.96	65.6095	9,188.96	64.4854	9,188.96	50.2803	9,188.96	59.6226	9,188.96	43.6231	9,188.96	62.3875	9,188.96	52.2504	9,188.96	66.4496	9,188.96	56.6018	9,188.96	56.1476	9,188.96	56.1058	9,188.96	42.8507	9,188.96	55.3431	9,188.96	63.8961	9,188.96	52.6723	9,188.96	47.971	9,188.96	46.7824	9,188.96	56.1509
9,514.16	87.6683	9,514.16	87.7468	9,514.16	87.1059	9,514.16	86.3104	9,514.16	86.7267	9,514.16	85.8622	9,514.16	85.4226	9,514.16	82.4138	9,514.16	83.121	9,514.16	79.5456	9,514.16	80.5453	9,514.16	79.1717	9,514.16	79.4971	9,514.16	73.2118	9,514.16	72.74	9,514.16	70.7747	9,514.16	70.9306	9,514.16	63.7523	9,514.16	64.3486	9,514.16	63.8468	9,514.16	53.0593	9,514.16	58.4807	9,514.16	47.6301	9,514.16	58.9914	9,514.16	43.5797	9,514.16	58.8574	9,514.16	56.3019	9,514.16	49.5361	9,514.16	52.9305	9,514.16	63.2792	9,514.16	55.3818	9,514.16	58.9552	9,514.16	31.3168	9,514.16	43.6061	9,514.16	55.9396	9,514.16	49.3392
9,849.61	87.8899	9,849.61	87.7365	9,849.61	87.1618	9,849.61	86.2597	9,849.61	86.6574	9,849.61	85.9548	9,849.61	85.6743	9,849.61	81.7411	9,849.61	82.9935	9,849.61	79.2667	9,849.61	80.1319	9,849.61	78.9635	9,849.61	78.6316	9,849.61	72.0775	9,849.61	71.4508	9,849.61	68.7044	9,849.61	66.9155	9,849.61	63.2954	9,849.61	56.5351	9,849.61	61.912	9,849.61	46.1687	9,849.61	59.7004	9,849.61	34.4376	9,849.61	61.6324	9,849.61	45.6536	9,849.61	64.324	9,849.61	56.6662	9,849.61	57.7541	9,849.61	57.1822	9,849.61	56.0194	9,849.61	54.6121	9,849.61	63.6835	9,849.61	38.7154	9,849.61	42.3341	9,849.61	54.3021	9,849.61	50.7909
10,196.8	87.8523	10,196.8	87.8023	10,196.8	87.3922	10,196.8	85.9863	10,196.8	86.7021	10,196.8	85.8577	10,196.8	85.6517	10,196.8	81.167	10,196.8	82.3923	10,196.8	78.6416	10,196.8	79.8103	10,196.8	78.0391	10,196.8	77.4888	10,196.8	70.3408	10,196.8	67.6482	10,196.8	66.3981	10,196.8	68.7443	10,196.8	62.8992	10,196.8	60.978	10,196.8	61.1621	10,196.8	49.902	10,196.8	55.9252	10,196.8	44.404	10,196.8	50.9762	10,196.8	43.9339	10,196.8	58.5324	10,196.8	53.7488	10,196.8	55.979	10,196.8	55.7307	10,196.8	62.5731	10,196.8	52.0608	10,196.8	61.3051	10,196.8	41.8236	10,196.8	50.2294	10,196.8	51.206	10,196.8	48.075
10,555.7	87.8604	10,555.7	87.7184	10,555.7	87.55	10,555.7	85.9113	10,555.7	86.7074	10,555.7	85.5331	10,555.7	85.5246	10,555.7	81.1931	10,555.7	81.8186	10,555.7	77.6598	10,555.7	79.3358	10,555.7	77.1426	10,555.7	76.561	10,555.7	68.2599	10,555.7	60.0015	10,555.7	65.7725	10,555.7	67.7097	10,555.7	60.016	10,555.7	60.9986	10,555.7	60.7032	10,555.7	38.9102	10,555.7	54.3851	10,555.7	50.7392	10,555.7	62.1031	10,555.7	50.8343	10,555.7	61.2298	10,555.7	55.5766	10,555.7	61.4701	10,555.7	53.0501	10,555.7	53.9163	10,555.7	50.1956	10,555.7	61.7979	10,555.7	34.4974	10,555.7	51.1145	10,555.7	50.8521	10,555.7	44.5147
10,927.7	87.9224	10,927.7	87.5094	10,927.7	87.4712	10,927.7	86.1231	10,927.7	86.7708	10,927.7	84.92	10,927.7	85.4241	10,927.7	81.3592	10,927.7	81.8766	10,927.7	76.6414	10,927.7	78.9264	10,927.7	75.6463	10,927.7	76.3994	10,927.7	67.8608	10,927.7	68.8933	10,927.7	64.436	10,927.7	64.3409	10,927.7	58.2909	10,927.7	58.0448	10,927.7	58.4366	10,927.7	43.814	10,927.7	41.0482	10,927.7	52.1217	10,927.7	58.7342	10,927.7	51.1337	10,927.7	54.1014	10,927.7	53.7789	10,927.7	55.2517	10,927.7	51.8475	10,927.7	55.8335	10,927.7	48.5942	10,927.7	59.9633	10,927.7	32.7837	10,927.7	55.5333	10,927.7	50.9745	10,927.7	43.6464
11,313	87.9373	11,313	87.5395	11,313	87.2407	11,313	86.1525	11,313	86.5342	11,313	84.7891	11,313	85.1392	11,313	81.0128	11,313	82.0919	11,313	76.9385	11,313	79.0302	11,313	74.5506	11,313	75.3861	11,313	67.9421	11,313	67.9201	11,313	65.4828	11,313	62.9526	11,313	59.6414	11,313	60.3207	11,313	56.3099	11,313	46.3297	11,313	57.1728	11,313	53.2963	11,313	59.2656	11,313	50.2044	11,313	57.737	11,313	52.6511	11,313	60.2614	11,313	49.0194	11,313	50.5682	11,313	50.5414	11,313	59.2589	11,313	38.3291	11,313	53.134	11,313	50.5392	11,313	34.7747
11,712.9	87.9577	11,712.9	87.9191	11,712.9	87.3472	11,712.9	85.9879	11,712.9	85.9979	11,712.9	84.6452	11,712.9	84.7147	11,712.9	80.8182	11,712.9	81.7735	11,712.9	75.5073	11,712.9	78.4098	11,712.9	74.451	11,712.9	74.6332	11,712.9	68.0605	11,712.9	64.5147	11,712.9	65.7919	11,712.9	64.9733	11,712.9	57.8086	11,712.9	57.6303	11,712.9	58.0543	11,712.9	39.3372	11,712.9	56.1098	11,712.9	49.0516	11,712.9	62.5916	11,712.9	51.3522	11,712.9	54.4124	11,712.9	47.4505	11,712.9	59.7834	11,712.9	49.3014	11,712.9	60.5926	11,712.9	50.4868	11,712.9	61.9166	11,712.9	48.3825	11,712.9	44.0562	11,712.9	47.0021	11,712.9	49.6894
12,126	87.9743	12,126	88.0156	12,126	87.6061	12,126	85.9322	12,126	86.0947	12,126	84.3251	12,126	84.4272	12,126	80.1827	12,126	81.1253	12,126	75.0122	12,126	77.8623	12,126	73.8486	12,126	73.6262	12,126	68.2284	12,126	66.5361	12,126	63.6066	12,126	61.6606	12,126	57.9779	12,126	54.7954	12,126	56.098	12,126	49.9334	12,126	48.609	12,126	53.1099	12,126	56.809	12,126	54.3206	12,126	55.2221	12,126	55.1041	12,126	61.6527	12,126	41.4567	12,126	51.5795	12,126	47.672	12,126	61.1637	12,126	44.4619	12,126	57.688	12,126	44.4201	12,126	47.2915
12,553.7	87.8203	12,553.7	88.0714	12,553.7	87.7376	12,553.7	85.5347	12,553.7	86.1497	12,553.7	84.4024	12,553.7	84.5691	12,553.7	79.7837	12,553.7	80.4586	12,553.7	73.6737	12,553.7	76.8574	12,553.7	73.8746	12,553.7	73.8164	12,553.7	67.1826	12,553.7	66.3093	12,553.7	62.8889	12,553.7	62.8154	12,553.7	59.7877	12,553.7	58.1333	12,553.7	55.9462	12,553.7	50.6593	12,553.7	49.2662	12,553.7	54.6848	12,553.7	63.0551	12,553.7	52.0512	12,553.7	57.7291	12,553.7	51.9408	12,553.7	61.0395	12,553.7	53.4053	12,553.7	56.6132	12,553.7	47.9878	12,553.7	58.4773	12,553.7	44.466	12,553.7	41.6964	12,553.7	27.6852	12,553.7	49.006
12,996.1	87.5654	12,996.1	87.8339	12,996.1	87.6405	12,996.1	85.1975	12,996.1	86.0064	12,996.1	83.9212	12,996.1	84.4932	12,996.1	79.4366	12,996.1	79.7524	12,996.1	73.7769	12,996.1	76.8312	12,996.1	72.7708	12,996.1	72.5728	12,996.1	64.963	12,996.1	67.2136	12,996.1	62.6356	12,996.1	58.9889	12,996.1	58.5078	12,996.1	50.8765	12,996.1	57.9511	12,996.1	47.0966	12,996.1	56.6318	12,996.1	51.5441	12,996.1	62.5709	12,996.1	55.0701	12,996.1	57.873	12,996.1	53.2378	12,996.1	60.7668	12,996.1	48.8111	12,996.1	63.2599	12,996.1	43.4603	12,996.1	56.0776	12,996.1	38.5371	12,996.1	55.1109	12,996.1	44.6785	12,996.1	50.9412
13,454.6	87.3907	13,454.6	87.5573	13,454.6	87.2234	13,454.6	84.7377	13,454.6	85.5532	13,454.6	83.4824	13,454.6	84.1702	13,454.6	79.1211	13,454.6	79.6207	13,454.6	74.2421	13,454.6	76.2648	13,454.6	71.739	13,454.6	71.9987	13,454.6	65.3203	13,454.6	65.484	13,454.6	62.6483	13,454.6	63.8442	13,454.6	60.1665	13,454.6	51.4667	13,454.6	58.932	13,454.6	49.2361	13,454.6	59.7981	13,454.6	55.4543	13,454.6	60.6417	13,454.6	55.6503	13,454.6	58.7239	13,454.6	52.4794	13,454.6	62.1033	13,454.6	50.4884	13,454.6	56.3635	13,454.6	31.8292	13,454.6	52.1602	13,454.6	46.1894	13,454.6	53.5614	13,454.6	45.6612	13,454.6	50.356
13,929.2	87.58	13,929.2	87.6078	13,929.2	87.0958	13,929.2	84.4743	13,929.2	85.1888	13,929.2	83.1388	13,929.2	83.6531	13,929.2	79.3913	13,929.2	79.806	13,929.2	73.4644	13,929.2	75.0393	13,929.2	70.7183	13,929.2	72.4475	13,929.2	64.6374	13,929.2	65.7104	13,929.2	62.2188	13,929.2	60.5721	13,929.2	61.2655	13,929.2	46.4927	13,929.2	54.2438	13,929.2	49.2562	13,929.2	59.6019	13,929.2	55.6332	13,929.2	60.7706	13,929.2	54.3711	13,929.2	59.0176	13,929.2	53.1433	13,929.2	58.7639	13,929.2	52.4045	13,929.2	59.0703	13,929.2	40.871	13,929.2	53.1337	13,929.2	47.0176	13,929.2	49.2295	13,929.2	40.8052	13,929.2	45.3088
14,419.9	87.7644	14,419.9	87.5821	14,419.9	87.1648	14,419.9	84.306	14,419.9	84.9014	14,419.9	82.454	14,419.9	83.0221	14,419.9	79.3604	14,419.9	79.7695	14,419.9	72.9768	14,419.9	74.1752	14,419.9	70.3017	14,419.9	71.3631	14,419.9	63.5784	14,419.9	65.8778	14,419.9	62.0223	14,419.9	61.4511	14,419.9	61.3428	14,419.9	51.9322	14,419.9	49.4642	14,419.9	49.5895	14,419.9	60.898	14,419.9	56.7972	14,419.9	54.3242	14,419.9	53.4649	14,419.9	57.1425	14,419.9	53.3843	14,419.9	50.3254	14,419.9	54.3943	14,419.9	59.4197	14,419.9	46.3894	14,419.9	57.4684	14,419.9	50.5554	14,419.9	43.903	14,419.9	44.0746	14,419.9	39.2287
14,928.2	87.7164	14,928.2	87.2818	14,928.2	86.9156	14,928.2	84.1622	14,928.2	84.5433	14,928.2	82.0382	14,928.2	82.4765	14,928.2	78.7989	14,928.2	79.2887	14,928.2	72.343	14,928.2	73.641	14,928.2	70.4909	14,928.2	70.1706	14,928.2	64.1557	14,928.2	66.4236	14,928.2	62.791	14,928.2	63.4084	14,928.2	57.1929	14,928.2	50.8314	14,928.2	58.2251	14,928.2	49.8599	14,928.2	59.5429	14,928.2	57.9134	14,928.2	53.8944	14,928.2	55.9242	14,928.2	49.0013	14,928.2	55.3044	14,928.2	46.1895	14,928.2	55.28	14,928.2	58.6602	14,928.2	49.979	14,928.2	57.0583	14,928.2	49.9995	14,928.2	57.4627	14,928.2	51.1023	14,928.2	49.5434
15,455.6	87.4911	15,455.6	86.7566	15,455.6	86.5248	15,455.6	83.7504	15,455.6	84.4045	15,455.6	81.8895	15,455.6	82.3169	15,455.6	78.0208	15,455.6	78.5009	15,455.6	71.8133	15,455.6	72.4897	15,455.6	69.9818	15,455.6	71.0598	15,455.6	66.4376	15,455.6	65.6356	15,455.6	62.0384	15,455.6	60.1095	15,455.6	62.2638	15,455.6	44.1549	15,455.6	46.4045	15,455.6	41.8046	15,455.6	64.5797	15,455.6	53.7947	15,455.6	50.7383	15,455.6	49.3259	15,455.6	52.5108	15,455.6	49.7986	15,455.6	53.2533	15,455.6	50.8069	15,455.6	62.981	15,455.6	41.074	15,455.6	57.1819	15,455.6	46.4293	15,455.6	50.8092	15,455.6	42.3953	15,455.6	40.6646
16,000.5	87.2614	16,000.5	86.4918	16,000.5	86.0746	16,000.5	83.5621	16,000.5	84.1779	16,000.5	81.8107	16,000.5	82.1544	16,000.5	77.2264	16,000.5	77.8842	16,000.5	71.1573	16,000.5	71.0675	16,000.5	69.6362	16,000.5	69.5684	16,000.5	65.5984	16,000.5	65.0326	16,000.5	61.237	16,000.5	58.1192	16,000.5	60.2059	16,000.5	42.1714	16,000.5	53.3198	16,000.5	45.0624	16,000.5	62.6176	16,000.5	53.5002	16,000.5	61.3207	16,000.5	52.4947	16,000.5	46.5628	16,000.5	50.9202	16,000.5	45.7532	16,000.5	49.2758	16,000.5	55.7953	16,000.5	48.1331	16,000.5	61.0542	16,000.5	48.3824	16,000.5	49.0607	16,000.5	48.9639	16,000.5	46.2898
16,564.5	86.9189	16,564.5	86.3321	16,564.5	85.8629	16,564.5	83.2524	16,564.5	83.922	16,564.5	81.1343	16,564.5	81.5796	16,564.5	76.7669	16,564.5	77.2256	16,564.5	70.2598	16,564.5	70.6854	16,564.5	67.7904	16,564.5	68.73	16,564.5	64.5255	16,564.5	64.7956	16,564.5	59.1901	16,564.5	54.1953	16,564.5	58.4014	16,564.5	48.6484	16,564.5	44.5657	16,564.5	40.0633	16,564.5	57.292	16,564.5	51.9365	16,564.5	65.8757	16,564.5	53.1104	16,564.5	51.3224	16,564.5	51.8756	16,564.5	46.0198	16,564.5	50.6701	16,564.5	53.9787	16,564.5	48.2408	16,564.5	62.1708	16,564.5	46.1816	16,564.5	53.2351	16,564.5	49.3616	16,564.5	46.396
17,148.9	86.3657	17,148.9	86.1	17,148.9	85.5758	17,148.9	82.9861	17,148.9	83.6568	17,148.9	80.269	17,148.9	80.6916	17,148.9	76.3245	17,148.9	76.2981	17,148.9	69.6133	17,148.9	70.3573	17,148.9	66.6292	17,148.9	66.637	17,148.9	61.435	17,148.9	62.5251	17,148.9	55.6135	17,148.9	55.9044	17,148.9	55.5072	17,148.9	47.1132	17,148.9	49.8982	17,148.9	29.1606	17,148.9	56.525	17,148.9	50.4981	17,148.9	65.8056	17,148.9	51.2812	17,148.9	45.9273	17,148.9	46.6516	17,148.9	51.2375	17,148.9	44.1783	17,148.9	55.9702	17,148.9	44.793	17,148.9	61.0561	17,148.9	49.6014	17,148.9	51.2167	17,148.9	46.7211	17,148.9	45.2828
17,752.4	85.6902	17,752.4	85.7462	17,752.4	85.028	17,752.4	82.5489	17,752.4	83.1677	17,752.4	79.3053	17,752.4	79.9036	17,752.4	76.031	17,752.4	75.6117	17,752.4	69.8446	17,752.4	68.3979	17,752.4	64.4335	17,752.4	64.5768	17,752.4	58.2263	17,752.4	58.6679	17,752.4	53.8586	17,752.4	55.9682	17,752.4	52.839	17,752.4	42.4831	17,752.4	52.0355	17,752.4	34.1095	17,752.4	51.8632	17,752.4	48.6566	17,752.4	64.4902	17,752.4	41.104	17,752.4	51.2093	17,752.4	31.8772	17,752.4	55.5161	17,752.4	34.472	17,752.4	55.4003	17,752.4	34.3651	17,752.4	60.8488	17,752.4	49.2124	17,752.4	37.9477	17,752.4	49.0412	17,752.4	47.7367
18,379.4	85.0844	18,379.4	85.2424	18,379.4	84.7102	18,379.4	82.1003	18,379.4	82.6769	18,379.4	78.3839	18,379.4	79.1562	18,379.4	74.6583	18,379.4	74.8903	18,379.4	68.4423	18,379.4	66.0407	18,379.4	60.4901	18,379.4	60.4937	18,379.4	58.8768	18,379.4	56.7322	18,379.4	54.3976	18,379.4	57.8269	18,379.4	52.8925	18,379.4	41.6002	18,379.4	33.4999	18,379.4	41.8552	18,379.4	60.0164	18,379.4	54.9069	18,379.4	61.4545	18,379.4	54.0807	18,379.4	53.3797	18,379.4	50.9145	18,379.4	53.2563	18,379.4	49.5856	18,379.4	49.8626	18,379.4	38.9028	18,379.4	60.8922	18,379.4	38.0761	18,379.4	57.4925	18,379.4	48.5653	18,379.4	46.6585
19,026.9	84.6626	19,026.9	84.7957	19,026.9	84.4495	19,026.9	81.3106	19,026.9	82.0305	19,026.9	77.7181	19,026.9	78.1643	19,026.9	73.5259	19,026.9	73.6822	19,026.9	67.368	19,026.9	63.5174	19,026.9	57.9158	19,026.9	58.8001	19,026.9	59.0427	19,026.9	57.515	19,026.9	53.9509	19,026.9	57.6969	19,026.9	46.9107	19,026.9	44.8647	19,026.9	51.3352	19,026.9	45.4664	19,026.9	57.7122	19,026.9	51.8846	19,026.9	60.8246	19,026.9	50.0039	19,026.9	48.1159	19,026.9	40.0945	19,026.9	56.0683	19,026.9	44.5878	19,026.9	51.9844	19,026.9	36.6967	19,026.9	59.4462	19,026.9	43.8352	19,026.9	48.2927	19,026.9	44.1329	19,026.9	43.7386
19,697.8	84.2474	19,697.8	84.2943	19,697.8	84.0617	19,697.8	80.7433	19,697.8	81.4835	19,697.8	77.2369	19,697.8	77.741	19,697.8	72.5542	19,697.8	72.6035	19,697.8	65.4017	19,697.8	62.2543	19,697.8	60.5134	19,697.8	54.925	19,697.8	59.5319	19,697.8	55.568	19,697.8	53.6301	19,697.8	57.7936	19,697.8	44.51	19,697.8	41.359	19,697.8	49.4917	19,697.8	37.3821	19,697.8	58.4416	19,697.8	49.5681	19,697.8	55.8437	19,697.8	45.442	19,697.8	54.7423	19,697.8	37.6083	19,697.8	53.1527	19,697.8	34.7747	19,697.8	54.869	19,697.8	32.9521	19,697.8	56.7018	19,697.8	46.2109	19,697.8	40.566	19,697.8	47.3291	19,697.8	46.5285
19,999.5	84.234	19,999.5	84.0005	19,999.5	83.9002	19,999.5	81.062	19,999.5	81.4852	19,999.5	76.6338	19,999.5	77.2669	19,999.5	71.9601	19,999.5	70.857	19,999.5	63.8111	19,999.5	63.2081	19,999.5	62.8158	19,999.5	59.5097	19,999.5	60.3583	19,999.5	55.486	19,999.5	40.7894	19,999.5	61.3282	19,999.5	48.4051	19,999.5	51.4212	19,999.5	50.8006	19,999.5	47.7131	19,999.5	56.2523	19,999.5	52.4586	19,999.5	57.8174	19,999.5	53.2991	19,999.5	59.0408	19,999.5	50.6402	19,999.5	57.8016	19,999.5	45.968	19,999.5	57.181	19,999.5	41.0635	19,999.5	53.7571	19,999.5	51.2411	19,999.5	62.5963	19,999.5	31.952	19,999.5	47.8122
