"SPL Horizontal"
"On-Axis"		"10°"		"-10°"		"20°"		"-20°"		"30°"		"-30°"		"40°"		"-40°"		"50°"		"-50°"		"60°"		"-60°"		"70°"		"-70°"		"80°"		"-80°"		"90°"		"-90°"		"100°"		"-100°"		"110°"		"-110°"		"120°"		"-120°"		"130°"		"-130°"		"140°"		"-140°"		"150°"		"-150°"		"160°"		"-160°"		"170°"		"-170°"		"180°"
"Frequency / Hz"	"Sound Pressure Level / dB (re 20 µPa/V)  [2.83  V @ 1. m]"	"Frequency / Hz"	"Sound Pressure Level / dB (re 20 µPa/V)  [2.83  V @ 1. m]"	"Frequency / Hz"	"Sound Pressure Level / dB (re 20 µPa/V)  [2.83  V @ 1. m]"	"Frequency / Hz"	"Sound Pressure Level / dB (re 20 µPa/V)  [2.83  V @ 1. m]"	"Frequency / Hz"	"Sound Pressure Level / dB (re 20 µPa/V)  [2.83  V @ 1. m]"	"Frequency / Hz"	"Sound Pressure Level / dB (re 20 µPa/V)  [2.83  V @ 1. m]"	"Frequency / Hz"	"Sound Pressure Level / dB (re 20 µPa/V)  [2.83  V @ 1. m]"	"Frequency / Hz"	"Sound Pressure Level / dB (re 20 µPa/V)  [2.83  V @ 1. m]"	"Frequency / Hz"	"Sound Pressure Level / dB (re 20 µPa/V)  [2.83  V @ 1. m]"	"Frequency / Hz"	"Sound Pressure Level / dB (re 20 µPa/V)  [2.83  V @ 1. m]"	"Frequency / Hz"	"Sound Pressure Level / dB (re 20 µPa/V)  [2.83  V @ 1. m]"	"Frequency / Hz"	"Sound Pressure Level / dB (re 20 µPa/V)  [2.83  V @ 1. m]"	"Frequency / Hz"	"Sound Pressure Level / dB (re 20 µPa/V)  [2.83  V @ 1. m]"	"Frequency / Hz"	"Sound Pressure Level / dB (re 20 µPa/V)  [2.83  V @ 1. m]"	"Frequency / Hz"	"Sound Pressure Level / dB (re 20 µPa/V)  [2.83  V @ 1. m]"	"Frequency / Hz"	"Sound Pressure Level / dB (re 20 µPa/V)  [2.83  V @ 1. m]"	"Frequency / Hz"	"Sound Pressure Level / dB (re 20 µPa/V)  [2.83  V @ 1. m]"	"Frequency / Hz"	"Sound Pressure Level / dB (re 20 µPa/V)  [2.83  V @ 1. m]"	"Frequency / Hz"	"Sound Pressure Level / dB (re 20 µPa/V)  [2.83  V @ 1. m]"	"Frequency / Hz"	"Sound Pressure Level / dB (re 20 µPa/V)  [2.83  V @ 1. m]"	"Frequency / Hz"	"Sound Pressure Level / dB (re 20 µPa/V)  [2.83  V @ 1. m]"	"Frequency / Hz"	"Sound Pressure Level / dB (re 20 µPa/V)  [2.83  V @ 1. m]"	"Frequency / Hz"	"Sound Pressure Level / dB (re 20 µPa/V)  [2.83  V @ 1. m]"	"Frequency / Hz"	"Sound Pressure Level / dB (re 20 µPa/V)  [2.83  V @ 1. m]"	"Frequency / Hz"	"Sound Pressure Level / dB (re 20 µPa/V)  [2.83  V @ 1. m]"	"Frequency / Hz"	"Sound Pressure Level / dB (re 20 µPa/V)  [2.83  V @ 1. m]"	"Frequency / Hz"	"Sound Pressure Level / dB (re 20 µPa/V)  [2.83  V @ 1. m]"	"Frequency / Hz"	"Sound Pressure Level / dB (re 20 µPa/V)  [2.83  V @ 1. m]"	"Frequency / Hz"	"Sound Pressure Level / dB (re 20 µPa/V)  [2.83  V @ 1. m]"	"Frequency / Hz"	"Sound Pressure Level / dB (re 20 µPa/V)  [2.83  V @ 1. m]"	"Frequency / Hz"	"Sound Pressure Level / dB (re 20 µPa/V)  [2.83  V @ 1. m]"	"Frequency / Hz"	"Sound Pressure Level / dB (re 20 µPa/V)  [2.83  V @ 1. m]"	"Frequency / Hz"	"Sound Pressure Level / dB (re 20 µPa/V)  [2.83  V @ 1. m]"	"Frequency / Hz"	"Sound Pressure Level / dB (re 20 µPa/V)  [2.83  V @ 1. m]"	"Frequency / Hz"	"Sound Pressure Level / dB (re 20 µPa/V)  [2.83  V @ 1. m]"	"Frequency / Hz"	"Sound Pressure Level / dB (re 20 µPa/V)  [2.83  V @ 1. m]"
20.5078	49.9495	20.5078	49.8839	20.5078	49.9438	20.5078	49.7472	20.5078	49.8671	20.5078	49.5401	20.5078	49.7198	20.5078	49.2636	20.5078	49.5028	20.5078	48.9197	20.5078	49.2176	20.5078	48.5115	20.5078	48.8667	20.5078	48.0448	20.5078	48.4544	20.5078	47.5295	20.5078	47.9874	20.5078	46.9801	20.5078	47.4753	20.5078	46.4163	20.5078	46.9315	20.5078	45.8612	20.5078	46.3729	20.5078	45.3387	20.5078	45.8204	20.5078	44.8708	20.5078	45.2973	20.5078	44.4753	20.5078	44.8276	20.5078	44.1655	20.5078	44.4323	20.5078	43.9502	20.5078	44.1275	20.5078	43.8358	20.5078	43.9239	20.5078	43.8263
21.9727	50.8542	21.9727	50.7505	21.9727	50.9051	21.9727	50.5943	21.9727	50.9033	21.9727	50.387	21.9727	50.8494	21.9727	50.1313	21.9727	50.7443	21.9727	49.8319	21.9727	50.5892	21.9727	49.4965	21.9727	50.3861	21.9727	49.1355	21.9727	50.1388	21.9727	48.7632	21.9727	49.8534	21.9727	48.3972	21.9727	49.539	21.9727	48.0578	21.9727	49.2084	21.9727	47.765	21.9727	48.8769	21.9727	47.5355	21.9727	48.5609	21.9727	47.3786	21.9727	48.2755	21.9727	47.2939	21.9727	48.031	21.9727	47.272	21.9727	47.8308	21.9727	47.2983	21.9727	47.6713	21.9727	47.3582	21.9727	47.5443	21.9727	47.4412
23.4375	54.3864	23.4375	54.3468	23.4375	54.4086	23.4375	54.291	23.4375	54.4133	23.4375	54.2211	23.4375	54.4014	23.4375	54.1405	23.4375	54.3745	23.4375	54.0537	23.4375	54.3358	23.4375	53.9662	23.4375	54.2892	23.4375	53.8847	23.4375	54.2398	23.4375	53.8165	23.4375	54.1933	23.4375	53.7687	23.4375	54.1555	23.4375	53.7471	23.4375	54.1304	23.4375	53.7543	23.4375	54.1203	23.4375	53.7891	23.4375	54.1243	23.4375	53.8457	23.4375	54.1388	23.4375	53.9156	23.4375	54.1579	23.4375	53.989	23.4375	54.1747	23.4375	54.0572	23.4375	54.1827	23.4375	54.1135	23.4375	54.1767	23.4375	54.1539
24.9023	57.5967	24.9023	57.5896	24.9023	57.6007	24.9023	57.5806	24.9023	57.6008	24.9023	57.5711	24.9023	57.5969	24.9023	57.5627	24.9023	57.5898	24.9023	57.5569	24.9023	57.5807	24.9023	57.5551	24.9023	57.5715	24.9023	57.5586	24.9023	57.5647	24.9023	57.5684	24.9023	57.5621	24.9023	57.5852	24.9023	57.5653	24.9023	57.6088	24.9023	57.5749	24.9023	57.6379	24.9023	57.5906	24.9023	57.6702	24.9023	57.6113	24.9023	57.7023	24.9023	57.6354	24.9023	57.7304	24.9023	57.6616	24.9023	57.7511	24.9023	57.6882	24.9023	57.7621	24.9023	57.7138	24.9023	57.7627	24.9023	57.7364	24.9023	57.7535
26.3672	60.572	26.3672	60.5611	26.3672	60.5814	26.3672	60.5491	26.3672	60.5889	26.3672	60.537	26.3672	60.5944	26.3672	60.5256	26.3672	60.5979	26.3672	60.5159	26.3672	60.5997	26.3672	60.509	26.3672	60.6002	26.3672	60.5058	26.3672	60.5999	26.3672	60.5071	26.3672	60.5995	26.3672	60.5134	26.3672	60.5995	26.3672	60.525	26.3672	60.6006	26.3672	60.5413	26.3672	60.6031	26.3672	60.5611	26.3672	60.6071	26.3672	60.5824	26.3672	60.6125	26.3672	60.603	26.3672	60.619	26.3672	60.6204	26.3672	60.6262	26.3672	60.6331	26.3672	60.6332	26.3672	60.64	26.3672	60.6388	26.3672	60.6416
27.832	63.9895	27.832	63.9987	27.832	63.9817	27.832	64.009	27.832	63.9753	27.832	64.0201	27.832	63.9705	27.832	64.0318	27.832	63.9674	27.832	64.0436	27.832	63.966	27.832	64.0553	27.832	63.9662	27.832	64.0668	27.832	63.9682	27.832	64.0779	27.832	63.9719	27.832	64.0886	27.832	63.9775	27.832	64.0988	27.832	63.9853	27.832	64.1084	27.832	63.9954	27.832	64.117	27.832	64.008	27.832	64.1239	27.832	64.023	27.832	64.1286	27.832	64.0402	27.832	64.1301	27.832	64.0587	27.832	64.1277	27.832	64.0775	27.832	64.121	27.832	64.0951	27.832	64.1099
29.2969	68.7357	29.2969	68.7275	29.2969	68.7425	29.2969	68.7181	29.2969	68.7476	29.2969	68.708	29.2969	68.7508	29.2969	68.6971	29.2969	68.7518	29.2969	68.6858	29.2969	68.7504	29.2969	68.6739	29.2969	68.7467	29.2969	68.6616	29.2969	68.7406	29.2969	68.649	29.2969	68.7322	29.2969	68.6363	29.2969	68.7214	29.2969	68.6239	29.2969	68.7086	29.2969	68.6123	29.2969	68.6939	29.2969	68.6022	29.2969	68.6779	29.2969	68.5942	29.2969	68.6614	29.2969	68.5888	29.2969	68.6451	29.2969	68.5864	29.2969	68.6301	29.2969	68.5871	29.2969	68.6169	29.2969	68.5908	29.2969	68.6058	29.2969	68.5971
30.7617	71.1493	30.7617	71.1436	30.7617	71.1519	30.7617	71.135	30.7617	71.1512	30.7617	71.1237	30.7617	71.1473	30.7617	71.1099	30.7617	71.1401	30.7617	71.0937	30.7617	71.1299	30.7617	71.0755	30.7617	71.1168	30.7617	71.0555	30.7617	71.1012	30.7617	71.034	30.7617	71.0835	30.7617	71.0116	30.7617	71.0639	30.7617	70.9891	30.7617	71.0428	30.7617	70.9673	30.7617	71.0207	30.7617	70.9471	30.7617	70.998	30.7617	70.9293	30.7617	70.9755	30.7617	70.9147	30.7617	70.954	30.7617	70.9038	30.7617	70.9344	30.7617	70.8971	30.7617	70.918	30.7617	70.8951	30.7617	70.9056	30.7617	70.8979
32.2266	73.4316	32.2266	73.4276	32.2266	73.4309	32.2266	73.419	32.2266	73.4254	32.2266	73.406	32.2266	73.4151	32.2266	73.3888	32.2266	73.4002	32.2266	73.3678	32.2266	73.3807	32.2266	73.3435	32.2266	73.3571	32.2266	73.3164	32.2266	73.3298	32.2266	73.2873	32.2266	73.2996	32.2266	73.2569	32.2266	73.2675	32.2266	73.2262	32.2266	73.2346	32.2266	73.1964	32.2266	73.202	32.2266	73.1683	32.2266	73.171	32.2266	73.1428	32.2266	73.1428	32.2266	73.1207	32.2266	73.1184	32.2266	73.1024	32.2266	73.0989	32.2266	73.0884	32.2266	73.085	32.2266	73.0792	32.2266	73.0771	32.2266	73.0752
33.6914	75.4683	33.6914	75.4632	33.6914	75.4674	33.6914	75.4522	33.6914	75.4606	33.6914	75.4353	33.6914	75.448	33.6914	75.413	33.6914	75.43	33.6914	75.3856	33.6914	75.4068	33.6914	75.3539	33.6914	75.3791	33.6914	75.3187	33.6914	75.3473	33.6914	75.2809	33.6914	75.3122	33.6914	75.2416	33.6914	75.2747	33.6914	75.2021	33.6914	75.2357	33.6914	75.1636	33.6914	75.1965	33.6914	75.1274	33.6914	75.158	33.6914	75.0946	33.6914	75.1217	33.6914	75.0661	33.6914	75.0888	33.6914	75.0432	33.6914	75.0606	33.6914	75.0268	33.6914	75.0385	33.6914	75.0177	33.6914	75.0236	33.6914	75.0165
35.1562	77.2671	35.1562	77.2616	35.1562	77.2657	35.1562	77.2492	35.1562	77.2573	35.1562	77.2302	35.1562	77.2424	35.1562	77.2051	35.1562	77.2212	35.1562	77.1744	35.1562	77.1943	35.1562	77.139	35.1562	77.1624	35.1562	77.0999	35.1562	77.1264	35.1562	77.0581	35.1562	77.0872	35.1562	77.0148	35.1562	77.0458	35.1562	76.9714	35.1562	77.0033	35.1562	76.9292	35.1562	76.961	35.1562	76.8895	35.1562	76.9202	35.1562	76.8537	35.1562	76.8822	35.1562	76.823	35.1562	76.8481	35.1562	76.7988	35.1562	76.8192	35.1562	76.7819	35.1562	76.7964	35.1562	76.7731	35.1562	76.7807	35.1562	76.7728
36.6211	78.5604	36.6211	78.5532	36.6211	78.5626	36.6211	78.5412	36.6211	78.5597	36.6211	78.5245	36.6211	78.5517	36.6211	78.5033	36.6211	78.5386	36.6211	78.4781	36.6211	78.5206	36.6211	78.4491	36.6211	78.4979	36.6211	78.4169	36.6211	78.4709	36.6211	78.3823	36.6211	78.44	36.6211	78.346	36.6211	78.4061	36.6211	78.3092	36.6211	78.3699	36.6211	78.2731	36.6211	78.3325	36.6211	78.2388	36.6211	78.2954	36.6211	78.2079	36.6211	78.2597	36.6211	78.1817	36.6211	78.2268	36.6211	78.1616	36.6211	78.1979	36.6211	78.1487	36.6211	78.1742	36.6211	78.1435	36.6211	78.1567	36.6211	78.1462
38.0859	79.3309	38.0859	79.3193	38.0859	79.3363	38.0859	79.3015	38.0859	79.3354	38.0859	79.2778	38.0859	79.3281	38.0859	79.2487	38.0859	79.3148	38.0859	79.2148	38.0859	79.2957	38.0859	79.1768	38.0859	79.2712	38.0859	79.1356	38.0859	79.2417	38.0859	79.0924	38.0859	79.2078	38.0859	79.0486	38.0859	79.1703	38.0859	79.0055	38.0859	79.1298	38.0859	78.9649	38.0859	79.0875	38.0859	78.928	38.0859	79.0446	38.0859	78.8963	38.0859	79.0023	38.0859	78.871	38.0859	78.9621	38.0859	78.8532	38.0859	78.9255	38.0859	78.8439	38.0859	78.894	38.0859	78.8434	38.0859	78.8691	38.0859	78.852
39.5508	79.9671	39.5508	79.9647	39.5508	79.9625	39.5508	79.9549	39.5508	79.9509	39.5508	79.9381	39.5508	79.9329	39.5508	79.9143	39.5508	79.909	39.5508	79.8841	39.5508	79.8799	39.5508	79.8482	39.5508	79.8463	39.5508	79.8075	39.5508	79.8088	39.5508	79.7631	39.5508	79.7684	39.5508	79.7164	39.5508	79.7259	39.5508	79.6688	39.5508	79.6823	39.5508	79.6217	39.5508	79.6386	39.5508	79.5769	39.5508	79.5962	39.5508	79.5358	39.5508	79.5563	39.5508	79.5	39.5508	79.5201	39.5508	79.4713	39.5508	79.489	39.5508	79.451	39.5508	79.4643	39.5508	79.44	39.5508	79.4472	39.5508	79.4388
41.0156	80.6474	41.0156	80.6478	41.0156	80.6379	41.0156	80.639	41.0156	80.62	41.0156	80.6209	41.0156	80.5941	41.0156	80.5939	41.0156	80.5612	41.0156	80.5584	41.0156	80.5221	41.0156	80.5153	41.0156	80.4775	41.0156	80.4656	41.0156	80.4283	41.0156	80.4106	41.0156	80.3753	41.0156	80.3516	41.0156	80.3191	41.0156	80.2901	41.0156	80.2609	41.0156	80.2275	41.0156	80.202	41.0156	80.1656	41.0156	80.1441	41.0156	80.1065	41.0156	80.0892	41.0156	80.0526	41.0156	80.0397	41.0156	80.0065	41.0156	79.9979	41.0156	79.9712	41.0156	79.9662	41.0156	79.9486	41.0156	79.9464	41.0156	79.9403
42.4805	81.282	42.4805	81.2935	42.4805	81.2612	42.4805	81.2957	42.4805	81.2316	42.4805	81.2886	42.4805	81.1936	42.4805	81.2724	42.4805	81.1481	42.4805	81.2477	42.4805	81.0961	42.4805	81.215	42.4805	81.0388	42.4805	81.1754	42.4805	80.9776	42.4805	81.1297	42.4805	80.9143	42.4805	81.0793	42.4805	80.8507	42.4805	81.0255	42.4805	80.7893	42.4805	80.9695	42.4805	80.7325	42.4805	80.9128	42.4805	80.6829	42.4805	80.8565	42.4805	80.6429	42.4805	80.8021	42.4805	80.6146	42.4805	80.7508	42.4805	80.5991	42.4805	80.7041	42.4805	80.5971	42.4805	80.6635	42.4805	80.6081	42.4805	80.6308
43.9453	81.7122	43.9453	81.7181	43.9453	81.6973	43.9453	81.7151	43.9453	81.6735	43.9453	81.7035	43.9453	81.6416	43.9453	81.6838	43.9453	81.6022	43.9453	81.6571	43.9453	81.5565	43.9453	81.6242	43.9453	81.506	43.9453	81.5863	43.9453	81.4523	43.9453	81.5449	43.9453	81.3971	43.9453	81.501	43.9453	81.3425	43.9453	81.4558	43.9453	81.2905	43.9453	81.4103	43.9453	81.2433	43.9453	81.3656	43.9453	81.2026	43.9453	81.3222	43.9453	81.1702	43.9453	81.2809	43.9453	81.1472	43.9453	81.2426	43.9453	81.1344	43.9453	81.2081	43.9453	81.1318	43.9453	81.1784	43.9453	81.139	43.9453	81.155
45.4102	82.6122	45.4102	82.6123	45.4102	82.6012	45.4102	82.6018	45.4102	82.5793	45.4102	82.581	45.4102	82.547	45.4102	82.5509	45.4102	82.5049	45.4102	82.5123	45.4102	82.454	45.4102	82.4665	45.4102	82.3958	45.4102	82.4148	45.4102	82.332	45.4102	82.3588	45.4102	82.2647	45.4102	82.3001	45.4102	82.1963	45.4102	82.2402	45.4102	82.1292	45.4102	82.1808	45.4102	82.0661	45.4102	82.1233	45.4102	82.0093	45.4102	82.069	45.4102	81.961	45.4102	82.0193	45.4102	81.923	45.4102	81.9754	45.4102	81.8966	45.4102	81.9383	45.4102	81.8824	45.4102	81.9093	45.4102	81.8802	45.4102	81.8895
46.875	82.8488	46.875	82.8466	46.875	82.8399	46.875	82.8335	46.875	82.8201	46.875	82.8101	46.875	82.7896	46.875	82.7771	46.875	82.7491	46.875	82.7355	46.875	82.6997	46.875	82.6867	46.875	82.6428	46.875	82.6322	46.875	82.5799	46.875	82.5737	46.875	82.5133	46.875	82.5128	46.875	82.4451	46.875	82.4514	46.875	82.3777	46.875	82.3912	46.875	82.3138	46.875	82.3337	46.875	82.2557	46.875	82.2804	46.875	82.2055	46.875	82.2326	46.875	82.1651	46.875	82.1914	46.875	82.1357	46.875	82.1577	46.875	82.1179	46.875	82.1326	46.875	82.1118	46.875	82.117
48.3398	83.0884	48.3398	83.086	48.3398	83.0793	48.3398	83.0723	48.3398	83.0587	48.3398	83.0479	48.3398	83.0271	48.3398	83.0134	48.3398	82.9852	48.3398	82.97	48.3398	82.9341	48.3398	82.9189	48.3398	82.8751	48.3398	82.8617	48.3398	82.8099	48.3398	82.8	48.3398	82.7407	48.3398	82.7357	48.3398	82.6696	48.3398	82.6704	48.3398	82.5992	48.3398	82.606	48.3398	82.5318	48.3398	82.5442	48.3398	82.4701	48.3398	82.4867	48.3398	82.4163	48.3398	82.4351	48.3398	82.3722	48.3398	82.3907	48.3398	82.3393	48.3398	82.3549	48.3398	82.3184	48.3398	82.3288	48.3398	82.3099	48.3398	82.3135
51.2695	83.4773	51.2695	83.4749	51.2695	83.4692	51.2695	83.4624	51.2695	83.4507	51.2695	83.4402	51.2695	83.4222	51.2695	83.4092	51.2695	83.3847	51.2695	83.3706	51.2695	83.3391	51.2695	83.3257	51.2695	83.2869	51.2695	83.2761	51.2695	83.2298	51.2695	83.2234	51.2695	83.1697	51.2695	83.1692	51.2695	83.1087	51.2695	83.1152	51.2695	83.0491	51.2695	83.0627	51.2695	82.9929	51.2695	83.013	51.2695	82.9423	51.2695	82.9673	51.2695	82.8992	51.2695	82.9263	51.2695	82.8648	51.2695	82.8909	51.2695	82.8401	51.2695	82.8618	51.2695	82.8256	51.2695	82.8399	51.2695	82.821	51.2695	82.826
52.7344	83.632	52.7344	83.6301	52.7344	83.6236	52.7344	83.618	52.7344	83.6049	52.7344	83.5963	52.7344	83.5763	52.7344	83.5662	52.7344	83.5388	52.7344	83.5288	52.7344	83.4938	52.7344	83.4856	52.7344	83.4428	52.7344	83.4382	52.7344	83.3877	52.7344	83.3883	52.7344	83.3307	52.7344	83.3377	52.7344	83.274	52.7344	83.2879	52.7344	83.2198	52.7344	83.2404	52.7344	83.1702	52.7344	83.1963	52.7344	83.1268	52.7344	83.1564	52.7344	83.091	52.7344	83.1215	52.7344	83.0637	52.7344	83.0919	52.7344	83.045	52.7344	83.0678	52.7344	83.0349	52.7344	83.0497	52.7344	83.0327	52.7344	83.0378
54.1992	83.8371	54.1992	83.8352	54.1992	83.8279	54.1992	83.8226	54.1992	83.8079	54.1992	83.8	54.1992	83.7775	54.1992	83.7687	54.1992	83.7378	54.1992	83.73	54.1992	83.6903	54.1992	83.6857	54.1992	83.6369	54.1992	83.6378	54.1992	83.5798	54.1992	83.5882	54.1992	83.5215	54.1992	83.5388	54.1992	83.4643	54.1992	83.4914	54.1992	83.4109	54.1992	83.4473	54.1992	83.3635	54.1992	83.4074	54.1992	83.3238	54.1992	83.3722	54.1992	83.293	54.1992	83.342	54.1992	83.2715	54.1992	83.3165	54.1992	83.2591	54.1992	83.2953	54.1992	83.2548	54.1992	83.2783	54.1992	83.2573	54.1992	83.2655
55.6641	84.0491	55.6641	84.043	55.6641	84.042	55.6641	84.024	55.6641	84.0216	55.6641	83.9932	55.6641	83.9881	55.6641	83.9519	55.6641	83.9425	55.6641	83.9016	55.6641	83.8863	55.6641	83.8444	55.6641	83.8211	55.6641	83.7823	55.6641	83.7495	55.6641	83.7177	55.6641	83.6741	55.6641	83.6526	55.6641	83.5981	55.6641	83.5892	55.6641	83.5245	55.6641	83.5291	55.6641	83.4563	55.6641	83.4736	55.6641	83.3963	55.6641	83.4237	55.6641	83.3467	55.6641	83.3799	55.6641	83.3087	55.6641	83.3426	55.6641	83.2828	55.6641	83.312	55.6641	83.2689	55.6641	83.2885	55.6641	83.266	55.6641	83.2729
58.5938	84.4946	58.5938	84.4767	58.5938	84.4992	58.5938	84.4464	58.5938	84.4904	58.5938	84.405	58.5938	84.4684	58.5938	84.3541	58.5938	84.434	58.5938	84.2959	58.5938	84.3886	58.5938	84.2326	58.5938	84.334	58.5938	84.1669	58.5938	84.2722	58.5938	84.1012	58.5938	84.2057	58.5938	84.0379	58.5938	84.1372	58.5938	83.979	58.5938	84.0694	58.5938	83.9263	58.5938	84.0047	58.5938	83.8809	58.5938	83.9456	58.5938	83.8432	58.5938	83.8939	58.5938	83.8134	58.5938	83.8508	58.5938	83.7914	58.5938	83.817	58.5938	83.7768	58.5938	83.7925	58.5938	83.7694	58.5938	83.7768	58.5938	83.7693
60.0586	84.6203	60.0586	84.6039	60.0586	84.6222	60.0586	84.5737	60.0586	84.6096	60.0586	84.5308	60.0586	84.5829	60.0586	84.477	60.0586	84.5431	60.0586	84.4145	60.0586	84.4919	60.0586	84.3456	60.0586	84.4311	60.0586	84.2733	60.0586	84.3633	60.0586	84.2004	60.0586	84.2911	60.0586	84.1296	60.0586	84.2174	60.0586	84.0633	60.0586	84.145	60.0586	84.0037	60.0586	84.0767	60.0586	83.9521	60.0586	84.0147	60.0586	83.9093	60.0586	83.9607	60.0586	83.8757	60.0586	83.9158	60.0586	83.8512	60.0586	83.8803	60.0586	83.8353	60.0586	83.8541	60.0586	83.8277	60.0586	83.8369	60.0586	83.8282
62.9883	84.7499	62.9883	84.7328	62.9883	84.7533	62.9883	84.7026	62.9883	84.7429	62.9883	84.6607	62.9883	84.7188	62.9883	84.6086	62.9883	84.6821	62.9883	84.5484	62.9883	84.6341	62.9883	84.4825	62.9883	84.5766	62.9883	84.4138	62.9883	84.5119	62.9883	84.3448	62.9883	84.4427	62.9883	84.2782	62.9883	84.3718	62.9883	84.2165	62.9883	84.302	62.9883	84.1614	62.9883	84.2361	62.9883	84.1142	62.9883	84.1765	62.9883	84.0755	62.9883	84.1247	62.9883	84.0453	62.9883	84.082	62.9883	84.0232	62.9883	84.0488	62.9883	84.0088	62.9883	84.0247	62.9883	84.0017	62.9883	84.0093	62.9883	84.0018
64.4531	84.8251	64.4531	84.8072	64.4531	84.8289	64.4531	84.776	64.4531	84.8184	64.4531	84.7326	64.4531	84.7942	64.4531	84.6789	64.4531	84.7572	64.4531	84.6171	64.4531	84.709	64.4531	84.55	64.4531	84.6516	64.4531	84.4804	64.4531	84.5874	64.4531	84.4113	64.4531	84.5194	64.4531	84.3454	64.4531	84.4503	64.4531	84.2853	64.4531	84.3831	64.4531	84.2329	64.4531	84.3204	64.4531	84.1893	64.4531	84.2644	64.4531	84.1549	64.4531	84.2164	64.4531	84.1294	64.4531	84.1771	64.4531	84.1122	64.4531	84.1467	64.4531	84.1021	64.4531	84.1244	64.4531	84.0986	64.4531	84.1094	64.4531	84.101
67.3828	85.0239	67.3828	85.0001	67.3828	85.0321	67.3828	84.9615	67.3828	85.0244	67.3828	84.9096	67.3828	85.0015	67.3828	84.8464	67.3828	84.9643	67.3828	84.7746	67.3828	84.9146	67.3828	84.6973	67.3828	84.8544	67.3828	84.6179	67.3828	84.7866	67.3828	84.54	67.3828	84.7141	67.3828	84.4668	67.3828	84.6399	67.3828	84.4013	67.3828	84.5673	67.3828	84.3457	67.3828	84.499	67.3828	84.3013	67.3828	84.4372	67.3828	84.2682	67.3828	84.3835	67.3828	84.2459	67.3828	84.3387	67.3828	84.2332	67.3828	84.3026	67.3828	84.2286	67.3828	84.2747	67.3828	84.231	67.3828	84.254	67.3828	84.2395
68.8477	85.2119	68.8477	85.1865	68.8477	85.2209	68.8477	85.1456	68.8477	85.2133	68.8477	85.0907	68.8477	85.1899	68.8477	85.0238	68.8477	85.1516	68.8477	84.948	68.8477	85.1003	68.8477	84.8663	68.8477	85.0384	68.8477	84.7827	68.8477	84.9686	68.8477	84.7008	68.8477	84.8942	68.8477	84.6245	68.8477	84.8185	68.8477	84.5571	68.8477	84.7446	68.8477	84.5009	68.8477	84.6757	68.8477	84.4573	68.8477	84.6138	68.8477	84.4265	68.8477	84.5605	68.8477	84.4077	68.8477	84.5163	68.8477	84.399	68.8477	84.4808	68.8477	84.3986	68.8477	84.453	68.8477	84.4046	68.8477	84.4317	68.8477	84.4157
71.7773	85.2639	71.7773	85.2342	71.7773	85.2763	71.7773	85.1878	71.7773	85.2712	71.7773	85.1265	71.7773	85.2493	71.7773	85.0523	71.7773	85.2118	71.7773	84.9683	71.7773	85.1604	71.7773	84.878	71.7773	85.0977	71.7773	84.7854	71.7773	85.0266	71.7773	84.695	71.7773	84.9502	71.7773	84.6107	71.7773	84.8721	71.7773	84.5366	71.7773	84.7954	71.7773	84.4756	71.7773	84.7231	71.7773	84.4293	71.7773	84.6572	71.7773	84.3983	71.7773	84.5992	71.7773	84.3817	71.7773	84.5494	71.7773	84.3777	71.7773	84.5073	71.7773	84.3838	71.7773	84.472	71.7773	84.3977	71.7773	84.4423	71.7773	84.4175
74.707	85.423	74.707	85.3955	74.707	85.4327	74.707	85.3508	74.707	85.4246	74.707	85.2904	74.707	85.3996	74.707	85.2165	74.707	85.3593	74.707	85.1321	74.707	85.3057	74.707	85.0411	74.707	85.2417	74.707	84.9475	74.707	85.1704	74.707	84.856	74.707	85.0952	74.707	84.771	74.707	85.0195	74.707	84.6966	74.707	84.9464	74.707	84.6358	74.707	84.8784	74.707	84.5907	74.707	84.8174	74.707	84.5614	74.707	84.764	74.707	84.5472	74.707	84.7184	74.707	84.5457	74.707	84.6794	74.707	84.5544	74.707	84.646	74.707	84.5704	74.707	84.617	74.707	84.5917
77.6367	85.6133	77.6367	85.5904	77.6367	85.6176	77.6367	85.5495	77.6367	85.6035	77.6367	85.4919	77.6367	85.5721	77.6367	85.42	77.6367	85.5251	77.6367	85.3368	77.6367	85.4651	77.6367	85.246	77.6367	85.3952	77.6367	85.1522	77.6367	85.3191	77.6367	85.06	77.6367	85.2406	77.6367	84.9742	77.6367	85.1637	77.6367	84.899	77.6367	85.0917	77.6367	84.8377	77.6367	85.0272	77.6367	84.7924	77.6367	84.9718	77.6367	84.7633	77.6367	84.9259	77.6367	84.7494	77.6367	84.8885	77.6367	84.7481	77.6367	84.858	77.6367	84.7563	77.6367	84.8323	77.6367	84.7708	77.6367	84.8097	77.6367	84.7891
79.1016	85.6686	79.1016	85.6487	79.1016	85.6694	79.1016	85.6103	79.1016	85.6513	79.1016	85.5547	79.1016	85.6155	79.1016	85.4844	79.1016	85.5638	79.1016	85.4022	79.1016	85.4991	79.1016	85.3122	79.1016	85.4246	79.1016	85.2187	79.1016	85.3444	79.1016	85.1265	79.1016	85.2626	79.1016	85.0404	79.1016	85.1834	79.1016	84.9647	79.1016	85.1106	79.1016	84.9028	79.1016	85.047	79.1016	84.8567	79.1016	84.9941	79.1016	84.8268	79.1016	84.952	79.1016	84.8118	79.1016	84.9196	79.1016	84.809	79.1016	84.8948	79.1016	84.8153	79.1016	84.8749	79.1016	84.827	79.1016	84.8576	79.1016	84.8417
82.0312	85.9226	82.0312	85.9048	82.0312	85.9195	82.0312	85.8668	82.0312	85.8957	82.0312	85.8103	82.0312	85.8523	82.0312	85.7378	82.0312	85.7912	82.0312	85.6526	82.0312	85.7156	82.0312	85.5591	82.0312	85.629	82.0312	85.4617	82.0312	85.5361	82.0312	85.3656	82.0312	85.4416	82.0312	85.2756	82.0312	85.3506	82.0312	85.196	82.0312	85.2675	82.0312	85.13	82.0312	85.1959	82.0312	85.0794	82.0312	85.138	82.0312	85.0443	82.0312	85.0943	82.0312	85.023	82.0312	85.0637	82.0312	85.0129	82.0312	85.0438	82.0312	85.0105	82.0312	85.0313	82.0312	85.0127	82.0312	85.0232	82.0312	85.0172
84.9609	86.3389	84.9609	86.3259	84.9609	86.3292	84.9609	86.2908	84.9609	86.2973	84.9609	86.2353	84.9609	86.2443	84.9609	86.1618	84.9609	86.1725	84.9609	86.0737	84.9609	86.085	84.9609	85.9751	84.9609	85.9858	84.9609	85.8708	84.9609	85.8796	84.9609	85.766	84.9609	85.7716	84.9609	85.6658	84.9609	85.6671	84.9609	85.5747	84.9609	85.5713	84.9609	85.4963	84.9609	85.4882	84.9609	85.4327	84.9609	85.4206	84.9609	85.3844	84.9609	85.3696	84.9609	85.3501	84.9609	85.3345	84.9609	85.3272	84.9609	85.313	84.9609	85.3129	84.9609	85.3021	84.9609	85.3043	84.9609	85.2985	84.9609	85.2996
87.8906	86.4418	87.8906	86.4212	87.8906	86.4427	87.8906	86.3818	87.8906	86.4238	87.8906	86.3255	87.8906	86.3863	87.8906	86.2552	87.8906	86.332	87.8906	86.1747	87.8906	86.2639	87.8906	86.0882	87.8906	86.1859	87.8906	86.0006	87.8906	86.1025	87.8906	85.9168	87.8906	86.0183	87.8906	85.8413	87.8906	85.9383	87.8906	85.7779	87.8906	85.8665	87.8906	85.7287	87.8906	85.8063	87.8906	85.6944	87.8906	85.7592	87.8906	85.674	87.8906	85.7254	87.8906	85.6649	87.8906	85.7035	87.8906	85.6638	87.8906	85.6907	87.8906	85.6671	87.8906	85.6839	87.8906	85.6718	87.8906	85.6799	87.8906	85.6762
90.8203	86.7186	90.8203	86.6966	90.8203	86.7183	90.8203	86.6531	90.8203	86.6958	90.8203	86.5903	90.8203	86.6525	90.8203	86.5113	90.8203	86.5909	90.8203	86.4206	90.8203	86.5143	90.8203	86.3232	90.8203	86.4274	90.8203	86.2253	90.8203	86.3354	90.8203	86.133	90.8203	86.2442	90.8203	86.0519	90.8203	86.1594	90.8203	85.9867	90.8203	86.0862	90.8203	85.9402	90.8203	86.028	90.8203	85.9128	90.8203	85.9867	90.8203	85.9026	90.8203	85.9616	90.8203	85.9056	90.8203	85.9501	90.8203	85.9167	90.8203	85.9479	90.8203	85.9305	90.8203	85.95	90.8203	85.9425	90.8203	85.9518	90.8203	85.9498
95.2148	87.2108	95.2148	87.1923	95.2148	87.2042	95.2148	87.1495	95.2148	87.1728	95.2148	87.0845	95.2148	87.1184	95.2148	87.0004	95.2148	87.0436	95.2148	86.9016	95.2148	86.9524	95.2148	86.7936	95.2148	86.85	95.2148	86.6827	95.2148	86.7422	95.2148	86.5754	95.2148	86.6355	95.2148	86.4783	95.2148	86.5363	95.2148	86.3967	95.2148	86.4502	95.2148	86.3343	95.2148	86.3814	95.2148	86.2923	95.2148	86.3318	95.2148	86.2695	95.2148	86.3009	95.2148	86.2622	95.2148	86.2857	95.2148	86.2653	95.2148	86.2816	95.2148	86.2732	95.2148	86.2832	95.2148	86.2809	95.2148	86.2857	95.2148	86.2854
98.1445	87.4453	98.1445	87.4345	98.1445	87.429	98.1445	87.3975	98.1445	87.386	98.1445	87.3366	98.1445	87.318	98.1445	87.2551	98.1445	87.2277	98.1445	87.1576	98.1445	87.1196	98.1445	87.0497	98.1445	86.9991	98.1445	86.9377	98.1445	86.8727	98.1445	86.8282	98.1445	86.748	98.1445	86.7274	98.1445	86.6324	98.1445	86.6406	98.1445	86.5328	98.1445	86.5711	98.1445	86.4545	98.1445	86.5199	98.1445	86.4003	98.1445	86.4858	98.1445	86.37	98.1445	86.4649	98.1445	86.3606	98.1445	86.4525	98.1445	86.3668	98.1445	86.4432	98.1445	86.3823	98.1445	86.4327	98.1445	86.4011	98.1445	86.4187
101.074	87.5823	101.074	87.5644	101.074	87.5713	101.074	87.5189	101.074	87.5316	101.074	87.4484	101.074	87.465	101.074	87.3571	101.074	87.3749	101.074	87.2506	101.074	87.266	101.074	87.1354	101.074	87.1441	101.074	87.0186	101.074	87.0164	101.074	86.9076	101.074	86.8905	101.074	86.8088	101.074	86.7741	101.074	86.727	101.074	86.6739	101.074	86.6649	101.074	86.5951	101.074	86.6224	101.074	86.5403	101.074	86.5968	101.074	86.5092	101.074	86.5836	101.074	86.4987	101.074	86.5772	101.074	86.5039	101.074	86.5723	101.074	86.5184	101.074	86.5648	101.074	86.5362	101.074	86.5526
105.469	88.0126	105.469	87.9759	105.469	88.0154	105.469	87.9066	105.469	87.9844	105.469	87.8077	105.469	87.9211	105.469	87.6836	105.469	87.8285	105.469	87.5406	105.469	87.7112	105.469	87.3863	105.469	87.5751	105.469	87.2297	105.469	87.4278	105.469	87.0807	105.469	87.2782	105.469	86.9487	105.469	87.1355	105.469	86.8414	105.469	87.0086	105.469	86.7637	105.469	86.9047	105.469	86.7165	105.469	86.828	105.469	86.6966	105.469	86.7788	105.469	86.6977	105.469	86.7538	105.469	86.7113	105.469	86.7463	105.469	86.7289	105.469	86.7483	105.469	86.7436	105.469	86.7521	105.469	86.7515
108.398	88.1966	108.398	88.1685	108.398	88.1916	108.398	88.1081	108.398	88.1538	108.398	88.018	108.398	88.085	108.398	87.9019	108.398	87.9883	108.398	87.7653	108.398	87.8682	108.398	87.6152	108.398	87.7306	108.398	87.4601	108.398	87.5828	108.398	87.3092	108.398	87.4332	108.398	87.1719	108.398	87.2906	108.398	87.0565	108.398	87.1633	108.398	86.9687	108.398	87.0582	108.398	86.9104	108.398	86.9794	108.398	86.8796	108.398	86.9275	108.398	86.8705	108.398	86.8996	108.398	86.8752	108.398	86.8898	108.398	86.8852	108.398	86.8909	108.398	86.8938	108.398	86.8953	108.398	86.8973
112.793	88.2687	112.793	88.2375	112.793	88.2673	112.793	88.1752	112.793	88.2334	112.793	88.0845	112.793	88.1682	112.793	87.9694	112.793	88.0746	112.793	87.8357	112.793	87.9569	112.793	87.6904	112.793	87.8212	112.793	87.5417	112.793	87.6749	112.793	87.3987	112.793	87.5271	112.793	87.2703	112.793	87.3871	112.793	87.1641	112.793	87.2639	112.793	87.0851	112.793	87.1645	112.793	87.0349	112.793	87.093	112.793	87.0111	112.793	87.0496	112.793	87.008	112.793	87.0303	112.793	87.0176	112.793	87.0285	112.793	87.0316	112.793	87.0357	112.793	87.0429	112.793	87.0439	112.793	87.0473
117.188	88.3437	117.188	88.3078	117.188	88.3432	117.188	88.237	117.188	88.3063	117.188	88.1342	117.188	88.2349	117.188	88.0043	117.188	88.1322	117.188	87.8537	117.188	88.0032	117.188	87.6907	117.188	87.8546	117.188	87.5247	117.188	87.6946	117.188	87.3663	117.188	87.5331	117.188	87.2256	117.188	87.3801	117.188	87.1111	117.188	87.2455	117.188	87.0281	117.188	87.1371	117.188	86.9778	117.188	87.0593	117.188	86.9568	117.188	87.0124	117.188	86.9581	117.188	86.9921	117.188	86.9726	117.188	86.9907	117.188	86.991	117.188	86.9991	117.188	87.0055	117.188	87.0083	117.188	87.0115
120.117	88.5692	120.117	88.5227	120.117	88.5783	120.117	88.4405	120.117	88.5498	120.117	88.3257	120.117	88.4852	120.117	88.1833	120.117	88.3873	120.117	88.02	120.117	88.2609	120.117	87.8443	120.117	88.1124	120.117	87.6661	120.117	87.9498	120.117	87.4966	120.117	87.7827	120.117	87.3465	120.117	87.6217	120.117	87.2251	120.117	87.477	120.117	87.1385	120.117	87.3573	120.117	87.088	120.117	87.268	120.117	87.0701	120.117	87.2099	120.117	87.0771	120.117	87.1793	120.117	87.099	120.117	87.1685	120.117	87.1256	120.117	87.168	120.117	87.1487	120.117	87.1686	120.117	87.1633
124.512	88.7274	124.512	88.6762	124.512	88.741	124.512	88.5889	124.512	88.7173	124.512	88.4685	124.512	88.6578	124.512	88.32	124.512	88.5659	124.512	88.1503	124.512	88.4464	124.512	87.968	124.512	88.3059	124.512	87.7839	124.512	88.1524	124.512	87.6099	124.512	87.9953	124.512	87.458	124.512	87.8443	124.512	87.3383	124.512	87.7089	124.512	87.2574	124.512	87.5968	124.512	87.217	124.512	87.5124	124.512	87.2127	124.512	87.4562	124.512	87.2356	124.512	87.4246	124.512	87.2742	124.512	87.4101	124.512	87.3169	124.512	87.4038	124.512	87.3543	124.512	87.3965	124.512	87.3812
128.906	88.7958	128.906	88.7474	128.906	88.8037	128.906	88.6596	128.906	88.7719	128.906	88.5352	128.906	88.7031	128.906	88.3794	128.906	88.6017	128.906	88.1996	128.906	88.474	128.906	88.0056	128.906	88.3279	128.906	87.8091	128.906	88.1729	128.906	87.6235	128.906	88.0195	128.906	87.462	128.906	87.8783	128.906	87.3362	128.906	87.7585	128.906	87.2539	128.906	87.6664	128.906	87.2175	128.906	87.6039	128.906	87.2229	128.906	87.5683	128.906	87.2612	128.906	87.5525	128.906	87.3196	128.906	87.5467	128.906	87.385	128.906	87.5403	128.906	87.4456	128.906	87.5244	128.906	87.4933
133.301	88.7523	133.301	88.7343	133.301	88.7281	133.301	88.6745	133.301	88.6631	133.301	88.5749	133.301	88.5602	133.301	88.4395	133.301	88.4243	133.301	88.2744	133.301	88.2622	133.301	88.0885	133.301	88.0831	133.301	87.8931	133.301	87.8983	133.301	87.7018	133.301	87.7206	133.301	87.5293	133.301	87.5632	133.301	87.3891	133.301	87.4376	133.301	87.2912	133.301	87.3517	133.301	87.2395	133.301	87.3073	133.301	87.2306	133.301	87.2999	133.301	87.2548	133.301	87.3195	133.301	87.2984	133.301	87.3526	133.301	87.3462	133.301	87.3851	133.301	87.3851	133.301	87.4055	133.301	87.4062
139.16	88.48	139.16	88.4633	139.16	88.4501	139.16	88.4017	139.16	88.3741	139.16	88.2981	139.16	88.2538	139.16	88.1576	139.16	88.0932	139.16	87.9873	139.16	87.8991	139.16	87.7964	139.16	87.6808	139.16	87.5967	139.16	87.4511	139.16	87.4019	139.16	87.2253	139.16	87.2263	139.16	87.0208	139.16	87.0829	139.16	86.8543	139.16	86.9806	139.16	86.7386	139.16	86.9225	139.16	86.6799	139.16	86.904	139.16	86.6753	139.16	86.9142	139.16	86.7133	139.16	86.9384	139.16	86.7772	139.16	86.9608	139.16	86.8484	139.16	86.9681	139.16	86.9104	139.16	86.952
143.555	88.1804	143.555	88.1428	143.555	88.1718	143.555	88.0612	143.555	88.1162	143.555	87.9393	143.555	88.0147	143.555	87.7826	143.555	87.8702	143.555	87.5984	143.555	87.6878	143.555	87.3963	143.555	87.4754	143.555	87.1877	143.555	87.2443	143.555	86.9858	143.555	87.0083	143.555	86.8044	143.555	86.7841	143.555	86.6558	143.555	86.5886	143.555	86.5484	143.555	86.4367	143.555	86.4847	143.555	86.338	143.555	86.46	143.555	86.2939	143.555	86.4634	143.555	86.2973	143.555	86.4803	143.555	86.3343	143.555	86.4958	143.555	86.3875	143.555	86.4976	143.555	86.44	143.555	86.479
147.949	87.7995	147.949	87.7474	147.949	87.8041	147.949	87.6503	147.949	87.7608	147.949	87.5122	147.949	87.6708	147.949	87.3389	147.949	87.5369	147.949	87.1389	147.949	87.3647	147.949	86.9225	147.949	87.1619	147.949	86.7029	147.949	86.9395	147.949	86.4946	147.949	86.7112	147.949	86.3123	147.949	86.4932	147.949	86.1686	147.949	86.3019	147.949	86.0713	147.949	86.1515	147.949	86.0215	147.949	86.0506	147.949	86.0126	147.949	86.0003	147.949	86.0322	147.949	85.9933	147.949	86.0649	147.949	86.0162	147.949	86.0957	147.949	86.0531	147.949	86.113	147.949	86.0884	147.949	86.1105
153.809	87.5976	153.809	87.5566	153.809	87.5867	153.809	87.4648	153.809	87.5246	153.809	87.3253	153.809	87.414	153.809	87.1441	153.809	87.2595	153.809	86.9298	153.809	87.0678	153.809	86.6944	153.809	86.8484	153.809	86.4528	153.809	86.6138	153.809	86.2224	153.809	86.3792	153.809	86.0214	153.809	86.1619	153.809	85.8654	153.809	85.9791	153.809	85.7644	153.809	85.8444	153.809	85.7198	153.809	85.7645	153.809	85.7238	153.809	85.7374	153.809	85.7613	153.809	85.7525	153.809	85.8136	153.809	85.7935	153.809	85.8627	153.809	85.8422	153.809	85.8948	153.809	85.8822	153.809	85.9016
159.668	87.4307	159.668	87.3752	159.668	87.4298	159.668	87.2652	159.668	87.3726	159.668	87.1046	159.668	87.2611	159.668	86.8999	159.668	87.0993	159.668	86.6608	159.668	86.894	159.668	86.4006	159.668	86.6553	159.668	86.1363	159.668	86.3971	159.668	85.8881	159.668	86.1374	159.668	85.6771	159.668	85.8972	159.668	85.5217	159.668	85.698	159.668	85.4331	159.668	85.557	159.668	85.4116	159.668	85.4825	159.668	85.4458	159.668	85.4712	159.668	85.5159	159.668	85.5089	159.668	85.5982	159.668	85.5743	159.668	85.6705	159.668	85.6448	159.668	85.7163	159.668	85.7003	159.668	85.7266
165.527	87.3553	165.527	87.3124	165.527	87.3404	165.527	87.213	165.527	87.2679	165.527	87.0602	165.527	87.1397	165.527	86.8595	165.527	86.9595	165.527	86.6191	165.527	86.7336	165.527	86.351	165.527	86.4712	165.527	86.071	165.527	86.1858	165.527	85.7985	165.527	85.8954	165.527	85.555	165.527	85.6221	165.527	85.3606	165.527	85.3898	165.527	85.2299	165.527	85.2194	165.527	85.1672	165.527	85.1225	165.527	85.1655	165.527	85.098	165.527	85.2072	165.527	85.1313	165.527	85.2693	165.527	85.199	165.527	85.3286	165.527	85.2751	165.527	85.3659	165.527	85.3372	165.527	85.3697
171.387	87.307	171.387	87.2336	171.387	87.3239	171.387	87.1052	171.387	87.2841	171.387	86.9248	171.387	87.1886	171.387	86.698	171.387	87.0401	171.387	86.4335	171.387	86.8426	171.387	86.1446	171.387	86.6032	171.387	85.8494	171.387	86.3324	171.387	85.5709	171.387	86.0456	171.387	85.3341	171.387	85.7637	171.387	85.1615	171.387	85.5114	171.387	85.0666	171.387	85.3136	171.387	85.049	171.387	85.1885	171.387	85.0939	171.387	85.1411	171.387	85.1768	171.387	85.1602	171.387	85.2699	171.387	85.2226	171.387	85.3484	171.387	85.2995	171.387	85.3948	171.387	85.3651	171.387	85.4002
177.246	86.9493	177.246	86.8858	177.246	86.9544	177.246	86.7639	177.246	86.9025	177.246	86.5855	177.246	86.7965	177.246	86.3543	177.246	86.6413	177.246	86.077	177.246	86.4436	177.246	85.7646	177.246	86.2123	177.246	85.4334	177.246	85.9592	177.246	85.1066	177.246	85.6986	177.246	84.813	177.246	85.4478	177.246	84.5831	177.246	85.2254	177.246	84.4412	177.246	85.0488	177.246	84.3973	177.246	84.9306	177.246	84.4417	177.246	84.8737	177.246	84.548	177.246	84.87	177.246	84.6816	177.246	84.9007	177.246	84.8093	177.246	84.9414	177.246	84.9062	177.246	84.9674	177.246	84.9592
183.105	86.6197	183.105	86.5783	183.105	86.5982	183.105	86.4751	183.105	86.5147	183.105	86.3131	183.105	86.3719	183.105	86.0976	183.105	86.1758	183.105	85.8365	183.105	85.9355	183.105	85.5417	183.105	85.6643	183.105	85.2299	183.105	85.3801	183.105	84.9236	183.105	85.1052	183.105	84.6499	183.105	84.8639	183.105	84.4367	183.105	84.6787	183.105	84.3062	183.105	84.5648	183.105	84.2673	183.105	84.525	183.105	84.311	183.105	84.5488	183.105	84.413	183.105	84.6146	183.105	84.5413	183.105	84.6964	183.105	84.6647	183.105	84.7685	183.105	84.7587	183.105	84.8105	183.105	84.8088
188.965	86.7821	188.965	86.7364	188.965	86.7574	188.965	86.6219	188.965	86.6623	188.965	86.4413	188.965	86.498	188.965	86.1991	188.965	86.2682	188.965	85.9025	188.965	85.98	188.965	85.563	188.965	85.6457	188.965	85.1983	188.965	85.2847	188.965	84.8332	188.965	84.9247	188.965	84.5001	188.965	84.6007	188.965	84.235	188.965	84.3489	188.965	84.0688	188.965	84.1978	188.965	84.0162	188.965	84.1563	188.965	84.0685	188.965	84.21	188.965	84.195	188.965	84.3253	188.965	84.3542	188.965	84.4614	188.965	84.5053	188.965	84.5809	188.965	84.6167	188.965	84.6556	188.965	84.6692
196.289	86.854	196.289	86.8129	196.289	86.826	196.289	86.7053	196.289	86.727	196.289	86.5345	196.289	86.5558	196.289	86.3052	196.289	86.3122	196.289	86.024	196.289	85.9983	196.289	85.7006	196.289	85.62	196.289	85.3491	196.289	85.19	196.289	84.9891	196.289	84.7314	196.289	84.6462	196.289	84.2812	196.289	84.3499	196.289	83.889	196.289	84.1285	196.289	83.6079	196.289	84.0007	196.289	83.4747	196.289	83.9679	196.289	83.4916	196.289	84.011	196.289	83.6226	196.289	84.0953	196.289	83.8104	196.289	84.1808	196.289	83.998	196.289	84.2316	196.289	84.1432	196.289	84.2227
203.613	86.6881	203.613	86.6191	203.613	86.6891	203.613	86.4846	203.613	86.6207	203.613	86.2884	203.613	86.4822	203.613	86.037	203.613	86.2736	203.613	85.7401	203.613	85.9956	203.613	85.4117	203.613	85.6515	203.613	85.0703	203.613	85.2485	203.613	84.739	203.613	84.8017	203.613	84.4428	203.613	84.3369	203.613	84.2048	203.613	83.8941	203.613	84.0406	203.613	83.5241	203.613	83.9537	203.613	83.2765	203.613	83.9334	203.613	83.1798	203.613	83.9567	203.613	83.2268	203.613	83.9936	203.613	83.3762	203.613	84.0128	203.613	83.5711	203.613	83.9881	203.613	83.7591	203.613	83.9038
210.938	86.4668	210.938	86.3489	210.938	86.5133	210.938	86.1607	210.938	86.4883	210.938	85.9048	210.938	86.3927	210.938	85.5855	210.938	86.2284	210.938	85.2107	210.938	85.9984	210.938	84.7942	210.938	85.7076	210.938	84.3581	210.938	85.3643	210.938	83.9358	210.938	84.982	210.938	83.5708	210.938	84.5821	210.938	83.3084	210.938	84.1949	210.938	83.1804	210.938	83.8587	210.938	83.1895	210.938	83.6118	210.938	83.3059	210.938	83.4804	210.938	83.4791	210.938	83.4661	210.938	83.6554	210.938	83.542	210.938	83.7917	210.938	83.6631	210.938	83.8613	210.938	83.7806	210.938	83.8549
218.262	86.6225	218.262	86.5569	218.262	86.6177	218.262	86.418	218.262	86.5461	218.262	86.2038	218.262	86.4123	218.262	85.9143	218.262	86.2217	218.262	85.5516	218.262	85.9804	218.262	85.1229	218.262	85.696	218.262	84.643	218.262	85.3783	218.262	84.139	218.262	85.0406	218.262	83.6529	218.262	84.7008	218.262	83.2404	218.262	84.3817	218.262	82.9583	218.262	84.109	218.262	82.8426	218.262	83.9056	218.262	82.8894	218.262	83.784	218.262	83.0552	218.262	83.7401	218.262	83.2765	218.262	83.7516	218.262	83.4932	218.262	83.7838	218.262	83.6628	218.262	83.7987	218.262	83.7645
225.586	86.8473	225.586	86.8345	225.586	86.781	225.586	86.7421	225.586	86.6381	225.586	86.5707	225.586	86.4227	225.586	86.3228	225.586	86.1415	225.586	86.0028	225.586	85.8044	225.586	85.6189	225.586	85.4261	225.586	85.1851	225.586	85.0282	225.586	84.725	225.586	84.6398	225.586	84.2752	225.586	84.2973	225.586	83.8844	225.586	84.0383	225.586	83.605	225.586	83.8907	225.586	83.4753	225.586	83.8611	225.586	83.5003	225.586	83.9301	225.586	83.647	225.586	84.0584	225.586	83.8584	225.586	84.2005	225.586	84.0746	225.586	84.3151	225.586	84.2483	225.586	84.3714	225.586	84.3508
232.91	87.3426	232.91	87.3227	232.91	87.2778	232.91	87.2216	232.91	87.1251	232.91	87.0427	232.91	86.8815	232.91	86.7904	232.91	86.5453	232.91	86.4702	232.91	86.1178	232.91	86.0905	232.91	85.6056	232.91	85.6632	232.91	85.0246	232.91	85.2068	232.91	84.4058	232.91	84.7478	232.91	83.7996	232.91	84.3217	232.91	83.2762	232.91	83.9699	232.91	82.9112	232.91	83.7294	232.91	82.7553	232.91	83.617	232.91	82.8053	232.91	83.6187	232.91	83.0039	232.91	83.6925	232.91	83.2686	232.91	83.7832	232.91	83.5238	232.91	83.8393	232.91	83.7175	232.91	83.8235
241.699	87.5983	241.699	87.481	241.699	87.6386	241.699	87.2896	241.699	87.5999	241.699	87.0284	241.699	87.4802	241.699	86.7042	241.699	87.2774	241.699	86.3273	241.699	86.9887	241.699	85.9132	241.699	86.6116	241.699	85.4842	241.699	86.146	241.699	85.0708	241.699	85.5995	241.699	84.7097	241.699	84.9957	241.699	84.4373	241.699	84.3855	241.699	84.279	241.699	83.8519	241.699	84.2372	241.699	83.4914	241.699	84.2883	241.699	83.3673	241.699	84.3897	241.699	83.4662	241.699	84.4927	241.699	83.708	241.699	84.5544	241.699	83.9962	241.699	84.5438	241.699	84.2562	241.699	84.4447
250.488	87.6856	250.488	87.5791	250.488	87.7041	250.488	87.3823	250.488	87.6368	250.488	87.0924	250.488	87.4866	250.488	86.7074	250.488	87.2574	250.488	86.2288	250.488	86.9558	250.488	85.6669	250.488	86.5913	250.488	85.0485	250.488	86.1775	250.488	84.4253	250.488	85.7331	250.488	83.8769	250.488	85.2833	250.488	83.4953	250.488	84.8609	250.488	83.3461	250.488	84.5052	250.488	83.4287	250.488	84.2574	250.488	83.676	250.488	84.1463	250.488	83.9936	250.488	84.1717	250.488	84.2977	250.488	84.2977	250.488	84.5315	250.488	84.4649	250.488	84.6644	250.488	84.611	250.488	84.6874
259.277	88.6651	259.277	88.6094	259.277	88.6353	259.277	88.4688	259.277	88.5173	259.277	88.2418	259.277	88.307	259.277	87.9245	259.277	87.9984	259.277	87.5106	259.277	87.585	259.277	86.993	259.277	87.0611	259.277	86.3681	259.277	86.4264	259.277	85.6444	259.277	85.694	259.277	84.8575	259.277	84.9037	259.277	84.0872	259.277	84.1369	259.277	83.463	259.277	83.5185	259.277	83.123	259.277	83.1765	259.277	83.1231	259.277	83.1607	259.277	83.3867	259.277	83.4007	259.277	83.7621	259.277	83.7565	259.277	84.1107	259.277	84.097	259.277	84.3448	259.277	84.3346	259.277	84.4227
268.066	88.3118	268.066	88.201	268.066	88.3453	268.066	88.0138	268.066	88.3004	268.066	87.7519	268.066	88.1757	268.066	87.4182	268.066	87.9697	268.066	87.0182	268.066	87.6809	268.066	86.5602	268.066	87.3087	268.066	86.0568	268.066	86.854	268.066	85.5264	268.066	86.322	268.066	84.9972	268.066	85.727	268.066	84.5113	268.066	85.1008	268.066	84.1246	268.066	84.5017	268.066	83.8919	268.066	84.0136	268.066	83.8374	268.066	83.7204	268.066	83.9328	268.066	83.6582	268.066	84.1054	268.066	83.7849	268.066	84.271	268.066	84.0037	268.066	84.3629	268.066	84.214	268.066	84.3447
276.855	88.0372	276.855	87.9962	276.855	87.9992	276.855	87.8706	276.855	87.888	276.855	87.6547	276.855	87.709	276.855	87.3425	276.855	87.4662	276.855	86.9282	276.855	87.1601	276.855	86.4091	276.855	86.788	276.855	85.7917	276.855	86.3469	276.855	85.1008	276.855	85.8397	276.855	84.3895	276.855	85.2845	276.855	83.7453	276.855	84.724	276.855	83.276	276.855	84.227	276.855	83.0665	276.855	83.8728	276.855	83.1259	276.855	83.7142	276.855	83.3783	276.855	83.7444	276.855	83.7069	276.855	83.8988	276.855	84.0071	276.855	84.0891	276.855	84.2104	276.855	84.2366	276.855	84.2866
287.109	88.2363	287.109	88.1752	287.109	88.2104	287.109	88.0306	287.109	88.0929	287.109	87.8039	287.109	87.8791	287.109	87.4946	287.109	87.5663	287.109	87.0999	287.109	87.1565	287.109	86.6155	287.109	86.6578	287.109	86.0387	287.109	86.0849	287.109	85.3758	287.109	85.4572	287.109	84.654	287.109	84.7984	287.109	83.9364	287.109	84.1423	287.109	83.3256	287.109	83.5455	287.109	82.9364	287.109	83.0937	287.109	82.8326	287.109	82.8756	287.109	82.9791	287.109	82.9203	287.109	83.2632	287.109	83.1593	287.109	83.5572	287.109	83.463	287.109	83.7616	287.109	83.7085	287.109	83.8175
297.363	88.3886	297.363	88.2636	297.363	88.415	297.363	88.0417	297.363	88.3403	297.363	87.7239	297.363	88.1605	297.363	87.3111	297.363	87.8696	297.363	86.806	297.363	87.458	297.363	86.2161	297.363	86.9124	297.363	85.5568	297.363	86.2181	297.363	84.8545	297.363	85.3668	297.363	84.1495	297.363	84.3744	297.363	83.497	297.363	83.3088	297.363	82.9663	297.363	82.32	297.363	82.6268	297.363	81.6254	297.363	82.5141	297.363	81.3879	297.363	82.5957	297.363	81.5718	297.363	82.7781	297.363	81.9822	297.363	82.9527	297.363	82.4229	297.363	83.0363	297.363	82.7737	297.363	82.9821
307.617	88.1317	307.617	88.0392	307.617	88.1579	307.617	87.8777	307.617	88.1178	307.617	87.6421	307.617	88.0088	307.617	87.3238	307.617	87.8253	307.617	86.9116	307.617	87.5578	307.617	86.3922	307.617	87.1937	307.617	85.7555	307.617	86.7191	307.617	85.0045	307.617	86.1224	307.617	84.1729	307.617	85.4009	307.617	83.3452	307.617	84.5721	307.617	82.6572	307.617	83.6891	307.617	82.2425	307.617	82.8547	307.617	82.1397	307.617	82.2108	307.617	82.2614	307.617	81.8759	307.617	82.4636	307.617	81.8626	307.617	82.6232	307.617	82.0668	307.617	82.6656	307.617	82.3414	307.617	82.5647
319.336	87.6549	319.336	87.592	319.336	87.6451	319.336	87.4524	319.336	87.5675	319.336	87.2317	319.336	87.4285	319.336	86.9239	319.336	87.2353	319.336	86.5202	319.336	86.9942	319.336	86.0092	319.336	86.7081	319.336	85.3786	319.336	86.3733	319.336	84.6214	319.336	85.9791	319.336	83.7496	319.336	85.5114	319.336	82.8209	319.336	84.9637	319.336	81.9703	319.336	84.3546	319.336	81.404	319.336	83.7448	319.336	81.2792	319.336	83.2355	319.336	81.5509	319.336	82.9224	319.336	82.01	319.336	82.8263	319.336	82.454	319.336	82.8711	319.336	82.7701	319.336	82.9379	319.336	82.9249
329.59	87.498	329.59	87.5143	329.59	87.4046	329.59	87.4569	329.59	87.2283	329.59	87.3246	329.59	86.9625	329.59	87.1105	329.59	86.6015	329.59	86.8017	329.59	86.1421	329.59	86.3814	329.59	85.5861	329.59	85.8329	329.59	84.9458	329.59	85.1462	329.59	84.2524	329.59	84.3298	329.59	83.5661	329.59	83.4291	329.59	82.9757	329.59	82.549	329.59	82.5753	329.59	81.8607	329.59	82.417	329.59	81.5401	329.59	82.4798	329.59	81.6358	329.59	82.6836	329.59	82.0181	329.59	82.9294	329.59	82.4868	329.59	83.1283	329.59	82.8867	329.59	83.212	329.59	83.1365
341.309	87.6517	341.309	87.5544	341.309	87.6742	341.309	87.3899	341.309	87.615	341.309	87.164	341.309	87.4686	341.309	86.878	341.309	87.2305	341.309	86.5271	341.309	86.8955	341.309	86.0996	341.309	86.456	341.309	85.5788	341.309	85.9003	341.309	84.9494	341.309	85.2149	341.309	84.21	341.309	84.3921	341.309	83.398	341.309	83.4539	341.309	82.619	341.309	82.493	341.309	82.0496	341.309	81.7107	341.309	81.8507	341.309	81.3547	341.309	82.0247	341.309	81.505	341.309	82.4038	341.309	81.9749	341.309	82.7864	341.309	82.4967	341.309	83.0335	341.309	82.8902	341.309	83.0754
353.027	88.0595	353.027	87.9515	353.027	88.0886	353.027	87.7727	353.027	88.0328	353.027	87.5321	353.027	87.8877	353.027	87.2371	353.027	87.6482	353.027	86.8887	353.027	87.3049	353.027	86.4786	353.027	86.84	353.027	85.991	353.027	86.2258	353.027	85.4088	353.027	85.4292	353.027	84.7262	353.027	84.4268	353.027	83.9643	353.027	83.2394	353.027	83.1901	353.027	81.9964	353.027	82.5307	353.027	81.0033	353.027	82.1451	353.027	80.6354	353.027	82.1211	353.027	80.9596	353.027	82.3827	353.027	81.6456	353.027	82.7373	353.027	82.3325	353.027	82.9981	353.027	82.8229	353.027	83.0449
366.211	87.8239	366.211	87.7049	366.211	87.8602	366.211	87.4944	366.211	87.8256	366.211	87.186	366.211	87.7318	366.211	86.7751	366.211	87.5868	366.211	86.2574	366.211	87.3896	366.211	85.6299	366.211	87.1277	366.211	84.8932	366.211	86.7757	366.211	84.0582	366.211	86.2965	366.211	83.1577	366.211	85.6469	366.211	82.2659	366.211	84.7899	366.211	81.518	366.211	83.7206	366.211	81.087	366.211	82.5187	366.211	81.0748	366.211	81.4273	366.211	81.4054	366.211	80.8342	366.211	81.8746	366.211	80.9402	366.211	82.2818	366.211	81.4858	366.211	82.4898	366.211	82.0616	366.211	82.4221
379.395	87.3746	379.395	87.3272	379.395	87.3331	379.395	87.1943	379.395	87.202	379.395	86.9814	379.395	86.9822	379.395	86.6948	379.395	86.6756	379.395	86.3388	379.395	86.2837	379.395	85.9109	379.395	85.8072	379.395	85.3967	379.395	85.2444	379.395	84.7709	379.395	84.5906	379.395	84.0075	379.395	83.8406	379.395	83.1052	379.395	83.0015	379.395	82.1258	379.395	82.1232	379.395	81.2339	379.395	81.3347	379.395	80.6775	379.395	80.8306	379.395	80.6187	379.395	80.7384	379.395	80.9517	379.395	80.9852	379.395	81.3979	379.395	81.3635	379.395	81.7244	379.395	81.6827	379.395	81.8223
392.578	87.4348	392.578	87.395	392.578	87.4018	392.578	87.2929	392.578	87.2884	392.578	87.1366	392.578	87.0934	392.578	86.926	392.578	86.8228	392.578	86.6487	392.578	86.4854	392.578	86.2789	392.578	86.0852	392.578	85.7815	392.578	85.614	392.578	85.1196	392.578	85.0458	392.578	84.2669	392.578	84.3401	392.578	83.2302	392.578	83.4571	392.578	82.0949	392.578	82.3989	392.578	81.0875	392.578	81.2876	392.578	80.5422	392.578	80.4413	392.578	80.616	392.578	80.2242	392.578	81.0853	392.578	80.622	392.578	81.5995	392.578	81.2458	392.578	81.9341	392.578	81.7534	392.578	81.9939
405.762	87.0372	405.762	86.9276	405.762	87.0821	405.762	86.7633	405.762	87.0618	405.762	86.5667	405.762	86.9777	405.762	86.3661	405.762	86.8236	405.762	86.1766	405.762	86.5822	405.762	85.9801	405.762	86.2283	405.762	85.7219	405.762	85.7376	405.762	85.3311	405.762	85.0948	405.762	84.7498	405.762	84.2957	405.762	83.9549	405.762	83.3483	405.762	82.9762	405.762	82.2803	405.762	81.926	405.762	81.1738	405.762	81.0304	405.762	80.2192	405.762	80.5596	405.762	79.6956	405.762	80.5768	405.762	79.7429	405.762	80.8351	405.762	80.1721	405.762	81.0245	405.762	80.6582	405.762	80.9739
420.41	86.9967	420.41	86.8464	420.41	87.0523	420.41	86.6107	420.41	87.0194	420.41	86.3109	420.41	86.9178	420.41	85.973	420.41	86.772	420.41	85.6177	420.41	86.596	420.41	85.2499	420.41	86.3771	420.41	84.8511	420.41	86.069	420.41	84.382	420.41	85.6013	420.41	83.8025	420.41	84.8964	420.41	83.1058	420.41	83.8882	420.41	82.3521	420.41	82.5452	420.41	81.6764	420.41	80.926	420.41	81.2293	420.41	79.3075	420.41	81.0579	420.41	78.2801	420.41	81.0554	420.41	78.2905	420.41	81.0468	420.41	79.0082	420.41	80.8883	420.41	79.8439	420.41	80.4955
435.059	87.3699	435.059	87.3097	435.059	87.2925	435.059	87.1095	435.059	87.0994	435.059	86.7832	435.059	86.834	435.059	86.3526	435.059	86.5555	435.059	85.836	435.059	86.3226	435.059	85.2339	435.059	86.1605	435.059	84.5201	435.059	86.0291	435.059	83.6524	435.059	85.8285	435.059	82.6077	435.059	85.4438	435.059	81.4371	435.059	84.7949	435.059	80.337	435.059	83.8697	435.059	79.6615	435.059	82.7527	435.059	79.6927	435.059	81.6613	435.059	80.3141	435.059	80.9416	435.059	81.1369	435.059	80.859	435.059	81.8312	435.059	81.294	435.059	82.2142	435.059	81.8549	435.059	82.2138
451.172	88.0928	451.172	88.0202	451.172	88.0244	451.172	87.8343	451.172	87.8055	451.172	87.5795	451.172	87.4409	451.172	87.3025	451.172	86.9449	451.172	87.0285	451.172	86.337	451.172	86.745	451.172	85.6413	451.172	86.4037	451.172	84.8872	451.172	85.931	451.172	84.1023	451.172	85.2392	451.172	83.2896	451.172	84.2388	451.172	82.4124	451.172	82.8767	451.172	81.4366	451.172	81.2558	451.172	80.4615	451.172	79.9025	451.172	79.8529	451.172	79.6844	451.172	80.0185	451.172	80.5706	451.172	80.8271	451.172	81.6596	451.172	81.7521	451.172	82.4013	451.172	82.4146	451.172	82.6518
465.82	88.1276	465.82	87.8667	465.82	88.2111	465.82	87.442	465.82	88.1189	465.82	86.8897	465.82	87.8661	465.82	86.2763	465.82	87.4816	465.82	85.6923	465.82	87.0081	465.82	85.2127	465.82	86.493	465.82	84.8418	465.82	85.9641	465.82	84.4998	465.82	85.3981	465.82	84.0731	465.82	84.709	465.82	83.4687	465.82	83.7688	465.82	82.6401	465.82	82.4468	465.82	81.6148	465.82	80.6742	465.82	80.5741	465.82	78.6499	465.82	79.9218	465.82	77.3157	465.82	79.9966	465.82	77.7654	465.82	80.5616	465.82	79.2078	465.82	81.0496	465.82	80.443	465.82	81.0648
483.398	87.6767	483.398	87.6525	483.398	87.5801	483.398	87.4857	483.398	87.3882	483.398	87.1566	483.398	87.1292	483.398	86.6513	483.398	86.8322	483.398	85.9765	483.398	86.5249	483.398	85.1705	483.398	86.2294	483.398	84.291	483.398	85.9411	483.398	83.3696	483.398	85.605	483.398	82.3795	483.398	85.1179	483.398	81.279	483.398	84.3597	483.398	80.1284	483.398	83.2299	483.398	79.1886	483.398	81.6816	483.398	78.7961	483.398	79.8073	483.398	78.9767	483.398	78.0761	483.398	79.3972	483.398	77.3954	483.398	79.7292	483.398	77.9534	483.398	79.8007	483.398	78.8676	483.398	79.5267
499.512	87.1959	499.512	87.0486	499.512	87.2089	499.512	86.8123	499.512	87.058	499.512	86.5391	499.512	86.7361	499.512	86.2747	499.512	86.2651	499.512	86.0383	499.512	85.6968	499.512	85.8078	499.512	85.1014	499.512	85.5189	499.512	84.5463	499.512	85.0764	499.512	84.0666	499.512	84.3736	499.512	83.6323	499.512	83.3153	499.512	83.1324	499.512	81.8506	499.512	82.4037	499.512	80.0517	499.512	81.3041	499.512	78.3096	499.512	79.8352	499.512	77.4383	499.512	78.3681	499.512	77.781	499.512	77.7039	499.512	78.5951	499.512	78.1019	499.512	79.1705	499.512	78.8251	499.512	79.2507
517.09	87.9456	517.09	87.6448	517.09	88.0026	517.09	87.1301	517.09	87.8214	517.09	86.4477	517.09	87.4469	517.09	85.6469	517.09	86.9505	517.09	84.8027	517.09	86.4146	517.09	84.0635	517.09	85.9178	517.09	83.619	517.09	85.5053	517.09	83.498	517.09	85.1438	517.09	83.4545	517.09	84.7032	517.09	83.1643	517.09	83.9936	517.09	82.4412	517.09	82.8178	517.09	81.3127	517.09	81.0103	517.09	80.063	517.09	78.5333	517.09	79.1673	517.09	75.8997	517.09	78.8683	517.09	74.7841	517.09	78.8692	517.09	75.7298	517.09	78.721	517.09	77.127	517.09	78.165
536.133	88.5569	536.133	88.5665	536.133	88.3776	536.133	88.3827	536.133	88.0381	536.133	87.9791	536.133	87.5438	536.133	87.3468	536.133	86.9162	536.133	86.5006	536.133	86.2058	536.133	85.4627	536.133	85.4872	536.133	84.2521	536.133	84.8414	536.133	82.9371	536.133	84.3282	536.133	81.7228	536.133	83.9467	536.133	80.8292	536.133	83.6004	536.133	80.1562	536.133	83.1119	536.133	79.427	536.133	82.3074	536.133	78.7042	536.133	81.1405	536.133	78.4373	536.133	79.822	536.133	78.7796	536.133	78.8564	536.133	79.3031	536.133	78.6668	536.133	79.5869	536.133	79.0533	536.133	79.4767
555.176	87.6645	555.176	87.5136	555.176	87.6476	555.176	87.2169	555.176	87.4624	555.176	86.8173	555.176	87.1087	555.176	86.3534	555.176	86.573	555.176	85.826	555.176	85.855	555.176	85.1915	555.176	85.0319	555.176	84.3821	555.176	84.2794	555.176	83.3315	555.176	83.7499	555.176	82.015	555.176	83.4174	555.176	80.5576	555.176	83.1307	555.176	79.3468	555.176	82.7431	555.176	78.7985	555.176	82.1199	555.176	78.8428	555.176	81.1748	555.176	79.1439	555.176	80.0849	555.176	79.5563	555.176	79.4498	555.176	80.0153	555.176	79.6393	555.176	80.3685	555.176	80.1529	555.176	80.4429
574.219	87.8881	574.219	87.6926	574.219	87.9552	574.219	87.3904	574.219	87.852	574.219	86.9795	574.219	87.5449	574.219	86.4635	574.219	87.0279	574.219	85.8824	574.219	86.3145	574.219	85.2999	574.219	85.4115	574.219	84.7467	574.219	84.3199	574.219	84.1607	574.219	83.115	574.219	83.3748	574.219	82.0541	574.219	82.17	574.219	81.431	574.219	80.3928	574.219	81.1401	574.219	78.2195	574.219	80.7451	574.219	76.7845	574.219	80.0005	574.219	77.4701	574.219	79.1626	574.219	79.2081	574.219	78.9575	574.219	80.6215	574.219	79.6716	574.219	81.3254	574.219	80.6613	574.219	81.3038
594.727	87.594	594.727	87.3833	594.727	87.6667	594.727	87.0604	594.727	87.6099	594.727	86.6633	594.727	87.44	594.727	86.1976	594.727	87.1443	594.727	85.6376	594.727	86.6844	594.727	84.9815	594.727	86.0523	594.727	84.2764	594.727	85.3243	594.727	83.5455	594.727	84.6089	594.727	82.6904	594.727	83.8605	594.727	81.5252	594.727	82.7999	594.727	79.9537	594.727	81.1093	594.727	78.197	594.727	78.7695	594.727	76.9035	594.727	76.5956	594.727	76.7083	594.727	76.0482	594.727	77.5312	594.727	76.9325	594.727	78.6749	594.727	78.1319	594.727	79.4672	594.727	79.1123	594.727	79.611
615.234	87.6886	615.234	87.5753	615.234	87.6055	615.234	87.2338	615.234	87.3621	615.234	86.6675	615.234	86.9827	615.234	85.9307	615.234	86.4855	615.234	85.1214	615.234	85.8862	615.234	84.3624	615.234	85.198	615.234	83.7493	615.234	84.443	615.234	83.244	615.234	83.6681	615.234	82.6576	615.234	82.9395	615.234	81.7927	615.234	82.3159	615.234	80.553	615.234	81.7759	615.234	78.9662	615.234	81.1479	615.234	77.3399	615.234	80.2361	615.234	76.492	615.234	79.1194	615.234	76.797	615.234	78.2095	615.234	77.4116	615.234	77.7557	615.234	77.7021	615.234	77.6324	615.234	77.6846
637.207	88.7781	637.207	88.5473	637.207	88.7386	637.207	88.0733	637.207	88.4272	637.207	87.4043	637.207	87.8671	637.207	86.597	637.207	87.1151	637.207	85.7046	637.207	86.278	637.207	84.782	637.207	85.4972	637.207	83.9129	637.207	84.8732	637.207	83.2079	637.207	84.3948	637.207	82.6783	637.207	83.9383	637.207	82.0842	637.207	83.2787	637.207	81.0388	637.207	82.1155	637.207	79.309	637.207	80.2024	637.207	77.2813	637.207	77.7047	637.207	76.5961	637.207	76.0393	637.207	77.9224	637.207	76.8163	637.207	79.5465	637.207	78.6371	637.207	80.5377	637.207	80.0662	637.207	80.7195
659.18	87.1239	659.18	86.9169	659.18	87.154	659.18	86.5259	659.18	87.0559	659.18	85.9905	659.18	86.8748	659.18	85.3639	659.18	86.5945	659.18	84.6855	659.18	86.1225	659.18	84.0075	659.18	85.3594	659.18	83.4134	659.18	84.3153	659.18	82.9053	659.18	83.173	659.18	82.2566	659.18	82.1967	659.18	81.1111	659.18	81.4672	659.18	79.2094	659.18	80.7222	659.18	76.5593	659.18	79.5747	659.18	73.8773	659.18	77.8786	659.18	73.1429	659.18	76.1433	659.18	74.8812	659.18	75.6839	659.18	77.0022	659.18	76.755	659.18	78.3603	659.18	78.0546	659.18	78.6968
682.617	87.8832	682.617	87.69	682.617	87.8806	682.617	87.3498	682.617	87.6834	682.617	86.9351	682.617	87.2979	682.617	86.4516	682.617	86.704	682.617	85.8032	682.617	85.917	682.617	84.8918	682.617	85.0972	682.617	83.7802	682.617	84.4833	682.617	82.7753	682.617	84.0633	682.617	82.1378	682.617	83.5203	682.617	81.5868	682.617	82.598	682.617	80.5255	682.617	81.2636	682.617	78.5685	682.617	79.463	682.617	75.8627	682.617	76.8658	682.617	73.9707	682.617	74.0549	682.617	75.0681	682.617	74.9872	682.617	77.4399	682.617	77.7566	682.617	79.1994	682.617	79.4274	682.617	79.8829
707.52	87.5476	707.52	87.5422	707.52	87.3993	707.52	87.391	707.52	87.1118	707.52	87.073	707.52	86.7016	707.52	86.5107	707.52	86.1319	707.52	85.606	707.52	85.3394	707.52	84.2957	707.52	84.3141	707.52	82.6636	707.52	83.1415	707.52	81.1627	707.52	82.0711	707.52	80.3753	707.52	81.5254	707.52	80.073	707.52	81.4744	707.52	79.5616	707.52	81.0967	707.52	78.4494	707.52	79.6779	707.52	76.5419	707.52	77.137	707.52	74.082	707.52	74.4022	707.52	73.1239	707.52	73.6708	707.52	74.5783	707.52	74.9057	707.52	75.993	707.52	76.1086	707.52	76.5085
732.422	87.7794	732.422	87.5725	732.422	87.7945	732.422	87.2253	732.422	87.566	732.422	86.7799	732.422	87.0622	732.422	86.2479	732.422	86.2994	732.422	85.5827	732.422	85.3686	732.422	84.7203	732.422	84.4257	732.422	83.7226	732.422	83.5847	732.422	82.8363	732.422	82.813	732.422	82.1937	732.422	82.0485	732.422	81.5531	732.422	81.4069	732.422	80.5827	732.422	81.0055	732.422	79.0245	732.422	80.4961	732.422	76.4552	732.422	79.2545	732.422	73.1527	732.422	77.0242	732.422	73.6291	732.422	74.6371	732.422	76.2731	732.422	74.1749	732.422	77.2543	732.422	75.4007	732.422	76.7101
757.324	86.8625	757.324	86.5645	757.324	87.1536	757.324	86.2862	757.324	87.3238	757.324	85.9893	757.324	87.22	757.324	85.5509	757.324	86.7602	757.324	84.7711	757.324	85.9923	757.324	83.5454	757.324	85.0251	757.324	82.0959	757.324	83.8532	757.324	81.0139	757.324	82.3894	757.324	80.7278	757.324	80.9781	757.324	80.7995	757.324	80.3872	757.324	80.3535	757.324	80.2144	757.324	78.814	757.324	79.4355	757.324	76.3793	757.324	77.758	757.324	74.8313	757.324	75.1136	757.324	75.0503	757.324	72.1578	757.324	75.7868	757.324	73.0773	757.324	76.6193	757.324	75.7483	757.324	76.881
785.156	87.3367	785.156	87.2253	785.156	87.1257	785.156	86.9465	785.156	86.5664	785.156	86.6011	785.156	85.8344	785.156	86.1675	785.156	85.1871	785.156	85.58	785.156	84.7047	785.156	84.723	785.156	84.1671	785.156	83.4307	785.156	83.2843	785.156	81.6994	785.156	82.0184	785.156	79.8581	785.156	80.7343	785.156	78.2428	785.156	79.7836	785.156	76.8316	785.156	78.6358	785.156	75.9104	785.156	76.426	785.156	75.7941	785.156	73.0847	785.156	75.5067	785.156	70.8265	785.156	74.9507	785.156	73.2309	785.156	75.7074	785.156	76.2304	785.156	77.0387	785.156	77.5635	785.156	77.6926
811.523	87.2525	811.523	87.0364	811.523	87.2154	811.523	86.5957	811.523	86.9807	811.523	85.9753	811.523	86.6943	811.523	85.2164	811.523	86.4663	811.523	84.3773	811.523	86.2279	811.523	83.4729	811.523	85.7525	811.523	82.4156	811.523	84.9609	811.523	81.2781	811.523	84.1696	811.523	80.5836	811.523	83.4356	811.523	80.4078	811.523	82.145	811.523	79.8683	811.523	80.1637	811.523	78.3233	811.523	78.7878	811.523	75.7796	811.523	78.273	811.523	72.8751	811.523	76.7937	811.523	72.4069	811.523	73.9761	811.523	74.8915	811.523	72.6464	811.523	76.5562	811.523	74.6664	811.523	76.4168
840.82	88.1404	840.82	88.174	840.82	87.9222	840.82	87.9694	840.82	87.4823	840.82	87.3959	840.82	86.8139	840.82	86.4434	840.82	85.9324	840.82	85.3544	840.82	84.8396	840.82	84.4302	840.82	83.7366	840.82	83.4965	840.82	82.9244	840.82	81.8077	840.82	82.1596	840.82	78.9247	840.82	80.9678	840.82	76.1148	840.82	79.7372	840.82	75.3233	840.82	79.4976	840.82	74.5989	840.82	79.4731	840.82	73.1841	840.82	78.585	840.82	72.5477	840.82	77.3473	840.82	72.7098	840.82	75.8933	840.82	73.9987	840.82	73.9689	840.82	75.6377	840.82	74.5576	840.82	75.9455
870.117	88.2928	870.117	87.6978	870.117	88.444	870.117	86.8945	870.117	88.167	870.117	86.2586	870.117	87.6333	870.117	85.8924	870.117	86.984	870.117	85.4751	870.117	86.284	870.117	84.7283	870.117	85.5841	870.117	83.5432	870.117	84.8608	870.117	81.9864	870.117	84.1368	870.117	81.6422	870.117	83.4641	870.117	82.797	870.117	82.6128	870.117	82.6064	870.117	81.8635	870.117	80.0738	870.117	81.7329	870.117	76.8155	870.117	81.097	870.117	76.7182	870.117	78.7952	870.117	78.2095	870.117	74.9227	870.117	79.3657	870.117	73.1664	870.117	79.3385	870.117	75.5716	870.117	77.9611
900.879	87.8814	900.879	87.7375	900.879	87.9186	900.879	87.5886	900.879	87.7651	900.879	87.437	900.879	87.3224	900.879	87.0671	900.879	86.4613	900.879	86.2728	900.879	85.108	900.879	85.0753	900.879	83.4392	900.879	83.5464	900.879	82.1021	900.879	81.7529	900.879	81.4323	900.879	79.9924	900.879	80.8053	900.879	78.4587	900.879	80.4825	900.879	77.4245	900.879	81.1733	900.879	76.5257	900.879	80.8293	900.879	73.558	900.879	78.399	900.879	64.1324	900.879	74.7319	900.879	61.0687	900.879	69.8616	900.879	68.959	900.879	69.7881	900.879	73.3806	900.879	75.6948	900.879	76.3712
933.105	88.0887	933.105	88.0349	933.105	88.2019	933.105	87.9594	933.105	88.0616	933.105	87.3688	933.105	87.6291	933.105	86.285	933.105	87.0789	933.105	85.3477	933.105	86.2878	933.105	84.5596	933.105	85.1333	933.105	83.1119	933.105	84.0481	933.105	80.4994	933.105	82.7818	933.105	77.2021	933.105	79.9332	933.105	75.9971	933.105	76.1277	933.105	78.2276	933.105	76.1736	933.105	79.4017	933.105	76.2933	933.105	77.3782	933.105	76.28	933.105	71.8408	933.105	76.8284	933.105	74.1613	933.105	76.2682	933.105	78.7261	933.105	76.4806	933.105	80.9703	933.105	79.1629	933.105	81.1129
965.332	87.9684	965.332	87.5791	965.332	88.1871	965.332	87.063	965.332	88.1115	965.332	86.3897	965.332	87.6951	965.332	85.5324	965.332	87.0671	965.332	84.4908	965.332	86.4194	965.332	83.3006	965.332	85.7495	965.332	82.213	965.332	84.772	965.332	81.9258	965.332	83.4068	965.332	82.1551	965.332	81.9552	965.332	81.8114	965.332	80.4151	965.332	81.2466	965.332	79.4756	965.332	80.5669	965.332	80.6847	965.332	78.3256	965.332	81.1733	965.332	73.9401	965.332	78.4177	965.332	72.7834	965.332	72.4172	965.332	74.6923	965.332	72.3953	965.332	74.8995	965.332	74.9245	965.332	75.4495
1,000.49	87.6448	1,000.49	87.0992	1,000.49	87.7105	1,000.49	86.3944	1,000.49	87.4442	1,000.49	86.0551	1,000.49	86.9002	1,000.49	85.6687	1,000.49	86.1602	1,000.49	84.6416	1,000.49	85.5674	1,000.49	83.0559	1,000.49	85.2407	1,000.49	81.5061	1,000.49	84.8537	1,000.49	80.4608	1,000.49	83.8806	1,000.49	79.5325	1,000.49	81.8706	1,000.49	78.8107	1,000.49	78.9411	1,000.49	78.8312	1,000.49	77.9324	1,000.49	78.2077	1,000.49	78.8279	1,000.49	76.2878	1,000.49	76.7689	1,000.49	75.6101	1,000.49	72.0408	1,000.49	75.6565	1,000.49	70.5272	1,000.49	74.0673	1,000.49	71.4354	1,000.49	73.6498	1,000.49	73.1062	1,000.49	74.2875
1,035.64	88.134	1,035.64	87.8846	1,035.64	88.4602	1,035.64	87.4963	1,035.64	88.3117	1,035.64	86.4632	1,035.64	87.2486	1,035.64	84.8755	1,035.64	85.6716	1,035.64	83.6496	1,035.64	84.3359	1,035.64	83.7539	1,035.64	83.2252	1,035.64	83.7728	1,035.64	82.4131	1,035.64	82.1345	1,035.64	82.1985	1,035.64	79.3548	1,035.64	81.8306	1,035.64	77.61	1,035.64	80.4719	1,035.64	76.9381	1,035.64	77.5096	1,035.64	77.0529	1,035.64	75.7179	1,035.64	77.1579	1,035.64	76.8879	1,035.64	75.2679	1,035.64	74.1689	1,035.64	75.6944	1,035.64	69.8969	1,035.64	79.7345	1,035.64	75.6432	1,035.64	81.1257	1,035.64	77.9855	1,035.64	80.0212
1,072.27	88.1366	1,072.27	87.7091	1,072.27	88.0569	1,072.27	86.9981	1,072.27	87.5702	1,072.27	86.3246	1,072.27	86.8897	1,072.27	85.7073	1,072.27	85.8582	1,072.27	84.9561	1,072.27	84.2721	1,072.27	84.3791	1,072.27	82.4791	1,072.27	83.9737	1,072.27	81.2015	1,072.27	83.1195	1,072.27	80.4005	1,072.27	82.0458	1,072.27	79.4217	1,072.27	80.8015	1,072.27	78.2935	1,072.27	79.0138	1,072.27	77.7322	1,072.27	78.0843	1,072.27	78.7498	1,072.27	76.4217	1,072.27	79.0118	1,072.27	71.2257	1,072.27	76.2625	1,072.27	70.7905	1,072.27	70.1864	1,072.27	74.023	1,072.27	64.2403	1,072.27	71.9004	1,072.27	64.1294	1,072.27	66.5454
1,108.89	87.4887	1,108.89	87.317	1,108.89	87.0981	1,108.89	86.4012	1,108.89	86.8574	1,108.89	85.0514	1,108.89	86.6551	1,108.89	83.6453	1,108.89	85.8046	1,108.89	82.3581	1,108.89	84.6604	1,108.89	81.2776	1,108.89	83.8314	1,108.89	81.2541	1,108.89	82.9219	1,108.89	81.3989	1,108.89	81.538	1,108.89	80.3589	1,108.89	80.4766	1,108.89	79.1846	1,108.89	80.1901	1,108.89	79.0047	1,108.89	80.2694	1,108.89	78.3871	1,108.89	80.5239	1,108.89	75.4559	1,108.89	80.2491	1,108.89	68.8267	1,108.89	77.8786	1,108.89	69.1055	1,108.89	72.3277	1,108.89	74.0203	1,108.89	66.4905	1,108.89	76.2851	1,108.89	73.4144	1,108.89	76.5645
1,148.44	86.8196	1,148.44	86.7805	1,148.44	86.7468	1,148.44	86.3982	1,148.44	86.6648	1,148.44	85.6258	1,148.44	86.3157	1,148.44	84.5709	1,148.44	85.6459	1,148.44	82.8896	1,148.44	85.1371	1,148.44	80.5668	1,148.44	84.3221	1,148.44	79.5454	1,148.44	82.5885	1,148.44	79.129	1,148.44	81.2294	1,148.44	77.7581	1,148.44	80.5586	1,148.44	76.015	1,148.44	79.1117	1,148.44	73.829	1,148.44	77.5574	1,148.44	72.6839	1,148.44	76.2524	1,148.44	73.3898	1,148.44	74.7488	1,148.44	73.5149	1,148.44	73.4565	1,148.44	69.5357	1,148.44	67.4593	1,148.44	73.9551	1,148.44	71.2248	1,148.44	77.0279	1,148.44	76.2254	1,148.44	77.1821
1,189.45	87.4134	1,189.45	86.8208	1,189.45	87.669	1,189.45	86.2488	1,189.45	87.2499	1,189.45	85.1812	1,189.45	86.5366	1,189.45	82.9544	1,189.45	85.4942	1,189.45	80.6174	1,189.45	83.4737	1,189.45	79.4116	1,189.45	80.8857	1,189.45	77.5786	1,189.45	79.8197	1,189.45	76.8277	1,189.45	79.4236	1,189.45	76.7758	1,189.45	78.9919	1,189.45	73.1937	1,189.45	77.1247	1,189.45	72.0473	1,189.45	73.8447	1,189.45	75.019	1,189.45	74.535	1,189.45	75.8454	1,189.45	75.9671	1,189.45	75.2572	1,189.45	75.4376	1,189.45	69.4802	1,189.45	73.1308	1,189.45	70.2225	1,189.45	63.0135	1,189.45	73.8809	1,189.45	70.8785	1,189.45	73.9572
1,230.47	86.4019	1,230.47	86.4483	1,230.47	86.7074	1,230.47	86.4187	1,230.47	86.2627	1,230.47	85.5477	1,230.47	84.8737	1,230.47	84.5869	1,230.47	83.5638	1,230.47	83.5938	1,230.47	82.7961	1,230.47	81.4747	1,230.47	82.0468	1,230.47	80.5856	1,230.47	80.3159	1,230.47	80.497	1,230.47	78.7188	1,230.47	77.7066	1,230.47	78.4358	1,230.47	75.2136	1,230.47	76.2992	1,230.47	74.6149	1,230.47	73.0362	1,230.47	74.3846	1,230.47	72.0506	1,230.47	73.7546	1,230.47	74.7531	1,230.47	74.6307	1,230.47	76.5256	1,230.47	76.2718	1,230.47	72.5178	1,230.47	75.7803	1,230.47	73.086	1,230.47	76.6255	1,230.47	75.6197	1,230.47	76.2326
1,274.41	88.0084	1,274.41	87.5658	1,274.41	87.6275	1,274.41	86.2561	1,274.41	86.6711	1,274.41	84.7402	1,274.41	86.0584	1,274.41	83.6105	1,274.41	85.3238	1,274.41	82.3757	1,274.41	83.338	1,274.41	81.6768	1,274.41	81.105	1,274.41	80.5523	1,274.41	79.2143	1,274.41	79.0075	1,274.41	78.079	1,274.41	79.1896	1,274.41	79.1322	1,274.41	78.8138	1,274.41	76.7251	1,274.41	75.8688	1,274.41	69.8793	1,274.41	74.6176	1,274.41	72.8681	1,274.41	74.4312	1,274.41	74.457	1,274.41	71.2675	1,274.41	75.1397	1,274.41	47.9568	1,274.41	70.3507	1,274.41	73.8054	1,274.41	68.6018	1,274.41	77.8602	1,274.41	76.6482	1,274.41	78.8281
1,319.82	85.1763	1,319.82	85.3405	1,319.82	84.8506	1,319.82	84.3688	1,319.82	85.0654	1,319.82	83.5494	1,319.82	84.7073	1,319.82	83.9365	1,319.82	83.3625	1,319.82	83.6794	1,319.82	83.1389	1,319.82	82.1155	1,319.82	83.555	1,319.82	81.6838	1,319.82	81.6351	1,319.82	81.1883	1,319.82	79.7018	1,319.82	79.6469	1,319.82	79.7563	1,319.82	77.4718	1,319.82	78.7967	1,319.82	75.7768	1,319.82	75.607	1,319.82	77.1183	1,319.82	66.9577	1,319.82	77.4101	1,319.82	70.7697	1,319.82	76.35	1,319.82	74.3777	1,319.82	69.6911	1,319.82	72.5833	1,319.82	69.7505	1,319.82	69.915	1,319.82	70.2531	1,319.82	68.9286	1,319.82	70.2301
1,366.7	87.2021	1,366.7	86.8859	1,366.7	86.7688	1,366.7	85.5289	1,366.7	86.1527	1,366.7	84.5146	1,366.7	85.6009	1,366.7	83.6362	1,366.7	84.6158	1,366.7	81.4192	1,366.7	83.0791	1,366.7	79.5377	1,366.7	82.3519	1,366.7	78.4866	1,366.7	81.2425	1,366.7	77.4706	1,366.7	77.4811	1,366.7	78.7929	1,366.7	77.0616	1,366.7	78.2229	1,366.7	77.7433	1,366.7	75.4102	1,366.7	75.6674	1,366.7	72.9128	1,366.7	73.7581	1,366.7	75.8218	1,366.7	73.6922	1,366.7	74.3724	1,366.7	76.6728	1,366.7	66.8494	1,366.7	76.2039	1,366.7	61.9524	1,366.7	69.2116	1,366.7	58.6387	1,366.7	67.8965	1,366.7	70.9695
1,413.57	86.8691	1,413.57	85.8795	1,413.57	87.2086	1,413.57	85.4929	1,413.57	86.5315	1,413.57	85.1109	1,413.57	85.8018	1,413.57	83.4848	1,413.57	84.5575	1,413.57	82.3801	1,413.57	83.2636	1,413.57	81.2853	1,413.57	83.5205	1,413.57	79.9106	1,413.57	81.0258	1,413.57	78.1012	1,413.57	78.4417	1,413.57	76.113	1,413.57	78.8884	1,413.57	75.5572	1,413.57	78.5048	1,413.57	71.8266	1,413.57	76.8231	1,413.57	70.5108	1,413.57	75.2167	1,413.57	76.2485	1,413.57	76.4302	1,413.57	74.7391	1,413.57	74.518	1,413.57	72.018	1,413.57	75.9843	1,413.57	71.7235	1,413.57	69.1398	1,413.57	64.0643	1,413.57	62.168	1,413.57	64.2939
1,463.38	87.8994	1,463.38	88.3333	1,463.38	87.5209	1,463.38	87.5423	1,463.38	87.5624	1,463.38	86.0942	1,463.38	87.0131	1,463.38	85.1602	1,463.38	85.6104	1,463.38	83.9334	1,463.38	84.2266	1,463.38	83.2708	1,463.38	82.868	1,463.38	83.3726	1,463.38	79.0847	1,463.38	82.3367	1,463.38	77.3292	1,463.38	80.4297	1,463.38	77.3691	1,463.38	79.2985	1,463.38	78.5244	1,463.38	78.6513	1,463.38	79.2074	1,463.38	74.9111	1,463.38	79.7178	1,463.38	75.6081	1,463.38	79.049	1,463.38	72.3298	1,463.38	77.8721	1,463.38	74.9665	1,463.38	77.0244	1,463.38	71.0223	1,463.38	75.5726	1,463.38	71.8221	1,463.38	71.5172	1,463.38	73.8882
1,516.11	87.9941	1,516.11	87.4736	1,516.11	88.3078	1,516.11	87.0999	1,516.11	88.0224	1,516.11	87.171	1,516.11	87.1127	1,516.11	86.1011	1,516.11	85.1313	1,516.11	84.297	1,516.11	84.7236	1,516.11	82.1053	1,516.11	84.8794	1,516.11	81.3533	1,516.11	81.4242	1,516.11	82.6006	1,516.11	80.2192	1,516.11	81.0234	1,516.11	78.5063	1,516.11	78.1466	1,516.11	78.1583	1,516.11	76.2773	1,516.11	78.1008	1,516.11	73.7457	1,516.11	77.3347	1,516.11	74.2472	1,516.11	77.0706	1,516.11	77.6748	1,516.11	76.8339	1,516.11	76.2931	1,516.11	75.983	1,516.11	75.218	1,516.11	61.9916	1,516.11	75.0554	1,516.11	75.2117	1,516.11	74.8685
1,568.85	87.9807	1,568.85	87.7966	1,568.85	87.3268	1,568.85	86.5818	1,568.85	86.835	1,568.85	86.2828	1,568.85	86.0001	1,568.85	85.1756	1,568.85	84.9555	1,568.85	82.7535	1,568.85	83.76	1,568.85	82.5686	1,568.85	83.8085	1,568.85	83.4405	1,568.85	82.4094	1,568.85	80.4342	1,568.85	80.447	1,568.85	79.3535	1,568.85	79.5111	1,568.85	80.7793	1,568.85	78.8102	1,568.85	78.7118	1,568.85	77.982	1,568.85	72.0378	1,568.85	78.5155	1,568.85	75.4625	1,568.85	77.6564	1,568.85	73.7781	1,568.85	73.1667	1,568.85	73.251	1,568.85	72.4383	1,568.85	69.7432	1,568.85	74.7286	1,568.85	72.4348	1,568.85	75.4895	1,568.85	76.2425
1,624.51	87.4343	1,624.51	87.3094	1,624.51	88.3043	1,624.51	86.9417	1,624.51	87.8195	1,624.51	86.4287	1,624.51	86.4175	1,624.51	85.0482	1,624.51	84.9462	1,624.51	82.8566	1,624.51	83.6112	1,624.51	82.8857	1,624.51	83.6233	1,624.51	83.0817	1,624.51	81.9607	1,624.51	80.8175	1,624.51	81.0443	1,624.51	79.4695	1,624.51	79.2033	1,624.51	78.0561	1,624.51	76.5879	1,624.51	75.7652	1,624.51	77.3181	1,624.51	74.3506	1,624.51	76.5829	1,624.51	72.6616	1,624.51	69.9073	1,624.51	73.7652	1,624.51	74.8793	1,624.51	73.2458	1,624.51	76.6004	1,624.51	64.6376	1,624.51	69.535	1,624.51	70.4649	1,624.51	65.0034	1,624.51	67.5845
1,681.64	87.8823	1,681.64	88.0937	1,681.64	87.6806	1,681.64	87.0814	1,681.64	86.9963	1,681.64	86.1932	1,681.64	86.8739	1,681.64	85.4563	1,681.64	86.7221	1,681.64	84.6763	1,681.64	85.165	1,681.64	83.087	1,681.64	84.5739	1,681.64	81.3258	1,681.64	82.9709	1,681.64	78.7242	1,681.64	80.2133	1,681.64	77.3554	1,681.64	79.499	1,681.64	79.2929	1,681.64	77.0712	1,681.64	76.3467	1,681.64	80.0088	1,681.64	69.7534	1,681.64	79.7926	1,681.64	69.4947	1,681.64	77.3725	1,681.64	70.3796	1,681.64	77.6641	1,681.64	72.8034	1,681.64	77.3653	1,681.64	67.0098	1,681.64	75.9496	1,681.64	68.696	1,681.64	75.4949	1,681.64	75.0825
1,741.7	88.6232	1,741.7	88.0981	1,741.7	88.6514	1,741.7	87.7834	1,741.7	88.0915	1,741.7	87.3473	1,741.7	87.548	1,741.7	86.1183	1,741.7	86.8688	1,741.7	84.772	1,741.7	85.7013	1,741.7	83.2823	1,741.7	84.8054	1,741.7	81.541	1,741.7	83.5908	1,741.7	80.1285	1,741.7	81.7807	1,741.7	78.9333	1,741.7	80.4397	1,741.7	77.1059	1,741.7	78.9974	1,741.7	76.6856	1,741.7	77.6797	1,741.7	73.3927	1,741.7	76.2787	1,741.7	73.3389	1,741.7	74.228	1,741.7	75.7094	1,741.7	74.9509	1,741.7	71.6887	1,741.7	78.0862	1,741.7	69.409	1,741.7	75.5935	1,741.7	76.6361	1,741.7	73.1825	1,741.7	76.1571
1,803.22	88.9547	1,803.22	88.7651	1,803.22	88.7293	1,803.22	88.1425	1,803.22	88.5476	1,803.22	87.2413	1,803.22	88.0363	1,803.22	86.238	1,803.22	86.9364	1,803.22	85.5641	1,803.22	85.8708	1,803.22	83.6749	1,803.22	84.5786	1,803.22	82.3704	1,803.22	83.1001	1,803.22	81.2751	1,803.22	81.9562	1,803.22	78.9741	1,803.22	80.8792	1,803.22	77.9452	1,803.22	78.4781	1,803.22	77.0313	1,803.22	77.3573	1,803.22	74.5778	1,803.22	76.1227	1,803.22	75.6525	1,803.22	72.7722	1,803.22	76.4484	1,803.22	77.0455	1,803.22	74.9798	1,803.22	73.215	1,803.22	71.43	1,803.22	72.5423	1,803.22	67.6274	1,803.22	74.6757	1,803.22	74.4749
1,866.21	88.1935	1,866.21	88.0423	1,866.21	87.9691	1,866.21	87.573	1,866.21	87.5943	1,866.21	86.9849	1,866.21	87.0274	1,866.21	86.4502	1,866.21	86.1816	1,866.21	84.595	1,866.21	85.2712	1,866.21	83.6724	1,866.21	84.0023	1,866.21	82.5315	1,866.21	82.9938	1,866.21	80.6309	1,866.21	81.225	1,866.21	79.3909	1,866.21	79.7219	1,866.21	77.4947	1,866.21	77.7945	1,866.21	76.4408	1,866.21	77.2986	1,866.21	74.9946	1,866.21	75.0951	1,866.21	72.8949	1,866.21	73.1999	1,866.21	74.7859	1,866.21	72.1544	1,866.21	73.994	1,866.21	76.5127	1,866.21	69.6148	1,866.21	71.5264	1,866.21	75.3911	1,866.21	66.4205	1,866.21	74.4331
1,932.13	87.1401	1,932.13	86.7533	1,932.13	87.3342	1,932.13	86.3911	1,932.13	86.7616	1,932.13	85.7978	1,932.13	86.3584	1,932.13	84.4996	1,932.13	85.7355	1,932.13	84.3111	1,932.13	84.8236	1,932.13	82.5818	1,932.13	83.5019	1,932.13	80.8075	1,932.13	81.6253	1,932.13	79.8425	1,932.13	79.8621	1,932.13	78.1901	1,932.13	79.4442	1,932.13	76.5348	1,932.13	77.0742	1,932.13	76.6127	1,932.13	75.1513	1,932.13	74.6761	1,932.13	76.4601	1,932.13	73.9163	1,932.13	70.406	1,932.13	75.643	1,932.13	74.3408	1,932.13	72.7227	1,932.13	74.5167	1,932.13	71.1673	1,932.13	74.6824	1,932.13	71.8907	1,932.13	74.8053	1,932.13	76.0367
1,999.51	87.908	1,999.51	87.6363	1,999.51	87.4452	1,999.51	87.1083	1,999.51	87.6009	1,999.51	86.4189	1,999.51	86.876	1,999.51	85.601	1,999.51	86.3064	1,999.51	84.2747	1,999.51	85.4021	1,999.51	82.5443	1,999.51	84.4024	1,999.51	80.5499	1,999.51	82.9641	1,999.51	79.4175	1,999.51	81.388	1,999.51	78.1504	1,999.51	79.011	1,999.51	75.671	1,999.51	78.5109	1,999.51	73.4025	1,999.51	75.4803	1,999.51	73.5732	1,999.51	74.9845	1,999.51	71.1564	1,999.51	73.7736	1,999.51	75.3776	1,999.51	71.7837	1,999.51	71.9634	1,999.51	75.9745	1,999.51	71.3419	1,999.51	68.4531	1,999.51	74.5345	1,999.51	67.0497	1,999.51	71.3925
2,069.82	88.0227	2,069.82	88.1035	2,069.82	88.3843	2,069.82	87.7095	2,069.82	87.6328	2,069.82	87.1819	2,069.82	87.6544	2,069.82	86.346	2,069.82	86.9741	2,069.82	85.2475	2,069.82	86.1755	2,069.82	84.0456	2,069.82	84.8273	2,069.82	82.5879	2,069.82	83.6697	2,069.82	80.3192	2,069.82	82.0186	2,069.82	78.1433	2,069.82	80.2164	2,069.82	77.015	2,069.82	78.9239	2,069.82	77.0336	2,069.82	77.3425	2,069.82	73.793	2,069.82	76.2114	2,069.82	73.6829	2,069.82	74.1973	2,069.82	73.7406	2,069.82	74.7843	2,069.82	74.1739	2,069.82	74.7438	2,069.82	64.0941	2,069.82	75.6092	2,069.82	74.5952	2,069.82	74.9769	2,069.82	77.1307
2,143.07	87.6397	2,143.07	87.3293	2,143.07	87.3453	2,143.07	87.3922	2,143.07	87.7594	2,143.07	87.2016	2,143.07	86.92	2,143.07	86.3501	2,143.07	86.4852	2,143.07	85.4767	2,143.07	85.5395	2,143.07	83.7416	2,143.07	84.4708	2,143.07	81.8004	2,143.07	82.3452	2,143.07	80.4723	2,143.07	80.5167	2,143.07	79.9204	2,143.07	78.9907	2,143.07	77.4472	2,143.07	77.8118	2,143.07	75.6233	2,143.07	75.9696	2,143.07	75.8242	2,143.07	75.1613	2,143.07	70.2832	2,143.07	71.9131	2,143.07	74.3506	2,143.07	70.5618	2,143.07	73.93	2,143.07	74.6268	2,143.07	73.3915	2,143.07	69.793	2,143.07	73.7052	2,143.07	71.6164	2,143.07	74.0685
2,219.24	86.9736	2,219.24	87.1478	2,219.24	87.1421	2,219.24	86.6141	2,219.24	86.5212	2,219.24	85.9454	2,219.24	86.7855	2,219.24	85.2579	2,219.24	86.3742	2,219.24	83.9147	2,219.24	85.3963	2,219.24	83.1634	2,219.24	83.8819	2,219.24	81.4162	2,219.24	82.7275	2,219.24	79.4992	2,219.24	81.1055	2,219.24	76.5375	2,219.24	79.2917	2,219.24	75.6249	2,219.24	77.603	2,219.24	73.4343	2,219.24	74.8562	2,219.24	73.912	2,219.24	74.6977	2,219.24	72.7183	2,219.24	73.5775	2,219.24	75.3213	2,219.24	71.2618	2,219.24	75.4213	2,219.24	73.3133	2,219.24	70.0301	2,219.24	70.5069	2,219.24	73.9571	2,219.24	65.6902	2,219.24	72.9303
2,296.88	86.9878	2,296.88	86.8792	2,296.88	86.9488	2,296.88	87.2868	2,296.88	87.3896	2,296.88	87.3086	2,296.88	87.3208	2,296.88	86.3425	2,296.88	86.8388	2,296.88	85.3631	2,296.88	86.5338	2,296.88	83.205	2,296.88	85.4852	2,296.88	81.5076	2,296.88	83.7306	2,296.88	79.0584	2,296.88	81.6779	2,296.88	77.9837	2,296.88	78.9867	2,296.88	76.9808	2,296.88	78.108	2,296.88	74.9678	2,296.88	77.307	2,296.88	74.5217	2,296.88	74.5214	2,296.88	70.4254	2,296.88	75.1431	2,296.88	71.0898	2,296.88	71.7845	2,296.88	69.2565	2,296.88	74.3633	2,296.88	65.6902	2,296.88	75.12	2,296.88	73.4233	2,296.88	76.3212	2,296.88	76.0549
2,378.91	87.6306	2,378.91	87.7143	2,378.91	87.3442	2,378.91	87.5196	2,378.91	87.3677	2,378.91	87.417	2,378.91	87.3378	2,378.91	86.9697	2,378.91	87.2833	2,378.91	85.5875	2,378.91	86.2593	2,378.91	84.4502	2,378.91	84.7565	2,378.91	82.7664	2,378.91	82.8475	2,378.91	81.4773	2,378.91	81.5348	2,378.91	78.7172	2,378.91	80.3588	2,378.91	76.4946	2,378.91	78.6482	2,378.91	73.9843	2,378.91	75.3441	2,378.91	73.1867	2,378.91	75.1023	2,378.91	71.0228	2,378.91	73.2508	2,378.91	73.7174	2,378.91	71.3903	2,378.91	77.332	2,378.91	74.0397	2,378.91	72.0362	2,378.91	70.4254	2,378.91	73.4466	2,378.91	70.8031	2,378.91	76.1818
2,462.4	85.7224	2,462.4	86.4239	2,462.4	86.4196	2,462.4	87.0268	2,462.4	86.7592	2,462.4	87.2003	2,462.4	87.2591	2,462.4	86.6021	2,462.4	86.7554	2,462.4	85.4669	2,462.4	86.0382	2,462.4	84.1592	2,462.4	84.8812	2,462.4	81.8408	2,462.4	83.4242	2,462.4	79.122	2,462.4	80.9614	2,462.4	77.4491	2,462.4	77.7431	2,462.4	77.429	2,462.4	76.5584	2,462.4	75.4882	2,462.4	77.2779	2,462.4	74.8006	2,462.4	72.2691	2,462.4	74.0692	2,462.4	73.288	2,462.4	72.8516	2,462.4	71.7448	2,462.4	73.9528	2,462.4	72.1563	2,462.4	72.3795	2,462.4	71.0141	2,462.4	73.4152	2,462.4	72.5387	2,462.4	72.0331
2,548.83	86.8665	2,548.83	86.9104	2,548.83	86.4597	2,548.83	87.2049	2,548.83	86.979	2,548.83	87.4774	2,548.83	87.4563	2,548.83	86.8595	2,548.83	87.7645	2,548.83	85.6994	2,548.83	87.1305	2,548.83	83.5716	2,548.83	85.7712	2,548.83	81.9687	2,548.83	83.3988	2,548.83	81.1115	2,548.83	81.7574	2,548.83	78.5756	2,548.83	81.1095	2,548.83	76.2135	2,548.83	77.9224	2,548.83	75.0333	2,548.83	76.2597	2,548.83	74.366	2,548.83	76.04	2,548.83	70.5233	2,548.83	74.109	2,548.83	72.8992	2,548.83	71.1128	2,548.83	71.3899	2,548.83	76.0062	2,548.83	69.923	2,548.83	74.9634	2,548.83	75.3722	2,548.83	70.6972	2,548.83	74.1883
2,639.65	86.1919	2,639.65	86.9692	2,639.65	86.5923	2,639.65	88.2433	2,639.65	87.3494	2,639.65	88.2648	2,639.65	87.721	2,639.65	87.6652	2,639.65	87.5731	2,639.65	86.2232	2,639.65	86.925	2,639.65	85.2439	2,639.65	84.9833	2,639.65	81.8938	2,639.65	84.0898	2,639.65	79.0593	2,639.65	81.0125	2,639.65	77.8062	2,639.65	77.8476	2,639.65	76.6369	2,639.65	77.5349	2,639.65	73.0793	2,639.65	76.924	2,639.65	73.2185	2,639.65	70.2725	2,639.65	74.4532	2,639.65	73.5442	2,639.65	72.3893	2,639.65	72.9628	2,639.65	76.7631	2,639.65	68.396	2,639.65	70.615	2,639.65	73.4536	2,639.65	74.9057	2,639.65	73.283	2,639.65	78.3659
2,731.93	85.8601	2,731.93	86.3194	2,731.93	85.5302	2,731.93	87.1144	2,731.93	86.5751	2,731.93	87.8686	2,731.93	87.7779	2,731.93	87.505	2,731.93	87.8028	2,731.93	86.0677	2,731.93	86.7875	2,731.93	83.7485	2,731.93	85.5482	2,731.93	82.4356	2,731.93	83.1452	2,731.93	81.7562	2,731.93	81.4907	2,731.93	79.0225	2,731.93	80.3515	2,731.93	75.1664	2,731.93	77.0816	2,731.93	76.8729	2,731.93	75.8546	2,731.93	75.0728	2,731.93	76.517	2,731.93	71.7453	2,731.93	72.5969	2,731.93	71.6902	2,731.93	71.9215	2,731.93	72.127	2,731.93	72.6749	2,731.93	73.3486	2,731.93	74.6905	2,731.93	71.4592	2,731.93	75.6327	2,731.93	73.4911
2,828.61	86.7437	2,828.61	87.88	2,828.61	87.1887	2,828.61	88.6993	2,828.61	88.0017	2,828.61	88.9261	2,828.61	88.0788	2,828.61	87.718	2,828.61	88.5511	2,828.61	86.4084	2,828.61	87.9196	2,828.61	84.9187	2,828.61	85.5015	2,828.61	82.1508	2,828.61	84.3332	2,828.61	78.6144	2,828.61	82.0477	2,828.61	76.8936	2,828.61	78.0003	2,828.61	75.5171	2,828.61	78.137	2,828.61	73.7084	2,828.61	75.9007	2,828.61	72.8738	2,828.61	72.8989	2,828.61	74.0577	2,828.61	73.4473	2,828.61	72.1425	2,828.61	71.3188	2,828.61	75.8617	2,828.61	71.1065	2,828.61	71.3487	2,828.61	72.4854	2,828.61	73.0175	2,828.61	73.934	2,828.61	74.1501
2,928.22	86.5394	2,928.22	86.8633	2,928.22	86.1254	2,928.22	88.0101	2,928.22	87.4018	2,928.22	88.2782	2,928.22	88.8707	2,928.22	88.2197	2,928.22	88.4007	2,928.22	86.2757	2,928.22	87.3234	2,928.22	83.7367	2,928.22	85.9212	2,928.22	82.6535	2,928.22	83.3631	2,928.22	81.146	2,928.22	81.8066	2,928.22	77.8296	2,928.22	79.7643	2,928.22	75.7809	2,928.22	76.5305	2,928.22	76.637	2,928.22	76.7611	2,928.22	74.0439	2,928.22	76.6917	2,928.22	72.8106	2,928.22	73.5643	2,928.22	71.4958	2,928.22	74.284	2,928.22	71.8904	2,928.22	71.9701	2,928.22	73.0801	2,928.22	73.4476	2,928.22	75.7424	2,928.22	71.9595	2,928.22	72.4455
3,030.76	85.9646	3,030.76	87.1901	3,030.76	86.617	3,030.76	88.099	3,030.76	87.3734	3,030.76	88.2384	3,030.76	87.5271	3,030.76	87.217	3,030.76	88.109	3,030.76	86.1981	3,030.76	86.7584	3,030.76	84.7115	3,030.76	84.633	3,030.76	81.2778	3,030.76	83.2195	3,030.76	78.1757	3,030.76	81.3232	3,030.76	75.7028	3,030.76	76.9936	3,030.76	75.5698	3,030.76	77.048	3,030.76	72.0747	3,030.76	75.3574	3,030.76	70.742	3,030.76	72.0727	3,030.76	73.2743	3,030.76	72.6605	3,030.76	71.6998	3,030.76	68.878	3,030.76	75.7391	3,030.76	70.7848	3,030.76	72.3975	3,030.76	73.2046	3,030.76	73.2049	3,030.76	69.0342	3,030.76	71.9844
3,137.7	86.9664	3,137.7	87.213	3,137.7	86.228	3,137.7	87.8766	3,137.7	87.4644	3,137.7	88.1291	3,137.7	88.4342	3,137.7	87.5098	3,137.7	87.7281	3,137.7	85.6428	3,137.7	87.2897	3,137.7	83.6184	3,137.7	85.4878	3,137.7	81.3685	3,137.7	83.953	3,137.7	80.9476	3,137.7	80.6069	3,137.7	77.8167	3,137.7	79.5761	3,137.7	75.5344	3,137.7	77.2991	3,137.7	75.2612	3,137.7	76.252	3,137.7	73.7983	3,137.7	73.5241	3,137.7	71.9688	3,137.7	71.5582	3,137.7	71.5426	3,137.7	73.2711	3,137.7	73.8279	3,137.7	71.9116	3,137.7	71.5902	3,137.7	74.9253	3,137.7	75.9528	3,137.7	68.3281	3,137.7	74.8701
3,249.02	85.9489	3,249.02	86.6971	3,249.02	86.5443	3,249.02	88.0683	3,249.02	87.2886	3,249.02	88.398	3,249.02	87.7477	3,249.02	87.2289	3,249.02	87.6757	3,249.02	85.7401	3,249.02	86.4316	3,249.02	83.4119	3,249.02	84.0773	3,249.02	81.8196	3,249.02	81.9104	3,249.02	79.1404	3,249.02	82.4901	3,249.02	75.2807	3,249.02	77.4527	3,249.02	74.8806	3,249.02	76.0402	3,249.02	70.4223	3,249.02	75.7521	3,249.02	73.041	3,249.02	73.1406	3,249.02	72.2476	3,249.02	72.8758	3,249.02	71.0599	3,249.02	67.9473	3,249.02	77.0819	3,249.02	68.4282	3,249.02	70.5257	3,249.02	74.742	3,249.02	72.5114	3,249.02	69.332	3,249.02	73.1938
3,363.28	86.4051	3,363.28	86.8165	3,363.28	86.0078	3,363.28	86.403	3,363.28	85.8413	3,363.28	86.7848	3,363.28	86.5868	3,363.28	86.266	3,363.28	86.7156	3,363.28	85.2532	3,363.28	85.2894	3,363.28	82.9992	3,363.28	84.0507	3,363.28	81.1661	3,363.28	81.843	3,363.28	79.6919	3,363.28	79.5112	3,363.28	76.6648	3,363.28	78.5174	3,363.28	74.9341	3,363.28	76.1898	3,363.28	73.9124	3,363.28	74.4405	3,363.28	72.1811	3,363.28	70.5885	3,363.28	71.1206	3,363.28	72.1271	3,363.28	68.9916	3,363.28	72.0033	3,363.28	72.4299	3,363.28	68.3249	3,363.28	71.6295	3,363.28	75.8661	3,363.28	74.3927	3,363.28	63.254	3,363.28	73.6267
3,481.93	87.7945	3,481.93	87.2418	3,481.93	87.3152	3,481.93	87.806	3,481.93	87.814	3,481.93	87.6575	3,481.93	88.0735	3,481.93	86.9554	3,481.93	86.9019	3,481.93	85.5745	3,481.93	86.9807	3,481.93	83.5957	3,481.93	85.0843	3,481.93	81.9069	3,481.93	83.5677	3,481.93	79.581	3,481.93	81.7935	3,481.93	76.7584	3,481.93	79.371	3,481.93	75.0991	3,481.93	76.6904	3,481.93	73.3179	3,481.93	76.2151	3,481.93	72.8011	3,481.93	72.8269	3,481.93	72.3197	3,481.93	74.003	3,481.93	71.1739	3,481.93	69.2028	3,481.93	75.3227	3,481.93	70.1643	3,481.93	71.9331	3,481.93	74.5386	3,481.93	73.5325	3,481.93	68.3092	3,481.93	71.8937
3,604.98	87.5478	3,604.98	87.611	3,604.98	87.7786	3,604.98	87.4259	3,604.98	86.9057	3,604.98	87.5533	3,604.98	86.6298	3,604.98	86.2827	3,604.98	86.5264	3,604.98	85.8389	3,604.98	85.6548	3,604.98	83.946	3,604.98	84.454	3,604.98	81.8338	3,604.98	82.5343	3,604.98	80.472	3,604.98	81.6397	3,604.98	78.1905	3,604.98	78.4805	3,604.98	75.4759	3,604.98	77.6436	3,604.98	73.9029	3,604.98	74.3931	3,604.98	72.874	3,604.98	71.0419	3,604.98	70.5443	3,604.98	75.6577	3,604.98	70.41	3,604.98	71.1742	3,604.98	71.6777	3,604.98	69.2545	3,604.98	72.4846	3,604.98	74.3805	3,604.98	73.885	3,604.98	65.4344	3,604.98	72.7367
3,732.42	87.2788	3,732.42	86.8242	3,732.42	87.5741	3,732.42	86.3575	3,732.42	86.6351	3,732.42	86.2285	3,732.42	86.6596	3,732.42	85.9962	3,732.42	85.8707	3,732.42	85.3869	3,732.42	85.8883	3,732.42	83.886	3,732.42	84.7598	3,732.42	81.9809	3,732.42	83.4471	3,732.42	79.8159	3,732.42	81.4766	3,732.42	76.9539	3,732.42	78.9819	3,732.42	76.131	3,732.42	76.4339	3,732.42	74.8033	3,732.42	75.4843	3,732.42	73.4116	3,732.42	72.1563	3,732.42	71.0782	3,732.42	73.1403	3,732.42	70.8612	3,732.42	67.961	3,732.42	73.2807	3,732.42	69.2326	3,732.42	72.4552	3,732.42	70.761	3,732.42	71.8661	3,732.42	71.7339	3,732.42	69.78
3,864.26	88.7639	3,864.26	87.8355	3,864.26	88.1648	3,864.26	86.8759	3,864.26	87.3837	3,864.26	86.5319	3,864.26	86.9343	3,864.26	86.7356	3,864.26	86.6785	3,864.26	85.8549	3,864.26	86.4651	3,864.26	84.6928	3,864.26	85.4969	3,864.26	82.2266	3,864.26	83.6579	3,864.26	79.6113	3,864.26	82.4959	3,864.26	76.8092	3,864.26	79.2075	3,864.26	73.8382	3,864.26	77.0631	3,864.26	72.6737	3,864.26	74.2495	3,864.26	72.8655	3,864.26	74.7539	3,864.26	70.7458	3,864.26	73.777	3,864.26	72.8642	3,864.26	70.1458	3,864.26	71.2127	3,864.26	69.0034	3,864.26	72.786	3,864.26	73.9395	3,864.26	70.537	3,864.26	70.9652	3,864.26	67.5667
4,000.49	88.7942	4,000.49	87.8747	4,000.49	88.532	4,000.49	86.652	4,000.49	86.9419	4,000.49	86.283	4,000.49	86.0915	4,000.49	86.1453	4,000.49	86.5401	4,000.49	85.9795	4,000.49	86.086	4,000.49	84.0488	4,000.49	85.5399	4,000.49	82.0604	4,000.49	83.2406	4,000.49	80.0306	4,000.49	81.4519	4,000.49	76.8048	4,000.49	77.9114	4,000.49	75.5942	4,000.49	76.9408	4,000.49	73.0026	4,000.49	75.6729	4,000.49	72.3016	4,000.49	72.4933	4,000.49	70.8895	4,000.49	73.0467	4,000.49	70.0339	4,000.49	71.2268	4,000.49	69.5693	4,000.49	69.8447	4,000.49	73.2751	4,000.49	69.7838	4,000.49	69.5489	4,000.49	72.6387	4,000.49	71.4525
4,141.11	89.4141	4,141.11	88.1758	4,141.11	89.2435	4,141.11	86.5781	4,141.11	87.3971	4,141.11	86.6195	4,141.11	86.063	4,141.11	86.724	4,141.11	86.4894	4,141.11	86.2848	4,141.11	86.5546	4,141.11	84.1614	4,141.11	85.5078	4,141.11	82.3388	4,141.11	83.7252	4,141.11	79.1513	4,141.11	81.1941	4,141.11	76.7046	4,141.11	78.126	4,141.11	74.4961	4,141.11	74.5032	4,141.11	72.7406	4,141.11	75.4497	4,141.11	71.679	4,141.11	71.6306	4,141.11	68.2935	4,141.11	72.8675	4,141.11	70.554	4,141.11	69.7336	4,141.11	68.8391	4,141.11	69.2548	4,141.11	72.9226	4,141.11	71.393	4,141.11	71.2524	4,141.11	71.2053	4,141.11	73.7883
4,287.6	89.5457	4,287.6	87.9498	4,287.6	89.365	4,287.6	86.2627	4,287.6	87.4224	4,287.6	86.2549	4,287.6	86.327	4,287.6	86.4818	4,287.6	86.2621	4,287.6	85.6856	4,287.6	86.5757	4,287.6	83.9437	4,287.6	85.2643	4,287.6	80.8535	4,287.6	83.3096	4,287.6	79.5645	4,287.6	81.0815	4,287.6	76.4548	4,287.6	78.6593	4,287.6	73.7545	4,287.6	76.2876	4,287.6	72.2785	4,287.6	73.4799	4,287.6	70.6234	4,287.6	71.7706	4,287.6	69.7958	4,287.6	72.0245	4,287.6	69.3034	4,287.6	66.7388	4,287.6	69.3305	4,287.6	68.9791	4,287.6	72.8791	4,287.6	70.5803	4,287.6	70.6488	4,287.6	68.2299	4,287.6	70.9344
4,438.48	89.2835	4,438.48	87.7913	4,438.48	89.0967	4,438.48	86.2625	4,438.48	87.1878	4,438.48	86.1033	4,438.48	86.292	4,438.48	86.3675	4,438.48	86.0186	4,438.48	85.3341	4,438.48	86.1032	4,438.48	83.6124	4,438.48	84.5912	4,438.48	80.7097	4,438.48	82.3279	4,438.48	78.5065	4,438.48	80.2491	4,438.48	75.502	4,438.48	77.6764	4,438.48	73.7981	4,438.48	74.5468	4,438.48	70.899	4,438.48	72.1237	4,438.48	69.7002	4,438.48	70.0833	4,438.48	69.1558	4,438.48	68.8067	4,438.48	69.0564	4,438.48	67.0889	4,438.48	67.0184	4,438.48	68.1146	4,438.48	72.8322	4,438.48	68.5566	4,438.48	66.8289	4,438.48	71.4045	4,438.48	64.2821
4,595.21	89.7108	4,595.21	88.1162	4,595.21	89.4867	4,595.21	86.6586	4,595.21	87.522	4,595.21	86.3569	4,595.21	86.6093	4,595.21	86.3458	4,595.21	86.422	4,595.21	85.5148	4,595.21	85.859	4,595.21	83.3781	4,595.21	84.1478	4,595.21	81.15	4,595.21	82.1376	4,595.21	78.0669	4,595.21	80.2013	4,595.21	75.3315	4,595.21	76.863	4,595.21	72.3075	4,595.21	74.6358	4,595.21	71.0733	4,595.21	73.9886	4,595.21	69.4675	4,595.21	70.3866	4,595.21	67.9306	4,595.21	71.1387	4,595.21	68.7853	4,595.21	68.6936	4,595.21	67.4861	4,595.21	68.0176	4,595.21	70.9278	4,595.21	69.1364	4,595.21	69.2823	4,595.21	71.7944	4,595.21	71.972
4,756.35	89.2061	4,756.35	87.7467	4,756.35	89.122	4,756.35	86.1319	4,756.35	87.4554	4,756.35	85.961	4,756.35	86.2864	4,756.35	85.7921	4,756.35	85.8471	4,756.35	84.3972	4,756.35	85.2209	4,756.35	82.5193	4,756.35	83.493	4,756.35	79.9218	4,756.35	81.0332	4,756.35	77.0561	4,756.35	78.6387	4,756.35	74.3935	4,756.35	75.0513	4,756.35	72.8244	4,756.35	72.9513	4,756.35	70.9072	4,756.35	71.9119	4,756.35	68.1562	4,756.35	70.8262	4,756.35	68.0112	4,756.35	68.3321	4,756.35	66.2308	4,756.35	64.8057	4,756.35	66.8725	4,756.35	66.3979	4,756.35	71.4111	4,756.35	67.9916	4,756.35	67.273	4,756.35	68.6396	4,756.35	68.47
4,924.8	89.8247	4,924.8	88.5016	4,924.8	89.5966	4,924.8	87.0875	4,924.8	88.0008	4,924.8	86.688	4,924.8	86.9959	4,924.8	86.2461	4,924.8	86.3819	4,924.8	85.0739	4,924.8	85.3883	4,924.8	82.7752	4,924.8	83.8898	4,924.8	80.3361	4,924.8	81.8463	4,924.8	78.2931	4,924.8	79.1265	4,924.8	75.091	4,924.8	76.225	4,924.8	73.4444	4,924.8	74.1067	4,924.8	71.397	4,924.8	72.5618	4,924.8	69.8369	4,924.8	68.6855	4,924.8	67.1335	4,924.8	68.3343	4,924.8	63.8897	4,924.8	69.8061	4,924.8	66.2391	4,924.8	67.2275	4,924.8	72.3102	4,924.8	67.5818	4,924.8	66.895	4,924.8	72.9448	4,924.8	69.6052
5,097.66	89.1893	5,097.66	87.9112	5,097.66	89.0438	5,097.66	86.6477	5,097.66	87.802	5,097.66	86.0141	5,097.66	86.5394	5,097.66	85.6573	5,097.66	85.9595	5,097.66	84.3099	5,097.66	84.8886	5,097.66	81.8884	5,097.66	83.6323	5,097.66	80.3015	5,097.66	81.8009	5,097.66	77.2658	5,097.66	79.0974	5,097.66	74.6515	5,097.66	76.5122	5,097.66	71.5906	5,097.66	74.3156	5,097.66	69.7793	5,097.66	72.9569	5,097.66	69.0275	5,097.66	69.372	5,097.66	67.0375	5,097.66	71.2625	5,097.66	64.2386	5,097.66	63.4332	5,097.66	68.0788	5,097.66	63.7973	5,097.66	71.506	5,097.66	67.3031	5,097.66	67.5956	5,097.66	68.3095	5,097.66	69.3993
5,277.83	88.6544	5,277.83	87.8446	5,277.83	88.5665	5,277.83	86.8983	5,277.83	87.4722	5,277.83	86.0243	5,277.83	86.6036	5,277.83	85.694	5,277.83	85.6226	5,277.83	84.563	5,277.83	84.7112	5,277.83	82.9418	5,277.83	83.7683	5,277.83	81.195	5,277.83	82.1764	5,277.83	78.3366	5,277.83	79.852	5,277.83	76.5151	5,277.83	77.3992	5,277.83	74.5525	5,277.83	74.016	5,277.83	71.4736	5,277.83	72.0502	5,277.83	69.8751	5,277.83	69.7879	5,277.83	66.9258	5,277.83	66.6445	5,277.83	63.7177	5,277.83	65.1976	5,277.83	65.2448	5,277.83	63.7862	5,277.83	70.5666	5,277.83	67.4242	5,277.83	68.4781	5,277.83	72.449	5,277.83	68.8499
5,463.87	87.9283	5,463.87	87.5513	5,463.87	87.9794	5,463.87	86.8171	5,463.87	87.3633	5,463.87	86.2134	5,463.87	86.3953	5,463.87	85.521	5,463.87	85.5905	5,463.87	85.2126	5,463.87	85.2648	5,463.87	83.2834	5,463.87	84.1507	5,463.87	81.3057	5,463.87	82.3376	5,463.87	78.3115	5,463.87	80.0097	5,463.87	75.1272	5,463.87	76.4024	5,463.87	71.0712	5,463.87	74.4058	5,463.87	70.6044	5,463.87	72.4773	5,463.87	67.7014	5,463.87	70.639	5,463.87	66.1624	5,463.87	67.7445	5,463.87	61.5189	5,463.87	64.3886	5,463.87	63.9007	5,463.87	64.4801	5,463.87	69.6144	5,463.87	63.4863	5,463.87	65.7715	5,463.87	70.7148	5,463.87	65.6068
5,657.23	87.6473	5,657.23	87.8042	5,657.23	87.6231	5,657.23	87.3443	5,657.23	88.0154	5,657.23	85.9564	5,657.23	87.1936	5,657.23	85.9286	5,657.23	86.2888	5,657.23	84.6735	5,657.23	85.5961	5,657.23	83.0032	5,657.23	84.5212	5,657.23	80.3981	5,657.23	82.8897	5,657.23	77.681	5,657.23	79.8949	5,657.23	75.2296	5,657.23	76.7875	5,657.23	73.087	5,657.23	74.0311	5,657.23	70.1209	5,657.23	72.7276	5,657.23	67.2293	5,657.23	70.5483	5,657.23	68.1176	5,657.23	67.6416	5,657.23	60.1734	5,657.23	65.9106	5,657.23	65.9542	5,657.23	67.1622	5,657.23	69.286	5,657.23	66.1336	5,657.23	66.442	5,657.23	70.3156	5,657.23	66.5003
5,856.45	86.957	5,856.45	87.8274	5,856.45	87.4094	5,856.45	87.4182	5,856.45	87.9034	5,856.45	86.0708	5,856.45	87.4188	5,856.45	85.743	5,856.45	85.8913	5,856.45	84.7695	5,856.45	85.5423	5,856.45	82.859	5,856.45	84.5278	5,856.45	80.3121	5,856.45	82.2414	5,856.45	77.2312	5,856.45	79.2753	5,856.45	74.508	5,856.45	75.5766	5,856.45	71.5696	5,856.45	73.3453	5,856.45	69.7512	5,856.45	71.2744	5,856.45	67.3952	5,856.45	69.006	5,856.45	63.5059	5,856.45	65.3428	5,856.45	59.3379	5,856.45	62.3753	5,856.45	62.8969	5,856.45	61.7419	5,856.45	66.6468	5,856.45	63.4979	5,856.45	66.1499	5,856.45	70.9002	5,856.45	65.6206
6,062.99	86.7017	6,062.99	87.6334	6,062.99	87.4417	6,062.99	87.2857	6,062.99	87.7185	6,062.99	86.1852	6,062.99	86.9736	6,062.99	85.5568	6,062.99	85.7103	6,062.99	84.9246	6,062.99	85.2198	6,062.99	82.7537	6,062.99	83.534	6,062.99	79.7152	6,062.99	81.1249	6,062.99	76.9292	6,062.99	78.4257	6,062.99	73.948	6,062.99	74.563	6,062.99	70.2565	6,062.99	72.7686	6,062.99	69.2421	6,062.99	69.8746	6,062.99	66.9092	6,062.99	67.8552	6,062.99	62.1648	6,062.99	65.9703	6,062.99	60.7505	6,062.99	63.5873	6,062.99	61.8818	6,062.99	57.6716	6,062.99	67.8097	6,062.99	58.5907	6,062.99	64.4364	6,062.99	69.0381	6,062.99	63.7751
6,276.86	87.1461	6,276.86	88.1584	6,276.86	87.4552	6,276.86	87.6483	6,276.86	88.2739	6,276.86	86.4071	6,276.86	87.2739	6,276.86	86.028	6,276.86	86.2788	6,276.86	84.7643	6,276.86	85.3402	6,276.86	82.2962	6,276.86	83.7479	6,276.86	79.8028	6,276.86	81.5519	6,276.86	75.9753	6,276.86	78.1373	6,276.86	73.4077	6,276.86	74.8707	6,276.86	69.9347	6,276.86	71.9421	6,276.86	68.242	6,276.86	70.4767	6,276.86	66.0134	6,276.86	67.1917	6,276.86	66.386	6,276.86	64.5696	6,276.86	62.1926	6,276.86	62.8865	6,276.86	61.6926	6,276.86	57.7623	6,276.86	68.5496	6,276.86	62.6543	6,276.86	63.1289	6,276.86	67.7978	6,276.86	63.1153
6,498.05	86.5901	6,498.05	87.749	6,498.05	87.1081	6,498.05	87.3116	6,498.05	88.1241	6,498.05	85.9627	6,498.05	87.0803	6,498.05	85.4518	6,498.05	85.9961	6,498.05	83.9801	6,498.05	84.9577	6,498.05	81.7117	6,498.05	83.137	6,498.05	79.7306	6,498.05	80.8568	6,498.05	76.0626	6,498.05	77.7907	6,498.05	73.9398	6,498.05	75.0767	6,498.05	70.3374	6,498.05	72.1782	6,498.05	69.2121	6,498.05	70.5543	6,498.05	67.2989	6,498.05	67.4417	6,498.05	67.5132	6,498.05	64.4545	6,498.05	61.4682	6,498.05	64.6723	6,498.05	59.8443	6,498.05	61.2442	6,498.05	67.9706	6,498.05	63.9226	6,498.05	62.4395	6,498.05	66.8031	6,498.05	64.5246
6,726.56	86.3273	6,726.56	87.2044	6,726.56	87.0765	6,726.56	87.0731	6,726.56	87.3961	6,726.56	85.6172	6,726.56	86.6171	6,726.56	84.9875	6,726.56	85.7154	6,726.56	83.6496	6,726.56	84.7124	6,726.56	81.4158	6,726.56	82.612	6,726.56	79.4213	6,726.56	80.5569	6,726.56	76.1663	6,726.56	78.3745	6,726.56	74.0223	6,726.56	75.2507	6,726.56	71.4099	6,726.56	71.8873	6,726.56	69.1736	6,726.56	70.9259	6,726.56	67.5721	6,726.56	65.5765	6,726.56	67.0081	6,726.56	64.3674	6,726.56	57.5298	6,726.56	63.4832	6,726.56	60.0153	6,726.56	62.5063	6,726.56	67.1088	6,726.56	61.7546	6,726.56	60.0831	6,726.56	65.126	6,726.56	63.2399
6,963.87	86.7796	6,963.87	87.0216	6,963.87	86.9744	6,963.87	86.8765	6,963.87	87.3725	6,963.87	85.8029	6,963.87	86.8497	6,963.87	85.2452	6,963.87	85.6395	6,963.87	83.9004	6,963.87	84.3648	6,963.87	81.9569	6,963.87	82.8406	6,963.87	79.7047	6,963.87	81.506	6,963.87	76.607	6,963.87	78.4349	6,963.87	73.179	6,963.87	75.5622	6,963.87	71.3186	6,963.87	71.9133	6,963.87	68.9346	6,963.87	71.4479	6,963.87	66.3983	6,963.87	66.601	6,963.87	66.5716	6,963.87	64.2968	6,963.87	56.3365	6,963.87	65.1617	6,963.87	55.7662	6,963.87	61.1097	6,963.87	65.1213	6,963.87	58.4363	6,963.87	61.6417	6,963.87	64.5209	6,963.87	62.1829
7,209.96	86.703	7,209.96	86.7636	7,209.96	87.0646	7,209.96	86.6928	7,209.96	86.9898	7,209.96	85.635	7,209.96	86.7063	7,209.96	84.442	7,209.96	85.1075	7,209.96	83.3975	7,209.96	83.8228	7,209.96	81.8436	7,209.96	83.2925	7,209.96	78.9731	7,209.96	81.8775	7,209.96	76.7582	7,209.96	78.3831	7,209.96	72.46	7,209.96	75.4226	7,209.96	70.4022	7,209.96	72.3786	7,209.96	68.1344	7,209.96	70.2653	7,209.96	68.1242	7,209.96	65.2798	7,209.96	65.4783	7,209.96	65.6354	7,209.96	55.6971	7,209.96	62.5037	7,209.96	59.2245	7,209.96	56.589	7,209.96	63.9668	7,209.96	55.4467	7,209.96	59.0289	7,209.96	63.7789	7,209.96	63.7536
7,464.84	87.0742	7,464.84	86.3489	7,464.84	86.9382	7,464.84	86.3661	7,464.84	86.8134	7,464.84	85.1761	7,464.84	86.3654	7,464.84	83.8118	7,464.84	85.0697	7,464.84	83.2007	7,464.84	83.8768	7,464.84	81.5418	7,464.84	82.9424	7,464.84	78.554	7,464.84	80.886	7,464.84	75.2425	7,464.84	77.4434	7,464.84	71.1674	7,464.84	73.9739	7,464.84	68.9545	7,464.84	71.3769	7,464.84	67.4865	7,464.84	68.5855	7,464.84	66.4216	7,464.84	67.3981	7,464.84	62.845	7,464.84	63.8039	7,464.84	57.4514	7,464.84	62.7237	7,464.84	51.3616	7,464.84	61.8809	7,464.84	59.1091	7,464.84	49.0881	7,464.84	62.2279	7,464.84	64.0342	7,464.84	61.0149
7,727.05	86.9831	7,727.05	86.2426	7,727.05	86.8326	7,727.05	86.4317	7,727.05	86.6765	7,727.05	84.8959	7,727.05	86.4897	7,727.05	84.0472	7,727.05	85.0273	7,727.05	82.8006	7,727.05	83.8739	7,727.05	80.8271	7,727.05	82.496	7,727.05	77.9891	7,727.05	80.4206	7,727.05	74.4459	7,727.05	77.1386	7,727.05	70.7474	7,727.05	72.8706	7,727.05	68.9022	7,727.05	70.0595	7,727.05	67.7115	7,727.05	67.945	7,727.05	65.2254	7,727.05	66.4529	7,727.05	59.6449	7,727.05	64.6247	7,727.05	59.7863	7,727.05	61.3944	7,727.05	55.8656	7,727.05	61.7272	7,727.05	56.3128	7,727.05	61.3013	7,727.05	56.9154	7,727.05	59.4892	7,727.05	61.4211
7,999.51	86.7905	7,999.51	86.1057	7,999.51	86.6545	7,999.51	86.6022	7,999.51	86.5956	7,999.51	84.7816	7,999.51	86.4283	7,999.51	83.6518	7,999.51	84.769	7,999.51	82.3257	7,999.51	83.9736	7,999.51	80.1338	7,999.51	81.8964	7,999.51	77.4197	7,999.51	79.5191	7,999.51	72.8147	7,999.51	76.7799	7,999.51	70.5575	7,999.51	72.3022	7,999.51	67.0711	7,999.51	69.6916	7,999.51	63.3605	7,999.51	68.8028	7,999.51	65.1244	7,999.51	62.2685	7,999.51	61.0169	7,999.51	62.6837	7,999.51	58.1554	7,999.51	62.995	7,999.51	56.7554	7,999.51	58.8996	7,999.51	59.7554	7,999.51	59.7098	7,999.51	46.561	7,999.51	58.697	7,999.51	59.3407
8,282.23	86.8373	8,282.23	86.1911	8,282.23	86.5534	8,282.23	86.0767	8,282.23	86.4662	8,282.23	84.1232	8,282.23	85.9758	8,282.23	83.1566	8,282.23	84.4289	8,282.23	81.8057	8,282.23	83.1483	8,282.23	79.1281	8,282.23	81.7174	8,282.23	76.2334	8,282.23	79.2867	8,282.23	73.0595	8,282.23	75.4889	8,282.23	68.8829	8,282.23	71.7097	8,282.23	67.1145	8,282.23	69.5874	8,282.23	65.6447	8,282.23	66.357	8,282.23	63.2774	8,282.23	64.7408	8,282.23	60.5022	8,282.23	60.7516	8,282.23	57.3458	8,282.23	60.8476	8,282.23	43.1342	8,282.23	63.0838	8,282.23	56.5141	8,282.23	53.7189	8,282.23	60.8635	8,282.23	62.4507	8,282.23	59.8619
8,573.73	86.7498	8,573.73	85.8876	8,573.73	86.7837	8,573.73	85.5788	8,573.73	86.002	8,573.73	83.798	8,573.73	85.3512	8,573.73	82.4457	8,573.73	84.111	8,573.73	81.1079	8,573.73	82.655	8,573.73	78.0434	8,573.73	80.9935	8,573.73	74.5814	8,573.73	78.3834	8,573.73	70.1928	8,573.73	75.1277	8,573.73	68.4167	8,573.73	70.6898	8,573.73	63.4672	8,573.73	67.4123	8,573.73	60.4503	8,573.73	65.6919	8,573.73	62.7385	8,573.73	62.4169	8,573.73	59.6146	8,573.73	64.8308	8,573.73	53.6281	8,573.73	63.7884	8,573.73	53.5977	8,573.73	56.8309	8,573.73	54.7952	8,573.73	57.3679	8,573.73	49.1348	8,573.73	55.5346	8,573.73	52.6906
8,876.95	86.802	8,876.95	86.1316	8,876.95	86.6699	8,876.95	85.3862	8,876.95	86.2698	8,876.95	83.9395	8,876.95	85.5252	8,876.95	82.5038	8,876.95	84.5061	8,876.95	80.5355	8,876.95	82.4462	8,876.95	77.33	8,876.95	80.5287	8,876.95	73.234	8,876.95	77.9618	8,876.95	70.1263	8,876.95	74.5635	8,876.95	66.0588	8,876.95	70.136	8,876.95	64.3475	8,876.95	66.5697	8,876.95	62.677	8,876.95	62.8502	8,876.95	59.7501	8,876.95	64.2868	8,876.95	59.1507	8,876.95	57.1545	8,876.95	57.7476	8,876.95	58.8726	8,876.95	51.4664	8,876.95	59.5066	8,876.95	56.7443	8,876.95	57.6588	8,876.95	60.8694	8,876.95	59.4659	8,876.95	58.4201
9,188.96	87.1327	9,188.96	86.5193	9,188.96	87.2438	9,188.96	85.8985	9,188.96	86.7098	9,188.96	84.4827	9,188.96	86.0484	9,188.96	82.7524	9,188.96	84.5948	9,188.96	80.2177	9,188.96	82.3812	9,188.96	77.4281	9,188.96	80.3549	9,188.96	74.426	9,188.96	78.0413	9,188.96	69.3372	9,188.96	74.157	9,188.96	66.1409	9,188.96	70.5593	9,188.96	60.8243	9,188.96	66.3565	9,188.96	63.9809	9,188.96	65.2296	9,188.96	60.975	9,188.96	62.965	9,188.96	50.8116	9,188.96	59.2705	9,188.96	59.9234	9,188.96	62.3812	9,188.96	59.951	9,188.96	57.4633	9,188.96	54.1262	9,188.96	45.4831	9,188.96	51.1308	9,188.96	60.4434	9,188.96	56.1509
9,514.16	87.6683	9,514.16	86.7502	9,514.16	87.7966	9,514.16	86.0692	9,514.16	86.7949	9,514.16	84.8008	9,514.16	86.1257	9,514.16	82.6067	9,514.16	84.5336	9,514.16	80.031	9,514.16	82.2595	9,514.16	77.1601	9,514.16	80.6037	9,514.16	73.8134	9,514.16	77.6398	9,514.16	70.0839	9,514.16	73.6822	9,514.16	65.4336	9,514.16	70.1269	9,514.16	64.4699	9,514.16	66.3331	9,514.16	60.8836	9,514.16	65.1234	9,514.16	58.1597	9,514.16	60.6593	9,514.16	59.0066	9,514.16	61.6439	9,514.16	55.6361	9,514.16	60.3687	9,514.16	46.4172	9,514.16	60.7048	9,514.16	53.6751	9,514.16	57.6864	9,514.16	49.5924	9,514.16	54.8613	9,514.16	49.3392
9,849.61	87.8899	9,849.61	86.8272	9,849.61	88.0954	9,849.61	85.9993	9,849.61	86.8039	9,849.61	84.9524	9,849.61	86.2231	9,849.61	82.3925	9,849.61	84.5576	9,849.61	79.7935	9,849.61	82.0877	9,849.61	76.9277	9,849.61	80.0797	9,849.61	73.4916	9,849.61	76.8397	9,849.61	69.4983	9,849.61	74.7364	9,849.61	66.3092	9,849.61	69.902	9,849.61	63.7509	9,849.61	67.6296	9,849.61	58.4228	9,849.61	63.4397	9,849.61	61.433	9,849.61	60.4213	9,849.61	60.4055	9,849.61	61.7961	9,849.61	51.6815	9,849.61	61.479	9,849.61	37.5597	9,849.61	57.0162	9,849.61	50.0514	9,849.61	53.5822	9,849.61	47.5982	9,849.61	52.3	9,849.61	50.7909
10,196.8	87.8523	10,196.8	86.8878	10,196.8	88.1341	10,196.8	86.0916	10,196.8	86.9197	10,196.8	84.6035	10,196.8	86.3508	10,196.8	81.9533	10,196.8	84.4081	10,196.8	79.3423	10,196.8	81.9839	10,196.8	76.8874	10,196.8	80.0056	10,196.8	73.8768	10,196.8	77.6516	10,196.8	70.388	10,196.8	74.5414	10,196.8	67.613	10,196.8	71.2286	10,196.8	64.7589	10,196.8	67.0129	10,196.8	62.2538	10,196.8	64.836	10,196.8	60.6792	10,196.8	61.4071	10,196.8	57.1702	10,196.8	58.9952	10,196.8	54.5211	10,196.8	59.0829	10,196.8	52.758	10,196.8	60.4025	10,196.8	52.2368	10,196.8	58.3622	10,196.8	53.4109	10,196.8	46.7633	10,196.8	48.075
10,555.7	87.8604	10,555.7	86.8733	10,555.7	88.1377	10,555.7	86.1317	10,555.7	86.9846	10,555.7	84.3727	10,555.7	86.2738	10,555.7	82.0514	10,555.7	84.1409	10,555.7	79.1656	10,555.7	81.4113	10,555.7	77.3718	10,555.7	79.7113	10,555.7	75.0968	10,555.7	77.7559	10,555.7	70.5031	10,555.7	74.6664	10,555.7	66.9853	10,555.7	71.3723	10,555.7	63.8863	10,555.7	66.7269	10,555.7	61.7853	10,555.7	64.2155	10,555.7	59.5511	10,555.7	62.1092	10,555.7	52.8808	10,555.7	59.6539	10,555.7	54.8912	10,555.7	57.2739	10,555.7	45.8806	10,555.7	56.7133	10,555.7	49.9825	10,555.7	55.1201	10,555.7	49.5692	10,555.7	50.5756	10,555.7	44.5147
10,927.7	87.9224	10,927.7	87.1227	10,927.7	88.0926	10,927.7	86.2468	10,927.7	87.0115	10,927.7	84.0788	10,927.7	86.049	10,927.7	81.5263	10,927.7	83.9237	10,927.7	78.8507	10,927.7	80.7434	10,927.7	77.001	10,927.7	79.3743	10,927.7	74.854	10,927.7	77.847	10,927.7	70.2626	10,927.7	74.5161	10,927.7	65.7088	10,927.7	70.801	10,927.7	65.0696	10,927.7	67.2049	10,927.7	61.0589	10,927.7	64.0122	10,927.7	56.9559	10,927.7	60.2513	10,927.7	53.865	10,927.7	60.9695	10,927.7	56.6905	10,927.7	56.4118	10,927.7	48.7807	10,927.7	56.5516	10,927.7	50.0791	10,927.7	56.6352	10,927.7	51.274	10,927.7	45.3668	10,927.7	43.6464
11,313	87.9373	11,313	87.1861	11,313	88.1186	11,313	86.1142	11,313	87.2003	11,313	83.8925	11,313	85.8757	11,313	80.9808	11,313	83.9201	11,313	78.5192	11,313	80.8395	11,313	76.7542	11,313	79.366	11,313	74.1781	11,313	77.6681	11,313	70.6161	11,313	74.3739	11,313	66.5068	11,313	70.7116	11,313	64.2976	11,313	66.9654	11,313	60.0503	11,313	63.2573	11,313	59.2539	11,313	62.1038	11,313	57.5243	11,313	61.3791	11,313	57.7719	11,313	59.0668	11,313	47.5301	11,313	53.1544	11,313	53.3593	11,313	43.2271	11,313	56.1962	11,313	56.6109	11,313	34.7747
11,712.9	87.9577	11,712.9	87.1133	11,712.9	88.0885	11,712.9	86.1767	11,712.9	87.3053	11,712.9	83.5217	11,712.9	85.7914	11,712.9	80.4564	11,712.9	83.9405	11,712.9	78.7046	11,712.9	80.7591	11,712.9	76.5612	11,712.9	79.4292	11,712.9	73.9498	11,712.9	78.1108	11,712.9	70.8789	11,712.9	74.3587	11,712.9	66.2041	11,712.9	71.2075	11,712.9	64.4753	11,712.9	67.4077	11,712.9	59.129	11,712.9	64.3672	11,712.9	58.2115	11,712.9	62.6964	11,712.9	55.6993	11,712.9	55.8943	11,712.9	47.4265	11,712.9	57.5423	11,712.9	43.8666	11,712.9	52.2077	11,712.9	50.7596	11,712.9	59.843	11,712.9	56.9348	11,712.9	52.8997	11,712.9	49.6894
12,126	87.9743	12,126	87.2738	12,126	88.2042	12,126	85.9502	12,126	87.258	12,126	83.2016	12,126	85.6592	12,126	80.4239	12,126	83.5028	12,126	78.5301	12,126	80.8792	12,126	77.0541	12,126	79.4198	12,126	74.0552	12,126	78.3512	12,126	70.6227	12,126	74.6856	12,126	65.9222	12,126	70.5575	12,126	64.1031	12,126	67.2935	12,126	60.9133	12,126	63.4398	12,126	59.21	12,126	62.1968	12,126	54.6175	12,126	59.4312	12,126	57.8214	12,126	56.9639	12,126	47.0893	12,126	51.5508	12,126	47.3862	12,126	48.2455	12,126	50.2911	12,126	55.1335	12,126	47.2915
12,553.7	87.8203	12,553.7	87.0501	12,553.7	88.0485	12,553.7	85.427	12,553.7	87.234	12,553.7	82.7257	12,553.7	85.4364	12,553.7	80.507	12,553.7	83.4369	12,553.7	78.3736	12,553.7	81.3184	12,553.7	77.0524	12,553.7	79.1022	12,553.7	73.9339	12,553.7	77.6376	12,553.7	69.4087	12,553.7	74.4705	12,553.7	66.6775	12,553.7	69.7487	12,553.7	63.17	12,553.7	66.2705	12,553.7	55.8988	12,553.7	63.6407	12,553.7	56.9537	12,553.7	61.3234	12,553.7	58.5225	12,553.7	49.9636	12,553.7	54.5344	12,553.7	50.5018	12,553.7	40.7329	12,553.7	51.9257	12,553.7	49.8154	12,553.7	57.2965	12,553.7	50.4752	12,553.7	53.4163	12,553.7	49.006
12,996.1	87.5654	12,996.1	86.7594	12,996.1	87.8148	12,996.1	84.8876	12,996.1	87.0002	12,996.1	82.5335	12,996.1	84.8668	12,996.1	80.3932	12,996.1	83.2807	12,996.1	78.08	12,996.1	81.0394	12,996.1	76.2156	12,996.1	78.6819	12,996.1	72.4456	12,996.1	76.6524	12,996.1	69.5387	12,996.1	73.5222	12,996.1	66.4023	12,996.1	69.2369	12,996.1	62.7056	12,996.1	66.7769	12,996.1	56.7878	12,996.1	62.0446	12,996.1	58.4157	12,996.1	60.2727	12,996.1	53.8577	12,996.1	55.0735	12,996.1	53.107	12,996.1	54.9588	12,996.1	46.5663	12,996.1	50.9557	12,996.1	46.936	12,996.1	54.2406	12,996.1	54.8125	12,996.1	54.0887	12,996.1	50.9412
13,454.6	87.3907	13,454.6	86.3811	13,454.6	87.5951	13,454.6	84.4195	13,454.6	86.6266	13,454.6	82.3018	13,454.6	84.2952	13,454.6	80.1047	13,454.6	83.1861	13,454.6	77.989	13,454.6	80.633	13,454.6	75.6496	13,454.6	78.2486	13,454.6	72.5871	13,454.6	76.4275	13,454.6	69.5503	13,454.6	73.5655	13,454.6	67.1095	13,454.6	69.8011	13,454.6	61.8984	13,454.6	66.0761	13,454.6	59.1919	13,454.6	61.6165	13,454.6	56.7471	13,454.6	60.2238	13,454.6	57.1232	13,454.6	52.5631	13,454.6	49.0859	13,454.6	52.8803	13,454.6	49.3141	13,454.6	38.3931	13,454.6	28.459	13,454.6	54.0562	13,454.6	53.1703	13,454.6	50.1796	13,454.6	50.356
13,929.2	87.58	13,929.2	86.3232	13,929.2	87.8499	13,929.2	84.2237	13,929.2	86.6818	13,929.2	82.4158	13,929.2	84.3638	13,929.2	79.8927	13,929.2	83.3087	13,929.2	77.5046	13,929.2	80.8289	13,929.2	75.9357	13,929.2	77.9948	13,929.2	73.8517	13,929.2	77.1677	13,929.2	68.9172	13,929.2	74.6215	13,929.2	67.3165	13,929.2	69.8961	13,929.2	59.7153	13,929.2	65.4721	13,929.2	58.3847	13,929.2	61.8917	13,929.2	57.6917	13,929.2	60.3946	13,929.2	53.7754	13,929.2	45.6196	13,929.2	46.9928	13,929.2	51.4439	13,929.2	44.3614	13,929.2	48.2207	13,929.2	41.5762	13,929.2	55.9767	13,929.2	51.9422	13,929.2	48.8907	13,929.2	45.3088
14,419.9	87.7644	14,419.9	86.2599	14,419.9	87.9098	14,419.9	84.212	14,419.9	86.6475	14,419.9	82.5095	14,419.9	84.4209	14,419.9	80.0649	14,419.9	83.3381	14,419.9	77.0631	14,419.9	80.6618	14,419.9	76.388	14,419.9	77.7881	14,419.9	74.0586	14,419.9	77.1721	14,419.9	68.56	14,419.9	74.2536	14,419.9	66.4361	14,419.9	69.1152	14,419.9	59.3267	14,419.9	66.0372	14,419.9	57.765	14,419.9	61.472	14,419.9	58.5669	14,419.9	58.9822	14,419.9	52.6438	14,419.9	55.0017	14,419.9	37.2521	14,419.9	54.0503	14,419.9	43.268	14,419.9	58.1037	14,419.9	46.0395	14,419.9	50.329	14,419.9	49.6254	14,419.9	25.4967	14,419.9	39.2287
14,928.2	87.7164	14,928.2	86.0257	14,928.2	87.7815	14,928.2	84.2255	14,928.2	86.3487	14,928.2	82.4877	14,928.2	84.4452	14,928.2	79.8263	14,928.2	83.0717	14,928.2	77.3379	14,928.2	80.4641	14,928.2	76.409	14,928.2	77.7452	14,928.2	73.4117	14,928.2	76.2986	14,928.2	67.9301	14,928.2	74.1611	14,928.2	66.6265	14,928.2	68.3665	14,928.2	59.0495	14,928.2	64.7184	14,928.2	54.6714	14,928.2	60.1561	14,928.2	52.8031	14,928.2	59.5778	14,928.2	49.0032	14,928.2	56.6406	14,928.2	45.9479	14,928.2	53.1311	14,928.2	50.661	14,928.2	57.7002	14,928.2	43.4371	14,928.2	50.5047	14,928.2	50.3289	14,928.2	51.1819	14,928.2	49.5434
15,455.6	87.4911	15,455.6	85.6653	15,455.6	87.4754	15,455.6	83.9284	15,455.6	85.9353	15,455.6	81.7876	15,455.6	84.265	15,455.6	79.3188	15,455.6	82.6245	15,455.6	77.4871	15,455.6	80.2756	15,455.6	75.7524	15,455.6	78.0858	15,455.6	73.0899	15,455.6	76.0953	15,455.6	66.591	15,455.6	73.0563	15,455.6	64.5846	15,455.6	67.0837	15,455.6	57.3332	15,455.6	63.9191	15,455.6	59.2948	15,455.6	60.4655	15,455.6	55.5656	15,455.6	52.0556	15,455.6	51.2827	15,455.6	51.0466	15,455.6	38.5447	15,455.6	52.6496	15,455.6	47.3372	15,455.6	53.4217	15,455.6	48.7463	15,455.6	54.9623	15,455.6	39.7572	15,455.6	45.8568	15,455.6	40.6646
16,000.5	87.2614	16,000.5	85.4518	16,000.5	87.2198	16,000.5	83.9944	16,000.5	85.8539	16,000.5	81.3718	16,000.5	84.1765	16,000.5	79.3191	16,000.5	82.0817	16,000.5	77.0749	16,000.5	80.0162	16,000.5	75.1449	16,000.5	77.3073	16,000.5	71.6279	16,000.5	75.1053	16,000.5	64.8762	16,000.5	71.6964	16,000.5	63.8946	16,000.5	66.0783	16,000.5	56.2295	16,000.5	62.5328	16,000.5	56.212	16,000.5	57.185	16,000.5	52.5297	16,000.5	58.1418	16,000.5	48.5395	16,000.5	51.6665	16,000.5	37.4603	16,000.5	49.2506	16,000.5	48.0508	16,000.5	36.2486	16,000.5	45.8523	16,000.5	49.5377	16,000.5	36.5404	16,000.5	41.2463	16,000.5	46.2898
16,564.5	86.9189	16,564.5	85.3438	16,564.5	87.0308	16,564.5	83.8419	16,564.5	85.8098	16,564.5	80.897	16,564.5	83.9392	16,564.5	79.3721	16,564.5	81.6276	16,564.5	76.6291	16,564.5	79.9474	16,564.5	74.148	16,564.5	76.6257	16,564.5	70.628	16,564.5	73.617	16,564.5	65.5885	16,564.5	70.4952	16,564.5	63.1416	16,564.5	64.9283	16,564.5	55.4503	16,564.5	60.3462	16,564.5	56.2016	16,564.5	58.1248	16,564.5	50.1644	16,564.5	55.7911	16,564.5	50.9363	16,564.5	47.6874	16,564.5	49.1722	16,564.5	44.1784	16,564.5	40.6102	16,564.5	52.7353	16,564.5	51.3557	16,564.5	43.0727	16,564.5	47.2045	16,564.5	42.0836	16,564.5	46.396
17,148.9	86.3657	17,148.9	85.1717	17,148.9	86.6057	17,148.9	83.5254	17,148.9	85.7612	17,148.9	80.5586	17,148.9	83.5146	17,148.9	79.3431	17,148.9	81.3496	17,148.9	76.0781	17,148.9	79.4326	17,148.9	73.2016	17,148.9	75.7683	17,148.9	70.5506	17,148.9	72.3853	17,148.9	65.8139	17,148.9	69.8721	17,148.9	62.6959	17,148.9	65.0738	17,148.9	54.8752	17,148.9	61.0382	17,148.9	55.6547	17,148.9	56.9264	17,148.9	52.7605	17,148.9	52.415	17,148.9	46.574	17,148.9	50.2564	17,148.9	48.0653	17,148.9	44.2786	17,148.9	43.0683	17,148.9	46.4239	17,148.9	51.2827	17,148.9	47.8052	17,148.9	45.4481	17,148.9	48.9396	17,148.9	45.2828
17,752.4	85.6902	17,752.4	84.7864	17,752.4	85.9087	17,752.4	82.9381	17,752.4	85.4341	17,752.4	80.2249	17,752.4	82.9339	17,752.4	78.6693	17,752.4	81.0013	17,752.4	75.1367	17,752.4	78.8006	17,752.4	72.2187	17,752.4	74.5074	17,752.4	69.5125	17,752.4	71.508	17,752.4	65.427	17,752.4	68.481	17,752.4	60.5828	17,752.4	63.9768	17,752.4	57.266	17,752.4	61.0852	17,752.4	56.6045	17,752.4	54.387	17,752.4	49.4142	17,752.4	54.6441	17,752.4	43.9574	17,752.4	51.5448	17,752.4	43.7712	17,752.4	48.6281	17,752.4	35.9225	17,752.4	49.0707	17,752.4	46.5494	17,752.4	43.9985	17,752.4	47.4834	17,752.4	53.3896	17,752.4	47.7367
18,379.4	85.0844	18,379.4	84.3849	18,379.4	85.4398	18,379.4	82.307	18,379.4	84.9431	18,379.4	79.82	18,379.4	82.3643	18,379.4	77.4766	18,379.4	80.2556	18,379.4	73.4476	18,379.4	77.7067	18,379.4	71.0781	18,379.4	73.4561	18,379.4	67.8699	18,379.4	70.2938	18,379.4	64.2767	18,379.4	67.2223	18,379.4	56.5977	18,379.4	62.0881	18,379.4	58.9522	18,379.4	56.2659	18,379.4	54.4928	18,379.4	54.3324	18,379.4	49.3211	18,379.4	50.8312	18,379.4	44.5053	18,379.4	47.8402	18,379.4	38.4542	18,379.4	46.7667	18,379.4	48.8348	18,379.4	50.8399	18,379.4	36.4923	18,379.4	45.948	18,379.4	39.2334	18,379.4	50.8654	18,379.4	46.6585
19,026.9	84.6626	19,026.9	84.0487	19,026.9	85.1433	19,026.9	81.8322	19,026.9	84.4819	19,026.9	79.3624	19,026.9	82.0634	19,026.9	76.3456	19,026.9	79.4932	19,026.9	72.8892	19,026.9	76.2203	19,026.9	70.0702	19,026.9	72.1296	19,026.9	66.4832	19,026.9	69.1155	19,026.9	62.6426	19,026.9	64.7282	19,026.9	57.6704	19,026.9	60.5541	19,026.9	53.3443	19,026.9	56.4943	19,026.9	51.8606	19,026.9	49.0507	19,026.9	47.291	19,026.9	53.6855	19,026.9	31.2273	19,026.9	54.3183	19,026.9	40.6858	19,026.9	43.8303	19,026.9	44.1307	19,026.9	47.1889	19,026.9	39.1194	19,026.9	44.9336	19,026.9	48.4696	19,026.9	47.0563	19,026.9	43.7386
19,697.8	84.2474	19,697.8	83.5277	19,697.8	84.7686	19,697.8	81.4255	19,697.8	83.8785	19,697.8	78.798	19,697.8	81.7044	19,697.8	74.9606	19,697.8	78.7594	19,697.8	72.1136	19,697.8	74.9548	19,697.8	68.9717	19,697.8	71.4031	19,697.8	65.5891	19,697.8	67.5403	19,697.8	61.9467	19,697.8	64.3941	19,697.8	57.7568	19,697.8	60.9105	19,697.8	50.1619	19,697.8	53.3148	19,697.8	49.9327	19,697.8	53.282	19,697.8	45.3146	19,697.8	49.917	19,697.8	37.1576	19,697.8	52.9933	19,697.8	31.5161	19,697.8	50.9632	19,697.8	50.2761	19,697.8	44.7131	19,697.8	36.9738	19,697.8	47.1693	19,697.8	39.1748	19,697.8	41.8781	19,697.8	46.5285
19,999.5	84.234	19,999.5	83.6101	19,999.5	84.7833	19,999.5	80.9426	19,999.5	83.7125	19,999.5	78.0071	19,999.5	81.3374	19,999.5	74.6974	19,999.5	78.2206	19,999.5	71.7827	19,999.5	75.2815	19,999.5	67.7852	19,999.5	71.1467	19,999.5	65.9305	19,999.5	65.8507	19,999.5	62.3992	19,999.5	66.343	19,999.5	51.4209	19,999.5	60.1875	19,999.5	50.4183	19,999.5	52.5096	19,999.5	41.9467	19,999.5	54.1234	19,999.5	39.9695	19,999.5	50.7029	19,999.5	56.1635	19,999.5	53.5582	19,999.5	55.2915	19,999.5	50.4618	19,999.5	51.6655	19,999.5	56.921	19,999.5	39.88	19,999.5	51.1677	19,999.5	48.8062	19,999.5	40.6376	19,999.5	47.8122
