"SPL Vertical"																																																																							
"On-Axis"		"10°"		"-10°"		"20°"		"-20°"		"30°"		"-30°"		"40°"		"-40°"		"50°"		"-50°"		"60°"		"-60°"		"70°"		"-70°"		"80°"		"-80°"		"90°"		"-90°"		"100°"		"-100°"		"110°"		"-110°"		"120°"		"-120°"		"130°"		"-130°"		"140°"		"-140°"		"150°"		"-150°"		"160°"		"-160°"		"170°"		"-170°"		"180°"	
"Frequency / Hz"	"Sound Pressure Level / dB (re 20 µPa/V)  [2.83  V @ 1. m]"	"Frequency / Hz"	"Sound Pressure Level / dB (re 20 µPa/V)  [2.83  V @ 1. m]"	"Frequency / Hz"	"Sound Pressure Level / dB (re 20 µPa/V)  [2.83  V @ 1. m]"	"Frequency / Hz"	"Sound Pressure Level / dB (re 20 µPa/V)  [2.83  V @ 1. m]"	"Frequency / Hz"	"Sound Pressure Level / dB (re 20 µPa/V)  [2.83  V @ 1. m]"	"Frequency / Hz"	"Sound Pressure Level / dB (re 20 µPa/V)  [2.83  V @ 1. m]"	"Frequency / Hz"	"Sound Pressure Level / dB (re 20 µPa/V)  [2.83  V @ 1. m]"	"Frequency / Hz"	"Sound Pressure Level / dB (re 20 µPa/V)  [2.83  V @ 1. m]"	"Frequency / Hz"	"Sound Pressure Level / dB (re 20 µPa/V)  [2.83  V @ 1. m]"	"Frequency / Hz"	"Sound Pressure Level / dB (re 20 µPa/V)  [2.83  V @ 1. m]"	"Frequency / Hz"	"Sound Pressure Level / dB (re 20 µPa/V)  [2.83  V @ 1. m]"	"Frequency / Hz"	"Sound Pressure Level / dB (re 20 µPa/V)  [2.83  V @ 1. m]"	"Frequency / Hz"	"Sound Pressure Level / dB (re 20 µPa/V)  [2.83  V @ 1. m]"	"Frequency / Hz"	"Sound Pressure Level / dB (re 20 µPa/V)  [2.83  V @ 1. m]"	"Frequency / Hz"	"Sound Pressure Level / dB (re 20 µPa/V)  [2.83  V @ 1. m]"	"Frequency / Hz"	"Sound Pressure Level / dB (re 20 µPa/V)  [2.83  V @ 1. m]"	"Frequency / Hz"	"Sound Pressure Level / dB (re 20 µPa/V)  [2.83  V @ 1. m]"	"Frequency / Hz"	"Sound Pressure Level / dB (re 20 µPa/V)  [2.83  V @ 1. m]"	"Frequency / Hz"	"Sound Pressure Level / dB (re 20 µPa/V)  [2.83  V @ 1. m]"	"Frequency / Hz"	"Sound Pressure Level / dB (re 20 µPa/V)  [2.83  V @ 1. m]"	"Frequency / Hz"	"Sound Pressure Level / dB (re 20 µPa/V)  [2.83  V @ 1. m]"	"Frequency / Hz"	"Sound Pressure Level / dB (re 20 µPa/V)  [2.83  V @ 1. m]"	"Frequency / Hz"	"Sound Pressure Level / dB (re 20 µPa/V)  [2.83  V @ 1. m]"	"Frequency / Hz"	"Sound Pressure Level / dB (re 20 µPa/V)  [2.83  V @ 1. m]"	"Frequency / Hz"	"Sound Pressure Level / dB (re 20 µPa/V)  [2.83  V @ 1. m]"	"Frequency / Hz"	"Sound Pressure Level / dB (re 20 µPa/V)  [2.83  V @ 1. m]"	"Frequency / Hz"	"Sound Pressure Level / dB (re 20 µPa/V)  [2.83  V @ 1. m]"	"Frequency / Hz"	"Sound Pressure Level / dB (re 20 µPa/V)  [2.83  V @ 1. m]"	"Frequency / Hz"	"Sound Pressure Level / dB (re 20 µPa/V)  [2.83  V @ 1. m]"	"Frequency / Hz"	"Sound Pressure Level / dB (re 20 µPa/V)  [2.83  V @ 1. m]"	"Frequency / Hz"	"Sound Pressure Level / dB (re 20 µPa/V)  [2.83  V @ 1. m]"	"Frequency / Hz"	"Sound Pressure Level / dB (re 20 µPa/V)  [2.83  V @ 1. m]"	"Frequency / Hz"	"Sound Pressure Level / dB (re 20 µPa/V)  [2.83  V @ 1. m]"	"Frequency / Hz"	"Sound Pressure Level / dB (re 20 µPa/V)  [2.83  V @ 1. m]"	"Frequency / Hz"	"Sound Pressure Level / dB (re 20 µPa/V)  [2.83  V @ 1. m]"	"Frequency / Hz"	"Sound Pressure Level / dB (re 20 µPa/V)  [2.83  V @ 1. m]"
20.5078	58.4238	20.5078	58.4885	20.5078	58.4167	20.5078	58.6104	20.5078	58.468	20.5078	58.7888	20.5078	58.5792	20.5078	59.0223	20.5078	58.7522	20.5078	59.3079	20.5078	58.9889	20.5078	59.6411	20.5078	59.2898	20.5078	60.0155	20.5078	59.6528	20.5078	60.4227	20.5078	60.0717	20.5078	60.8528	20.5078	60.5356	20.5078	61.2942	20.5078	61.0284	20.5078	61.7343	20.5078	61.5303	20.5078	62.1596	20.5078	62.0194	20.5078	62.5558	20.5078	62.4731	20.5078	62.9085	20.5078	62.871	20.5078	63.2037	20.5078	63.1955	20.5078	63.4282	20.5078	63.4335	20.5078	63.5706	20.5078	63.5767	20.5078	63.622
21.9727	58.645	21.9727	58.601	21.9727	58.7098	21.9727	58.5839	21.9727	58.7913	21.9727	58.601	21.9727	58.8883	21.9727	58.6604	21.9727	59.0022	21.9727	58.769	21.9727	59.1372	21.9727	58.932	21.9727	59.2996	21.9727	59.1514	21.9727	59.4969	21.9727	59.4251	21.9727	59.7352	21.9727	59.7465	21.9727	60.0171	21.9727	60.1048	21.9727	60.3394	21.9727	60.4858	21.9727	60.6916	21.9727	60.8725	21.9727	61.0566	21.9727	61.247	21.9727	61.4127	21.9727	61.5908	21.9727	61.7365	21.9727	61.8863	21.9727	62.0062	21.9727	62.1179	21.9727	62.204	21.9727	62.2724	21.9727	62.3176	21.9727	62.3406
23.4375	55.5274	23.4375	55.3444	23.4375	55.6841	23.4375	55.1472	23.4375	55.807	23.4375	54.9516	23.4375	55.8924	23.4375	54.778	23.4375	55.9407	23.4375	54.6499	23.4375	55.9572	23.4375	54.5912	23.4375	55.9525	23.4375	54.6226	23.4375	55.943	23.4375	54.7561	23.4375	55.9499	23.4375	54.9912	23.4375	55.9968	23.4375	55.3137	23.4375	56.1032	23.4375	55.6987	23.4375	56.2786	23.4375	56.1154	23.4375	56.5172	23.4375	56.5314	23.4375	56.7974	23.4375	56.9171	23.4375	57.0876	23.4375	57.247	23.4375	57.353	23.4375	57.5009	23.4375	57.5626	23.4375	57.6642	23.4375	57.6927	23.4375	57.7287
24.9023	52.7378	24.9023	52.4295	24.9023	52.9764	24.9023	52.071	24.9023	53.1334	24.9023	51.6916	24.9023	53.2024	24.9023	51.3339	24.9023	53.1822	24.9023	51.0535	24.9023	53.0781	24.9023	50.9117	24.9023	52.9047	24.9023	50.9585	24.9023	52.6896	24.9023	51.2114	24.9023	52.478	24.9023	51.6462	24.9023	52.331	24.9023	52.2069	24.9023	52.3143	24.9023	52.8264	24.9023	52.4727	24.9023	53.4438	24.9023	52.8065	24.9023	54.011	24.9023	53.2681	24.9023	54.4934	24.9023	53.7839	24.9023	54.8664	24.9023	54.2809	24.9023	55.1129	24.9023	54.7028	24.9023	55.2221	24.9023	55.0122	24.9023	55.1883
26.3672	48.3409	26.3672	47.9557	26.3672	48.6276	26.3672	47.5494	26.3672	48.772	26.3672	47.2444	26.3672	48.7513	26.3672	47.1959	26.3672	48.5589	26.3672	47.5265	26.3672	48.2095	26.3672	48.2436	26.3672	47.7586	26.3672	49.2356	26.3672	47.3372	26.3672	50.3528	26.3672	47.1728	26.3672	51.4754	26.3672	47.5087	26.3672	52.5294	26.3672	48.4016	26.3672	53.4743	26.3672	49.6585	26.3672	54.2891	26.3672	51.02	26.3672	54.9622	26.3672	52.3078	26.3672	55.4857	26.3672	53.4341	26.3672	55.853	26.3672	54.3647	26.3672	56.0573	26.3672	55.0914	26.3672	56.0914	26.3672	55.6166	26.3672	55.9472
27.832	48.9692	27.832	49.0082	27.832	48.9879	27.832	49.1941	27.832	48.9941	27.832	49.6046	27.832	48.9525	27.832	50.2675	27.832	48.87	27.832	51.1461	27.832	48.8057	27.832	52.1623	27.832	48.8763	27.832	53.2328	27.832	49.2286	27.832	54.2921	27.832	49.9583	27.832	55.2957	27.832	51.0321	27.832	56.216	27.832	52.3105	27.832	57.036	27.832	53.6391	27.832	57.7445	27.832	54.9059	27.832	58.333	27.832	56.0462	27.832	58.7941	27.832	57.0277	27.832	59.1204	27.832	57.8367	27.832	59.3044	27.832	58.4695	27.832	59.3385	27.832	58.9276	27.832	59.2152
29.2969	55.4814	29.2969	55.5746	29.2969	55.4403	29.2969	55.7448	29.2969	55.4324	29.2969	56.0155	29.2969	55.4503	29.2969	56.4004	29.2969	55.5021	29.2969	56.8984	29.2969	55.6123	29.2969	57.4932	29.2969	55.8182	29.2969	58.1576	29.2969	56.1593	29.2969	58.8598	29.2969	56.6603	29.2969	59.5688	29.2969	57.3168	29.2969	60.2573	29.2969	58.093	29.2969	60.9024	29.2969	58.9331	29.2969	61.4852	29.2969	59.7781	29.2969	61.9898	29.2969	60.577	29.2969	62.4025	29.2969	61.2911	29.2969	62.7109	29.2969	61.8942	29.2969	62.9042	29.2969	62.3697	29.2969	62.973	29.2969	62.7092	29.2969	62.9097
30.7617	58.7249	30.7617	58.6961	30.7617	58.7683	30.7617	58.703	30.7617	58.8115	30.7617	58.77	30.7617	58.8481	30.7617	58.9201	30.7617	58.8816	30.7617	59.169	30.7617	58.9265	30.7617	59.5211	30.7617	59.0079	30.7617	59.9673	30.7617	59.1585	30.7617	60.4869	30.7617	59.4106	30.7617	61.0527	30.7617	59.7851	30.7617	61.6349	30.7617	60.2805	30.7617	62.2056	30.7617	60.8706	30.7617	62.7395	30.7617	61.5119	30.7617	63.2149	30.7617	62.155	30.7617	63.6134	30.7617	62.7548	30.7617	63.919	30.7617	63.2756	30.7617	64.1185	30.7617	63.6922	30.7617	64.2011	30.7617	63.9893	30.7617	64.1593
32.2266	60.1834	32.2266	60.0746	32.2266	60.2828	32.2266	59.976	32.2266	60.3597	32.2266	59.9121	32.2266	60.4077	32.2266	59.9097	32.2266	60.4279	32.2266	59.9936	32.2266	60.4301	32.2266	60.1806	32.2266	60.4334	32.2266	60.4748	32.2266	60.466	32.2266	60.8656	32.2266	60.5614	32.2266	61.3301	32.2266	60.7509	32.2266	61.8381	32.2266	61.0525	32.2266	62.3575	32.2266	61.4616	32.2266	62.8581	32.2266	61.9503	32.2266	63.3133	32.2266	62.4753	32.2266	63.7005	32.2266	62.9896	32.2266	64.0013	32.2266	63.4514	32.2266	64.2006	32.2266	63.8289	32.2266	64.2875	32.2266	64.1006	32.2266	64.2549
33.6914	60.5222	33.6914	60.3493	33.6914	60.6665	33.6914	60.1671	33.6914	60.7691	33.6914	60.0012	33.6914	60.8232	33.6914	59.8825	33.6914	60.8286	33.6914	59.8431	33.6914	60.792	33.6914	59.9101	33.6914	60.7292	33.6914	60.0981	33.6914	60.6658	33.6914	60.4042	33.6914	60.6364	33.6914	60.8077	33.6914	60.6799	33.6914	61.2758	33.6914	60.8287	33.6914	61.7711	33.6914	61.0963	33.6914	62.2573	33.6914	61.4693	33.6914	62.7029	33.6914	61.9105	33.6914	63.0822	33.6914	62.3714	33.6914	63.3746	33.6914	62.8041	33.6914	63.5647	33.6914	63.1696	33.6914	63.6419	33.6914	63.4405	33.6914	63.6004
35.1562	60.2205	35.1562	60.0023	35.1562	60.3942	35.1562	59.7602	35.1562	60.5098	35.1562	59.5227	35.1562	60.5594	35.1562	59.3255	35.1562	60.5414	35.1562	59.2082	35.1562	60.4609	35.1562	59.207	35.1562	60.3318	35.1562	59.3439	35.1562	60.1786	35.1562	59.6187	35.1562	60.0386	35.1562	60.0079	35.1562	59.9584	35.1562	60.4722	35.1562	59.9847	35.1562	60.9669	35.1562	60.1476	35.1562	61.4501	35.1562	60.4465	35.1562	61.8866	35.1562	60.8483	35.1562	62.2492	35.1562	61.2998	35.1562	62.5175	35.1562	61.7451	35.1562	62.6772	35.1562	62.1372	35.1562	62.7193	35.1562	62.4425	35.1562	62.6401
36.6211	59.6559	36.6211	59.4538	36.6211	59.8149	36.6211	59.236	36.6211	59.9122	36.6211	59.039	36.6211	59.9369	36.6211	58.9062	36.6211	59.8861	36.6211	58.8813	36.6211	59.7653	36.6211	58.9966	36.6211	59.5913	36.6211	59.2617	36.6211	59.3957	36.6211	59.659	36.6211	59.227	36.6211	60.1499	36.6211	59.1462	36.6211	60.6866	36.6211	59.2121	36.6211	61.2231	36.6211	59.4566	36.6211	61.7206	36.6211	59.8676	36.6211	62.1491	36.6211	60.3935	36.6211	62.4863	36.6211	60.9654	36.6211	62.7157	36.6211	61.5193	36.6211	62.8262	36.6211	62.0065	36.6211	62.8106	36.6211	62.395	36.6211	62.6661
38.0859	61.0138	38.0859	60.9108	38.0859	61.0982	38.0859	60.8154	38.0859	61.1453	38.0859	60.7593	38.0859	61.1444	38.0859	60.7755	38.0859	61.0935	38.0859	60.8917	38.0859	61.0012	38.0859	61.1226	38.0859	60.8881	38.0859	61.4646	38.0859	60.7891	38.0859	61.8971	38.0859	60.7509	38.0859	62.3877	38.0859	60.8233	38.0859	62.9002	38.0859	61.0427	38.0859	63.4	38.0859	61.4152	38.0859	63.8578	38.0859	61.9119	38.0859	64.2495	38.0859	62.4801	38.0859	64.5564	38.0859	63.0615	38.0859	64.7643	38.0859	63.6057	38.0859	64.8624	38.0859	64.0755	38.0859	64.8438	38.0859	64.4467	38.0859	64.7049
39.5508	63.5963	39.5508	63.5434	39.5508	63.644	39.5508	63.5041	39.5508	63.6729	39.5508	63.5003	39.5508	63.6752	39.5508	63.5539	39.5508	63.6508	39.5508	63.6827	39.5508	63.6074	39.5508	63.8963	39.5508	63.5625	39.5508	64.1928	39.5508	63.5425	39.5508	64.5595	39.5508	63.5802	39.5508	64.9747	39.5508	63.7074	39.5508	65.4126	39.5508	63.945	39.5508	65.8462	39.5508	64.2934	39.5508	66.2507	39.5508	64.7306	39.5508	66.6045	39.5508	65.2184	39.5508	66.8892	39.5508	65.7134	39.5508	67.0901	39.5508	66.1753	39.5508	67.1959	39.5508	66.5728	39.5508	67.1986	39.5508	66.8836	39.5508	67.0943
41.0156	66.072	41.0156	66.0203	41.0156	66.1206	41.0156	65.9793	41.0156	66.1562	41.0156	65.965	41.0156	66.1735	41.0156	65.9942	41.0156	66.1724	41.0156	66.0814	41.0156	66.1592	41.0156	66.2361	41.0156	66.1465	41.0156	66.4605	41.0156	66.1535	41.0156	66.7481	41.0156	66.2034	41.0156	67.085	41.0156	66.3188	41.0156	67.4517	41.0156	66.5154	41.0156	67.8262	41.0156	66.7956	41.0156	68.186	41.0156	67.1456	41.0156	68.5101	41.0156	67.5387	41.0156	68.78	41.0156	67.941	41.0156	68.9801	41.0156	68.3189	41.0156	69.098	41.0156	68.6438	41.0156	69.1252	41.0156	68.8944	41.0156	69.0571
42.4805	67.5589	42.4805	67.4986	42.4805	67.6159	42.4805	67.4471	42.4805	67.6611	42.4805	67.4182	42.4805	67.6898	42.4805	67.4268	42.4805	67.7019	42.4805	67.4863	42.4805	67.702	42.4805	67.6062	42.4805	67.7004	42.4805	67.7903	42.4805	67.7126	42.4805	68.0347	42.4805	67.7574	42.4805	68.3287	42.4805	67.854	42.4805	68.6557	42.4805	68.0165	42.4805	68.9958	42.4805	68.2492	42.4805	69.3282	42.4805	68.543	42.4805	69.6323	42.4805	68.8773	42.4805	69.8898	42.4805	69.2235	42.4805	70.0849	42.4805	69.5518	42.4805	70.2051	42.4805	69.8352	42.4805	70.2418	42.4805	70.0528	42.4805	70.1907
43.9453	68.9574	43.9453	68.8954	43.9453	69.0171	43.9453	68.8412	43.9453	69.0671	43.9453	68.8069	43.9453	69.1033	43.9453	68.8054	43.9453	69.1252	43.9453	68.8484	43.9453	69.1366	43.9453	68.945	43.9453	69.146	43.9453	69.0992	43.9453	69.1658	43.9453	69.3092	43.9453	69.2116	43.9453	69.5668	43.9453	69.2991	43.9453	69.8582	43.9453	69.4407	43.9453	70.1661	43.9453	69.6407	43.9453	70.4713	43.9453	69.8931	43.9453	70.7548	43.9453	70.1812	43.9453	70.9985	43.9453	70.4813	43.9453	71.1871	43.9453	70.7669	43.9453	71.308	43.9453	71.0134	43.9453	71.3525	43.9453	71.2012	43.9453	71.3166
45.4102	70.198	45.4102	70.1333	45.4102	70.2608	45.4102	70.0755	45.4102	70.315	45.4102	70.0353	45.4102	70.3568	45.4102	70.0239	45.4102	70.3857	45.4102	70.0521	45.4102	70.4048	45.4102	70.1284	45.4102	70.4208	45.4102	70.2573	45.4102	70.4442	45.4102	70.4383	45.4102	70.488	45.4102	70.665	45.4102	70.5658	45.4102	70.9262	45.4102	70.6886	45.4102	71.2064	45.4102	70.861	45.4102	71.4883	45.4102	71.0788	45.4102	71.7536	45.4102	71.3288	45.4102	71.9851	45.4102	71.5906	45.4102	72.1676	45.4102	71.8407	45.4102	72.2886	45.4102	72.0566	45.4102	72.3394	45.4102	72.2193	45.4102	72.316
46.875	71.263	46.875	71.1957	46.875	71.3286	46.875	71.1346	46.875	71.3865	46.875	71.0892	46.875	71.4333	46.875	71.0697	46.875	71.4685	46.875	71.0859	46.875	71.4943	46.875	71.1459	46.875	71.5166	46.875	71.2544	46.875	71.5442	46.875	71.412	46.875	71.5881	46.875	71.6139	46.875	71.6601	46.875	71.8504	46.875	71.7699	46.875	72.1081	46.875	71.9218	46.875	72.3708	46.875	72.113	46.875	72.6214	46.875	72.3323	46.875	72.8432	46.875	72.5623	46.875	73.0214	46.875	72.782	46.875	73.1435	46.875	72.9706	46.875	73.201	46.875	73.1107	46.875	73.1897
48.3398	72.0787	48.3398	72.014	48.3398	72.1432	48.3398	71.9563	48.3398	72.2021	48.3398	71.9142	48.3398	72.2522	48.3398	71.8966	48.3398	72.2928	48.3398	71.9123	48.3398	72.3258	48.3398	71.9686	48.3398	72.3559	48.3398	72.0699	48.3398	72.3906	48.3398	72.2167	48.3398	72.4394	48.3398	72.4052	48.3398	72.5122	48.3398	72.6268	48.3398	72.6175	48.3398	72.8694	48.3398	72.7594	48.3398	73.1181	48.3398	72.9355	48.3398	73.3568	48.3398	73.1365	48.3398	73.5697	48.3398	73.3469	48.3398	73.7422	48.3398	73.5477	48.3398	73.8624	48.3398	73.7197	48.3398	73.9217	48.3398	73.8466	48.3398	73.9161
51.2695	73.3131	51.2695	73.2515	51.2695	73.3754	51.2695	73.1965	51.2695	73.434	51.2695	73.1551	51.2695	73.4861	51.2695	73.1345	51.2695	73.5308	51.2695	73.142	51.2695	73.5694	51.2695	73.1835	51.2695	73.6053	51.2695	73.2629	51.2695	73.6441	51.2695	73.3813	51.2695	73.6927	51.2695	73.5358	51.2695	73.7586	51.2695	73.7202	51.2695	73.8481	51.2695	73.9247	51.2695	73.9642	51.2695	74.137	51.2695	74.1054	51.2695	74.3435	51.2695	74.2648	51.2695	74.5303	51.2695	74.4303	51.2695	74.6847	51.2695	74.5872	51.2695	74.7959	51.2695	74.72	51.2695	74.8564	51.2695	74.8152	51.2695	74.8625
52.7344	73.9708	52.7344	73.9143	52.7344	74.0285	52.7344	73.8642	52.7344	74.0834	52.7344	73.8266	52.7344	74.133	52.7344	73.8079	52.7344	74.1764	52.7344	73.8143	52.7344	74.2147	52.7344	73.8509	52.7344	74.2507	52.7344	73.9213	52.7344	74.2889	52.7344	74.0263	52.7344	74.3354	52.7344	74.1636	52.7344	74.3963	52.7344	74.3276	52.7344	74.4768	52.7344	74.5099	52.7344	74.5795	52.7344	74.6997	52.7344	74.7031	52.7344	74.8847	52.7344	74.8417	52.7344	75.0526	52.7344	74.9851	52.7344	75.1918	52.7344	75.1208	52.7344	75.2927	52.7344	75.2354	52.7344	75.3486	52.7344	75.3169	52.7344	75.3564
54.1992	74.6283	54.1992	74.578	54.1992	74.6795	54.1992	74.533	54.1992	74.7282	54.1992	74.4984	54.1992	74.772	54.1992	74.4798	54.1992	74.8104	54.1992	74.4825	54.1992	74.844	54.1992	74.5112	54.1992	74.8752	54.1992	74.5688	54.1992	74.9078	54.1992	74.6563	54.1992	74.9467	54.1992	74.7719	54.1992	74.9971	54.1992	74.9112	54.1992	75.0633	54.1992	75.0668	54.1992	75.1477	54.1992	75.2295	54.1992	75.2493	54.1992	75.3885	54.1992	75.3636	54.1992	75.5329	54.1992	75.4825	54.1992	75.6527	54.1992	75.5955	54.1992	75.7393	54.1992	75.6916	54.1992	75.7872	54.1992	75.7603	54.1992	75.7938
55.6641	75.2733	55.6641	75.2263	55.6641	75.3212	55.6641	75.1843	55.6641	75.367	55.6641	75.1517	55.6641	75.4087	55.6641	75.1334	55.6641	75.4456	55.6641	75.134	55.6641	75.4781	55.6641	75.1576	55.6641	75.5081	55.6641	75.2069	55.6641	75.5386	55.6641	75.2827	55.6641	75.5736	55.6641	75.3835	55.6641	75.6172	55.6641	75.5053	55.6641	75.6732	55.6641	75.6417	55.6641	75.7434	55.6641	75.7843	55.6641	75.8275	55.6641	75.9238	55.6641	75.9218	55.6641	76.0503	55.6641	76.02	55.6641	76.1551	55.6641	76.1138	55.6641	76.2308	55.6641	76.1938	55.6641	76.2727	55.6641	76.2513	55.6641	76.2791
58.5938	76.7856	58.5938	76.7447	58.5938	76.8294	58.5938	76.7097	58.5938	76.8735	58.5938	76.6839	58.5938	76.9161	58.5938	76.6708	58.5938	76.956	58.5938	76.6736	58.5938	76.9929	58.5938	76.6951	58.5938	77.0274	58.5938	76.7368	58.5938	77.0609	58.5938	76.7992	58.5938	77.0956	58.5938	76.8809	58.5938	77.1338	58.5938	76.9788	58.5938	77.178	58.5938	77.0879	58.5938	77.2297	58.5938	77.2017	58.5938	77.2892	58.5938	77.3129	58.5938	77.3547	58.5938	77.4138	58.5938	77.4226	58.5938	77.4976	58.5938	77.4876	58.5938	77.5586	58.5938	77.5432	58.5938	77.5934	58.5938	77.5829	58.5938	77.6009
60.0586	77.4495	60.0586	77.4104	60.0586	77.4925	60.0586	77.3778	60.0586	77.5372	60.0586	77.3547	60.0586	77.5818	60.0586	77.344	60.0586	77.625	60.0586	77.3482	60.0586	77.6663	60.0586	77.3697	60.0586	77.7057	60.0586	77.4099	60.0586	77.744	60.0586	77.4689	60.0586	77.7827	60.0586	77.5458	60.0586	77.8234	60.0586	77.6377	60.0586	77.868	60.0586	77.7402	60.0586	77.9178	60.0586	77.8475	60.0586	77.9728	60.0586	77.9531	60.0586	78.0319	60.0586	78.0498	60.0586	78.092	60.0586	78.1312	60.0586	78.1485	60.0586	78.192	60.0586	78.1958	60.0586	78.2287	60.0586	78.2282	60.0586	78.2403
62.9883	78.5723	62.9883	78.5403	62.9883	78.612	62.9883	78.5178	62.9883	78.6578	62.9883	78.5064	62.9883	78.7082	62.9883	78.5077	62.9883	78.7619	62.9883	78.5234	62.9883	78.8178	62.9883	78.5546	62.9883	78.8752	62.9883	78.6019	62.9883	78.9334	62.9883	78.6651	62.9883	78.9925	62.9883	78.7434	62.9883	79.0523	62.9883	78.8343	62.9883	79.1132	62.9883	78.9345	62.9883	79.1751	62.9883	79.0395	62.9883	79.2372	62.9883	79.1436	62.9883	79.2981	62.9883	79.241	62.9883	79.355	62.9883	79.3258	62.9883	79.4042	62.9883	79.3929	62.9883	79.4412	62.9883	79.4387	62.9883	79.4615	62.9883	79.4615
64.4531	78.931	64.4531	78.9003	64.4531	78.9699	64.4531	78.879	64.4531	79.0155	64.4531	78.8685	64.4531	79.0666	64.4531	78.87	64.4531	79.1217	64.4531	78.8845	64.4531	79.1796	64.4531	78.9129	64.4531	79.2391	64.4531	78.9556	64.4531	79.2993	64.4531	79.0127	64.4531	79.3594	64.4531	79.0832	64.4531	79.4189	64.4531	79.1653	64.4531	79.4776	64.4531	79.2563	64.4531	79.5351	64.4531	79.3523	64.4531	79.5907	64.4531	79.4485	64.4531	79.6431	64.4531	79.5396	64.4531	79.6902	64.4531	79.6205	64.4531	79.7291	64.4531	79.6863	64.4531	79.7561	64.4531	79.7337	64.4531	79.7677	64.4531	79.7608
67.3828	79.3717	67.3828	79.3427	67.3828	79.409	67.3828	79.3231	67.3828	79.4539	67.3828	79.3136	67.3828	79.5049	67.3828	79.3146	67.3828	79.5608	67.3828	79.3268	67.3828	79.62	67.3828	79.3505	67.3828	79.6807	67.3828	79.3859	67.3828	79.7413	67.3828	79.4328	67.3828	79.8004	67.3828	79.4908	67.3828	79.8567	67.3828	79.5584	67.3828	79.9094	67.3828	79.6338	67.3828	79.9576	67.3828	79.7141	67.3828	80.0009	67.3828	79.7958	67.3828	80.0385	67.3828	79.8746	67.3828	80.0692	67.3828	79.9465	67.3828	80.0915	67.3828	80.0075	67.3828	80.1033	67.3828	80.0546	67.3828	80.1021	67.3828	80.0863
68.8477	79.588	68.8477	79.5605	68.8477	79.6243	68.8477	79.5424	68.8477	79.6686	68.8477	79.5342	68.8477	79.7198	68.8477	79.5361	68.8477	79.7763	68.8477	79.5485	68.8477	79.8365	68.8477	79.5713	68.8477	79.8984	68.8477	79.6046	68.8477	79.9601	68.8477	79.6482	68.8477	80.0196	68.8477	79.7016	68.8477	80.0755	68.8477	79.7638	68.8477	80.1264	68.8477	79.833	68.8477	80.1716	68.8477	79.907	68.8477	80.2104	68.8477	79.9825	68.8477	80.2423	68.8477	80.0561	68.8477	80.2666	68.8477	80.124	68.8477	80.2824	68.8477	80.1827	68.8477	80.2881	68.8477	80.2295	68.8477	80.282	68.8477	80.2627
71.7773	80.2602	71.7773	80.2373	71.7773	80.294	71.7773	80.2255	71.7773	80.3383	71.7773	80.2245	71.7773	80.3921	71.7773	80.2341	71.7773	80.4538	71.7773	80.2536	71.7773	80.5214	71.7773	80.2828	71.7773	80.5926	71.7773	80.3211	71.7773	80.6646	71.7773	80.368	71.7773	80.7347	71.7773	80.423	71.7773	80.8005	71.7773	80.4852	71.7773	80.8598	71.7773	80.5533	71.7773	80.9112	71.7773	80.6255	71.7773	80.9537	71.7773	80.6993	71.7773	80.9867	71.7773	80.7718	71.7773	81.0096	71.7773	80.8398	71.7773	81.022	71.7773	80.9	71.7773	81.023	71.7773	80.9498	71.7773	81.0117	71.7773	80.9873
74.707	80.468	74.707	80.4507	74.707	80.4994	74.707	80.4468	74.707	80.5446	74.707	80.4558	74.707	80.603	74.707	80.4767	74.707	80.673	74.707	80.5083	74.707	80.7526	74.707	80.5498	74.707	80.8388	74.707	80.6002	74.707	80.9285	74.707	80.6588	74.707	81.0182	74.707	80.7248	74.707	81.1044	74.707	80.7974	74.707	81.1841	74.707	80.8754	74.707	81.2547	74.707	80.9573	74.707	81.3141	74.707	81.0409	74.707	81.3611	74.707	81.1233	74.707	81.3945	74.707	81.2012	74.707	81.4132	74.707	81.2711	74.707	81.4164	74.707	81.3297	74.707	81.4036	74.707	81.3744
77.6367	80.2207	77.6367	80.2079	77.6367	80.2486	77.6367	80.2095	77.6367	80.292	77.6367	80.2244	77.6367	80.3503	77.6367	80.2513	77.6367	80.4225	77.6367	80.2888	77.6367	80.5066	77.6367	80.336	77.6367	80.5997	77.6367	80.3917	77.6367	80.6985	77.6367	80.4552	77.6367	80.7992	77.6367	80.5258	77.6367	80.8978	77.6367	80.6029	77.6367	80.9906	77.6367	80.6856	77.6367	81.0743	77.6367	80.7725	77.6367	81.146	77.6367	80.8617	77.6367	81.2034	77.6367	80.9503	77.6367	81.2448	77.6367	81.0349	77.6367	81.2685	77.6367	81.1117	77.6367	81.2737	77.6367	81.1769	77.6367	81.2598	77.6367	81.227
79.1016	80.2701	79.1016	80.2566	79.1016	80.2981	79.1016	80.2569	79.1016	80.341	79.1016	80.2698	79.1016	80.3984	79.1016	80.2939	79.1016	80.4692	79.1016	80.3281	79.1016	80.5517	79.1016	80.3713	79.1016	80.643	79.1016	80.4226	79.1016	80.7399	79.1016	80.4812	79.1016	80.8386	79.1016	80.5468	79.1016	80.9353	79.1016	80.6189	79.1016	81.026	79.1016	80.6968	79.1016	81.1073	79.1016	80.7796	79.1016	81.1763	79.1016	80.8654	79.1016	81.2306	79.1016	80.9518	79.1016	81.2682	79.1016	81.0356	79.1016	81.2878	79.1016	81.113	79.1016	81.2885	79.1016	81.1801	79.1016	81.2701	79.1016	81.2334
82.0312	80.5544	82.0312	80.5373	82.0312	80.5834	82.0312	80.5314	82.0312	80.6249	82.0312	80.5355	82.0312	80.6785	82.0312	80.5484	82.0312	80.7433	82.0312	80.5688	82.0312	80.8176	82.0312	80.5958	82.0312	80.8988	82.0312	80.6288	82.0312	80.9838	82.0312	80.6673	82.0312	81.0689	82.0312	80.7115	82.0312	81.1505	82.0312	80.7616	82.0312	81.2247	82.0312	80.8177	82.0312	81.2882	82.0312	80.8798	82.0312	81.3381	82.0312	80.9473	82.0312	81.3725	82.0312	81.0188	82.0312	81.3899	82.0312	81.0922	82.0312	81.3899	82.0312	81.1644	82.0312	81.3726	82.0312	81.232	82.0312	81.3391	82.0312	81.2913
84.9609	80.8225	84.9609	80.7988	84.9609	80.8544	84.9609	80.7826	84.9609	80.8949	84.9609	80.7728	84.9609	80.9434	84.9609	80.7682	84.9609	80.9988	84.9609	80.7675	84.9609	81.0592	84.9609	80.7697	84.9609	81.1219	84.9609	80.7744	84.9609	81.1835	84.9609	80.7815	84.9609	81.2407	84.9609	80.7913	84.9609	81.2899	84.9609	80.8049	84.9609	81.3279	84.9609	80.8235	84.9609	81.3522	84.9609	80.8482	84.9609	81.3612	84.9609	80.8803	84.9609	81.3546	84.9609	80.9201	84.9609	81.3329	84.9609	80.9674	84.9609	81.2979	84.9609	81.0212	84.9609	81.2519	84.9609	81.0794	84.9609	81.198	84.9609	81.1394
87.8906	80.7689	87.8906	80.753	87.8906	80.7997	87.8906	80.7506	87.8906	80.8462	87.8906	80.7598	87.8906	80.9081	87.8906	80.7786	87.8906	80.984	87.8906	80.8049	87.8906	81.0716	87.8906	80.8368	87.8906	81.1674	87.8906	80.873	87.8906	81.2669	87.8906	80.9127	87.8906	81.365	87.8906	80.9553	87.8906	81.4565	87.8906	81.0013	87.8906	81.5363	87.8906	81.0511	87.8906	81.6002	87.8906	81.1053	87.8906	81.6449	87.8906	81.1645	87.8906	81.6687	87.8906	81.2287	87.8906	81.6713	87.8906	81.2972	87.8906	81.6537	87.8906	81.3682	87.8906	81.6183	87.8906	81.4394	87.8906	81.5683	87.8906	81.5073
90.8203	81.1929	90.8203	81.1744	90.8203	81.2221	90.8203	81.1653	90.8203	81.2627	90.8203	81.1639	90.8203	81.3148	90.8203	81.1684	90.8203	81.3775	90.8203	81.1772	90.8203	81.4487	90.8203	81.1887	90.8203	81.5257	90.8203	81.202	90.8203	81.6046	90.8203	81.2166	90.8203	81.6808	90.8203	81.2327	90.8203	81.7495	90.8203	81.2511	90.8203	81.8059	90.8203	81.2733	90.8203	81.8459	90.8203	81.3008	90.8203	81.8668	90.8203	81.3354	90.8203	81.8671	90.8203	81.3782	90.8203	81.8471	90.8203	81.4298	90.8203	81.8091	90.8203	81.4896	90.8203	81.7564	90.8203	81.5556	90.8203	81.6934	90.8203	81.6249
95.2148	81.3178	95.2148	81.2983	95.2148	81.3477	95.2148	81.288	95.2148	81.3885	95.2148	81.2853	95.2148	81.4405	95.2148	81.2885	95.2148	81.5027	95.2148	81.2962	95.2148	81.5734	95.2148	81.3068	95.2148	81.65	95.2148	81.3196	95.2148	81.729	95.2148	81.3342	95.2148	81.8062	95.2148	81.351	95.2148	81.8769	95.2148	81.3709	95.2148	81.9364	95.2148	81.3953	95.2148	81.9805	95.2148	81.4259	95.2148	82.006	95.2148	81.4645	95.2148	82.0111	95.2148	81.5119	95.2148	81.9956	95.2148	81.5686	95.2148	81.9608	95.2148	81.6333	95.2148	81.9099	95.2148	81.7039	95.2148	81.8468	95.2148	81.7765
98.1445	81.4062	98.1445	81.3838	98.1445	81.4371	98.1445	81.3689	98.1445	81.4772	98.1445	81.36	98.1445	81.5264	98.1445	81.3557	98.1445	81.5839	98.1445	81.3545	98.1445	81.6482	98.1445	81.3552	98.1445	81.7168	98.1445	81.3572	98.1445	81.7865	98.1445	81.3605	98.1445	81.8533	98.1445	81.3657	98.1445	81.9131	98.1445	81.3741	98.1445	81.9615	98.1445	81.3875	98.1445	81.9947	98.1445	81.4081	98.1445	82.0099	98.1445	81.438	98.1445	82.0053	98.1445	81.4787	98.1445	81.9809	98.1445	81.5306	98.1445	81.9382	98.1445	81.5929	98.1445	81.8805	98.1445	81.6632	98.1445	81.812	98.1445	81.7378
101.074	81.6636	101.074	81.6412	101.074	81.6932	101.074	81.6249	101.074	81.731	101.074	81.6131	101.074	81.7769	101.074	81.604	101.074	81.8304	101.074	81.5963	101.074	81.8899	101.074	81.5885	101.074	81.953	101.074	81.5803	101.074	82.0164	101.074	81.5716	101.074	82.0761	101.074	81.5635	101.074	82.1277	101.074	81.5577	101.074	82.167	101.074	81.5566	101.074	82.1901	101.074	81.5631	101.074	82.1941	101.074	81.5802	101.074	82.1776	101.074	81.6101	101.074	82.141	101.074	81.6542	101.074	82.0864	101.074	81.7121	101.074	82.0177	101.074	81.7818	101.074	81.9401	101.074	81.8595
105.469	82.0182	105.469	81.9937	105.469	82.048	105.469	81.9734	105.469	82.0838	105.469	81.9556	105.469	82.1259	105.469	81.9385	105.469	82.1733	105.469	81.9204	105.469	82.2247	105.469	81.9001	105.469	82.2774	105.469	81.8767	105.469	82.3283	105.469	81.8505	105.469	82.3733	105.469	81.8224	105.469	82.4082	105.469	81.7947	105.469	82.4287	105.469	81.7705	105.469	82.4312	105.469	81.7536	105.469	82.4132	105.469	81.7482	105.469	82.3741	105.469	81.7579	105.469	82.3153	105.469	81.7855	105.469	82.2402	105.469	81.8321	105.469	82.154	105.469	81.8965	105.469	82.0634	105.469	81.9753
108.398	82.1887	108.398	82.1612	108.398	82.2212	108.398	82.1373	108.398	82.2593	108.398	82.1155	108.398	82.3031	108.398	82.0939	108.398	82.3518	108.398	82.0708	108.398	82.4037	108.398	82.0448	108.398	82.4563	108.398	82.015	108.398	82.5061	108.398	81.9816	108.398	82.5488	108.398	81.9457	108.398	82.58	108.398	81.9095	108.398	82.595	108.398	81.8764	108.398	82.59	108.398	81.8507	108.398	82.5628	108.398	81.8371	108.398	82.5126	108.398	81.84	108.398	82.4415	108.398	81.863	108.398	82.3536	108.398	81.9078	108.398	82.2552	108.398	81.9737	108.398	82.1539	108.398	82.0576
112.793	82.6061	112.793	82.5819	112.793	82.6356	112.793	82.5615	112.793	82.6712	112.793	82.5432	112.793	82.7132	112.793	82.5251	112.793	82.7611	112.793	82.5053	112.793	82.8134	112.793	82.4823	112.793	82.8677	112.793	82.4552	112.793	82.9205	112.793	82.424	112.793	82.9674	112.793	82.3895	112.793	83.0033	112.793	82.3539	112.793	83.0233	112.793	82.3206	112.793	83.0228	112.793	82.2939	112.793	82.9991	112.793	82.2786	112.793	82.9512	112.793	82.2796	112.793	82.8809	112.793	82.3006	112.793	82.7926	112.793	82.3439	112.793	82.693	112.793	82.4091	112.793	82.5904	112.793	82.4932
117.188	82.6456	117.188	82.6242	117.188	82.6719	117.188	82.6062	117.188	82.704	117.188	82.59	117.188	82.7424	117.188	82.5737	117.188	82.787	117.188	82.5555	117.188	82.8368	117.188	82.5342	117.188	82.8898	117.188	82.5087	117.188	82.9428	117.188	82.4792	117.188	82.9918	117.188	82.4465	117.188	83.0317	117.188	82.4128	117.188	83.0572	117.188	82.3815	117.188	83.0634	117.188	82.3569	117.188	83.0468	117.188	82.3437	117.188	83.0059	117.188	82.3467	117.188	82.9418	117.188	82.3696	117.188	82.8585	117.188	82.4146	117.188	82.7625	117.188	82.4809	117.188	82.6619	117.188	82.5654
120.117	82.8298	120.117	82.8074	120.117	82.8566	120.117	82.7884	120.117	82.8886	120.117	82.7713	120.117	82.9262	120.117	82.7545	120.117	82.969	120.117	82.7362	120.117	83.0162	120.117	82.715	120.117	83.0658	120.117	82.6902	120.117	83.1152	120.117	82.6613	120.117	83.1606	120.117	82.6294	120.117	83.1973	120.117	82.5962	120.117	83.2204	120.117	82.5651	120.117	83.2251	120.117	82.5401	120.117	83.2079	120.117	82.5259	120.117	83.1672	120.117	82.5273	120.117	83.1041	120.117	82.5482	120.117	83.0225	120.117	82.5907	120.117	82.9285	120.117	82.6545	120.117	82.8302	120.117	82.7363
124.512	83.0721	124.512	83.0426	124.512	83.1048	124.512	83.0158	124.512	83.1414	124.512	82.9903	124.512	83.1816	124.512	82.965	124.512	83.2252	124.512	82.9381	124.512	83.2708	124.512	82.9084	124.512	83.3169	124.512	82.875	124.512	83.3607	124.512	82.8377	124.512	83.3986	124.512	82.7973	124.512	83.4263	124.512	82.7557	124.512	83.439	124.512	82.7164	124.512	83.4323	124.512	82.6836	124.512	83.4029	124.512	82.6625	124.512	83.3496	124.512	82.6583	124.512	83.2739	124.512	82.6754	124.512	83.1802	124.512	82.7164	124.512	83.0753	124.512	82.7814	124.512	82.9679	124.512	82.8673
128.906	83.28	128.906	83.2486	128.906	83.3139	128.906	83.2191	128.906	83.3506	128.906	83.1905	128.906	83.3903	128.906	83.1616	128.906	83.4323	128.906	83.1308	128.906	83.4758	128.906	83.0969	128.906	83.5192	128.906	83.059	128.906	83.5598	128.906	83.0168	128.906	83.5943	128.906	82.9713	128.906	83.6182	128.906	82.9245	128.906	83.6267	128.906	82.8797	128.906	83.6154	128.906	82.8416	128.906	83.5809	128.906	82.8156	128.906	83.5219	128.906	82.8072	128.906	83.4402	128.906	82.8212	128.906	83.3403	128.906	82.8605	128.906	83.2297	128.906	82.9256	128.906	83.1175	128.906	83.0133
133.301	83.4306	133.301	83.4001	133.301	83.4634	133.301	83.3713	133.301	83.4988	133.301	83.343	133.301	83.5369	133.301	83.314	133.301	83.5774	133.301	83.2829	133.301	83.6195	133.301	83.2483	133.301	83.6615	133.301	83.2091	133.301	83.701	133.301	83.1649	133.301	83.7341	133.301	83.1165	133.301	83.7563	133.301	83.0658	133.301	83.7625	133.301	83.0162	133.301	83.7479	133.301	82.9723	133.301	83.7092	133.301	82.9398	133.301	83.6451	133.301	82.9249	133.301	83.5578	133.301	82.9328	133.301	83.4523	133.301	82.9673	133.301	83.3369	133.301	83.0291	133.301	83.2214	133.301	83.1158
139.16	83.5021	139.16	83.4697	139.16	83.5367	139.16	83.4389	139.16	83.5741	139.16	83.4089	139.16	83.6148	139.16	83.3787	139.16	83.6591	139.16	83.3473	139.16	83.7068	139.16	83.3138	139.16	83.7571	139.16	83.2776	139.16	83.8078	139.16	83.2388	139.16	83.8552	139.16	83.1984	139.16	83.8943	139.16	83.1584	139.16	83.9191	139.16	83.1223	139.16	83.9236	139.16	83.0944	139.16	83.9029	139.16	83.0798	139.16	83.8546	139.16	83.0838	139.16	83.7795	139.16	83.1107	139.16	83.6818	139.16	83.1628	139.16	83.5692	139.16	83.24	139.16	83.4512	139.16	83.3384
143.555	83.7181	143.555	83.6815	143.555	83.7539	143.555	83.6439	143.555	83.7895	143.555	83.6048	143.555	83.8253	143.555	83.5637	143.555	83.8619	143.555	83.52	143.555	83.8997	143.555	83.473	143.555	83.9384	143.555	83.4229	143.555	83.9767	143.555	83.3699	143.555	84.0118	143.555	83.3158	143.555	84.0393	143.555	83.263	143.555	84.0537	143.555	83.2155	143.555	84.0491	143.555	83.1782	143.555	84.0206	143.555	83.1567	143.555	83.9652	143.555	83.1564	143.555	83.8835	143.555	83.1816	143.555	83.7795	143.555	83.2347	143.555	83.6605	143.555	83.3149	143.555	83.5365	143.555	83.418
147.949	83.8676	147.949	83.831	147.949	83.9018	147.949	83.7914	147.949	83.934	147.949	83.7481	147.949	83.965	147.949	83.7005	147.949	83.9955	147.949	83.6481	147.949	84.0258	147.949	83.5902	147.949	84.0559	147.949	83.5269	147.949	84.0846	147.949	83.4591	147.949	84.1092	147.949	83.3889	147.949	84.1256	147.949	83.3195	147.949	84.1284	147.949	83.2558	147.949	84.1121	147.949	83.2035	147.949	84.0718	147.949	83.169	147.949	84.0051	147.949	83.1587	147.949	83.9125	147.949	83.1774	147.949	83.7983	147.949	83.2274	147.949	83.6703	147.949	83.3079	147.949	83.5385	147.949	83.4143
153.809	83.9614	153.809	83.9245	153.809	83.9959	153.809	83.8846	153.809	84.0285	153.809	83.8413	153.809	84.0601	153.809	83.7939	153.809	84.0915	153.809	83.7418	153.809	84.1235	153.809	83.6842	153.809	84.1561	153.809	83.6211	153.809	84.1883	153.809	83.5532	153.809	84.2172	153.809	83.4822	153.809	84.238	153.809	83.4114	153.809	84.2449	153.809	83.3456	153.809	84.2313	153.809	83.2911	153.809	84.192	153.809	83.2545	153.809	84.1242	153.809	83.2428	153.809	84.0284	153.809	83.2612	153.809	83.9093	153.809	83.3125	153.809	83.7752	153.809	83.3961	153.809	83.6372	153.809	83.5072
159.668	84.1313	159.668	84.0971	159.668	84.1619	159.668	84.0592	159.668	84.1896	159.668	84.017	159.668	84.2153	159.668	83.9702	159.668	84.24	159.668	83.9181	159.668	84.2651	159.668	83.8603	159.668	84.2915	159.668	83.7969	159.668	84.3191	159.668	83.7288	159.668	84.3458	159.668	83.6582	159.668	84.3679	159.668	83.5885	159.668	84.3793	159.668	83.5251	159.668	84.3737	159.668	83.474	159.668	84.3447	159.668	83.442	159.668	84.2886	159.668	83.4354	159.668	84.2046	159.668	83.459	159.668	84.0963	159.668	83.5147	159.668	83.971	159.668	83.6009	159.668	83.839	159.668	83.7119
165.527	84.286	165.527	84.2412	165.527	84.3258	165.527	84.1918	165.527	84.3599	165.527	84.1381	165.527	84.3884	165.527	84.0802	165.527	84.4114	165.527	84.0175	165.527	84.4297	165.527	83.9494	165.527	84.4438	165.527	83.8757	165.527	84.4535	165.527	83.7967	165.527	84.4573	165.527	83.714	165.527	84.4523	165.527	83.6309	165.527	84.4343	165.527	83.5523	165.527	84.3985	165.527	83.4848	165.527	84.3409	165.527	83.4356	165.527	84.2594	165.527	83.4118	165.527	84.1548	165.527	83.4191	165.527	84.0317	165.527	83.4605	165.527	83.8977	165.527	83.5352	165.527	83.763	165.527	83.6387
171.387	84.3072	171.387	84.2649	171.387	84.3455	171.387	84.2187	171.387	84.3798	171.387	84.1684	171.387	84.4106	171.387	84.1137	171.387	84.4384	171.387	84.0538	171.387	84.4639	171.387	83.9878	171.387	84.487	171.387	83.915	171.387	84.5066	171.387	83.8355	171.387	84.5197	171.387	83.7507	171.387	84.5217	171.387	83.6637	171.387	84.5066	171.387	83.5793	171.387	84.4686	171.387	83.5044	171.387	84.4034	171.387	83.4466	171.387	84.3098	171.387	83.4138	171.387	84.1901	171.387	83.4129	171.387	84.0509	171.387	83.4482	171.387	83.9024	171.387	83.5202	171.387	83.7565	171.387	83.6255
177.246	84.2582	177.246	84.2163	177.246	84.297	177.246	84.1717	177.246	84.333	177.246	84.1247	177.246	84.3667	177.246	84.0753	177.246	84.3997	177.246	84.0231	177.246	84.4332	177.246	83.9676	177.246	84.4683	177.246	83.908	177.246	84.5042	177.246	83.8446	177.246	84.5378	177.246	83.7783	177.246	84.5638	177.246	83.7119	177.246	84.575	177.246	83.6499	177.246	84.5639	177.246	83.5981	177.246	84.5246	177.246	83.5634	177.246	84.4543	177.246	83.5527	177.246	84.3542	177.246	83.5714	177.246	84.2302	177.246	83.6228	177.246	84.0916	177.246	83.7065	177.246	83.9502	177.246	83.8183
183.105	84.234	183.105	84.1904	183.105	84.2709	183.105	84.1408	183.105	84.3017	183.105	84.0861	183.105	84.328	183.105	84.0276	183.105	84.3531	183.105	83.9662	183.105	84.3804	183.105	83.9024	183.105	84.413	183.105	83.8371	183.105	84.452	183.105	83.7715	183.105	84.4953	183.105	83.7075	183.105	84.5372	183.105	83.6485	183.105	84.5694	183.105	83.5992	183.105	84.5824	183.105	83.5651	183.105	84.5678	183.105	83.5524	183.105	84.5205	183.105	83.5664	183.105	84.4396	183.105	83.6106	183.105	84.3292	183.105	83.6859	183.105	84.1977	183.105	83.7898	183.105	84.056	183.105	83.9162
188.965	84.4584	188.965	84.4224	188.965	84.4796	188.965	84.3727	188.965	84.4867	188.965	84.3108	188.965	84.4819	188.965	84.2388	188.965	84.4693	188.965	84.1586	188.965	84.4545	188.965	84.0722	188.965	84.4432	188.965	83.9815	188.965	84.4398	188.965	83.8892	188.965	84.4455	188.965	83.7986	188.965	84.4577	188.965	83.7143	188.965	84.4696	188.965	83.6422	188.965	84.472	188.965	83.5887	188.965	84.4556	188.965	83.56	188.965	84.4135	188.965	83.5612	188.965	84.3426	188.965	83.5949	188.965	84.2451	188.965	83.6609	188.965	84.1273	188.965	83.7553	188.965	83.9989	188.965	83.8712
196.289	84.6044	196.289	84.562	196.289	84.631	196.289	84.5047	196.289	84.6417	196.289	84.4334	196.289	84.6376	196.289	84.349	196.289	84.6212	196.289	84.2525	196.289	84.5959	196.289	84.1446	196.289	84.5659	196.289	84.0266	196.289	84.5344	196.289	83.9011	196.289	84.5029	196.289	83.7721	196.289	84.4704	196.289	83.6458	196.289	84.4329	196.289	83.5302	196.289	84.3848	196.289	83.4345	196.289	84.3203	196.289	83.3676	196.289	84.2353	196.289	83.3368	196.289	84.1289	196.289	83.346	196.289	84.0039	196.289	83.3952	196.289	83.8667	196.289	83.4804	196.289	83.7265	196.289	83.5941
203.613	84.4914	203.613	84.4503	203.613	84.517	203.613	84.3948	203.613	84.5269	203.613	84.3265	203.613	84.5224	203.613	84.2466	203.613	84.5066	203.613	84.1561	203.613	84.4842	203.613	84.0556	203.613	84.4604	203.613	83.946	203.613	84.4393	203.613	83.829	203.613	84.4227	203.613	83.7081	203.613	84.4086	203.613	83.5891	203.613	84.3918	203.613	83.4797	203.613	84.3645	203.613	83.3894	203.613	84.3186	203.613	83.3278	203.613	84.2482	203.613	83.3029	203.613	84.151	203.613	83.3197	203.613	84.0291	203.613	83.3784	203.613	83.8894	203.613	83.4745	203.613	83.7421	203.613	83.5996
210.938	84.4485	210.938	84.4097	210.938	84.4711	210.938	84.3563	210.938	84.4773	210.938	84.2904	210.938	84.4684	210.938	84.2137	210.938	84.4477	210.938	84.1276	210.938	84.4199	210.938	84.0331	210.938	84.3905	210.938	83.9312	210.938	84.3637	210.938	83.8234	210.938	84.3409	210.938	83.7126	210.938	84.3202	210.938	83.6036	210.938	84.2962	210.938	83.5027	210.938	84.2616	210.938	83.4177	210.938	84.2095	210.938	83.3566	210.938	84.1356	210.938	83.3263	210.938	84.0391	210.938	83.3311	210.938	83.9239	210.938	83.3721	210.938	83.7971	210.938	83.4464	210.938	83.6683	210.938	83.548
218.262	84.3635	218.262	84.3144	218.262	84.3936	218.262	84.249	218.262	84.4037	218.262	84.1705	218.262	84.3952	218.262	84.0821	218.262	84.3719	218.262	83.9862	218.262	84.3405	218.262	83.885	218.262	84.3084	218.262	83.7802	218.262	84.2824	218.262	83.6743	218.262	84.2662	218.262	83.5707	218.262	84.2587	218.262	83.4746	218.262	84.2541	218.262	83.3926	218.262	84.2434	218.262	83.3321	218.262	84.2172	218.262	83.3	218.262	84.1682	218.262	83.3012	218.262	84.0933	218.262	83.3374	218.262	83.9942	218.262	83.4069	218.262	83.8766	218.262	83.5042	218.262	83.749	218.262	83.6214
225.586	84.3684	225.586	84.3202	225.586	84.3929	225.586	84.2511	225.586	84.392	225.586	84.1648	225.586	84.3671	225.586	84.0649	225.586	84.3222	225.586	83.9545	225.586	84.2643	225.586	83.836	225.586	84.2023	225.586	83.7117	225.586	84.1452	225.586	83.5846	225.586	84.0994	225.586	83.459	225.586	84.0668	225.586	83.341	225.586	84.0438	225.586	83.2385	225.586	84.0226	225.586	83.1603	225.586	83.9931	225.586	83.1145	225.586	83.9466	225.586	83.1068	225.586	83.8777	225.586	83.1387	225.586	83.7856	225.586	83.2074	225.586	83.674	225.586	83.3057	225.586	83.5502	225.586	83.4237
232.91	84.2873	232.91	84.2363	232.91	84.313	232.91	84.1635	232.91	84.3115	232.91	84.073	232.91	84.2833	232.91	83.9688	232.91	84.2318	232.91	83.8542	232.91	84.1634	232.91	83.7319	232.91	84.0866	232.91	83.6046	232.91	84.0105	232.91	83.4755	232.91	83.9423	232.91	83.3489	232.91	83.8853	232.91	83.2307	232.91	83.8382	232.91	83.1281	232.91	83.7953	232.91	83.0484	232.91	83.7489	232.91	82.9986	232.91	83.6922	232.91	82.9827	232.91	83.6207	232.91	83.0016	232.91	83.5339	232.91	83.0526	232.91	83.4349	232.91	83.1295	232.91	83.3293	232.91	83.2247
241.699	84.1596	241.699	84.0884	241.699	84.2042	241.699	83.9954	241.699	84.2194	241.699	83.8859	241.699	84.2052	241.699	83.7652	241.699	84.1652	241.699	83.6371	241.699	84.1061	241.699	83.5048	241.699	84.0368	241.699	83.3705	241.699	83.9659	241.699	83.2372	241.699	83.8994	241.699	83.1088	241.699	83.839	241.699	82.991	241.699	83.782	241.699	82.8909	241.699	83.7223	241.699	82.816	241.699	83.6535	241.699	82.7724	241.699	83.5714	241.699	82.7636	241.699	83.4751	241.699	82.7891	241.699	83.3672	241.699	82.8455	241.699	83.2524	241.699	82.9267	241.699	83.1367	241.699	83.0259
250.488	84.3154	250.488	84.2334	250.488	84.3631	250.488	84.1223	250.488	84.3735	250.488	83.9881	250.488	84.3467	250.488	83.8368	250.488	84.2869	250.488	83.6736	250.488	84.2023	250.488	83.5026	250.488	84.104	250.488	83.3279	250.488	84.0043	250.488	83.1541	250.488	83.9133	250.488	82.9875	250.488	83.8364	250.488	82.8367	250.488	83.7726	250.488	82.712	250.488	83.7153	250.488	82.624	250.488	83.6552	250.488	82.5811	250.488	83.5833	250.488	82.5868	250.488	83.4939	250.488	82.6389	250.488	83.3856	250.488	82.7299	250.488	83.2607	250.488	82.8488	250.488	83.1243	250.488	82.9839
259.277	84.0829	259.277	83.9977	259.277	84.1371	259.277	83.8868	259.277	84.1573	259.277	83.7565	259.277	84.1441	259.277	83.613	259.277	84.1014	259.277	83.4615	259.277	84.0367	259.277	83.3057	259.277	83.9594	259.277	83.1486	259.277	83.8789	259.277	82.9931	259.277	83.8017	259.277	82.8433	259.277	83.7299	259.277	82.7056	259.277	83.6604	259.277	82.5886	259.277	83.5873	259.277	82.5019	259.277	83.5044	259.277	82.4539	259.277	83.4078	259.277	82.4495	259.277	83.2972	259.277	82.4878	259.277	83.1752	259.277	82.5628	259.277	83.0459	259.277	82.6652	259.277	82.9142	259.277	82.7851
268.066	84.0283	268.066	83.9394	268.066	84.078	268.066	83.8167	268.066	84.0858	268.066	83.6669	268.066	84.0528	268.066	83.4967	268.066	83.9852	268.066	83.3122	268.066	83.894	268.066	83.1188	268.066	83.7939	268.066	82.9217	268.066	83.7004	268.066	82.7269	268.066	83.625	268.066	82.5417	268.066	83.5712	268.066	82.3762	268.066	83.533	268.066	82.2419	268.066	83.4975	268.066	82.1507	268.066	83.4492	268.066	82.1121	268.066	83.3762	268.066	82.13	268.066	83.2724	268.066	82.2017	268.066	83.139	268.066	82.3182	268.066	82.9822	268.066	82.4673	268.066	82.811	268.066	82.6356
276.855	84.0416	276.855	83.9615	276.855	84.0817	276.855	83.8478	276.855	84.0778	276.855	83.7087	276.855	84.0302	276.855	83.552	276.855	83.9441	276.855	83.3848	276.855	83.8297	276.855	83.2122	276.855	83.7017	276.855	83.0388	276.855	83.5768	276.855	82.8686	276.855	83.4699	276.855	82.7063	276.855	83.3901	276.855	82.5588	276.855	83.3371	276.855	82.4346	276.855	83.3014	276.855	82.3432	276.855	83.2684	276.855	82.2935	276.855	83.2233	276.855	82.2908	276.855	83.1559	276.855	82.3352	276.855	83.0623	276.855	82.4207	276.855	82.9451	276.855	82.537	276.855	82.8116	276.855	82.6716
287.109	83.8193	287.109	83.7243	287.109	83.8697	287.109	83.591	287.109	83.8728	287.109	83.4278	287.109	83.8301	287.109	83.2438	287.109	83.7486	287.109	83.0482	287.109	83.6403	287.109	82.8497	287.109	83.5214	287.109	82.6565	287.109	83.4094	287.109	82.4768	287.109	83.3193	287.109	82.3193	287.109	83.2593	287.109	82.1931	287.109	83.2283	287.109	82.1077	287.109	83.217	287.109	82.0706	287.109	83.2106	287.109	82.0859	287.109	83.1942	287.109	82.1519	287.109	83.1556	287.109	82.2611	287.109	83.0879	287.109	82.4014	287.109	82.9895	287.109	82.5579	287.109	82.8633	287.109	82.7161
297.363	83.9382	297.363	83.8732	297.363	83.9492	297.363	83.7608	297.363	83.9021	297.363	83.6091	297.363	83.7973	297.363	83.426	297.363	83.6408	297.363	83.2183	297.363	83.4449	297.363	82.9925	297.363	83.228	297.363	82.7554	297.363	83.0129	297.363	82.5164	297.363	82.8235	297.363	82.2887	297.363	82.6798	297.363	82.0901	297.363	82.5927	297.363	81.9406	297.363	82.5611	297.363	81.8577	297.363	82.5729	297.363	81.8507	297.363	82.6081	297.363	81.9157	297.363	82.6443	297.363	82.0363	297.363	82.661	297.363	82.1878	297.363	82.6433	297.363	82.3436	297.363	82.5833	297.363	82.4807
307.617	83.8507	307.617	83.7443	307.617	83.9069	307.617	83.5974	307.617	83.906	307.617	83.4206	307.617	83.845	307.617	83.2234	307.617	83.727	307.617	83.0131	307.617	83.5612	307.617	82.7947	307.617	83.3626	307.617	82.5714	307.617	83.1497	307.617	82.3463	307.617	82.9413	307.617	82.1252	307.617	82.7522	307.617	81.9183	307.617	82.5908	307.617	81.7405	307.617	82.4593	307.617	81.6095	307.617	82.3556	307.617	81.5404	307.617	82.2755	307.617	81.539	307.617	82.2124	307.617	81.5981	307.617	82.1572	307.617	81.6987	307.617	82.0982	307.617	81.8164	307.617	82.0243	307.617	81.9294
319.336	83.5739	319.336	83.4559	319.336	83.641	319.336	83.2964	319.336	83.6504	319.336	83.1061	319.336	83.5995	319.336	82.8955	319.336	83.4911	319.336	82.6736	319.336	83.3339	319.336	82.4478	319.336	83.1424	319.336	82.2241	319.336	82.9358	319.336	82.0085	319.336	82.7344	319.336	81.8082	319.336	82.5552	319.336	81.6323	319.336	82.4077	319.336	81.4918	319.336	82.2926	319.336	81.3981	319.336	82.2039	319.336	81.3595	319.336	82.1329	319.336	81.3774	319.336	82.071	319.336	81.4441	319.336	82.0105	319.336	81.544	319.336	81.9437	319.336	81.6576	319.336	81.864	319.336	81.7678
329.59	83.4609	329.59	83.3398	329.59	83.5317	329.59	83.1772	329.59	83.5467	329.59	82.983	329.59	83.5044	329.59	82.7668	329.59	83.4079	329.59	82.5366	329.59	83.265	329.59	82.2983	329.59	83.0874	329.59	82.0574	329.59	82.8898	329.59	81.8209	329.59	82.688	329.59	81.5995	329.59	82.4967	329.59	81.4078	329.59	82.3269	329.59	81.2623	329.59	82.1846	329.59	81.1768	329.59	82.0698	329.59	81.1572	329.59	81.9786	329.59	81.1982	329.59	81.9045	329.59	81.2842	329.59	81.8393	329.59	81.3944	329.59	81.7743	329.59	81.5087	329.59	81.701	329.59	81.6129
341.309	83.453	341.309	83.316	341.309	83.5191	341.309	83.1185	341.309	83.5099	341.309	82.8749	341.309	83.4294	341.309	82.6012	341.309	83.2899	341.309	82.3125	341.309	83.1121	341.309	82.021	341.309	82.9215	341.309	81.7354	341.309	82.7426	341.309	81.4626	341.309	82.5916	341.309	81.2106	341.309	82.4714	341.309	80.9914	341.309	82.3728	341.309	80.8225	341.309	82.2812	341.309	80.7229	341.309	82.1849	341.309	80.7062	341.309	82.0794	341.309	80.7726	341.309	81.9665	341.309	80.9059	341.309	81.8487	341.309	81.0789	341.309	81.7252	341.309	81.2627	341.309	81.5899	341.309	81.4361
353.027	83.401	353.027	83.2936	353.027	83.4397	353.027	83.1278	353.027	83.4035	353.027	82.9165	353.027	83.2928	353.027	82.6728	353.027	83.116	353.027	82.4081	353.027	82.8906	353.027	82.1313	353.027	82.6424	353.027	81.8487	353.027	82.4016	353.027	81.5662	353.027	82.1956	353.027	81.2912	353.027	82.0397	353.027	81.0362	353.027	81.9323	353.027	80.8196	353.027	81.8575	353.027	80.6635	353.027	81.7943	353.027	80.5867	353.027	81.7259	353.027	80.5965	353.027	81.6438	353.027	80.6831	353.027	81.5457	353.027	80.8226	353.027	81.4314	353.027	80.9862	353.027	81.2997	353.027	81.1499
366.211	83.444	366.211	83.3145	366.211	83.497	366.211	83.121	366.211	83.4653	366.211	82.8781	366.211	83.3458	366.211	82.6009	366.211	83.1426	366.211	82.303	366.211	82.8688	366.211	81.9953	366.211	82.5481	366.211	81.6866	366.211	82.2161	366.211	81.3847	366.211	81.915	366.211	81.099	366.211	81.6836	366.211	80.8426	366.211	81.5421	366.211	80.6327	366.211	81.4826	366.211	80.4887	366.211	81.4746	366.211	80.4261	366.211	81.4802	366.211	80.45	366.211	81.4688	366.211	80.5501	366.211	81.4229	366.211	80.7033	366.211	81.3371	366.211	80.881	366.211	81.213	366.211	81.0572
379.395	83.2516	379.395	83.1132	379.395	83.3201	379.395	82.9166	379.395	83.3108	379.395	82.6759	379.395	83.2216	379.395	82.4051	379.395	83.0574	379.395	82.1166	379.395	82.8306	379.395	81.8207	379.395	82.5602	379.395	81.5261	379.395	82.2699	379.395	81.2412	379.395	81.9846	379.395	80.9769	379.395	81.7268	379.395	80.7481	379.395	81.5144	379.395	80.5745	379.395	81.3596	379.395	80.4759	379.395	81.2676	379.395	80.4656	379.395	81.2345	379.395	80.5419	379.395	81.2444	379.395	80.6852	379.395	81.271	379.395	80.862	379.395	81.2835	379.395	81.0348	379.395	81.2553	379.395	81.1719
392.578	82.9614	392.578	82.8206	392.578	83.0274	392.578	82.6209	392.578	83.0085	392.578	82.381	392.578	82.9025	392.578	82.1186	392.578	82.7166	392.578	81.8465	392.578	82.4676	392.578	81.5716	392.578	82.1811	392.578	81.2959	392.578	81.8876	392.578	81.0204	392.578	81.6158	392.578	80.7507	392.578	81.3852	392.578	80.5011	392.578	81.2015	392.578	80.2952	392.578	81.06	392.578	80.1608	392.578	80.9538	392.578	80.1188	392.578	80.8792	392.578	80.171	392.578	80.835	392.578	80.2949	392.578	80.8152	392.578	80.4517	392.578	80.8038	392.578	80.6005	392.578	80.7767	392.578	80.7121
405.762	82.8043	405.762	82.6324	405.762	82.8892	405.762	82.3884	405.762	82.8779	405.762	82.0914	405.762	82.7682	405.762	81.7624	405.762	82.5667	405.762	81.4219	405.762	82.2901	405.762	81.087	405.762	81.9664	405.762	80.7696	405.762	81.6328	405.762	80.4766	405.762	81.3292	405.762	80.2122	405.762	81.0857	405.762	79.9817	405.762	80.9121	405.762	79.7959	405.762	80.7961	405.762	79.6715	405.762	80.7142	405.762	79.6261	405.762	80.6464	405.762	79.6669	405.762	80.583	405.762	79.7825	405.762	80.5205	405.762	79.9429	405.762	80.4537	405.762	80.1112	405.762	80.3706	405.762	80.2579
420.41	82.694	420.41	82.5228	420.41	82.7954	420.41	82.2966	420.41	82.8176	420.41	82.0335	420.41	82.758	420.41	81.7516	420.41	82.621	420.41	81.4646	420.41	82.4173	420.41	81.1795	420.41	82.1628	420.41	80.8968	420.41	81.8758	420.41	80.6131	420.41	81.5731	420.41	80.3269	420.41	81.267	420.41	80.0446	420.41	80.9666	420.41	79.784	420.41	80.6816	420.41	79.574	420.41	80.4276	420.41	79.4464	420.41	80.2249	420.41	79.4204	420.41	80.0889	420.41	79.4893	420.41	80.0166	420.41	79.6185	420.41	79.9817	420.41	79.7605	420.41	79.9454	420.41	79.8752
435.059	82.4006	435.059	82.2335	435.059	82.4827	435.059	81.9992	435.059	82.4719	435.059	81.7219	435.059	82.3722	435.059	81.4275	435.059	82.1999	435.059	81.1384	435.059	81.9819	435.059	80.869	435.059	81.7499	435.059	80.6238	435.059	81.5297	435.059	80.3997	435.059	81.332	435.059	80.1916	435.059	81.1488	435.059	79.9981	435.059	80.9617	435.059	79.8257	435.059	80.7567	435.059	79.6892	435.059	80.5371	435.059	79.6065	435.059	80.3262	435.059	79.5894	435.059	80.1554	435.059	79.6343	435.059	80.0435	435.059	79.7197	435.059	79.9826	435.059	79.8144	435.059	79.9425	435.059	79.8915
451.172	82.1908	451.172	81.9824	451.172	82.3037	451.172	81.7033	451.172	82.308	451.172	81.3868	451.172	82.2043	451.172	81.0691	451.172	82.0091	451.172	80.7802	451.172	81.7544	451.172	80.535	451.172	81.4842	451.172	80.3286	451.172	81.242	451.172	80.1397	451.172	81.0517	451.172	79.9414	451.172	80.9032	451.172	79.7145	451.172	80.7562	451.172	79.4578	451.172	80.5624	451.172	79.1923	451.172	80.2921	451.172	78.9566	451.172	79.9514	451.172	78.7896	451.172	79.5846	451.172	78.7087	451.172	79.2561	451.172	78.7004	451.172	79.0154	451.172	78.7334	451.172	78.8692	451.172	78.7867
465.82	81.2578	465.82	81.0363	465.82	81.3547	465.82	80.7205	465.82	81.3199	465.82	80.3607	465.82	81.1711	465.82	80.0216	465.82	80.9542	465.82	79.7675	465.82	80.7415	465.82	79.6401	465.82	80.6156	465.82	79.6408	465.82	80.6329	465.82	79.7312	465.82	80.7873	465.82	79.8512	465.82	81.0089	465.82	79.9419	465.82	81.2013	465.82	79.9616	465.82	81.2819	465.82	79.8923	465.82	81.2027	465.82	79.742	465.82	80.9566	465.82	79.5411	465.82	80.5755	465.82	79.3355	465.82	80.1261	465.82	79.1752	465.82	79.6938	465.82	79.1048	465.82	79.3565	465.82	79.1584
483.398	83.0996	483.398	82.7618	483.398	83.201	483.398	82.2007	483.398	83.0522	483.398	81.4326	483.398	82.6406	483.398	80.4872	483.398	81.9634	483.398	79.4297	483.398	81.0505	483.398	78.4	483.398	80.0202	483.398	77.6412	483.398	79.1591	483.398	77.4168	483.398	78.8797	483.398	77.7881	483.398	79.3477	483.398	78.5459	483.398	80.2636	483.398	79.4179	483.398	81.2265	483.398	80.2289	483.398	82.0131	483.398	80.906	483.398	82.5544	483.398	81.438	483.398	82.8587	483.398	81.8447	483.398	82.9672	483.398	82.1582	483.398	82.9326	483.398	82.4111	483.398	82.8058	483.398	82.6257
499.512	84.0671	499.512	83.8213	499.512	84.1546	499.512	83.4271	499.512	84.0688	499.512	82.8884	499.512	83.7903	499.512	82.2032	499.512	83.2978	499.512	81.3664	499.512	82.5723	499.512	80.3783	499.512	81.6094	499.512	79.266	499.512	80.4538	499.512	78.1282	499.512	79.2743	499.512	77.1996	499.512	78.4462	499.512	76.8279	499.512	78.3889	499.512	77.2014	499.512	79.087	499.512	78.1204	499.512	80.1081	499.512	79.2269	499.512	81.0833	499.512	80.2772	499.512	81.8532	499.512	81.1646	499.512	82.3812	499.512	81.8566	499.512	82.6776	499.512	82.3506	499.512	82.7628	499.512	82.6518
517.09	83.2464	517.09	83.0565	517.09	83.3159	517.09	82.7581	517.09	83.254	517.09	82.3621	517.09	83.052	517.09	81.8753	517.09	82.7036	517.09	81.2975	517.09	82.2052	517.09	80.6219	517.09	81.5601	517.09	79.8401	517.09	80.7868	517.09	78.9559	517.09	79.9356	517.09	78.0143	517.09	79.1109	517.09	77.1476	517.09	78.4816	517.09	76.6006	517.09	78.2313	517.09	76.6189	517.09	78.4326	517.09	77.2107	517.09	78.972	517.09	78.122	517.09	79.637	517.09	79.0703	517.09	80.2415	517.09	79.879	517.09	80.6696	517.09	80.4654	517.09	80.8628	517.09	80.7965
536.133	82.9499	536.133	82.7106	536.133	83.0481	536.133	82.3553	536.133	82.9841	536.133	81.9102	536.133	82.7423	536.133	81.3987	536.133	82.3134	536.133	80.835	536.133	81.7003	536.133	80.2214	536.133	80.9315	536.133	79.5502	536.133	80.0855	536.133	78.8149	536.133	79.3058	536.133	78.0319	536.133	78.7615	536.133	77.2733	536.133	78.5323	536.133	76.6936	536.133	78.5467	536.133	76.4937	536.133	78.6758	536.133	76.7744	536.133	78.8506	536.133	77.4218	536.133	79.0708	536.133	78.1999	536.133	79.3345	536.133	78.9054	536.133	79.5871	536.133	79.4202	536.133	79.7357	536.133	79.6959
555.176	82.965	555.176	82.6514	555.176	83.1549	555.176	82.2398	555.176	83.2002	555.176	81.7594	555.176	83.0824	555.176	81.2398	555.176	82.7827	555.176	80.7037	555.176	82.2809	555.176	80.161	555.176	81.5602	555.176	79.6049	555.176	80.6219	555.176	79.0156	555.176	79.5208	555.176	78.3739	555.176	78.427	555.176	77.6871	555.176	77.6584	555.176	77.0273	555.176	77.5051	555.176	76.5601	555.176	77.914	555.176	76.4914	555.176	78.5574	555.176	76.8938	555.176	79.1573	555.176	77.6117	555.176	79.5844	555.176	78.3988	555.176	79.7982	555.176	79.073	555.176	79.7872	555.176	79.5452
574.219	83.1699	574.219	82.8573	574.219	83.3395	574.219	82.4217	574.219	83.3544	574.219	81.8901	574.219	83.2102	574.219	81.2939	574.219	82.9072	574.219	80.6654	574.219	82.4474	574.219	80.0337	574.219	81.833	574.219	79.4195	574.219	81.0698	574.219	78.8329	574.219	80.1779	574.219	78.278	574.219	79.213	574.219	77.7704	574.219	78.2978	574.219	77.3618	574.219	77.6362	574.219	77.1495	574.219	77.4353	574.219	77.2332	574.219	77.7277	574.219	77.6272	574.219	78.3186	574.219	78.2215	574.219	78.9483	574.219	78.8461	574.219	79.4315	574.219	79.3523	574.219	79.6741	574.219	79.6444
594.727	82.7439	594.727	82.4789	594.727	82.8635	594.727	82.0893	594.727	82.8252	594.727	81.6021	594.727	82.6233	594.727	81.0447	594.727	82.2578	594.727	80.4367	594.727	81.7383	594.727	79.7865	594.727	81.0942	594.727	79.0963	594.727	80.3846	594.727	78.3742	594.727	79.691	594.727	77.6455	594.727	79.075	594.727	76.9614	594.727	78.5297	594.727	76.4078	594.727	78.0003	594.727	76.1067	594.727	77.4919	594.727	76.1739	594.727	77.1636	594.727	76.6191	594.727	77.2313	594.727	77.2964	594.727	77.6848	594.727	77.9873	594.727	78.2495	594.727	78.5077	594.727	78.6492	594.727	78.7441
615.234	82.7761	615.234	82.453	615.234	82.9468	615.234	82.0038	615.234	82.9463	615.234	81.4635	615.234	82.7603	615.234	80.8703	615.234	82.3755	615.234	80.2566	615.234	81.7816	615.234	79.6383	615.234	80.9844	615.234	79.0108	615.234	80.0358	615.234	78.3587	615.234	79.075	615.234	77.6753	615.234	78.3305	615.234	76.9884	615.234	77.9865	615.234	76.3832	615.234	77.9975	615.234	76.0042	615.234	78.1482	615.234	75.995	615.234	78.2768	615.234	76.3806	615.234	78.3636	615.234	77.0191	615.234	78.4616	615.234	77.6962	615.234	78.5822	615.234	78.239	615.234	78.6502	615.234	78.5585
637.207	82.757	637.207	82.393	637.207	82.9813	637.207	81.9087	637.207	83.0508	637.207	81.3325	637.207	82.9513	637.207	80.7028	637.207	82.667	637.207	80.0621	637.207	82.1825	637.207	79.4425	637.207	81.4864	637.207	78.8516	637.207	80.5804	637.207	78.268	637.207	79.5012	637.207	77.657	637.207	78.3657	637.207	77.0029	637.207	77.4159	637.207	76.3486	637.207	76.9377	637.207	75.8303	637.207	76.9923	637.207	75.6528	637.207	77.3463	637.207	75.9404	637.207	77.7452	637.207	76.5841	637.207	78.0756	637.207	77.3223	637.207	78.3077	637.207	77.9296	637.207	78.4024	637.207	78.2936
659.18	82.6744	659.18	82.3406	659.18	82.8539	659.18	81.8743	659.18	82.8695	659.18	81.3141	659.18	82.7177	659.18	80.7152	659.18	82.3957	659.18	80.1373	659.18	81.8993	659.18	79.6206	659.18	81.2276	659.18	79.1628	659.18	80.3981	659.18	78.7195	659.18	79.469	659.18	78.231	659.18	78.5503	659.18	77.6588	659.18	77.7822	659.18	77.0207	659.18	77.2833	659.18	76.4299	659.18	77.1215	659.18	76.1072	659.18	77.3054	659.18	76.2623	659.18	77.7492	659.18	76.8662	659.18	78.2755	659.18	77.6497	659.18	78.6966	659.18	78.3355	659.18	78.8816	659.18	78.7647
682.617	83.3313	682.617	82.8957	682.617	83.569	682.617	82.2758	682.617	83.6121	682.617	81.5067	682.617	83.4699	682.617	80.6472	682.617	83.1452	682.617	79.7763	682.617	82.6254	682.617	78.9793	682.617	81.8894	682.617	78.3187	682.617	80.9329	682.617	77.8046	682.617	79.8161	682.617	77.3961	682.617	78.7209	682.617	77.0378	682.617	77.9343	682.617	76.708	682.617	77.6473	682.617	76.462	682.617	77.7878	682.617	76.4448	682.617	78.1777	682.617	76.8051	682.617	78.6981	682.617	77.5252	682.617	79.2435	682.617	78.3928	682.617	79.669	682.617	79.1619	682.617	79.8361	682.617	79.6677
707.52	83.2686	707.52	82.9512	707.52	83.4088	707.52	82.4569	707.52	83.3815	707.52	81.8009	707.52	83.1961	707.52	81.0162	707.52	82.8505	707.52	80.1574	707.52	82.3284	707.52	79.3083	707.52	81.6066	707.52	78.5683	707.52	80.6723	707.52	77.9961	707.52	79.5455	707.52	77.5472	707.52	78.3048	707.52	77.0987	707.52	77.1125	707.52	76.5539	707.52	76.2149	707.52	75.9414	707.52	75.865	707.52	75.472	707.52	76.1491	707.52	75.471	707.52	76.8875	707.52	76.0751	707.52	77.7488	707.52	77.0338	707.52	78.428	707.52	77.9556	707.52	78.7278	707.52	78.5641
732.422	82.8686	732.422	82.6737	732.422	82.9031	732.422	82.3159	732.422	82.7889	732.422	81.8024	732.422	82.5404	732.422	81.1464	732.422	82.163	732.422	80.3684	732.422	81.649	732.422	79.5065	732.422	80.9871	732.422	78.6327	732.422	80.1815	732.422	77.8536	732.422	79.265	732.422	77.2668	732.422	78.3018	732.422	76.8867	732.422	77.3806	732.422	76.6357	732.422	76.6098	732.422	76.4362	732.422	76.1223	732.422	76.318	732.422	76.0759	732.422	76.4311	732.422	76.5505	732.422	76.8937	732.422	77.3697	732.422	77.6034	732.422	78.1689	732.422	78.2845	732.422	78.6488	732.422	78.681
757.324	82.2354	757.324	81.9146	757.324	82.4319	757.324	81.4794	757.324	82.5093	757.324	80.9543	757.324	82.4706	757.324	80.3628	757.324	82.2941	757.324	79.7103	757.324	81.9243	757.324	78.9869	757.324	81.2881	757.324	78.1974	757.324	80.3334	757.324	77.4014	757.324	79.0906	757.324	76.7049	757.324	77.7518	757.324	76.1688	757.324	76.687	757.324	75.7452	757.324	76.219	757.324	75.3815	757.324	76.3231	757.324	75.1993	757.324	76.7483	757.324	75.4696	757.324	77.2982	757.324	76.26	757.324	77.8739	757.324	77.2655	757.324	78.3785	757.324	78.1163	757.324	78.6676	757.324	78.6016
785.156	82.0379	785.156	81.9253	785.156	81.9855	785.156	81.6292	785.156	81.7968	785.156	81.1502	785.156	81.4919	785.156	80.508	785.156	81.0653	785.156	79.7364	785.156	80.4863	785.156	78.8786	785.156	79.7275	785.156	77.9866	785.156	78.8115	785.156	77.1317	785.156	77.8367	785.156	76.4155	785.156	76.9158	785.156	75.9409	785.156	76.0519	785.156	75.7237	785.156	75.1676	785.156	75.6464	785.156	74.3719	785.156	75.5713	785.156	74.1213	785.156	75.5149	785.156	74.7051	785.156	75.6721	785.156	75.7232	785.156	76.1574	785.156	76.628	785.156	76.7667	785.156	77.1363	785.156	77.1644
811.523	82.2775	811.523	82.104	811.523	82.3435	811.523	81.8237	811.523	82.3112	811.523	81.4381	811.523	82.19	811.523	80.9465	811.523	81.9655	811.523	80.3591	811.523	81.5878	811.523	79.7009	811.523	80.985	811.523	78.9731	811.523	80.0913	811.523	78.1101	811.523	78.8784	811.523	77.0327	811.523	77.4157	811.523	75.8131	811.523	75.9827	811.523	74.7973	811.523	75.0567	811.523	74.3639	811.523	74.8371	811.523	74.4947	811.523	75.0481	811.523	74.9896	811.523	75.5444	811.523	75.7744	811.523	76.3747	811.523	76.7252	811.523	77.3102	811.523	77.5685	811.523	77.9396	811.523	78.0275
840.82	82.2574	840.82	82.0217	840.82	82.415	840.82	81.7309	840.82	82.4788	840.82	81.4023	840.82	82.4421	840.82	81.0309	840.82	82.2996	840.82	80.5913	840.82	82.0339	840.82	80.0732	840.82	81.6063	840.82	79.5175	840.82	80.9601	840.82	78.9797	840.82	80.0357	840.82	78.4236	840.82	78.7901	840.82	77.7025	840.82	77.2392	840.82	76.714	840.82	75.6123	840.82	75.6342	840.82	74.6247	840.82	75.0392	840.82	74.9801	840.82	75.4012	840.82	76.1817	840.82	76.4275	840.82	77.3964	840.82	77.5447	840.82	78.2902	840.82	78.3959	840.82	78.7793	840.82	78.8214
870.117	83.4322	870.117	83.2534	870.117	83.2739	870.117	82.7049	870.117	82.8705	870.117	81.8387	870.117	82.3315	870.117	80.8098	870.117	81.7313	870.117	79.8606	870.117	81.0873	870.117	79.1929	870.117	80.3847	870.117	78.7988	870.117	79.6163	870.117	78.5137	870.117	78.7988	870.117	78.2085	870.117	77.9615	870.117	77.8327	870.117	77.1259	870.117	77.3257	870.117	76.2953	870.117	76.6071	870.117	75.5037	870.117	75.7695	870.117	75.0218	870.117	75.3302	870.117	75.4112	870.117	75.832	870.117	76.6506	870.117	76.9494	870.117	77.9123	870.117	78.0007	870.117	78.6093	870.117	78.612
900.879	83.4315	900.879	83.2231	900.879	83.3243	900.879	82.7211	900.879	82.9486	900.879	82.0014	900.879	82.398	900.879	81.1447	900.879	81.7634	900.879	80.2024	900.879	81.0888	900.879	79.2275	900.879	80.3564	900.879	78.336	900.879	79.5005	900.879	77.6568	900.879	78.4269	900.879	77.1665	900.879	77.0461	900.879	76.6863	900.879	75.4248	900.879	76.0755	900.879	74.1562	900.879	75.3263	900.879	74.0736	900.879	74.5295	900.879	74.7539	900.879	73.9444	900.879	75.378	900.879	74.0835	900.879	75.9478	900.879	75.0938	900.879	76.6314	900.879	76.3109	900.879	77.1382	900.879	77.072
933.105	82.9336	933.105	82.9034	933.105	82.7164	933.105	82.5736	933.105	82.3289	933.105	81.9516	933.105	81.8224	933.105	81.0978	933.105	81.2025	933.105	80.0768	933.105	80.4605	933.105	78.9048	933.105	79.6117	933.105	77.5913	933.105	78.7083	933.105	76.3166	933.105	77.825	933.105	75.5086	933.105	77.0072	933.105	75.3856	933.105	76.2207	933.105	75.5655	933.105	75.411	933.105	75.5673	933.105	74.6505	933.105	75.2479	933.105	74.2615	933.105	74.8922	933.105	74.7699	933.105	75.1161	933.105	76.1662	933.105	76.1566	933.105	77.6017	933.105	77.4385	933.105	78.3818	933.105	78.297
965.332	83.4746	965.332	83.2634	965.332	83.3139	965.332	82.6502	965.332	82.8663	965.332	81.6913	965.332	82.2204	965.332	80.5476	965.332	81.4336	965.332	79.4513	965.332	80.5411	965.332	78.5427	965.332	79.5619	965.332	77.7573	965.332	78.4984	965.332	77.0045	965.332	77.3772	965.332	76.336	965.332	76.2395	965.332	75.8265	965.332	74.994	965.332	75.4062	965.332	73.5007	965.332	74.9531	965.332	72.3097	965.332	74.5075	965.332	72.7124	965.332	74.3854	965.332	74.2979	965.332	74.9801	965.332	75.966	965.332	76.1882	965.332	77.3358	965.332	77.4163	965.332	78.1283	965.332	78.1479
1,000.49	83.2669	1,000.49	83.1419	1,000.49	83.152	1,000.49	82.675	1,000.49	82.8658	1,000.49	81.8006	1,000.49	82.3951	1,000.49	80.5332	1,000.49	81.6857	1,000.49	79.0107	1,000.49	80.7209	1,000.49	77.533	1,000.49	79.5598	1,000.49	76.4685	1,000.49	78.34	1,000.49	75.9284	1,000.49	77.2498	1,000.49	75.6636	1,000.49	76.3762	1,000.49	75.4412	1,000.49	75.5256	1,000.49	75.2505	1,000.49	74.3957	1,000.49	75.07	1,000.49	72.9738	1,000.49	74.7046	1,000.49	71.7006	1,000.49	74.1454	1,000.49	71.5097	1,000.49	74.0419	1,000.49	73.2145	1,000.49	75.0333	1,000.49	75.521	1,000.49	76.4277	1,000.49	76.976	1,000.49	77.2332
1,035.64	82.8513	1,035.64	82.9294	1,035.64	82.5531	1,035.64	82.701	1,035.64	82.0718	1,035.64	82.0614	1,035.64	81.3869	1,035.64	80.94	1,035.64	80.4738	1,035.64	79.3841	1,035.64	79.3967	1,035.64	77.6276	1,035.64	78.2997	1,035.64	75.9939	1,035.64	77.2227	1,035.64	74.6208	1,035.64	76.0274	1,035.64	73.5453	1,035.64	74.637	1,035.64	73.1415	1,035.64	73.2106	1,035.64	73.699	1,035.64	71.9633	1,035.64	74.6184	1,035.64	71.2703	1,035.64	75.111	1,035.64	71.7967	1,035.64	74.929	1,035.64	73.081	1,035.64	74.5614	1,035.64	74.3838	1,035.64	74.9339	1,035.64	75.6831	1,035.64	75.9802	1,035.64	76.6321	1,035.64	76.7393
1,072.27	82.5521	1,072.27	82.5076	1,072.27	82.4516	1,072.27	82.2855	1,072.27	82.1311	1,072.27	81.7902	1,072.27	81.4543	1,072.27	80.9224	1,072.27	80.3595	1,072.27	79.6102	1,072.27	78.9733	1,072.27	77.8197	1,072.27	77.5876	1,072.27	75.6359	1,072.27	76.4736	1,072.27	73.5951	1,072.27	75.7205	1,072.27	72.6956	1,072.27	75.2487	1,072.27	72.8681	1,072.27	74.8222	1,072.27	73.1734	1,072.27	74.1067	1,072.27	73.3174	1,072.27	72.9567	1,072.27	73.4325	1,072.27	71.7628	1,072.27	73.5651	1,072.27	71.4889	1,072.27	73.8424	1,072.27	72.8637	1,072.27	74.6254	1,072.27	74.9635	1,072.27	75.8032	1,072.27	76.3792	1,072.27	76.6037
1,108.89	82.3465	1,108.89	82.3813	1,108.89	82.1213	1,108.89	82.1567	1,108.89	81.7301	1,108.89	81.5717	1,108.89	81.1105	1,108.89	80.5236	1,108.89	80.1228	1,108.89	79.0012	1,108.89	78.6992	1,108.89	77.1771	1,108.89	77.0606	1,108.89	75.3725	1,108.89	75.7893	1,108.89	73.9333	1,108.89	75.2665	1,108.89	73.1793	1,108.89	74.9899	1,108.89	73.0563	1,108.89	74.1659	1,108.89	73.059	1,108.89	72.4768	1,108.89	73.0705	1,108.89	71.2783	1,108.89	73.5732	1,108.89	72.8884	1,108.89	74.6706	1,108.89	75.0819	1,108.89	75.9653	1,108.89	76.4801	1,108.89	77.2102	1,108.89	77.5027	1,108.89	78.1991	1,108.89	78.3408	1,108.89	78.6357
1,148.44	84.301	1,148.44	83.8047	1,148.44	84.5239	1,148.44	83.2139	1,148.44	84.3387	1,148.44	82.6399	1,148.44	83.6625	1,148.44	81.9754	1,148.44	82.4546	1,148.44	80.9428	1,148.44	80.7281	1,148.44	79.2944	1,148.44	78.5868	1,148.44	76.9077	1,148.44	76.3862	1,148.44	73.7779	1,148.44	75.0793	1,148.44	70.3093	1,148.44	75.2771	1,148.44	68.6119	1,148.44	75.7313	1,148.44	69.5321	1,148.44	75.0197	1,148.44	70.1501	1,148.44	72.2577	1,148.44	69.5978	1,148.44	68.6059	1,148.44	69.4181	1,148.44	72.3246	1,148.44	72.2086	1,148.44	76.7909	1,148.44	76.1329	1,148.44	79.4054	1,148.44	78.9995	1,148.44	80.5713	1,148.44	80.4504
1,189.45	84.5259	1,189.45	84.2268	1,189.45	84.5474	1,189.45	83.5868	1,189.45	84.3226	1,189.45	82.6484	1,189.45	83.7584	1,189.45	81.5458	1,189.45	82.707	1,189.45	80.3367	1,189.45	81.0591	1,189.45	78.9544	1,189.45	78.7194	1,189.45	77.362	1,189.45	75.5882	1,189.45	75.5692	1,189.45	72.6633	1,189.45	73.6413	1,189.45	73.279	1,189.45	72.3442	1,189.45	75.1121	1,189.45	72.843	1,189.45	75.2302	1,189.45	74.1029	1,189.45	72.6638	1,189.45	74.6114	1,189.45	65.3538	1,189.45	73.69	1,189.45	66.2706	1,189.45	72.2701	1,189.45	73.3721	1,189.45	74.4332	1,189.45	76.9235	1,189.45	77.5214	1,189.45	78.6847	1,189.45	78.9308
1,230.47	84.0016	1,230.47	83.6854	1,230.47	84.0455	1,230.47	83.0489	1,230.47	83.8124	1,230.47	82.0934	1,230.47	83.1963	1,230.47	80.9525	1,230.47	82.0622	1,230.47	79.8182	1,230.47	80.4113	1,230.47	78.6834	1,230.47	78.4205	1,230.47	77.2365	1,230.47	76.1404	1,230.47	75.0755	1,230.47	73.3321	1,230.47	72.3193	1,230.47	71.0725	1,230.47	71.3191	1,230.47	72.4077	1,230.47	73.3916	1,230.47	74.1161	1,230.47	75.5681	1,230.47	73.4487	1,230.47	76.6167	1,230.47	69.4796	1,230.47	76.2335	1,230.47	64.5825	1,230.47	74.6711	1,230.47	71.0981	1,230.47	74.2779	1,230.47	75.7022	1,230.47	76.2941	1,230.47	77.7604	1,230.47	77.8455
1,274.41	84.3474	1,274.41	84.0263	1,274.41	84.1802	1,274.41	83.2136	1,274.41	83.6111	1,274.41	82.0629	1,274.41	82.7166	1,274.41	80.8678	1,274.41	81.5287	1,274.41	79.8361	1,274.41	80.1101	1,274.41	78.8615	1,274.41	78.5376	1,274.41	77.6058	1,274.41	76.6722	1,274.41	75.6041	1,274.41	74.1457	1,274.41	72.146	1,274.41	71.728	1,274.41	66.3524	1,274.41	73.168	1,274.41	67.3932	1,274.41	75.5941	1,274.41	73.1562	1,274.41	75.4844	1,274.41	76.1818	1,274.41	71.2952	1,274.41	77.0658	1,274.41	58.911	1,274.41	76.3065	1,274.41	71.0105	1,274.41	75.5734	1,274.41	75.756	1,274.41	76.7522	1,274.41	77.7207	1,274.41	77.9465
1,319.82	83.1439	1,319.82	83.4854	1,319.82	82.6492	1,319.82	83.1455	1,319.82	82.3246	1,319.82	81.7795	1,319.82	82.019	1,319.82	79.4625	1,319.82	81.385	1,319.82	77.1382	1,319.82	80.2875	1,319.82	76.1652	1,319.82	78.8235	1,319.82	75.8595	1,319.82	76.7919	1,319.82	74.7853	1,319.82	73.1428	1,319.82	72.0158	1,319.82	65.8828	1,319.82	65.5793	1,319.82	69.787	1,319.82	65.1863	1,319.82	74.7816	1,319.82	73.2196	1,319.82	75.5293	1,319.82	76.733	1,319.82	72.1829	1,319.82	77.8189	1,319.82	57.2508	1,319.82	77.2896	1,319.82	70.3471	1,319.82	76.2258	1,319.82	76.0448	1,319.82	76.4718	1,319.82	77.9284	1,319.82	77.7006
1,366.7	83.3477	1,366.7	83.4636	1,366.7	82.6447	1,366.7	82.8405	1,366.7	81.4823	1,366.7	81.3243	1,366.7	80.0867	1,366.7	78.9394	1,366.7	78.8699	1,366.7	76.1572	1,366.7	78.2985	1,366.7	74.1737	1,366.7	78.3031	1,366.7	73.844	1,366.7	77.9263	1,366.7	73.9814	1,366.7	76.0411	1,366.7	73.1376	1,366.7	70.9991	1,366.7	69.9838	1,366.7	61.442	1,366.7	59.2413	1,366.7	72.8009	1,366.7	67.7829	1,366.7	76.5278	1,366.7	74.5192	1,366.7	76.1504	1,366.7	77.0889	1,366.7	71.5917	1,366.7	77.7472	1,366.7	68.7103	1,366.7	77.7889	1,366.7	75.1846	1,366.7	78.2242	1,366.7	78.0404	1,366.7	78.6788
1,413.57	81.9949	1,413.57	82.3752	1,413.57	80.9332	1,413.57	82.1837	1,413.57	79.2305	1,413.57	81.4235	1,413.57	77.3739	1,413.57	79.9069	1,413.57	76.3402	1,413.57	77.3218	1,413.57	76.732	1,413.57	74.0235	1,413.57	77.7565	1,413.57	72.7645	1,413.57	78.1763	1,413.57	73.5818	1,413.57	77.2713	1,413.57	73.8038	1,413.57	74.13	1,413.57	72.5841	1,413.57	62.8181	1,413.57	68.7085	1,413.57	70.2094	1,413.57	65.1714	1,413.57	76.8614	1,413.57	72.4862	1,413.57	77.999	1,413.57	76.4537	1,413.57	75.6067	1,413.57	78.0041	1,413.57	71.6916	1,413.57	78.3358	1,413.57	74.2194	1,413.57	78.4184	1,413.57	77.2001	1,413.57	78.3187
1,463.38	81.2474	1,463.38	81.6498	1,463.38	80.64	1,463.38	81.7611	1,463.38	79.8161	1,463.38	81.5023	1,463.38	78.3578	1,463.38	80.5802	1,463.38	75.8698	1,463.38	78.4634	1,463.38	72.9671	1,463.38	74.6812	1,463.38	72.5345	1,463.38	70.3489	1,463.38	74.6155	1,463.38	69.99	1,463.38	75.7919	1,463.38	71.6779	1,463.38	74.9371	1,463.38	73.1046	1,463.38	70.7146	1,463.38	73.5163	1,463.38	65.5198	1,463.38	71.8542	1,463.38	74.6734	1,463.38	69.7222	1,463.38	78.3002	1,463.38	73.2279	1,463.38	78.5804	1,463.38	76.4752	1,463.38	76.2682	1,463.38	77.9956	1,463.38	73.199	1,463.38	78.342	1,463.38	74.8845	1,463.38	77.4171
1,516.11	81.5139	1,516.11	80.9931	1,516.11	81.7551	1,516.11	80.3789	1,516.11	81.5241	1,516.11	79.9118	1,516.11	80.5202	1,516.11	79.4733	1,516.11	78.5144	1,516.11	78.4146	1,516.11	75.3903	1,516.11	76.1529	1,516.11	70.8223	1,516.11	72.7357	1,516.11	67.4595	1,516.11	70.0851	1,516.11	71.6313	1,516.11	70.7825	1,516.11	74.7037	1,516.11	72.5642	1,516.11	74.7102	1,516.11	73.5233	1,516.11	70.4907	1,516.11	72.9307	1,516.11	65.0015	1,516.11	70.4566	1,516.11	73.6655	1,516.11	65.8332	1,516.11	77.0984	1,516.11	63.8424	1,516.11	76.8928	1,516.11	69.2987	1,516.11	72.4934	1,516.11	71.995	1,516.11	62.7253	1,516.11	70.3594
1,568.85	81.7719	1,568.85	81.8773	1,568.85	81.4023	1,568.85	81.4124	1,568.85	80.7574	1,568.85	80.2572	1,568.85	79.4427	1,568.85	78.7356	1,568.85	77.3515	1,568.85	77.1574	1,568.85	75.0378	1,568.85	75.1913	1,568.85	72.6737	1,568.85	72.5745	1,568.85	69.5992	1,568.85	69.8664	1,568.85	66.8529	1,568.85	67.8289	1,568.85	67.8073	1,568.85	67.6885	1,568.85	68.9356	1,568.85	69.5652	1,568.85	66.9863	1,568.85	70.3006	1,568.85	60.5353	1,568.85	68.9581	1,568.85	63.8911	1,568.85	66.7923	1,568.85	69.2647	1,568.85	64.6273	1,568.85	70.8178	1,568.85	60.9185	1,568.85	69.3891	1,568.85	63.4358	1,568.85	66.0496	1,568.85	65.0099
1,624.51	80.6506	1,624.51	80.9104	1,624.51	80.4003	1,624.51	80.9457	1,624.51	79.7371	1,624.51	80.1906	1,624.51	78.1209	1,624.51	78.395	1,624.51	75.6032	1,624.51	75.7904	1,624.51	73.2537	1,624.51	72.6549	1,624.51	71.469	1,624.51	69.4799	1,624.51	69.5657	1,624.51	68.2542	1,624.51	68.3087	1,624.51	68.1737	1,624.51	68.3636	1,624.51	67.2535	1,624.51	67.5629	1,624.51	67.9382	1,624.51	62.6536	1,624.51	69.2766	1,624.51	53.736	1,624.51	67.8796	1,624.51	63.4105	1,624.51	64.6269	1,624.51	65.628	1,624.51	63.6477	1,624.51	64.3973	1,624.51	64.8248	1,624.51	63.244	1,624.51	67.1497	1,624.51	67.16	1,624.51	68.6319
1,681.64	80.3368	1,681.64	80.4684	1,681.64	79.987	1,681.64	80.3504	1,681.64	78.9042	1,681.64	79.5543	1,681.64	76.6024	1,681.64	77.8567	1,681.64	73.5728	1,681.64	75.4336	1,681.64	71.4219	1,681.64	72.3335	1,681.64	69.9384	1,681.64	68.0821	1,681.64	68.3755	1,681.64	64.8148	1,681.64	67.5362	1,681.64	66.3911	1,681.64	67.997	1,681.64	66.5475	1,681.64	68.1323	1,681.64	64.7482	1,681.64	65.2589	1,681.64	63.9178	1,681.64	52.4163	1,681.64	62.1523	1,681.64	61.2068	1,681.64	61.0365	1,681.64	66.3594	1,681.64	63.5979	1,681.64	64.8117	1,681.64	65.8786	1,681.64	59.0222	1,681.64	68.2178	1,681.64	67.5462	1,681.64	69.7612
1,741.7	81.1913	1,741.7	80.7691	1,741.7	80.4269	1,741.7	79.6564	1,741.7	78.3567	1,741.7	78.4117	1,741.7	75.2655	1,741.7	77.0882	1,741.7	72.3631	1,741.7	75.6696	1,741.7	70.3522	1,741.7	73.9534	1,741.7	67.508	1,741.7	70.6535	1,741.7	63.8497	1,741.7	63.3667	1,741.7	62.2886	1,741.7	59.6736	1,741.7	65.0415	1,741.7	62.8254	1,741.7	68.563	1,741.7	61.0416	1,741.7	69.4284	1,741.7	59.334	1,741.7	65.4206	1,741.7	59.3439	1,741.7	51.9772	1,741.7	56.8917	1,741.7	67.3106	1,741.7	58.0178	1,741.7	68.0689	1,741.7	65.1904	1,741.7	59.1114	1,741.7	68.7641	1,741.7	65.264	1,741.7	69.7435
1,803.22	81.7875	1,803.22	81.9354	1,803.22	80.42	1,803.22	80.9062	1,803.22	77.8882	1,803.22	79.0137	1,803.22	74.3248	1,803.22	77.0029	1,803.22	69.7871	1,803.22	75.393	1,803.22	63.698	1,803.22	73.863	1,803.22	60.0722	1,803.22	71.5308	1,803.22	64.0995	1,803.22	66.882	1,803.22	65.8616	1,803.22	58.7353	1,803.22	65.5484	1,803.22	59.2404	1,803.22	67.5313	1,803.22	58.4608	1,803.22	69.2512	1,803.22	53.2764	1,803.22	67.4864	1,803.22	60.0233	1,803.22	56.2701	1,803.22	64.9626	1,803.22	63.7222	1,803.22	64.7641	1,803.22	68.6595	1,803.22	63.4484	1,803.22	66.4492	1,803.22	65.3816	1,803.22	63.1605	1,803.22	66.0256
1,866.21	81.7608	1,866.21	82.3256	1,866.21	80.5172	1,866.21	81.8889	1,866.21	78.3256	1,866.21	80.1854	1,866.21	74.457	1,866.21	77.6429	1,866.21	68.4632	1,866.21	75.0695	1,866.21	64.0454	1,866.21	72.4986	1,866.21	65.8569	1,866.21	69.2646	1,866.21	67.0001	1,866.21	65.026	1,866.21	66.8919	1,866.21	60.7996	1,866.21	66.7319	1,866.21	61.8756	1,866.21	68.0946	1,866.21	63.9819	1,866.21	68.9129	1,866.21	61.501	1,866.21	66.8053	1,866.21	58.2624	1,866.21	59.3632	1,866.21	65.5892	1,866.21	58.7409	1,866.21	66.2157	1,866.21	64.6297	1,866.21	64.5054	1,866.21	67.0127	1,866.21	66.6061	1,866.21	68.3897	1,866.21	68.4406
1,932.13	81.3921	1,932.13	81.8332	1,932.13	80.3524	1,932.13	81.5129	1,932.13	78.1702	1,932.13	80.1626	1,932.13	73.8868	1,932.13	77.8213	1,932.13	68.3241	1,932.13	74.4823	1,932.13	65.2552	1,932.13	70.3056	1,932.13	64.7401	1,932.13	66.3439	1,932.13	66.1104	1,932.13	64.4828	1,932.13	65.6619	1,932.13	62.204	1,932.13	63.2249	1,932.13	59.3336	1,932.13	62.3422	1,932.13	64.896	1,932.13	66.7643	1,932.13	66.0522	1,932.13	67.1107	1,932.13	61.1212	1,932.13	60.489	1,932.13	61.1581	1,932.13	53.2182	1,932.13	65.4179	1,932.13	56.8907	1,932.13	63.7264	1,932.13	62.7551	1,932.13	64.3394	1,932.13	66.5096	1,932.13	66.3973
1,999.51	81.5305	1,999.51	81.6851	1,999.51	79.8359	1,999.51	80.7616	1,999.51	76.8274	1,999.51	79.4194	1,999.51	72.3244	1,999.51	77.7191	1,999.51	62.9413	1,999.51	75.2676	1,999.51	59.9322	1,999.51	71.7495	1,999.51	66.5811	1,999.51	67.23	1,999.51	67.5229	1,999.51	63.7515	1,999.51	67.6796	1,999.51	63.12	1,999.51	67.7319	1,999.51	58.2793	1,999.51	66.3686	1,999.51	59.8074	1,999.51	64.8114	1,999.51	65.0182	1,999.51	65.0401	1,999.51	62.7082	1,999.51	64.1758	1,999.51	53.3142	1,999.51	58.8206	1,999.51	63.0263	1,999.51	48.5827	1,999.51	62.026	1,999.51	55.1234	1,999.51	62.4798	1,999.51	64.0301	1,999.51	65.8391
2,069.82	81.9314	2,069.82	81.7817	2,069.82	80.1634	2,069.82	80.3907	2,069.82	76.5659	2,069.82	78.9982	2,069.82	70.3356	2,069.82	77.5117	2,069.82	44.2246	2,069.82	74.8907	2,069.82	66.9137	2,069.82	71.6336	2,069.82	70.4598	2,069.82	69.5336	2,069.82	69.943	2,069.82	67.1973	2,069.82	67.3128	2,069.82	65.1967	2,069.82	68.3389	2,069.82	64.0921	2,069.82	69.49	2,069.82	61.7123	2,069.82	67.6601	2,069.82	65.4742	2,069.82	65.9558	2,069.82	67.0078	2,069.82	64.7903	2,069.82	61.4948	2,069.82	63.4	2,069.82	63.4965	2,069.82	58.6155	2,069.82	64.8667	2,069.82	56.4337	2,069.82	62.7709	2,069.82	65.9304	2,069.82	67.2942
2,143.07	80.9961	2,143.07	81.7563	2,143.07	79.066	2,143.07	81.7564	2,143.07	75.5076	2,143.07	80.499	2,143.07	69.5419	2,143.07	77.8083	2,143.07	57.6466	2,143.07	75.0116	2,143.07	66.8038	2,143.07	73.1107	2,143.07	71.0661	2,143.07	71.126	2,143.07	72.189	2,143.07	68.3935	2,143.07	70.4666	2,143.07	64.4038	2,143.07	66.6526	2,143.07	60.6832	2,143.07	67.8092	2,143.07	61.4043	2,143.07	67.8051	2,143.07	66.0333	2,143.07	65.1341	2,143.07	68.2058	2,143.07	60.1121	2,143.07	65.6778	2,143.07	62.0186	2,143.07	67.4168	2,143.07	60.5363	2,143.07	68.9227	2,143.07	58.1175	2,143.07	66.1492	2,143.07	67.6844	2,143.07	68.7033
2,219.24	81.8065	2,219.24	82.9595	2,219.24	78.8942	2,219.24	82.81	2,219.24	72.8552	2,219.24	80.9017	2,219.24	65.781	2,219.24	77.328	2,219.24	66.6898	2,219.24	73.3364	2,219.24	69.6723	2,219.24	70.3049	2,219.24	71.0114	2,219.24	69.2577	2,219.24	71.4479	2,219.24	68.4103	2,219.24	71.2938	2,219.24	65.7385	2,219.24	68.1824	2,219.24	62.4628	2,219.24	65.5817	2,219.24	54.8579	2,219.24	67.9323	2,219.24	60.54	2,219.24	67.7424	2,219.24	67.1747	2,219.24	65.346	2,219.24	65.4165	2,219.24	58.0365	2,219.24	68.4788	2,219.24	57.6141	2,219.24	70.8711	2,219.24	52.3645	2,219.24	67.9555	2,219.24	67.2547	2,219.24	68.8707
2,296.88	82.418	2,296.88	82.9613	2,296.88	79.9798	2,296.88	82.3507	2,296.88	73.6731	2,296.88	80.743	2,296.88	62.4668	2,296.88	78.5992	2,296.88	70.5853	2,296.88	76.3301	2,296.88	72.4814	2,296.88	73.155	2,296.88	72.6999	2,296.88	69.1429	2,296.88	72.6332	2,296.88	63.4489	2,296.88	72.6468	2,296.88	60.5023	2,296.88	71.0295	2,296.88	48.7687	2,296.88	65.8486	2,296.88	63.086	2,296.88	66.4253	2,296.88	57.0378	2,296.88	67.6771	2,296.88	59.2117	2,296.88	66.1933	2,296.88	61.2708	2,296.88	60.6563	2,296.88	66.7075	2,296.88	59.2671	2,296.88	70.881	2,296.88	50.6338	2,296.88	68.1234	2,296.88	63.9055	2,296.88	67.317
2,378.91	82.0673	2,378.91	82.7903	2,378.91	80.0579	2,378.91	82.3128	2,378.91	74.8169	2,378.91	80.8407	2,378.91	64.8647	2,378.91	79.5869	2,378.91	73.6771	2,378.91	77.1383	2,378.91	75.8782	2,378.91	70.8821	2,378.91	75.5095	2,378.91	65.6891	2,378.91	74.6775	2,378.91	68.7756	2,378.91	75.1047	2,378.91	70.0876	2,378.91	75.4889	2,378.91	64.7305	2,378.91	73.2107	2,378.91	49.0662	2,378.91	69.1365	2,378.91	61.4381	2,378.91	68.1064	2,378.91	54.364	2,378.91	67.598	2,378.91	58.2076	2,378.91	66.2544	2,378.91	60.9568	2,378.91	58.6899	2,378.91	69.0999	2,378.91	52.1513	2,378.91	68.6997	2,378.91	65.7607	2,378.91	67.3375
2,462.4	81.4761	2,462.4	82.2292	2,462.4	79.3606	2,462.4	81.8325	2,462.4	74.6239	2,462.4	81.3444	2,462.4	63.4881	2,462.4	79.3012	2,462.4	74.5148	2,462.4	73.6924	2,462.4	77.677	2,462.4	71.1921	2,462.4	77.5179	2,462.4	69.7616	2,462.4	75.5915	2,462.4	67.4848	2,462.4	73.4487	2,462.4	68.8654	2,462.4	71.9591	2,462.4	68.7607	2,462.4	71.9199	2,462.4	61.9705	2,462.4	71.9425	2,462.4	57.4104	2,462.4	70.3483	2,462.4	64.816	2,462.4	67.683	2,462.4	61.4034	2,462.4	65.6715	2,462.4	53.4883	2,462.4	64.2861	2,462.4	66.0387	2,462.4	58.8645	2,462.4	68.4421	2,462.4	60.961	2,462.4	66.5764
2,548.83	82.6163	2,548.83	82.8316	2,548.83	79.7149	2,548.83	82.4604	2,548.83	74.0397	2,548.83	80.8628	2,548.83	71.0473	2,548.83	76.8251	2,548.83	74.0737	2,548.83	74.7676	2,548.83	76.3571	2,548.83	74.1366	2,548.83	76.5474	2,548.83	73.6365	2,548.83	76.0159	2,548.83	71.7411	2,548.83	75.6021	2,548.83	70.1273	2,548.83	75.2186	2,548.83	71.0948	2,548.83	71.5467	2,548.83	71.0941	2,548.83	65.9237	2,548.83	63.9725	2,548.83	66.5543	2,548.83	61.9894	2,548.83	67.5764	2,548.83	65.7862	2,548.83	65.8043	2,548.83	62.7147	2,548.83	50.7939	2,548.83	68.4762	2,548.83	63.5579	2,548.83	70.3453	2,548.83	71.3164	2,548.83	72.517
2,639.65	82.7584	2,639.65	83.6677	2,639.65	80.7316	2,639.65	82.8738	2,639.65	74.4919	2,639.65	79.8784	2,639.65	73.3625	2,639.65	78.4842	2,639.65	77.4603	2,639.65	77.6172	2,639.65	78.9398	2,639.65	75.3279	2,639.65	78.3284	2,639.65	70.6046	2,639.65	76.2906	2,639.65	64.2249	2,639.65	74.2562	2,639.65	66.2914	2,639.65	72.3921	2,639.65	68.4988	2,639.65	70.5967	2,639.65	71.763	2,639.65	69.2298	2,639.65	70.2728	2,639.65	70.067	2,639.65	60.3902	2,639.65	64.3668	2,639.65	57.6996	2,639.65	65.6552	2,639.65	47.2949	2,639.65	59.3105	2,639.65	66.2786	2,639.65	56.1808	2,639.65	67.972	2,639.65	69.2425	2,639.65	70.5146
2,731.93	82.6876	2,731.93	83.5434	2,731.93	80.2342	2,731.93	82.4434	2,731.93	74.8731	2,731.93	80.7644	2,731.93	74.242	2,731.93	79.6054	2,731.93	78.1997	2,731.93	77.406	2,731.93	79.2567	2,731.93	73.8703	2,731.93	78.6009	2,731.93	70.7557	2,731.93	76.3243	2,731.93	70.7013	2,731.93	73.5208	2,731.93	69.3782	2,731.93	71.1213	2,731.93	66.7748	2,731.93	70.0896	2,731.93	65.626	2,731.93	67.1027	2,731.93	65.9782	2,731.93	70.2115	2,731.93	62.3071	2,731.93	67.7055	2,731.93	59.7663	2,731.93	64.4439	2,731.93	57.9278	2,731.93	64.2101	2,731.93	64.2318	2,731.93	56.1553	2,731.93	68.2699	2,731.93	69.1566	2,731.93	70.0154
2,828.61	82.7935	2,828.61	83.4028	2,828.61	79.5205	2,828.61	82.1098	2,828.61	74.0525	2,828.61	80.9745	2,828.61	75.6629	2,828.61	78.6473	2,828.61	79.1559	2,828.61	76.5556	2,828.61	80.1456	2,828.61	73.0794	2,828.61	79.9376	2,828.61	70.3154	2,828.61	77.5479	2,828.61	70.9678	2,828.61	73.7767	2,828.61	68.147	2,828.61	71.3878	2,828.61	63.5481	2,828.61	75.7668	2,828.61	61.4692	2,828.61	75.0305	2,828.61	64.8675	2,828.61	68.3657	2,828.61	63.2883	2,828.61	69.0461	2,828.61	62.4548	2,828.61	63.6296	2,828.61	58.1016	2,828.61	61.4314	2,828.61	61.8649	2,828.61	49.9671	2,828.61	65.2233	2,828.61	67.8588	2,828.61	68.8334
2,928.22	83.3794	2,928.22	83.6944	2,928.22	80.3856	2,928.22	82.726	2,928.22	73.2374	2,928.22	80.4852	2,928.22	75.8761	2,928.22	78.8755	2,928.22	80.1943	2,928.22	74.9261	2,928.22	80.9788	2,928.22	70.5544	2,928.22	79.8271	2,928.22	72.9553	2,928.22	75.2809	2,928.22	63.9946	2,928.22	67.9639	2,928.22	67.4712	2,928.22	73.2213	2,928.22	70.8103	2,928.22	77.6969	2,928.22	68.6936	2,928.22	78.4308	2,928.22	67.0319	2,928.22	69.8277	2,928.22	65.0972	2,928.22	71.3211	2,928.22	61.0284	2,928.22	68.9719	2,928.22	63.3035	2,928.22	64.7894	2,928.22	61.0192	2,928.22	62.4093	2,928.22	66.1024	2,928.22	69.8129	2,928.22	67.1077
3,030.76	82.2579	3,030.76	83.0626	3,030.76	79.8469	3,030.76	81.9842	3,030.76	74.647	3,030.76	81.4283	3,030.76	75.676	3,030.76	79.1807	3,030.76	80.2708	3,030.76	73.4348	3,030.76	80.8261	3,030.76	72.4818	3,030.76	79.3566	3,030.76	67.3368	3,030.76	76.4399	3,030.76	73.308	3,030.76	73.646	3,030.76	74.6914	3,030.76	75.1658	3,030.76	70.4111	3,030.76	76.9405	3,030.76	66.4126	3,030.76	76.5897	3,030.76	61.6924	3,030.76	71.4933	3,030.76	65.7964	3,030.76	70.2641	3,030.76	61.0861	3,030.76	70.6466	3,030.76	60.9995	3,030.76	67.0094	3,030.76	63.9285	3,030.76	62.9039	3,030.76	68.2651	3,030.76	71.2101	3,030.76	67.838
3,137.7	82.0555	3,137.7	82.0715	3,137.7	78.9137	3,137.7	82.0478	3,137.7	73.8384	3,137.7	82.3094	3,137.7	75.5207	3,137.7	77.6055	3,137.7	79.8917	3,137.7	71.2698	3,137.7	81.225	3,137.7	68.8782	3,137.7	80.6894	3,137.7	74.1639	3,137.7	79.2554	3,137.7	74.6157	3,137.7	77.301	3,137.7	72.3766	3,137.7	74.3857	3,137.7	71.4966	3,137.7	76.3383	3,137.7	69.4266	3,137.7	77.518	3,137.7	66.8377	3,137.7	74.839	3,137.7	64.2094	3,137.7	69.033	3,137.7	62.1515	3,137.7	69.2915	3,137.7	54.3462	3,137.7	66.9198	3,137.7	64.343	3,137.7	64.8711	3,137.7	69.8664	3,137.7	71.3483	3,137.7	68.8571
3,249.02	81.1447	3,249.02	80.8738	3,249.02	79.3084	3,249.02	82.7708	3,249.02	72.7166	3,249.02	81.9466	3,249.02	75.982	3,249.02	76.6831	3,249.02	79.9104	3,249.02	74.1275	3,249.02	81.1986	3,249.02	75.5896	3,249.02	81.3206	3,249.02	77.2312	3,249.02	81.289	3,249.02	70.3896	3,249.02	80.2951	3,249.02	67.1053	3,249.02	75.8375	3,249.02	73.0246	3,249.02	74.94	3,249.02	72.418	3,249.02	76.8824	3,249.02	67.4061	3,249.02	76.6667	3,249.02	64.3429	3,249.02	70.7975	3,249.02	63.9023	3,249.02	68.8098	3,249.02	61.1603	3,249.02	63.8342	3,249.02	62.1574	3,249.02	65.6585	3,249.02	69.9039	3,249.02	72.6431	3,249.02	70.9533
3,363.28	79.6604	3,363.28	80.9949	3,363.28	79.403	3,363.28	82.7509	3,363.28	75.8142	3,363.28	80.7721	3,363.28	74.9957	3,363.28	77.0703	3,363.28	80.4463	3,363.28	78.0824	3,363.28	82.0533	3,363.28	77.655	3,363.28	81.8725	3,363.28	73.5169	3,363.28	81.1717	3,363.28	74.5424	3,363.28	79.428	3,363.28	75.6469	3,363.28	74.7343	3,363.28	69.8992	3,363.28	73.3023	3,363.28	69.3476	3,363.28	74.9277	3,363.28	69.1871	3,363.28	76.3269	3,363.28	62.9285	3,363.28	71.277	3,363.28	47.2761	3,363.28	72.1969	3,363.28	61.4002	3,363.28	61.8359	3,363.28	59.1008	3,363.28	64.5452	3,363.28	66.8723	3,363.28	71.1363	3,363.28	66.6633
3,481.93	80.224	3,481.93	81.5342	3,481.93	80.1184	3,481.93	81.6767	3,481.93	75.9821	3,481.93	78.0797	3,481.93	77.3419	3,481.93	77.4588	3,481.93	81.252	3,481.93	78.7018	3,481.93	82.4304	3,481.93	77.4337	3,481.93	81.7093	3,481.93	74.6092	3,481.93	80.8322	3,481.93	76.6003	3,481.93	75.0372	3,481.93	70.3803	3,481.93	69.198	3,481.93	65.9707	3,481.93	70.0813	3,481.93	70.0977	3,481.93	73.9809	3,481.93	70.0206	3,481.93	73.1296	3,481.93	71.0702	3,481.93	67.8474	3,481.93	65.9815	3,481.93	67.683	3,481.93	53.3481	3,481.93	65.3914	3,481.93	57.9747	3,481.93	63.2751	3,481.93	67.4035	3,481.93	64.8135	3,481.93	63.2584
3,604.98	79.9878	3,604.98	83.5685	3,604.98	79.0948	3,604.98	81.8418	3,604.98	75.5091	3,604.98	77.0828	3,604.98	76.1633	3,604.98	77.6169	3,604.98	81.4536	3,604.98	78.8217	3,604.98	82.5726	3,604.98	75.9542	3,604.98	82.2792	3,604.98	74.9806	3,604.98	79.6381	3,604.98	67.2526	3,604.98	73.4784	3,604.98	72.6722	3,604.98	67.0549	3,604.98	69.8593	3,604.98	67.1916	3,604.98	66.1242	3,604.98	67.156	3,604.98	69.3844	3,604.98	69.2453	3,604.98	69.3223	3,604.98	63.506	3,604.98	69.9626	3,604.98	59.5254	3,604.98	57.8332	3,604.98	60.3907	3,604.98	58.4894	3,604.98	60.3455	3,604.98	65.2812	3,604.98	66.1985	3,604.98	66.5617
3,732.42	81.0646	3,732.42	83.959	3,732.42	80.1766	3,732.42	82.0512	3,732.42	78.4671	3,732.42	79.6785	3,732.42	71.0853	3,732.42	78.6546	3,732.42	80.5988	3,732.42	74.216	3,732.42	83.099	3,732.42	73.048	3,732.42	82.812	3,732.42	71.995	3,732.42	80.6051	3,732.42	72.8428	3,732.42	76.5164	3,732.42	74.5062	3,732.42	73.9541	3,732.42	71.2572	3,732.42	74.8922	3,732.42	67.1216	3,732.42	61.1048	3,732.42	71.3457	3,732.42	69.635	3,732.42	67.9531	3,732.42	68.4257	3,732.42	72.8393	3,732.42	62.5507	3,732.42	70.4274	3,732.42	60.1466	3,732.42	66.9057	3,732.42	51.7521	3,732.42	64.55	3,732.42	65.4351	3,732.42	64.6652
3,864.26	81.655	3,864.26	84.0321	3,864.26	79.2717	3,864.26	81.8752	3,864.26	80.7215	3,864.26	82.3604	3,864.26	75.7317	3,864.26	79.8521	3,864.26	79.6844	3,864.26	75.8536	3,864.26	83.3192	3,864.26	73.6487	3,864.26	82.6018	3,864.26	75.1653	3,864.26	79.9968	3,864.26	76.0539	3,864.26	74.9399	3,864.26	72.3683	3,864.26	72.2677	3,864.26	74.5573	3,864.26	76.5984	3,864.26	71.692	3,864.26	71.0912	3,864.26	68.4609	3,864.26	65.2914	3,864.26	69.5736	3,864.26	67.6148	3,864.26	67.7989	3,864.26	63.9282	3,864.26	69.582	3,864.26	51.8815	3,864.26	67.451	3,864.26	64.3805	3,864.26	59.6343	3,864.26	69.2789	3,864.26	65.4617
4,000.49	82.1416	4,000.49	83.13	4,000.49	78.3535	4,000.49	80.9341	4,000.49	80.3114	4,000.49	81.8401	4,000.49	77.7826	4,000.49	78.719	4,000.49	79.5712	4,000.49	77.9397	4,000.49	83.626	4,000.49	77.5591	4,000.49	82.8466	4,000.49	77.3729	4,000.49	79.2594	4,000.49	73.8434	4,000.49	75.5073	4,000.49	73.2274	4,000.49	76.1019	4,000.49	70.9048	4,000.49	76.7963	4,000.49	71.8925	4,000.49	72.0469	4,000.49	69.382	4,000.49	68.002	4,000.49	69.8251	4,000.49	67.8674	4,000.49	66.957	4,000.49	70.1143	4,000.49	65.6941	4,000.49	55.9459	4,000.49	62.891	4,000.49	62.5094	4,000.49	57.8814	4,000.49	67.6087	4,000.49	63.9517
4,141.11	82.3888	4,141.11	82.0365	4,141.11	77.5255	4,141.11	81.8892	4,141.11	80.588	4,141.11	81.0292	4,141.11	79.711	4,141.11	78.2275	4,141.11	78.935	4,141.11	77.9742	4,141.11	82.8132	4,141.11	79.8003	4,141.11	82.8458	4,141.11	76.5445	4,141.11	78.2133	4,141.11	77.4227	4,141.11	79.7345	4,141.11	76.6456	4,141.11	78.0391	4,141.11	71.2585	4,141.11	75.2789	4,141.11	72.8774	4,141.11	62.9094	4,141.11	69.7444	4,141.11	70.4945	4,141.11	69.9486	4,141.11	70.2982	4,141.11	70.3176	4,141.11	70.2729	4,141.11	67.8601	4,141.11	45.8529	4,141.11	62.6403	4,141.11	64.2019	4,141.11	58.9098	4,141.11	67.1933	4,141.11	64.8162
4,287.6	82.4021	4,287.6	81.388	4,287.6	78.894	4,287.6	83.0022	4,287.6	79.2056	4,287.6	81.4687	4,287.6	79.816	4,287.6	78.6223	4,287.6	77.7132	4,287.6	79.1439	4,287.6	81.6146	4,287.6	77.1096	4,287.6	81.2122	4,287.6	77.0639	4,287.6	80.0391	4,287.6	76.1785	4,287.6	81.5967	4,287.6	68.8192	4,287.6	74.3405	4,287.6	71.63	4,287.6	67.0337	4,287.6	70.7714	4,287.6	63.158	4,287.6	69.5258	4,287.6	70.8295	4,287.6	69.0569	4,287.6	69.3453	4,287.6	70.6157	4,287.6	71.0103	4,287.6	68.4163	4,287.6	61.4793	4,287.6	64.8326	4,287.6	66.2062	4,287.6	58.3963	4,287.6	69.0072	4,287.6	65.4937
4,438.48	81.3763	4,438.48	81.6265	4,438.48	79.3273	4,438.48	83.3502	4,438.48	77.5814	4,438.48	80.5655	4,438.48	79.6019	4,438.48	80.1029	4,438.48	76.8994	4,438.48	79.4654	4,438.48	80.6786	4,438.48	79.7884	4,438.48	80.809	4,438.48	78.2694	4,438.48	82.3876	4,438.48	75.4838	4,438.48	81.2744	4,438.48	76.8771	4,438.48	62.8783	4,438.48	71.2585	4,438.48	61.2559	4,438.48	72.2496	4,438.48	66.0549	4,438.48	68.0368	4,438.48	67.5224	4,438.48	69.9264	4,438.48	66.3606	4,438.48	68.0807	4,438.48	68.7977	4,438.48	69.7122	4,438.48	63.0099	4,438.48	64.2929	4,438.48	69.3658	4,438.48	56.0901	4,438.48	69.8327	4,438.48	67.7126
4,595.21	80.6218	4,595.21	81.1994	4,595.21	81.2169	4,595.21	82.8938	4,595.21	81.1151	4,595.21	80.9477	4,595.21	82.353	4,595.21	81.2871	4,595.21	78.0701	4,595.21	80.6071	4,595.21	79.5517	4,595.21	79.1266	4,595.21	82.9254	4,595.21	77.9347	4,595.21	82.8476	4,595.21	77.539	4,595.21	77.973	4,595.21	71.4588	4,595.21	72.6297	4,595.21	73.0719	4,595.21	58.8735	4,595.21	71.2428	4,595.21	66.7106	4,595.21	68.5046	4,595.21	61.6038	4,595.21	68.5468	4,595.21	62.4481	4,595.21	69.1864	4,595.21	68.2285	4,595.21	67.7166	4,595.21	56.1996	4,595.21	64.1284	4,595.21	68.8953	4,595.21	56.2274	4,595.21	68.566	4,595.21	68.5033
4,756.35	80.0383	4,756.35	82.0849	4,756.35	80.4625	4,756.35	82.1347	4,756.35	80.0077	4,756.35	80.5952	4,756.35	83.2213	4,756.35	81.8003	4,756.35	80.634	4,756.35	80.7034	4,756.35	81.4469	4,756.35	79.8331	4,756.35	83.7059	4,756.35	79.9983	4,756.35	82.3343	4,756.35	75.6425	4,756.35	76.1096	4,756.35	75.8773	4,756.35	76.7469	4,756.35	72.6854	4,756.35	69.8682	4,756.35	71.6842	4,756.35	61.6154	4,756.35	69.3269	4,756.35	62.6935	4,756.35	67.1042	4,756.35	55.6987	4,756.35	68.8089	4,756.35	66.4536	4,756.35	69.0917	4,756.35	63.2308	4,756.35	64.8898	4,756.35	67.6747	4,756.35	61.8275	4,756.35	69.6939	4,756.35	67.4019
4,924.8	79.5835	4,924.8	81.8779	4,924.8	80.5015	4,924.8	81.3736	4,924.8	80.178	4,924.8	81.0615	4,924.8	81.6946	4,924.8	82.0005	4,924.8	80.6241	4,924.8	81.1384	4,924.8	82.7369	4,924.8	80.4114	4,924.8	82.5923	4,924.8	78.1171	4,924.8	78.6444	4,924.8	77.6619	4,924.8	76.6988	4,924.8	73.4032	4,924.8	75.4781	4,924.8	70.4712	4,924.8	69.6452	4,924.8	70.9711	4,924.8	46.6162	4,924.8	65.4052	4,924.8	65.7862	4,924.8	66.1243	4,924.8	62.9804	4,924.8	65.7021	4,924.8	65.8706	4,924.8	68.6792	4,924.8	64.8785	4,924.8	62.3287	4,924.8	66.7317	4,924.8	62.8646	4,924.8	67.9295	4,924.8	68.3802
5,097.66	80.5293	5,097.66	82.526	5,097.66	81.6713	5,097.66	80.2477	5,097.66	81.6827	5,097.66	81.9153	5,097.66	82.2602	5,097.66	81.1572	5,097.66	78.6793	5,097.66	81.1505	5,097.66	82.0344	5,097.66	79.1271	5,097.66	81.9435	5,097.66	78.8006	5,097.66	76.6656	5,097.66	73.7788	5,097.66	78.6781	5,097.66	71.4026	5,097.66	73.24	5,097.66	69.9143	5,097.66	59.0185	5,097.66	69.6824	5,097.66	61.9138	5,097.66	65.1284	5,097.66	56.9123	5,097.66	65.3309	5,097.66	58.105	5,097.66	62.9838	5,097.66	66.759	5,097.66	65.5199	5,097.66	66.1272	5,097.66	63.2573	5,097.66	66.2642	5,097.66	54.8698	5,097.66	67.2655	5,097.66	66.5299
5,277.83	81.1554	5,277.83	81.974	5,277.83	80.534	5,277.83	81.0436	5,277.83	82.8803	5,277.83	81.8836	5,277.83	82.8564	5,277.83	80.9847	5,277.83	78.0874	5,277.83	80.7315	5,277.83	78.5021	5,277.83	78.0784	5,277.83	80.7057	5,277.83	74.2603	5,277.83	78.0198	5,277.83	74.9712	5,277.83	79.9417	5,277.83	69.7347	5,277.83	73.7447	5,277.83	69.6972	5,277.83	57.9763	5,277.83	67.7498	5,277.83	67.1555	5,277.83	64.9873	5,277.83	59.9156	5,277.83	62.8988	5,277.83	63.897	5,277.83	64.5851	5,277.83	67.2031	5,277.83	63.5518	5,277.83	67.3966	5,277.83	56.5212	5,277.83	68.6243	5,277.83	56.7287	5,277.83	68.1112	5,277.83	64.4857
5,463.87	82.1659	5,463.87	81.84	5,463.87	81.2606	5,463.87	81.5736	5,463.87	82.2884	5,463.87	81.6685	5,463.87	83.1486	5,463.87	81.6286	5,463.87	78.7573	5,463.87	80.3197	5,463.87	72.509	5,463.87	76.6784	5,463.87	78.5662	5,463.87	75.1132	5,463.87	78.5202	5,463.87	71.2621	5,463.87	77.4109	5,463.87	71.0326	5,463.87	75.2709	5,463.87	71.1472	5,463.87	68.0372	5,463.87	65.6545	5,463.87	65.2806	5,463.87	68.387	5,463.87	62.3233	5,463.87	59.128	5,463.87	65.0464	5,463.87	65.0105	5,463.87	68.7408	5,463.87	65.1169	5,463.87	64.0712	5,463.87	62.7312	5,463.87	64.523	5,463.87	54.268	5,463.87	68.4034	5,463.87	64.8645
5,657.23	82.2293	5,657.23	82.179	5,657.23	81.5026	5,657.23	82.2971	5,657.23	82.3456	5,657.23	81.7547	5,657.23	82.9376	5,657.23	82.094	5,657.23	80.4599	5,657.23	78.7554	5,657.23	70.5363	5,657.23	76.7153	5,657.23	78.7028	5,657.23	74.9183	5,657.23	78.3919	5,657.23	75.3446	5,657.23	76.4613	5,657.23	71.5551	5,657.23	73.0973	5,657.23	70.963	5,657.23	67.691	5,657.23	65.3138	5,657.23	62.0061	5,657.23	67.8494	5,657.23	58.8026	5,657.23	61.608	5,657.23	59.8919	5,657.23	65.1337	5,657.23	66.0634	5,657.23	64.2364	5,657.23	67.0758	5,657.23	62.1423	5,657.23	63.2405	5,657.23	47.4816	5,657.23	67.0231	5,657.23	63.2765
5,856.45	81.791	5,856.45	82.5682	5,856.45	81.6929	5,856.45	82.2586	5,856.45	82.8605	5,856.45	82.6205	5,856.45	83.3386	5,856.45	81.2444	5,856.45	81.1653	5,856.45	77.4361	5,856.45	72.2144	5,856.45	78.1485	5,856.45	79.0913	5,856.45	76.6432	5,856.45	78.0724	5,856.45	73.6741	5,856.45	75.5372	5,856.45	71.8139	5,856.45	72.9084	5,856.45	72.4213	5,856.45	56.3959	5,856.45	65.8341	5,856.45	56.7775	5,856.45	68.158	5,856.45	53.1635	5,856.45	62.5367	5,856.45	62.5671	5,856.45	65.2116	5,856.45	61.5679	5,856.45	64.3291	5,856.45	65.0016	5,856.45	62.1638	5,856.45	65.5176	5,856.45	43.4903	5,856.45	67.1941	5,856.45	65.3486
6,062.99	82.176	6,062.99	82.2743	6,062.99	80.9193	6,062.99	82.6285	6,062.99	82.9431	6,062.99	82.7864	6,062.99	82.9074	6,062.99	80.8449	6,062.99	80.7437	6,062.99	78.4939	6,062.99	73.6338	6,062.99	78.9792	6,062.99	78.6612	6,062.99	76.444	6,062.99	79.2359	6,062.99	74.7385	6,062.99	77.8569	6,062.99	70.6509	6,062.99	72.4698	6,062.99	69.1584	6,062.99	65.1108	6,062.99	66.3646	6,062.99	67.6727	6,062.99	66.8386	6,062.99	62.5906	6,062.99	63.3274	6,062.99	60.8937	6,062.99	67.1819	6,062.99	61.2945	6,062.99	65.9203	6,062.99	66.0495	6,062.99	64.3821	6,062.99	62.5432	6,062.99	49.4215	6,062.99	65.803	6,062.99	63.5948
6,276.86	82.4577	6,276.86	82.3384	6,276.86	81.8007	6,276.86	83.0169	6,276.86	82.613	6,276.86	82.2992	6,276.86	82.5979	6,276.86	80.4639	6,276.86	80.8754	6,276.86	79.5057	6,276.86	74.1159	6,276.86	78.4427	6,276.86	77.1483	6,276.86	75.7465	6,276.86	80.8507	6,276.86	72.4302	6,276.86	77.7363	6,276.86	71.2105	6,276.86	72.8578	6,276.86	68.9046	6,276.86	69.6265	6,276.86	64.8797	6,276.86	70.5094	6,276.86	65.3486	6,276.86	64.366	6,276.86	60.7511	6,276.86	61.0671	6,276.86	64.5233	6,276.86	51.5105	6,276.86	64.6657	6,276.86	66.8694	6,276.86	62.5565	6,276.86	60.8907	6,276.86	46.9613	6,276.86	66.3922	6,276.86	61.9042
6,498.05	82.2113	6,498.05	82.6866	6,498.05	81.3581	6,498.05	82.818	6,498.05	82.686	6,498.05	81.8532	6,498.05	82.6605	6,498.05	80.4175	6,498.05	81.0009	6,498.05	79.4534	6,498.05	75.8096	6,498.05	77.0891	6,498.05	79.4459	6,498.05	75.6943	6,498.05	80.5747	6,498.05	71.8434	6,498.05	73.2415	6,498.05	68.8863	6,498.05	74.7639	6,498.05	68.2166	6,498.05	69.1246	6,498.05	64.6978	6,498.05	69.2497	6,498.05	64.7394	6,498.05	58.3573	6,498.05	62.346	6,498.05	62.5867	6,498.05	62.5867	6,498.05	56.1176	6,498.05	63.704	6,498.05	67.3877	6,498.05	63.9403	6,498.05	60.3251	6,498.05	51.3603	6,498.05	63.9803	6,498.05	61.1345
6,726.56	82.3659	6,726.56	82.7295	6,726.56	80.9482	6,726.56	82.8061	6,726.56	82.5958	6,726.56	81.2066	6,726.56	82.0191	6,726.56	81.0512	6,726.56	80.8607	6,726.56	78.6993	6,726.56	76.7858	6,726.56	76.8007	6,726.56	79.3638	6,726.56	73.973	6,726.56	77.5104	6,726.56	72.2478	6,726.56	73.0004	6,726.56	70.9063	6,726.56	74.393	6,726.56	67.5411	6,726.56	67.3908	6,726.56	65.4766	6,726.56	66.6282	6,726.56	65.0036	6,726.56	56.6266	6,726.56	62.7217	6,726.56	59.6238	6,726.56	63.6565	6,726.56	56.7016	6,726.56	64.3345	6,726.56	66.1702	6,726.56	65.7582	6,726.56	58.552	6,726.56	55.3677	6,726.56	64.0598	6,726.56	61.6901
6,963.87	82.2311	6,963.87	83.1094	6,963.87	80.9665	6,963.87	82.339	6,963.87	82.0535	6,963.87	81.157	6,963.87	81.806	6,963.87	81.0988	6,963.87	81.4162	6,963.87	78.4168	6,963.87	76.4936	6,963.87	76.3855	6,963.87	76.8333	6,963.87	74.3816	6,963.87	74.9807	6,963.87	70.9897	6,963.87	76.1692	6,963.87	70.6071	6,963.87	72.3283	6,963.87	66.9401	6,963.87	70.7332	6,963.87	65.5125	6,963.87	59.3652	6,963.87	64.6265	6,963.87	47.0634	6,963.87	64.4571	6,963.87	60.7369	6,963.87	63.7112	6,963.87	55.1751	6,963.87	65.0861	6,963.87	65.0009	6,963.87	65.4835	6,963.87	51.6278	6,963.87	57.1403	6,963.87	62.1738	6,963.87	54.2489
7,209.96	82.8226	7,209.96	83.1622	7,209.96	80.8493	7,209.96	81.5429	7,209.96	82.2021	7,209.96	81.235	7,209.96	81.7154	7,209.96	80.8889	7,209.96	80.4117	7,209.96	78.0357	7,209.96	75.9768	7,209.96	76.7575	7,209.96	73.513	7,209.96	75.3514	7,209.96	78.0187	7,209.96	72.3943	7,209.96	77.3897	7,209.96	70.1868	7,209.96	73.7392	7,209.96	66.3167	7,209.96	71.8968	7,209.96	65.107	7,209.96	56.6941	7,209.96	63.9432	7,209.96	50.9859	7,209.96	63.5302	7,209.96	60.3368	7,209.96	65.0944	7,209.96	53.5959	7,209.96	64.9432	7,209.96	59.8511	7,209.96	65.2423	7,209.96	55.2812	7,209.96	58.0604	7,209.96	61.616	7,209.96	58.2297
7,464.84	82.8479	7,464.84	82.6738	7,464.84	80.8474	7,464.84	81.1051	7,464.84	81.3747	7,464.84	81.4419	7,464.84	81.3263	7,464.84	80.4974	7,464.84	81.3001	7,464.84	78.1048	7,464.84	77.9196	7,464.84	77.2199	7,464.84	72.6667	7,464.84	74.3469	7,464.84	79.5248	7,464.84	71.1341	7,464.84	76.0303	7,464.84	69.896	7,464.84	73.1205	7,464.84	65.2462	7,464.84	68.6278	7,464.84	65.2178	7,464.84	61.3716	7,464.84	62.0705	7,464.84	52.9761	7,464.84	62.4296	7,464.84	56.6197	7,464.84	64.1944	7,464.84	57.504	7,464.84	63.3187	7,464.84	61.0428	7,464.84	66.6067	7,464.84	58.2307	7,464.84	61.1646	7,464.84	60.7784	7,464.84	58.1131
7,727.05	82.6939	7,727.05	82.2716	7,727.05	80.7569	7,727.05	80.54	7,727.05	81.3266	7,727.05	81.6031	7,727.05	80.9302	7,727.05	79.4508	7,727.05	81.6616	7,727.05	78.3506	7,727.05	79.2405	7,727.05	75.9865	7,727.05	75.3313	7,727.05	73.368	7,727.05	78.0945	7,727.05	69.6254	7,727.05	68.1338	7,727.05	68.7907	7,727.05	70.2132	7,727.05	64.5209	7,727.05	64.7988	7,727.05	64.4945	7,727.05	63.6654	7,727.05	60.7132	7,727.05	50.8013	7,727.05	61.7238	7,727.05	61.0364	7,727.05	61.8865	7,727.05	38.0131	7,727.05	63.4714	7,727.05	63.0858	7,727.05	66.9202	7,727.05	51.4728	7,727.05	63.1875	7,727.05	60.0954	7,727.05	56.7906
7,999.51	82.6166	7,999.51	81.5372	7,999.51	80.6049	7,999.51	80.1375	7,999.51	80.7707	7,999.51	81.0743	7,999.51	79.9355	7,999.51	79.202	7,999.51	80.6841	7,999.51	77.9178	7,999.51	78.719	7,999.51	75.4028	7,999.51	75.8284	7,999.51	73.5444	7,999.51	73.3968	7,999.51	70.3752	7,999.51	73.0863	7,999.51	67.7554	7,999.51	72.4661	7,999.51	64.2612	7,999.51	68.9633	7,999.51	62.7225	7,999.51	65.4673	7,999.51	61.633	7,999.51	57.3377	7,999.51	62.5404	7,999.51	61.5308	7,999.51	61.0177	7,999.51	57.4253	7,999.51	63.7839	7,999.51	63.5728	7,999.51	66.6206	7,999.51	54.2682	7,999.51	63.0019	7,999.51	57.1228	7,999.51	56.619
8,282.23	82.6865	8,282.23	80.5619	8,282.23	80.3843	8,282.23	80.1557	8,282.23	80.3409	8,282.23	80.6081	8,282.23	78.7767	8,282.23	79.3826	8,282.23	80.1661	8,282.23	77.4692	8,282.23	78.1051	8,282.23	76.3299	8,282.23	72.2073	8,282.23	73.2841	8,282.23	72.8775	8,282.23	71.8108	8,282.23	74.4131	8,282.23	68.8853	8,282.23	71.9773	8,282.23	64.3181	8,282.23	67.9698	8,282.23	63.4301	8,282.23	64.1489	8,282.23	62.1304	8,282.23	58.4576	8,282.23	62.0577	8,282.23	61.6296	8,282.23	62.7462	8,282.23	55.1094	8,282.23	63.5097	8,282.23	59.285	8,282.23	66.5613	8,282.23	38.202	8,282.23	63.0161	8,282.23	57.8241	8,282.23	53.8271
8,573.73	81.9799	8,573.73	79.6882	8,573.73	79.8852	8,573.73	80.0942	8,573.73	80.4291	8,573.73	79.8934	8,573.73	78.7442	8,573.73	79.1296	8,573.73	80.0589	8,573.73	77.7197	8,573.73	77.6036	8,573.73	76.3371	8,573.73	67.6424	8,573.73	74.2987	8,573.73	73.8194	8,573.73	71.7621	8,573.73	72.4463	8,573.73	69.6825	8,573.73	71.0292	8,573.73	64.0055	8,573.73	62.8168	8,573.73	63.3899	8,573.73	57.4583	8,573.73	61.3978	8,573.73	57.3862	8,573.73	61.119	8,573.73	60.524	8,573.73	62.2038	8,573.73	54.9594	8,573.73	61.3827	8,573.73	57.5219	8,573.73	66.2649	8,573.73	55.3712	8,573.73	63.4046	8,573.73	56.9837	8,573.73	51.6099
8,876.95	81.4782	8,876.95	79.6069	8,876.95	79.9646	8,876.95	79.7543	8,876.95	79.7415	8,876.95	79.226	8,876.95	78.1405	8,876.95	78.8791	8,876.95	79.7686	8,876.95	77.4263	8,876.95	78.7398	8,876.95	76.2239	8,876.95	69.5473	8,876.95	73.6558	8,876.95	73.3953	8,876.95	68.7136	8,876.95	69.1762	8,876.95	68.1191	8,876.95	69.8543	8,876.95	61.107	8,876.95	59.3001	8,876.95	61.1119	8,876.95	53.7757	8,876.95	58.9598	8,876.95	58.5511	8,876.95	59.4647	8,876.95	59.2552	8,876.95	59.8772	8,876.95	56.0041	8,876.95	60.4358	8,876.95	58.2899	8,876.95	65.0251	8,876.95	51.3002	8,876.95	61.6305	8,876.95	56.9799	8,876.95	53.5807
9,188.96	81.1178	9,188.96	79.7537	9,188.96	79.675	9,188.96	79.2565	9,188.96	79.4657	9,188.96	78.7714	9,188.96	77.9388	9,188.96	78.728	9,188.96	79.5467	9,188.96	77.319	9,188.96	78.7156	9,188.96	75.5686	9,188.96	70.4248	9,188.96	71.4729	9,188.96	72.3496	9,188.96	67.5746	9,188.96	70.595	9,188.96	67.0179	9,188.96	68.8625	9,188.96	60.3531	9,188.96	64.8213	9,188.96	60.1637	9,188.96	54.9774	9,188.96	57.132	9,188.96	56.1455	9,188.96	58.8168	9,188.96	52.1811	9,188.96	59.318	9,188.96	54.5721	9,188.96	59.2374	9,188.96	52.7629	9,188.96	63.9974	9,188.96	53.6432	9,188.96	61.9619	9,188.96	53.7194	9,188.96	44.8399
9,514.16	80.6225	9,514.16	79.9045	9,514.16	79.5825	9,514.16	78.4561	9,514.16	78.9239	9,514.16	78.5553	9,514.16	77.4701	9,514.16	78.1917	9,514.16	77.8683	9,514.16	77.4659	9,514.16	77.2636	9,514.16	74.141	9,514.16	69.9002	9,514.16	71.6749	9,514.16	71.9282	9,514.16	68.0873	9,514.16	69.2165	9,514.16	66.0192	9,514.16	64.6195	9,514.16	59.9343	9,514.16	64.1571	9,514.16	59.8736	9,514.16	49.5193	9,514.16	57.4326	9,514.16	48.7954	9,514.16	57.0226	9,514.16	56.3339	9,514.16	57.1931	9,514.16	51.8825	9,514.16	59.8193	9,514.16	55.9803	9,514.16	64.4682	9,514.16	47.0576	9,514.16	60.1411	9,514.16	53.1617	9,514.16	48.8265
9,849.61	80.5978	9,849.61	79.9867	9,849.61	79.2609	9,849.61	78.0931	9,849.61	79.1023	9,849.61	78.0382	9,849.61	77.5483	9,849.61	77.5626	9,849.61	76.8728	9,849.61	76.5429	9,849.61	77.113	9,849.61	73.5826	9,849.61	70.3658	9,849.61	69.9474	9,849.61	69.5579	9,849.61	66.5782	9,849.61	68.9712	9,849.61	62.5125	9,849.61	63.5271	9,849.61	57.5341	9,849.61	63.4433	9,849.61	57.2224	9,849.61	46.2126	9,849.61	56.1485	9,849.61	49.5708	9,849.61	56.6189	9,849.61	55.9731	9,849.61	51.4982	9,849.61	47.6317	9,849.61	58.8791	9,849.61	56.3529	9,849.61	62.7767	9,849.61	42.6644	9,849.61	59.1681	9,849.61	51.0437	9,849.61	49.5428
10,196.8	80.8135	10,196.8	79.8107	10,196.8	78.9636	10,196.8	78.4129	10,196.8	78.865	10,196.8	77.4849	10,196.8	77.5536	10,196.8	77.0741	10,196.8	76.1853	10,196.8	74.7974	10,196.8	75.9095	10,196.8	73.0592	10,196.8	69.9155	10,196.8	67.5487	10,196.8	68.6657	10,196.8	66.947	10,196.8	71.0172	10,196.8	61.1389	10,196.8	64.2468	10,196.8	59.7294	10,196.8	60.6321	10,196.8	55.6894	10,196.8	54.6316	10,196.8	56.6651	10,196.8	47.6644	10,196.8	54.8778	10,196.8	52.7122	10,196.8	53.0885	10,196.8	51.7714	10,196.8	58.7399	10,196.8	53.5163	10,196.8	60.9351	10,196.8	45.5785	10,196.8	59.8153	10,196.8	53.0935	10,196.8	51.9661
10,555.7	80.4831	10,555.7	79.7065	10,555.7	78.827	10,555.7	78.5082	10,555.7	78.5843	10,555.7	77.4674	10,555.7	77.558	10,555.7	76.1755	10,555.7	75.733	10,555.7	73.551	10,555.7	76.1489	10,555.7	72.4282	10,555.7	69.8855	10,555.7	69.2194	10,555.7	69.6143	10,555.7	66.827	10,555.7	67.3096	10,555.7	62.0629	10,555.7	61.2093	10,555.7	59.3151	10,555.7	58.6498	10,555.7	56.8335	10,555.7	32.1373	10,555.7	56.8064	10,555.7	46.7153	10,555.7	56.1106	10,555.7	51.3155	10,555.7	53.4605	10,555.7	46.7934	10,555.7	57.1375	10,555.7	50.854	10,555.7	60.62	10,555.7	49.8054	10,555.7	60.2669	10,555.7	53.5965	10,555.7	46.8513
10,927.7	79.8182	10,927.7	79.4603	10,927.7	79.0467	10,927.7	78.4767	10,927.7	78.5696	10,927.7	77.5679	10,927.7	77.1417	10,927.7	74.8201	10,927.7	74.8815	10,927.7	73.312	10,927.7	75.4405	10,927.7	72.7818	10,927.7	70.7788	10,927.7	69.3025	10,927.7	66.4067	10,927.7	66.7834	10,927.7	64.3973	10,927.7	61.8077	10,927.7	61.8645	10,927.7	58.3739	10,927.7	59.4574	10,927.7	56.3154	10,927.7	59.8274	10,927.7	55.5212	10,927.7	56.6017	10,927.7	54.6102	10,927.7	51.0094	10,927.7	49.2438	10,927.7	48.868	10,927.7	57.2123	10,927.7	51.3394	10,927.7	60.2142	10,927.7	47.6013	10,927.7	59.544	10,927.7	54.8377	10,927.7	48.5118
11,313	79.9349	11,313	79.2166	11,313	79.6888	11,313	79.3288	11,313	78.771	11,313	77.4518	11,313	76.3346	11,313	73.3291	11,313	73.8559	11,313	73.6379	11,313	75.073	11,313	72.0909	11,313	69.7799	11,313	68.5983	11,313	65.3722	11,313	65.4708	11,313	67.2754	11,313	59.3378	11,313	59.3663	11,313	56.1607	11,313	59.3461	11,313	53.7989	11,313	63.3663	11,313	53.9749	11,313	58.1756	11,313	52.3283	11,313	46.9872	11,313	45.2539	11,313	49.4618	11,313	56.3361	11,313	47.6848	11,313	58.5295	11,313	50.7155	11,313	59.1643	11,313	53.0675	11,313	47.4759
11,712.9	80.2374	11,712.9	80.048	11,712.9	80.5378	11,712.9	80.1575	11,712.9	79.2129	11,712.9	77.3149	11,712.9	77.1944	11,712.9	73.8553	11,712.9	74.291	11,712.9	72.5787	11,712.9	74.9706	11,712.9	71.2815	11,712.9	70.0617	11,712.9	66.5764	11,712.9	65.8762	11,712.9	63.9961	11,712.9	63.9995	11,712.9	57.6878	11,712.9	60.2604	11,712.9	55.9149	11,712.9	60.716	11,712.9	52.0636	11,712.9	63.1239	11,712.9	51.5641	11,712.9	55.0576	11,712.9	48.0765	11,712.9	42.8233	11,712.9	48.3544	11,712.9	45.034	11,712.9	55.0737	11,712.9	44.8921	11,712.9	56.5284	11,712.9	45.8893	11,712.9	56.9637	11,712.9	51.8524	11,712.9	48.2826
12,126	80.6045	12,126	80.9163	12,126	81.3155	12,126	80.4806	12,126	79.8746	12,126	77.7787	12,126	78.166	12,126	73.5901	12,126	75.0444	12,126	71.6324	12,126	74.4079	12,126	69.3144	12,126	69.2147	12,126	64.7765	12,126	63.9041	12,126	62.5606	12,126	60.3578	12,126	54.7547	12,126	59.3502	12,126	53.081	12,126	58.3041	12,126	47.6895	12,126	59.9998	12,126	47.0575	12,126	52.4077	12,126	46.5821	12,126	46.6681	12,126	45.3934	12,126	37.6766	12,126	48.8137	12,126	44.7526	12,126	51.6777	12,126	33.0162	12,126	54.6043	12,126	50.1614	12,126	44.6058
12,553.7	81.04	12,553.7	81.3531	12,553.7	81.5278	12,553.7	80.4799	12,553.7	80.3531	12,553.7	77.8912	12,553.7	78.4245	12,553.7	73.331	12,553.7	75.0981	12,553.7	71.4329	12,553.7	73.935	12,553.7	67.5046	12,553.7	67.8264	12,553.7	63.111	12,553.7	61.5008	12,553.7	59.99	12,553.7	60.0041	12,553.7	49.82	12,553.7	58.5954	12,553.7	50.5981	12,553.7	54.9082	12,553.7	45.5321	12,553.7	60.2649	12,553.7	46.3882	12,553.7	52.8276	12,553.7	46.1048	12,553.7	48.4445	12,553.7	41.682	12,553.7	39.2676	12,553.7	46.1949	12,553.7	41.1292	12,553.7	51.2971	12,553.7	30.8186	12,553.7	52.9453	12,553.7	45.7336	12,553.7	42.9707
12,996.1	81.0441	12,996.1	81.4137	12,996.1	81.4429	12,996.1	80.4257	12,996.1	80.378	12,996.1	77.6148	12,996.1	78.4676	12,996.1	73.5465	12,996.1	75.2138	12,996.1	70.8879	12,996.1	73.867	12,996.1	67.9585	12,996.1	67.3482	12,996.1	63.3592	12,996.1	61.1933	12,996.1	59.6978	12,996.1	60.725	12,996.1	49.5168	12,996.1	58.7902	12,996.1	50.7658	12,996.1	56.6498	12,996.1	44.8531	12,996.1	60.8539	12,996.1	48.5688	12,996.1	52.6798	12,996.1	46.4554	12,996.1	49.0818	12,996.1	44.872	12,996.1	39.1954	12,996.1	36.4783	12,996.1	19.8021	12,996.1	51.5056	12,996.1	37.3018	12,996.1	53.0949	12,996.1	45.1433	12,996.1	39.5876
13,454.6	81.1724	13,454.6	81.5208	13,454.6	81.3427	13,454.6	80.0604	13,454.6	80.2032	13,454.6	77.3983	13,454.6	78.1771	13,454.6	73.3557	13,454.6	75.1744	13,454.6	70.5717	13,454.6	73.3083	13,454.6	68.4427	13,454.6	66.1586	13,454.6	62.4352	13,454.6	60.0255	13,454.6	58.2736	13,454.6	60.2303	13,454.6	51.0682	13,454.6	58.6715	13,454.6	49.9291	13,454.6	57.0563	13,454.6	43.276	13,454.6	59.6835	13,454.6	48.259	13,454.6	50.3005	13,454.6	45.5744	13,454.6	30.4963	13,454.6	44.7769	13,454.6	32.7897	13,454.6	46.4601	13,454.6	37.8873	13,454.6	50.6343	13,454.6	41.5527	13,454.6	50.3678	13,454.6	40.3201	13,454.6	36.1357
13,929.2	81.2479	13,929.2	81.4858	13,929.2	81.0869	13,929.2	79.7055	13,929.2	79.9823	13,929.2	77.4514	13,929.2	77.6906	13,929.2	72.2365	13,929.2	74.5976	13,929.2	70.7573	13,929.2	72.8102	13,929.2	67.2627	13,929.2	64.9509	13,929.2	60.6815	13,929.2	59.231	13,929.2	57.1217	13,929.2	58.9036	13,929.2	47.3884	13,929.2	57.6152	13,929.2	49.6032	13,929.2	55.9756	13,929.2	43.8869	13,929.2	57.9863	13,929.2	48.862	13,929.2	48.833	13,929.2	39.2634	13,929.2	44.0064	13,929.2	43.317	13,929.2	31.0335	13,929.2	45.281	13,929.2	37.5769	13,929.2	48.9183	13,929.2	44.119	13,929.2	50.99	13,929.2	33.8271	13,929.2	34.5286
14,419.9	81.2006	14,419.9	81.1596	14,419.9	80.8898	14,419.9	79.4931	14,419.9	79.4492	14,419.9	76.9335	14,419.9	77.0311	14,419.9	71.8836	14,419.9	73.6336	14,419.9	69.8196	14,419.9	70.6038	14,419.9	65.755	14,419.9	64.7096	14,419.9	58.6646	14,419.9	57.7492	14,419.9	55.9144	14,419.9	60.2387	14,419.9	50.651	14,419.9	52.6257	14,419.9	48.6266	14,419.9	55.6279	14,419.9	45.0767	14,419.9	56.9073	14,419.9	47.8327	14,419.9	47.9077	14,419.9	43.983	14,419.9	37.3375	14,419.9	42.728	14,419.9	42.1244	14,419.9	41.9899	14,419.9	39.0918	14,419.9	47.2222	14,419.9	39.6054	14,419.9	51.9589	14,419.9	38.3718	14,419.9	39.3771
14,928.2	81.1772	14,928.2	80.9555	14,928.2	80.677	14,928.2	79.3604	14,928.2	78.9097	14,928.2	76.2384	14,928.2	76.2763	14,928.2	71.0361	14,928.2	72.4948	14,928.2	68.7076	14,928.2	69.7937	14,928.2	64.9506	14,928.2	60.832	14,928.2	59.8824	14,928.2	56.8652	14,928.2	55.532	14,928.2	53.8395	14,928.2	52.4678	14,928.2	51.4177	14,928.2	47.8124	14,928.2	53.6856	14,928.2	46.3569	14,928.2	55.9367	14,928.2	46.6013	14,928.2	50.5399	14,928.2	44.4219	14,928.2	35.7257	14,928.2	41.8409	14,928.2	42.9651	14,928.2	44.6418	14,928.2	40.6887	14,928.2	47.6471	14,928.2	44.2874	14,928.2	51.3026	14,928.2	38.9729	14,928.2	43.0309
15,455.6	80.9103	15,455.6	80.8102	15,455.6	80.4332	15,455.6	78.9391	15,455.6	78.4209	15,455.6	75.3292	15,455.6	75.4395	15,455.6	69.6722	15,455.6	70.9294	15,455.6	67.3726	15,455.6	66.7874	15,455.6	63.8482	15,455.6	59.8173	15,455.6	61.1682	15,455.6	52.6202	15,455.6	55.594	15,455.6	54.2171	15,455.6	53.7504	15,455.6	48.2926	15,455.6	47.6162	15,455.6	50.9451	15,455.6	45.6527	15,455.6	52.6936	15,455.6	43.9636	15,455.6	50.8415	15,455.6	43.9342	15,455.6	41.3229	15,455.6	44.2486	15,455.6	41.0874	15,455.6	45.7663	15,455.6	41.2175	15,455.6	48.9706	15,455.6	40.6927	15,455.6	51.3061	15,455.6	42.4609	15,455.6	45.034
16,000.5	80.4371	16,000.5	80.2653	16,000.5	79.9601	16,000.5	78.0724	16,000.5	77.8237	16,000.5	74.3561	16,000.5	74.3085	16,000.5	68.6923	16,000.5	69.4035	16,000.5	66.3094	16,000.5	64.4462	16,000.5	65.1299	16,000.5	59.8076	16,000.5	62.6166	16,000.5	51.7965	16,000.5	57.2426	16,000.5	55.5388	16,000.5	54.5421	16,000.5	50.6185	16,000.5	48.8291	16,000.5	50.9386	16,000.5	46.277	16,000.5	49.3425	16,000.5	44.6171	16,000.5	51.6109	16,000.5	46.0251	16,000.5	41.6307	16,000.5	41.7193	16,000.5	40.9083	16,000.5	48.9915	16,000.5	39.1338	16,000.5	50.6319	16,000.5	43.228	16,000.5	51.8577	16,000.5	43.5967	16,000.5	44.2912
16,564.5	79.73	16,564.5	79.1819	16,564.5	79.0814	16,564.5	76.814	16,564.5	77.2653	16,564.5	73.9938	16,564.5	73.0031	16,564.5	68.0563	16,564.5	67.7981	16,564.5	66.9996	16,564.5	64.1914	16,564.5	66.2003	16,564.5	59.769	16,564.5	63.4563	16,564.5	56.0449	16,564.5	57.8456	16,564.5	56.2205	16,564.5	54.2398	16,564.5	51.3685	16,564.5	48.2118	16,564.5	54.8447	16,564.5	45.0993	16,564.5	48.3907	16,564.5	45.5144	16,564.5	51.8543	16,564.5	44.3992	16,564.5	40.2306	16,564.5	39.3054	16,564.5	42.5287	16,564.5	50.3687	16,564.5	39.9524	16,564.5	52.2845	16,564.5	43.562	16,564.5	50.6928	16,564.5	45.3291	16,564.5	44.9223
17,148.9	78.9249	17,148.9	78.2685	17,148.9	78.2847	17,148.9	75.9539	17,148.9	76.8951	17,148.9	74.2704	17,148.9	72.6981	17,148.9	67.6573	17,148.9	67.8087	17,148.9	67.34	17,148.9	63.7613	17,148.9	66.574	17,148.9	61.425	17,148.9	63.1282	17,148.9	57.2171	17,148.9	56.8358	17,148.9	55.4438	17,148.9	53.282	17,148.9	51.7996	17,148.9	47.7525	17,148.9	54.6475	17,148.9	42.8269	17,148.9	47.7873	17,148.9	42.4325	17,148.9	52.0531	17,148.9	42.8459	17,148.9	40.7505	17,148.9	35.933	17,148.9	39.2707	17,148.9	51.3338	17,148.9	35.101	17,148.9	51.404	17,148.9	41.0943	17,148.9	49.2004	17,148.9	45.367	17,148.9	43.7174
17,752.4	78.6652	17,752.4	77.9467	17,752.4	78.0445	17,752.4	76.1656	17,752.4	76.5501	17,752.4	74.1852	17,752.4	73.2365	17,752.4	67.7429	17,752.4	68.7435	17,752.4	67.1004	17,752.4	65.8234	17,752.4	66.2041	17,752.4	60.6507	17,752.4	62.1394	17,752.4	58.1538	17,752.4	54.4463	17,752.4	52.6838	17,752.4	51.1607	17,752.4	51.6975	17,752.4	45.8543	17,752.4	54.2571	17,752.4	39.3169	17,752.4	47.8854	17,752.4	40.83	17,752.4	52.1061	17,752.4	40.7245	17,752.4	37.6256	17,752.4	30.8624	17,752.4	34.5761	17,752.4	50.0522	17,752.4	40.2243	17,752.4	48.7527	17,752.4	41.0303	17,752.4	48.3882	17,752.4	43.9831	17,752.4	42.9561
18,379.4	79.047	18,379.4	78.1682	18,379.4	78.2708	18,379.4	76.3254	18,379.4	76.29	18,379.4	73.4873	18,379.4	73.4069	18,379.4	67.417	18,379.4	68.3476	18,379.4	67.0086	18,379.4	65.7258	18,379.4	64.6376	18,379.4	60.0577	18,379.4	60.0245	18,379.4	56.3378	18,379.4	51.744	18,379.4	51.2352	18,379.4	50.6041	18,379.4	53.5549	18,379.4	44.9729	18,379.4	54.8786	18,379.4	36.9104	18,379.4	41.7921	18,379.4	40.2659	18,379.4	52.326	18,379.4	38.2005	18,379.4	33.7606	18,379.4	26.1491	18,379.4	40.8813	18,379.4	48.7955	18,379.4	43.6628	18,379.4	47.5957	18,379.4	41.7504	18,379.4	46.8108	18,379.4	41.4203	18,379.4	40.1057
19,026.9	79.0106	19,026.9	78.1798	19,026.9	78.3492	19,026.9	76.2102	19,026.9	76.1084	19,026.9	72.9565	19,026.9	73.315	19,026.9	67.3589	19,026.9	68.4571	19,026.9	67.144	19,026.9	66.3667	19,026.9	62.8973	19,026.9	59.157	19,026.9	58.4954	19,026.9	55.6081	19,026.9	52.2864	19,026.9	50.2182	19,026.9	50.6031	19,026.9	54.1602	19,026.9	44.982	19,026.9	54.5005	19,026.9	37.9677	19,026.9	41.2967	19,026.9	38.6217	19,026.9	53.5981	19,026.9	34.9437	19,026.9	37.3118	19,026.9	35.3006	19,026.9	45.0763	19,026.9	49.8355	19,026.9	43.3164	19,026.9	48.3484	19,026.9	44.0179	19,026.9	45.1194	19,026.9	43.1775	19,026.9	42.0441
19,697.8	78.5866	19,697.8	77.9425	19,697.8	78.2146	19,697.8	75.8683	19,697.8	75.8956	19,697.8	72.5028	19,697.8	73.0371	19,697.8	67.3667	19,697.8	68.6209	19,697.8	65.7845	19,697.8	65.9854	19,697.8	61.464	19,697.8	57.994	19,697.8	57.9248	19,697.8	53.2402	19,697.8	52.5751	19,697.8	49.2667	19,697.8	50.6102	19,697.8	53.9845	19,697.8	43.8234	19,697.8	56.0042	19,697.8	38.2716	19,697.8	35.1801	19,697.8	35.6795	19,697.8	52.4697	19,697.8	34.4923	19,697.8	36.2685	19,697.8	37.1814	19,697.8	43.5917	19,697.8	48.9501	19,697.8	43.2526	19,697.8	47.9111	19,697.8	42.1946	19,697.8	41.5554	19,697.8	42.7201	19,697.8	40.8676
19,999.5	78.1117	19,999.5	77.6883	19,999.5	78.154	19,999.5	75.7311	19,999.5	75.8196	19,999.5	72.1852	19,999.5	72.7745	19,999.5	67.1286	19,999.5	69.0826	19,999.5	64.9848	19,999.5	66.8006	19,999.5	60.6548	19,999.5	56.8	19,999.5	58.6699	19,999.5	53.5921	19,999.5	49.2196	19,999.5	46.5583	19,999.5	49.674	19,999.5	52.2625	19,999.5	41.922	19,999.5	53.1537	19,999.5	37.5702	19,999.5	46.776	19,999.5	29.8716	19,999.5	53.3299	19,999.5	27.9652	19,999.5	40.6612	19,999.5	44.5041	19,999.5	41.8896	19,999.5	48.6138	19,999.5	48.4093	19,999.5	48.0875	19,999.5	37.3462	19,999.5	46.2646	19,999.5	41.9988	19,999.5	45.0011
