"SPL Horizontal"
"On-Axis"		"10°"		"-10°"		"20°"		"-20°"		"30°"		"-30°"		"40°"		"-40°"		"50°"		"-50°"		"60°"		"-60°"		"70°"		"-70°"		"80°"		"-80°"		"90°"		"-90°"		"100°"		"-100°"		"110°"		"-110°"		"120°"		"-120°"		"130°"		"-130°"		"140°"		"-140°"		"150°"		"-150°"		"160°"		"-160°"		"170°"		"-170°"		"180°"
"Frequency / Hz"	"Sound Pressure Level / dB (re 20 µPa/V)  [2.83  V @ 1. m]"	"Frequency / Hz"	"Sound Pressure Level / dB (re 20 µPa/V)  [2.83  V @ 1. m]"	"Frequency / Hz"	"Sound Pressure Level / dB (re 20 µPa/V)  [2.83  V @ 1. m]"	"Frequency / Hz"	"Sound Pressure Level / dB (re 20 µPa/V)  [2.83  V @ 1. m]"	"Frequency / Hz"	"Sound Pressure Level / dB (re 20 µPa/V)  [2.83  V @ 1. m]"	"Frequency / Hz"	"Sound Pressure Level / dB (re 20 µPa/V)  [2.83  V @ 1. m]"	"Frequency / Hz"	"Sound Pressure Level / dB (re 20 µPa/V)  [2.83  V @ 1. m]"	"Frequency / Hz"	"Sound Pressure Level / dB (re 20 µPa/V)  [2.83  V @ 1. m]"	"Frequency / Hz"	"Sound Pressure Level / dB (re 20 µPa/V)  [2.83  V @ 1. m]"	"Frequency / Hz"	"Sound Pressure Level / dB (re 20 µPa/V)  [2.83  V @ 1. m]"	"Frequency / Hz"	"Sound Pressure Level / dB (re 20 µPa/V)  [2.83  V @ 1. m]"	"Frequency / Hz"	"Sound Pressure Level / dB (re 20 µPa/V)  [2.83  V @ 1. m]"	"Frequency / Hz"	"Sound Pressure Level / dB (re 20 µPa/V)  [2.83  V @ 1. m]"	"Frequency / Hz"	"Sound Pressure Level / dB (re 20 µPa/V)  [2.83  V @ 1. m]"	"Frequency / Hz"	"Sound Pressure Level / dB (re 20 µPa/V)  [2.83  V @ 1. m]"	"Frequency / Hz"	"Sound Pressure Level / dB (re 20 µPa/V)  [2.83  V @ 1. m]"	"Frequency / Hz"	"Sound Pressure Level / dB (re 20 µPa/V)  [2.83  V @ 1. m]"	"Frequency / Hz"	"Sound Pressure Level / dB (re 20 µPa/V)  [2.83  V @ 1. m]"	"Frequency / Hz"	"Sound Pressure Level / dB (re 20 µPa/V)  [2.83  V @ 1. m]"	"Frequency / Hz"	"Sound Pressure Level / dB (re 20 µPa/V)  [2.83  V @ 1. m]"	"Frequency / Hz"	"Sound Pressure Level / dB (re 20 µPa/V)  [2.83  V @ 1. m]"	"Frequency / Hz"	"Sound Pressure Level / dB (re 20 µPa/V)  [2.83  V @ 1. m]"	"Frequency / Hz"	"Sound Pressure Level / dB (re 20 µPa/V)  [2.83  V @ 1. m]"	"Frequency / Hz"	"Sound Pressure Level / dB (re 20 µPa/V)  [2.83  V @ 1. m]"	"Frequency / Hz"	"Sound Pressure Level / dB (re 20 µPa/V)  [2.83  V @ 1. m]"	"Frequency / Hz"	"Sound Pressure Level / dB (re 20 µPa/V)  [2.83  V @ 1. m]"	"Frequency / Hz"	"Sound Pressure Level / dB (re 20 µPa/V)  [2.83  V @ 1. m]"	"Frequency / Hz"	"Sound Pressure Level / dB (re 20 µPa/V)  [2.83  V @ 1. m]"	"Frequency / Hz"	"Sound Pressure Level / dB (re 20 µPa/V)  [2.83  V @ 1. m]"	"Frequency / Hz"	"Sound Pressure Level / dB (re 20 µPa/V)  [2.83  V @ 1. m]"	"Frequency / Hz"	"Sound Pressure Level / dB (re 20 µPa/V)  [2.83  V @ 1. m]"	"Frequency / Hz"	"Sound Pressure Level / dB (re 20 µPa/V)  [2.83  V @ 1. m]"	"Frequency / Hz"	"Sound Pressure Level / dB (re 20 µPa/V)  [2.83  V @ 1. m]"	"Frequency / Hz"	"Sound Pressure Level / dB (re 20 µPa/V)  [2.83  V @ 1. m]"	"Frequency / Hz"	"Sound Pressure Level / dB (re 20 µPa/V)  [2.83  V @ 1. m]"	"Frequency / Hz"	"Sound Pressure Level / dB (re 20 µPa/V)  [2.83  V @ 1. m]"
20.5078	58.4238	20.5078	58.4689	20.5078	58.4351	20.5078	58.5714	20.5078	58.5022	20.5078	58.7324	20.5078	58.6255	20.5078	58.9526	20.5078	58.8053	20.5078	59.2316	20.5078	59.0417	20.5078	59.5665	20.5078	59.3335	20.5078	59.9519	20.5078	59.6776	20.5078	60.3791	20.5078	60.0683	20.5078	60.8364	20.5078	60.4971	20.5078	61.3094	20.5078	60.9525	20.5078	61.7814	20.5078	61.4203	20.5078	62.2345	20.5078	61.8843	20.5078	62.6501	20.5078	62.3266	20.5078	63.0104	20.5078	62.7291	20.5078	63.2991	20.5078	63.0742	20.5078	63.503	20.5078	63.3461	20.5078	63.6123	20.5078	63.5317	20.5078	63.622
21.9727	58.645	21.9727	58.6779	21.9727	58.6291	21.9727	58.73	21.9727	58.6303	21.9727	58.8059	21.9727	58.6515	21.9727	58.9115	21.9727	58.6978	21.9727	59.0537	21.9727	58.7765	21.9727	59.2386	21.9727	58.8955	21.9727	59.4702	21.9727	59.0627	21.9727	59.7493	21.9727	59.2835	21.9727	60.0716	21.9727	59.5594	21.9727	60.4276	21.9727	59.8862	21.9727	60.8027	21.9727	60.2536	21.9727	61.1782	21.9727	60.6457	21.9727	61.533	21.9727	61.042	21.9727	61.8458	21.9727	61.4202	21.9727	62.0969	21.9727	61.7576	21.9727	62.2699	21.9727	62.0339	21.9727	62.3532	21.9727	62.2321	21.9727	62.3406
23.4375	55.5274	23.4375	55.5302	23.4375	55.4926	23.4375	55.5047	23.4375	55.4263	23.4375	55.4584	23.4375	55.3329	23.4375	55.4029	23.4375	55.2215	23.4375	55.3543	23.4375	55.1062	23.4375	55.332	23.4375	55.0066	23.4375	55.3567	23.4375	54.9467	23.4375	55.4472	23.4375	54.9519	23.4375	55.6148	23.4375	55.044	23.4375	55.8594	23.4375	55.2345	23.4375	56.1676	23.4375	55.5196	23.4375	56.5144	23.4375	55.8793	23.4375	56.8678	23.4375	56.2814	23.4375	57.1948	23.4375	56.6884	23.4375	57.4651	23.4375	57.064	23.4375	57.6542	23.4375	57.3769	23.4375	57.7451	23.4375	57.6036	23.4375	57.7287
24.9023	52.7378	24.9023	52.6971	24.9023	52.7011	24.9023	52.5837	24.9023	52.5876	24.9023	52.4083	24.9023	52.4038	24.9023	52.1896	24.9023	52.1636	24.9023	51.9567	24.9023	51.892	24.9023	51.7512	24.9023	51.628	24.9023	51.6245	24.9023	51.4256	24.9023	51.6286	24.9023	51.3469	24.9023	51.7984	24.9023	51.4441	24.9023	52.1358	24.9023	51.7363	24.9023	52.6063	24.9023	52.1973	24.9023	53.1518	24.9023	52.7661	24.9023	53.7092	24.9023	53.3704	24.9023	54.2236	24.9023	53.9455	24.9023	54.653	24.9023	54.4422	24.9023	54.968	24.9023	54.8272	24.9023	55.15	24.9023	55.0796	24.9023	55.1883
26.3672	48.3409	26.3672	48.2381	26.3672	48.3059	26.3672	48.0103	26.3672	48.139	26.3672	47.6947	26.3672	47.8679	26.3672	47.3667	26.3672	47.5533	26.3672	47.1515	26.3672	47.3035	26.3672	47.2083	26.3672	47.2713	26.3672	47.656	26.3672	47.5995	26.3672	48.486	26.3672	48.3258	26.3672	49.5687	26.3672	49.3511	26.3672	50.7453	26.3672	50.5153	26.3672	51.8947	26.3672	51.681	26.3672	52.9447	26.3672	52.761	26.3672	53.8571	26.3672	53.708	26.3672	54.6133	26.3672	54.4983	26.3672	55.204	26.3672	55.121	26.3672	55.6247	26.3672	55.5711	26.3672	55.8729	26.3672	55.8467	26.3672	55.9472
27.832	48.9692	27.832	48.9519	27.832	48.9774	27.832	48.9551	27.832	48.9838	27.832	49.0429	27.832	49.0326	27.832	49.2992	27.832	49.1978	27.832	49.7947	27.832	49.5615	27.832	50.5472	27.832	50.1757	27.832	51.5095	27.832	51.0301	27.832	52.5952	27.832	52.0568	27.832	53.7165	27.832	53.1654	27.832	54.8051	27.832	54.2755	27.832	55.8152	27.832	55.3287	27.832	56.7181	27.832	56.2875	27.832	57.496	27.832	57.1288	27.832	58.1373	27.832	57.8384	27.832	58.6344	27.832	58.4071	27.832	58.9818	27.832	58.8287	27.832	59.1761	27.832	59.099	27.832	59.2152
29.2969	55.4814	29.2969	55.5097	29.2969	55.4887	29.2969	55.5831	29.2969	55.5344	29.2969	55.7211	29.2969	55.6328	29.2969	55.9482	29.2969	55.8068	29.2969	56.2865	29.2969	56.0812	29.2969	56.7465	29.2969	56.4745	29.2969	57.3219	29.2969	56.9903	29.2969	57.9897	29.2969	57.6138	29.2969	58.7157	29.2969	58.3156	29.2969	59.462	29.2969	59.0581	29.2969	60.1928	29.2969	59.8034	29.2969	60.8772	29.2969	60.5173	29.2969	61.4898	29.2969	61.1717	29.2969	62.0102	29.2969	61.7437	29.2969	62.4226	29.2969	62.2156	29.2969	62.7148	29.2969	62.5733	29.2969	62.8787	29.2969	62.8069	29.2969	62.9097
30.7617	58.7249	30.7617	58.7276	30.7617	58.7244	30.7617	58.7395	30.7617	58.7277	30.7617	58.7751	30.7617	58.7449	30.7617	58.8552	30.7617	58.7934	30.7617	59.0034	30.7617	58.8963	30.7617	59.2405	30.7617	59.0777	30.7617	59.5787	30.7617	59.3565	30.7617	60.0162	30.7617	59.7399	30.7617	60.5369	30.7617	60.2199	30.7617	61.1131	30.7617	60.7739	30.7617	61.7115	30.7617	61.3701	30.7617	62.2982	30.7617	61.973	30.7617	62.8419	30.7617	62.5486	30.7617	63.3161	30.7617	63.0672	30.7617	63.699	30.7617	63.5042	30.7617	63.974	30.7617	63.8403	30.7617	64.1297	30.7617	64.0617	30.7617	64.1593
32.2266	60.1834	32.2266	60.1706	32.2266	60.1765	32.2266	60.1435	32.2266	60.1513	32.2266	60.1142	32.2266	60.116	32.2266	60.1012	32.2266	60.0857	32.2266	60.1278	32.2266	60.0819	32.2266	60.2193	32.2266	60.1302	32.2266	60.3973	32.2266	60.2563	32.2266	60.6739	32.2266	60.4793	32.2266	61.0466	32.2266	60.8052	32.2266	61.4977	32.2266	61.2239	32.2266	61.998	32.2266	61.7103	32.2266	62.5126	32.2266	62.23	32.2266	63.0063	32.2266	62.7459	32.2266	63.4475	32.2266	63.2235	32.2266	63.8101	32.2266	63.6332	32.2266	64.0738	32.2266	63.9518	32.2266	64.2247	32.2266	64.1625	32.2266	64.2549
33.6914	60.5222	33.6914	60.4949	33.6914	60.5112	33.6914	60.4338	33.6914	60.4629	33.6914	60.3501	33.6914	60.3847	33.6914	60.2612	33.6914	60.2906	33.6914	60.1911	33.6914	60.2017	33.6914	60.1686	33.6914	60.1455	33.6914	60.2232	33.6914	60.1532	33.6914	60.3776	33.6914	60.2535	33.6914	60.6407	33.6914	60.4642	33.6914	61.0031	33.6914	60.7851	33.6914	61.4382	33.6914	61.1964	33.6914	61.909	33.6914	61.6633	33.6914	62.3756	33.6914	62.1448	33.6914	62.8016	33.6914	62.6007	33.6914	63.1565	33.6914	62.997	33.6914	63.4172	33.6914	63.3069	33.6914	63.5682	33.6914	63.5119	33.6914	63.6004
35.1562	60.2205	35.1562	60.18	35.1562	60.2061	35.1562	60.0892	35.1562	60.1378	35.1562	59.959	35.1562	60.0228	35.1562	59.8073	35.1562	59.8749	35.1562	59.66	35.1562	59.7163	35.1562	59.5504	35.1562	59.5777	35.1562	59.5152	35.1562	59.4964	35.1562	59.5866	35.1562	59.5102	35.1562	59.7819	35.1562	59.6464	35.1562	60.096	35.1562	59.9117	35.1562	60.5014	35.1562	60.2871	35.1562	60.9566	35.1562	60.7341	35.1562	61.4161	35.1562	61.2055	35.1562	61.8392	35.1562	61.656	35.1562	62.193	35.1562	62.048	35.1562	62.4537	35.1562	62.3539	35.1562	62.6056	35.1562	62.5549	35.1562	62.6401
36.6211	59.6559	36.6211	59.6115	36.6211	59.6409	36.6211	59.5136	36.6211	59.568	36.6211	59.3761	36.6211	59.4464	36.6211	59.2221	36.6211	59.2943	36.6211	59.0844	36.6211	59.14	36.6211	59.0036	36.6211	59.0223	36.6211	59.0216	36.6211	58.9856	36.6211	59.17	36.6211	59.0705	36.6211	59.4576	36.6211	59.2992	36.6211	59.8657	36.6211	59.6651	36.6211	60.3541	36.6211	60.1344	36.6211	60.8738	36.6211	60.6572	36.6211	61.3782	36.6211	61.182	36.6211	61.8293	36.6211	61.6649	36.6211	62.1993	36.6211	62.0732	36.6211	62.4692	36.6211	62.3843	36.6211	62.627	36.6211	62.5844	36.6211	62.6661
38.0859	61.0138	38.0859	60.9884	38.0859	61.0035	38.0859	60.9337	38.0859	60.9597	38.0859	60.8641	38.0859	60.8926	38.0859	60.802	38.0859	60.8215	38.0859	60.7767	38.0859	60.7737	38.0859	60.8204	38.0859	60.7822	38.0859	60.9607	38.0859	60.8796	38.0859	61.2125	38.0859	61.0889	38.0859	61.5715	38.0859	61.4148	38.0859	62.0148	38.0859	61.8403	38.0859	62.5073	38.0859	62.3317	38.0859	63.0102	38.0859	62.8475	38.0859	63.4878	38.0859	63.3477	38.0859	63.9108	38.0859	63.7984	38.0859	64.2573	38.0859	64.174	38.0859	64.5114	38.0859	64.4569	38.0859	64.6626	38.0859	64.6358	38.0859	64.7049
39.5508	63.5963	39.5508	63.5804	39.5508	63.5953	39.5508	63.5524	39.5508	63.5791	39.5508	63.5233	39.5508	63.5557	39.5508	63.5097	39.5508	63.5393	39.5508	63.532	39.5508	63.5491	39.5508	63.6117	39.5508	63.6076	39.5508	63.7668	39.5508	63.7353	39.5508	64.0061	39.5508	63.9464	39.5508	64.3264	39.5508	64.243	39.5508	64.7119	39.5508	64.6134	39.5508	65.1376	39.5508	65.0344	39.5508	65.5744	39.5508	65.476	39.5508	65.9934	39.5508	65.907	39.5508	66.3692	39.5508	66.2989	39.5508	66.6808	39.5508	66.6284	39.5508	66.9123	39.5508	66.8779	39.5508	67.0524	39.5508	67.0355	39.5508	67.0943
41.0156	66.072	41.0156	66.0591	41.0156	66.0736	41.0156	66.0384	41.0156	66.0653	41.0156	66.0178	41.0156	66.0532	41.0156	66.0094	41.0156	66.0478	41.0156	66.0285	41.0156	66.0636	41.0156	66.0912	41.0156	66.1169	41.0156	66.2119	41.0156	66.2234	41.0156	66.3995	41.0156	66.3947	41.0156	66.6545	41.0156	66.6342	41.0156	66.9677	41.0156	66.9354	41.0156	67.3216	41.0156	67.2824	41.0156	67.6933	41.0156	67.6525	41.0156	68.0578	41.0156	68.0199	41.0156	68.3912	41.0156	68.3591	41.0156	68.6725	41.0156	68.6479	41.0156	68.8847	41.0156	68.8682	41.0156	69.0154	41.0156	69.0072	41.0156	69.0571
42.4805	67.5589	42.4805	67.5438	42.4805	67.5641	42.4805	67.5221	42.4805	67.5604	42.4805	67.5005	42.4805	67.5527	42.4805	67.4895	42.4805	67.5494	42.4805	67.5021	42.4805	67.5623	42.4805	67.5523	42.4805	67.6051	42.4805	67.6528	42.4805	67.6914	42.4805	67.8121	42.4805	67.8318	42.4805	68.0318	42.4805	68.031	42.4805	68.3051	42.4805	68.2858	42.4805	68.618	42.4805	68.5845	42.4805	68.9504	42.4805	68.9086	42.4805	69.2796	42.4805	69.2356	42.4805	69.5832	42.4805	69.5422	42.4805	69.8407	42.4805	69.8068	42.4805	70.0352	42.4805	70.0112	42.4805	70.1544	42.4805	70.142	42.4805	70.1907
43.9453	68.9574	43.9453	68.9468	43.9453	68.9603	43.9453	68.931	43.9453	68.956	43.9453	68.9159	43.9453	68.9487	43.9453	68.9101	43.9453	68.9455	43.9453	68.9246	43.9453	68.9561	43.9453	68.971	43.9453	68.992	43.9453	69.0603	43.9453	69.0651	43.9453	69.2	43.9453	69.1848	43.9453	69.3923	43.9453	69.3561	43.9453	69.6325	43.9453	69.5776	43.9453	69.9091	43.9453	69.8402	43.9453	70.2051	43.9453	70.1289	43.9453	70.5003	43.9453	70.424	43.9453	70.774	43.9453	70.7043	43.9453	71.0067	43.9453	70.9493	43.9453	71.182	43.9453	71.1413	43.9453	71.2877	43.9453	71.2666	43.9453	71.3166
45.4102	70.198	45.4102	70.1912	45.4102	70.1981	45.4102	70.1798	45.4102	70.1921	45.4102	70.1689	45.4102	70.1833	45.4102	70.1659	45.4102	70.1778	45.4102	70.18	45.4102	70.1842	45.4102	70.2214	45.4102	70.2124	45.4102	70.2997	45.4102	70.2727	45.4102	70.4219	45.4102	70.3741	45.4102	70.5907	45.4102	70.5216	45.4102	70.8028	45.4102	70.7151	45.4102	71.0488	45.4102	70.9479	45.4102	71.3142	45.4102	71.2072	45.4102	71.5807	45.4102	71.4758	45.4102	71.829	45.4102	71.7341	45.4102	72.0405	45.4102	71.9627	45.4102	72.1993	45.4102	72.1442	45.4102	72.2935	45.4102	72.265	45.4102	72.316
46.875	71.263	46.875	71.2585	46.875	71.2616	46.875	71.25	46.875	71.2548	46.875	71.2418	46.875	71.2457	46.875	71.2403	46.875	71.2396	46.875	71.2536	46.875	71.2439	46.875	71.2907	46.875	71.2674	46.875	71.3602	46.875	71.3194	46.875	71.4685	46.875	71.408	46.875	71.6187	46.875	71.5383	46.875	71.8086	46.875	71.7108	46.875	72.0303	46.875	71.9203	46.875	72.2712	46.875	72.1559	46.875	72.5148	46.875	72.4022	46.875	72.7429	46.875	72.6412	46.875	72.9379	46.875	72.8545	46.875	73.0844	46.875	73.0253	46.875	73.1707	46.875	73.14	46.875	73.1897
48.3398	72.0787	48.3398	72.0768	48.3398	72.0766	48.3398	72.0728	48.3398	72.071	48.3398	72.0702	48.3398	72.0645	48.3398	72.0747	48.3398	72.0617	48.3398	72.0933	48.3398	72.0689	48.3398	72.1338	48.3398	72.094	48.3398	72.2035	48.3398	72.1451	48.3398	72.3083	48.3398	72.2293	48.3398	72.4507	48.3398	72.3514	48.3398	72.629	48.3398	72.5122	48.3398	72.8364	48.3398	72.7076	48.3398	73.0615	48.3398	72.9279	48.3398	73.2893	48.3398	73.1596	48.3398	73.5028	48.3398	73.3858	48.3398	73.6853	48.3398	73.5893	48.3398	73.8218	48.3398	73.7537	48.3398	73.901	48.3398	73.8656	48.3398	73.9161
51.2695	73.3131	51.2695	73.3135	51.2695	73.3102	51.2695	73.3128	51.2695	73.3051	51.2695	73.3139	51.2695	73.3001	51.2695	73.3212	51.2695	73.2986	51.2695	73.3401	51.2695	73.3059	51.2695	73.3767	51.2695	73.328	51.2695	73.4368	51.2695	73.3713	51.2695	73.525	51.2695	73.4417	51.2695	73.6436	51.2695	73.543	51.2695	73.7914	51.2695	73.6763	51.2695	73.9633	51.2695	73.8385	51.2695	74.1503	51.2695	74.0222	51.2695	74.3401	51.2695	74.2164	51.2695	74.5186	51.2695	74.4074	51.2695	74.6715	51.2695	74.5804	51.2695	74.7858	51.2695	74.7211	51.2695	74.8514	51.2695	74.8179	51.2695	74.8625
52.7344	73.9708	52.7344	73.9714	52.7344	73.9684	52.7344	73.9716	52.7344	73.9648	52.7344	73.9739	52.7344	73.9617	52.7344	73.9819	52.7344	73.9622	52.7344	74.0004	52.7344	73.9708	52.7344	74.0345	52.7344	73.9928	52.7344	74.0893	52.7344	74.0336	52.7344	74.1685	52.7344	74.098	52.7344	74.2742	52.7344	74.1895	52.7344	74.4053	52.7344	74.3087	52.7344	74.5574	52.7344	74.4529	52.7344	74.7229	52.7344	74.6157	52.7344	74.8909	52.7344	74.7875	52.7344	75.0492	52.7344	74.9562	52.7344	75.185	52.7344	75.1088	52.7344	75.2868	52.7344	75.2327	52.7344	75.3457	52.7344	75.3177	52.7344	75.3564
54.1992	74.6283	54.1992	74.6296	54.1992	74.6255	54.1992	74.6301	54.1992	74.6213	54.1992	74.632	54.1992	74.6175	54.1992	74.6385	54.1992	74.6167	54.1992	74.6535	54.1992	74.6227	54.1992	74.6814	54.1992	74.6401	54.1992	74.7265	54.1992	74.6736	54.1992	74.792	54.1992	74.7273	54.1992	74.8799	54.1992	74.804	54.1992	74.9893	54.1992	74.9045	54.1992	75.1168	54.1992	75.0265	54.1992	75.2559	54.1992	75.1646	54.1992	75.3978	54.1992	75.3106	54.1992	75.5318	54.1992	75.454	54.1992	75.6471	54.1992	75.5838	54.1992	75.7339	54.1992	75.6892	54.1992	75.7843	54.1992	75.7612	54.1992	75.7938
55.6641	75.2733	55.6641	75.2715	55.6641	75.274	55.6641	75.2694	55.6641	75.274	55.6641	75.2688	55.6641	75.2745	55.6641	75.2724	55.6641	75.278	55.6641	75.2835	55.6641	75.2876	55.6641	75.3059	55.6641	75.307	55.6641	75.3432	55.6641	75.34	55.6641	75.3984	55.6641	75.39	55.6641	75.4728	55.6641	75.4589	55.6641	75.5662	55.6641	75.5472	55.6641	75.6756	55.6641	75.6525	55.6641	75.7955	55.6641	75.7701	55.6641	75.9185	55.6641	75.8929	55.6641	76.0357	55.6641	76.012	55.6641	76.1378	55.6641	76.1181	55.6641	76.2164	55.6641	76.2024	55.6641	76.2649	55.6641	76.2576	55.6641	76.2791
58.5938	76.7856	58.5938	76.7799	58.5938	76.7928	58.5938	76.7761	58.5938	76.8014	58.5938	76.7756	58.5938	76.8122	58.5938	76.7799	58.5938	76.8265	58.5938	76.7914	58.5938	76.8461	58.5938	76.8123	58.5938	76.873	58.5938	76.845	58.5938	76.9094	58.5938	76.8911	58.5938	76.9571	58.5938	76.9515	58.5938	77.0169	58.5938	77.0256	58.5938	77.0886	58.5938	77.1113	58.5938	77.1703	58.5938	77.2047	58.5938	77.2585	58.5938	77.3005	58.5938	77.3479	58.5938	77.3924	58.5938	77.4323	58.5938	77.4739	58.5938	77.5052	58.5938	77.5388	58.5938	77.5605	58.5938	77.5823	58.5938	77.5934	58.5938	77.6009
60.0586	77.4495	60.0586	77.4443	60.0586	77.4573	60.0586	77.4424	60.0586	77.4679	60.0586	77.4446	60.0586	77.4817	60.0586	77.4524	60.0586	77.4996	60.0586	77.4672	60.0586	77.523	60.0586	77.491	60.0586	77.5535	60.0586	77.5253	60.0586	77.5924	60.0586	77.5716	60.0586	77.6412	60.0586	77.6303	60.0586	77.7004	60.0586	77.7009	60.0586	77.7696	60.0586	77.7814	60.0586	77.8471	60.0586	77.8684	60.0586	77.9295	60.0586	77.9574	60.0586	78.0122	60.0586	78.0429	60.0586	78.0898	60.0586	78.1189	60.0586	78.1562	60.0586	78.18	60.0586	78.206	60.0586	78.2215	60.0586	78.2349	60.0586	78.2403
62.9883	78.5723	62.9883	78.569	62.9883	78.5826	62.9883	78.5729	62.9883	78.5997	62.9883	78.5844	62.9883	78.6238	62.9883	78.604	62.9883	78.655	62.9883	78.6323	62.9883	78.6936	62.9883	78.6699	62.9883	78.7401	62.9883	78.7175	62.9883	78.7946	62.9883	78.7752	62.9883	78.8573	62.9883	78.8429	62.9883	78.9276	62.9883	78.9196	62.9883	79.0046	62.9883	79.0035	62.9883	79.0862	62.9883	79.0916	62.9883	79.1696	62.9883	79.1801	62.9883	79.2507	62.9883	79.2643	62.9883	79.325	62.9883	79.3391	62.9883	79.3873	62.9883	79.3995	62.9883	79.4331	62.9883	79.4413	62.9883	79.4586	62.9883	79.4615
64.4531	78.931	64.4531	78.9287	64.4531	78.9408	64.4531	78.9341	64.4531	78.958	64.4531	78.9473	64.4531	78.9826	64.4531	78.9686	64.4531	79.0143	64.4531	78.9982	64.4531	79.0533	64.4531	79.0363	64.4531	79.0994	64.4531	79.0831	64.4531	79.1525	64.4531	79.1385	64.4531	79.2123	64.4531	79.2022	64.4531	79.2783	64.4531	79.2731	64.4531	79.3493	64.4531	79.3498	64.4531	79.4238	64.4531	79.4296	64.4531	79.4991	64.4531	79.5092	64.4531	79.5719	64.4531	79.5848	64.4531	79.6384	64.4531	79.6517	64.4531	79.6942	64.4531	79.7057	64.4531	79.7352	64.4531	79.743	64.4531	79.7581	64.4531	79.7608
67.3828	79.3717	67.3828	79.3722	67.3828	79.3792	67.3828	79.3809	67.3828	79.3949	67.3828	79.3975	67.3828	79.4182	67.3828	79.4217	67.3828	79.4489	67.3828	79.4532	67.3828	79.4864	67.3828	79.4915	67.3828	79.5301	67.3828	79.5362	67.3828	79.5793	67.3828	79.5867	67.3828	79.6333	67.3828	79.6425	67.3828	79.6912	67.3828	79.7025	67.3828	79.7519	67.3828	79.7654	67.3828	79.8141	67.3828	79.8295	67.3828	79.8757	67.3828	79.8925	67.3828	79.9346	67.3828	79.9515	67.3828	79.9877	67.3828	80.0033	67.3828	80.0321	67.3828	80.0448	67.3828	80.0648	67.3828	80.0731	67.3828	80.0834	67.3828	80.0863
68.8477	79.588	68.8477	79.589	68.8477	79.5956	68.8477	79.5986	68.8477	79.6118	68.8477	79.6165	68.8477	79.636	68.8477	79.6421	68.8477	79.6677	68.8477	79.6748	68.8477	79.7061	68.8477	79.7138	68.8477	79.7503	68.8477	79.7585	68.8477	79.7993	68.8477	79.8079	68.8477	79.852	68.8477	79.8613	68.8477	79.9074	68.8477	79.9177	68.8477	79.9644	68.8477	79.9759	68.8477	80.0217	68.8477	80.0343	68.8477	80.0775	68.8477	80.091	68.8477	80.13	68.8477	80.1436	68.8477	80.1769	68.8477	80.1895	68.8477	80.2158	68.8477	80.2261	68.8477	80.2443	68.8477	80.251	68.8477	80.2603	68.8477	80.2627
71.7773	80.2602	71.7773	80.2642	71.7773	80.2672	71.7773	80.2791	71.7773	80.285	71.7773	80.3041	71.7773	80.313	71.7773	80.3383	71.7773	80.3501	71.7773	80.3805	71.7773	80.395	71.7773	80.4292	71.7773	80.4462	71.7773	80.4831	71.7773	80.5021	71.7773	80.5406	71.7773	80.5611	71.7773	80.6005	71.7773	80.6217	71.7773	80.6612	71.7773	80.6823	71.7773	80.7216	71.7773	80.7417	71.7773	80.7801	71.7773	80.7984	71.7773	80.835	71.7773	80.8508	71.7773	80.8844	71.7773	80.8972	71.7773	80.9262	71.7773	80.9359	71.7773	80.9584	71.7773	80.9648	71.7773	80.9792	71.7773	80.9824	71.7773	80.9873
74.707	80.468	74.707	80.477	74.707	80.4732	74.707	80.4996	74.707	80.4922	74.707	80.5351	74.707	80.5244	74.707	80.582	74.707	80.5684	74.707	80.6387	74.707	80.6227	74.707	80.7032	74.707	80.6852	74.707	80.7735	74.707	80.7541	74.707	80.8476	74.707	80.8271	74.707	80.9236	74.707	80.9023	74.707	80.9996	74.707	80.9778	74.707	81.0738	74.707	81.052	74.707	81.1444	74.707	81.123	74.707	81.2094	74.707	81.1891	74.707	81.2667	74.707	81.2484	74.707	81.314	74.707	81.2988	74.707	81.3489	74.707	81.3379	74.707	81.3694	74.707	81.3636	74.707	81.3744
77.6367	80.2207	77.6367	80.2315	77.6367	80.2252	77.6367	80.2575	77.6367	80.245	77.6367	80.2975	77.6367	80.2792	77.6367	80.3501	77.6367	80.3266	77.6367	80.4135	77.6367	80.3853	77.6367	80.4856	77.6367	80.4534	77.6367	80.5642	77.6367	80.5286	77.6367	80.6469	77.6367	80.6088	77.6367	80.7316	77.6367	80.6917	77.6367	80.8162	77.6367	80.7753	77.6367	80.8988	77.6367	80.8577	77.6367	80.9771	77.6367	80.9371	77.6367	81.0491	77.6367	81.0115	77.6367	81.1123	77.6367	81.0789	77.6367	81.1641	77.6367	81.1367	77.6367	81.2018	77.6367	81.1822	77.6367	81.2232	77.6367	81.213	77.6367	81.227
79.1016	80.2701	79.1016	80.2798	79.1016	80.2752	79.1016	80.304	79.1016	80.2949	79.1016	80.3417	79.1016	80.3285	79.1016	80.3916	79.1016	80.3745	79.1016	80.452	79.1016	80.4313	79.1016	80.5206	79.1016	80.4969	79.1016	80.5956	79.1016	80.5691	79.1016	80.6746	79.1016	80.6458	79.1016	80.7555	79.1016	80.7249	79.1016	80.8365	79.1016	80.8044	79.1016	80.9156	79.1016	80.8828	79.1016	80.9908	79.1016	80.9582	79.1016	81.0601	79.1016	81.0289	79.1016	81.1212	79.1016	81.0928	79.1016	81.1714	79.1016	81.1478	79.1016	81.2082	79.1016	81.1911	79.1016	81.2293	79.1016	81.2204	79.1016	81.2334
82.0312	80.5544	82.0312	80.5626	82.0312	80.5585	82.0312	80.5829	82.0312	80.5747	82.0312	80.6144	82.0312	80.6022	82.0312	80.6556	82.0312	80.6397	82.0312	80.705	82.0312	80.6857	82.0312	80.7606	82.0312	80.7381	82.0312	80.8204	82.0312	80.7951	82.0312	80.8825	82.0312	80.8546	82.0312	80.9451	82.0312	80.915	82.0312	81.0066	82.0312	80.9748	82.0312	81.0656	82.0312	81.0328	82.0312	81.1209	82.0312	81.0881	82.0312	81.1712	82.0312	81.1395	82.0312	81.2149	82.0312	81.1861	82.0312	81.2503	82.0312	81.2263	82.0312	81.2757	82.0312	81.2584	82.0312	81.2897	82.0312	81.2806	82.0312	81.2913
84.9609	80.8225	84.9609	80.829	84.9609	80.8244	84.9609	80.8437	84.9609	80.8347	84.9609	80.8657	84.9609	80.8523	84.9609	80.8935	84.9609	80.8759	84.9609	80.9256	84.9609	80.9039	84.9609	80.9598	84.9609	80.9342	84.9609	80.9943	84.9609	80.965	84.9609	81.0272	84.9609	80.9945	84.9609	81.0571	84.9609	81.0213	84.9609	81.083	84.9609	81.0447	84.9609	81.1042	84.9609	81.0643	84.9609	81.1207	84.9609	81.0805	84.9609	81.1328	84.9609	81.094	84.9609	81.1407	84.9609	81.1054	84.9609	81.145	84.9609	81.1155	84.9609	81.146	84.9609	81.1247	84.9609	81.1439	84.9609	81.1328	84.9609	81.1394
87.8906	80.7689	87.8906	80.7766	87.8906	80.7768	87.8906	80.7996	87.8906	80.8	87.8906	80.8363	87.8906	80.8373	87.8906	80.8849	87.8906	80.8868	87.8906	80.9426	87.8906	80.9458	87.8906	81.0065	87.8906	81.0114	87.8906	81.0736	87.8906	81.0804	87.8906	81.1409	87.8906	81.1497	87.8906	81.206	87.8906	81.2166	87.8906	81.2667	87.8906	81.2787	87.8906	81.3217	87.8906	81.3343	87.8906	81.3699	87.8906	81.3823	87.8906	81.411	87.8906	81.4223	87.8906	81.4448	87.8906	81.4543	87.8906	81.4713	87.8906	81.4786	87.8906	81.4906	87.8906	81.4954	87.8906	81.5025	87.8906	81.5049	87.8906	81.5073
90.8203	81.1929	90.8203	81.1992	90.8203	81.1979	90.8203	81.2166	90.8203	81.2139	90.8203	81.244	90.8203	81.2398	90.8203	81.28	90.8203	81.2738	90.8203	81.3224	90.8203	81.3139	90.8203	81.3689	90.8203	81.3576	90.8203	81.4168	90.8203	81.4023	90.8203	81.4636	90.8203	81.4455	90.8203	81.5069	90.8203	81.4851	90.8203	81.5449	90.8203	81.5194	90.8203	81.5763	90.8203	81.5476	90.8203	81.6003	90.8203	81.5696	90.8203	81.6171	90.8203	81.5859	90.8203	81.6273	90.8203	81.5977	90.8203	81.6318	90.8203	81.6064	90.8203	81.6321	90.8203	81.6134	90.8203	81.6294	90.8203	81.6194	90.8203	81.6249
95.2148	81.3178	95.2148	81.3194	95.2148	81.3272	95.2148	81.3318	95.2148	81.347	95.2148	81.3541	95.2148	81.3763	95.2148	81.3849	95.2148	81.4133	95.2148	81.4226	95.2148	81.456	95.2148	81.4648	95.2148	81.502	95.2148	81.5094	95.2148	81.5489	95.2148	81.5541	95.2148	81.5943	95.2148	81.5968	95.2148	81.636	95.2148	81.6361	95.2148	81.6726	95.2148	81.6707	95.2148	81.7032	95.2148	81.7001	95.2148	81.7275	95.2148	81.7241	95.2148	81.7459	95.2148	81.743	95.2148	81.7592	95.2148	81.7572	95.2148	81.7683	95.2148	81.7672	95.2148	81.7739	95.2148	81.7735	95.2148	81.7766	95.2148	81.7765
98.1445	81.4062	98.1445	81.4081	98.1445	81.4134	98.1445	81.419	98.1445	81.4295	98.1445	81.4379	98.1445	81.4535	98.1445	81.4635	98.1445	81.4839	98.1445	81.494	98.1445	81.5189	98.1445	81.5274	98.1445	81.5561	98.1445	81.5618	98.1445	81.5935	98.1445	81.5952	98.1445	81.6287	98.1445	81.626	98.1445	81.66	98.1445	81.653	98.1445	81.6861	98.1445	81.6758	98.1445	81.7065	98.1445	81.694	98.1445	81.7212	98.1445	81.7081	98.1445	81.7308	98.1445	81.7186	98.1445	81.7363	98.1445	81.7262	98.1445	81.739	98.1445	81.7316	98.1445	81.7398	98.1445	81.7353	98.1445	81.7393	98.1445	81.7378
101.074	81.6636	101.074	81.6664	101.074	81.6687	101.074	81.6768	101.074	81.6815	101.074	81.6937	101.074	81.701	101.074	81.7159	101.074	81.7259	101.074	81.7414	101.074	81.7543	101.074	81.7682	101.074	81.784	101.074	81.7943	101.074	81.8127	101.074	81.8177	101.074	81.8383	101.074	81.8372	101.074	81.8593	101.074	81.8517	101.074	81.8743	101.074	81.8611	101.074	81.8832	101.074	81.8658	101.074	81.8862	101.074	81.8666	101.074	81.8846	101.074	81.8651	101.074	81.8798	101.074	81.8624	101.074	81.8735	101.074	81.86	101.074	81.8673	101.074	81.8588	101.074	81.8624	101.074	81.8595
105.469	82.0182	105.469	82.0144	105.469	82.0282	105.469	82.0168	105.469	82.0442	105.469	82.0245	105.469	82.0648	105.469	82.036	105.469	82.0884	105.469	82.0495	105.469	82.1128	105.469	82.0629	105.469	82.1354	105.469	82.074	105.469	82.1537	105.469	82.081	105.469	82.1653	105.469	82.0825	105.469	82.1685	105.469	82.0777	105.469	82.1624	105.469	82.0668	105.469	82.147	105.469	82.0508	105.469	82.1237	105.469	82.0316	105.469	82.0947	105.469	82.0116	105.469	82.0631	105.469	81.9935	105.469	82.0324	105.469	81.98	105.469	82.0059	105.469	81.9734	105.469	81.9864	105.469	81.9753
108.398	82.1887	108.398	82.1837	108.398	82.1997	108.398	82.1845	108.398	82.2164	108.398	82.1902	108.398	82.2374	108.398	82.1993	108.398	82.2612	108.398	82.2098	108.398	82.2855	108.398	82.2195	108.398	82.3075	108.398	82.2261	108.398	82.3245	108.398	82.2274	108.398	82.3339	108.398	82.2221	108.398	82.3336	108.398	82.2093	108.398	82.3224	108.398	82.1893	108.398	82.3	108.398	82.1634	108.398	82.2678	108.398	82.1342	108.398	82.2282	108.398	82.1049	108.398	82.1847	108.398	82.0792	108.398	82.1419	108.398	82.0609	108.398	82.104	108.398	82.0531	108.398	82.075	108.398	82.0576
112.793	82.6061	112.793	82.6031	112.793	82.6152	112.793	82.6058	112.793	82.6301	112.793	82.6134	112.793	82.6498	112.793	82.6243	112.793	82.6729	112.793	82.6367	112.793	82.6973	112.793	82.6483	112.793	82.7206	112.793	82.6569	112.793	82.74	112.793	82.6602	112.793	82.7528	112.793	82.6566	112.793	82.7567	112.793	82.6451	112.793	82.7499	112.793	82.626	112.793	82.732	112.793	82.6004	112.793	82.7035	112.793	82.5708	112.793	82.6665	112.793	82.5407	112.793	82.6244	112.793	82.5142	112.793	82.5815	112.793	82.4955	112.793	82.5426	112.793	82.4878	112.793	82.512	112.793	82.4932
117.188	82.6456	117.188	82.6468	117.188	82.6506	117.188	82.6538	117.188	82.6616	117.188	82.6657	117.188	82.6778	117.188	82.6809	117.188	82.6981	117.188	82.6975	117.188	82.7205	117.188	82.7133	117.188	82.7428	117.188	82.7258	117.188	82.7625	117.188	82.7328	117.188	82.7771	117.188	82.7324	117.188	82.7841	117.188	82.7235	117.188	82.7818	117.188	82.7062	117.188	82.7692	117.188	82.6816	117.188	82.7466	117.188	82.6521	117.188	82.7156	117.188	82.6214	117.188	82.6793	117.188	82.5935	117.188	82.6418	117.188	82.5728	117.188	82.6075	117.188	82.5627	117.188	82.5809	117.188	82.5654
120.117	82.8298	120.117	82.8291	120.117	82.8357	120.117	82.8336	120.117	82.8468	120.117	82.8425	120.117	82.8623	120.117	82.8544	120.117	82.8812	120.117	82.8678	120.117	82.9016	120.117	82.8807	120.117	82.9218	120.117	82.891	120.117	82.9394	120.117	82.8964	120.117	82.9519	120.117	82.8952	120.117	82.9573	120.117	82.8862	120.117	82.9539	120.117	82.8695	120.117	82.9407	120.117	82.8458	120.117	82.9179	120.117	82.8176	120.117	82.8871	120.117	82.7881	120.117	82.851	120.117	82.7615	120.117	82.8136	120.117	82.742	120.117	82.7793	120.117	82.7329	120.117	82.7523	120.117	82.7363
124.512	83.0721	124.512	83.0696	124.512	83.0784	124.512	83.071	124.512	83.0881	124.512	83.0759	124.512	83.1005	124.512	83.0832	124.512	83.1143	124.512	83.0916	124.512	83.1278	124.512	83.0994	124.512	83.1392	124.512	83.1045	124.512	83.1465	124.512	83.1048	124.512	83.1477	124.512	83.0984	124.512	83.141	124.512	83.0839	124.512	83.1252	124.512	83.0609	124.512	83.1	124.512	83.0301	124.512	83.0662	124.512	82.9936	124.512	83.0259	124.512	82.9549	124.512	82.9825	124.512	82.9184	124.512	82.9404	124.512	82.8889	124.512	82.9043	124.512	82.8709	124.512	82.8789	124.512	82.8673
128.906	83.28	128.906	83.2738	128.906	83.2892	128.906	83.2707	128.906	83.3013	128.906	83.27	128.906	83.3155	128.906	83.2708	128.906	83.3305	128.906	83.2717	128.906	83.3447	128.906	83.2711	128.906	83.3562	128.906	83.2673	128.906	83.3627	128.906	83.2586	128.906	83.3621	128.906	83.2437	128.906	83.3524	128.906	83.2216	128.906	83.3324	128.906	83.1926	128.906	83.3018	128.906	83.1577	128.906	83.2614	128.906	83.1194	128.906	83.2136	128.906	83.0811	128.906	83.162	128.906	83.0471	128.906	83.1112	128.906	83.0221	128.906	83.0665	128.906	83.0099	128.906	83.0327	128.906	83.0133
133.301	83.4306	133.301	83.4317	133.301	83.4328	133.301	83.4358	133.301	83.4382	133.301	83.4421	133.301	83.4462	133.301	83.4495	133.301	83.4557	133.301	83.4562	133.301	83.4652	133.301	83.4603	133.301	83.4729	133.301	83.4595	133.301	83.4765	133.301	83.4516	133.301	83.4736	133.301	83.4347	133.301	83.4621	133.301	83.4078	133.301	83.4406	133.301	83.371	133.301	83.4083	133.301	83.3258	133.301	83.3661	133.301	83.2751	133.301	83.3162	133.301	83.2236	133.301	83.2624	133.301	83.1768	133.301	83.2099	133.301	83.1402	133.301	83.1645	133.301	83.1189	133.301	83.1317	133.301	83.1158
139.16	83.5021	139.16	83.5027	139.16	83.5045	139.16	83.5064	139.16	83.5098	139.16	83.513	139.16	83.5178	139.16	83.5219	139.16	83.5278	139.16	83.5322	139.16	83.5389	139.16	83.5424	139.16	83.5498	139.16	83.5507	139.16	83.559	139.16	83.555	139.16	83.5644	139.16	83.553	139.16	83.564	139.16	83.5431	139.16	83.5561	139.16	83.5244	139.16	83.5396	139.16	83.497	139.16	83.5144	139.16	83.463	139.16	83.4818	139.16	83.4257	139.16	83.4445	139.16	83.3899	139.16	83.4067	139.16	83.3605	139.16	83.3734	139.16	83.3424	139.16	83.3493	139.16	83.3384
143.555	83.7181	143.555	83.7137	143.555	83.7224	143.555	83.7094	143.555	83.7267	143.555	83.7054	143.555	83.7308	143.555	83.7014	143.555	83.7344	143.555	83.6972	143.555	83.737	143.555	83.6919	143.555	83.738	143.555	83.6846	143.555	83.736	143.555	83.6739	143.555	83.7296	143.555	83.6583	143.555	83.7174	143.555	83.6367	143.555	83.6978	143.555	83.6086	143.555	83.6701	143.555	83.5745	143.555	83.6346	143.555	83.5362	143.555	83.5926	143.555	83.4971	143.555	83.5471	143.555	83.4614	143.555	83.5021	143.555	83.4337	143.555	83.4626	143.555	83.4183	143.555	83.4333	143.555	83.418
147.949	83.8676	147.949	83.8637	147.949	83.8699	147.949	83.8582	147.949	83.8705	147.949	83.8511	147.949	83.8692	147.949	83.8423	147.949	83.8659	147.949	83.8315	147.949	83.8602	147.949	83.8178	147.949	83.8512	147.949	83.8003	147.949	83.8379	147.949	83.7778	147.949	83.819	147.949	83.7492	147.949	83.7933	147.949	83.7136	147.949	83.7597	147.949	83.671	147.949	83.718	147.949	83.6227	147.949	83.6691	147.949	83.5711	147.949	83.615	147.949	83.5199	147.949	83.5591	147.949	83.474	147.949	83.5062	147.949	83.4383	147.949	83.4614	147.949	83.4175	147.949	83.4295	147.949	83.4143
153.809	83.9614	153.809	83.9595	153.809	83.9619	153.809	83.9561	153.809	83.961	153.809	83.9513	153.809	83.9585	153.809	83.9449	153.809	83.9544	153.809	83.9365	153.809	83.9482	153.809	83.9251	153.809	83.9392	153.809	83.9097	153.809	83.9262	153.809	83.8889	153.809	83.9076	153.809	83.8615	153.809	83.882	153.809	83.8266	153.809	83.8481	153.809	83.7841	153.809	83.8057	153.809	83.7352	153.809	83.7556	153.809	83.6821	153.809	83.7002	153.809	83.6286	153.809	83.6437	153.809	83.5795	153.809	83.591	153.809	83.54	153.809	83.5476	153.809	83.5148	153.809	83.5185	153.809	83.5072
159.668	84.1313	159.668	84.1269	159.668	84.1327	159.668	84.1198	159.668	84.1313	159.668	84.1103	159.668	84.1273	159.668	84.0984	159.668	84.1211	159.668	84.084	159.668	84.113	159.668	84.0666	159.668	84.1031	159.668	84.0455	159.668	84.0911	159.668	84.0196	159.668	84.0761	159.668	83.9881	159.668	84.057	159.668	83.9507	159.668	84.0322	159.668	83.9081	159.668	84.0006	159.668	83.862	159.668	83.9619	159.668	83.8153	159.668	83.9168	159.668	83.772	159.668	83.8676	159.668	83.7364	159.668	83.8178	159.668	83.7128	159.668	83.7722	159.668	83.7041	159.668	83.7355	159.668	83.7119
165.527	84.286	165.527	84.2806	165.527	84.2863	165.527	84.2705	165.527	84.281	165.527	84.2563	165.527	84.27	165.527	84.2385	165.527	84.2533	165.527	84.2169	165.527	84.2311	165.527	84.1911	165.527	84.2036	165.527	84.1602	165.527	84.1708	165.527	84.123	165.527	84.1327	165.527	84.0783	165.527	84.0889	165.527	84.0257	165.527	84.0391	165.527	83.9658	165.527	83.9835	165.527	83.9005	165.527	83.923	165.527	83.8331	165.527	83.8594	165.527	83.7684	165.527	83.7961	165.527	83.7119	165.527	83.7375	165.527	83.6688	165.527	83.6886	165.527	83.6436	165.527	83.6544	165.527	83.6387
171.387	84.3072	171.387	84.295	171.387	84.3157	171.387	84.2798	171.387	84.3203	171.387	84.2618	171.387	84.3203	171.387	84.2414	171.387	84.3155	171.387	84.2181	171.387	84.305	171.387	84.1913	171.387	84.2882	171.387	84.1597	171.387	84.2637	171.387	84.1217	171.387	84.2303	171.387	84.076	171.387	84.1866	171.387	84.0216	171.387	84.1321	171.387	83.9592	171.387	84.0671	171.387	83.8907	171.387	83.9931	171.387	83.8199	171.387	83.9136	171.387	83.7519	171.387	83.8333	171.387	83.693	171.387	83.7583	171.387	83.6492	171.387	83.695	171.387	83.6257	171.387	83.6493	171.387	83.6255
177.246	84.2582	177.246	84.2468	177.246	84.2672	177.246	84.2335	177.246	84.2738	177.246	84.2189	177.246	84.278	177.246	84.2038	177.246	84.2804	177.246	84.1882	177.246	84.2808	177.246	84.172	177.246	84.2787	177.246	84.1539	177.246	84.273	177.246	84.1325	177.246	84.2616	177.246	84.1061	177.246	84.2423	177.246	84.0734	177.246	84.2129	177.246	84.0343	177.246	84.1724	177.246	83.9897	177.246	84.1212	177.246	83.9425	177.246	84.0617	177.246	83.8964	177.246	83.9981	177.246	83.8564	177.246	83.9362	177.246	83.8275	177.246	83.8822	177.246	83.8138	177.246	83.8416	177.246	83.8183
183.105	84.234	183.105	84.2214	183.105	84.2406	183.105	84.2037	183.105	84.2411	183.105	84.1825	183.105	84.2363	183.105	84.1595	183.105	84.2277	183.105	84.1365	183.105	84.217	183.105	84.1145	183.105	84.2056	183.105	84.0938	183.105	84.1944	183.105	84.0738	183.105	84.1831	183.105	84.0536	183.105	84.1704	183.105	84.0323	183.105	84.1546	183.105	84.0092	183.105	84.1338	183.105	83.9847	183.105	84.1069	183.105	83.9601	183.105	84.0741	183.105	83.9376	183.105	84.0373	183.105	83.9196	183.105	83.9994	183.105	83.9087	183.105	83.9644	183.105	83.9072	183.105	83.9357	183.105	83.9162
188.965	84.4584	188.965	84.4441	188.965	84.4603	188.965	84.4184	188.965	84.45	188.965	84.3831	188.965	84.4286	188.965	84.3404	188.965	84.3982	188.965	84.2928	188.965	84.3611	188.965	84.2427	188.965	84.3201	188.965	84.1917	188.965	84.2774	188.965	84.1411	188.965	84.2347	188.965	84.0916	188.965	84.1929	188.965	84.0438	188.965	84.152	188.965	83.9985	188.965	84.1115	188.965	83.9569	188.965	84.0711	188.965	83.9207	188.965	84.0306	188.965	83.8916	188.965	83.9906	188.965	83.8712	188.965	83.9528	188.965	83.8608	188.965	83.9188	188.965	83.8609	188.965	83.891	188.965	83.8712
196.289	84.6044	196.289	84.5967	196.289	84.597	196.289	84.5744	196.289	84.5748	196.289	84.5385	196.289	84.539	196.289	84.4906	196.289	84.4912	196.289	84.4321	196.289	84.4333	196.289	84.3645	196.289	84.3674	196.289	84.2891	196.289	84.2954	196.289	84.207	196.289	84.219	196.289	84.1195	196.289	84.1397	196.289	84.0284	196.289	84.0588	196.289	83.9367	196.289	83.9778	196.289	83.8482	196.289	83.8986	196.289	83.7674	196.289	83.8234	196.289	83.6985	196.289	83.7547	196.289	83.6451	196.289	83.6951	196.289	83.6096	196.289	83.6471	196.289	83.5927	196.289	83.6128	196.289	83.5941
203.613	84.4914	203.613	84.476	203.613	84.4922	203.613	84.4464	203.613	84.4787	203.613	84.4039	203.613	84.4523	203.613	84.3507	203.613	84.4147	203.613	84.2889	203.613	84.3682	203.613	84.2208	203.613	84.3145	203.613	84.1484	203.613	84.2553	203.613	84.0733	203.613	84.1917	203.613	83.9968	203.613	84.1243	203.613	83.9206	203.613	84.0538	203.613	83.8463	203.613	83.9813	203.613	83.7766	203.613	83.9081	203.613	83.7143	203.613	83.8366	203.613	83.6624	203.613	83.7696	203.613	83.6236	203.613	83.7098	203.613	83.5997	203.613	83.6601	203.613	83.5917	203.613	83.6228	203.613	83.5996
210.938	84.4485	210.938	84.4389	210.938	84.443	210.938	84.4149	210.938	84.4228	210.938	84.3781	210.938	84.3893	210.938	84.3308	210.938	84.3448	210.938	84.2752	210.938	84.2919	210.938	84.2132	210.938	84.2327	210.938	84.1464	210.938	84.169	210.938	84.0758	210.938	84.1018	210.938	84.0025	210.938	84.0315	210.938	83.9276	210.938	83.9586	210.938	83.8529	210.938	83.8842	210.938	83.7808	210.938	83.8103	210.938	83.7142	210.938	83.7399	210.938	83.6559	210.938	83.6765	210.938	83.6085	210.938	83.6233	210.938	83.574	210.938	83.5833	210.938	83.5535	210.938	83.5579	210.938	83.548
218.262	84.3635	218.262	84.3549	218.262	84.3532	218.262	84.3281	218.262	84.3248	218.262	84.2854	218.262	84.2805	218.262	84.2298	218.262	84.2239	218.262	84.1647	218.262	84.1594	218.262	84.0939	218.262	84.0915	218.262	84.0205	218.262	84.024	218.262	83.9476	218.262	83.9595	218.262	83.8775	218.262	83.8997	218.262	83.8128	218.262	83.8449	218.262	83.7555	218.262	83.7953	218.262	83.7077	218.262	83.7513	218.262	83.6706	218.262	83.7134	218.262	83.6444	218.262	83.6822	218.262	83.6283	218.262	83.6579	218.262	83.6204	218.262	83.6403	218.262	83.6185	218.262	83.6285	218.262	83.6214
225.586	84.3684	225.586	84.36	225.586	84.3546	225.586	84.3307	225.586	84.3185	225.586	84.2831	225.586	84.2615	225.586	84.2202	225.586	84.1865	225.586	84.1455	225.586	84.098	225.586	84.0622	225.586	84.0012	225.586	83.9737	225.586	83.9017	225.586	83.883	225.586	83.8047	225.586	83.793	225.586	83.7151	225.586	83.7069	225.586	83.6361	225.586	83.6283	225.586	83.5701	225.586	83.5605	225.586	83.5181	225.586	83.5062	225.586	83.4799	225.586	83.467	225.586	83.4542	225.586	83.4421	225.586	83.4386	225.586	83.4291	225.586	83.4301	225.586	83.4241	225.586	83.4257	225.586	83.4237
232.91	84.2873	232.91	84.2638	232.91	84.2865	232.91	84.2184	232.91	84.2606	232.91	84.1544	232.91	84.2105	232.91	84.0759	232.91	84.1383	232.91	83.9873	232.91	84.0476	232.91	83.8927	232.91	83.943	232.91	83.7959	232.91	83.8299	232.91	83.7003	232.91	83.7141	232.91	83.6087	232.91	83.6013	232.91	83.5241	232.91	83.4973	232.91	83.449	232.91	83.4069	232.91	83.3853	232.91	83.3336	232.91	83.3342	232.91	83.2792	232.91	83.2956	232.91	83.2434	232.91	83.2678	232.91	83.2238	232.91	83.2484	232.91	83.2167	232.91	83.2346	232.91	83.2181	232.91	83.2247
241.699	84.1596	241.699	84.1297	241.699	84.1631	241.699	84.0751	241.699	84.1405	241.699	83.9988	241.699	84.0938	241.699	83.9056	241.699	84.0266	241.699	83.8005	241.699	83.9432	241.699	83.6888	241.699	83.8481	241.699	83.5752	241.699	83.7459	241.699	83.464	241.699	83.6404	241.699	83.359	241.699	83.535	241.699	83.264	241.699	83.4328	241.699	83.1825	241.699	83.3371	241.699	83.1174	241.699	83.2513	241.699	83.0702	241.699	83.1788	241.699	83.0402	241.699	83.1216	241.699	83.0246	241.699	83.0801	241.699	83.0193	241.699	83.0526	241.699	83.0205	241.699	83.0358	241.699	83.0259
250.488	84.3154	250.488	84.2826	250.488	84.3151	250.488	84.2186	250.488	84.2817	250.488	84.127	250.488	84.217	250.488	84.0127	250.488	84.1247	250.488	83.8818	250.488	84.0103	250.488	83.7405	250.488	83.8805	250.488	83.5954	250.488	83.7428	250.488	83.4527	250.488	83.605	250.488	83.3182	250.488	83.4747	250.488	83.1973	250.488	83.3583	250.488	83.0953	250.488	83.2603	250.488	83.0165	250.488	83.1827	250.488	82.9634	250.488	83.1248	250.488	82.9358	250.488	83.0833	250.488	82.9302	250.488	83.0532	250.488	82.9408	250.488	83.0292	250.488	82.9607	250.488	83.0069	250.488	82.9839
259.277	84.0829	259.277	84.0555	259.277	84.0795	259.277	83.9992	259.277	84.0453	259.277	83.9175	259.277	83.9822	259.277	83.8151	259.277	83.8939	259.277	83.6972	259.277	83.7852	259.277	83.5694	259.277	83.6618	259.277	83.4369	259.277	83.5292	259.277	83.305	259.277	83.3934	259.277	83.1791	259.277	83.26	259.277	83.0645	259.277	83.1349	259.277	82.9662	259.277	83.0242	259.277	82.8881	259.277	82.9332	259.277	82.8325	259.277	82.8657	259.277	82.7988	259.277	82.8219	259.277	82.7832	259.277	82.7986	259.277	82.7799	259.277	82.7893	259.277	82.7822	259.277	82.7867	259.277	82.7851
268.066	84.0283	268.066	83.9845	268.066	84.0353	268.066	83.9063	268.066	84.0053	268.066	83.7983	268.066	83.9397	268.066	83.6671	268.066	83.8418	268.066	83.5212	268.066	83.7168	268.066	83.3695	268.066	83.5725	268.066	83.2196	268.066	83.4187	268.066	83.077	268.066	83.2666	268.066	82.9451	268.066	83.1266	268.066	82.826	268.066	83.0065	268.066	82.723	268.066	82.91	268.066	82.6407	268.066	82.8366	268.066	82.5841	268.066	82.7831	268.066	82.556	268.066	82.7446	268.066	82.5547	268.066	82.7157	268.066	82.5736	268.066	82.6907	268.066	82.6034	268.066	82.665	268.066	82.6356
276.855	84.0416	276.855	84.0133	276.855	84.0372	276.855	83.9515	276.855	84.0017	276.855	83.8572	276.855	83.9372	276.855	83.7331	276.855	83.8458	276.855	83.5848	276.855	83.7293	276.855	83.4211	276.855	83.5895	276.855	83.2545	276.855	83.4293	276.855	83.0992	276.855	83.2549	276.855	82.9685	276.855	83.0764	276.855	82.8707	276.855	82.9078	276.855	82.8071	276.855	82.7643	276.855	82.7714	276.855	82.6579	276.855	82.754	276.855	82.5939	276.855	82.7444	276.855	82.5696	276.855	82.7352	276.855	82.5765	276.855	82.7212	276.855	82.6028	276.855	82.7002	276.855	82.6374	276.855	82.6716
287.109	83.8193	287.109	83.7969	287.109	83.7971	287.109	83.7311	287.109	83.7334	287.109	83.6263	287.109	83.6346	287.109	83.4896	287.109	83.5106	287.109	83.3306	287.109	83.3727	287.109	83.1601	287.109	83.232	287.109	82.9899	287.109	83.0974	287.109	82.8321	287.109	82.9741	287.109	82.6985	287.109	82.8647	287.109	82.5993	287.109	82.7711	287.109	82.541	287.109	82.6965	287.109	82.5242	287.109	82.6455	287.109	82.5427	287.109	82.6217	287.109	82.5844	287.109	82.6242	287.109	82.6345	287.109	82.6465	287.109	82.6791	287.109	82.6772	287.109	82.708	287.109	82.7038	287.109	82.7161
297.363	83.9382	297.363	83.9197	297.363	83.9058	297.363	83.8545	297.363	83.8202	297.363	83.7481	297.363	83.6824	297.363	83.6067	297.363	83.4966	297.363	83.4366	297.363	83.2722	297.363	83.2443	297.363	83.0234	297.363	83.0369	297.363	82.7698	297.363	82.8236	297.363	82.534	297.363	82.6176	297.363	82.3379	297.363	82.4366	297.363	82.1983	297.363	82.3003	297.363	82.1229	297.363	82.2246	297.363	82.1092	297.363	82.2139	297.363	82.1466	297.363	82.2576	297.363	82.219	297.363	82.3324	297.363	82.3075	297.363	82.4096	297.363	82.3922	297.363	82.4643	297.363	82.4546	297.363	82.4807
307.617	83.8507	307.617	83.7859	307.617	83.8671	307.617	83.6754	307.617	83.8343	307.617	83.5237	307.617	83.7526	307.617	83.3371	307.617	83.6242	307.617	83.1241	307.617	83.4527	307.617	82.8948	307.617	83.2437	307.617	82.6604	307.617	83.006	307.617	82.4325	307.617	82.7518	307.617	82.2224	307.617	82.4977	307.617	82.0409	307.617	82.2636	307.617	81.8986	307.617	82.0699	307.617	81.8042	307.617	81.9325	307.617	81.7621	307.617	81.8574	307.617	81.7681	307.617	81.8384	307.617	81.8083	307.617	81.8582	307.617	81.8619	307.617	81.8937	307.617	81.9074	307.617	81.9228	307.617	81.9294
319.336	83.5739	319.336	83.532	319.336	83.5661	319.336	83.4403	319.336	83.5105	319.336	83.3011	319.336	83.4107	319.336	83.1195	319.336	83.2713	319.336	82.9036	319.336	83.098	319.336	82.665	319.336	82.8973	319.336	82.4184	319.336	82.6772	319.336	82.181	319.336	82.4479	319.336	81.9698	319.336	82.223	319.336	81.799	319.336	82.0188	319.336	81.6776	319.336	81.8522	319.336	81.6081	319.336	81.7371	319.336	81.5871	319.336	81.6786	319.336	81.6053	319.336	81.6705	319.336	81.6492	319.336	81.6962	319.336	81.7016	319.336	81.7338	319.336	81.7456	319.336	81.7624	319.336	81.7678
329.59	83.4609	329.59	83.4465	329.59	83.4235	329.59	83.3796	329.59	83.3372	329.59	83.2611	329.59	83.2073	329.59	83.0932	329.59	83.0411	329.59	82.8796	329.59	82.8478	329.59	82.6272	329.59	82.6373	329.59	82.3476	329.59	82.4195	329.59	82.0591	329.59	82.2042	329.59	81.7865	329.59	82.0012	329.59	81.558	329.59	81.8216	329.59	81.3977	329.59	81.6771	329.59	81.3169	329.59	81.5781	329.59	81.3105	329.59	81.5292	329.59	81.3588	329.59	81.5256	329.59	81.4357	329.59	81.5526	329.59	81.5157	329.59	81.5891	329.59	81.5789	329.59	81.6143	329.59	81.6129
341.309	83.453	341.309	83.4595	341.309	83.3818	341.309	83.4069	341.309	83.243	341.309	83.3028	341.309	83.0375	341.309	83.1555	341.309	82.7717	341.309	82.9726	341.309	82.4586	341.309	82.7601	341.309	82.1186	341.309	82.522	341.309	81.779	341.309	82.2619	341.309	81.4705	341.309	81.9866	341.309	81.222	341.309	81.7112	341.309	81.0542	341.309	81.4617	341.309	80.9743	341.309	81.2709	341.309	80.976	341.309	81.1662	341.309	81.0417	341.309	81.1542	341.309	81.1466	341.309	81.2145	341.309	81.2631	341.309	81.3076	341.309	81.3639	341.309	81.3918	341.309	81.4263	341.309	81.4361
353.027	83.401	353.027	83.3348	353.027	83.4182	353.027	83.2261	353.027	83.38	353.027	83.0826	353.027	83.2803	353.027	82.9133	353.027	83.1132	353.027	82.7283	353.027	82.875	353.027	82.538	353.027	82.5659	353.027	82.3519	353.027	82.1935	353.027	82.1764	353.027	81.7763	353.027	82.0145	353.027	81.3464	353.027	81.8669	353.027	80.9486	353.027	81.7336	353.027	80.6332	353.027	81.6167	353.027	80.4419	353.027	81.5194	353.027	80.3915	353.027	81.4434	353.027	80.4663	353.027	81.3839	353.027	80.6251	353.027	81.3278	353.027	80.8178	353.027	81.2558	353.027	81.0014	353.027	81.1499
366.211	83.444	366.211	83.3447	366.211	83.483	366.211	83.1895	366.211	83.461	366.211	82.9855	366.211	83.3795	366.211	82.7419	366.211	83.2418	366.211	82.4698	366.211	83.0512	366.211	82.1813	366.211	82.8113	366.211	81.8909	366.211	82.5269	366.211	81.6152	366.211	82.2076	366.211	81.3735	366.211	81.8704	366.211	81.1844	366.211	81.5409	366.211	81.0615	366.211	81.2493	366.211	81.007	366.211	81.0231	366.211	81.0098	366.211	80.8793	366.211	81.047	366.211	80.8197	366.211	81.091	366.211	80.8325	366.211	81.1163	366.211	80.8951	366.211	81.1063	366.211	80.9795	366.211	81.0572
379.395	83.2516	379.395	83.1666	379.395	83.2738	379.395	83.0233	379.395	83.2311	379.395	82.8283	379.395	83.125	379.395	82.5899	379.395	82.9603	379.395	82.3185	379.395	82.7452	379.395	82.0265	379.395	82.4902	379.395	81.7286	379.395	82.2066	379.395	81.4416	379.395	81.9059	379.395	81.1834	379.395	81.6015	379.395	80.9731	379.395	81.3119	379.395	80.8287	379.395	81.0639	379.395	80.7628	379.395	80.8889	379.395	80.7761	379.395	80.811	379.395	80.8536	379.395	80.8308	379.395	80.9654	379.395	80.9206	379.395	81.0758	379.395	81.035	379.395	81.152	379.395	81.129	379.395	81.1719
392.578	82.9614	392.578	82.8423	392.578	83.0124	392.578	82.6582	392.578	82.9956	392.578	82.4164	392.578	82.913	392.578	82.1293	392.578	82.7679	392.578	81.8138	392.578	82.5641	392.578	81.49	392.578	82.307	392.578	81.1785	392.578	82.0049	392.578	80.8977	392.578	81.6712	392.578	80.6627	392.578	81.3261	392.578	80.4859	392.578	80.9967	392.578	80.3774	392.578	80.7144	392.578	80.343	392.578	80.5088	392.578	80.3788	392.578	80.3988	392.578	80.4664	392.578	80.3846	392.578	80.5749	392.578	80.4461	392.578	80.6692	392.578	80.5475	392.578	80.7201	392.578	80.6477	392.578	80.7121
405.762	82.8043	405.762	82.7264	405.762	82.8087	405.762	82.572	405.762	82.746	405.762	82.3419	405.762	82.6246	405.762	82.0416	405.762	82.4532	405.762	81.6804	405.762	82.2392	405.762	81.2728	405.762	81.9893	405.762	80.8395	405.762	81.7112	405.762	80.4094	405.762	81.4157	405.762	80.0195	405.762	81.1181	405.762	79.7107	405.762	80.837	405.762	79.5186	405.762	80.5924	405.762	79.46	405.762	80.402	405.762	79.5249	405.762	80.2778	405.762	79.6775	405.762	80.2214	405.762	79.8685	405.762	80.2205	405.762	80.0494	405.762	80.2489	405.762	80.1848	405.762	80.2722	405.762	80.2579
420.41	82.694	420.41	82.6602	420.41	82.6681	420.41	82.5611	420.41	82.5894	420.41	82.3933	420.41	82.4654	420.41	82.1557	420.41	82.3035	420.41	81.8507	420.41	82.1083	420.41	81.4855	420.41	81.8808	420.41	81.0736	420.41	81.6187	420.41	80.6373	420.41	81.3197	420.41	80.2091	420.41	80.9884	420.41	79.8295	420.41	80.6425	420.41	79.5407	420.41	80.3152	420.41	79.3737	420.41	80.0483	420.41	79.3358	420.41	79.8753	420.41	79.4052	420.41	79.804	420.41	79.5387	420.41	79.811	420.41	79.6865	420.41	79.8531	420.41	79.8071	420.41	79.8856	420.41	79.8752
435.059	82.4006	435.059	82.393	435.059	82.3464	435.059	82.3248	435.059	82.2342	435.059	82.199	435.059	82.0738	435.059	82.0175	435.059	81.8791	435.059	81.779	435.059	81.664	435.059	81.4782	435.059	81.4357	435.059	81.1101	435.059	81.1921	435.059	80.6766	435.059	80.9248	435.059	80.1971	435.059	80.6287	435.059	79.7178	435.059	80.3144	435.059	79.3111	435.059	80.015	435.059	79.0552	435.059	79.7801	435.059	78.9948	435.059	79.6538	435.059	79.1123	435.059	79.647	435.059	79.3371	435.059	79.7268	435.059	79.5835	435.059	79.8326	435.059	79.7818	435.059	79.9022	435.059	79.8915
451.172	82.1908	451.172	82.1329	451.172	82.1739	451.172	82.0103	451.172	82.0806	451.172	81.8402	451.172	81.9197	451.172	81.6444	451.172	81.7103	451.172	81.4452	451.172	81.4789	451.172	81.2582	451.172	81.2521	451.172	81.084	451.172	81.0452	451.172	80.904	451.172	80.8542	451.172	80.6855	451.172	80.656	451.172	80.3966	451.172	80.4207	451.172	80.027	451.172	80.1295	451.172	79.6046	451.172	79.7895	451.172	79.1984	451.172	79.4396	451.172	78.8935	451.172	79.1385	451.172	78.7391	451.172	78.9349	451.172	78.7144	451.172	78.8364	451.172	78.7508	451.172	78.805	451.172	78.7867
465.82	81.2578	465.82	81.2388	465.82	81.1772	465.82	81.132	465.82	81.0025	465.82	80.9653	465.82	80.7579	465.82	80.7793	465.82	80.4872	465.82	80.6183	465.82	80.2513	465.82	80.5165	465.82	80.1125	465.82	80.4845	465.82	80.1068	465.82	80.5041	465.82	80.2192	465.82	80.5368	465.82	80.3874	465.82	80.5389	465.82	80.5323	465.82	80.4758	465.82	80.589	465.82	80.3307	465.82	80.524	465.82	80.108	465.82	80.3382	465.82	79.8347	465.82	80.0632	465.82	79.5555	465.82	79.7525	465.82	79.3229	465.82	79.4666	465.82	79.1819	465.82	79.2577	465.82	79.1584
483.398	83.0996	483.398	82.9501	483.398	83.0378	483.398	82.5889	483.398	82.7637	483.398	82.0204	483.398	82.2738	483.398	81.2678	483.398	81.5658	483.398	80.3987	483.398	80.6541	483.398	79.5622	483.398	79.6091	483.398	78.9987	483.398	78.6278	483.398	78.9254	483.398	78.0698	483.398	79.3392	483.398	78.2352	483.398	80.0201	483.398	79.0078	483.398	80.7321	483.398	79.9969	483.398	81.3399	483.398	80.9067	483.398	81.7999	483.398	81.6163	483.398	82.1213	483.398	82.1092	483.398	82.3358	483.398	82.4144	483.398	82.4776	483.398	82.5752	483.398	82.5711	483.398	82.6343	483.398	82.6257
499.512	84.0671	499.512	83.9612	499.512	84.031	499.512	83.7052	499.512	83.8521	499.512	83.2817	499.512	83.5216	499.512	82.6676	499.512	83.0241	499.512	81.8406	499.512	82.3386	499.512	80.7978	499.512	81.444	499.512	79.5952	499.512	80.3368	499.512	78.4252	499.512	79.0811	499.512	77.6743	499.512	77.9143	499.512	77.7115	499.512	77.3115	499.512	78.4578	499.512	77.6352	499.512	79.4953	499.512	78.6392	499.512	80.4963	499.512	79.8111	499.512	81.3222	499.512	80.845	499.512	81.9413	499.512	81.6419	499.512	82.3611	499.512	82.1946	499.512	82.5959	499.512	82.5236	499.512	82.6518
517.09	83.2464	517.09	83.1802	517.09	83.2102	517.09	83.0135	517.09	83.0631	517.09	82.7398	517.09	82.7935	517.09	82.3431	517.09	82.3895	517.09	81.7994	517.09	81.8394	517.09	81.082	517.09	81.1333	517.09	80.173	517.09	80.2648	517.09	79.0942	517.09	79.2444	517.09	77.9693	517.09	78.1373	517.09	77.1018	517.09	77.1361	517.09	76.8854	517.09	76.5926	517.09	77.405	517.09	76.7837	517.09	78.3179	517.09	77.5683	517.09	79.248	517.09	78.552	517.09	80.0003	517.09	79.4472	517.09	80.5114	517.09	80.134	517.09	80.7742	517.09	80.5836	517.09	80.7965
536.133	82.9499	536.133	82.9071	536.133	82.8972	536.133	82.7622	536.133	82.7515	536.133	82.5056	536.133	82.5085	536.133	82.123	536.133	82.1553	536.133	81.5956	536.133	81.6703	536.133	80.9051	536.133	81.0294	536.133	80.0443	536.133	80.2148	536.133	79.0376	536.133	79.2313	536.133	77.974	536.133	78.1318	536.133	77.0445	536.133	77.0651	536.133	76.5255	536.133	76.3139	536.133	76.6039	536.133	76.1809	536.133	77.1818	536.133	76.6867	536.133	77.9712	536.133	77.5278	536.133	78.7206	536.133	78.3805	536.133	79.2904	536.133	79.0639	536.133	79.6219	536.133	79.5088	536.133	79.6959
555.176	82.965	555.176	82.8972	555.176	82.9537	555.176	82.7506	555.176	82.8591	555.176	82.5199	555.176	82.6733	555.176	82.1928	555.176	82.3839	555.176	81.7491	555.176	81.9728	555.176	81.1628	555.176	81.4152	555.176	80.409	555.176	80.6841	555.176	79.4793	555.176	79.7636	555.176	78.4152	555.176	78.6786	555.176	77.3661	555.176	77.5479	555.176	76.6317	555.176	76.6399	555.176	76.52	555.176	76.2982	555.176	77.0212	555.176	76.6324	555.176	77.8105	555.176	77.3835	555.176	78.5749	555.176	78.208	555.176	79.1508	555.176	78.8928	555.176	79.479	555.176	79.3479	555.176	79.5452
574.219	83.1699	574.219	83.065	574.219	83.1869	574.219	82.8729	574.219	83.1116	574.219	82.5899	574.219	82.9364	574.219	82.2085	574.219	82.6511	574.219	81.7164	574.219	82.2413	574.219	81.0963	574.219	81.6854	574.219	80.3306	574.219	80.9549	574.219	79.416	574.219	80.0228	574.219	78.3944	574.219	78.8893	574.219	77.3988	574.219	77.6411	574.219	76.682	574.219	76.544	574.219	76.5154	574.219	76.0346	574.219	76.9413	574.219	76.3451	574.219	77.712	574.219	77.1932	574.219	78.521	574.219	78.1396	574.219	79.1665	574.219	78.9204	574.219	79.5528	574.219	79.4322	574.219	79.6444
594.727	82.7439	594.727	82.66	594.727	82.7471	594.727	82.4998	594.727	82.6649	594.727	82.2636	594.727	82.4932	594.727	81.9433	594.727	82.2265	594.727	81.5201	594.727	81.855	594.727	80.9663	594.727	81.3643	594.727	80.248	594.727	80.7364	594.727	79.3353	594.727	79.949	594.727	78.2294	594.727	78.9798	594.727	77.0236	594.727	77.8297	594.727	75.9943	594.727	76.5947	594.727	75.5647	594.727	75.5874	594.727	75.913	594.727	75.2918	594.727	76.7324	594.727	75.8501	594.727	77.6078	594.727	76.8339	594.727	78.2957	594.727	77.7739	594.727	78.6901	594.727	78.436	594.727	78.7441
615.234	82.7761	615.234	82.7258	615.234	82.7483	615.234	82.5918	615.234	82.6473	615.234	82.3655	615.234	82.4777	615.234	82.033	615.234	82.2402	615.234	81.5754	615.234	81.9261	615.234	80.9734	615.234	81.5117	615.234	80.214	615.234	80.9584	615.234	79.2961	615.234	80.2213	615.234	78.2413	615.234	79.2701	615.234	77.1286	615.234	78.1298	615.234	76.1604	615.234	76.9556	615.234	75.6738	615.234	76.098	615.234	75.8871	615.234	75.9303	615.234	76.6041	615.234	76.4231	615.234	77.4277	615.234	77.1842	615.234	78.0862	615.234	77.8793	615.234	78.471	615.234	78.3549	615.234	78.5585
637.207	82.757	637.207	82.6811	637.207	82.7495	637.207	82.5286	637.207	82.6535	637.207	82.3058	637.207	82.4659	637.207	82.0149	637.207	82.1857	637.207	81.647	637.207	81.8116	637.207	81.1778	637.207	81.3375	637.207	80.5697	637.207	80.7495	637.207	79.7849	637.207	80.028	637.207	78.8092	637.207	79.1589	637.207	77.6875	637.207	78.1535	637.207	76.5713	637.207	77.0895	637.207	75.7505	637.207	76.1793	637.207	75.5437	637.207	75.771	637.207	75.9964	637.207	76.0593	637.207	76.7988	637.207	76.7988	637.207	77.5801	637.207	77.5703	637.207	78.1109	637.207	78.1047	637.207	78.2936
659.18	82.6744	659.18	82.5772	659.18	82.6983	659.18	82.4089	659.18	82.6458	659.18	82.17	659.18	82.5116	659.18	81.8575	659.18	82.2885	659.18	81.4612	659.18	81.9695	659.18	80.9627	659.18	81.5493	659.18	80.337	659.18	81.0217	659.18	79.5603	659.18	80.3727	659.18	78.6297	659.18	79.581	659.18	77.6069	659.18	78.6472	659.18	76.6784	659.18	77.6622	659.18	76.1504	659.18	76.875	659.18	76.2311	659.18	76.6024	659.18	76.7942	659.18	76.9145	659.18	77.5256	659.18	77.5452	659.18	78.1771	659.18	78.1762	659.18	78.6124	659.18	78.6118	659.18	78.7647
682.617	83.3313	682.617	83.261	682.617	83.312	682.617	83.099	682.617	83.2038	682.617	82.8408	682.617	83.0057	682.617	82.479	682.617	82.7099	682.617	82.0036	682.617	82.2982	682.617	81.3981	682.617	81.7423	682.617	80.6309	682.617	81.0122	682.617	79.6564	682.617	80.0895	682.617	78.446	682.617	78.9909	682.617	77.0794	682.617	77.8135	682.617	75.9134	682.617	76.7986	682.617	75.5768	682.617	76.306	682.617	76.263	682.617	76.5293	682.617	77.4037	682.617	77.2638	682.617	78.4514	682.617	78.1433	682.617	79.1926	682.617	78.9087	682.617	79.5929	682.617	79.4334	682.617	79.6677
707.52	83.2686	707.52	83.2138	707.52	83.245	707.52	83.0884	707.52	83.1399	707.52	82.8957	707.52	82.9561	707.52	82.6244	707.52	82.6961	707.52	82.2473	707.52	82.3521	707.52	81.726	707.52	81.8994	707.52	81.018	707.52	81.2999	707.52	80.0841	707.52	80.512	707.52	78.9086	707.52	79.5011	707.52	77.5499	707.52	78.2545	707.52	76.2371	707.52	76.842	707.52	75.4167	707.52	75.5764	707.52	75.4469	707.52	75.0706	707.52	76.1603	707.52	75.5944	707.52	77.0965	707.52	76.6308	707.52	77.9124	707.52	77.6134	707.52	78.4296	707.52	78.2864	707.52	78.5641
732.422	82.8686	732.422	82.7791	732.422	82.8762	732.422	82.6276	732.422	82.7947	732.422	82.4413	732.422	82.6282	732.422	82.2342	732.422	82.3866	732.422	81.9824	732.422	82.0738	732.422	81.6189	732.422	81.674	732.422	81.0595	732.422	81.1457	732.422	80.2308	732.422	80.429	732.422	79.0862	732.422	79.4614	732.422	77.6353	732.422	78.2068	732.422	76.0529	732.422	76.7321	732.422	74.8893	732.422	75.3982	732.422	74.8689	732.422	74.9483	732.422	75.8629	732.422	75.6674	732.422	77.0744	732.422	76.8466	732.422	78.0121	732.422	77.8386	732.422	78.544	732.422	78.4494	732.422	78.681
757.324	82.2354	757.324	82.2697	757.324	82.1761	757.324	82.2637	757.324	82.0979	757.324	82.1895	757.324	82.0001	757.324	82.0149	757.324	81.876	757.324	81.7158	757.324	81.7102	757.324	81.272	757.324	81.4692	757.324	80.6462	757.324	81.0852	757.324	79.773	757.324	80.4541	757.324	78.5726	757.324	79.4603	757.324	76.9905	757.324	78.0237	757.324	75.132	757.324	76.1924	757.324	73.6485	757.324	74.3848	757.324	73.6803	757.324	73.6407	757.324	75.0341	757.324	74.5289	757.324	76.5499	757.324	76.103	757.324	77.7008	757.324	77.4613	757.324	78.3896	757.324	78.3048	757.324	78.6016
785.156	82.0379	785.156	81.9528	785.156	81.9728	785.156	81.749	785.156	81.7568	785.156	81.4737	785.156	81.4291	785.156	81.1735	785.156	81.0547	785.156	80.8679	785.156	80.6778	785.156	80.5233	785.156	80.2827	785.156	80.0532	785.156	79.8052	785.156	79.3512	785.156	79.1677	785.156	78.3327	785.156	78.2862	785.156	76.9699	785.156	77.0656	785.156	75.3459	785.156	75.4557	785.156	73.8359	785.156	73.6901	785.156	73.2921	785.156	72.6981	785.156	74.1127	785.156	73.3053	785.156	75.437	785.156	74.7089	785.156	76.4942	785.156	75.9675	785.156	77.0697	785.156	76.7969	785.156	77.1644
811.523	82.2775	811.523	82.2732	811.523	82.2095	811.523	82.1876	811.523	82.0921	811.523	82.031	811.523	81.95	811.523	81.8242	811.523	81.7985	811.523	81.5764	811.523	81.6329	811.523	81.2646	811.523	81.4142	811.523	80.8231	811.523	81.0688	811.523	80.1433	811.523	80.5136	811.523	79.0846	811.523	79.6762	811.523	77.523	811.523	78.4804	811.523	75.5052	811.523	76.8433	811.523	73.6576	811.523	74.8482	811.523	73.3073	811.523	73.3521	811.523	74.5455	811.523	73.7415	811.523	76.1089	811.523	75.3133	811.523	77.2946	811.523	76.7262	811.523	77.9307	811.523	77.6273	811.523	78.0275
840.82	82.2574	840.82	82.0721	840.82	82.301	840.82	81.8021	840.82	82.184	840.82	81.5195	840.82	81.9343	840.82	81.2821	840.82	81.623	840.82	81.1059	840.82	81.3415	840.82	80.945	840.82	81.1437	840.82	80.6906	840.82	80.973	840.82	80.2081	840.82	80.6533	840.82	79.3781	840.82	79.9734	840.82	78.1031	840.82	78.7796	840.82	76.3264	840.82	77.0306	840.82	74.3053	840.82	74.912	840.82	73.3165	840.82	73.2857	840.82	74.4052	840.82	73.6421	840.82	76.2176	840.82	75.5005	840.82	77.6763	840.82	77.2866	840.82	78.5582	840.82	78.4146	840.82	78.8214
870.117	83.4322	870.117	83.2811	870.117	83.3546	870.117	82.922	870.117	83.074	870.117	82.426	870.117	82.6544	870.117	81.8951	870.117	82.1837	870.117	81.4171	870.117	81.7378	870.117	81.0235	870.117	81.3423	870.117	80.6749	870.117	80.9762	870.117	80.2501	870.117	80.5874	870.117	79.5446	870.117	80.0561	870.117	78.312	870.117	79.1635	870.117	76.3369	870.117	77.6594	870.117	73.685	870.117	75.4745	870.117	71.9888	870.117	73.3614	870.117	73.563	870.117	73.2784	870.117	76.0081	870.117	75.0293	870.117	77.6815	870.117	76.8278	870.117	78.5076	870.117	78.0506	870.117	78.612
900.879	83.4315	900.879	83.2532	900.879	83.401	900.879	82.8918	900.879	83.1499	900.879	82.3954	900.879	82.7022	900.879	81.8495	900.879	82.1455	900.879	81.3509	900.879	81.6172	900.879	80.9296	900.879	81.2125	900.879	80.5097	900.879	80.8852	900.879	79.9641	900.879	80.4849	900.879	79.1715	900.879	79.8863	900.879	78.0033	900.879	79.0276	900.879	76.3034	900.879	77.7992	900.879	74.0261	900.879	75.9568	900.879	71.9236	900.879	73.4642	900.879	72.1046	900.879	71.9578	900.879	74.1542	900.879	73.3441	900.879	75.9634	900.879	75.2887	900.879	76.923	900.879	76.53	900.879	77.072
933.105	82.9336	933.105	82.8436	933.105	82.837	933.105	82.5695	933.105	82.5705	933.105	82.139	933.105	82.1669	933.105	81.6154	933.105	81.6803	933.105	81.0993	933.105	81.1901	933.105	80.6773	933.105	80.7622	933.105	80.3247	933.105	80.3868	933.105	79.8738	933.105	79.9719	933.105	79.0946	933.105	79.3785	933.105	77.8011	933.105	78.436	933.105	75.9293	933.105	76.9976	933.105	73.7091	933.105	75.1615	933.105	72.2807	933.105	73.7233	933.105	73.158	933.105	73.9037	933.105	75.1948	933.105	75.3985	933.105	76.899	933.105	76.9681	933.105	77.9328	933.105	77.9816	933.105	78.297
965.332	83.4746	965.332	83.2597	965.332	83.4125	965.332	82.8307	965.332	83.0609	965.332	82.2787	965.332	82.4624	965.332	81.6809	965.332	81.725	965.332	81.1108	965.332	81.0247	965.332	80.6958	965.332	80.5363	965.332	80.5029	965.332	80.279	965.332	80.3302	965.332	80.0697	965.332	79.817	965.332	79.6629	965.332	78.6826	965.332	78.8367	965.332	76.7866	965.332	77.3477	965.332	74.1977	965.332	74.9481	965.332	71.9116	965.332	71.9958	965.332	72.3568	965.332	71.4669	965.332	74.6881	965.332	73.9468	965.332	76.7001	965.332	76.2198	965.332	77.8602	965.332	77.6036	965.332	78.1479
1,000.49	83.2669	1,000.49	83.0844	1,000.49	83.1965	1,000.49	82.6465	1,000.49	82.862	1,000.49	81.9632	1,000.49	82.2539	1,000.49	81.1184	1,000.49	81.4028	1,000.49	80.2831	1,000.49	80.4308	1,000.49	79.6045	1,000.49	79.5692	1,000.49	79.0962	1,000.49	79.0313	1,000.49	78.6912	1,000.49	78.7792	1,000.49	78.2872	1,000.49	78.5195	1,000.49	77.6638	1,000.49	77.9322	1,000.49	76.4748	1,000.49	76.8093	1,000.49	74.4394	1,000.49	75.0551	1,000.49	71.9296	1,000.49	72.823	1,000.49	71.2908	1,000.49	71.5163	1,000.49	73.3375	1,000.49	72.9864	1,000.49	75.4873	1,000.49	75.2587	1,000.49	76.8104	1,000.49	76.7361	1,000.49	77.2332
1,035.64	82.8513	1,035.64	82.6626	1,035.64	82.8036	1,035.64	82.2576	1,035.64	82.5225	1,035.64	81.6745	1,035.64	82.0271	1,035.64	80.9563	1,035.64	81.3576	1,035.64	80.1755	1,035.64	80.5857	1,035.64	79.4824	1,035.64	79.8068	1,035.64	79.0251	1,035.64	79.1062	1,035.64	78.7149	1,035.64	78.5084	1,035.64	78.2029	1,035.64	77.9232	1,035.64	77.1444	1,035.64	77.1306	1,035.64	75.3882	1,035.64	75.8202	1,035.64	73.13	1,035.64	73.7151	1,035.64	71.4896	1,035.64	71.1681	1,035.64	72.0915	1,035.64	70.4918	1,035.64	73.9627	1,035.64	72.3986	1,035.64	75.6071	1,035.64	74.5327	1,035.64	76.5787	1,035.64	76.0389	1,035.64	76.7393
1,072.27	82.5521	1,072.27	82.3195	1,072.27	82.5471	1,072.27	81.8581	1,072.27	82.2952	1,072.27	81.2067	1,072.27	81.7919	1,072.27	80.4486	1,072.27	81.0637	1,072.27	79.6594	1,072.27	80.1872	1,072.27	78.8564	1,072.27	79.282	1,072.27	78.0208	1,072.27	78.4471	1,072.27	77.1209	1,072.27	77.6757	1,072.27	76.122	1,072.27	76.8896	1,072.27	74.9827	1,072.27	75.9898	1,072.27	73.589	1,072.27	74.7519	1,072.27	71.8985	1,072.27	72.8896	1,072.27	70.7817	1,072.27	70.7395	1,072.27	71.8591	1,072.27	70.5722	1,072.27	74.0152	1,072.27	72.8823	1,072.27	75.623	1,072.27	75.0282	1,072.27	76.4246	1,072.27	76.2099	1,072.27	76.6037
1,108.89	82.3465	1,108.89	82.0686	1,108.89	82.3517	1,108.89	81.5274	1,108.89	82.0564	1,108.89	80.7818	1,108.89	81.4215	1,108.89	80.0156	1,108.89	80.5191	1,108.89	79.5342	1,108.89	79.6811	1,108.89	79.4967	1,108.89	79.3166	1,108.89	79.6271	1,108.89	79.3534	1,108.89	79.4554	1,108.89	79.3076	1,108.89	78.61	1,108.89	78.7638	1,108.89	76.7721	1,108.89	77.4509	1,108.89	73.5235	1,108.89	75.1499	1,108.89	68.7198	1,108.89	71.539	1,108.89	68.1491	1,108.89	67.2342	1,108.89	72.5214	1,108.89	69.5671	1,108.89	75.7033	1,108.89	73.8013	1,108.89	77.6454	1,108.89	76.4034	1,108.89	78.5805	1,108.89	77.9125	1,108.89	78.6357
1,148.44	84.301	1,148.44	83.9692	1,148.44	84.2572	1,148.44	83.2411	1,148.44	83.8358	1,148.44	82.0556	1,148.44	83.033	1,148.44	80.4061	1,148.44	81.8336	1,148.44	78.6182	1,148.44	80.3078	1,148.44	77.6226	1,148.44	78.9264	1,148.44	78.0117	1,148.44	78.5156	1,148.44	78.9334	1,148.44	79.0395	1,148.44	79.4176	1,148.44	79.6066	1,148.44	78.9434	1,148.44	79.5497	1,148.44	77.031	1,148.44	78.4126	1,148.44	72.7164	1,148.44	75.5761	1,148.44	64.0067	1,148.44	69.1793	1,148.44	70.3062	1,148.44	61.3715	1,148.44	75.9751	1,148.44	72.9277	1,148.44	78.8494	1,148.44	77.4094	1,148.44	80.2149	1,148.44	79.6005	1,148.44	80.4504
1,189.45	84.5259	1,189.45	84.2499	1,189.45	84.4435	1,189.45	83.5785	1,189.45	84.0583	1,189.45	82.559	1,189.45	83.3597	1,189.45	81.2674	1,189.45	82.2662	1,189.45	79.7196	1,189.45	80.7271	1,189.45	78.0504	1,189.45	78.9866	1,189.45	76.9973	1,189.45	77.8563	1,189.45	77.2149	1,189.45	77.871	1,189.45	77.787	1,189.45	78.3238	1,189.45	77.6309	1,189.45	78.3727	1,189.45	76.2026	1,189.45	77.5439	1,189.45	72.753	1,189.45	75.4312	1,189.45	64.1581	1,189.45	71.1222	1,189.45	64.6085	1,189.45	62.6441	1,189.45	73.185	1,189.45	69.4789	1,189.45	76.9008	1,189.45	75.1094	1,189.45	78.6371	1,189.45	77.8484	1,189.45	78.9308
1,230.47	84.0016	1,230.47	83.7932	1,230.47	84.0296	1,230.47	83.4	1,230.47	83.8184	1,230.47	82.6847	1,230.47	83.3304	1,230.47	81.5132	1,230.47	82.5091	1,230.47	79.9621	1,230.47	81.2635	1,230.47	78.3772	1,230.47	79.651	1,230.47	77.2595	1,230.47	78.2354	1,230.47	77.061	1,230.47	77.8313	1,230.47	77.558	1,230.47	78.122	1,230.47	77.8037	1,230.47	78.1622	1,230.47	76.9665	1,230.47	77.4693	1,230.47	74.3715	1,230.47	75.7274	1,230.47	68.6938	1,230.47	72.1517	1,230.47	62.7415	1,230.47	64.6297	1,230.47	70.9938	1,230.47	67.6961	1,230.47	75.2996	1,230.47	73.9246	1,230.47	77.3706	1,230.47	76.8097	1,230.47	77.8455
1,274.41	84.3474	1,274.41	84.0069	1,274.41	84.2957	1,274.41	83.3093	1,274.41	83.8681	1,274.41	82.3172	1,274.41	83.1166	1,274.41	81.0538	1,274.41	82.0729	1,274.41	79.5099	1,274.41	80.6842	1,274.41	77.9138	1,274.41	78.9539	1,274.41	76.9677	1,274.41	77.484	1,274.41	76.886	1,274.41	77.2861	1,274.41	76.9007	1,274.41	77.8671	1,274.41	76.5647	1,274.41	78.0615	1,274.41	75.5692	1,274.41	77.2759	1,274.41	72.8814	1,274.41	75.0718	1,274.41	65.9864	1,274.41	70.6354	1,274.41	63.5774	1,274.41	62.0591	1,274.41	71.7982	1,274.41	68.3981	1,274.41	75.5409	1,274.41	74.2955	1,274.41	77.4267	1,274.41	77.0484	1,274.41	77.9465
1,319.82	83.1439	1,319.82	83.0273	1,319.82	83.0913	1,319.82	82.6642	1,319.82	82.8187	1,319.82	81.8576	1,319.82	82.2385	1,319.82	80.4211	1,319.82	81.2568	1,319.82	78.4057	1,319.82	79.7326	1,319.82	76.4162	1,319.82	77.651	1,319.82	75.4685	1,319.82	75.8354	1,319.82	75.9328	1,319.82	75.7375	1,319.82	77.0142	1,319.82	76.6192	1,319.82	77.4593	1,319.82	77.1017	1,319.82	76.373	1,319.82	76.6506	1,319.82	72.9738	1,319.82	74.7841	1,319.82	64.4048	1,319.82	70.3195	1,319.82	62.6487	1,319.82	57.5542	1,319.82	72.001	1,319.82	68.1496	1,319.82	75.7166	1,319.82	73.9727	1,319.82	77.4259	1,319.82	76.6298	1,319.82	77.7006
1,366.7	83.3477	1,366.7	83.0313	1,366.7	83.3506	1,366.7	82.47	1,366.7	83.05	1,366.7	81.6916	1,366.7	82.4717	1,366.7	80.513	1,366.7	81.5615	1,366.7	78.5414	1,366.7	80.1579	1,366.7	75.3687	1,366.7	77.9356	1,366.7	71.8757	1,366.7	74.5547	1,366.7	72.5528	1,366.7	72.0006	1,366.7	74.8579	1,366.7	74.0643	1,366.7	75.8485	1,366.7	76.1356	1,366.7	75.4332	1,366.7	76.4566	1,366.7	73.1657	1,366.7	74.9555	1,366.7	66.9051	1,366.7	70.9826	1,366.7	65.9492	1,366.7	62.076	1,366.7	73.6234	1,366.7	69.2713	1,366.7	76.8897	1,366.7	75.2155	1,366.7	78.3248	1,366.7	77.8509	1,366.7	78.6788
1,413.57	81.9949	1,413.57	82.0534	1,413.57	82.0483	1,413.57	82.0461	1,413.57	82.1622	1,413.57	81.6945	1,413.57	82.1361	1,413.57	80.7844	1,413.57	81.7308	1,413.57	79.1526	1,413.57	80.6916	1,413.57	76.5361	1,413.57	78.7152	1,413.57	72.4624	1,413.57	75.3484	1,413.57	69.2337	1,413.57	70.6232	1,413.57	72.7337	1,413.57	71.1402	1,413.57	75.5769	1,413.57	74.7806	1,413.57	76.2731	1,413.57	76.3624	1,413.57	75.0437	1,413.57	75.9483	1,413.57	71.716	1,413.57	73.39	1,413.57	68.2127	1,413.57	68.3202	1,413.57	72.2899	1,413.57	69.5228	1,413.57	76.221	1,413.57	74.5874	1,413.57	78.0658	1,413.57	77.2484	1,413.57	78.3187
1,463.38	81.2474	1,463.38	81.1753	1,463.38	81.3089	1,463.38	81.159	1,463.38	81.3725	1,463.38	81.2493	1,463.38	81.4799	1,463.38	81.2896	1,463.38	81.5759	1,463.38	80.8456	1,463.38	81.4391	1,463.38	79.4228	1,463.38	80.6331	1,463.38	76.4302	1,463.38	78.548	1,463.38	70.4296	1,463.38	74.3132	1,463.38	66.487	1,463.38	68.3116	1,463.38	73.8844	1,463.38	72.9102	1,463.38	77.0642	1,463.38	77.0295	1,463.38	77.6831	1,463.38	78.3598	1,463.38	76.3397	1,463.38	77.6074	1,463.38	73.7069	1,463.38	75.1589	1,463.38	73.0055	1,463.38	72.4486	1,463.38	75.1733	1,463.38	73.7042	1,463.38	76.9422	1,463.38	76.3205	1,463.38	77.4171
1,516.11	81.5139	1,516.11	81.2499	1,516.11	81.4156	1,516.11	80.7102	1,516.11	80.9831	1,516.11	80.1645	1,516.11	80.4191	1,516.11	79.9229	1,516.11	80.0502	1,516.11	79.7808	1,516.11	79.952	1,516.11	79.2022	1,516.11	79.7297	1,516.11	77.8256	1,516.11	78.8126	1,516.11	75.1625	1,516.11	76.6748	1,516.11	70.3613	1,516.11	72.7757	1,516.11	69.5979	1,516.11	69.5581	1,516.11	74.4046	1,516.11	73.2747	1,516.11	76.5404	1,516.11	76.1314	1,516.11	76.4061	1,516.11	76.7688	1,516.11	74.3214	1,516.11	75.4812	1,516.11	70.3323	1,516.11	72.0833	1,516.11	67.6514	1,516.11	67.3747	1,516.11	69.6104	1,516.11	68.4925	1,516.11	70.3594
1,568.85	81.7719	1,568.85	81.4392	1,568.85	81.7594	1,568.85	80.9021	1,568.85	81.3107	1,568.85	80.168	1,568.85	80.541	1,568.85	79.2978	1,568.85	79.5863	1,568.85	78.4772	1,568.85	78.5248	1,568.85	77.6361	1,568.85	77.6075	1,568.85	76.5187	1,568.85	76.7493	1,568.85	75.0787	1,568.85	75.1851	1,568.85	73.1319	1,568.85	72.6391	1,568.85	70.6473	1,568.85	70.6562	1,568.85	70.5035	1,568.85	71.4357	1,568.85	72.3789	1,568.85	73.252	1,568.85	72.6556	1,568.85	73.815	1,568.85	70.4332	1,568.85	72.2466	1,568.85	64.1072	1,568.85	67.753	1,568.85	52.8722	1,568.85	57.3164	1,568.85	63.7971	1,568.85	60.7772	1,568.85	65.0099
1,624.51	80.6506	1,624.51	80.3714	1,624.51	80.5711	1,624.51	79.8016	1,624.51	80.1999	1,624.51	79.0081	1,624.51	79.5856	1,624.51	78.0515	1,624.51	78.7083	1,624.51	77.1442	1,624.51	77.634	1,624.51	76.168	1,624.51	76.5441	1,624.51	74.6498	1,624.51	75.3453	1,624.51	72.5383	1,624.51	73.3813	1,624.51	70.754	1,624.51	70.2883	1,624.51	71.0196	1,624.51	68.5593	1,624.51	72.3712	1,624.51	70.5653	1,624.51	72.9743	1,624.51	72.3723	1,624.51	72.1561	1,624.51	72.262	1,624.51	68.9853	1,624.51	69.9879	1,624.51	61.0177	1,624.51	64.6466	1,624.51	62.6438	1,624.51	56.7978	1,624.51	67.8596	1,624.51	65.7057	1,624.51	68.6319
1,681.64	80.3368	1,681.64	79.8952	1,681.64	80.343	1,681.64	79.0351	1,681.64	79.9287	1,681.64	77.9218	1,681.64	79.1835	1,681.64	76.8397	1,681.64	78.3146	1,681.64	75.9348	1,681.64	77.4562	1,681.64	74.9872	1,681.64	76.5794	1,681.64	73.5691	1,681.64	75.6188	1,681.64	71.5512	1,681.64	74.1868	1,681.64	69.5946	1,681.64	71.6002	1,681.64	69.3439	1,681.64	68.1045	1,681.64	70.5248	1,681.64	68.0949	1,681.64	71.3749	1,681.64	70.4702	1,681.64	70.6735	1,681.64	70.6493	1,681.64	66.7775	1,681.64	67.6629	1,681.64	56.7594	1,681.64	59.4956	1,681.64	64.4211	1,681.64	60.0436	1,681.64	68.7068	1,681.64	67.6617	1,681.64	69.7612
1,741.7	81.1913	1,741.7	80.6793	1,741.7	81.2305	1,741.7	79.7892	1,741.7	80.7851	1,741.7	78.6732	1,741.7	79.9412	1,741.7	77.433	1,741.7	78.9846	1,741.7	76.397	1,741.7	78.0303	1,741.7	75.7244	1,741.7	77.0082	1,741.7	74.4764	1,741.7	76.1966	1,741.7	71.8101	1,741.7	75.1084	1,741.7	67.6453	1,741.7	72.5005	1,741.7	64.343	1,741.7	68.9196	1,741.7	68.255	1,741.7	69.0327	1,741.7	70.6512	1,741.7	71.7305	1,741.7	70.0599	1,741.7	72.8171	1,741.7	66.6058	1,741.7	70.8213	1,741.7	57.532	1,741.7	64.3782	1,741.7	65.1402	1,741.7	58.5897	1,741.7	69.5657	1,741.7	66.6878	1,741.7	69.7435
1,803.22	81.7875	1,803.22	81.5671	1,803.22	81.6723	1,803.22	80.9158	1,803.22	81.2562	1,803.22	79.9102	1,803.22	80.4503	1,803.22	78.7575	1,803.22	79.3176	1,803.22	77.6375	1,803.22	78.1257	1,803.22	76.8216	1,803.22	77.0492	1,803.22	76.1633	1,803.22	76.2285	1,803.22	74.6662	1,803.22	75.4287	1,803.22	71.663	1,803.22	73.6926	1,803.22	68.4751	1,803.22	70.6387	1,803.22	69.1477	1,803.22	69.4625	1,803.22	71.6793	1,803.22	71.9345	1,803.22	72.6202	1,803.22	73.4023	1,803.22	70.9872	1,803.22	72.7476	1,803.22	65.4989	1,803.22	69.3385	1,803.22	51.3857	1,803.22	58.5066	1,803.22	63.6691	1,803.22	61.0467	1,803.22	66.0256
1,866.21	81.7608	1,866.21	81.3885	1,866.21	81.5032	1,866.21	80.5636	1,866.21	80.7858	1,866.21	79.4405	1,866.21	79.8076	1,866.21	78.1061	1,866.21	78.4629	1,866.21	76.8413	1,866.21	77.0307	1,866.21	76.1174	1,866.21	75.9085	1,866.21	75.7414	1,866.21	75.0161	1,866.21	74.7952	1,866.21	74.3499	1,866.21	73.0711	1,866.21	72.9548	1,866.21	70.6559	1,866.21	69.4846	1,866.21	68.9468	1,866.21	66.0528	1,866.21	71.4816	1,866.21	69.8974	1,866.21	73.1416	1,866.21	72.5123	1,866.21	71.8819	1,866.21	72.0836	1,866.21	66.5557	1,866.21	68.5174	1,866.21	55.0833	1,866.21	57.6828	1,866.21	66.0194	1,866.21	64.5689	1,866.21	68.4406
1,932.13	81.3921	1,932.13	80.912	1,932.13	81.3202	1,932.13	80.0609	1,932.13	80.7941	1,932.13	78.8457	1,932.13	79.9577	1,932.13	77.1255	1,932.13	78.6493	1,932.13	75.1856	1,932.13	76.9104	1,932.13	73.7046	1,932.13	75.1517	1,932.13	73.0641	1,932.13	73.7215	1,932.13	72.7593	1,932.13	73.0451	1,932.13	71.7118	1,932.13	72.4442	1,932.13	69.0847	1,932.13	70.6085	1,932.13	66.974	1,932.13	67.354	1,932.13	69.3556	1,932.13	66.3829	1,932.13	70.8114	1,932.13	69.2105	1,932.13	69.5476	1,932.13	69.9671	1,932.13	64.9244	1,932.13	67.1796	1,932.13	60.2529	1,932.13	58.5945	1,932.13	65.5213	1,932.13	61.5313	1,932.13	66.3973
1,999.51	81.5305	1,999.51	81.217	1,999.51	81.5454	1,999.51	80.4901	1,999.51	81.199	1,999.51	79.4256	1,999.51	80.4516	1,999.51	78.0472	1,999.51	79.3759	1,999.51	76.2594	1,999.51	77.8763	1,999.51	74.4323	1,999.51	76.0509	1,999.51	73.1308	1,999.51	74.4872	1,999.51	72.6223	1,999.51	73.6732	1,999.51	71.7204	1,999.51	73.0527	1,999.51	69.669	1,999.51	71.6793	1,999.51	67.4977	1,999.51	69.6339	1,999.51	67.8198	1,999.51	68.6318	1,999.51	69.4726	1,999.51	69.5175	1,999.51	68.4724	1,999.51	69.3777	1,999.51	63.7641	1,999.51	66.4286	1,999.51	57.9866	1,999.51	59.7194	1,999.51	64.5952	1,999.51	61.8724	1,999.51	65.8391
2,069.82	81.9314	2,069.82	81.6045	2,069.82	81.7986	2,069.82	81.0473	2,069.82	81.3849	2,069.82	80.2673	2,069.82	80.7303	2,069.82	78.9739	2,069.82	79.6909	2,069.82	77.3479	2,069.82	78.2019	2,069.82	75.5267	2,069.82	76.308	2,069.82	73.9907	2,069.82	74.578	2,069.82	73.2218	2,069.82	73.332	2,069.82	72.5539	2,069.82	72.5582	2,069.82	71.0035	2,069.82	71.5761	2,069.82	67.6369	2,069.82	69.4551	2,069.82	67.2232	2,069.82	68.7846	2,069.82	68.9946	2,069.82	69.8154	2,069.82	68.7493	2,069.82	69.7673	2,069.82	65.052	2,069.82	67.2988	2,069.82	61.5891	2,069.82	62.583	2,069.82	65.8557	2,069.82	64.7589	2,069.82	67.2942
2,143.07	80.9961	2,143.07	80.8395	2,143.07	80.8706	2,143.07	80.3754	2,143.07	80.4984	2,143.07	79.661	2,143.07	79.866	2,143.07	78.8203	2,143.07	78.9899	2,143.07	77.5147	2,143.07	77.8551	2,143.07	75.6983	2,143.07	76.1711	2,143.07	73.8948	2,143.07	74.1237	2,143.07	72.5931	2,143.07	72.2836	2,143.07	72.3149	2,143.07	71.0642	2,143.07	71.4864	2,143.07	70.2554	2,143.07	69.8006	2,143.07	68.3741	2,143.07	68.3356	2,143.07	66.6487	2,143.07	68.0027	2,143.07	66.9875	2,143.07	66.7102	2,143.07	66.9117	2,143.07	63.5318	2,143.07	64.3967	2,143.07	64.0109	2,143.07	62.0718	2,143.07	67.4056	2,143.07	66.055	2,143.07	68.7033
2,219.24	81.8065	2,219.24	81.4973	2,219.24	81.7384	2,219.24	80.7348	2,219.24	81.3372	2,219.24	79.7983	2,219.24	80.6072	2,219.24	78.8133	2,219.24	79.7439	2,219.24	77.6283	2,219.24	78.8236	2,219.24	76.0524	2,219.24	77.508	2,219.24	74.1186	2,219.24	75.73	2,219.24	72.601	2,219.24	73.9909	2,219.24	71.4213	2,219.24	72.3366	2,219.24	70.2429	2,219.24	71.0857	2,219.24	69.5133	2,219.24	69.948	2,219.24	69.4662	2,219.24	69.1618	2,219.24	69.7259	2,219.24	69.5426	2,219.24	67.7071	2,219.24	69.1136	2,219.24	59.0988	2,219.24	64.9774	2,219.24	62.383	2,219.24	55.2844	2,219.24	68.3656	2,219.24	65.1159	2,219.24	68.8707
2,296.88	82.418	2,296.88	82.0298	2,296.88	82.352	2,296.88	81.3256	2,296.88	81.8979	2,296.88	80.4029	2,296.88	81.1918	2,296.88	79.2812	2,296.88	80.2282	2,296.88	78.1703	2,296.88	79.14	2,296.88	76.7657	2,296.88	78.0524	2,296.88	74.8494	2,296.88	76.6767	2,296.88	72.9414	2,296.88	75.2078	2,296.88	71.4254	2,296.88	73.8893	2,296.88	69.9295	2,296.88	72.6429	2,296.88	68.2662	2,296.88	71.2205	2,296.88	69.0738	2,296.88	70.7147	2,296.88	70.7009	2,296.88	71.7142	2,296.88	69.6924	2,296.88	71.5348	2,296.88	63.5171	2,296.88	68.6041	2,296.88	54.4557	2,296.88	59.4146	2,296.88	65.4007	2,296.88	64.2487	2,296.88	67.317
2,378.91	82.0673	2,378.91	81.8625	2,378.91	81.9502	2,378.91	81.2827	2,378.91	81.3658	2,378.91	80.3115	2,378.91	80.4663	2,378.91	79.461	2,378.91	79.4782	2,378.91	78.7672	2,378.91	78.436	2,378.91	77.5746	2,378.91	77.4446	2,378.91	76.0336	2,378.91	76.0178	2,378.91	74.4179	2,378.91	74.2614	2,378.91	72.9939	2,378.91	72.6999	2,378.91	71.8674	2,378.91	71.1918	2,378.91	69.6053	2,378.91	69.9008	2,378.91	69.1094	2,378.91	69.4007	2,378.91	71.2133	2,378.91	71.3496	2,378.91	71.4172	2,378.91	71.7509	2,378.91	67.9517	2,378.91	68.9379	2,378.91	60.7303	2,378.91	61.0203	2,378.91	65.6098	2,378.91	63.1672	2,378.91	67.3375
2,462.4	81.4761	2,462.4	80.851	2,462.4	81.2938	2,462.4	79.8661	2,462.4	80.6266	2,462.4	78.7153	2,462.4	79.4507	2,462.4	77.1574	2,462.4	77.9851	2,462.4	76.3697	2,462.4	76.7502	2,462.4	76.0467	2,462.4	76.1389	2,462.4	74.8912	2,462.4	75.6208	2,462.4	73.3661	2,462.4	74.0501	2,462.4	71.8811	2,462.4	72.1555	2,462.4	70.3545	2,462.4	70.3897	2,462.4	69.0394	2,462.4	68.5522	2,462.4	69.2417	2,462.4	67.493	2,462.4	71.0306	2,462.4	70.1403	2,462.4	70.9715	2,462.4	71.6891	2,462.4	67.3558	2,462.4	70.5341	2,462.4	62.8563	2,462.4	64.3348	2,462.4	67.0124	2,462.4	63.2721	2,462.4	66.5764
2,548.83	82.6163	2,548.83	82.498	2,548.83	82.5728	2,548.83	82.0072	2,548.83	82.3814	2,548.83	81.2021	2,548.83	81.7812	2,548.83	80.0359	2,548.83	80.8904	2,548.83	78.0457	2,548.83	79.4131	2,548.83	76.0121	2,548.83	77.0957	2,548.83	74.592	2,548.83	75.6999	2,548.83	72.966	2,548.83	74.9226	2,548.83	71.7666	2,548.83	74.057	2,548.83	71.0234	2,548.83	72.3559	2,548.83	66.4111	2,548.83	69.0133	2,548.83	67.2159	2,548.83	67.0605	2,548.83	72.8491	2,548.83	71.3277	2,548.83	73.8791	2,548.83	73.6479	2,548.83	69.6376	2,548.83	72.3933	2,548.83	61.9257	2,548.83	67.5751	2,548.83	69.648	2,548.83	69.227	2,548.83	72.517
2,639.65	82.7584	2,639.65	82.5063	2,639.65	82.7932	2,639.65	82.1336	2,639.65	82.6716	2,639.65	81.7152	2,639.65	82.3228	2,639.65	81.2067	2,639.65	81.6235	2,639.65	80.389	2,639.65	80.6642	2,639.65	79.1444	2,639.65	79.3071	2,639.65	77.42	2,639.65	77.6643	2,639.65	75.2688	2,639.65	75.4654	2,639.65	73.5031	2,639.65	72.9671	2,639.65	73.2746	2,639.65	73.0677	2,639.65	72.4649	2,639.65	72.4639	2,639.65	66.4408	2,639.65	68.0668	2,639.65	63.2971	2,639.65	65.555	2,639.65	70.0274	2,639.65	71.3275	2,639.65	69.1763	2,639.65	70.5054	2,639.65	60.6125	2,639.65	64.9778	2,639.65	68.3403	2,639.65	66.1315	2,639.65	70.5146
2,731.93	82.6876	2,731.93	82.4954	2,731.93	82.4601	2,731.93	81.7234	2,731.93	81.9308	2,731.93	80.913	2,731.93	81.2231	2,731.93	80.3009	2,731.93	80.5015	2,731.93	79.0656	2,731.93	79.8048	2,731.93	77.8277	2,731.93	78.7255	2,731.93	77.0424	2,731.93	76.9041	2,731.93	75.7323	2,731.93	75.6168	2,731.93	74.1025	2,731.93	73.8215	2,731.93	73.6263	2,731.93	71.9157	2,731.93	73.0044	2,731.93	71.5672	2,731.93	70.5211	2,731.93	69.5179	2,731.93	68.9947	2,731.93	65.9755	2,731.93	71.4847	2,731.93	69.2203	2,731.93	69.6209	2,731.93	70.1025	2,731.93	61.9406	2,731.93	64.8279	2,731.93	66.5676	2,731.93	63.5273	2,731.93	70.0154
2,828.61	82.7935	2,828.61	82.4301	2,828.61	82.6736	2,828.61	81.8304	2,828.61	82.2985	2,828.61	81.1319	2,828.61	81.7591	2,828.61	80.5081	2,828.61	81.1938	2,828.61	79.5443	2,828.61	80.4082	2,828.61	77.9998	2,828.61	79.3547	2,828.61	76.6012	2,828.61	77.8493	2,828.61	75.3589	2,828.61	76.3496	2,828.61	73.6206	2,828.61	74.6745	2,828.61	72.4245	2,828.61	72.765	2,828.61	72.5892	2,828.61	71.9085	2,828.61	69.3609	2,828.61	70.4405	2,828.61	67.517	2,828.61	67.6375	2,828.61	70.9862	2,828.61	70.4369	2,828.61	70.7916	2,828.61	71.6296	2,828.61	63.6444	2,828.61	68.4286	2,828.61	67.8716	2,828.61	62.335	2,828.61	68.8334
2,928.22	83.3794	2,928.22	83.1042	2,928.22	83.2236	2,928.22	82.4567	2,928.22	82.7082	2,928.22	81.7	2,928.22	81.8427	2,928.22	81.2087	2,928.22	81.1396	2,928.22	80.3311	2,928.22	80.4938	2,928.22	78.7884	2,928.22	79.6027	2,928.22	77.2896	2,928.22	78.4855	2,928.22	76.284	2,928.22	76.9357	2,928.22	75.046	2,928.22	75.768	2,928.22	72.9831	2,928.22	73.516	2,928.22	72.8564	2,928.22	72.0218	2,928.22	71.7409	2,928.22	70.6828	2,928.22	67.2757	2,928.22	68.5829	2,928.22	70.2185	2,928.22	69.3706	2,928.22	70.455	2,928.22	71.9738	2,928.22	66.4377	2,928.22	67.79	2,928.22	63.885	2,928.22	66.2849	2,928.22	67.1077
3,030.76	82.2579	3,030.76	82.2988	3,030.76	82.096	3,030.76	82.1223	3,030.76	81.6906	3,030.76	81.5139	3,030.76	81.462	3,030.76	80.6346	3,030.76	81.0318	3,030.76	80.4739	3,030.76	80.237	3,030.76	79.3528	3,030.76	79.4464	3,030.76	76.9291	3,030.76	78.1557	3,030.76	75.5636	3,030.76	76.3533	3,030.76	75.0894	3,030.76	75.1678	3,030.76	73.2112	3,030.76	74.0127	3,030.76	72.0309	3,030.76	71.9516	3,030.76	71.7539	3,030.76	70.7315	3,030.76	69.1191	3,030.76	69.4591	3,030.76	69.9138	3,030.76	69.8731	3,030.76	70.3772	3,030.76	70.7756	3,030.76	62.8158	3,030.76	66.7256	3,030.76	67.3497	3,030.76	64.0539	3,030.76	67.838
3,137.7	82.0555	3,137.7	82.1933	3,137.7	82.0259	3,137.7	82.1526	3,137.7	82.0015	3,137.7	81.5804	3,137.7	81.9737	3,137.7	80.8679	3,137.7	81.5553	3,137.7	80.3389	3,137.7	80.8676	3,137.7	79.4529	3,137.7	80.177	3,137.7	77.3452	3,137.7	78.8413	3,137.7	74.7969	3,137.7	76.5223	3,137.7	73.3336	3,137.7	74.6653	3,137.7	72.1967	3,137.7	73.6312	3,137.7	72.1795	3,137.7	73.0709	3,137.7	71.6356	3,137.7	73.5493	3,137.7	68.4845	3,137.7	69.0247	3,137.7	70.4635	3,137.7	68.2276	3,137.7	70.7755	3,137.7	71.8668	3,137.7	65.9861	3,137.7	68.578	3,137.7	64.1383	3,137.7	63.2067	3,137.7	68.8571
3,249.02	81.1447	3,249.02	81.5231	3,249.02	81.385	3,249.02	82.3531	3,249.02	82.1765	3,249.02	82.6921	3,249.02	82.9468	3,249.02	82.2208	3,249.02	82.6785	3,249.02	81.0151	3,249.02	81.5831	3,249.02	80.526	3,249.02	80.9238	3,249.02	79.0411	3,249.02	80.085	3,249.02	76.3275	3,249.02	77.4384	3,249.02	74.8002	3,249.02	75.1255	3,249.02	72.2868	3,249.02	74.2602	3,249.02	69.7215	3,249.02	70.5925	3,249.02	72.6228	3,249.02	72.9938	3,249.02	69.9937	3,249.02	73.8064	3,249.02	69.2659	3,249.02	68.7118	3,249.02	71.6558	3,249.02	69.8079	3,249.02	63.7757	3,249.02	68.297	3,249.02	67.6073	3,249.02	63.03	3,249.02	70.9533
3,363.28	79.6604	3,363.28	80.4538	3,363.28	79.881	3,363.28	81.6081	3,363.28	80.9948	3,363.28	82.6539	3,363.28	82.3879	3,363.28	82.728	3,363.28	82.5635	3,363.28	80.7801	3,363.28	81.9509	3,363.28	79.5567	3,363.28	80.4478	3,363.28	78.8315	3,363.28	79.0992	3,363.28	75.8687	3,363.28	77.2915	3,363.28	73.8426	3,363.28	74.7833	3,363.28	73.5133	3,363.28	74.0802	3,363.28	68.8026	3,363.28	72.0577	3,363.28	70.4571	3,363.28	69.7279	3,363.28	72.084	3,363.28	72.5253	3,363.28	70.3682	3,363.28	70.2606	3,363.28	71.2333	3,363.28	69.7754	3,363.28	65.4692	3,363.28	69.1364	3,363.28	59.6148	3,363.28	54.2025	3,363.28	66.6633
3,481.93	80.224	3,481.93	81.1805	3,481.93	80.4861	3,481.93	81.8712	3,481.93	81.535	3,481.93	82.9076	3,481.93	82.2755	3,481.93	82.556	3,481.93	82.8103	3,481.93	81.5563	3,481.93	82.2359	3,481.93	79.8052	3,481.93	80.4718	3,481.93	78.0894	3,481.93	79.0668	3,481.93	75.6227	3,481.93	77.568	3,481.93	73.9879	3,481.93	74.7053	3,481.93	72.9604	3,481.93	74.2017	3,481.93	69.6929	3,481.93	71.9405	3,481.93	71.7549	3,481.93	68.8437	3,481.93	72.2563	3,481.93	71.5363	3,481.93	70.5088	3,481.93	70.9217	3,481.93	73.2177	3,481.93	71.8946	3,481.93	69.0505	3,481.93	69.5339	3,481.93	59.201	3,481.93	64.0074	3,481.93	63.2584
3,604.98	79.9878	3,604.98	80.7719	3,604.98	80.266	3,604.98	82.1843	3,604.98	81.2102	3,604.98	83.1201	3,604.98	82.4088	3,604.98	83.3776	3,604.98	83.4413	3,604.98	81.8321	3,604.98	82.6132	3,604.98	79.4749	3,604.98	80.4442	3,604.98	78.6923	3,604.98	78.7321	3,604.98	77.3334	3,604.98	77.7054	3,604.98	73.057	3,604.98	73.8234	3,604.98	73.053	3,604.98	71.8515	3,604.98	69.9026	3,604.98	71.5792	3,604.98	70.2212	3,604.98	65.9885	3,604.98	70.9921	3,604.98	71.186	3,604.98	68.3973	3,604.98	70.9803	3,604.98	71.9744	3,604.98	71.0862	3,604.98	69.247	3,604.98	69.9308	3,604.98	62.0334	3,604.98	58.1971	3,604.98	66.5617
3,732.42	81.0646	3,732.42	81.7044	3,732.42	81.204	3,732.42	82.7044	3,732.42	81.7746	3,732.42	83.1137	3,732.42	82.9066	3,732.42	83.8074	3,732.42	83.6944	3,732.42	82.7264	3,732.42	83.5138	3,732.42	80.3232	3,732.42	81.9047	3,732.42	78.7495	3,732.42	79.4714	3,732.42	77.2359	3,732.42	78.32	3,732.42	73.0722	3,732.42	75.3526	3,732.42	72.7935	3,732.42	71.8615	3,732.42	70.9684	3,732.42	73.3042	3,732.42	66.2098	3,732.42	66.5631	3,732.42	71.0652	3,732.42	71.7643	3,732.42	67.622	3,732.42	71.8656	3,732.42	72.4318	3,732.42	70.7398	3,732.42	70.2723	3,732.42	72.4572	3,732.42	60.7238	3,732.42	62.7407	3,732.42	64.6652
3,864.26	81.655	3,864.26	82.0461	3,864.26	81.7714	3,864.26	82.1042	3,864.26	82.1817	3,864.26	81.8497	3,864.26	82.339	3,864.26	82.3192	3,864.26	82.0706	3,864.26	82.6579	3,864.26	82.8233	3,864.26	80.3798	3,864.26	81.9267	3,864.26	77.6343	3,864.26	78.6225	3,864.26	76.5745	3,864.26	76.9175	3,864.26	73.0593	3,864.26	75.971	3,864.26	71.31	3,864.26	70.4187	3,864.26	72.3978	3,864.26	72.321	3,864.26	62.6319	3,864.26	71.1847	3,864.26	66.5006	3,864.26	58.2552	3,864.26	65.7772	3,864.26	65.4418	3,864.26	71.0612	3,864.26	68.4996	3,864.26	69.7736	3,864.26	71.3853	3,864.26	62.6883	3,864.26	62.9996	3,864.26	65.4617
4,000.49	82.1416	4,000.49	82.9142	4,000.49	82.7796	4,000.49	83.5965	4,000.49	84.0171	4,000.49	83.5655	4,000.49	84.0977	4,000.49	81.5142	4,000.49	82.5485	4,000.49	80.8087	4,000.49	81.3285	4,000.49	80.5324	4,000.49	81.6626	4,000.49	77.8838	4,000.49	79.9491	4,000.49	75.4612	4,000.49	76.4119	4,000.49	74.8262	4,000.49	76.137	4,000.49	71.7491	4,000.49	74.0946	4,000.49	70.1247	4,000.49	70.5445	4,000.49	71.9476	4,000.49	71.6088	4,000.49	70.5577	4,000.49	72.4651	4,000.49	65.6947	4,000.49	69.9593	4,000.49	64.0155	4,000.49	66.694	4,000.49	63.0678	4,000.49	62.9986	4,000.49	59.5362	4,000.49	60.787	4,000.49	63.9517
4,141.11	82.3888	4,141.11	82.7957	4,141.11	82.6827	4,141.11	83.3845	4,141.11	83.02	4,141.11	83.2986	4,141.11	83.0965	4,141.11	82.5838	4,141.11	83.4324	4,141.11	80.3022	4,141.11	81.2994	4,141.11	78.2172	4,141.11	79.1502	4,141.11	77.2721	4,141.11	78.3073	4,141.11	75.3183	4,141.11	76.8523	4,141.11	73.3816	4,141.11	74.0724	4,141.11	72.1959	4,141.11	72.2373	4,141.11	69.7317	4,141.11	70.4057	4,141.11	68.6468	4,141.11	67.437	4,141.11	71.9685	4,141.11	70.5975	4,141.11	70.2608	4,141.11	72.7367	4,141.11	71.2846	4,141.11	71.2639	4,141.11	68.9369	4,141.11	71.3257	4,141.11	66.1435	4,141.11	64.1961	4,141.11	64.8162
4,287.6	82.4021	4,287.6	83.1173	4,287.6	82.1463	4,287.6	83.8273	4,287.6	82.6443	4,287.6	83.1082	4,287.6	83.7596	4,287.6	82.2925	4,287.6	82.6926	4,287.6	81.1478	4,287.6	82.1607	4,287.6	79.5716	4,287.6	79.7421	4,287.6	76.111	4,287.6	77.4167	4,287.6	75.586	4,287.6	75.6723	4,287.6	73.7366	4,287.6	73.8155	4,287.6	72.0065	4,287.6	71.7794	4,287.6	72.3659	4,287.6	71.7059	4,287.6	65.9244	4,287.6	69.4985	4,287.6	70.885	4,287.6	69.0594	4,287.6	68.1043	4,287.6	69.7405	4,287.6	70.0795	4,287.6	69.9398	4,287.6	69.4273	4,287.6	71.8761	4,287.6	57.0376	4,287.6	67.3457	4,287.6	65.4937
4,438.48	81.3763	4,438.48	82.5234	4,438.48	81.2623	4,438.48	82.7744	4,438.48	83.0045	4,438.48	83.7356	4,438.48	83.6689	4,438.48	82.2325	4,438.48	83.2058	4,438.48	81.1182	4,438.48	81.4651	4,438.48	79.0206	4,438.48	80.6144	4,438.48	77.2147	4,438.48	78.8203	4,438.48	74.6111	4,438.48	75.7562	4,438.48	73.405	4,438.48	73.5522	4,438.48	71.6693	4,438.48	71.3112	4,438.48	70.2439	4,438.48	70.0622	4,438.48	67.5616	4,438.48	67.9502	4,438.48	69.8491	4,438.48	66.0579	4,438.48	69.9296	4,438.48	70.4168	4,438.48	71.9472	4,438.48	69.9426	4,438.48	69.5321	4,438.48	72.4264	4,438.48	66.7859	4,438.48	65.8697	4,438.48	67.7126
4,595.21	80.6218	4,595.21	81.1886	4,595.21	80.8694	4,595.21	82.5959	4,595.21	81.5035	4,595.21	82.8442	4,595.21	81.9122	4,595.21	82.7765	4,595.21	82.9642	4,595.21	80.4912	4,595.21	81.3021	4,595.21	79.4033	4,595.21	79.6213	4,595.21	78.4836	4,595.21	77.8469	4,595.21	75.5391	4,595.21	76.6767	4,595.21	72.9796	4,595.21	74.4416	4,595.21	69.7371	4,595.21	72.3581	4,595.21	68.995	4,595.21	70.5466	4,595.21	66.3891	4,595.21	69.0007	4,595.21	66.7753	4,595.21	65.884	4,595.21	68.873	4,595.21	71.2943	4,595.21	69.4799	4,595.21	68.9936	4,595.21	71.6148	4,595.21	71.3889	4,595.21	68.5022	4,595.21	67.6317	4,595.21	68.5033
4,756.35	80.0383	4,756.35	81.1614	4,756.35	80.2859	4,756.35	82.1162	4,756.35	81.1866	4,756.35	81.7922	4,756.35	82.6685	4,756.35	81.3574	4,756.35	81.8256	4,756.35	80.5519	4,756.35	82.0944	4,756.35	79.1248	4,756.35	80.1603	4,756.35	76.8066	4,756.35	78.3819	4,756.35	76.3027	4,756.35	76.2386	4,756.35	73.4028	4,756.35	74.5825	4,756.35	70.8163	4,756.35	72.8494	4,756.35	71.0032	4,756.35	70.6659	4,756.35	67.5471	4,756.35	68.7285	4,756.35	68.4552	4,756.35	68.0207	4,756.35	68.1171	4,756.35	68.2613	4,756.35	68.7406	4,756.35	67.2288	4,756.35	70.1462	4,756.35	70.9131	4,756.35	63.4213	4,756.35	68.5177	4,756.35	67.4019
4,924.8	79.5835	4,924.8	80.2215	4,924.8	80.0312	4,924.8	81.2986	4,924.8	81.4422	4,924.8	82.6486	4,924.8	81.4709	4,924.8	81.8908	4,924.8	82.1662	4,924.8	80.7068	4,924.8	80.256	4,924.8	78.9701	4,924.8	80.4297	4,924.8	77.8379	4,924.8	78.1837	4,924.8	74.7001	4,924.8	75.4196	4,924.8	73.2277	4,924.8	75.1154	4,924.8	71.955	4,924.8	71.4292	4,924.8	70.8487	4,924.8	70.9783	4,924.8	68.2595	4,924.8	67.5985	4,924.8	67.6888	4,924.8	67.5023	4,924.8	67.8969	4,924.8	68.0018	4,924.8	70.3989	4,924.8	68.925	4,924.8	70.3531	4,924.8	70.6308	4,924.8	65.6169	4,924.8	66.3061	4,924.8	68.3802
5,097.66	80.5293	5,097.66	80.3572	5,097.66	80.7118	5,097.66	81.66	5,097.66	81.348	5,097.66	81.3394	5,097.66	82.05	5,097.66	81.5734	5,097.66	81.6948	5,097.66	80.5693	5,097.66	82.2697	5,097.66	79.5104	5,097.66	79.9084	5,097.66	77.7487	5,097.66	79.257	5,097.66	74.9378	5,097.66	78.0258	5,097.66	74.3142	5,097.66	75.1731	5,097.66	69.3674	5,097.66	72.0951	5,097.66	69.7762	5,097.66	70.641	5,097.66	64.0828	5,097.66	68.1952	5,097.66	67.2584	5,097.66	69.3762	5,097.66	67.5314	5,097.66	67.1468	5,097.66	67.2278	5,097.66	66.6995	5,097.66	71.2296	5,097.66	71.469	5,097.66	66.307	5,097.66	66.6867	5,097.66	66.5299
5,277.83	81.1554	5,277.83	80.7222	5,277.83	80.665	5,277.83	80.4333	5,277.83	80.3751	5,277.83	80.8212	5,277.83	81.1675	5,277.83	80.3563	5,277.83	80.9616	5,277.83	81.0456	5,277.83	80.621	5,277.83	79.6653	5,277.83	80.6929	5,277.83	77.9902	5,277.83	79.2281	5,277.83	77.4884	5,277.83	76.1866	5,277.83	76.0231	5,277.83	74.9895	5,277.83	71.9821	5,277.83	73.7344	5,277.83	70.7695	5,277.83	70.0083	5,277.83	68.6179	5,277.83	68.6059	5,277.83	68.2589	5,277.83	64.8025	5,277.83	68.9798	5,277.83	68.8523	5,277.83	68.6461	5,277.83	69.9344	5,277.83	71.2051	5,277.83	70.3942	5,277.83	60.3435	5,277.83	65.7815	5,277.83	64.4857
5,463.87	82.1659	5,463.87	80.9329	5,463.87	81.4611	5,463.87	80.6732	5,463.87	79.7135	5,463.87	82.287	5,463.87	80.7236	5,463.87	82.6535	5,463.87	81.7174	5,463.87	82.4164	5,463.87	81.8607	5,463.87	81.3369	5,463.87	81.2472	5,463.87	79.6681	5,463.87	79.9593	5,463.87	75.1729	5,463.87	77.9931	5,463.87	73.2199	5,463.87	73.959	5,463.87	72.4181	5,463.87	73.2421	5,463.87	71.3698	5,463.87	72.061	5,463.87	67.7745	5,463.87	69.6931	5,463.87	66.5483	5,463.87	69.0023	5,463.87	66.9892	5,463.87	66.5986	5,463.87	67.3418	5,463.87	69.6012	5,463.87	70.2899	5,463.87	70.0336	5,463.87	63.6713	5,463.87	66.6105	5,463.87	64.8645
5,657.23	82.2293	5,657.23	81.1185	5,657.23	82.134	5,657.23	80.0418	5,657.23	80.4222	5,657.23	80.3289	5,657.23	80.6895	5,657.23	81.5385	5,657.23	81.7404	5,657.23	81.9161	5,657.23	82.5084	5,657.23	80.441	5,657.23	81.4769	5,657.23	78.2894	5,657.23	80.0917	5,657.23	76.3547	5,657.23	77.9418	5,657.23	74.5236	5,657.23	75.7746	5,657.23	70.7246	5,657.23	72.6761	5,657.23	70.1517	5,657.23	69.6586	5,657.23	67.6621	5,657.23	70.4329	5,657.23	68.3011	5,657.23	67.356	5,657.23	67.278	5,657.23	67.1376	5,657.23	66.9168	5,657.23	68.2126	5,657.23	70.1305	5,657.23	68.7656	5,657.23	61.7559	5,657.23	68.3292	5,657.23	63.2765
5,856.45	81.791	5,856.45	81.1963	5,856.45	81.3403	5,856.45	79.5646	5,856.45	80.4154	5,856.45	80.8282	5,856.45	80.4164	5,856.45	81.6929	5,856.45	81.5931	5,856.45	81.88	5,856.45	81.8928	5,856.45	80.5555	5,856.45	81.7409	5,856.45	78.9233	5,856.45	79.7354	5,856.45	76.5794	5,856.45	77.9444	5,856.45	74.8779	5,856.45	74.8895	5,856.45	71.6527	5,856.45	73.2703	5,856.45	71.1153	5,856.45	70.4122	5,856.45	68.2791	5,856.45	70.6373	5,856.45	69.2582	5,856.45	68.0378	5,856.45	68.6358	5,856.45	68.6709	5,856.45	68.2698	5,856.45	69.7439	5,856.45	70.3576	5,856.45	67.7073	5,856.45	62.3497	5,856.45	67.5516	5,856.45	65.3486
6,062.99	82.176	6,062.99	80.085	6,062.99	81.9599	6,062.99	79.5933	6,062.99	79.4542	6,062.99	80.8046	6,062.99	79.6412	6,062.99	81.9789	6,062.99	81.2561	6,062.99	81.5366	6,062.99	82.1623	6,062.99	79.7728	6,062.99	81.0005	6,062.99	78.2299	6,062.99	78.8853	6,062.99	75.1942	6,062.99	76.7341	6,062.99	71.4559	6,062.99	73.6322	6,062.99	70.1347	6,062.99	72.0595	6,062.99	68.7213	6,062.99	66.632	6,062.99	66.4344	6,062.99	68.0494	6,062.99	67.7098	6,062.99	68.1554	6,062.99	65.0408	6,062.99	66.7541	6,062.99	67.552	6,062.99	69.4269	6,062.99	68.5464	6,062.99	66.7282	6,062.99	61.9859	6,062.99	66.607	6,062.99	63.5948
6,276.86	82.4577	6,276.86	81.1119	6,276.86	81.3976	6,276.86	79.2849	6,276.86	80.1384	6,276.86	79.9324	6,276.86	79.7396	6,276.86	81.4022	6,276.86	80.6698	6,276.86	81.2044	6,276.86	81.5261	6,276.86	79.6551	6,276.86	80.672	6,276.86	76.666	6,276.86	78.2631	6,276.86	73.9996	6,276.86	75.8032	6,276.86	72.2412	6,276.86	73.4996	6,276.86	69.044	6,276.86	71.419	6,276.86	67.5624	6,276.86	68.4127	6,276.86	65.8347	6,276.86	67.4371	6,276.86	67.3491	6,276.86	64.9124	6,276.86	65.6722	6,276.86	67.2314	6,276.86	65.8477	6,276.86	67.911	6,276.86	69.1062	6,276.86	66.5282	6,276.86	62.7883	6,276.86	66.8955	6,276.86	61.9042
6,498.05	82.2113	6,498.05	80.8325	6,498.05	81.7323	6,498.05	79.6788	6,498.05	80.235	6,498.05	80.2162	6,498.05	79.2958	6,498.05	80.56	6,498.05	80.1685	6,498.05	80.1757	6,498.05	80.3653	6,498.05	78.0644	6,498.05	79.524	6,498.05	75.7829	6,498.05	77.3493	6,498.05	73.937	6,498.05	74.6168	6,498.05	70.7833	6,498.05	71.1413	6,498.05	68.0695	6,498.05	68.6887	6,498.05	65.5847	6,498.05	65.5288	6,498.05	63.2617	6,498.05	64.0317	6,498.05	65.1798	6,498.05	65.1864	6,498.05	64.7813	6,498.05	63.4953	6,498.05	67.5096	6,498.05	66.927	6,498.05	67.7567	6,498.05	65.7774	6,498.05	62.71	6,498.05	66.6531	6,498.05	61.1345
6,726.56	82.3659	6,726.56	80.9613	6,726.56	81.8875	6,726.56	79.4097	6,726.56	80.1234	6,726.56	79.3709	6,726.56	79.6928	6,726.56	79.6555	6,726.56	79.922	6,726.56	78.7341	6,726.56	79.4045	6,726.56	77.0988	6,726.56	78.078	6,726.56	74.421	6,726.56	75.6818	6,726.56	72.4267	6,726.56	73.406	6,726.56	70.9214	6,726.56	71.0779	6,726.56	67.0731	6,726.56	69.2844	6,726.56	63.3949	6,726.56	65.4967	6,726.56	62.8882	6,726.56	65.149	6,726.56	64.3691	6,726.56	61.3965	6,726.56	63.2666	6,726.56	58.8321	6,726.56	65.5987	6,726.56	66.4267	6,726.56	66.9052	6,726.56	64.9576	6,726.56	60.0962	6,726.56	65.1778	6,726.56	61.6901
6,963.87	82.2311	6,963.87	81.4094	6,963.87	81.9565	6,963.87	80.0639	6,963.87	80.9101	6,963.87	79.7317	6,963.87	79.4839	6,963.87	79.3464	6,963.87	79.4268	6,963.87	78.2532	6,963.87	79.2333	6,963.87	76.5103	6,963.87	77.9595	6,963.87	74.536	6,963.87	75.7632	6,963.87	73.219	6,963.87	73.4886	6,963.87	70.1177	6,963.87	70.8815	6,963.87	67.3325	6,963.87	69.3408	6,963.87	63.8467	6,963.87	66.6593	6,963.87	61.7489	6,963.87	62.9796	6,963.87	62.1519	6,963.87	63.9505	6,963.87	62.7682	6,963.87	63.7301	6,963.87	64.7386	6,963.87	64.993	6,963.87	66.4501	6,963.87	64.0793	6,963.87	61.1559	6,963.87	65.8984	6,963.87	54.2489
7,209.96	82.8226	7,209.96	81.8812	7,209.96	82.488	7,209.96	81.0123	7,209.96	81.2264	7,209.96	79.8802	7,209.96	80.225	7,209.96	79.3512	7,209.96	79.6384	7,209.96	78.3664	7,209.96	78.8427	7,209.96	76.952	7,209.96	77.7874	7,209.96	74.9886	7,209.96	76.5155	7,209.96	72.2561	7,209.96	73.6707	7,209.96	70.1911	7,209.96	71.4369	7,209.96	67.6316	7,209.96	68.8424	7,209.96	63.1148	7,209.96	65.7873	7,209.96	62.1665	7,209.96	63.7628	7,209.96	63.6736	7,209.96	61.5877	7,209.96	59.0764	7,209.96	62.4351	7,209.96	64.8609	7,209.96	64.9869	7,209.96	64.9297	7,209.96	65.6025	7,209.96	62.9982	7,209.96	66.5933	7,209.96	58.2297
7,464.84	82.8479	7,464.84	82.3624	7,464.84	82.5789	7,464.84	81.0626	7,464.84	82.0407	7,464.84	79.8978	7,464.84	80.163	7,464.84	78.8986	7,464.84	79.1899	7,464.84	78.4602	7,464.84	78.7082	7,464.84	77.4588	7,464.84	78.3737	7,464.84	75.9389	7,464.84	76.7814	7,464.84	73.3412	7,464.84	74.3195	7,464.84	70.3522	7,464.84	72.2667	7,464.84	67.8146	7,464.84	69.0791	7,464.84	65.5302	7,464.84	66.6374	7,464.84	62.9325	7,464.84	60.0962	7,464.84	63.9219	7,464.84	64.7406	7,464.84	60.4116	7,464.84	62.5173	7,464.84	66.6726	7,464.84	64.4089	7,464.84	64.0904	7,464.84	64.3583	7,464.84	62.0379	7,464.84	65.9169	7,464.84	58.1131
7,727.05	82.6939	7,727.05	82.7941	7,727.05	82.818	7,727.05	81.5262	7,727.05	82.288	7,727.05	79.9077	7,727.05	80.3979	7,727.05	79.0417	7,727.05	79.3587	7,727.05	78.9686	7,727.05	79.5854	7,727.05	78.7428	7,727.05	79.2075	7,727.05	76.7573	7,727.05	77.8596	7,727.05	74.1908	7,727.05	75.3466	7,727.05	70.992	7,727.05	73.2933	7,727.05	68.1372	7,727.05	69.6641	7,727.05	64.932	7,727.05	67.1692	7,727.05	62.6257	7,727.05	64.8962	7,727.05	61.1838	7,727.05	62.9229	7,727.05	59.0567	7,727.05	61.8647	7,727.05	64.5971	7,727.05	63.9692	7,727.05	64.0361	7,727.05	65.7804	7,727.05	60.7106	7,727.05	64.0062	7,727.05	56.7906
7,999.51	82.6166	7,999.51	83.0324	7,999.51	82.9872	7,999.51	82.1052	7,999.51	83.1685	7,999.51	79.8054	7,999.51	81.3249	7,999.51	79.6745	7,999.51	79.9023	7,999.51	79.7514	7,999.51	80.1189	7,999.51	78.6985	7,999.51	79.6982	7,999.51	76.5804	7,999.51	78.3427	7,999.51	74.1573	7,999.51	75.5797	7,999.51	70.8704	7,999.51	72.3272	7,999.51	68.0882	7,999.51	70.0352	7,999.51	64.7365	7,999.51	67.702	7,999.51	62.623	7,999.51	63.9356	7,999.51	62.042	7,999.51	64.6449	7,999.51	59.5219	7,999.51	59.6011	7,999.51	65.809	7,999.51	63.5104	7,999.51	63.6286	7,999.51	65.501	7,999.51	62.047	7,999.51	64.8869	7,999.51	56.619
8,282.23	82.6865	8,282.23	83.2656	8,282.23	82.8189	8,282.23	82.1966	8,282.23	83.1825	8,282.23	79.9124	8,282.23	81.2691	8,282.23	79.6715	8,282.23	79.5618	8,282.23	79.7309	8,282.23	80.0164	8,282.23	78.6098	8,282.23	79.8681	8,282.23	76.4456	8,282.23	78.0428	8,282.23	72.6937	8,282.23	75.0717	8,282.23	70.4287	8,282.23	71.7444	8,282.23	66.6609	8,282.23	68.8589	8,282.23	65.4407	8,282.23	66.5596	8,282.23	62.95	8,282.23	63.8263	8,282.23	56.1813	8,282.23	63.6234	8,282.23	56.1531	8,282.23	60.671	8,282.23	64.5031	8,282.23	62.9502	8,282.23	64.4251	8,282.23	65.7973	8,282.23	60.7701	8,282.23	65.4216	8,282.23	53.8271
8,573.73	81.9799	8,573.73	82.8987	8,573.73	82.6933	8,573.73	81.7385	8,573.73	83.0341	8,573.73	79.4979	8,573.73	80.9253	8,573.73	78.7182	8,573.73	79.4825	8,573.73	79.2757	8,573.73	79.7991	8,573.73	77.5867	8,573.73	79.2658	8,573.73	75.0308	8,573.73	76.8326	8,573.73	72.4801	8,573.73	74.0554	8,573.73	69.0707	8,573.73	71.2099	8,573.73	66.3561	8,573.73	68.476	8,573.73	62.9069	8,573.73	65.1516	8,573.73	62.1706	8,573.73	63.6756	8,573.73	57.9025	8,573.73	62.8822	8,573.73	53.1421	8,573.73	55.896	8,573.73	63.4875	8,573.73	59.7787	8,573.73	63.0359	8,573.73	64.7727	8,573.73	61.7582	8,573.73	64.3927	8,573.73	51.6099
8,876.95	81.4782	8,876.95	82.3547	8,876.95	82.1384	8,876.95	81.5191	8,876.95	82.3524	8,876.95	79.2178	8,876.95	80.5896	8,876.95	78.9129	8,876.95	78.9502	8,876.95	78.7159	8,876.95	79.4184	8,876.95	76.9296	8,876.95	78.6195	8,876.95	73.6978	8,876.95	76.3602	8,876.95	70.6191	8,876.95	73.4331	8,876.95	67.7529	8,876.95	70.0951	8,876.95	64.4011	8,876.95	67.7782	8,876.95	62.7435	8,876.95	63.6114	8,876.95	62.0056	8,876.95	61.8235	8,876.95	60.7799	8,876.95	60.2728	8,876.95	53.1021	8,876.95	56.5888	8,876.95	61.8209	8,876.95	61.0061	8,876.95	62.643	8,876.95	64.6017	8,876.95	60.1102	8,876.95	62.4487	8,876.95	53.5807
9,188.96	81.1178	9,188.96	81.8308	9,188.96	81.489	9,188.96	80.8206	9,188.96	81.7315	9,188.96	78.9689	9,188.96	80.0791	9,188.96	78.2971	9,188.96	78.3415	9,188.96	77.8064	9,188.96	78.822	9,188.96	76.0646	9,188.96	77.7801	9,188.96	73.7059	9,188.96	75.6193	9,188.96	70.4096	9,188.96	72.6003	9,188.96	67.3263	9,188.96	69.9555	9,188.96	64.9997	9,188.96	66.8651	9,188.96	62.4985	9,188.96	63.3447	9,188.96	60.2108	9,188.96	61.9967	9,188.96	59.3434	9,188.96	58.4111	9,188.96	56.5002	9,188.96	54.5053	9,188.96	62.7968	9,188.96	59.6119	9,188.96	61.8264	9,188.96	63.8985	9,188.96	58.4863	9,188.96	62.8532	9,188.96	44.8399
9,514.16	80.6225	9,514.16	81.1052	9,514.16	80.8707	9,514.16	80.263	9,514.16	81.1503	9,514.16	78.7053	9,514.16	79.4862	9,514.16	77.5545	9,514.16	78.0383	9,514.16	77.0276	9,514.16	77.8347	9,514.16	75.7145	9,514.16	77.1537	9,514.16	73.3919	9,514.16	75.3525	9,514.16	70.7146	9,514.16	72.1336	9,514.16	67.9085	9,514.16	69.8623	9,514.16	64.5989	9,514.16	66.9152	9,514.16	61.514	9,514.16	64.3435	9,514.16	59.5854	9,514.16	61.7251	9,514.16	58.0456	9,514.16	55.5846	9,514.16	53.1899	9,514.16	55.1118	9,514.16	61.8199	9,514.16	57.8739	9,514.16	61.4436	9,514.16	64.0907	9,514.16	57.5097	9,514.16	60.3682	9,514.16	48.8265
9,849.61	80.5978	9,849.61	80.3336	9,849.61	80.6051	9,849.61	79.9802	9,849.61	80.5226	9,849.61	78.5567	9,849.61	79.573	9,849.61	77.0534	9,849.61	78.0372	9,849.61	76.4985	9,849.61	77.2725	9,849.61	75.6029	9,849.61	76.9779	9,849.61	73.819	9,849.61	75.5124	9,849.61	70.7261	9,849.61	72.5378	9,849.61	67.2559	9,849.61	70.2206	9,849.61	64.127	9,849.61	66.9622	9,849.61	60.8004	9,849.61	64.259	9,849.61	59.4092	9,849.61	61.3397	9,849.61	54.4904	9,849.61	54.1524	9,849.61	54.8751	9,849.61	55.6801	9,849.61	60.5017	9,849.61	58.9719	9,849.61	60.069	9,849.61	63.5543	9,849.61	53.4465	9,849.61	58.9096	9,849.61	49.5428
10,196.8	80.8135	10,196.8	79.8105	10,196.8	80.406	10,196.8	79.8223	10,196.8	79.9736	10,196.8	78.4932	10,196.8	79.6667	10,196.8	76.7106	10,196.8	77.9833	10,196.8	76.4584	10,196.8	77.2109	10,196.8	75.6283	10,196.8	77.0587	10,196.8	73.809	10,196.8	75.4515	10,196.8	70.1941	10,196.8	73.206	10,196.8	67.1658	10,196.8	69.8342	10,196.8	64.0423	10,196.8	66.7851	10,196.8	61.5799	10,196.8	63.854	10,196.8	58.6204	10,196.8	60.2168	10,196.8	55.2064	10,196.8	58.0283	10,196.8	55.2541	10,196.8	54.9087	10,196.8	58.972	10,196.8	57.8833	10,196.8	60.4172	10,196.8	63.0035	10,196.8	53.8075	10,196.8	59.5241	10,196.8	51.9661
10,555.7	80.4831	10,555.7	79.1935	10,555.7	79.8603	10,555.7	79.8438	10,555.7	79.647	10,555.7	78.4245	10,555.7	79.8662	10,555.7	76.367	10,555.7	77.9637	10,555.7	76.844	10,555.7	77.1343	10,555.7	75.8501	10,555.7	77.3265	10,555.7	73.3959	10,555.7	75.5735	10,555.7	70.0314	10,555.7	72.8872	10,555.7	66.5067	10,555.7	69.4946	10,555.7	63.1655	10,555.7	66.9947	10,555.7	61.6483	10,555.7	63.327	10,555.7	58.8939	10,555.7	60.1671	10,555.7	58.0347	10,555.7	57.4833	10,555.7	49.7606	10,555.7	53.1273	10,555.7	60.2163	10,555.7	58.0016	10,555.7	59.0779	10,555.7	63.1299	10,555.7	55.2177	10,555.7	59.8694	10,555.7	46.8513
10,927.7	79.8182	10,927.7	78.5572	10,927.7	79.3263	10,927.7	79.6665	10,927.7	79.2258	10,927.7	78.0049	10,927.7	79.8571	10,927.7	76.3181	10,927.7	77.7887	10,927.7	76.6694	10,927.7	77.1665	10,927.7	75.6664	10,927.7	77.5821	10,927.7	72.9953	10,927.7	75.8863	10,927.7	70.1814	10,927.7	72.716	10,927.7	66.6495	10,927.7	69.7091	10,927.7	62.88	10,927.7	66.6996	10,927.7	61.0686	10,927.7	63.4463	10,927.7	56.7292	10,927.7	60.468	10,927.7	57.077	10,927.7	56.0346	10,927.7	53.1225	10,927.7	55.8092	10,927.7	58.7729	10,927.7	56.7923	10,927.7	58.3322	10,927.7	62.3777	10,927.7	55.0033	10,927.7	59.6881	10,927.7	48.5118
11,313	79.9349	11,313	78.5046	11,313	79.5016	11,313	79.0127	11,313	78.9151	11,313	77.3745	11,313	79.4438	11,313	76.1907	11,313	77.4974	11,313	76.3189	11,313	77.143	11,313	75.64	11,313	77.4196	11,313	73.2718	11,313	75.9716	11,313	70.43	11,313	72.5301	11,313	66.0771	11,313	70.0006	11,313	63.1296	11,313	66.1987	11,313	60.2238	11,313	63.2055	11,313	56.042	11,313	59.4055	11,313	55.6219	11,313	56.9203	11,313	54.6097	11,313	54.8541	11,313	58.6162	11,313	56.733	11,313	58.2193	11,313	60.6763	11,313	54.8382	11,313	58.2409	11,313	47.4759
11,712.9	80.2374	11,712.9	79.4262	11,712.9	80.0737	11,712.9	79.1449	11,712.9	79.5526	11,712.9	77.7702	11,712.9	79.4182	11,712.9	76.459	11,712.9	78.1158	11,712.9	75.6494	11,712.9	77.0987	11,712.9	74.9403	11,712.9	76.787	11,712.9	72.8638	11,712.9	75.5248	11,712.9	69.36	11,712.9	71.8029	11,712.9	65.2263	11,712.9	68.956	11,712.9	62.2104	11,712.9	65.1002	11,712.9	60.0645	11,712.9	62.3749	11,712.9	56.1016	11,712.9	57.3647	11,712.9	54.3544	11,712.9	56.8008	11,712.9	50.826	11,712.9	54.5559	11,712.9	56.01	11,712.9	56.6971	11,712.9	54.6917	11,712.9	59.1192	11,712.9	52.8877	11,712.9	55.0799	11,712.9	48.2826
12,126	80.6045	12,126	80.2745	12,126	80.7732	12,126	79.4897	12,126	80.2647	12,126	78.3262	12,126	79.6943	12,126	76.289	12,126	78.5885	12,126	74.6569	12,126	76.6782	12,126	73.5051	12,126	75.8811	12,126	71.3784	12,126	74.3377	12,126	67.5709	12,126	70.8825	12,126	63.2566	12,126	67.83	12,126	59.2448	12,126	64.4453	12,126	57.3381	12,126	60.4228	12,126	53.7781	12,126	54.5163	12,126	54.5088	12,126	55.9459	12,126	51.9057	12,126	50.622	12,126	50.592	12,126	55.1824	12,126	51.5938	12,126	58.0591	12,126	50.4729	12,126	53.4432	12,126	44.6058
12,553.7	81.04	12,553.7	80.6912	12,553.7	81.1832	12,553.7	79.5084	12,553.7	80.4419	12,553.7	78.2732	12,553.7	79.6322	12,553.7	75.341	12,553.7	78.2998	12,553.7	73.5561	12,553.7	76.0798	12,553.7	72.1663	12,553.7	74.9012	12,553.7	69.6844	12,553.7	73.1558	12,553.7	65.0998	12,553.7	69.8085	12,553.7	60.5878	12,553.7	65.8865	12,553.7	56.2553	12,553.7	62.8217	12,553.7	54.21	12,553.7	57.6837	12,553.7	51.1416	12,553.7	53.0237	12,553.7	51.3461	12,553.7	52.2704	12,553.7	50.3626	12,553.7	46.0496	12,553.7	49.958	12,553.7	52.1581	12,553.7	51.7163	12,553.7	54.8776	12,553.7	48.6975	12,553.7	51.6931	12,553.7	42.9707
12,996.1	81.0441	12,996.1	80.6654	12,996.1	81.1739	12,996.1	79.3484	12,996.1	80.3265	12,996.1	77.9928	12,996.1	79.3434	12,996.1	74.7055	12,996.1	77.5139	12,996.1	72.6862	12,996.1	75.0715	12,996.1	70.5541	12,996.1	73.553	12,996.1	66.68	12,996.1	71.2314	12,996.1	62.0508	12,996.1	66.554	12,996.1	58.0489	12,996.1	62.0866	12,996.1	52.0771	12,996.1	58.3137	12,996.1	49.5272	12,996.1	54.1985	12,996.1	45.6737	12,996.1	50.6167	12,996.1	50.7372	12,996.1	50.2141	12,996.1	48.2351	12,996.1	40.2006	12,996.1	46.8556	12,996.1	48.1621	12,996.1	50.7254	12,996.1	50.1422	12,996.1	42.0877	12,996.1	48.1426	12,996.1	39.5876
13,454.6	81.1724	13,454.6	80.4976	13,454.6	81.1428	13,454.6	79.2385	13,454.6	80.0874	13,454.6	77.5584	13,454.6	78.8454	13,454.6	74.2376	13,454.6	76.4063	13,454.6	71.6693	13,454.6	73.8347	13,454.6	68.5416	13,454.6	71.8476	13,454.6	64.1014	13,454.6	68.1098	13,454.6	59.7068	13,454.6	62.132	13,454.6	55.4971	13,454.6	58.0361	13,454.6	52.0968	13,454.6	52.2334	13,454.6	50.1009	13,454.6	52.1267	13,454.6	47.1015	13,454.6	47.4592	13,454.6	36.0907	13,454.6	49.1801	13,454.6	44.495	13,454.6	45.0095	13,454.6	45.8504	13,454.6	44.9152	13,454.6	49.8136	13,454.6	47.4537	13,454.6	42.5725	13,454.6	44.0727	13,454.6	36.1357
13,929.2	81.2479	13,929.2	80.5403	13,929.2	81.3317	13,929.2	79.2086	13,929.2	79.9629	13,929.2	77.0479	13,929.2	78.52	13,929.2	73.5199	13,929.2	75.6372	13,929.2	70.8783	13,929.2	72.8167	13,929.2	67.3271	13,929.2	70.1463	13,929.2	64.0441	13,929.2	65.9041	13,929.2	59.6856	13,929.2	62.6322	13,929.2	55.3706	13,929.2	57.1552	13,929.2	53.5662	13,929.2	53.9864	13,929.2	49.8478	13,929.2	48.9626	13,929.2	47.4507	13,929.2	45.1643	13,929.2	48.5928	13,929.2	49.6343	13,929.2	28.0525	13,929.2	48.4687	13,929.2	44.6233	13,929.2	36.1969	13,929.2	50.2629	13,929.2	44.4056	13,929.2	40.9299	13,929.2	44.5	13,929.2	34.5286
14,419.9	81.2006	14,419.9	80.4375	14,419.9	81.3227	14,419.9	78.84	14,419.9	79.9735	14,419.9	76.5969	14,419.9	78.3903	14,419.9	72.9364	14,419.9	75.1445	14,419.9	70.9499	14,419.9	72.1171	14,419.9	67.9179	14,419.9	69.5904	14,419.9	65.5705	14,419.9	66.4147	14,419.9	62.3399	14,419.9	62.9399	14,419.9	56.9277	14,419.9	58.0597	14,419.9	54.9772	14,419.9	56.0769	14,419.9	50.9634	14,419.9	50.072	14,419.9	49.8761	14,419.9	49.0365	14,419.9	52.2652	14,419.9	50.2605	14,419.9	46.7714	14,419.9	49.6951	14,419.9	48.0959	14,419.9	43.6976	14,419.9	48.3234	14,419.9	43.6309	14,419.9	41.9746	14,419.9	46.0301	14,419.9	39.3771
14,928.2	81.1772	14,928.2	80.4774	14,928.2	81.2615	14,928.2	78.5601	14,928.2	80.0372	14,928.2	76.2866	14,928.2	78.43	14,928.2	72.7161	14,928.2	75.3364	14,928.2	70.7267	14,928.2	71.9906	14,928.2	68.8773	14,928.2	69.3584	14,928.2	66.494	14,928.2	66.9147	14,928.2	63.4306	14,928.2	62.5106	14,928.2	58.2533	14,928.2	58.7065	14,928.2	55.4907	14,928.2	55.0778	14,928.2	51.3516	14,928.2	49.8747	14,928.2	51.5991	14,928.2	50.8135	14,928.2	50.6231	14,928.2	50.4204	14,928.2	46.9003	14,928.2	48.8922	14,928.2	48.2332	14,928.2	42.4082	14,928.2	46.6724	14,928.2	41.5431	14,928.2	38.4212	14,928.2	45.1992	14,928.2	43.0309
15,455.6	80.9103	15,455.6	80.239	15,455.6	81.0533	15,455.6	78.2481	15,455.6	79.7579	15,455.6	75.9792	15,455.6	78.0743	15,455.6	72.4634	15,455.6	75.0156	15,455.6	70.0842	15,455.6	71.2944	15,455.6	69.459	15,455.6	69.0411	15,455.6	67.1361	15,455.6	66.3717	15,455.6	63.1236	15,455.6	61.5654	15,455.6	58.3857	15,455.6	57.6637	15,455.6	55.9071	15,455.6	54.0822	15,455.6	52.0475	15,455.6	49.4929	15,455.6	53.0458	15,455.6	49.3419	15,455.6	48.6947	15,455.6	46.9122	15,455.6	47.6616	15,455.6	45.2677	15,455.6	48.2203	15,455.6	43.8789	15,455.6	44.0281	15,455.6	44.6873	15,455.6	38.2699	15,455.6	42.5986	15,455.6	45.034
16,000.5	80.4371	16,000.5	79.6339	16,000.5	80.6891	16,000.5	77.7258	16,000.5	79.215	16,000.5	75.2572	16,000.5	77.2841	16,000.5	72.0328	16,000.5	74.1368	16,000.5	69.9413	16,000.5	70.2899	16,000.5	69.2023	16,000.5	68.148	16,000.5	66.9733	16,000.5	64.9166	16,000.5	62.9285	16,000.5	61.1619	16,000.5	58.45	16,000.5	56.5218	16,000.5	55.8093	16,000.5	53.3953	16,000.5	51.1902	16,000.5	48.9798	16,000.5	51.7898	16,000.5	47.7962	16,000.5	50.1482	16,000.5	46.0476	16,000.5	45.037	16,000.5	34.0521	16,000.5	47.186	16,000.5	46.0582	16,000.5	43.2645	16,000.5	43.7152	16,000.5	41.6721	16,000.5	44.137	16,000.5	44.2912
16,564.5	79.73	16,564.5	78.8104	16,564.5	80.0168	16,564.5	76.7866	16,564.5	78.4619	16,564.5	74.2448	16,564.5	76.3804	16,564.5	71.3057	16,564.5	73.1683	16,564.5	69.5422	16,564.5	69.5546	16,564.5	68.0264	16,564.5	66.73	16,564.5	65.8421	16,564.5	63.9181	16,564.5	62.1011	16,564.5	60.5224	16,564.5	57.2553	16,564.5	56.2862	16,564.5	54.0836	16,564.5	52.8236	16,564.5	50.1218	16,564.5	47.4084	16,564.5	51.2045	16,564.5	48.102	16,564.5	46.1073	16,564.5	34.3126	16,564.5	43.6285	16,564.5	38.8239	16,564.5	46.5908	16,564.5	45.1471	16,564.5	40.0769	16,564.5	38.9535	16,564.5	45.279	16,564.5	47.0588	16,564.5	44.9223
17,148.9	78.9249	17,148.9	78.0437	17,148.9	79.1513	17,148.9	76.1801	17,148.9	77.7306	17,148.9	73.6484	17,148.9	75.5805	17,148.9	70.9253	17,148.9	72.3632	17,148.9	68.0461	17,148.9	69.059	17,148.9	66.2115	17,148.9	65.4312	17,148.9	64.8435	17,148.9	63.163	17,148.9	59.5843	17,148.9	58.3394	17,148.9	54.6697	17,148.9	54.5797	17,148.9	51.2381	17,148.9	51.5042	17,148.9	48.3018	17,148.9	47.8567	17,148.9	49.7208	17,148.9	46.6799	17,148.9	43.1881	17,148.9	39.8688	17,148.9	38.0135	17,148.9	39.7281	17,148.9	44.5093	17,148.9	44.3445	17,148.9	40.2883	17,148.9	41.4853	17,148.9	47.3967	17,148.9	46.5423	17,148.9	43.7174
17,752.4	78.6652	17,752.4	77.8303	17,752.4	78.8119	17,752.4	76.3686	17,752.4	77.4097	17,752.4	73.5725	17,752.4	75.3343	17,752.4	70.5542	17,752.4	72.0972	17,752.4	66.5468	17,752.4	68.6706	17,752.4	64.0329	17,752.4	64.7987	17,752.4	62.0446	17,752.4	61.2778	17,752.4	55.7629	17,752.4	57.3372	17,752.4	50.1895	17,752.4	54.0869	17,752.4	47.3056	17,752.4	48.8383	17,752.4	43.0015	17,752.4	44.9147	17,752.4	46.9261	17,752.4	45.8012	17,752.4	39.568	17,752.4	41.7064	17,752.4	34.0341	17,752.4	41.8464	17,752.4	41.1188	17,752.4	42.6622	17,752.4	38.9412	17,752.4	42.1923	17,752.4	42.0771	17,752.4	44.5717	17,752.4	42.9561
18,379.4	79.047	18,379.4	77.9562	18,379.4	79.1622	18,379.4	76.4017	18,379.4	77.5304	18,379.4	73.3461	18,379.4	75.3618	18,379.4	69.8853	18,379.4	71.766	18,379.4	65.5368	18,379.4	67.6525	18,379.4	61.5692	18,379.4	62.6646	18,379.4	57.6203	18,379.4	58.505	18,379.4	50.342	18,379.4	55.6202	18,379.4	42.5008	18,379.4	51.5163	18,379.4	38.4261	18,379.4	45.6223	18,379.4	36.1978	18,379.4	41.3379	18,379.4	40.4345	18,379.4	43.1669	18,379.4	32.9224	18,379.4	42.217	18,379.4	26.3805	18,379.4	43.3505	18,379.4	33.2593	18,379.4	37.5719	18,379.4	33.859	18,379.4	41.7377	18,379.4	41.7667	18,379.4	41.9951	18,379.4	40.1057
19,026.9	79.0106	19,026.9	77.8923	19,026.9	79.1273	19,026.9	76.1121	19,026.9	77.3917	19,026.9	72.9266	19,026.9	75.1001	19,026.9	69.0726	19,026.9	70.9604	19,026.9	64.1684	19,026.9	65.9536	19,026.9	58.7044	19,026.9	59.9059	19,026.9	51.7857	19,026.9	57.9504	19,026.9	45.6019	19,026.9	53.4093	19,026.9	35.9555	19,026.9	50.9545	19,026.9	28.0824	19,026.9	46.3758	19,026.9	27.5108	19,026.9	41.1125	19,026.9	30.5204	19,026.9	42.0896	19,026.9	36.1871	19,026.9	39.5738	19,026.9	31.7607	19,026.9	45.1718	19,026.9	32.5176	19,026.9	34.7253	19,026.9	28.8272	19,026.9	40.0004	19,026.9	40.0022	19,026.9	42.9764	19,026.9	42.0441
19,697.8	78.5866	19,697.8	77.3981	19,697.8	78.6999	19,697.8	75.4682	19,697.8	76.9262	19,697.8	72.1967	19,697.8	74.2344	19,697.8	67.6313	19,697.8	69.412	19,697.8	61.6782	19,697.8	64.0639	19,697.8	52.4441	19,697.8	57.7638	19,697.8	42.9738	19,697.8	56.0644	19,697.8	43.9886	19,697.8	54.6545	19,697.8	43.9529	19,697.8	52.3251	19,697.8	42.5734	19,697.8	48.2708	19,697.8	37.6097	19,697.8	45.9836	19,697.8	36.0736	19,697.8	43.3385	19,697.8	33.284	19,697.8	39.5298	19,697.8	30.7516	19,697.8	43.8589	19,697.8	29.3609	19,697.8	19.2381	19,697.8	29.5428	19,697.8	40.7503	19,697.8	37.793	19,697.8	39.6638	19,697.8	40.8676
19,999.5	78.1117	19,999.5	77.2107	19,999.5	78.5677	19,999.5	75.3521	19,999.5	76.4937	19,999.5	71.6961	19,999.5	73.5491	19,999.5	66.9639	19,999.5	68.4759	19,999.5	60.5029	19,999.5	63.1034	19,999.5	47.8051	19,999.5	56.9746	19,999.5	46.7996	19,999.5	56.4626	19,999.5	46.4692	19,999.5	57.633	19,999.5	44.5006	19,999.5	52.0297	19,999.5	49.5959	19,999.5	49.5181	19,999.5	39.8839	19,999.5	48.8573	19,999.5	42.5754	19,999.5	47.3482	19,999.5	47.3646	19,999.5	34.5033	19,999.5	46.6543	19,999.5	41.7458	19,999.5	39.7014	19,999.5	40.9275	19,999.5	40.1278	19,999.5	34.6092	19,999.5	38.8769	19,999.5	36.8139	19,999.5	45.0011
