"SPL Horizontal"
"On-Axis"		"10°"		"-10°"		"20°"		"-20°"		"30°"		"-30°"		"40°"		"-40°"		"50°"		"-50°"		"60°"		"-60°"		"70°"		"-70°"		"80°"		"-80°"		"90°"		"-90°"		"100°"		"-100°"		"110°"		"-110°"		"120°"		"-120°"		"130°"		"-130°"		"140°"		"-140°"		"150°"		"-150°"		"160°"		"-160°"		"170°"		"-170°"		"180°"
"Frequency / Hz"	"Sound Pressure Level / dB (re 20 µPa/V)  [2.83  V @ 1. m]"	"Frequency / Hz"	"Sound Pressure Level / dB (re 20 µPa/V)  [2.83  V @ 1. m]"	"Frequency / Hz"	"Sound Pressure Level / dB (re 20 µPa/V)  [2.83  V @ 1. m]"	"Frequency / Hz"	"Sound Pressure Level / dB (re 20 µPa/V)  [2.83  V @ 1. m]"	"Frequency / Hz"	"Sound Pressure Level / dB (re 20 µPa/V)  [2.83  V @ 1. m]"	"Frequency / Hz"	"Sound Pressure Level / dB (re 20 µPa/V)  [2.83  V @ 1. m]"	"Frequency / Hz"	"Sound Pressure Level / dB (re 20 µPa/V)  [2.83  V @ 1. m]"	"Frequency / Hz"	"Sound Pressure Level / dB (re 20 µPa/V)  [2.83  V @ 1. m]"	"Frequency / Hz"	"Sound Pressure Level / dB (re 20 µPa/V)  [2.83  V @ 1. m]"	"Frequency / Hz"	"Sound Pressure Level / dB (re 20 µPa/V)  [2.83  V @ 1. m]"	"Frequency / Hz"	"Sound Pressure Level / dB (re 20 µPa/V)  [2.83  V @ 1. m]"	"Frequency / Hz"	"Sound Pressure Level / dB (re 20 µPa/V)  [2.83  V @ 1. m]"	"Frequency / Hz"	"Sound Pressure Level / dB (re 20 µPa/V)  [2.83  V @ 1. m]"	"Frequency / Hz"	"Sound Pressure Level / dB (re 20 µPa/V)  [2.83  V @ 1. m]"	"Frequency / Hz"	"Sound Pressure Level / dB (re 20 µPa/V)  [2.83  V @ 1. m]"	"Frequency / Hz"	"Sound Pressure Level / dB (re 20 µPa/V)  [2.83  V @ 1. m]"	"Frequency / Hz"	"Sound Pressure Level / dB (re 20 µPa/V)  [2.83  V @ 1. m]"	"Frequency / Hz"	"Sound Pressure Level / dB (re 20 µPa/V)  [2.83  V @ 1. m]"	"Frequency / Hz"	"Sound Pressure Level / dB (re 20 µPa/V)  [2.83  V @ 1. m]"	"Frequency / Hz"	"Sound Pressure Level / dB (re 20 µPa/V)  [2.83  V @ 1. m]"	"Frequency / Hz"	"Sound Pressure Level / dB (re 20 µPa/V)  [2.83  V @ 1. m]"	"Frequency / Hz"	"Sound Pressure Level / dB (re 20 µPa/V)  [2.83  V @ 1. m]"	"Frequency / Hz"	"Sound Pressure Level / dB (re 20 µPa/V)  [2.83  V @ 1. m]"	"Frequency / Hz"	"Sound Pressure Level / dB (re 20 µPa/V)  [2.83  V @ 1. m]"	"Frequency / Hz"	"Sound Pressure Level / dB (re 20 µPa/V)  [2.83  V @ 1. m]"	"Frequency / Hz"	"Sound Pressure Level / dB (re 20 µPa/V)  [2.83  V @ 1. m]"	"Frequency / Hz"	"Sound Pressure Level / dB (re 20 µPa/V)  [2.83  V @ 1. m]"	"Frequency / Hz"	"Sound Pressure Level / dB (re 20 µPa/V)  [2.83  V @ 1. m]"	"Frequency / Hz"	"Sound Pressure Level / dB (re 20 µPa/V)  [2.83  V @ 1. m]"	"Frequency / Hz"	"Sound Pressure Level / dB (re 20 µPa/V)  [2.83  V @ 1. m]"	"Frequency / Hz"	"Sound Pressure Level / dB (re 20 µPa/V)  [2.83  V @ 1. m]"	"Frequency / Hz"	"Sound Pressure Level / dB (re 20 µPa/V)  [2.83  V @ 1. m]"	"Frequency / Hz"	"Sound Pressure Level / dB (re 20 µPa/V)  [2.83  V @ 1. m]"	"Frequency / Hz"	"Sound Pressure Level / dB (re 20 µPa/V)  [2.83  V @ 1. m]"	"Frequency / Hz"	"Sound Pressure Level / dB (re 20 µPa/V)  [2.83  V @ 1. m]"	"Frequency / Hz"	"Sound Pressure Level / dB (re 20 µPa/V)  [2.83  V @ 1. m]"
20.5078	70.8084	20.5078	70.752	20.5078	70.8378	20.5078	70.6685	20.5078	70.8401	20.5078	70.5577	20.5078	70.8146	20.5078	70.4192	20.5078	70.7603	20.5078	70.2529	20.5078	70.676	20.5078	70.0593	20.5078	70.5602	20.5078	69.8398	20.5078	70.4121	20.5078	69.5972	20.5078	70.2317	20.5078	69.3364	20.5078	70.0207	20.5078	69.0652	20.5078	69.7831	20.5078	68.7945	20.5078	69.5254	20.5078	68.5381	20.5078	69.2565	20.5078	68.3113	20.5078	68.9871	20.5078	68.1287	20.5078	68.7281	20.5078	68.0021	20.5078	68.4906	20.5078	67.9383	20.5078	68.2843	20.5078	67.9388	20.5078	68.1184	20.5078	68.0008
21.9727	74.5234	21.9727	74.4641	21.9727	74.5558	21.9727	74.378	21.9727	74.5612	21.9727	74.2653	21.9727	74.5392	21.9727	74.1259	21.9727	74.4891	21.9727	73.9605	21.9727	74.41	21.9727	73.7701	21.9727	74.3012	21.9727	73.5564	21.9727	74.1624	21.9727	73.3224	21.9727	73.9937	21.9727	73.0731	21.9727	73.7966	21.9727	72.8158	21.9727	73.574	21.9727	72.5603	21.9727	73.3309	21.9727	72.319	21.9727	73.074	21.9727	72.1057	21.9727	72.8123	21.9727	71.9335	21.9727	72.5564	21.9727	71.8137	21.9727	72.3179	21.9727	71.7535	21.9727	72.1085	21.9727	71.7557	21.9727	71.9392	21.9727	71.8192
23.4375	77.5041	23.4375	77.461	23.4375	77.5216	23.4375	77.3927	23.4375	77.5134	23.4375	77.2993	23.4375	77.479	23.4375	77.1813	23.4375	77.4179	23.4375	77.0392	23.4375	77.3299	23.4375	76.8745	23.4375	77.2149	23.4375	76.6892	23.4375	77.0735	23.4375	76.4869	23.4375	76.9072	23.4375	76.2723	23.4375	76.7189	23.4375	76.052	23.4375	76.5128	23.4375	75.8342	23.4375	76.2947	23.4375	75.6286	23.4375	76.0721	23.4375	75.4451	23.4375	75.8534	23.4375	75.2933	23.4375	75.6478	23.4375	75.181	23.4375	75.4642	23.4375	75.1134	23.4375	75.3109	23.4375	75.0933	23.4375	75.1948	23.4375	75.121
24.9023	80.344	24.9023	80.3008	24.9023	80.362	24.9023	80.2325	24.9023	80.3543	24.9023	80.1395	24.9023	80.3209	24.9023	80.0224	24.9023	80.2615	24.9023	79.8822	24.9023	80.1762	24.9023	79.7205	24.9023	80.0655	24.9023	79.5399	24.9023	79.9304	24.9023	79.3441	24.9023	79.7728	24.9023	79.1384	24.9023	79.5955	24.9023	78.93	24.9023	79.4028	24.9023	78.7272	24.9023	79.2001	24.9023	78.5395	24.9023	78.9944	24.9023	78.3759	24.9023	78.7932	24.9023	78.2445	24.9023	78.6049	24.9023	78.1509	24.9023	78.4372	24.9023	78.0983	24.9023	78.2969	24.9023	78.0879	24.9023	78.1895	24.9023	78.1189
26.3672	83.1804	26.3672	83.1423	26.3672	83.1929	26.3672	83.0791	26.3672	83.1798	26.3672	82.9912	26.3672	83.141	26.3672	82.8793	26.3672	83.0766	26.3672	82.7448	26.3672	82.9871	26.3672	82.5894	26.3672	82.8731	26.3672	82.4159	26.3672	82.7363	26.3672	82.2284	26.3672	82.5788	26.3672	82.0321	26.3672	82.4038	26.3672	81.8337	26.3672	82.2158	26.3672	81.6412	26.3672	82.0203	26.3672	81.463	26.3672	81.8243	26.3672	81.3071	26.3672	81.6352	26.3672	81.1804	26.3672	81.4608	26.3672	81.0877	26.3672	81.3082	26.3672	81.0319	26.3672	81.1836	26.3672	81.0141	26.3672	81.0913	26.3672	81.0342
27.832	85.6644	27.832	85.6301	27.832	85.6737	27.832	85.5712	27.832	85.6582	27.832	85.4883	27.832	85.618	27.832	85.3823	27.832	85.5537	27.832	85.2547	27.832	85.4661	27.832	85.1077	27.832	85.3565	27.832	84.9444	27.832	85.2269	27.832	84.769	27.832	85.0798	27.832	84.5868	27.832	84.9185	27.832	84.4044	27.832	84.7474	27.832	84.229	27.832	84.5715	27.832	84.0683	27.832	84.3965	27.832	83.9292	27.832	84.2287	27.832	83.8173	27.832	84.0745	27.832	83.7366	27.832	83.9397	27.832	83.6891	27.832	83.8291	27.832	83.6753	27.832	83.7467	27.832	83.6948
29.2969	87.4886	29.2969	87.4573	29.2969	87.4944	29.2969	87.4011	29.2969	87.4747	29.2969	87.3207	29.2969	87.4299	29.2969	87.2173	29.2969	87.3609	29.2969	87.0929	29.2969	87.2689	29.2969	86.95	29.2969	87.156	29.2969	86.7919	29.2969	87.0247	29.2969	86.6231	29.2969	86.8783	29.2969	86.449	29.2969	86.7207	29.2969	86.2759	29.2969	86.5564	29.2969	86.1111	29.2969	86.3904	29.2969	85.9614	29.2969	86.2281	29.2969	85.8328	29.2969	86.0749	29.2969	85.7299	29.2969	85.9364	29.2969	85.6554	29.2969	85.8173	29.2969	85.6104	29.2969	85.7213	29.2969	85.595	29.2969	85.6513	29.2969	85.6088
30.7617	88.5264	30.7617	88.4943	30.7617	88.5332	30.7617	88.4375	30.7617	88.5147	30.7617	88.3571	30.7617	88.471	30.7617	88.2546	30.7617	88.4031	30.7617	88.1322	30.7617	88.3122	30.7617	87.9926	30.7617	88.2006	30.7617	87.8396	30.7617	88.0708	30.7617	87.6776	30.7617	87.9266	30.7617	87.5121	30.7617	87.7722	30.7617	87.3494	30.7617	87.6124	30.7617	87.196	30.7617	87.4525	30.7617	87.0582	30.7617	87.298	30.7617	86.9412	30.7617	87.1543	30.7617	86.8483	30.7617	87.0263	30.7617	86.7812	30.7617	86.9181	30.7617	86.7402	30.7617	86.8326	30.7617	86.7252	30.7617	86.7715	30.7617	86.7356
32.2266	88.7893	32.2266	88.7608	32.2266	88.793	32.2266	88.7079	32.2266	88.7718	32.2266	88.6317	32.2266	88.7262	32.2266	88.5339	32.2266	88.6573	32.2266	88.4167	32.2266	88.5664	32.2266	88.2835	32.2266	88.456	32.2266	88.1381	32.2266	88.3291	32.2266	87.9856	32.2266	88.1895	32.2266	87.8317	32.2266	88.042	32.2266	87.6826	32.2266	87.8917	32.2266	87.5443	32.2266	87.7442	32.2266	87.4224	32.2266	87.6052	32.2266	87.3207	32.2266	87.4794	32.2266	87.2414	32.2266	87.3709	32.2266	87.1847	32.2266	87.2823	32.2266	87.15	32.2266	87.2147	32.2266	87.136	32.2266	87.1681	32.2266	87.1421
33.6914	88.2462	33.6914	88.2226	33.6914	88.2485	33.6914	88.1778	33.6914	88.2295	33.6914	88.113	33.6914	88.1898	33.6914	88.0293	33.6914	88.1303	33.6914	87.9291	33.6914	88.0525	33.6914	87.8152	33.6914	87.9584	33.6914	87.6913	33.6914	87.8505	33.6914	87.5615	33.6914	87.732	33.6914	87.4305	33.6914	87.6067	33.6914	87.3033	33.6914	87.4787	33.6914	87.1844	33.6914	87.3524	33.6914	87.078	33.6914	87.2323	33.6914	86.9873	33.6914	87.1224	33.6914	86.9145	33.6914	87.0259	33.6914	86.8606	33.6914	86.9456	33.6914	86.8262	33.6914	86.8833	33.6914	86.8113	33.6914	86.8399	33.6914	86.8159
35.1562	88.1163	35.1562	88.0887	35.1562	88.1218	35.1562	88.0398	35.1562	88.1055	35.1562	87.9704	35.1562	88.0675	35.1562	87.8821	35.1562	88.0089	35.1562	87.7772	35.1562	87.931	35.1562	87.6586	35.1562	87.8356	35.1562	87.5298	35.1562	87.7254	35.1562	87.395	35.1562	87.6035	35.1562	87.2587	35.1562	87.4736	35.1562	87.1259	35.1562	87.3401	35.1562	87.0014	35.1562	87.2073	35.1562	86.8895	35.1562	87.0799	35.1562	86.7938	35.1562	86.9622	35.1562	86.7171	35.1562	86.8577	35.1562	86.6609	35.1562	86.7695	35.1562	86.626	35.1562	86.6997	35.1562	86.6126	35.1562	86.6498	35.1562	86.6206
36.6211	88.0214	36.6211	87.9943	36.6211	88.0261	36.6211	87.9452	36.6211	88.0083	36.6211	87.8751	36.6211	87.9689	36.6211	87.7857	36.6211	87.9087	36.6211	87.6793	36.6211	87.8296	36.6211	87.5591	36.6211	87.7336	36.6211	87.4288	36.6211	87.6235	36.6211	87.2929	36.6211	87.5027	36.6211	87.1562	36.6211	87.3751	36.6211	87.0238	36.6211	87.2449	36.6211	86.9006	36.6211	87.1164	36.6211	86.791	36.6211	86.9938	36.6211	86.6987	36.6211	86.8807	36.6211	86.626	36.6211	86.7803	36.6211	86.5742	36.6211	86.6949	36.6211	86.5437	36.6211	86.6264	36.6211	86.5341	36.6211	86.5762	36.6211	86.5452
38.0859	87.7624	38.0859	87.7367	38.0859	87.7649	38.0859	87.6882	38.0859	87.7445	38.0859	87.6179	38.0859	87.702	38.0859	87.5276	38.0859	87.6388	38.0859	87.4198	38.0859	87.5569	38.0859	87.2979	38.0859	87.4589	38.0859	87.1658	38.0859	87.3478	38.0859	87.0283	38.0859	87.2274	38.0859	86.8904	38.0859	87.1016	38.0859	86.7575	38.0859	86.9749	38.0859	86.6348	38.0859	86.8513	38.0859	86.5269	38.0859	86.7348	38.0859	86.4376	38.0859	86.6282	38.0859	86.3691	38.0859	86.534	38.0859	86.3224	38.0859	86.4537	38.0859	86.297	38.0859	86.3883	38.0859	86.2922	38.0859	86.339	38.0859	86.3066
39.5508	87.5233	39.5508	87.5005	39.5508	87.5216	39.5508	87.4535	39.5508	87.496	39.5508	87.3833	39.5508	87.4475	39.5508	87.2917	39.5508	87.3778	39.5508	87.1813	39.5508	87.2893	39.5508	87.0556	39.5508	87.185	39.5508	86.9188	39.5508	87.0683	39.5508	86.7757	39.5508	86.9432	39.5508	86.6319	39.5508	86.814	39.5508	86.4931	39.5508	86.6851	39.5508	86.3647	39.5508	86.5607	39.5508	86.2519	39.5508	86.4442	39.5508	86.1586	39.5508	86.3385	39.5508	86.0872	39.5508	86.2454	39.5508	86.0386	39.5508	86.1664	39.5508	86.0123	39.5508	86.1021	39.5508	86.0071	39.5508	86.0534	39.5508	86.0213
41.0156	87.3563	41.0156	87.3394	41.0156	87.3489	41.0156	87.2989	41.0156	87.3173	41.0156	87.2359	41.0156	87.2624	41.0156	87.1527	41.0156	87.1859	41.0156	87.0521	41.0156	87.0901	41.0156	86.9377	41.0156	86.9785	41.0156	86.8137	41.0156	86.8553	41.0156	86.6848	41.0156	86.7252	41.0156	86.5562	41.0156	86.5938	41.0156	86.4328	41.0156	86.4665	41.0156	86.3191	41.0156	86.3484	41.0156	86.219	41.0156	86.2435	41.0156	86.1349	41.0156	86.1547	41.0156	86.068	41.0156	86.0833	41.0156	86.0182	41.0156	86.0291	41.0156	85.9845	41.0156	85.9915	41.0156	85.9656	41.0156	85.9689	41.0156	85.9605
42.4805	87.0947	42.4805	87.0783	42.4805	87.0852	42.4805	87.0362	42.4805	87.0503	42.4805	86.9696	42.4805	86.9909	42.4805	86.8801	42.4805	86.9092	42.4805	86.7706	42.4805	86.8078	42.4805	86.6446	42.4805	86.6904	42.4805	86.5067	42.4805	86.5613	42.4805	86.3625	42.4805	86.4253	42.4805	86.2178	42.4805	86.2879	42.4805	86.0787	42.4805	86.1543	42.4805	85.9507	42.4805	86.0296	42.4805	85.8382	42.4805	85.9178	42.4805	85.7446	42.4805	85.8214	42.4805	85.6717	42.4805	85.7415	42.4805	85.6198	42.4805	85.6779	42.4805	85.5881	42.4805	85.63	42.4805	85.5748	42.4805	85.5968	42.4805	85.5782
43.9453	86.7705	43.9453	86.7594	43.9453	86.7533	43.9453	86.7205	43.9453	86.7079	43.9453	86.6549	43.9453	86.6356	43.9453	86.565	43.9453	86.5385	43.9453	86.4536	43.9453	86.4198	43.9453	86.3247	43.9453	86.2836	43.9453	86.1832	43.9453	86.1351	43.9453	86.035	43.9453	85.9803	43.9453	85.8858	43.9453	85.8255	43.9453	85.7415	43.9453	85.6772	43.9453	85.6072	43.9453	85.5414	43.9453	85.4869	43.9453	85.4229	43.9453	85.3833	43.9453	85.3248	43.9453	85.298	43.9453	85.2484	43.9453	85.2315	43.9453	85.193	43.9453	85.1833	43.9453	85.1573	43.9453	85.1524	43.9453	85.1393	43.9453	85.1378
45.4102	86.5739	45.4102	86.5594	45.4102	86.5569	45.4102	86.5145	45.4102	86.5085	45.4102	86.4409	45.4102	86.4292	45.4102	86.3411	45.4102	86.3207	45.4102	86.2185	45.4102	86.186	45.4102	86.0772	45.4102	86.0289	45.4102	85.9224	45.4102	85.8548	45.4102	85.7599	45.4102	85.6701	45.4102	85.5954	45.4102	85.4819	45.4102	85.4347	45.4102	85.2982	45.4102	85.2824	45.4102	85.127	45.4102	85.1423	45.4102	84.9753	45.4102	85.0168	45.4102	84.8491	45.4102	84.9075	45.4102	84.7519	45.4102	84.8155	45.4102	84.6849	45.4102	84.7413	45.4102	84.6472	45.4102	84.6858	45.4102	84.6366	45.4102	84.6503
46.875	86.5653	46.875	86.5417	46.875	86.5575	46.875	86.4881	46.875	86.5178	46.875	86.4061	46.875	86.4465	46.875	86.2984	46.875	86.3443	46.875	86.168	46.875	86.2134	46.875	86.019	46.875	86.0566	46.875	85.8557	46.875	85.8782	46.875	85.6832	46.875	85.6836	46.875	85.5066	46.875	85.4797	46.875	85.3311	46.875	85.2743	46.875	85.1614	46.875	85.0758	46.875	85.0014	46.875	84.8927	46.875	84.8548	46.875	84.7327	46.875	84.7244	46.875	84.602	46.875	84.613	46.875	84.5047	46.875	84.5235	46.875	84.4426	46.875	84.4587	46.875	84.4155	46.875	84.4217
48.3398	86.4326	48.3398	86.3988	48.3398	86.4371	48.3398	86.3368	48.3398	86.4116	48.3398	86.2486	48.3398	86.3562	48.3398	86.1368	48.3398	86.2717	48.3398	86.0049	48.3398	86.1599	48.3398	85.8569	48.3398	86.0232	48.3398	85.6975	48.3398	85.8654	48.3398	85.532	48.3398	85.6914	48.3398	85.3656	48.3398	85.5074	48.3398	85.2034	48.3398	85.3205	48.3398	85.0503	48.3398	85.1384	48.3398	84.91	48.3398	84.9687	48.3398	84.7857	48.3398	84.8183	48.3398	84.6798	48.3398	84.6923	48.3398	84.5942	48.3398	84.5942	48.3398	84.5305	48.3398	84.5255	48.3398	84.4901	48.3398	84.486	48.3398	84.4747
51.2695	86.2703	51.2695	86.2373	51.2695	86.2753	51.2695	86.1773	51.2695	86.2525	51.2695	86.092	51.2695	86.2028	51.2695	85.9842	51.2695	86.128	51.2695	85.8577	51.2695	86.0305	51.2695	85.717	51.2695	85.9137	51.2695	85.5675	51.2695	85.7817	51.2695	85.4153	51.2695	85.6392	51.2695	85.2665	51.2695	85.4915	51.2695	85.1268	51.2695	85.3441	51.2695	85.0013	51.2695	85.2024	51.2695	84.8937	51.2695	85.0713	51.2695	84.806	51.2695	84.9549	51.2695	84.7386	51.2695	84.856	51.2695	84.6908	51.2695	84.7764	51.2695	84.6614	51.2695	84.7166	51.2695	84.6492	51.2695	84.6761	51.2695	84.6539
52.7344	86.1934	52.7344	86.1723	52.7344	86.1859	52.7344	86.1234	52.7344	86.1499	52.7344	86.0484	52.7344	86.0865	52.7344	85.9502	52.7344	85.9975	52.7344	85.8325	52.7344	85.886	52.7344	85.6999	52.7344	85.756	52.7344	85.5578	52.7344	85.6123	52.7344	85.4121	52.7344	85.4607	52.7344	85.269	52.7344	85.3077	52.7344	85.1339	52.7344	85.16	52.7344	85.0116	52.7344	85.0236	52.7344	84.9054	52.7344	84.9039	52.7344	84.8169	52.7344	84.8044	52.7344	84.7462	52.7344	84.7268	52.7344	84.6922	52.7344	84.671	52.7344	84.6531	52.7344	84.6353	52.7344	84.6278	52.7344	84.6177	52.7344	84.6157
54.1992	85.9378	54.1992	85.9242	54.1992	85.922	54.1992	85.8824	54.1992	85.877	54.1992	85.8141	54.1992	85.8038	54.1992	85.7223	54.1992	85.7042	54.1992	85.6108	54.1992	85.5813	54.1992	85.4842	54.1992	85.4392	54.1992	85.3478	54.1992	85.2829	54.1992	85.2075	54.1992	85.1186	54.1992	85.0685	54.1992	84.9532	54.1992	84.9355	54.1992	84.7938	54.1992	84.812	54.1992	84.6476	54.1992	84.7	54.1992	84.521	54.1992	84.6004	54.1992	84.4186	54.1992	84.5133	54.1992	84.343	54.1992	84.4385	54.1992	84.2947	54.1992	84.376	54.1992	84.2719	54.1992	84.3264	54.1992	84.2717	54.1992	84.2909
55.6641	85.8708	55.6641	85.8482	55.6641	85.864	55.6641	85.7973	55.6641	85.8273	55.6641	85.7205	55.6641	85.7617	55.6641	85.6213	55.6641	85.6687	55.6641	85.5038	55.6641	85.5514	55.6641	85.3735	55.6641	85.4136	55.6641	85.2359	55.6641	85.2604	55.6641	85.0969	55.6641	85.0977	55.6641	84.962	55.6641	84.9322	55.6641	84.8354	55.6641	84.7712	55.6641	84.7197	55.6641	84.622	55.6641	84.6162	55.6641	84.491	55.6641	84.5247	55.6641	84.3836	55.6641	84.4446	55.6641	84.3031	55.6641	84.3753	55.6641	84.2502	55.6641	84.3168	55.6641	84.2236	55.6641	84.2701	55.6641	84.2204	55.6641	84.2371
58.5938	85.9525	58.5938	85.9059	58.5938	85.9674	58.5938	85.8292	58.5938	85.9503	58.5938	85.7254	58.5938	85.9021	58.5938	85.5987	58.5938	85.8249	58.5938	85.4546	58.5938	85.7219	58.5938	85.2997	58.5938	85.5973	58.5938	85.1412	58.5938	85.4559	58.5938	84.9864	58.5938	85.3037	58.5938	84.842	58.5938	85.1469	58.5938	84.7133	58.5938	84.9921	58.5938	84.6037	58.5938	84.8453	58.5938	84.5144	58.5938	84.7123	58.5938	84.4449	58.5938	84.5973	58.5938	84.3932	58.5938	84.5031	58.5938	84.3571	58.5938	84.4304	58.5938	84.3347	58.5938	84.3784	58.5938	84.325	58.5938	84.3451	58.5938	84.328
60.0586	85.9168	60.0586	85.8709	60.0586	85.9294	60.0586	85.793	60.0586	85.9087	60.0586	85.6857	60.0586	85.8561	60.0586	85.5533	60.0586	85.7743	60.0586	85.4016	60.0586	85.6671	60.0586	85.2377	60.0586	85.5393	60.0586	85.0699	60.0586	85.3967	60.0586	84.9065	60.0586	85.2458	60.0586	84.7558	60.0586	85.0935	60.0586	84.6243	60.0586	84.9465	60.0586	84.5166	60.0586	84.8108	60.0586	84.4344	60.0586	84.691	60.0586	84.3769	60.0586	84.5901	60.0586	84.3412	60.0586	84.5088	60.0586	84.3233	60.0586	84.446	60.0586	84.3193	60.0586	84.3991	60.0586	84.3259	60.0586	84.3651	60.0586	84.3412
62.9883	85.989	62.9883	85.9447	62.9883	85.9969	62.9883	85.8655	62.9883	85.9678	62.9883	85.7543	62.9883	85.9027	62.9883	85.6151	62.9883	85.8033	62.9883	85.4536	62.9883	85.673	62.9883	85.2763	62.9883	85.5163	62.9883	85.0913	62.9883	85.3392	62.9883	84.9069	62.9883	85.1491	62.9883	84.7314	62.9883	84.9547	62.9883	84.5723	62.9883	84.7649	62.9883	84.435	62.9883	84.589	62.9883	84.3224	62.9883	84.4347	62.9883	84.2348	62.9883	84.3077	62.9883	84.1702	62.9883	84.2106	62.9883	84.1249	62.9883	84.1425	62.9883	84.0952	62.9883	84.1	62.9883	84.0779	62.9883	84.0781	62.9883	84.0718
64.4531	86.1236	64.4531	86.0748	64.4531	86.1364	64.4531	85.9918	64.4531	86.1128	64.4531	85.8775	64.4531	86.0534	64.4531	85.7365	64.4531	85.9604	64.4531	85.5745	64.4531	85.8368	64.4531	85.3986	64.4531	85.687	64.4531	85.2164	64.4531	85.5165	64.4531	85.0361	64.4531	85.3319	64.4531	84.8654	64.4531	85.1407	64.4531	84.7106	64.4531	84.951	64.4531	84.5762	64.4531	84.7712	64.4531	84.4644	64.4531	84.609	64.4531	84.375	64.4531	84.4708	64.4531	84.3063	64.4531	84.3607	64.4531	84.2556	64.4531	84.28	64.4531	84.2201	64.4531	84.2273	64.4531	84.1984	64.4531	84.199	64.4531	84.1906
67.3828	86.1949	67.3828	86.1241	67.3828	86.2308	67.3828	86.02	67.3828	86.2315	67.3828	85.8861	67.3828	86.1983	67.3828	85.7273	67.3828	86.1337	67.3828	85.5508	67.3828	86.0415	67.3828	85.3651	67.3828	85.9265	67.3828	85.1796	67.3828	85.7943	67.3828	85.0042	67.3828	85.6509	67.3828	84.8479	67.3828	85.5027	67.3828	84.7176	67.3828	85.3554	67.3828	84.6172	67.3828	85.2142	67.3828	84.5474	67.3828	85.0828	67.3828	84.5061	67.3828	84.9641	67.3828	84.489	67.3828	84.8594	67.3828	84.4915	67.3828	84.7692	67.3828	84.5091	67.3828	84.6932	67.3828	84.5388	67.3828	84.6303	67.3828	84.5792
68.8477	86.3033	68.8477	86.2389	68.8477	86.3313	68.8477	86.1394	68.8477	86.3231	68.8477	86.0079	68.8477	86.2807	68.8477	85.8493	68.8477	86.2073	68.8477	85.6708	68.8477	86.1072	68.8477	85.4811	68.8477	85.9861	68.8477	85.2905	68.8477	85.8504	68.8477	85.1099	68.8477	85.7068	68.8477	84.9495	68.8477	85.5621	68.8477	84.8178	68.8477	85.4227	68.8477	84.7197	68.8477	85.2935	68.8477	84.6565	68.8477	85.178	68.8477	84.6256	68.8477	85.0779	68.8477	84.622	68.8477	84.9928	68.8477	84.6389	68.8477	84.9207	68.8477	84.6699	68.8477	84.8589	68.8477	84.7097	68.8477	84.8044	68.8477	84.7549
71.7773	86.4565	71.7773	86.3922	71.7773	86.4816	71.7773	86.2899	71.7773	86.4678	71.7773	86.1528	71.7773	86.4175	71.7773	85.9865	71.7773	86.3344	71.7773	85.7985	71.7773	86.2239	71.7773	85.5989	71.7773	86.0927	71.7773	85.3992	71.7773	85.9486	71.7773	85.2121	71.7773	85.8001	71.7773	85.0497	71.7773	85.6552	71.7773	84.9219	71.7773	85.5214	71.7773	84.8347	71.7773	85.4042	71.7773	84.789	71.7773	85.3067	71.7773	84.7807	71.7773	85.2293	71.7773	84.802	71.7773	85.1693	71.7773	84.843	71.7773	85.1219	71.7773	84.894	71.7773	85.0809	71.7773	84.9468	71.7773	85.0405	71.7773	84.9963
74.707	86.6186	74.707	86.5537	74.707	86.6417	74.707	86.4485	74.707	86.6236	74.707	86.3061	74.707	86.5664	74.707	86.1315	74.707	86.4736	74.707	85.9322	74.707	86.3507	74.707	85.7176	74.707	86.2047	74.707	85.4994	74.707	86.0438	74.707	85.2906	74.707	85.8775	74.707	85.1043	74.707	85.7154	74.707	84.9519	74.707	85.5661	74.707	84.8416	74.707	85.4365	74.707	84.7765	74.707	85.3302	74.707	84.7544	74.707	85.2469	74.707	84.7685	74.707	85.1831	74.707	84.809	74.707	85.132	74.707	84.8648	74.707	85.0861	74.707	84.9261	74.707	85.0386	74.707	84.9854
77.6367	86.7238	77.6367	86.6738	77.6367	86.7308	77.6367	86.5817	77.6367	86.6953	77.6367	86.4504	77.6367	86.6199	77.6367	86.285	77.6367	86.5087	77.6367	86.0924	77.6367	86.3675	77.6367	85.8822	77.6367	86.204	77.6367	85.6658	77.6367	86.027	77.6367	85.4564	77.6367	85.8467	77.6367	85.2671	77.6367	85.6732	77.6367	85.1098	77.6367	85.5161	77.6367	84.993	77.6367	85.383	77.6367	84.9199	77.6367	85.2779	77.6367	84.8883	77.6367	85.2012	77.6367	84.8908	77.6367	85.149	77.6367	84.9171	77.6367	85.1143	77.6367	84.9558	77.6367	85.0886	77.6367	84.9969	77.6367	85.0636	77.6367	85.0337
79.1016	86.7791	79.1016	86.736	79.1016	86.7768	79.1016	86.6487	79.1016	86.7298	79.1016	86.5201	79.1016	86.6408	79.1016	86.3555	79.1016	86.514	79.1016	86.1622	79.1016	86.3559	79.1016	85.9501	79.1016	86.1748	79.1016	85.7309	79.1016	85.9805	79.1016	85.5183	79.1016	85.7843	79.1016	85.3259	79.1016	85.5979	79.1016	85.1658	79.1016	85.4321	79.1016	85.0466	79.1016	85.2953	79.1016	84.9714	79.1016	85.1922	79.1016	84.9372	79.1016	85.1228	79.1016	84.9358	79.1016	85.0827	79.1016	84.9559	79.1016	85.0635	79.1016	84.9855	79.1016	85.0553	79.1016	85.0142	79.1016	85.0485	79.1016	85.0358
82.0312	86.8923	82.0312	86.8669	82.0312	86.8701	82.0312	86.7946	82.0312	86.8013	82.0312	86.6781	82.0312	86.6882	82.0312	86.5219	82.0312	86.5354	82.0312	86.3323	82.0312	86.349	82.0312	86.1184	82.0312	86.1372	82.0312	85.8911	82.0312	85.9105	82.0312	85.6632	82.0312	85.6809	82.0312	85.4484	82.0312	85.4617	82.0312	85.2597	82.0312	85.2659	82.0312	85.1074	82.0312	85.1044	82.0312	84.9968	82.0312	84.9841	82.0312	84.9275	82.0312	84.9064	82.0312	84.893	82.0312	84.8668	82.0312	84.8826	82.0312	84.856	82.0312	84.8842	82.0312	84.8624	82.0312	84.887	82.0312	84.8748	82.0312	84.8843
84.9609	86.9057	84.9609	86.8737	84.9609	86.8912	84.9609	86.7962	84.9609	86.8307	84.9609	86.676	84.9609	86.7262	84.9609	86.5176	84.9609	86.5811	84.9609	86.3276	84.9609	86.4007	84.9609	86.1148	84.9609	86.1918	84.9609	85.8895	84.9609	85.9634	84.9609	85.6639	84.9609	85.7264	84.9609	85.4503	84.9609	85.4934	84.9609	85.2606	84.9609	85.2778	84.9609	85.1038	84.9609	85.0923	84.9609	84.9848	84.9609	84.9464	84.9609	84.9033	84.9609	84.8447	84.9609	84.8538	84.9609	84.7856	84.9609	84.8273	84.9609	84.7616	84.9609	84.8131	84.9609	84.7617	84.9609	84.8023	84.9609	84.7741	84.9609	84.7894
87.8906	86.8127	87.8906	86.7672	87.8906	86.8119	87.8906	86.6766	87.8906	86.7653	87.8906	86.544	87.8906	86.6752	87.8906	86.3747	87.8906	86.5457	87.8906	86.1763	87.8906	86.3822	87.8906	85.9586	87.8906	86.1923	87.8906	85.7333	87.8906	85.9847	87.8906	85.5137	87.8906	85.7702	87.8906	85.3132	87.8906	85.5604	87.8906	85.144	87.8906	85.3674	87.8906	85.0148	87.8906	85.2023	87.8906	84.9288	87.8906	85.0732	87.8906	84.8835	87.8906	84.9838	87.8906	84.8707	87.8906	84.9318	87.8906	84.8785	87.8906	84.9099	87.8906	84.8944	87.8906	84.9071	87.8906	84.9081	87.8906	84.9117	87.8906	84.9138
90.8203	86.9944	90.8203	86.9519	90.8203	86.9889	90.8203	86.8626	90.8203	86.9358	90.8203	86.7296	90.8203	86.8371	90.8203	86.5581	90.8203	86.6967	90.8203	86.3555	90.8203	86.5199	90.8203	86.1316	90.8203	86.314	90.8203	85.8982	90.8203	86.088	90.8203	85.6684	90.8203	85.8526	90.8203	85.4559	90.8203	85.6203	90.8203	85.273	90.8203	85.404	90.8203	85.1283	90.8203	85.2159	90.8203	85.0254	90.8203	85.0659	90.8203	84.9617	90.8203	84.9591	90.8203	84.9293	90.8203	84.895	90.8203	84.9165	90.8203	84.8674	90.8203	84.9117	90.8203	84.8659	90.8203	84.9056	90.8203	84.8783	90.8203	84.8939
95.2148	87.0026	95.2148	86.9612	95.2148	86.9931	95.2148	86.8701	95.2148	86.9333	95.2148	86.7327	95.2148	86.826	95.2148	86.5546	95.2148	86.6759	95.2148	86.3444	95.2148	86.4895	95.2148	86.1129	95.2148	86.276	95.2148	85.874	95.2148	86.0463	95.2148	85.6431	95.2148	85.8137	95.2148	85.4363	95.2148	85.5926	95.2148	85.2677	95.2148	85.3973	95.2148	85.1469	95.2148	85.24	95.2148	85.0764	95.2148	85.1284	95.2148	85.0508	95.2148	85.0641	95.2148	85.0578	95.2148	85.0417	95.2148	85.0819	95.2148	85.0501	95.2148	85.1074	95.2148	85.0752	95.2148	85.1223	95.2148	85.1025	95.2148	85.1205
98.1445	86.9985	98.1445	86.9557	98.1445	86.9881	98.1445	86.8612	98.1445	86.9251	98.1445	86.7191	98.1445	86.812	98.1445	86.5357	98.1445	86.6536	98.1445	86.3205	98.1445	86.4567	98.1445	86.0855	98.1445	86.2302	98.1445	85.8451	98.1445	85.9854	98.1445	85.6155	98.1445	85.7358	98.1445	85.4124	98.1445	85.4966	98.1445	85.2493	98.1445	85.2835	98.1445	85.1342	98.1445	85.1108	98.1445	85.0677	98.1445	84.9884	98.1445	85.0428	98.1445	84.9196	98.1445	85.0459	98.1445	84.8999	98.1445	85.0607	98.1445	84.9182	98.1445	85.0719	98.1445	84.959	98.1445	85.0683	98.1445	85.0061	98.1445	85.0455
101.074	86.8401	101.074	86.7765	101.074	86.8438	101.074	86.6543	101.074	86.7884	101.074	86.4777	101.074	86.6772	101.074	86.2542	101.074	86.5157	101.074	85.9955	101.074	86.3113	101.074	85.7172	101.074	86.0744	101.074	85.4393	101.074	85.8177	101.074	85.1844	101.074	85.557	101.074	84.9745	101.074	85.31	101.074	84.827	101.074	85.0955	101.074	84.7499	101.074	84.9299	101.074	84.7392	101.074	84.8244	101.074	84.7799	101.074	84.7808	101.074	84.8497	101.074	84.7914	101.074	84.9244	101.074	84.8396	101.074	84.9831	101.074	84.9046	101.074	85.0118	101.074	84.9655	101.074	85.0049
105.469	87.3518	105.469	87.2987	105.469	87.3428	105.469	87.1829	105.469	87.2737	105.469	87.0058	105.469	87.1481	105.469	86.7711	105.469	86.9717	105.469	86.4854	105.469	86.7519	105.469	86.159	105.469	86.498	105.469	85.8075	105.469	86.2215	105.469	85.4519	105.469	85.936	105.469	85.1183	105.469	85.6562	105.469	84.8352	105.469	85.398	105.469	84.6271	105.469	85.1761	105.469	84.5076	105.469	85.0022	105.469	84.4738	105.469	84.8821	105.469	84.507	105.469	84.8135	105.469	84.5783	105.469	84.7857	105.469	84.6585	105.469	84.7814	105.469	84.7246	105.469	84.7804	105.469	84.7651
108.398	87.5732	108.398	87.524	108.398	87.559	108.398	87.4113	108.398	87.4831	108.398	87.2373	108.398	87.3488	108.398	87.0062	108.398	87.1616	108.398	86.725	108.398	86.9291	108.398	86.4048	108.398	86.6617	108.398	86.0607	108.398	86.3727	108.398	85.713	108.398	86.0779	108.398	85.386	108.398	85.7956	108.398	85.1056	108.398	85.5437	108.398	84.8944	108.398	85.3377	108.398	84.7656	108.398	85.187	108.398	84.7185	108.398	85.0922	108.398	84.7382	108.398	85.0449	108.398	84.8001	108.398	85.0298	108.398	84.8773	108.398	85.0279	108.398	84.9473	108.398	85.0214	108.398	84.9965
112.793	87.6274	112.793	87.5804	112.793	87.6102	112.793	87.47	112.793	87.5291	112.793	87.2984	112.793	87.3864	112.793	87.07	112.793	87.1855	112.793	86.7917	112.793	86.9325	112.793	86.4735	112.793	86.6362	112.793	86.1299	112.793	86.3092	112.793	85.7804	112.793	85.9685	112.793	85.4487	112.793	85.6355	112.793	85.1608	112.793	85.3341	112.793	84.9399	112.793	85.0873	112.793	84.7998	112.793	84.9115	112.793	84.7398	112.793	84.812	112.793	84.7442	112.793	84.7802	112.793	84.7871	112.793	84.7966	112.793	84.8399	112.793	84.8359	112.793	84.8792	112.793	84.8736	112.793	84.8911
117.188	87.6346	117.188	87.5602	117.188	87.6452	117.188	87.4238	117.188	87.5917	117.188	87.2286	117.188	87.4748	117.188	86.9799	117.188	87.2973	117.188	86.6851	117.188	87.0635	117.188	86.3553	117.188	86.7806	117.188	86.0056	117.188	86.4592	117.188	85.6558	117.188	86.114	117.188	85.3298	117.188	85.7648	117.188	85.0529	117.188	85.4356	117.188	84.8464	117.188	85.1518	117.188	84.7215	117.188	84.9349	117.188	84.6746	117.188	84.7965	117.188	84.6873	117.188	84.7336	117.188	84.7327	117.188	84.7298	117.188	84.7826	117.188	84.7597	117.188	84.8153	117.188	84.797	117.188	84.8198
120.117	87.622	120.117	87.5268	120.117	87.6512	120.117	87.3669	120.117	87.6145	120.117	87.1456	120.117	87.5136	120.117	86.8683	120.117	87.3513	120.117	86.5436	120.117	87.1323	120.117	86.184	120.117	86.8634	120.117	85.807	120.117	86.5542	120.117	85.4352	120.117	86.2182	120.117	85.0954	120.117	85.8737	120.117	84.8152	120.117	85.543	120.117	84.6171	120.117	85.2511	120.117	84.5113	120.117	85.0204	120.117	84.4915	120.117	84.8644	120.117	84.536	120.117	84.7827	120.117	84.6143	120.117	84.76	120.117	84.696	120.117	84.7709	120.117	84.7578	120.117	84.7879	120.117	84.788
124.512	87.6216	124.512	87.5275	124.512	87.6477	124.512	87.3646	124.512	87.608	124.512	87.1346	124.512	87.5068	124.512	86.8421	124.512	87.3494	124.512	86.4955	124.512	87.143	124.512	86.1083	124.512	86.8962	124.512	85.7001	124.512	86.6193	124.512	85.298	124.512	86.3253	124.512	84.9349	124.512	86.0292	124.512	84.645	124.512	85.7487	124.512	84.4558	124.512	85.5017	124.512	84.3782	124.512	85.3037	124.512	84.4018	124.512	85.1634	124.512	84.4982	124.512	85.0789	124.512	84.6307	124.512	85.0374	124.512	84.7652	124.512	85.0178	124.512	84.8769	124.512	84.9966	124.512	84.9537
128.906	87.7069	128.906	87.648	128.906	87.6947	128.906	87.5167	128.906	87.6145	128.906	87.3134	128.906	87.4707	128.906	87.0405	128.906	87.27	128.906	86.7038	128.906	87.0216	128.906	86.3136	128.906	86.7374	128.906	85.8868	128.906	86.4331	128.906	85.4495	128.906	86.1276	128.906	85.0374	128.906	85.8424	128.906	84.693	128.906	85.5988	128.906	84.4566	128.906	85.4142	128.906	84.3529	128.906	85.297	128.906	84.3796	128.906	85.2435	128.906	84.5076	128.906	85.2375	128.906	84.6919	128.906	85.2542	128.906	84.8869	128.906	85.2654	128.906	85.0563	128.906	85.2459	128.906	85.1783
133.301	87.6822	133.301	87.6502	133.301	87.6433	133.301	87.5466	133.301	87.5353	133.301	87.372	133.301	87.3612	133.301	87.1285	133.301	87.1259	133.301	86.8206	133.301	86.8369	133.301	86.4562	133.301	86.505	133.301	86.0492	133.301	86.1458	133.301	85.6212	133.301	85.7811	133.301	85.204	133.301	85.4383	133.301	84.8376	133.301	85.148	133.301	84.5636	133.301	84.9379	133.301	84.4122	133.301	84.8238	133.301	84.3893	133.301	84.8023	133.301	84.4729	133.301	84.8502	133.301	84.6208	133.301	84.9309	133.301	84.7855	133.301	85.0048	133.301	84.926	133.301	85.0393	133.301	85.0145
139.16	87.5852	139.16	87.5352	139.16	87.5608	139.16	87.4119	139.16	87.4621	139.16	87.218	139.16	87.2901	139.16	86.9577	139.16	87.0476	139.16	86.6376	139.16	86.7394	139.16	86.2679	139.16	86.3732	139.16	85.8637	139.16	85.9619	139.16	85.4472	139.16	85.5257	139.16	85.048	139.16	85.0944	139.16	84.7019	139.16	84.7064	139.16	84.4439	139.16	84.4035	139.16	84.2974	139.16	84.2188	139.16	84.2636	139.16	84.1621	139.16	84.3191	139.16	84.214	139.16	84.4232	139.16	84.3317	139.16	84.5313	139.16	84.4653	139.16	84.6055	139.16	84.5712	139.16	84.6214
143.555	87.4316	143.555	87.3622	143.555	87.4241	143.555	87.2171	143.555	87.3398	143.555	86.9996	143.555	87.1806	143.555	86.7149	143.555	86.9498	143.555	86.3707	143.555	86.6526	143.555	85.9786	143.555	86.2971	143.555	85.5551	143.555	85.8953	143.555	85.1238	143.555	85.4657	143.555	84.7162	143.555	85.0349	143.555	84.3695	143.555	84.6381	143.555	84.1191	143.555	84.3152	143.555	83.9871	143.555	84.1004	143.555	83.9716	143.555	84.0089	143.555	84.0451	143.555	84.0282	143.555	84.1639	143.555	84.1209	143.555	84.282	143.555	84.2384	143.555	84.362	143.555	84.3357	143.555	84.3815
147.949	87.3575	147.949	87.2716	147.949	87.3617	147.949	87.1054	147.949	87.2849	147.949	86.8621	147.949	87.1288	147.949	86.5474	147.949	86.8967	147.949	86.1706	147.949	86.5941	147.949	85.7454	147.949	86.229	147.949	85.2922	147.949	85.8143	147.949	84.8397	147.949	85.3699	147.949	84.4245	147.949	84.9246	147.949	84.0873	147.949	84.5162	147.949	83.8626	147.949	84.186	147.949	83.7657	147.949	83.9681	147.949	83.7843	147.949	83.8753	147.949	83.8826	147.949	83.8922	147.949	84.014	147.949	83.9804	147.949	84.135	147.949	84.0925	147.949	84.2131	147.949	84.1858	147.949	84.2307
153.809	87.6328	153.809	87.5435	153.809	87.6316	153.809	87.3639	153.809	87.5407	153.809	87.0954	153.809	87.3615	153.809	86.7414	153.809	87.0961	153.809	86.3086	153.809	86.7479	153.809	85.809	153.809	86.3228	153.809	85.2633	153.809	85.8323	153.809	84.7049	153.809	85.2976	153.809	84.1824	153.809	84.7547	153.809	83.7553	153.809	84.2555	153.809	83.4789	153.809	83.8616	153.809	83.3799	153.809	83.6233	153.809	83.4404	153.809	83.5554	153.809	83.6054	153.809	83.6275	153.809	83.8066	153.809	83.7788	153.809	83.9843	153.809	83.9443	153.809	84.0982	153.809	84.0718	153.809	84.1281
159.668	87.9462	159.668	87.869	159.668	87.9419	159.668	87.709	159.668	87.8579	159.668	87.4655	159.668	87.696	159.668	87.1392	159.668	87.4573	159.668	86.7337	159.668	87.1426	159.668	86.2564	159.668	86.7526	159.668	85.7226	159.668	86.2905	159.668	85.1596	159.668	85.7651	159.668	84.6106	159.668	85.1975	159.668	84.1349	159.668	84.6273	159.668	83.7957	159.668	84.1157	159.668	83.635	159.668	83.7353	159.668	83.649	159.668	83.5421	159.668	83.7862	159.668	83.543	159.668	83.9707	159.668	83.6875	159.668	84.1309	159.668	83.8937	159.668	84.2156	159.668	84.0829	159.668	84.1994
165.527	87.68	165.527	87.6028	165.527	87.6779	165.527	87.4445	165.527	87.5998	165.527	87.2045	165.527	87.4496	165.527	86.8845	165.527	87.2312	165.527	86.4895	165.527	86.9489	165.527	86.0292	165.527	86.6069	165.527	85.5216	165.527	86.2113	165.527	84.9966	165.527	85.7725	165.527	84.4993	165.527	85.3094	165.527	84.088	165.527	84.8537	165.527	83.8204	165.527	84.4509	165.527	83.729	165.527	84.1528	165.527	83.8012	165.527	83.999	165.527	83.9819	165.527	83.9951	165.527	84.1976	165.527	84.1055	165.527	84.3817	165.527	84.2677	165.527	84.4891	165.527	84.4158	165.527	84.4991
171.387	87.7009	171.387	87.5975	171.387	87.7188	171.387	87.4051	171.387	87.6552	171.387	87.1206	171.387	87.5143	171.387	86.7427	171.387	87.2998	171.387	86.273	171.387	87.0151	171.387	85.7201	171.387	86.6632	171.387	85.1048	171.387	86.2481	171.387	84.4689	171.387	85.7782	171.387	83.8815	171.387	85.2721	171.387	83.434	171.387	84.7651	171.387	83.2105	171.387	84.3122	171.387	83.2396	171.387	83.9793	171.387	83.4705	171.387	83.8177	171.387	83.8007	171.387	83.8349	171.387	84.1268	171.387	83.986	171.387	84.3739	171.387	84.1956	171.387	84.5023	171.387	84.3874	171.387	84.5019
177.246	87.4424	177.246	87.4042	177.246	87.3938	177.246	87.2764	177.246	87.2618	177.246	87.0559	177.246	87.0518	177.246	86.7388	177.246	86.7713	177.246	86.3202	177.246	86.4306	177.246	85.7966	177.246	86.0428	177.246	85.1717	177.246	85.6245	177.246	84.4659	177.246	85.1966	177.246	83.7323	177.246	84.7861	177.246	83.0708	177.246	84.4264	177.246	82.6187	177.246	84.1548	177.246	82.4884	177.246	84.0023	177.246	82.6833	177.246	83.9791	177.246	83.09	177.246	84.0648	177.246	83.5583	177.246	84.211	177.246	83.972	177.246	84.3562	177.246	84.267	177.246	84.4416	177.246	84.4213
183.105	87.5702	183.105	87.5329	183.105	87.5173	183.105	87.4072	183.105	87.3726	183.105	87.1936	183.105	87.1352	183.105	86.8911	183.105	86.8051	183.105	86.4964	183.105	86.3841	183.105	86.0058	183.105	85.8777	183.105	85.419	183.105	85.2987	183.105	84.7488	183.105	84.6747	183.105	84.0357	183.105	84.0572	183.105	83.3658	183.105	83.5274	183.105	82.8712	183.105	83.1832	183.105	82.6812	183.105	83.0959	183.105	82.8305	183.105	83.2611	183.105	83.2229	183.105	83.5942	183.105	83.7012	183.105	83.9774	183.105	84.1311	183.105	84.3078	183.105	84.4305	183.105	84.5155	183.105	84.5613
188.965	87.863	188.965	87.7665	188.965	87.867	188.965	87.5823	188.965	87.7742	188.965	87.3151	188.965	87.5806	188.965	86.9686	188.965	87.2817	188.965	86.5441	188.965	86.8724	188.965	86.0396	188.965	86.3475	188.965	85.4524	188.965	85.7042	188.965	84.7862	188.965	84.9489	188.965	84.0647	188.965	84.1092	188.965	83.3525	188.965	83.2543	188.965	82.7673	188.965	82.5148	188.965	82.4524	188.965	82.0656	188.965	82.4856	188.965	82.0283	188.965	82.8041	188.965	82.36	188.965	83.2453	188.965	82.8795	188.965	83.6472	188.965	83.3938	188.965	83.9001	188.965	83.7718	188.965	83.9472
196.289	88.0027	196.289	87.9059	196.289	88.0093	196.289	87.718	196.289	87.9272	196.289	87.4387	196.289	87.7575	196.289	87.0673	196.289	87.4995	196.289	86.6022	196.289	87.1492	196.289	86.0402	196.289	86.6978	196.289	85.3798	196.289	86.1331	196.289	84.6286	196.289	85.4436	196.289	83.818	196.289	84.6289	196.289	83.0249	196.289	83.7192	196.289	82.3844	196.289	82.8049	196.289	82.0521	196.289	82.0575	196.289	82.0966	196.289	81.6815	196.289	82.426	196.289	81.7622	196.289	82.8545	196.289	82.1735	196.289	83.2148	196.289	82.6881	196.289	83.4035	196.289	83.1222	196.289	83.3738
203.613	88.2428	203.613	88.1174	203.613	88.2684	203.613	87.8919	203.613	88.1961	203.613	87.568	203.613	88.0281	203.613	87.1497	203.613	87.7662	203.613	86.6419	203.613	87.4109	203.613	86.0491	203.613	86.962	203.613	85.3741	203.613	86.4185	203.613	84.6209	203.613	85.7811	203.613	83.8041	203.613	85.056	203.613	82.967	203.613	84.2631	203.613	82.2022	203.613	83.4475	203.613	81.6484	203.613	82.6906	203.613	81.4222	203.613	82.1029	203.613	81.5161	203.613	81.7796	203.613	81.7887	203.613	81.735	203.613	82.0659	203.613	81.883	203.613	82.2275	203.613	82.0879	203.613	82.2281
210.938	88.2308	210.938	88.1233	210.938	88.2614	210.938	87.9288	210.938	88.225	210.938	87.6372	210.938	88.1295	210.938	87.2386	210.938	87.9781	210.938	86.7228	210.938	87.7675	210.938	86.0804	210.938	87.4865	210.938	85.3056	210.938	87.1178	210.938	84.4035	210.938	86.6428	210.938	83.4039	210.938	86.0497	210.938	82.3853	210.938	85.3452	210.938	81.4999	210.938	84.5696	210.938	80.9531	210.938	83.8092	210.938	80.8784	210.938	83.1872	210.938	81.2053	210.938	82.8082	210.938	81.7165	210.938	82.6833	210.938	82.2084	210.938	82.7179	210.938	82.5648	210.938	82.7768	210.938	82.748
218.262	88.7135	218.262	88.7155	218.262	88.6257	218.262	88.6253	218.262	88.4622	218.262	88.4386	218.262	88.2365	218.262	88.1525	218.262	87.9653	218.262	87.7645	218.262	87.6657	218.262	87.2711	218.262	87.3507	218.262	86.6689	218.262	87.0249	218.262	85.9575	218.262	86.683	218.262	85.1488	218.262	86.3131	218.262	84.2824	218.262	85.9066	218.262	83.4464	218.262	85.4694	218.262	82.7851	218.262	85.0307	218.262	82.4503	218.262	84.64	218.262	82.4927	218.262	84.3465	218.262	82.8081	218.262	84.168	218.262	83.2199	218.262	84.0719	218.262	83.587	218.262	83.9885	218.262	83.843
225.586	89.4209	225.586	89.4405	225.586	89.2992	225.586	89.3604	225.586	89.0724	225.586	89.181	225.586	88.7385	225.586	88.8992	225.586	88.2976	225.586	88.509	225.586	87.7536	225.586	88.0032	225.586	87.1162	225.586	87.3769	225.586	86.4057	225.586	86.6349	225.586	85.6604	225.586	85.8023	225.586	84.9467	225.586	84.9426	225.586	84.3644	225.586	84.174	225.586	84.0264	225.586	83.6584	225.586	84	225.586	83.524	225.586	84.2507	225.586	83.7629	225.586	84.6543	225.586	84.2298	225.586	85.0656	225.586	84.7453	225.586	85.3719	225.586	85.1744	225.586	85.5061	225.586	85.4395
232.91	88.5229	232.91	88.4518	232.91	88.5393	232.91	88.3409	232.91	88.4883	232.91	88.2029	232.91	88.3607	232.91	88.0403	232.91	88.149	232.91	87.8386	232.91	87.8439	232.91	87.5656	232.91	87.4314	232.91	87.1781	232.91	86.8902	232.91	86.6343	232.91	86.1928	232.91	85.9096	232.91	85.3105	232.91	85.0178	232.91	84.231	232.91	84.0404	232.91	82.9999	232.91	83.1531	232.91	81.803	232.91	82.589	232.91	81.0201	232.91	82.4783	232.91	80.9869	232.91	82.7148	232.91	81.571	232.91	83.0528	232.91	82.3295	232.91	83.2766	232.91	82.9354	232.91	83.2563
241.699	88.6321	241.699	88.4398	241.699	88.6673	241.699	88.0887	241.699	88.5591	241.699	87.593	241.699	88.3308	241.699	86.99	241.699	88.0133	241.699	86.3451	241.699	87.6409	241.699	85.7472	241.699	87.2434	241.699	85.2809	241.699	86.8381	241.699	84.9818	241.699	86.4261	241.699	84.8148	241.699	85.9973	241.699	84.703	241.699	85.5399	241.699	84.5787	241.699	85.0525	241.699	84.4161	241.699	84.5531	241.699	84.2338	241.699	84.0854	241.699	84.0713	241.699	83.7138	241.699	83.954	241.699	83.4985	241.699	83.8708	241.699	83.4556	241.699	83.7848	241.699	83.5389	241.699	83.6692
250.488	89.7889	250.488	89.6866	250.488	89.7543	250.488	89.4374	250.488	89.583	250.488	89.0224	250.488	89.2666	250.488	88.4166	250.488	88.7906	250.488	87.5946	250.488	88.1398	250.488	86.5434	250.488	87.3084	250.488	85.2905	250.488	86.3184	250.488	83.9632	250.488	85.2517	250.488	82.8633	250.488	84.2852	250.488	82.3889	250.488	83.6699	250.488	82.6542	250.488	83.5711	250.488	83.347	250.488	83.9086	250.488	84.1062	250.488	84.4478	250.488	84.751	250.488	84.9883	250.488	85.2378	250.488	85.4254	250.488	85.5792	250.488	85.7222	250.488	85.7958	250.488	85.8757	250.488	85.8962
259.277	89.479	259.277	89.3965	259.277	89.5005	259.277	89.2488	259.277	89.4561	259.277	89.0182	259.277	89.3332	259.277	88.6691	259.277	89.1092	259.277	88.1465	259.277	88.748	259.277	87.3775	259.277	88.1987	259.277	86.2757	259.277	87.3979	259.277	84.7549	259.277	86.2808	259.277	82.7984	259.277	84.8171	259.277	80.765	259.277	83.1249	259.277	79.94	259.277	81.7362	259.277	81.1103	259.277	81.5449	259.277	82.9537	259.277	82.5743	259.277	84.4942	259.277	83.9355	259.277	85.5572	259.277	85.0789	259.277	86.2021	259.277	85.8778	259.277	86.5161	259.277	86.356	259.277	86.561
268.066	88.6982	268.066	88.6238	268.066	88.716	268.066	88.491	268.066	88.6778	268.066	88.2926	268.066	88.5821	268.066	88.01	268.066	88.4213	268.066	87.6066	268.066	88.1762	268.066	87.0248	268.066	87.8093	268.066	86.1868	268.066	87.2629	268.066	85.0013	268.066	86.4602	268.066	83.3831	268.066	85.3165	268.066	81.3491	268.066	83.7724	268.066	79.3987	268.066	81.9169	268.066	78.9447	268.066	80.3319	268.066	80.3608	268.066	80.137	268.066	82.197	268.066	81.346	268.066	83.655	268.066	82.8426	268.066	84.6068	268.066	84.0302	268.066	85.0879	268.066	84.7937	268.066	85.1434
276.855	87.3606	276.855	87.3602	276.855	87.3751	276.855	87.3699	276.855	87.407	276.855	87.381	276.855	87.4546	276.855	87.3689	276.855	87.5002	276.855	87.2828	276.855	87.5027	276.855	87.0438	276.855	87.3995	276.855	86.5485	276.855	87.112	276.855	85.6707	276.855	86.5512	276.855	84.2527	276.855	85.6181	276.855	82.0929	276.855	84.2106	276.855	79.0388	276.855	82.2866	276.855	76.1826	276.855	80.195	276.855	77.3675	276.855	79.3748	276.855	80.4884	276.855	80.7182	276.855	82.8632	276.855	82.664	276.855	84.3671	276.855	84.1725	276.855	85.1762	276.855	85.0743	276.855	85.4008
287.109	86.9203	287.109	86.9803	287.109	86.7754	287.109	86.9766	287.109	86.5584	287.109	86.9479	287.109	86.3219	287.109	86.9257	287.109	86.1466	287.109	86.9069	287.109	86.0969	287.109	86.8388	287.109	86.1619	287.109	86.6256	287.109	86.2368	287.109	86.1476	287.109	86.1653	287.109	85.2751	287.109	85.7881	287.109	83.8742	287.109	84.9632	287.109	81.8307	287.109	83.5715	287.109	79.2644	287.109	81.5892	287.109	77.4693	287.109	79.4878	287.109	78.4128	287.109	78.8885	287.109	80.565	287.109	80.3132	287.109	82.2801	287.109	82.0291	287.109	83.2751	287.109	83.1542	287.109	83.5645
297.363	88.6588	297.363	88.5529	297.363	88.6267	297.363	88.3192	297.363	88.4518	297.363	87.9736	297.363	88.1344	297.363	87.5377	297.363	87.6785	297.363	87.0334	297.363	87.0917	297.363	86.4705	297.363	86.3835	297.363	85.8308	297.363	85.5625	297.363	85.0576	297.363	84.6315	297.363	84.0624	297.363	83.5808	297.363	82.7558	297.363	82.3931	297.363	81.1401	297.363	81.0867	297.363	79.5862	297.363	79.8396	297.363	79.1075	297.363	79.1403	297.363	80.1381	297.363	79.4823	297.363	81.6452	297.363	80.6219	297.363	82.8069	297.363	81.894	297.363	83.3961	297.363	82.8787	297.363	83.4048
307.617	87.429	307.617	87.2043	307.617	87.5512	307.617	86.9069	307.617	87.5748	307.617	86.5961	307.617	87.5303	307.617	86.3367	307.617	87.4583	307.617	86.1556	307.617	87.3832	307.617	86.009	307.617	87.2869	307.617	85.7882	307.617	87.0992	307.617	85.3518	307.617	86.7105	307.617	84.5475	307.617	85.9885	307.617	83.2105	307.617	84.7798	307.617	81.1599	307.617	82.8846	307.617	78.336	307.617	80.0198	307.617	75.8723	307.617	76.082	307.617	76.7214	307.617	74.1747	307.617	79.2285	307.617	77.2325	307.617	81.1242	307.617	80.0783	307.617	82.1423	307.617	81.7038	307.617	82.3415
319.336	88.3818	319.336	88.1557	319.336	88.438	319.336	87.7822	319.336	88.3203	319.336	87.3012	319.336	88.0467	319.336	86.7671	319.336	87.6628	319.336	86.2362	319.336	87.2416	319.336	85.7395	319.336	86.8605	319.336	85.2525	319.336	86.5517	319.336	84.6835	319.336	86.2599	319.336	83.886	319.336	85.8503	319.336	82.6821	319.336	85.1538	319.336	80.8997	319.336	84.0026	319.336	78.5782	319.336	82.2598	319.336	76.8847	319.336	79.9757	319.336	77.8507	319.336	78.0722	319.336	80.0486	319.336	78.4091	319.336	81.7233	319.336	80.2248	319.336	82.5554	319.336	81.77	319.336	82.5634
329.59	88.1873	329.59	88.0689	329.59	88.2	329.59	87.8685	329.59	88.1068	329.59	87.6292	329.59	87.9314	329.59	87.4026	329.59	87.7179	329.59	87.2239	329.59	87.5169	329.59	87.0808	329.59	87.3612	329.59	86.8976	329.59	87.2376	329.59	86.5485	329.59	87.0747	329.59	85.8816	329.59	86.7535	329.59	84.7275	329.59	86.1287	329.59	82.8862	329.59	85.0408	329.59	80.1195	329.59	83.318	329.59	76.4795	329.59	80.8132	329.59	74.6621	329.59	77.7879	329.59	76.9696	329.59	76.3492	329.59	79.3106	329.59	77.8843	329.59	80.5041	329.59	79.7008	329.59	80.614
341.309	88.4979	341.309	88.3371	341.309	88.4351	341.309	87.9657	341.309	88.1497	341.309	87.4224	341.309	87.6588	341.309	86.793	341.309	87.0103	341.309	86.2191	341.309	86.3095	341.309	85.8504	341.309	85.7302	341.309	85.7274	341.309	85.4503	341.309	85.7161	341.309	85.5007	341.309	85.5845	341.309	85.7037	341.309	85.1107	341.309	85.7956	341.309	84.125	341.309	85.5562	341.309	82.5328	341.309	84.8431	341.309	80.4718	341.309	83.6038	341.309	78.8263	341.309	81.984	341.309	78.9275	341.309	80.5953	341.309	80.1207	341.309	80.2888	341.309	81.0448	341.309	80.8301	341.309	81.2561
353.027	88.2997	353.027	88.1848	353.027	88.237	353.027	87.8968	353.027	88.0173	353.027	87.4719	353.027	87.6787	353.027	86.9781	353.027	87.2662	353.027	86.5014	353.027	86.8191	353.027	86.1017	353.027	86.3562	353.027	85.7603	353.027	85.8645	353.027	85.3655	353.027	85.2965	353.027	84.7555	353.027	84.5775	353.027	83.7703	353.027	83.625	353.027	82.2869	353.027	82.3881	353.027	80.2931	353.027	80.9469	353.027	78.2014	353.027	79.7056	353.027	77.3287	353.027	79.341	353.027	78.3116	353.027	79.9363	353.027	79.8143	353.027	80.7985	353.027	80.9205	353.027	81.3712	353.027	81.4362
366.211	88.7686	366.211	88.5528	366.211	88.7428	366.211	88.0809	366.211	88.4988	366.211	87.3508	366.211	88.0693	366.211	86.3828	366.211	87.5036	366.211	85.2463	366.211	86.883	366.211	84.1081	366.211	86.3208	366.211	83.2312	366.211	85.9127	366.211	82.778	366.211	85.6468	366.211	82.572	366.211	85.3715	366.211	82.2419	366.211	84.8645	366.211	81.547	366.211	83.9156	366.211	80.6085	366.211	82.3839	366.211	80.0947	366.211	80.3794	366.211	80.6379	366.211	78.8696	366.211	81.759	366.211	79.3148	366.211	82.682	366.211	80.8897	366.211	83.0979	366.211	82.2183	366.211	82.9519
379.395	88.3471	379.395	88.188	379.395	88.3444	379.395	87.8693	379.395	88.1863	379.395	87.4033	379.395	87.8853	379.395	86.8153	379.395	87.4599	379.395	86.143	379.395	86.9348	379.395	85.4286	379.395	86.3465	379.395	84.7017	379.395	85.7426	379.395	83.9562	379.395	85.156	379.395	83.1266	379.395	84.5573	379.395	82.06	379.395	83.826	379.395	80.4853	379.395	82.7739	379.395	77.9934	379.395	81.1986	379.395	74.3243	379.395	78.9918	379.395	72.6902	379.395	76.6409	379.395	76.1002	379.395	76.14	379.395	78.9689	379.395	77.8743	379.395	80.3632	379.395	79.6401	379.395	80.532
392.578	87.9923	392.578	87.8115	392.578	87.9837	392.578	87.465	392.578	87.7644	392.578	86.9864	392.578	87.3301	392.578	86.4423	392.578	86.7271	392.578	85.9482	392.578	86.0818	392.578	85.6277	392.578	85.5736	392.578	85.4991	392.578	85.3051	392.578	85.4068	392.578	85.1861	392.578	85.0955	392.578	84.9951	392.578	84.3222	392.578	84.5126	392.578	82.8993	392.578	83.5731	392.578	80.7215	392.578	82.0647	392.578	78.0006	392.578	80.0066	392.578	76.1791	392.578	77.9772	392.578	76.9588	392.578	77.5024	392.578	78.6978	392.578	78.6702	392.578	79.9162	392.578	79.8562	392.578	80.3125
405.762	88.4923	405.762	88.1451	405.762	88.5393	405.762	87.5018	405.762	88.2956	405.762	86.5916	405.762	87.778	405.762	85.4937	405.762	87.007	405.762	84.3812	405.762	86.0204	405.762	83.5446	405.762	84.9263	405.762	83.2404	405.762	83.9868	405.762	83.385	405.762	83.5542	405.762	83.5716	405.762	83.6713	405.762	83.3827	405.762	83.9176	405.762	82.5154	405.762	83.8159	405.762	80.7609	405.762	83.0765	405.762	78.2273	405.762	81.5986	405.762	76.5878	405.762	79.6547	405.762	77.8577	405.762	78.4717	405.762	79.7792	405.762	79.1179	405.762	80.8808	405.762	80.3558	405.762	81.0439
420.41	88.135	420.41	87.9768	420.41	88.097	420.41	87.6003	420.41	87.8877	420.41	86.9943	420.41	87.5282	420.41	86.1626	420.41	87.0365	420.41	85.1317	420.41	86.4345	420.41	83.9744	420.41	85.7493	420.41	82.8432	420.41	85.0037	420.41	81.9402	420.41	84.2011	420.41	81.337	420.41	83.3174	420.41	80.8212	420.41	82.2896	420.41	80.0346	420.41	80.9856	420.41	78.7423	420.41	79.1686	420.41	77.172	420.41	76.5557	420.41	76.4621	420.41	73.6809	420.41	77.4011	420.41	74.0755	420.41	78.8448	420.41	76.9421	420.41	79.7858	420.41	79.0047	420.41	79.8955
435.059	87.5642	435.059	87.5584	435.059	87.4035	435.059	87.3485	435.059	87.1111	435.059	86.9009	435.059	86.7013	435.059	86.187	435.059	86.1603	435.059	85.1932	435.059	85.4764	435.059	83.9538	435.059	84.7095	435.059	82.6038	435.059	84.0375	435.059	81.3914	435.059	83.6508	435.059	80.4923	435.059	83.508	435.059	79.7078	435.059	83.3085	435.059	78.5108	435.059	82.7184	435.059	76.3684	435.059	81.5143	435.059	73.5816	435.059	79.6655	435.059	73.9908	435.059	77.6768	435.059	77.2174	435.059	77.0017	435.059	79.5019	435.059	78.089	435.059	80.4858	435.059	79.5162	435.059	80.4149
451.172	87.6851	451.172	87.4008	451.172	87.6434	451.172	86.8286	451.172	87.2999	451.172	86.0815	451.172	86.7286	451.172	85.3413	451.172	86.0369	451.172	84.7942	451.172	85.3349	451.172	84.5186	451.172	84.705	451.172	84.4288	451.172	84.2159	451.172	84.3241	451.172	83.9519	451.172	83.9624	451.172	83.9348	451.172	83.0979	451.172	83.98	451.172	81.4867	451.172	83.7219	451.172	78.874	451.172	82.7513	451.172	75.1291	451.172	80.6135	451.172	72.064	451.172	76.6072	451.172	73.8946	451.172	70.8468	451.172	76.7815	451.172	73.5105	451.172	78.4821	451.172	77.3527	451.172	78.7774
465.82	87.8436	465.82	87.5878	465.82	87.916	465.82	87.1237	465.82	87.7746	465.82	86.3864	465.82	87.3402	465.82	85.2999	465.82	86.5171	465.82	83.8414	465.82	85.252	465.82	82.2078	465.82	83.6542	465.82	81.0594	465.82	82.1963	465.82	81.0656	465.82	81.5565	465.82	81.7752	465.82	81.6805	465.82	82.2574	465.82	81.8487	465.82	81.9298	465.82	81.595	465.82	80.363	465.82	80.8239	465.82	76.9191	465.82	79.6927	465.82	70.841	465.82	78.6325	465.82	71.3774	465.82	78.1803	465.82	76.0071	465.82	78.3917	465.82	78.1607	465.82	78.7887	465.82	78.8659
483.398	87.5748	483.398	87.5372	483.398	87.455	483.398	87.3099	483.398	87.2009	483.398	86.8522	483.398	86.8093	483.398	86.0994	483.398	86.2456	483.398	84.9637	483.398	85.465	483.398	83.3943	483.398	84.4404	483.398	81.5544	483.398	83.1879	483.398	80.0749	483.398	81.8311	483.398	79.5843	483.398	80.7388	483.398	79.5916	483.398	80.3943	483.398	79.2178	483.398	80.6394	483.398	78.0783	483.398	80.6572	483.398	76.2347	483.398	79.7274	483.398	74.3952	483.398	77.4067	483.398	74.2767	483.398	74.2839	483.398	76.0214	483.398	74.5954	483.398	77.669	483.398	77.0591	483.398	78.1494
499.512	87.742	499.512	87.5527	499.512	87.6953	499.512	87.1444	499.512	87.4313	499.512	86.5692	499.512	86.9787	499.512	85.8747	499.512	86.3398	499.512	85.0498	499.512	85.4824	499.512	84.0271	499.512	84.3885	499.512	82.7972	499.512	83.1603	499.512	81.6111	499.512	82.1078	499.512	80.9753	499.512	81.5483	499.512	80.9255	499.512	81.3282	499.512	80.6981	499.512	80.8976	499.512	79.5022	499.512	79.7685	499.512	76.9489	499.512	77.6685	499.512	74.1579	499.512	74.8458	499.512	74.8504	499.512	73.3381	499.512	76.8826	499.512	74.6225	499.512	77.7951	499.512	76.4005	499.512	77.5483
517.09	88.4999	517.09	88.277	517.09	88.5206	517.09	87.8579	517.09	88.3164	517.09	87.2281	517.09	87.8718	517.09	86.3738	517.09	87.1926	517.09	85.311	517.09	86.2955	517.09	84.1084	517.09	85.2021	517.09	82.9219	517.09	84.0036	517.09	82.0437	517.09	82.9909	517.09	81.7269	517.09	82.5445	517.09	81.7072	517.09	82.5822	517.09	81.2823	517.09	82.5273	517.09	79.7649	517.09	81.8497	517.09	76.3636	517.09	80.1943	517.09	69.8586	517.09	77.3354	517.09	71.3778	517.09	74.5241	517.09	76.9662	517.09	76.0942	517.09	79.518	517.09	78.8565	517.09	80.0608
536.133	88.6107	536.133	88.4916	536.133	88.5192	536.133	88.1469	536.133	88.2393	536.133	87.5609	536.133	87.7831	536.133	86.6982	536.133	87.1209	536.133	85.4926	536.133	86.185	536.133	83.8918	536.133	84.9252	536.133	82.039	536.133	83.3819	536.133	80.561	536.133	81.778	536.133	80.1507	536.133	80.6303	536.133	80.3789	536.133	80.4219	536.133	80.3788	536.133	80.7679	536.133	79.6987	536.133	80.7681	536.133	78.0554	536.133	79.7542	536.133	75.4002	536.133	77.272	536.133	73.8714	536.133	73.466	536.133	75.6986	536.133	72.6884	536.133	77.3513	536.133	75.6172	536.133	77.3704
555.176	88.11	555.176	87.9978	555.176	88.0285	555.176	87.6913	555.176	87.7807	555.176	87.2387	555.176	87.3847	555.176	86.6809	555.176	86.8399	555.176	85.9506	555.176	86.1154	555.176	84.846	555.176	85.1123	555.176	83.0911	555.176	83.6506	555.176	80.4791	555.176	81.5686	555.176	77.7156	555.176	79.1546	555.176	77.4768	555.176	77.9541	555.176	78.6986	555.176	78.5746	555.176	78.6077	555.176	78.9976	555.176	76.2836	555.176	77.9859	555.176	70.8298	555.176	75.1837	555.176	67.0394	555.176	72.357	555.176	71.9607	555.176	73.7386	555.176	74.5746	555.176	75.4203	555.176	75.6126
574.219	88.5121	574.219	88.3191	574.219	88.5297	574.219	87.9983	574.219	88.333	574.219	87.5624	574.219	87.9262	574.219	86.9803	574.219	87.3443	574.219	86.198	574.219	86.5835	574.219	85.1377	574.219	85.5461	574.219	83.7061	574.219	84.1128	574.219	81.9638	574.219	82.3576	574.219	80.4848	574.219	80.8416	574.219	79.9736	574.219	80.3138	574.219	79.89	574.219	80.442	574.219	79.1448	574.219	80.2344	574.219	77.0353	574.219	79.124	574.219	73.0343	574.219	76.9229	574.219	70.9102	574.219	73.8504	574.219	75.4102	574.219	72.8007	574.219	78.068	574.219	75.8275	574.219	78.098
594.727	88.5595	594.727	88.3603	594.727	88.5057	594.727	87.9409	594.727	88.1611	594.727	87.3273	594.727	87.5595	594.727	86.5751	594.727	86.8428	594.727	85.7262	594.727	86.1135	594.727	84.7053	594.727	85.2759	594.727	83.3558	594.727	84.1889	594.727	81.6746	594.727	82.8557	594.727	80.0574	594.727	81.3075	594.727	79.0427	594.727	79.5262	594.727	78.4861	594.727	78.086	594.727	77.8159	594.727	78.1792	594.727	76.606	594.727	78.7837	594.727	74.5523	594.727	77.9843	594.727	71.947	594.727	75.0414	594.727	71.019	594.727	72.3223	594.727	72.6478	594.727	73.473	594.727	73.9269
615.234	88.6217	615.234	88.3668	615.234	88.5608	615.234	87.7877	615.234	88.2227	615.234	86.9836	615.234	87.6085	615.234	86.1653	615.234	86.7214	615.234	85.4958	615.234	85.7073	615.234	84.8865	615.234	84.8341	615.234	84.039	615.234	84.0915	615.234	82.648	615.234	83.059	615.234	80.714	615.234	81.5028	615.234	79.3076	615.234	80.0716	615.234	79.5513	615.234	79.6738	615.234	79.71	615.234	79.4878	615.234	77.8742	615.234	78.2185	615.234	72.0233	615.234	75.1688	615.234	59.0373	615.234	71.2106	615.234	72.7485	615.234	72.5189	615.234	76.2286	615.234	75.5214	615.234	76.8319
637.207	89.1518	637.207	88.8262	637.207	89.1653	637.207	88.2818	637.207	88.7838	637.207	87.5927	637.207	88.0388	637.207	86.8298	637.207	87.118	637.207	85.9897	637.207	86.1562	637.207	84.8805	637.207	84.994	637.207	83.2142	637.207	83.4431	637.207	80.9182	637.207	81.8238	637.207	78.717	637.207	80.7506	637.207	78.0097	637.207	79.9635	637.207	78.3294	637.207	79.0711	637.207	78.208	637.207	78.5572	637.207	76.8227	637.207	77.9282	637.207	74.0525	637.207	75.3059	637.207	73.5502	637.207	68.0763	637.207	76.2199	637.207	63.9722	637.207	77.2396	637.207	71.8692	637.207	75.7693
659.18	88.3055	659.18	88.2935	659.18	88.0472	659.18	87.9439	659.18	87.6028	659.18	87.188	659.18	87.0412	659.18	85.9667	659.18	86.3869	659.18	84.397	659.18	85.6513	659.18	82.9886	659.18	84.8221	659.18	82.2036	659.18	83.725	659.18	81.5295	659.18	81.9305	659.18	79.9634	659.18	79.0147	659.18	77.2192	659.18	76.2146	659.18	76.3831	659.18	76.8299	659.18	78.4621	659.18	77.9358	659.18	79.5721	659.18	77.3976	659.18	78.8999	659.18	75.4184	659.18	75.7524	659.18	73.649	659.18	67.5925	659.18	73.4013	659.18	66.6292	659.18	73.0419	659.18	71.6249
682.617	88.7647	682.617	88.3838	682.617	88.8656	682.617	87.8364	682.617	88.5255	682.617	87.1564	682.617	87.6291	682.617	86.3457	682.617	86.3257	682.617	85.4108	682.617	85.1787	682.617	84.264	682.617	84.5356	682.617	82.8784	682.617	83.9088	682.617	81.6502	682.617	82.81	682.617	80.6107	682.617	81.1628	682.617	78.8193	682.617	78.9914	682.617	76.3796	682.617	77.1962	682.617	76.8046	682.617	78.193	682.617	77.9598	682.617	79.7743	682.617	75.9188	682.617	79.2574	682.617	70.461	682.617	75.3831	682.617	74.7502	682.617	66.2324	682.617	77.9297	682.617	72.3091	682.617	76.9949
707.52	88.8838	707.52	88.3154	707.52	89.0717	707.52	87.5603	707.52	88.7066	707.52	86.7364	707.52	87.7173	707.52	85.8501	707.52	86.2861	707.52	84.8721	707.52	84.8927	707.52	83.7509	707.52	83.7733	707.52	82.3979	707.52	82.5934	707.52	80.7811	707.52	81.162	707.52	79.1695	707.52	79.6506	707.52	78.1976	707.52	78.1452	707.52	77.6369	707.52	77.3614	707.52	75.9252	707.52	77.7567	707.52	71.2075	707.52	77.4664	707.52	66.0346	707.52	74.8064	707.52	69.2255	707.52	71.1131	707.52	70.7374	707.52	74.5308	707.52	71.8795	707.52	76.3058	707.52	74.5672
732.422	88.0833	732.422	88.2048	732.422	87.7069	732.422	87.8084	732.422	87.3085	732.422	86.8387	732.422	86.9154	732.422	85.5649	732.422	86.3833	732.422	84.3552	732.422	85.5196	732.422	83.1564	732.422	84.2487	732.422	81.742	732.422	82.7699	732.422	80.3657	732.422	81.269	732.422	79.1972	732.422	79.5841	732.422	77.8428	732.422	77.9029	732.422	76.3548	732.422	76.5432	732.422	74.3096	732.422	74.3472	732.422	71.5839	732.422	71.4302	732.422	72.6412	732.422	73.9802	732.422	73.34	732.422	76.6763	732.422	70.9597	732.422	76.5622	732.422	69.8417	732.422	73.7797	732.422	70.8336
757.324	88.7662	757.324	88.3233	757.324	88.7026	757.324	87.3158	757.324	88.2444	757.324	86.1009	757.324	87.2629	757.324	85.0033	757.324	85.6374	757.324	83.7693	757.324	83.9312	757.324	82.5554	757.324	82.8265	757.324	82.0199	757.324	81.792	757.324	81.3208	757.324	80.8105	757.324	79.1073	757.324	80.7277	757.324	75.6684	757.324	80.7259	757.324	75.0029	757.324	78.8345	757.324	76.7002	757.324	74.4901	757.324	77.9611	757.324	74.8471	757.324	77.9364	757.324	76.0093	757.324	75.8157	757.324	73.3561	757.324	77.1748	757.324	63.9409	757.324	80.3041	757.324	71.0799	757.324	78.8625
785.156	88.5694	785.156	87.8579	785.156	88.9758	785.156	87.1546	785.156	88.606	785.156	86.3926	785.156	87.2848	785.156	85.2163	785.156	85.7725	785.156	83.7182	785.156	84.9203	785.156	82.6415	785.156	83.9467	785.156	81.8964	785.156	82.477	785.156	80.7605	785.156	81.539	785.156	78.9301	785.156	80.9156	785.156	76.5671	785.156	79.1522	785.156	75.1067	785.156	76.0165	785.156	74.3488	785.156	75.1067	785.156	71.7024	785.156	75.3188	785.156	66.9467	785.156	71.4143	785.156	60.2989	785.156	63.6573	785.156	69.1744	785.156	71.6118	785.156	76.0168	785.156	76.5313	785.156	78.1668
811.523	89.103	811.523	88.8882	811.523	88.7448	811.523	88.1509	811.523	88.004	811.523	86.8579	811.523	87.3347	811.523	85.1087	811.523	86.6288	811.523	83.438	811.523	85.2166	811.523	82.1207	811.523	83.1538	811.523	80.7034	811.523	81.8008	811.523	79.5767	811.523	81.2319	811.523	79.2059	811.523	80.1712	811.523	78.5078	811.523	78.5398	811.523	77.046	811.523	77.3899	811.523	75.51	811.523	77.0723	811.523	73.1496	811.523	77.2333	811.523	66.5395	811.523	77.0882	811.523	54.5143	811.523	74.2213	811.523	64.9195	811.523	71.0212	811.523	67.8497	811.523	72.8596	811.523	71.4369
840.82	88.5151	840.82	88.4461	840.82	88.248	840.82	88.0118	840.82	87.7014	840.82	87.2044	840.82	86.8452	840.82	85.9788	840.82	85.5626	840.82	84.4652	840.82	83.9542	840.82	83.0013	840.82	82.571	840.82	81.6053	840.82	81.3596	840.82	80.0369	840.82	79.5018	840.82	78.2214	840.82	77.744	840.82	76.16	840.82	77.8215	840.82	74.113	840.82	78.1782	840.82	73.6838	840.82	77.6762	840.82	73.1976	840.82	76.2193	840.82	70.1796	840.82	74.1306	840.82	67.4405	840.82	74.6198	840.82	69.8339	840.82	75.9513	840.82	71.9271	840.82	74.4754	840.82	72.4426
870.117	87.9661	870.117	88.2673	870.117	87.7588	870.117	88.0894	870.117	87.6393	870.117	87.0701	870.117	87.3487	870.117	85.6783	870.117	86.5817	870.117	84.7332	870.117	85.0203	870.117	83.9363	870.117	82.8848	870.117	81.9316	870.117	80.9269	870.117	78.0744	870.117	79.3314	870.117	75.3916	870.117	77.8375	870.117	75.1336	870.117	76.9011	870.117	75.4895	870.117	76.9336	870.117	76.7609	870.117	76.3552	870.117	76.4045	870.117	76.2451	870.117	73.7717	870.117	77.4647	870.117	71.1024	870.117	76.0632	870.117	69.7117	870.117	70.9417	870.117	76.1771	870.117	62.6472	870.117	74.5901
900.879	88.2786	900.879	88.2349	900.879	88.2863	900.879	87.8618	900.879	88.079	900.879	86.8958	900.879	87.2675	900.879	85.5205	900.879	85.5821	900.879	83.9274	900.879	83.3295	900.879	82.2216	900.879	81.3256	900.879	80.2463	900.879	79.5701	900.879	77.3147	900.879	77.4003	900.879	75.1954	900.879	75.1152	900.879	75.6423	900.879	74.7374	900.879	73.7739	900.879	74.8479	900.879	72.128	900.879	73.8023	900.879	75.4109	900.879	73.6385	900.879	74.9575	900.879	73.1079	900.879	72.3034	900.879	70.8634	900.879	65.927	900.879	69.0019	900.879	73.6772	900.879	71.2668	900.879	74.8571
933.105	88.2501	933.105	87.8429	933.105	88.3673	933.105	87.6056	933.105	87.6674	933.105	87.3183	933.105	86.2582	933.105	86.584	933.105	84.8198	933.105	85.4033	933.105	83.4303	933.105	84.0314	933.105	81.5605	933.105	81.8641	933.105	79.8213	933.105	78.9917	933.105	78.3868	933.105	77.0867	933.105	75.6288	933.105	74.8079	933.105	74.3245	933.105	74.5004	933.105	75.622	933.105	75.3436	933.105	74.4387	933.105	73.9551	933.105	75.4347	933.105	69.6457	933.105	74.3809	933.105	66.1768	933.105	62.9484	933.105	67.6854	933.105	63.8548	933.105	77.8526	933.105	69.6255	933.105	76.8435
965.332	88.5757	965.332	88.2184	965.332	88.3992	965.332	87.4927	965.332	87.4411	965.332	86.4247	965.332	86.1342	965.332	84.9374	965.332	85.1973	965.332	82.9134	965.332	83.8661	965.332	81.2288	965.332	81.3782	965.332	80.6285	965.332	79.351	965.332	79.7249	965.332	78.1957	965.332	77.0626	965.332	76.8987	965.332	74.7651	965.332	76.7848	965.332	75.876	965.332	75.4487	965.332	74.5652	965.332	74.1111	965.332	69.8448	965.332	74.9189	965.332	63.4095	965.332	70.7319	965.332	65.6562	965.332	53.6429	965.332	61.4752	965.332	70.0303	965.332	72.9171	965.332	71.6558	965.332	72.3851
1,000.49	88.8017	1,000.49	88.4335	1,000.49	88.6049	1,000.49	87.5773	1,000.49	88.0966	1,000.49	86.6191	1,000.49	87.2624	1,000.49	85.4252	1,000.49	86.0476	1,000.49	83.9263	1,000.49	84.4221	1,000.49	82.8763	1,000.49	82.3281	1,000.49	81.6779	1,000.49	80.4122	1,000.49	79.7665	1,000.49	79.7216	1,000.49	78.6178	1,000.49	78.3879	1,000.49	75.6047	1,000.49	76.4236	1,000.49	73.6733	1,000.49	75.9012	1,000.49	74.4037	1,000.49	72.8891	1,000.49	71.7407	1,000.49	72.5112	1,000.49	71.667	1,000.49	74.0844	1,000.49	65.5824	1,000.49	68.5963	1,000.49	69.6017	1,000.49	62.9389	1,000.49	71.6088	1,000.49	70.7896	1,000.49	71.3593
1,035.64	87.7111	1,035.64	87.7025	1,035.64	87.8716	1,035.64	87.4353	1,035.64	87.4281	1,035.64	86.2357	1,035.64	86.2768	1,035.64	84.8151	1,035.64	85.0464	1,035.64	83.5045	1,035.64	83.7684	1,035.64	81.139	1,035.64	82.0986	1,035.64	79.3715	1,035.64	80.2826	1,035.64	80.1169	1,035.64	78.3065	1,035.64	78.4994	1,035.64	76.486	1,035.64	75.1221	1,035.64	76.2863	1,035.64	72.2612	1,035.64	74.5675	1,035.64	65.3279	1,035.64	73.3928	1,035.64	73.4151	1,035.64	70.5242	1,035.64	75.199	1,035.64	70.8918	1,035.64	74.5073	1,035.64	68.7809	1,035.64	68.2889	1,035.64	71.2524	1,035.64	74.9991	1,035.64	72.6619	1,035.64	75.9618
1,072.27	88.2365	1,072.27	87.8194	1,072.27	87.7446	1,072.27	86.9786	1,072.27	87.1439	1,072.27	86.309	1,072.27	86.8816	1,072.27	85.6138	1,072.27	86.0833	1,072.27	84.3127	1,072.27	84.6333	1,072.27	82.5941	1,072.27	83.4588	1,072.27	81.2264	1,072.27	82.0038	1,072.27	78.6168	1,072.27	79.5826	1,072.27	77.0853	1,072.27	78.4822	1,072.27	76.6121	1,072.27	76.939	1,072.27	74.2273	1,072.27	74.9298	1,072.27	74.0913	1,072.27	71.8515	1,072.27	68.7944	1,072.27	68.9469	1,072.27	67.0974	1,072.27	70.243	1,072.27	64.6941	1,072.27	70.7532	1,072.27	58.9072	1,072.27	70.1197	1,072.27	66.9575	1,072.27	73.7871	1,072.27	73.5418
1,108.89	88.1649	1,108.89	87.7845	1,108.89	88.3241	1,108.89	87.1325	1,108.89	87.8735	1,108.89	86.2606	1,108.89	86.782	1,108.89	85.1703	1,108.89	85.8617	1,108.89	83.7664	1,108.89	85.2449	1,108.89	82.9001	1,108.89	83.7516	1,108.89	81.3043	1,108.89	81.5757	1,108.89	78.6367	1,108.89	79.4512	1,108.89	78.2411	1,108.89	77.0438	1,108.89	76.9308	1,108.89	75.1821	1,108.89	74.01	1,108.89	73.7579	1,108.89	65.2679	1,108.89	73.4783	1,108.89	66.8104	1,108.89	70.3871	1,108.89	70.4288	1,108.89	68.5534	1,108.89	72.8718	1,108.89	64.5329	1,108.89	67.8137	1,108.89	67.7324	1,108.89	72.5006	1,108.89	66.4174	1,108.89	73.6888
1,148.44	87.9076	1,148.44	87.3952	1,148.44	87.9827	1,148.44	86.6905	1,148.44	87.6494	1,148.44	85.612	1,148.44	86.9013	1,148.44	84.3462	1,148.44	85.3902	1,148.44	83.0953	1,148.44	83.6714	1,148.44	81.6918	1,148.44	82.6893	1,148.44	80.3578	1,148.44	81.5456	1,148.44	79.0229	1,148.44	80.0191	1,148.44	75.8782	1,148.44	79.3134	1,148.44	74.6583	1,148.44	78.3312	1,148.44	75.052	1,148.44	75.6346	1,148.44	73.5773	1,148.44	72.1848	1,148.44	69.6534	1,148.44	71.3295	1,148.44	71.5457	1,148.44	69.1427	1,148.44	58.1358	1,148.44	62.785	1,148.44	67.3923	1,148.44	71.7711	1,148.44	72.2769	1,148.44	69.4708	1,148.44	75.7836
1,189.45	88.4264	1,189.45	88.0288	1,189.45	88.1481	1,189.45	86.9734	1,189.45	87.678	1,189.45	85.6822	1,189.45	86.5633	1,189.45	83.8538	1,189.45	85.1556	1,189.45	82.5247	1,189.45	83.9517	1,189.45	80.7964	1,189.45	82.301	1,189.45	78.2527	1,189.45	80.9424	1,189.45	76.6641	1,189.45	78.8081	1,189.45	75.301	1,189.45	75.5212	1,189.45	74.7032	1,189.45	73.8053	1,189.45	71.7483	1,189.45	74.1855	1,189.45	67.6084	1,189.45	73.5029	1,189.45	60.396	1,189.45	68.817	1,189.45	65.0839	1,189.45	68.215	1,189.45	69.9056	1,189.45	67.0031	1,189.45	68.1843	1,189.45	65.7057	1,189.45	64.1839	1,189.45	64.7231	1,189.45	66.4534
1,230.47	88.8877	1,230.47	88.6896	1,230.47	88.8709	1,230.47	88.0646	1,230.47	88.2019	1,230.47	86.7269	1,230.47	87.3238	1,230.47	85.3901	1,230.47	86.351	1,230.47	83.6871	1,230.47	84.7703	1,230.47	82.2475	1,230.47	83.3109	1,230.47	81.4465	1,230.47	81.6146	1,230.47	78.1019	1,230.47	79.7592	1,230.47	75.33	1,230.47	79.0904	1,230.47	73.1438	1,230.47	77.1053	1,230.47	73.4253	1,230.47	74.8456	1,230.47	66.9924	1,230.47	71.0602	1,230.47	67.1022	1,230.47	70.1401	1,230.47	63.6318	1,230.47	66.5208	1,230.47	59.8112	1,230.47	67.7453	1,230.47	67.165	1,230.47	62.2456	1,230.47	70.1398	1,230.47	68.8221	1,230.47	70.3717
1,274.41	89.0002	1,274.41	88.5327	1,274.41	88.9102	1,274.41	88.0144	1,274.41	88.3199	1,274.41	86.8936	1,274.41	87.4462	1,274.41	85.407	1,274.41	86.3335	1,274.41	83.9328	1,274.41	84.9475	1,274.41	82.1664	1,274.41	83.3308	1,274.41	80.4766	1,274.41	81.9625	1,274.41	79.0604	1,274.41	80.8225	1,274.41	78.0469	1,274.41	78.1064	1,274.41	74.7657	1,274.41	76.3171	1,274.41	70.568	1,274.41	76.1209	1,274.41	70.4553	1,274.41	74.8787	1,274.41	69.7356	1,274.41	71.3909	1,274.41	65.9724	1,274.41	67.8437	1,274.41	65.6197	1,274.41	60.698	1,274.41	63.7689	1,274.41	59.1798	1,274.41	52.0098	1,274.41	67.7022	1,274.41	67.6601
1,319.82	88.8461	1,319.82	88.5961	1,319.82	88.4825	1,319.82	87.7406	1,319.82	87.9558	1,319.82	87.0644	1,319.82	87.141	1,319.82	85.7773	1,319.82	85.9555	1,319.82	84.2226	1,319.82	84.4464	1,319.82	82.1289	1,319.82	82.8897	1,319.82	80.3913	1,319.82	80.9216	1,319.82	79.4881	1,319.82	79.0096	1,319.82	75.882	1,319.82	77.2845	1,319.82	74.3361	1,319.82	77.0255	1,319.82	72.7821	1,319.82	75.8897	1,319.82	72.102	1,319.82	74.3243	1,319.82	69.0602	1,319.82	70.7414	1,319.82	65.6198	1,319.82	68.7951	1,319.82	67.3857	1,319.82	72.9928	1,319.82	60.77	1,319.82	68.1252	1,319.82	67.7885	1,319.82	63.4526	1,319.82	64.0629
1,366.7	88.6086	1,366.7	88.4817	1,366.7	88.5984	1,366.7	87.8358	1,366.7	88.0571	1,366.7	86.8206	1,366.7	86.9859	1,366.7	85.8053	1,366.7	85.8437	1,366.7	84.368	1,366.7	84.6284	1,366.7	82.8666	1,366.7	83.0319	1,366.7	80.8245	1,366.7	81.3158	1,366.7	79.7525	1,366.7	79.9564	1,366.7	76.1349	1,366.7	78.3315	1,366.7	74.5001	1,366.7	76.4865	1,366.7	70.4006	1,366.7	71.2581	1,366.7	69.8666	1,366.7	72.1656	1,366.7	69.3285	1,366.7	71.6317	1,366.7	69.7439	1,366.7	64.124	1,366.7	71.7178	1,366.7	64.82	1,366.7	54.3423	1,366.7	70.4712	1,366.7	53.1549	1,366.7	63.0448	1,366.7	67.5368
1,413.57	88.1011	1,413.57	87.7393	1,413.57	87.7203	1,413.57	87.2449	1,413.57	87.225	1,413.57	86.646	1,413.57	86.6025	1,413.57	85.5506	1,413.57	85.3991	1,413.57	84.1256	1,413.57	84.0565	1,413.57	82.3476	1,413.57	82.5533	1,413.57	81.6219	1,413.57	80.7773	1,413.57	78.751	1,413.57	79.1392	1,413.57	77.0477	1,413.57	76.4509	1,413.57	75.1314	1,413.57	75.618	1,413.57	72.2752	1,413.57	73.5372	1,413.57	69.9462	1,413.57	72.0261	1,413.57	68.4451	1,413.57	69.651	1,413.57	61.7572	1,413.57	70.751	1,413.57	68.2334	1,413.57	68.5283	1,413.57	65.2336	1,413.57	67.0267	1,413.57	60.6354	1,413.57	60.2614	1,413.57	53.268
1,463.38	87.4995	1,463.38	87.3421	1,463.38	87.4588	1,463.38	86.8193	1,463.38	86.9163	1,463.38	86.0903	1,463.38	86.1278	1,463.38	85.0663	1,463.38	85.3523	1,463.38	83.9971	1,463.38	83.8295	1,463.38	82.0217	1,463.38	81.755	1,463.38	80.4004	1,463.38	80.4024	1,463.38	79.0246	1,463.38	78.8752	1,463.38	77.547	1,463.38	76.0212	1,463.38	72.6604	1,463.38	74.9511	1,463.38	72.4443	1,463.38	72.4985	1,463.38	72.6195	1,463.38	72.2389	1,463.38	66.252	1,463.38	70.8839	1,463.38	69.0125	1,463.38	65.1525	1,463.38	69.0634	1,463.38	58.6636	1,463.38	63.3754	1,463.38	69.9549	1,463.38	66.3846	1,463.38	64.2011	1,463.38	62.4109
1,516.11	87.3124	1,516.11	87.0478	1,516.11	87.2055	1,516.11	86.3684	1,516.11	86.8259	1,516.11	85.8546	1,516.11	86.0756	1,516.11	84.7077	1,516.11	84.9422	1,516.11	83.5097	1,516.11	83.9342	1,516.11	81.386	1,516.11	82.6403	1,516.11	79.9356	1,516.11	80.0863	1,516.11	78.8585	1,516.11	78.1152	1,516.11	74.584	1,516.11	76.8177	1,516.11	73.9951	1,516.11	74.3177	1,516.11	71.173	1,516.11	72.7214	1,516.11	70.0931	1,516.11	69.7987	1,516.11	66.0398	1,516.11	66.7223	1,516.11	60.1226	1,516.11	65.2682	1,516.11	65.2315	1,516.11	64.9853	1,516.11	65.573	1,516.11	51.9515	1,516.11	64.6118	1,516.11	62.2352	1,516.11	60.0384
1,568.85	87.2926	1,568.85	87.1731	1,568.85	87.2316	1,568.85	86.7257	1,568.85	87.0305	1,568.85	85.9161	1,568.85	86.6699	1,568.85	84.8247	1,568.85	85.8634	1,568.85	83.5029	1,568.85	84.722	1,568.85	81.6513	1,568.85	83.1764	1,568.85	79.4657	1,568.85	81.1463	1,568.85	78.0916	1,568.85	79.1596	1,568.85	74.59	1,568.85	77.9378	1,568.85	72.0134	1,568.85	74.966	1,568.85	68.8961	1,568.85	73.0261	1,568.85	68.5007	1,568.85	70.9307	1,568.85	62.5027	1,568.85	69.9688	1,568.85	61.7242	1,568.85	66.2851	1,568.85	66.4978	1,568.85	67.663	1,568.85	62.7392	1,568.85	66.4547	1,568.85	69.3772	1,568.85	66.7173	1,568.85	68.743
1,624.51	87.9245	1,624.51	87.8828	1,624.51	87.873	1,624.51	87.6013	1,624.51	87.9733	1,624.51	86.9279	1,624.51	87.5856	1,624.51	85.3083	1,624.51	86.8373	1,624.51	83.5512	1,624.51	85.4372	1,624.51	81.6519	1,624.51	83.9305	1,624.51	79.193	1,624.51	81.9955	1,624.51	78.2797	1,624.51	79.8383	1,624.51	75.1003	1,624.51	77.8015	1,624.51	72.1441	1,624.51	76.1643	1,624.51	69.956	1,624.51	73.9511	1,624.51	63.6515	1,624.51	70.3287	1,624.51	65.1533	1,624.51	70.4096	1,624.51	65.7876	1,624.51	67.4303	1,624.51	64.363	1,624.51	63.5259	1,624.51	65.5154	1,624.51	67.8349	1,624.51	63.0203	1,624.51	56.1172	1,624.51	50.7806
1,681.64	88.8494	1,681.64	88.896	1,681.64	88.8113	1,681.64	88.6541	1,681.64	88.722	1,681.64	87.923	1,681.64	88.447	1,681.64	86.5563	1,681.64	87.5432	1,681.64	84.591	1,681.64	86.1659	1,681.64	82.793	1,681.64	84.236	1,681.64	80.1585	1,681.64	82.4355	1,681.64	78.5801	1,681.64	79.9598	1,681.64	75.9165	1,681.64	78.3686	1,681.64	71.0657	1,681.64	77.2993	1,681.64	71.3381	1,681.64	72.9094	1,681.64	66.03	1,681.64	73.5324	1,681.64	58.9413	1,681.64	69.4533	1,681.64	64.4325	1,681.64	69.9423	1,681.64	65.2879	1,681.64	66.6593	1,681.64	60.9489	1,681.64	65.4361	1,681.64	42.587	1,681.64	64.7765	1,681.64	60.3415
1,741.7	89.0193	1,741.7	89.1119	1,741.7	89.0907	1,741.7	89.0384	1,741.7	88.9159	1,741.7	88.4613	1,741.7	88.6016	1,741.7	87.1786	1,741.7	87.7355	1,741.7	85.506	1,741.7	85.9974	1,741.7	83.1923	1,741.7	84.0518	1,741.7	80.7256	1,741.7	81.7153	1,741.7	79.2966	1,741.7	80.2344	1,741.7	75.7217	1,741.7	77.0708	1,741.7	72.5368	1,741.7	76.1207	1,741.7	70.3659	1,741.7	72.3711	1,741.7	65.2341	1,741.7	71.9879	1,741.7	57.1888	1,741.7	65.3927	1,741.7	47.3653	1,741.7	65.2738	1,741.7	62.1941	1,741.7	59.3038	1,741.7	63.8112	1,741.7	60.5967	1,741.7	60.1272	1,741.7	61.8729	1,741.7	50.9441
1,803.22	88.7466	1,803.22	88.7432	1,803.22	88.6188	1,803.22	88.7452	1,803.22	88.5674	1,803.22	88.2867	1,803.22	88.0438	1,803.22	87.2826	1,803.22	87.1049	1,803.22	85.4424	1,803.22	85.5863	1,803.22	83.2166	1,803.22	83.3242	1,803.22	81.2088	1,803.22	81.0412	1,803.22	79.01	1,803.22	79.2858	1,803.22	77.0153	1,803.22	76.2799	1,803.22	73.0697	1,803.22	75.78	1,803.22	69.5671	1,803.22	72.3847	1,803.22	67.1746	1,803.22	71.1041	1,803.22	62.266	1,803.22	67.1673	1,803.22	62.5517	1,803.22	63.4834	1,803.22	65.2635	1,803.22	54.8358	1,803.22	59.6974	1,803.22	57.9461	1,803.22	55.2415	1,803.22	64.0433	1,803.22	64.0844
1,866.21	88.1785	1,866.21	88.2953	1,866.21	88.0763	1,866.21	88.1835	1,866.21	88.0884	1,866.21	87.4972	1,866.21	87.6109	1,866.21	86.2613	1,866.21	86.58	1,866.21	84.8327	1,866.21	85.2424	1,866.21	82.6037	1,866.21	83.1526	1,866.21	80.3847	1,866.21	80.3233	1,866.21	79.0771	1,866.21	78.0275	1,866.21	75.5085	1,866.21	76.0067	1,866.21	73.5679	1,866.21	74.2979	1,866.21	70.2308	1,866.21	71.3144	1,866.21	67.6687	1,866.21	66.9576	1,866.21	62.271	1,866.21	61.2364	1,866.21	60.583	1,866.21	61.1432	1,866.21	57.535	1,866.21	58.3659	1,866.21	62.6814	1,866.21	55.8377	1,866.21	60.0518	1,866.21	52.1681	1,866.21	57.037
1,932.13	87.5644	1,932.13	87.7248	1,932.13	87.7571	1,932.13	87.5514	1,932.13	87.7277	1,932.13	86.664	1,932.13	87.4783	1,932.13	85.3169	1,932.13	86.4548	1,932.13	83.4136	1,932.13	84.8131	1,932.13	81.2697	1,932.13	82.6496	1,932.13	78.4907	1,932.13	80.2523	1,932.13	77.5543	1,932.13	78.1532	1,932.13	74.9178	1,932.13	76.1082	1,932.13	71.3457	1,932.13	75.0362	1,932.13	70.1507	1,932.13	72.3946	1,932.13	67.0966	1,932.13	68.4091	1,932.13	52.8641	1,932.13	66.7346	1,932.13	62.0942	1,932.13	62.3788	1,932.13	60.388	1,932.13	60.844	1,932.13	54.2365	1,932.13	61.2022	1,932.13	56.8877	1,932.13	56.181	1,932.13	55.2094
1,999.51	88.4316	1,999.51	88.3427	1,999.51	88.3676	1,999.51	88.1604	1,999.51	88.6562	1,999.51	87.1145	1,999.51	88.1223	1,999.51	85.2078	1,999.51	86.8674	1,999.51	83.1124	1,999.51	84.9271	1,999.51	80.8763	1,999.51	83.1336	1,999.51	77.3943	1,999.51	80.4111	1,999.51	76.1358	1,999.51	78.2084	1,999.51	73.6669	1,999.51	75.9011	1,999.51	71.3486	1,999.51	74.3615	1,999.51	66.5864	1,999.51	72.0461	1,999.51	64.416	1,999.51	71.1246	1,999.51	57.2732	1,999.51	66.0876	1,999.51	63.6371	1,999.51	56.7482	1,999.51	58.6421	1,999.51	60.7064	1,999.51	62.3792	1,999.51	54.1727	1,999.51	60.7951	1,999.51	47.0108	1,999.51	60.898
2,069.82	88.9029	2,069.82	89.0507	2,069.82	89.0454	2,069.82	88.8028	2,069.82	88.8365	2,069.82	87.9372	2,069.82	88.5272	2,069.82	86.0901	2,069.82	87.1652	2,069.82	83.8476	2,069.82	85.0838	2,069.82	81.4802	2,069.82	82.478	2,069.82	77.9113	2,069.82	80.1029	2,069.82	76.254	2,069.82	77.9768	2,069.82	72.4056	2,069.82	75.0398	2,069.82	69.5279	2,069.82	74.1588	2,069.82	66.2628	2,069.82	71.816	2,069.82	49.6109	2,069.82	68.6468	2,069.82	54.9553	2,069.82	66.3397	2,069.82	61.4305	2,069.82	64.1059	2,069.82	53.384	2,069.82	57.1028	2,069.82	62.3718	2,069.82	53.1362	2,069.82	57.0223	2,069.82	59.9302	2,069.82	55.8521
2,143.07	88.7965	2,143.07	88.8376	2,143.07	88.8564	2,143.07	88.8832	2,143.07	88.6721	2,143.07	88.1102	2,143.07	88.1113	2,143.07	86.426	2,143.07	86.5675	2,143.07	84.1548	2,143.07	84.2059	2,143.07	81.6605	2,143.07	81.5624	2,143.07	79.1317	2,143.07	79.252	2,143.07	76.9179	2,143.07	76.1444	2,143.07	73.5398	2,143.07	74.1588	2,143.07	69.893	2,143.07	71.9196	2,143.07	63.6159	2,143.07	68.8236	2,143.07	64.5588	2,143.07	65.5743	2,143.07	56.5498	2,143.07	62.1372	2,143.07	57.1376	2,143.07	60.1328	2,143.07	60.8172	2,143.07	63.381	2,143.07	56.4175	2,143.07	57.6615	2,143.07	54.6695	2,143.07	50.9491	2,143.07	62.7609
2,219.24	87.7721	2,219.24	88.0246	2,219.24	87.5413	2,219.24	87.5154	2,219.24	87.2994	2,219.24	86.6642	2,219.24	86.3838	2,219.24	85.0603	2,219.24	84.9761	2,219.24	82.8791	2,219.24	83.0087	2,219.24	80.8272	2,219.24	80.4097	2,219.24	78.8651	2,219.24	77.7472	2,219.24	77.2724	2,219.24	75.3853	2,219.24	73.7703	2,219.24	72.686	2,219.24	69.4983	2,219.24	71.0955	2,219.24	68.432	2,219.24	69.314	2,219.24	60.9777	2,219.24	67.0695	2,219.24	65.212	2,219.24	62.3863	2,219.24	54.4253	2,219.24	51.2275	2,219.24	54.9442	2,219.24	56.8001	2,219.24	56.6888	2,219.24	59.5841	2,219.24	59.0657	2,219.24	49.6513	2,219.24	60.7875
2,296.88	87.0317	2,296.88	86.9651	2,296.88	86.8973	2,296.88	86.5192	2,296.88	86.8617	2,296.88	85.2349	2,296.88	86.0639	2,296.88	83.2017	2,296.88	84.322	2,296.88	81.1109	2,296.88	82.4661	2,296.88	79.1122	2,296.88	80.3616	2,296.88	77.2082	2,296.88	78.3224	2,296.88	76.073	2,296.88	76.4184	2,296.88	74.7304	2,296.88	73.8653	2,296.88	69.3335	2,296.88	72.3017	2,296.88	67.8344	2,296.88	67.522	2,296.88	68.359	2,296.88	68.454	2,296.88	47.7839	2,296.88	52.8088	2,296.88	54.0995	2,296.88	62.1332	2,296.88	59.3639	2,296.88	52.1085	2,296.88	58.7029	2,296.88	57.7596	2,296.88	55.115	2,296.88	51.0806	2,296.88	57.934
2,378.91	87.5826	2,378.91	87.3547	2,378.91	87.8817	2,378.91	86.855	2,378.91	87.5897	2,378.91	84.9011	2,378.91	86.5233	2,378.91	83.3037	2,378.91	85.2993	2,378.91	81.1507	2,378.91	83.3546	2,378.91	78.8461	2,378.91	81.4983	2,378.91	76.4222	2,378.91	79.2256	2,378.91	74.8478	2,378.91	77.5397	2,378.91	70.5912	2,378.91	75.0746	2,378.91	68.3081	2,378.91	72.5312	2,378.91	64.6851	2,378.91	70.8011	2,378.91	66.4619	2,378.91	69.0974	2,378.91	49.0331	2,378.91	67.9439	2,378.91	60.9753	2,378.91	62.0263	2,378.91	60.1276	2,378.91	59.6256	2,378.91	57.1127	2,378.91	58.9302	2,378.91	57.7669	2,378.91	46.1182	2,378.91	62.3755
2,462.4	89.1347	2,462.4	88.8189	2,462.4	88.9577	2,462.4	88.0398	2,462.4	88.4442	2,462.4	87.0237	2,462.4	87.5326	2,462.4	84.9535	2,462.4	85.8294	2,462.4	82.8529	2,462.4	84.0782	2,462.4	80.6255	2,462.4	81.7892	2,462.4	77.5576	2,462.4	79.9148	2,462.4	74.3496	2,462.4	77.6283	2,462.4	71.5775	2,462.4	75.0887	2,462.4	68.2892	2,462.4	73.809	2,462.4	62.3088	2,462.4	69.0138	2,462.4	65.1922	2,462.4	70.3811	2,462.4	59.9128	2,462.4	59.9226	2,462.4	55.1937	2,462.4	60.4763	2,462.4	61.3675	2,462.4	64.0501	2,462.4	57.0606	2,462.4	63.7294	2,462.4	51.0494	2,462.4	58.5591	2,462.4	59.6097
2,548.83	88.8888	2,548.83	88.7137	2,548.83	88.7398	2,548.83	88.0772	2,548.83	88.0465	2,548.83	86.7976	2,548.83	86.6699	2,548.83	85.0776	2,548.83	85.1146	2,548.83	83.6114	2,548.83	83.4935	2,548.83	81.5534	2,548.83	81.394	2,548.83	79.4354	2,548.83	78.9814	2,548.83	77.1892	2,548.83	77.4024	2,548.83	75.0611	2,548.83	74.1787	2,548.83	68.9858	2,548.83	72.1147	2,548.83	62.8369	2,548.83	70.3778	2,548.83	67.3383	2,548.83	67.9445	2,548.83	67.7399	2,548.83	66.2369	2,548.83	49.0165	2,548.83	55.6712	2,548.83	60.1034	2,548.83	47.9946	2,548.83	59.9825	2,548.83	57.5061	2,548.83	54.6795	2,548.83	44.8047	2,548.83	55.7114
2,639.65	87.905	2,639.65	87.4782	2,639.65	87.5814	2,639.65	86.5477	2,639.65	86.6318	2,639.65	85.0298	2,639.65	85.526	2,639.65	83.8738	2,639.65	83.8556	2,639.65	82.4653	2,639.65	82.6757	2,639.65	81.2852	2,639.65	81.2735	2,639.65	78.9185	2,639.65	79.1911	2,639.65	76.8006	2,639.65	76.6655	2,639.65	74.6964	2,639.65	73.2029	2,639.65	68.1287	2,639.65	72.2159	2,639.65	68.9184	2,639.65	68.0713	2,639.65	65.3462	2,639.65	65.1131	2,639.65	67.0763	2,639.65	58.3136	2,639.65	47.0389	2,639.65	57.7051	2,639.65	58.8758	2,639.65	62.2033	2,639.65	49.459	2,639.65	62.0981	2,639.65	53.6833	2,639.65	63.522	2,639.65	63.4364
2,731.93	87.383	2,731.93	86.6865	2,731.93	87.3026	2,731.93	85.3748	2,731.93	86.2051	2,731.93	84.306	2,731.93	84.9988	2,731.93	83.2546	2,731.93	83.9151	2,731.93	81.7201	2,731.93	83.0488	2,731.93	80.2027	2,731.93	81.0917	2,731.93	77.6189	2,731.93	79.6994	2,731.93	74.8066	2,731.93	76.2507	2,731.93	71.2819	2,731.93	72.8179	2,731.93	70.4422	2,731.93	72.7691	2,731.93	67.1719	2,731.93	68.5269	2,731.93	64.4724	2,731.93	66.5273	2,731.93	58.4977	2,731.93	57.5319	2,731.93	56.9141	2,731.93	60.8814	2,731.93	59.0908	2,731.93	46.3603	2,731.93	56.5536	2,731.93	46.3178	2,731.93	54.8636	2,731.93	55.3188	2,731.93	58.4305
2,828.61	87.8627	2,828.61	86.9302	2,828.61	87.6368	2,828.61	85.4852	2,828.61	86.6273	2,828.61	84.7858	2,828.61	85.439	2,828.61	83.8664	2,828.61	84.8277	2,828.61	82.8906	2,828.61	83.9974	2,828.61	80.0564	2,828.61	82.311	2,828.61	77.3793	2,828.61	79.719	2,828.61	75.756	2,828.61	77.1938	2,828.61	72.0298	2,828.61	75.0666	2,828.61	69.6352	2,828.61	73.1811	2,828.61	61.7609	2,828.61	71.3583	2,828.61	52.7927	2,828.61	67.0428	2,828.61	61.0693	2,828.61	65.9479	2,828.61	53.3292	2,828.61	65.2115	2,828.61	65.2548	2,828.61	60.2442	2,828.61	48.3899	2,828.61	56.7127	2,828.61	50.1615	2,828.61	53.4078	2,828.61	39.2467
2,928.22	87.9641	2,928.22	87.1667	2,928.22	87.6992	2,928.22	86.1067	2,928.22	86.3543	2,928.22	85.4212	2,928.22	85.8205	2,928.22	84.9467	2,928.22	85.3976	2,928.22	83.4132	2,928.22	84.6975	2,928.22	81.1885	2,928.22	83.2844	2,928.22	78.4055	2,928.22	79.9734	2,928.22	76.0382	2,928.22	77.3536	2,928.22	72.9073	2,928.22	74.9495	2,928.22	66.8738	2,928.22	72.6884	2,928.22	66.0417	2,928.22	68.9881	2,928.22	59.8221	2,928.22	59.3667	2,928.22	68.3326	2,928.22	61.1443	2,928.22	50.3469	2,928.22	58.5205	2,928.22	65.2073	2,928.22	49.4674	2,928.22	50.6426	2,928.22	51.5961	2,928.22	62.8694	2,928.22	61.0798	2,928.22	62.7989
3,030.76	88.0725	3,030.76	86.9632	3,030.76	87.6561	3,030.76	85.7488	3,030.76	86.4716	3,030.76	85.773	3,030.76	85.6528	3,030.76	85.5485	3,030.76	85.2542	3,030.76	83.8876	3,030.76	84.2823	3,030.76	82.1252	3,030.76	82.461	3,030.76	78.5832	3,030.76	80.3132	3,030.76	75.2413	3,030.76	76.8686	3,030.76	74.3404	3,030.76	74.2213	3,030.76	64.9215	3,030.76	71.742	3,030.76	62.7507	3,030.76	68.0474	3,030.76	61.1583	3,030.76	68.1582	3,030.76	50.2996	3,030.76	56.8581	3,030.76	61.8028	3,030.76	51.6917	3,030.76	62.0905	3,030.76	61.3114	3,030.76	62.8804	3,030.76	60.9532	3,030.76	63.644	3,030.76	50.9263	3,030.76	54.3689
3,137.7	87.7536	3,137.7	86.7752	3,137.7	87.3622	3,137.7	85.7137	3,137.7	85.8065	3,137.7	85.9988	3,137.7	85.5679	3,137.7	85.4455	3,137.7	85.6899	3,137.7	84.3442	3,137.7	84.9745	3,137.7	82.3298	3,137.7	82.6266	3,137.7	79.5959	3,137.7	80.4499	3,137.7	76.2699	3,137.7	77.5837	3,137.7	74.4508	3,137.7	75.4623	3,137.7	67.677	3,137.7	71.9252	3,137.7	64.2395	3,137.7	71.1142	3,137.7	67.4874	3,137.7	66.3879	3,137.7	59.3395	3,137.7	66.0324	3,137.7	59.8402	3,137.7	55.036	3,137.7	64.5212	3,137.7	64.3005	3,137.7	56.1695	3,137.7	65.89	3,137.7	50.1892	3,137.7	57.7766	3,137.7	56.9945
3,249.02	87.8743	3,249.02	86.5526	3,249.02	87.5255	3,249.02	85.7311	3,249.02	86.0036	3,249.02	86.1853	3,249.02	85.8545	3,249.02	85.4599	3,249.02	86.1295	3,249.02	83.8172	3,249.02	85.2677	3,249.02	81.4868	3,249.02	83.4024	3,249.02	78.8013	3,249.02	80.3691	3,249.02	76.1798	3,249.02	78.5419	3,249.02	75.4812	3,249.02	75.325	3,249.02	67.9854	3,249.02	73.3922	3,249.02	67.4291	3,249.02	73.1237	3,249.02	63.5817	3,249.02	63.9162	3,249.02	64.1363	3,249.02	65.9041	3,249.02	57.1841	3,249.02	49.6437	3,249.02	60.8596	3,249.02	53.6028	3,249.02	51.5662	3,249.02	56.7312	3,249.02	58.4169	3,249.02	60.2598	3,249.02	50.0642
3,363.28	88.2046	3,363.28	87.2809	3,363.28	87.9454	3,363.28	86.5323	3,363.28	86.7546	3,363.28	86.679	3,363.28	86.5353	3,363.28	85.6091	3,363.28	86.2648	3,363.28	83.8795	3,363.28	85.1065	3,363.28	81.4912	3,363.28	82.9577	3,363.28	78.2123	3,363.28	80.2441	3,363.28	75.4317	3,363.28	77.7173	3,363.28	73.361	3,363.28	74.7221	3,363.28	69.1968	3,363.28	71.5016	3,363.28	64.4826	3,363.28	70.2055	3,363.28	60.3846	3,363.28	68.2397	3,363.28	64.1118	3,363.28	51.4534	3,363.28	61.3208	3,363.28	61.2659	3,363.28	47.1282	3,363.28	60.5347	3,363.28	52.4513	3,363.28	65.5214	3,363.28	61.7226	3,363.28	53.4695	3,363.28	59.3552
3,481.93	88.0367	3,481.93	87.2053	3,481.93	87.5084	3,481.93	86.4281	3,481.93	86.3816	3,481.93	86.4858	3,481.93	86.0698	3,481.93	85.7604	3,481.93	85.6421	3,481.93	84.4753	3,481.93	84.2334	3,481.93	82.0839	3,481.93	82.8423	3,481.93	80.158	3,481.93	80.5238	3,481.93	77.4679	3,481.93	78.128	3,481.93	73.0212	3,481.93	75.7309	3,481.93	71.0955	3,481.93	72.3722	3,481.93	64.1147	3,481.93	70.9342	3,481.93	62.8639	3,481.93	67.8209	3,481.93	63.6858	3,481.93	62.0037	3,481.93	50.52	3,481.93	61.119	3,481.93	48.224	3,481.93	66.0702	3,481.93	48.546	3,481.93	58.9922	3,481.93	47.1843	3,481.93	59.4673	3,481.93	50.8978
3,604.98	87.8695	3,604.98	87.5565	3,604.98	87.6395	3,604.98	86.4999	3,604.98	87.3394	3,604.98	85.8081	3,604.98	86.7581	3,604.98	84.9566	3,604.98	85.9637	3,604.98	83.3559	3,604.98	85.0465	3,604.98	81.854	3,604.98	83.8533	3,604.98	79.3313	3,604.98	81.3763	3,604.98	76.2737	3,604.98	79.0966	3,604.98	74.2483	3,604.98	76.472	3,604.98	70.6495	3,604.98	73.6477	3,604.98	68.8829	3,604.98	70.4936	3,604.98	53.428	3,604.98	67.6088	3,604.98	65.8432	3,604.98	62.8216	3,604.98	62.9431	3,604.98	54.7815	3,604.98	63.6827	3,604.98	65.4878	3,604.98	51.8745	3,604.98	59.7133	3,604.98	52.4851	3,604.98	54.628	3,604.98	57.8567
3,732.42	88.8054	3,732.42	88.7074	3,732.42	88.8102	3,732.42	87.7342	3,732.42	88.2887	3,732.42	86.4895	3,732.42	87.4556	3,732.42	85.5167	3,732.42	86.2124	3,732.42	84.3665	3,732.42	85.0241	3,732.42	82.1628	3,732.42	83.4609	3,732.42	79.1443	3,732.42	81.4756	3,732.42	75.2336	3,732.42	78.4606	3,732.42	73.4669	3,732.42	74.1733	3,732.42	64.722	3,732.42	73.0872	3,732.42	68.6605	3,732.42	71.1148	3,732.42	62.8827	3,732.42	68.335	3,732.42	60.0938	3,732.42	58.1037	3,732.42	61.0253	3,732.42	61.5716	3,732.42	60.3585	3,732.42	64.8747	3,732.42	53.5317	3,732.42	67.207	3,732.42	48.2893	3,732.42	61.3454	3,732.42	51.1284
3,864.26	87.9549	3,864.26	87.9715	3,864.26	87.9467	3,864.26	87.0501	3,864.26	87.4799	3,864.26	85.7021	3,864.26	85.7599	3,864.26	84.7205	3,864.26	84.4464	3,864.26	84.2485	3,864.26	83.8456	3,864.26	82.237	3,864.26	82.4066	3,864.26	80.0058	3,864.26	80.0471	3,864.26	76.421	3,864.26	76.6266	3,864.26	72.3867	3,864.26	74.1854	3,864.26	70.9746	3,864.26	69.7359	3,864.26	62.8913	3,864.26	65.214	3,864.26	60.3452	3,864.26	62.191	3,864.26	59.0532	3,864.26	57.3156	3,864.26	60.1611	3,864.26	57.3598	3,864.26	63.4106	3,864.26	49.3526	3,864.26	62.307	3,864.26	62.1314	3,864.26	61.1195	3,864.26	54.4287	3,864.26	56.3492
4,000.49	87.4635	4,000.49	87.6265	4,000.49	87.5601	4,000.49	86.238	4,000.49	87.5102	4,000.49	84.4043	4,000.49	85.6167	4,000.49	83.7794	4,000.49	83.9587	4,000.49	82.6341	4,000.49	83.3388	4,000.49	81.2615	4,000.49	82.9645	4,000.49	76.8814	4,000.49	80.3641	4,000.49	74.8069	4,000.49	77.355	4,000.49	73.6231	4,000.49	72.4533	4,000.49	66.5114	4,000.49	73.0959	4,000.49	65.3443	4,000.49	70.6654	4,000.49	59.445	4,000.49	64.4366	4,000.49	58.3763	4,000.49	56.4205	4,000.49	61.9816	4,000.49	64.3772	4,000.49	65.488	4,000.49	58.3437	4,000.49	51.5631	4,000.49	60.8066	4,000.49	54.0994	4,000.49	53.2123	4,000.49	62.8793
4,141.11	88.4947	4,141.11	88.8919	4,141.11	88.7092	4,141.11	86.9825	4,141.11	88.1319	4,141.11	84.5493	4,141.11	85.7438	4,141.11	83.6753	4,141.11	84.3486	4,141.11	83.1415	4,141.11	84.4685	4,141.11	80.4839	4,141.11	82.2208	4,141.11	77.528	4,141.11	79.505	4,141.11	73.5425	4,141.11	76.6582	4,141.11	68.9154	4,141.11	74.2774	4,141.11	69.0603	4,141.11	66.9807	4,141.11	62.7582	4,141.11	66.4299	4,141.11	56.4923	4,141.11	63.1587	4,141.11	57.7727	4,141.11	59.1926	4,141.11	51.7645	4,141.11	50.9388	4,141.11	65.0466	4,141.11	62.5253	4,141.11	58.6853	4,141.11	64.8636	4,141.11	62.4188	4,141.11	48.8562	4,141.11	55.8199
4,287.6	88.0992	4,287.6	88.2776	4,287.6	88.0871	4,287.6	86.4085	4,287.6	87.827	4,287.6	84.2822	4,287.6	84.7907	4,287.6	84.0099	4,287.6	83.6866	4,287.6	82.5872	4,287.6	83.1433	4,287.6	80.0948	4,287.6	81.8977	4,287.6	76.9375	4,287.6	78.5319	4,287.6	74.3794	4,287.6	75.5107	4,287.6	70.0128	4,287.6	73.4095	4,287.6	69.0522	4,287.6	70.081	4,287.6	63.6107	4,287.6	65.4556	4,287.6	62.1328	4,287.6	67.8976	4,287.6	62.1927	4,287.6	48.9767	4,287.6	64.6832	4,287.6	55.1445	4,287.6	69.7061	4,287.6	57.4865	4,287.6	62.7892	4,287.6	61.9763	4,287.6	63.7716	4,287.6	44.0082	4,287.6	54.4231
4,438.48	88.0037	4,438.48	88.2194	4,438.48	88.3812	4,438.48	86.0517	4,438.48	87.2234	4,438.48	84.1629	4,438.48	84.9401	4,438.48	83.5815	4,438.48	84.2556	4,438.48	82.4341	4,438.48	83.7564	4,438.48	80.1448	4,438.48	81.302	4,438.48	77.2363	4,438.48	79.2157	4,438.48	74.5861	4,438.48	76.2646	4,438.48	73.6528	4,438.48	73.2365	4,438.48	62.5546	4,438.48	70.0319	4,438.48	59.9766	4,438.48	68.323	4,438.48	56.6548	4,438.48	64.7451	4,438.48	54.057	4,438.48	60.8992	4,438.48	62.8058	4,438.48	62.4288	4,438.48	70.4486	4,438.48	53.826	4,438.48	59.4988	4,438.48	59.1467	4,438.48	66.6058	4,438.48	48.0975	4,438.48	60.095
4,595.21	87.8487	4,595.21	87.6093	4,595.21	87.6628	4,595.21	86.0119	4,595.21	86.9079	4,595.21	84.6913	4,595.21	85.1331	4,595.21	83.7871	4,595.21	84.054	4,595.21	81.7521	4,595.21	82.6925	4,595.21	80.0126	4,595.21	80.9814	4,595.21	76.9482	4,595.21	79.2789	4,595.21	74.2233	4,595.21	76.5324	4,595.21	73.2923	4,595.21	72.5318	4,595.21	64.9573	4,595.21	70.3187	4,595.21	62.6135	4,595.21	68.9699	4,595.21	59.6302	4,595.21	63.7818	4,595.21	53.8137	4,595.21	57.0178	4,595.21	65.7702	4,595.21	64.3673	4,595.21	67.8385	4,595.21	60.3925	4,595.21	65.9399	4,595.21	63.953	4,595.21	62.3987	4,595.21	53.2488	4,595.21	52.6534
4,756.35	87.8678	4,756.35	87.6449	4,756.35	87.7337	4,756.35	86.9288	4,756.35	87.0179	4,756.35	86.0092	4,756.35	86.4283	4,756.35	83.791	4,756.35	85.2519	4,756.35	81.9592	4,756.35	83.5966	4,756.35	80.8638	4,756.35	81.8628	4,756.35	78.4405	4,756.35	80.3737	4,756.35	73.8556	4,756.35	77.5419	4,756.35	72.0817	4,756.35	73.5093	4,756.35	67.5078	4,756.35	70.1089	4,756.35	60.0513	4,756.35	70.4322	4,756.35	54.7062	4,756.35	66.3549	4,756.35	52.0955	4,756.35	54.1188	4,756.35	63.7878	4,756.35	56.8961	4,756.35	67.5927	4,756.35	64.1094	4,756.35	63.1722	4,756.35	63.4353	4,756.35	56.5458	4,756.35	61.2409	4,756.35	38.718
4,924.8	87.7809	4,924.8	87.7133	4,924.8	87.5528	4,924.8	88.0686	4,924.8	87.8058	4,924.8	86.8002	4,924.8	87.6361	4,924.8	84.3628	4,924.8	85.3156	4,924.8	82.6816	4,924.8	83.1752	4,924.8	81.3063	4,924.8	82.4605	4,924.8	77.6586	4,924.8	80.5419	4,924.8	75.1751	4,924.8	77.0302	4,924.8	72.1739	4,924.8	73.6109	4,924.8	64.8188	4,924.8	69.954	4,924.8	58.0003	4,924.8	67.9909	4,924.8	49.6491	4,924.8	63.7468	4,924.8	56.5181	4,924.8	49.9259	4,924.8	55.1066	4,924.8	60.2244	4,924.8	64.7127	4,924.8	60.3574	4,924.8	62.6461	4,924.8	56.1069	4,924.8	57.7096	4,924.8	52.8942	4,924.8	58.8914
5,097.66	87.4603	5,097.66	87.6454	5,097.66	87.1792	5,097.66	87.9904	5,097.66	88.1102	5,097.66	86.4914	5,097.66	87.6276	5,097.66	83.1557	5,097.66	84.6104	5,097.66	81.7648	5,097.66	82.9167	5,097.66	80.3568	5,097.66	81.4863	5,097.66	77.1031	5,097.66	79.2196	5,097.66	73.1151	5,097.66	75.4233	5,097.66	70.5872	5,097.66	71.9544	5,097.66	67.6372	5,097.66	68.9573	5,097.66	57.6311	5,097.66	66.8841	5,097.66	56.3639	5,097.66	62.2994	5,097.66	60.623	5,097.66	50.1716	5,097.66	52.2728	5,097.66	61.8832	5,097.66	62.891	5,097.66	57.2513	5,097.66	60.7223	5,097.66	56.9235	5,097.66	54.0008	5,097.66	62.7797	5,097.66	53.6445
5,277.83	88.1577	5,277.83	88.0016	5,277.83	87.9727	5,277.83	88.3378	5,277.83	88.4554	5,277.83	85.7385	5,277.83	87.211	5,277.83	83.6893	5,277.83	83.9945	5,277.83	82.1229	5,277.83	83.2037	5,277.83	79.1191	5,277.83	81.0363	5,277.83	75.6811	5,277.83	78.02	5,277.83	72.0965	5,277.83	74.842	5,277.83	68.5763	5,277.83	71.2268	5,277.83	61.3716	5,277.83	66.9122	5,277.83	57.8715	5,277.83	66.5418	5,277.83	58.7294	5,277.83	64.0016	5,277.83	60.4463	5,277.83	29.6311	5,277.83	49.0124	5,277.83	58.1649	5,277.83	62.6708	5,277.83	49.0498	5,277.83	64.485	5,277.83	56.3297	5,277.83	59.2019	5,277.83	60.0142	5,277.83	44.263
5,463.87	88.6928	5,463.87	88.5255	5,463.87	88.5436	5,463.87	87.6924	5,463.87	88.7778	5,463.87	85.305	5,463.87	86.9438	5,463.87	83.6977	5,463.87	84.6287	5,463.87	81.3049	5,463.87	83.3882	5,463.87	78.2218	5,463.87	80.6007	5,463.87	75.1416	5,463.87	77.8052	5,463.87	71.9171	5,463.87	75.1838	5,463.87	70.8657	5,463.87	71.0885	5,463.87	64.2954	5,463.87	68.4468	5,463.87	58.5125	5,463.87	63.869	5,463.87	59.1979	5,463.87	63.1846	5,463.87	53.1868	5,463.87	61.0678	5,463.87	56.4236	5,463.87	62.155	5,463.87	56.4582	5,463.87	61.1436	5,463.87	63.3499	5,463.87	57.2267	5,463.87	58.8459	5,463.87	56.2217	5,463.87	52.5235
5,657.23	88.275	5,657.23	88.1433	5,657.23	88.1288	5,657.23	87.652	5,657.23	88.3122	5,657.23	85.9685	5,657.23	86.8246	5,657.23	84.2496	5,657.23	84.9382	5,657.23	81.4817	5,657.23	82.8314	5,657.23	79.3219	5,657.23	80.09	5,657.23	76.9295	5,657.23	78.1692	5,657.23	72.8982	5,657.23	75.5127	5,657.23	69.707	5,657.23	71.922	5,657.23	57.9577	5,657.23	67.6172	5,657.23	64.8614	5,657.23	67.109	5,657.23	59.9259	5,657.23	62.459	5,657.23	52.8098	5,657.23	52.3857	5,657.23	58.1988	5,657.23	61.0952	5,657.23	49.7329	5,657.23	59.7398	5,657.23	60.8905	5,657.23	56.6454	5,657.23	53.1435	5,657.23	62.0784	5,657.23	44.1775
5,856.45	88.3958	5,856.45	87.9026	5,856.45	88.304	5,856.45	87.2323	5,856.45	87.8686	5,856.45	85.5058	5,856.45	86.6572	5,856.45	83.1545	5,856.45	84.7302	5,856.45	80.2667	5,856.45	81.7362	5,856.45	78.7321	5,856.45	80.2204	5,856.45	75.717	5,856.45	78.0526	5,856.45	71.4247	5,856.45	74.6563	5,856.45	68.4028	5,856.45	70.5044	5,856.45	66.2256	5,856.45	65.6511	5,856.45	51.1567	5,856.45	66.1876	5,856.45	65.1364	5,856.45	58.5933	5,856.45	60.569	5,856.45	48.1453	5,856.45	62.0075	5,856.45	63.8239	5,856.45	56.1348	5,856.45	48.1546	5,856.45	62.2938	5,856.45	60.8544	5,856.45	52.1071	5,856.45	65.5551	5,856.45	53.5565
6,062.99	88.093	6,062.99	87.8571	6,062.99	87.9622	6,062.99	86.8947	6,062.99	87.534	6,062.99	85.2679	6,062.99	86.5345	6,062.99	83.5294	6,062.99	84.8227	6,062.99	81.741	6,062.99	82.9268	6,062.99	79.4961	6,062.99	81.1965	6,062.99	75.2986	6,062.99	78.1271	6,062.99	71.1256	6,062.99	74.1128	6,062.99	68.2263	6,062.99	70.0704	6,062.99	63.6367	6,062.99	68.1498	6,062.99	54.0138	6,062.99	65.0884	6,062.99	63.8833	6,062.99	50.9915	6,062.99	58.6688	6,062.99	62.882	6,062.99	57.3678	6,062.99	52.0247	6,062.99	55.5479	6,062.99	48.5049	6,062.99	62.1945	6,062.99	64.1194	6,062.99	61.7334	6,062.99	64.6387	6,062.99	51.6081
6,276.86	87.9093	6,276.86	87.7308	6,276.86	87.8796	6,276.86	87.2093	6,276.86	87.4724	6,276.86	86.1467	6,276.86	86.715	6,276.86	84.4575	6,276.86	85.3091	6,276.86	82.1492	6,276.86	83.3592	6,276.86	79.0906	6,276.86	81.0429	6,276.86	75.3002	6,276.86	77.3974	6,276.86	71.8486	6,276.86	74.0929	6,276.86	68.4509	6,276.86	70.785	6,276.86	64.4448	6,276.86	65.2642	6,276.86	54.6138	6,276.86	64.9905	6,276.86	65.0848	6,276.86	63.0078	6,276.86	61.9849	6,276.86	55.4476	6,276.86	56.4905	6,276.86	58.9909	6,276.86	54.8652	6,276.86	59.0096	6,276.86	62.3987	6,276.86	62.8645	6,276.86	56.983	6,276.86	65.1587	6,276.86	56.3674
6,498.05	86.8009	6,498.05	87.1467	6,498.05	87.0543	6,498.05	86.6647	6,498.05	86.9033	6,498.05	85.8518	6,498.05	86.7103	6,498.05	84.1799	6,498.05	85.519	6,498.05	81.8506	6,498.05	83.7641	6,498.05	79.2053	6,498.05	81.0253	6,498.05	76.2935	6,498.05	78.5228	6,498.05	72.3145	6,498.05	74.8573	6,498.05	68.6661	6,498.05	71.1557	6,498.05	59.4755	6,498.05	67.821	6,498.05	54.9341	6,498.05	63.936	6,498.05	60.6079	6,498.05	53.2377	6,498.05	58.5771	6,498.05	62.5726	6,498.05	53.095	6,498.05	56.0291	6,498.05	46.4216	6,498.05	47.7464	6,498.05	59.4192	6,498.05	63.5262	6,498.05	54.9348	6,498.05	60.9368	6,498.05	56.5242
6,726.56	86.8101	6,726.56	87.1777	6,726.56	86.9593	6,726.56	87.3252	6,726.56	86.9842	6,726.56	86.3375	6,726.56	86.908	6,726.56	84.5101	6,726.56	85.2823	6,726.56	81.7477	6,726.56	83.2439	6,726.56	79.6708	6,726.56	81.0947	6,726.56	75.8131	6,726.56	78.8177	6,726.56	71.4481	6,726.56	74.6933	6,726.56	68.3468	6,726.56	70.5079	6,726.56	61.9935	6,726.56	66.0909	6,726.56	50.8633	6,726.56	65.2872	6,726.56	62.706	6,726.56	60.8018	6,726.56	56.217	6,726.56	48.8983	6,726.56	54.4255	6,726.56	53.5598	6,726.56	57.0794	6,726.56	52.087	6,726.56	61.6834	6,726.56	66.1259	6,726.56	55.7964	6,726.56	63.3928	6,726.56	58.7774
6,963.87	86.7896	6,963.87	87.2542	6,963.87	87.0945	6,963.87	87.1675	6,963.87	87.2051	6,963.87	85.7904	6,963.87	86.9004	6,963.87	83.4723	6,963.87	84.8872	6,963.87	81.086	6,963.87	82.7602	6,963.87	78.824	6,963.87	80.6532	6,963.87	75.1041	6,963.87	78.1569	6,963.87	70.8223	6,963.87	73.6081	6,963.87	67.7592	6,963.87	69.3225	6,963.87	59.859	6,963.87	66.0238	6,963.87	50.5345	6,963.87	63.2637	6,963.87	62.182	6,963.87	56.3563	6,963.87	60.8649	6,963.87	58.8635	6,963.87	57.7078	6,963.87	52.3212	6,963.87	56.6926	6,963.87	54.8655	6,963.87	55.8098	6,963.87	64.3379	6,963.87	59.1242	6,963.87	59.8933	6,963.87	58.1586
7,209.96	86.9667	7,209.96	87.2133	7,209.96	87.2286	7,209.96	87.0721	7,209.96	87.4379	7,209.96	85.3001	7,209.96	86.7657	7,209.96	82.9198	7,209.96	84.8179	7,209.96	80.3856	7,209.96	82.3381	7,209.96	78.0836	7,209.96	80.4224	7,209.96	74.7171	7,209.96	77.7943	7,209.96	71.2065	7,209.96	74.0835	7,209.96	67.9677	7,209.96	70.4232	7,209.96	61.9582	7,209.96	66.4761	7,209.96	58.5558	7,209.96	64.8883	7,209.96	62.7599	7,209.96	50.0587	7,209.96	63.9293	7,209.96	58.8064	7,209.96	53.8738	7,209.96	57.7228	7,209.96	57.729	7,209.96	55.6887	7,209.96	53.5393	7,209.96	64.4781	7,209.96	59.1449	7,209.96	64.3956	7,209.96	58.9507
7,464.84	87.5859	7,464.84	87.5953	7,464.84	87.3838	7,464.84	87.2517	7,464.84	87.434	7,464.84	85.5846	7,464.84	86.2712	7,464.84	83.0897	7,464.84	84.3427	7,464.84	80.7011	7,464.84	81.8461	7,464.84	78.4705	7,464.84	80.0398	7,464.84	74.9977	7,464.84	77.1528	7,464.84	70.7354	7,464.84	73.3344	7,464.84	66.5536	7,464.84	70.0497	7,464.84	58.6636	7,464.84	65.5756	7,464.84	57.2364	7,464.84	63.1617	7,464.84	62.6673	7,464.84	47.2452	7,464.84	62.6136	7,464.84	48.7568	7,464.84	48.2165	7,464.84	60.5819	7,464.84	56.4763	7,464.84	44.815	7,464.84	53.7167	7,464.84	64.3741	7,464.84	56.8298	7,464.84	64.2959	7,464.84	56.426
7,727.05	87.4973	7,727.05	87.1854	7,727.05	87.3489	7,727.05	86.5296	7,727.05	87.2959	7,727.05	85.2159	7,727.05	86.1378	7,727.05	82.8237	7,727.05	84.5917	7,727.05	80.01	7,727.05	82.0791	7,727.05	77.8571	7,727.05	80.0936	7,727.05	74.4006	7,727.05	77.1436	7,727.05	69.9504	7,727.05	73.6781	7,727.05	66.6396	7,727.05	69.9714	7,727.05	62.4069	7,727.05	65.1428	7,727.05	60.7093	7,727.05	63.2523	7,727.05	61.0753	7,727.05	56.929	7,727.05	62.8449	7,727.05	50.1064	7,727.05	47.9949	7,727.05	53.5761	7,727.05	60.2203	7,727.05	51.3795	7,727.05	55.0598	7,727.05	65.5529	7,727.05	58.4283	7,727.05	58.7614	7,727.05	57.6069
7,999.51	87.569	7,999.51	87.217	7,999.51	87.2867	7,999.51	86.7972	7,999.51	87.2797	7,999.51	85.7183	7,999.51	86.3602	7,999.51	83.4686	7,999.51	84.8418	7,999.51	80.3265	7,999.51	82.1941	7,999.51	78.2661	7,999.51	79.9432	7,999.51	74.393	7,999.51	77.2855	7,999.51	70.3535	7,999.51	73.162	7,999.51	67.5131	7,999.51	69.3628	7,999.51	62.1258	7,999.51	65.6487	7,999.51	58.6906	7,999.51	62.7806	7,999.51	62.7906	7,999.51	57.1698	7,999.51	62.38	7,999.51	50.3538	7,999.51	43.986	7,999.51	49.7067	7,999.51	61.7749	7,999.51	32.0709	7,999.51	40.5091	7,999.51	62.0145	7,999.51	46.7297	7,999.51	59.2168	7,999.51	52.6109
8,282.23	87.3973	8,282.23	87.2124	8,282.23	87.3094	8,282.23	86.7921	8,282.23	87.2251	8,282.23	85.722	8,282.23	86.465	8,282.23	83.5087	8,282.23	84.9337	8,282.23	79.9862	8,282.23	81.8427	8,282.23	77.7786	8,282.23	79.5271	8,282.23	73.7475	8,282.23	76.6312	8,282.23	70.677	8,282.23	72.5612	8,282.23	66.078	8,282.23	68.8362	8,282.23	60.6491	8,282.23	63.9672	8,282.23	37.8565	8,282.23	62.425	8,282.23	60.5461	8,282.23	59.5736	8,282.23	63.5127	8,282.23	52.1124	8,282.23	49.1902	8,282.23	28.6244	8,282.23	58.2928	8,282.23	54.9366	8,282.23	55.9491	8,282.23	56.752	8,282.23	55.4352	8,282.23	57.9879	8,282.23	54.5515
8,573.73	87.9622	8,573.73	87.7059	8,573.73	87.7026	8,573.73	87.2829	8,573.73	87.5654	8,573.73	86.2539	8,573.73	86.8119	8,573.73	83.6946	8,573.73	85.3195	8,573.73	79.9781	8,573.73	81.7396	8,573.73	76.9247	8,573.73	79.3941	8,573.73	73.3909	8,573.73	76.279	8,573.73	69.0626	8,573.73	71.9601	8,573.73	65.7365	8,573.73	68.3786	8,573.73	51.8811	8,573.73	64.3887	8,573.73	49.2182	8,573.73	62.7348	8,573.73	59.5942	8,573.73	58.0291	8,573.73	59.0051	8,573.73	50.491	8,573.73	44.5942	8,573.73	58.8077	8,573.73	61.9539	8,573.73	52.3571	8,573.73	53.9847	8,573.73	61.3995	8,573.73	49.2258	8,573.73	59.6774	8,573.73	57.1434
8,876.95	87.7916	8,876.95	87.4941	8,876.95	87.5678	8,876.95	87.0196	8,876.95	87.3897	8,876.95	85.9723	8,876.95	86.5478	8,876.95	83.3905	8,876.95	85.0858	8,876.95	79.5047	8,876.95	81.4432	8,876.95	76.4199	8,876.95	78.865	8,876.95	72.9338	8,876.95	75.5319	8,876.95	69.2785	8,876.95	71.5964	8,876.95	65.5822	8,876.95	67.5265	8,876.95	61.2771	8,876.95	63.7642	8,876.95	51.5672	8,876.95	61.121	8,876.95	62.2248	8,876.95	51.6663	8,876.95	58.1308	8,876.95	57.9453	8,876.95	58.0189	8,876.95	48.0047	8,876.95	61.4613	8,876.95	52.3	8,876.95	60.2444	8,876.95	55.9279	8,876.95	56.7721	8,876.95	57.9074	8,876.95	54.9325
9,188.96	87.8213	9,188.96	87.4493	9,188.96	87.555	9,188.96	87.1027	9,188.96	87.3961	9,188.96	85.8425	9,188.96	86.3945	9,188.96	83.3128	9,188.96	84.9461	9,188.96	79.2705	9,188.96	81.3405	9,188.96	76.5229	9,188.96	78.4802	9,188.96	73.1104	9,188.96	75.1919	9,188.96	68.5263	9,188.96	71.6131	9,188.96	64.8818	9,188.96	67.9128	9,188.96	60.427	9,188.96	63.733	9,188.96	50.5292	9,188.96	62.1991	9,188.96	60.3198	9,188.96	58.1534	9,188.96	55.6225	9,188.96	55.4525	9,188.96	55.4745	9,188.96	52.6422	9,188.96	63.9348	9,188.96	54.2664	9,188.96	59.6585	9,188.96	62.0923	9,188.96	55.7177	9,188.96	55.0741	9,188.96	59.3941
9,514.16	87.4977	9,514.16	87.0657	9,514.16	87.4594	9,514.16	86.6794	9,514.16	86.8878	9,514.16	85.3332	9,514.16	85.9982	9,514.16	83.0299	9,514.16	84.4889	9,514.16	78.6643	9,514.16	81.0354	9,514.16	75.8816	9,514.16	77.9602	9,514.16	72.3041	9,514.16	74.5279	9,514.16	68.2029	9,514.16	71.2588	9,514.16	64.0707	9,514.16	67.0113	9,514.16	60.3348	9,514.16	62.1417	9,514.16	49.9512	9,514.16	59.5404	9,514.16	62.6186	9,514.16	60.587	9,514.16	51.5991	9,514.16	61.2337	9,514.16	58.1813	9,514.16	51.9949	9,514.16	63.4661	9,514.16	50.5042	9,514.16	56.9446	9,514.16	61.8848	9,514.16	59.5372	9,514.16	49.1507	9,514.16	57.2781
9,849.61	87.5043	9,849.61	87.176	9,849.61	87.6636	9,849.61	86.5529	9,849.61	86.6509	9,849.61	85.0187	9,849.61	85.8517	9,849.61	82.8202	9,849.61	84.2327	9,849.61	78.2624	9,849.61	80.5173	9,849.61	75.4251	9,849.61	77.4948	9,849.61	71.4331	9,849.61	74.4267	9,849.61	67.6294	9,849.61	69.9915	9,849.61	63.4126	9,849.61	65.81	9,849.61	58.2824	9,849.61	63.4221	9,849.61	52.1421	9,849.61	56.5579	9,849.61	64.4255	9,849.61	56.1836	9,849.61	58.8272	9,849.61	63.05	9,849.61	60.9715	9,849.61	53.1683	9,849.61	63.7712	9,849.61	55.5003	9,849.61	54.1569	9,849.61	62.6722	9,849.61	61.9168	9,849.61	50.7129	9,849.61	51.1005
10,196.8	87.6943	10,196.8	87.1039	10,196.8	87.6335	10,196.8	86.188	10,196.8	86.576	10,196.8	84.595	10,196.8	85.647	10,196.8	82.1025	10,196.8	84.0029	10,196.8	77.559	10,196.8	79.8633	10,196.8	74.5054	10,196.8	76.7721	10,196.8	70.3949	10,196.8	73.5752	10,196.8	67.1853	10,196.8	69.0641	10,196.8	63.6054	10,196.8	65.9854	10,196.8	51.7091	10,196.8	61.8643	10,196.8	57.7695	10,196.8	58.5651	10,196.8	64.1966	10,196.8	52.5334	10,196.8	56.6646	10,196.8	63.212	10,196.8	57.887	10,196.8	54.8431	10,196.8	63.4415	10,196.8	52.5991	10,196.8	58.7958	10,196.8	59.2437	10,196.8	61.0713	10,196.8	53.169	10,196.8	50.0983
10,555.7	87.64	10,555.7	86.936	10,555.7	87.2178	10,555.7	85.8476	10,555.7	86.503	10,555.7	84.212	10,555.7	85.2215	10,555.7	81.5723	10,555.7	83.4436	10,555.7	76.8396	10,555.7	79.1874	10,555.7	73.6116	10,555.7	76.014	10,555.7	68.8421	10,555.7	72.333	10,555.7	66.6384	10,555.7	68.3882	10,555.7	64.3742	10,555.7	64.895	10,555.7	58.4162	10,555.7	61.2563	10,555.7	48.1087	10,555.7	57.2185	10,555.7	62.204	10,555.7	54.1695	10,555.7	56.9365	10,555.7	61.5255	10,555.7	57.4582	10,555.7	58.0311	10,555.7	59.0877	10,555.7	52.2961	10,555.7	54.8872	10,555.7	58.682	10,555.7	59.8299	10,555.7	56.1455	10,555.7	51.0902
10,927.7	87.496	10,927.7	86.7332	10,927.7	87.0426	10,927.7	85.799	10,927.7	86.5009	10,927.7	83.8481	10,927.7	84.9674	10,927.7	80.9245	10,927.7	83.0483	10,927.7	76.0089	10,927.7	78.8385	10,927.7	72.386	10,927.7	74.9568	10,927.7	68.8589	10,927.7	71.1733	10,927.7	64.867	10,927.7	67.8476	10,927.7	61.5809	10,927.7	64.2313	10,927.7	60.2362	10,927.7	60.9508	10,927.7	60.5907	10,927.7	56.45	10,927.7	60.6785	10,927.7	57.2695	10,927.7	48.6134	10,927.7	61.9354	10,927.7	60.3329	10,927.7	58.5595	10,927.7	58.8837	10,927.7	49.8293	10,927.7	56.8619	10,927.7	58.1758	10,927.7	58.7466	10,927.7	58.9419	10,927.7	52.9572
11,313	87.3965	11,313	86.7478	11,313	87.3017	11,313	85.7508	11,313	86.5336	11,313	83.7105	11,313	85.0283	11,313	80.5694	11,313	82.7209	11,313	75.6718	11,313	78.6384	11,313	71.8595	11,313	73.8278	11,313	67.7841	11,313	70.7466	11,313	64.1992	11,313	66.8587	11,313	60.7128	11,313	63.631	11,313	57.5274	11,313	56.3857	11,313	53.6393	11,313	57.2181	11,313	50.0317	11,313	55.1997	11,313	42.7005	11,313	62.2062	11,313	60.5444	11,313	57.5713	11,313	57.9899	11,313	50.3515	11,313	50.7894	11,313	53.3466	11,313	51.5315	11,313	59.9311	11,313	52.1103
11,712.9	87.644	11,712.9	87.0027	11,712.9	87.4548	11,712.9	85.7963	11,712.9	86.5789	11,712.9	83.6937	11,712.9	84.9905	11,712.9	80.7336	11,712.9	82.5901	11,712.9	75.3099	11,712.9	78.3525	11,712.9	72.0853	11,712.9	74.029	11,712.9	67.0533	11,712.9	70.5277	11,712.9	63.3212	11,712.9	65.6097	11,712.9	60.7465	11,712.9	63.293	11,712.9	43.6639	11,712.9	58.9328	11,712.9	48.9243	11,712.9	55.9698	11,712.9	53.7645	11,712.9	40.9742	11,712.9	43.6486	11,712.9	63.5398	11,712.9	62.0276	11,712.9	53.4885	11,712.9	55.0279	11,712.9	48.8439	11,712.9	51.7692	11,712.9	59.4908	11,712.9	48.1212	11,712.9	61.1669	11,712.9	47.9239
12,126	87.7174	12,126	86.8772	12,126	87.2207	12,126	85.4777	12,126	86.2847	12,126	83.3476	12,126	84.8162	12,126	81.0166	12,126	82.4998	12,126	75.9386	12,126	78.2948	12,126	72.2561	12,126	74.5379	12,126	68.4016	12,126	71.0112	12,126	64.5258	12,126	67.7743	12,126	61.3146	12,126	63.5502	12,126	58.4619	12,126	59.9765	12,126	57.4425	12,126	56.1977	12,126	52.0434	12,126	52.4805	12,126	40.0495	12,126	59.4185	12,126	60.8255	12,126	55.5073	12,126	54.7623	12,126	53.4223	12,126	58.5572	12,126	57.196	12,126	44.9364	12,126	59.9589	12,126	38.7032
12,553.7	87.3808	12,553.7	86.6845	12,553.7	86.9506	12,553.7	85.4294	12,553.7	86.0226	12,553.7	83.14	12,553.7	84.5498	12,553.7	80.8191	12,553.7	82.5133	12,553.7	76.84	12,553.7	78.8549	12,553.7	72.2673	12,553.7	74.4439	12,553.7	69.7408	12,553.7	71.86	12,553.7	64.8275	12,553.7	68.1926	12,553.7	61.1487	12,553.7	63.2785	12,553.7	56.6063	12,553.7	59.0536	12,553.7	49.7704	12,553.7	53.73	12,553.7	52.3198	12,553.7	50.8859	12,553.7	37.6482	12,553.7	51.9349	12,553.7	58.4446	12,553.7	57.4823	12,553.7	54.8629	12,553.7	58.5061	12,553.7	57.7211	12,553.7	58.1812	12,553.7	53.3258	12,553.7	57.8986	12,553.7	34.9092
12,996.1	87.142	12,996.1	86.3819	12,996.1	87.126	12,996.1	85.4581	12,996.1	85.8918	12,996.1	83.2038	12,996.1	84.4876	12,996.1	80.5637	12,996.1	82.4623	12,996.1	76.6508	12,996.1	79.1162	12,996.1	73.0949	12,996.1	74.5961	12,996.1	69.4705	12,996.1	72.2194	12,996.1	65.0827	12,996.1	67.9284	12,996.1	61.4238	12,996.1	64.5219	12,996.1	50.6031	12,996.1	59.9332	12,996.1	38.1049	12,996.1	54.0913	12,996.1	47.8386	12,996.1	49.8336	12,996.1	41.2357	12,996.1	44.6252	12,996.1	55.5577	12,996.1	58.9687	12,996.1	56.5979	12,996.1	57.23	12,996.1	48.4441	12,996.1	60.4642	12,996.1	52.5142	12,996.1	59.9102	12,996.1	51.6965
13,454.6	87.1764	13,454.6	86.3863	13,454.6	87.1576	13,454.6	85.2089	13,454.6	85.8127	13,454.6	83.4923	13,454.6	84.5595	13,454.6	80.9358	13,454.6	82.3206	13,454.6	77.0205	13,454.6	78.9193	13,454.6	73.0678	13,454.6	75.0192	13,454.6	70.3219	13,454.6	72.1457	13,454.6	65.9331	13,454.6	68.6454	13,454.6	61.9694	13,454.6	64.8394	13,454.6	58.9696	13,454.6	59.2033	13,454.6	49.2843	13,454.6	55.8856	13,454.6	54.6851	13,454.6	51.7864	13,454.6	50.4415	13,454.6	44.6793	13,454.6	51.7502	13,454.6	55.9481	13,454.6	59.5948	13,454.6	58.8414	13,454.6	49.8857	13,454.6	59.769	13,454.6	56.7709	13,454.6	60.1025	13,454.6	50.4701
13,929.2	87.1215	13,929.2	86.3321	13,929.2	86.7019	13,929.2	85.311	13,929.2	85.9058	13,929.2	83.4217	13,929.2	84.603	13,929.2	81.1919	13,929.2	82.3267	13,929.2	77.6788	13,929.2	79.3346	13,929.2	72.9559	13,929.2	75.2471	13,929.2	70.3192	13,929.2	72.511	13,929.2	66.5297	13,929.2	68.922	13,929.2	62.1595	13,929.2	64.6034	13,929.2	53.1253	13,929.2	59.9231	13,929.2	46.019	13,929.2	57.4687	13,929.2	55.5254	13,929.2	52.7081	13,929.2	51.9707	13,929.2	57.4727	13,929.2	53.1949	13,929.2	52.3947	13,929.2	59.6513	13,929.2	55.2958	13,929.2	51.9821	13,929.2	60.1592	13,929.2	61.0263	13,929.2	60.3582	13,929.2	59.4827
14,419.9	87.2251	14,419.9	86.2875	14,419.9	86.9795	14,419.9	85.4689	14,419.9	85.853	14,419.9	83.7095	14,419.9	84.6574	14,419.9	81.3902	14,419.9	82.5532	14,419.9	78.0378	14,419.9	79.7501	14,419.9	73.5162	14,419.9	75.3429	14,419.9	70.2063	14,419.9	72.3568	14,419.9	65.8105	14,419.9	68.9481	14,419.9	61.5065	14,419.9	64.9361	14,419.9	53.4726	14,419.9	59.2812	14,419.9	45.8645	14,419.9	54.7252	14,419.9	57.2688	14,419.9	43.1429	14,419.9	56.919	14,419.9	52.1244	14,419.9	50.9661	14,419.9	48.6937	14,419.9	56.2268	14,419.9	53.6875	14,419.9	38.6179	14,419.9	61.3762	14,419.9	62.231	14,419.9	60.366	14,419.9	59.5342
14,928.2	87.4985	14,928.2	86.7833	14,928.2	87.1935	14,928.2	85.5846	14,928.2	86.1803	14,928.2	83.8643	14,928.2	84.664	14,928.2	81.1075	14,928.2	82.4338	14,928.2	77.5072	14,928.2	79.142	14,928.2	73.5836	14,928.2	75.5586	14,928.2	70.0215	14,928.2	72.1305	14,928.2	65.8776	14,928.2	68.5921	14,928.2	60.636	14,928.2	64.4154	14,928.2	56.1162	14,928.2	59.6775	14,928.2	53.3997	14,928.2	56.988	14,928.2	55.0012	14,928.2	51.5956	14,928.2	58.2244	14,928.2	49.329	14,928.2	49.4702	14,928.2	49.129	14,928.2	53.9724	14,928.2	52.1238	14,928.2	55.1642	14,928.2	60.5122	14,928.2	63.9276	14,928.2	53.4197	14,928.2	58.9275
15,455.6	87.0518	15,455.6	86.7992	15,455.6	86.8441	15,455.6	85.3754	15,455.6	86.1189	15,455.6	83.6916	15,455.6	84.4372	15,455.6	81.4997	15,455.6	82.558	15,455.6	78.3907	15,455.6	79.6502	15,455.6	74.9114	15,455.6	76.6784	15,455.6	71.2119	15,455.6	73.4324	15,455.6	66.3085	15,455.6	69.5519	15,455.6	60.3276	15,455.6	64.3613	15,455.6	57.4873	15,455.6	60.0059	15,455.6	51.4009	15,455.6	57.2683	15,455.6	55.3715	15,455.6	50.818	15,455.6	50.5927	15,455.6	52.2899	15,455.6	54.9089	15,455.6	58.1918	15,455.6	56.8388	15,455.6	58.3685	15,455.6	47.53	15,455.6	62.9304	15,455.6	61.4075	15,455.6	54.868	15,455.6	54.4338
16,000.5	86.9303	16,000.5	86.7077	16,000.5	86.654	16,000.5	85.8269	16,000.5	86.3104	16,000.5	84.0546	16,000.5	84.3665	16,000.5	81.6902	16,000.5	82.6559	16,000.5	78.5003	16,000.5	79.2947	16,000.5	74.6976	16,000.5	76.5222	16,000.5	70.2813	16,000.5	73.3636	16,000.5	65.4518	16,000.5	68.2412	16,000.5	59.672	16,000.5	65.1491	16,000.5	58.0051	16,000.5	60.024	16,000.5	53.9037	16,000.5	57.1237	16,000.5	50.9761	16,000.5	52.577	16,000.5	52.2681	16,000.5	22.788	16,000.5	56.4504	16,000.5	59.6363	16,000.5	49.3501	16,000.5	53.7994	16,000.5	57.2971	16,000.5	57.5176	16,000.5	62.0753	16,000.5	48.0115	16,000.5	56.2132
16,564.5	86.755	16,564.5	86.5962	16,564.5	86.5518	16,564.5	85.8994	16,564.5	86.2411	16,564.5	84.0342	16,564.5	84.4726	16,564.5	81.6779	16,564.5	82.591	16,564.5	78.0006	16,564.5	79.3872	16,564.5	74.399	16,564.5	76.8953	16,564.5	70.0684	16,564.5	73.3539	16,564.5	65.4639	16,564.5	69.3809	16,564.5	59.258	16,564.5	63.7914	16,564.5	45.3363	16,564.5	58.764	16,564.5	46.9845	16,564.5	54.5332	16,564.5	60.8937	16,564.5	45.1516	16,564.5	40.6073	16,564.5	52.7609	16,564.5	53.7693	16,564.5	44.2913	16,564.5	54.3223	16,564.5	55.1892	16,564.5	54.9823	16,564.5	55.0863	16,564.5	54.0967	16,564.5	57.5139	16,564.5	55.0347
17,148.9	86.6241	17,148.9	86.7942	17,148.9	86.1781	17,148.9	85.7735	17,148.9	86.0924	17,148.9	83.3892	17,148.9	84.357	17,148.9	80.2408	17,148.9	82.8118	17,148.9	77.4126	17,148.9	79.9538	17,148.9	73.6703	17,148.9	77.5234	17,148.9	69.6126	17,148.9	74.3181	17,148.9	64.7725	17,148.9	69.2534	17,148.9	58.022	17,148.9	64.6489	17,148.9	49.5078	17,148.9	59.5289	17,148.9	49.0191	17,148.9	55.1377	17,148.9	61.8844	17,148.9	40.3194	17,148.9	55.9147	17,148.9	45.4192	17,148.9	55.4411	17,148.9	46.3913	17,148.9	55.4002	17,148.9	54.3435	17,148.9	52.1085	17,148.9	53.6053	17,148.9	51.008	17,148.9	55.3013	17,148.9	46.5905
17,752.4	86.2635	17,752.4	86.1857	17,752.4	86.0029	17,752.4	85.2458	17,752.4	85.7632	17,752.4	82.5538	17,752.4	84.0085	17,752.4	79.1263	17,752.4	83.0303	17,752.4	77.2655	17,752.4	80.0684	17,752.4	74.1805	17,752.4	77.8295	17,752.4	70.9112	17,752.4	74.3249	17,752.4	64.9503	17,752.4	70.1216	17,752.4	57.9079	17,752.4	64.8627	17,752.4	47.2785	17,752.4	58.1788	17,752.4	42.3367	17,752.4	51.2865	17,752.4	59.2866	17,752.4	30.7313	17,752.4	52.9849	17,752.4	37.2164	17,752.4	53.4686	17,752.4	49.6204	17,752.4	55.3124	17,752.4	48.4384	17,752.4	48.4065	17,752.4	48.879	17,752.4	54.7071	17,752.4	56.456	17,752.4	35.991
18,379.4	85.8207	18,379.4	85.3521	18,379.4	85.6849	18,379.4	84.1137	18,379.4	85.3447	18,379.4	81.6493	18,379.4	83.3722	18,379.4	79.2857	18,379.4	82.2098	18,379.4	77.722	18,379.4	79.8629	18,379.4	75.2746	18,379.4	77.2321	18,379.4	71.267	18,379.4	74.164	18,379.4	66.1668	18,379.4	68.863	18,379.4	59.6914	18,379.4	63.5716	18,379.4	55.5102	18,379.4	58.217	18,379.4	48.5023	18,379.4	54.0533	18,379.4	48.591	18,379.4	46.5095	18,379.4	51.1989	18,379.4	52.0401	18,379.4	56.1212	18,379.4	55.4484	18,379.4	56.4443	18,379.4	38.5848	18,379.4	48.622	18,379.4	56.5237	18,379.4	56.2062	18,379.4	54.6662	18,379.4	52.2434
19,026.9	84.6169	19,026.9	84.5424	19,026.9	84.3684	19,026.9	82.9174	19,026.9	84.1923	19,026.9	80.4384	19,026.9	81.875	19,026.9	80.0412	19,026.9	80.8172	19,026.9	78.3716	19,026.9	78.5083	19,026.9	75.0947	19,026.9	75.2717	19,026.9	71.4985	19,026.9	73.055	19,026.9	66.8169	19,026.9	68.7533	19,026.9	61.166	19,026.9	63.1769	19,026.9	54.2235	19,026.9	58.2635	19,026.9	53.8709	19,026.9	54.791	19,026.9	51.6021	19,026.9	54.0233	19,026.9	40.3501	19,026.9	49.597	19,026.9	56.5858	19,026.9	44.9336	19,026.9	55.4049	19,026.9	48.8891	19,026.9	49.0307	19,026.9	59.4304	19,026.9	59.1704	19,026.9	52.3693	19,026.9	51.2983
19,697.8	83.1451	19,697.8	82.5637	19,697.8	82.9144	19,697.8	80.9981	19,697.8	82.1696	19,697.8	78.7505	19,697.8	79.3605	19,697.8	79.419	19,697.8	78.9991	19,697.8	77.5935	19,697.8	78.1691	19,697.8	73.8054	19,697.8	74.3677	19,697.8	70.2945	19,697.8	71.5141	19,697.8	65.2022	19,697.8	67.5991	19,697.8	58.9058	19,697.8	61.639	19,697.8	51.3052	19,697.8	57.0158	19,697.8	45.122	19,697.8	49.2802	19,697.8	46.9184	19,697.8	43.4034	19,697.8	45.4016	19,697.8	55.9437	19,697.8	49.8011	19,697.8	44.9433	19,697.8	55.5254	19,697.8	54.079	19,697.8	52.1668	19,697.8	60.7393	19,697.8	57.4428	19,697.8	56.8363	19,697.8	46.5882
19,999.5	83.185	19,999.5	81.7303	19,999.5	82.0664	19,999.5	80.1145	19,999.5	81.5771	19,999.5	77.3303	19,999.5	78.0072	19,999.5	78.8069	19,999.5	77.7499	19,999.5	77.5315	19,999.5	77.7335	19,999.5	71.911	19,999.5	73.8833	19,999.5	70.8042	19,999.5	69.2416	19,999.5	67.0653	19,999.5	68.5876	19,999.5	64.3847	19,999.5	61.8261	19,999.5	45.3014	19,999.5	53.9101	19,999.5	56.7505	19,999.5	49.1001	19,999.5	55.7977	19,999.5	46.1973	19,999.5	45.8268	19,999.5	53.0665	19,999.5	50.4236	19,999.5	49.5111	19,999.5	54.4272	19,999.5	56.5975	19,999.5	54.546	19,999.5	60.3031	19,999.5	61.6358	19,999.5	60.1904	19,999.5	43.0226
