"SPL Vertical"
"On-Axis"		"10°"		"-10°"		"20°"		"-20°"		"30°"		"-30°"		"40°"		"-40°"		"50°"		"-50°"		"60°"		"-60°"		"70°"		"-70°"		"80°"		"-80°"		"90°"		"-90°"		"100°"		"-100°"		"110°"		"-110°"		"120°"		"-120°"		"130°"		"-130°"		"140°"		"-140°"		"150°"		"-150°"		"160°"		"-160°"		"170°"		"-170°"		"180°"
"Frequency / Hz"	"Sound Pressure Level / dB (re 20 µPa/V)  [2.83  V @ 1. m]"	"Frequency / Hz"	"Sound Pressure Level / dB (re 20 µPa/V)  [2.83  V @ 1. m]"	"Frequency / Hz"	"Sound Pressure Level / dB (re 20 µPa/V)  [2.83  V @ 1. m]"	"Frequency / Hz"	"Sound Pressure Level / dB (re 20 µPa/V)  [2.83  V @ 1. m]"	"Frequency / Hz"	"Sound Pressure Level / dB (re 20 µPa/V)  [2.83  V @ 1. m]"	"Frequency / Hz"	"Sound Pressure Level / dB (re 20 µPa/V)  [2.83  V @ 1. m]"	"Frequency / Hz"	"Sound Pressure Level / dB (re 20 µPa/V)  [2.83  V @ 1. m]"	"Frequency / Hz"	"Sound Pressure Level / dB (re 20 µPa/V)  [2.83  V @ 1. m]"	"Frequency / Hz"	"Sound Pressure Level / dB (re 20 µPa/V)  [2.83  V @ 1. m]"	"Frequency / Hz"	"Sound Pressure Level / dB (re 20 µPa/V)  [2.83  V @ 1. m]"	"Frequency / Hz"	"Sound Pressure Level / dB (re 20 µPa/V)  [2.83  V @ 1. m]"	"Frequency / Hz"	"Sound Pressure Level / dB (re 20 µPa/V)  [2.83  V @ 1. m]"	"Frequency / Hz"	"Sound Pressure Level / dB (re 20 µPa/V)  [2.83  V @ 1. m]"	"Frequency / Hz"	"Sound Pressure Level / dB (re 20 µPa/V)  [2.83  V @ 1. m]"	"Frequency / Hz"	"Sound Pressure Level / dB (re 20 µPa/V)  [2.83  V @ 1. m]"	"Frequency / Hz"	"Sound Pressure Level / dB (re 20 µPa/V)  [2.83  V @ 1. m]"	"Frequency / Hz"	"Sound Pressure Level / dB (re 20 µPa/V)  [2.83  V @ 1. m]"	"Frequency / Hz"	"Sound Pressure Level / dB (re 20 µPa/V)  [2.83  V @ 1. m]"	"Frequency / Hz"	"Sound Pressure Level / dB (re 20 µPa/V)  [2.83  V @ 1. m]"	"Frequency / Hz"	"Sound Pressure Level / dB (re 20 µPa/V)  [2.83  V @ 1. m]"	"Frequency / Hz"	"Sound Pressure Level / dB (re 20 µPa/V)  [2.83  V @ 1. m]"	"Frequency / Hz"	"Sound Pressure Level / dB (re 20 µPa/V)  [2.83  V @ 1. m]"	"Frequency / Hz"	"Sound Pressure Level / dB (re 20 µPa/V)  [2.83  V @ 1. m]"	"Frequency / Hz"	"Sound Pressure Level / dB (re 20 µPa/V)  [2.83  V @ 1. m]"	"Frequency / Hz"	"Sound Pressure Level / dB (re 20 µPa/V)  [2.83  V @ 1. m]"	"Frequency / Hz"	"Sound Pressure Level / dB (re 20 µPa/V)  [2.83  V @ 1. m]"	"Frequency / Hz"	"Sound Pressure Level / dB (re 20 µPa/V)  [2.83  V @ 1. m]"	"Frequency / Hz"	"Sound Pressure Level / dB (re 20 µPa/V)  [2.83  V @ 1. m]"	"Frequency / Hz"	"Sound Pressure Level / dB (re 20 µPa/V)  [2.83  V @ 1. m]"	"Frequency / Hz"	"Sound Pressure Level / dB (re 20 µPa/V)  [2.83  V @ 1. m]"	"Frequency / Hz"	"Sound Pressure Level / dB (re 20 µPa/V)  [2.83  V @ 1. m]"	"Frequency / Hz"	"Sound Pressure Level / dB (re 20 µPa/V)  [2.83  V @ 1. m]"	"Frequency / Hz"	"Sound Pressure Level / dB (re 20 µPa/V)  [2.83  V @ 1. m]"	"Frequency / Hz"	"Sound Pressure Level / dB (re 20 µPa/V)  [2.83  V @ 1. m]"	"Frequency / Hz"	"Sound Pressure Level / dB (re 20 µPa/V)  [2.83  V @ 1. m]"	"Frequency / Hz"	"Sound Pressure Level / dB (re 20 µPa/V)  [2.83  V @ 1. m]"
20.5078	70.8084	20.5078	70.2253	20.5078	71.4175	20.5078	69.6805	20.5078	72.0343	20.5078	69.1822	20.5078	72.6331	20.5078	68.7352	20.5078	73.1812	20.5078	68.3421	20.5078	73.6409	20.5078	68.0037	20.5078	73.9731	20.5078	67.7196	20.5078	74.1421	20.5078	67.4889	20.5078	74.1203	20.5078	67.3101	20.5078	73.8923	20.5078	67.1821	20.5078	73.4588	20.5078	67.1036	20.5078	72.8405	20.5078	67.0739	20.5078	72.0801	20.5078	67.0921	20.5078	71.2408	20.5078	67.1586	20.5078	70.3976	20.5078	67.2752	20.5078	69.62	20.5078	67.4471	20.5078	68.9549	20.5078	67.6838	20.5078	68.4179	20.5078	68.0008
21.9727	74.5234	21.9727	73.9686	21.9727	75.1009	21.9727	73.4487	21.9727	75.6837	21.9727	72.9716	21.9727	76.2478	21.9727	72.5424	21.9727	76.7629	21.9727	72.1641	21.9727	77.1939	21.9727	71.838	21.9727	77.5045	21.9727	71.5641	21.9727	77.6612	21.9727	71.3418	21.9727	77.6381	21.9727	71.1699	21.9727	77.4204	21.9727	71.0472	21.9727	77.0089	21.9727	70.9725	21.9727	76.4229	21.9727	70.9443	21.9727	75.7023	21.9727	70.9617	21.9727	74.9062	21.9727	71.0244	21.9727	74.1047	21.9727	71.1342	21.9727	73.3638	21.9727	71.2958	21.9727	72.7287	21.9727	71.519	21.9727	72.2162	21.9727	71.8192
23.4375	77.5041	23.4375	76.9899	23.4375	78.0399	23.4375	76.5084	23.4375	78.5813	23.4375	76.0668	23.4375	79.106	23.4375	75.6696	23.4375	79.5854	23.4375	75.3194	23.4375	79.9862	23.4375	75.0176	23.4375	80.2741	23.4375	74.7645	23.4375	80.4172	23.4375	74.56	23.4375	80.3913	23.4375	74.4035	23.4375	80.1841	23.4375	74.2946	23.4375	79.7983	23.4375	74.2326	23.4375	79.2554	23.4375	74.2169	23.4375	78.5963	23.4375	74.2467	23.4375	77.8778	23.4375	74.3217	23.4375	77.1634	23.4375	74.4423	23.4375	76.5083	23.4375	74.6111	23.4375	75.9463	23.4375	74.834	23.4375	75.4867	23.4375	75.121
24.9023	80.344	24.9023	79.8523	24.9023	80.8545	24.9023	79.39	24.9023	81.3682	24.9023	78.9646	24.9023	81.8642	24.9023	78.5809	24.9023	82.3159	24.9023	78.242	24.9023	82.6921	24.9023	77.9497	24.9023	82.9606	24.9023	77.7046	24.9023	83.0916	24.9023	77.5071	24.9023	83.0626	24.9023	77.3571	24.9023	82.8623	24.9023	77.2544	24.9023	82.4947	24.9023	77.1987	24.9023	81.9816	24.9023	77.1896	24.9023	81.3629	24.9023	77.2266	24.9023	80.693	24.9023	77.3092	24.9023	80.0304	24.9023	77.4373	24.9023	79.424	24.9023	77.612	24.9023	78.9017	24.9023	77.8368	24.9023	78.4695	24.9023	78.1189
26.3672	83.1804	26.3672	82.7277	26.3672	83.6498	26.3672	82.3015	26.3672	84.1221	26.3672	81.9082	26.3672	84.5776	26.3672	81.5521	26.3672	84.9915	26.3672	81.2357	26.3672	85.3343	26.3672	80.9606	26.3672	85.5754	26.3672	80.7277	26.3672	85.6866	26.3672	80.5375	26.3672	85.6467	26.3672	80.3903	26.3672	85.446	26.3672	80.2864	26.3672	85.0895	26.3672	80.2258	26.3672	84.5997	26.3672	80.2087	26.3672	84.0165	26.3672	80.2349	26.3672	83.3918	26.3672	80.3042	26.3672	82.78	26.3672	80.4168	26.3672	82.2241	26.3672	80.5735	26.3672	81.7474	26.3672	80.7773	26.3672	81.3536	26.3672	81.0342
27.832	85.6644	27.832	85.2291	27.832	86.1128	27.832	84.8166	27.832	86.5611	27.832	84.4333	27.832	86.9911	27.832	84.0841	27.832	87.3798	27.832	83.7722	27.832	87.7	27.832	83.5002	27.832	87.9235	27.832	83.2698	27.832	88.0246	27.832	83.0824	27.832	87.9844	27.832	82.9391	27.832	87.7951	27.832	82.8408	27.832	87.4633	27.832	82.7882	27.832	87.0115	27.832	82.7817	27.832	86.4775	27.832	82.8212	27.832	85.9082	27.832	82.9063	27.832	85.3504	27.832	83.0361	27.832	84.8393	27.832	83.2102	27.832	84.3929	27.832	83.4289	27.832	84.0135	27.832	83.6948
29.2969	87.4886	29.2969	87.0789	29.2969	87.9104	29.2969	86.6907	29.2969	88.3314	29.2969	86.3302	29.2969	88.7341	29.2969	86.0019	29.2969	89.0961	29.2969	85.709	29.2969	89.3916	29.2969	85.4534	29.2969	89.5937	29.2969	85.2366	29.2969	89.6782	29.2969	85.06	29.2969	89.6278	29.2969	84.9243	29.2969	89.4364	29.2969	84.8304	29.2969	89.1119	29.2969	84.779	29.2969	88.678	29.2969	84.7705	29.2969	88.1721	29.2969	84.805	29.2969	87.6397	29.2969	84.8823	29.2969	87.1237	29.2969	85.0016	29.2969	86.655	29.2969	85.1622	29.2969	86.2474	29.2969	85.3641	29.2969	85.9009	29.2969	85.6088
30.7617	88.5264	30.7617	88.1334	30.7617	88.9293	30.7617	87.7591	30.7617	89.3297	30.7617	87.41	30.7617	89.7108	30.7617	87.0906	30.7617	90.0516	30.7617	86.8044	30.7617	90.3276	30.7617	86.5538	30.7617	90.5133	30.7617	86.3406	30.7617	90.5864	30.7617	86.1665	30.7617	90.531	30.7617	86.0328	30.7617	90.3426	30.7617	85.9406	30.7617	90.0303	30.7617	85.8908	30.7617	89.6182	30.7617	85.8842	30.7617	89.1431	30.7617	85.9213	30.7617	88.6472	30.7617	86.0017	30.7617	88.1687	30.7617	86.1246	30.7617	87.7332	30.7617	86.2887	30.7617	87.3508	30.7617	86.4924	30.7617	87.0201	30.7617	86.7356
32.2266	88.7893	32.2266	88.4025	32.2266	89.1854	32.2266	88.0341	32.2266	89.5784	32.2266	87.6907	32.2266	89.9514	32.2266	87.377	32.2266	90.2837	32.2266	87.0964	32.2266	90.5513	32.2266	86.8516	32.2266	90.7296	32.2266	86.6445	32.2266	90.7971	32.2266	86.4769	32.2266	90.7394	32.2266	86.3502	32.2266	90.5533	32.2266	86.2658	32.2266	90.2499	32.2266	86.2251	32.2266	89.8547	32.2266	86.2289	32.2266	89.4047	32.2266	86.2776	32.2266	88.9408	32.2266	86.3708	32.2266	88.4972	32.2266	86.5069	32.2266	88.0941	32.2266	86.6831	32.2266	87.7368	32.2266	86.8958	32.2266	87.4214	32.2266	87.1421
33.6914	88.2462	33.6914	87.868	33.6914	88.6344	33.6914	87.5086	33.6914	89.0205	33.6914	87.1745	33.6914	89.3885	33.6914	86.8701	33.6914	89.7183	33.6914	86.5988	33.6914	89.9868	33.6914	86.3631	33.6914	90.1701	33.6914	86.165	33.6914	90.2469	33.6914	86.0064	33.6914	90.2038	33.6914	85.8889	33.6914	90.0389	33.6914	85.814	33.6914	89.7647	33.6914	85.7831	33.6914	89.4074	33.6914	85.7975	33.6914	89.0017	33.6914	85.8581	33.6914	88.5824	33.6914	85.965	33.6914	88.1751	33.6914	86.1174	33.6914	87.7933	33.6914	86.3128	33.6914	87.44	33.6914	86.5472	33.6914	87.1142	33.6914	86.8159
35.1562	88.1163	35.1562	87.7499	35.1562	88.4906	35.1562	87.4004	35.1562	88.8611	35.1562	87.0741	35.1562	89.2122	35.1562	86.7759	35.1562	89.5246	35.1562	86.509	35.1562	89.7762	35.1562	86.2761	35.1562	89.944	35.1562	86.0793	35.1562	90.0081	35.1562	85.9203	35.1562	89.9557	35.1562	85.8006	35.1562	89.7855	35.1562	85.7215	35.1562	89.51	35.1562	85.6844	35.1562	89.1547	35.1562	85.6903	35.1562	88.7533	35.1562	85.7399	35.1562	88.3393	35.1562	85.8336	35.1562	87.9383	35.1562	85.9708	35.1562	87.5637	35.1562	86.1498	35.1562	87.2195	35.1562	86.3676	35.1562	86.9051	35.1562	86.6206
36.6211	88.0214	36.6211	87.6633	36.6211	88.3858	36.6211	87.3204	36.6211	88.7445	36.6211	86.9995	36.6211	89.0824	36.6211	86.7054	36.6211	89.3805	36.6211	86.4417	36.6211	89.6176	36.6211	86.2114	36.6211	89.7722	36.6211	86.0165	36.6211	89.8258	36.6211	85.8589	36.6211	89.7675	36.6211	85.74	36.6211	89.5974	36.6211	85.6613	36.6211	89.3288	36.6211	85.6238	36.6211	88.9869	36.6211	85.6286	36.6211	88.6035	36.6211	85.6766	36.6211	88.2094	36.6211	85.7682	36.6211	87.8267	36.6211	85.9031	36.6211	87.4669	36.6211	86.0798	36.6211	87.1331	36.6211	86.2952	36.6211	86.8255	36.6211	86.5452
38.0859	87.7624	38.0859	87.4073	38.0859	88.1223	38.0859	87.0663	38.0859	88.4752	38.0859	86.7462	38.0859	88.8058	38.0859	86.4521	38.0859	89.0959	38.0859	86.1881	38.0859	89.3247	38.0859	85.957	38.0859	89.4715	38.0859	85.7613	38.0859	89.5191	38.0859	85.603	38.0859	89.4575	38.0859	85.4835	38.0859	89.2882	38.0859	85.4043	38.0859	89.0251	38.0859	85.3666	38.0859	88.6935	38.0859	85.3717	38.0859	88.324	38.0859	85.4205	38.0859	87.9451	38.0859	85.5137	38.0859	87.5762	38.0859	85.6514	38.0859	87.2261	38.0859	85.8319	38.0859	86.8972	38.0859	86.052	38.0859	86.5899	38.0859	86.3066
39.5508	87.5233	39.5508	87.1737	39.5508	87.8759	39.5508	86.8364	39.5508	88.2198	39.5508	86.5183	39.5508	88.5401	39.5508	86.2249	39.5508	88.8188	39.5508	85.9603	39.5508	89.0358	39.5508	85.7276	39.5508	89.1712	39.5508	85.5296	39.5508	89.2082	39.5508	85.3682	39.5508	89.1378	39.5508	85.2451	39.5508	88.962	39.5508	85.1619	39.5508	88.6953	39.5508	85.1196	39.5508	88.3634	39.5508	85.1197	39.5508	87.997	39.5508	85.1631	39.5508	87.6239	39.5508	85.2508	39.5508	87.2625	39.5508	85.3829	39.5508	86.9205	39.5508	85.5579	39.5508	86.5991	39.5508	85.7724	39.5508	86.2986	39.5508	86.0213
41.0156	87.3563	41.0156	87.0133	41.0156	87.7015	41.0156	86.6819	41.0156	88.0371	41.0156	86.3694	41.0156	88.3484	41.0156	86.0814	41.0156	88.6175	41.0156	85.8226	41.0156	88.8251	41.0156	85.5964	41.0156	88.9519	41.0156	85.4058	41.0156	88.9821	41.0156	85.2528	41.0156	88.9079	41.0156	85.1391	41.0156	88.7326	41.0156	85.066	41.0156	88.4721	41.0156	85.0342	41.0156	88.1528	41.0156	85.0446	41.0156	87.8052	41.0156	85.0975	41.0156	87.4557	41.0156	85.1932	41.0156	87.1204	41.0156	85.3306	41.0156	86.8042	41.0156	85.5075	41.0156	86.5061	41.0156	85.7194	41.0156	86.2243	41.0156	85.9605
42.4805	87.0947	42.4805	86.7507	42.4805	87.4381	42.4805	86.4155	42.4805	87.769	42.4805	86.0964	42.4805	88.0731	42.4805	85.7994	42.4805	88.3329	42.4805	85.5295	42.4805	88.5297	42.4805	85.2906	42.4805	88.6447	42.4805	85.0863	42.4805	88.6629	42.4805	84.9194	42.4805	88.577	42.4805	84.7923	42.4805	88.391	42.4805	84.7069	42.4805	88.1212	42.4805	84.6647	42.4805	87.7944	42.4805	84.6669	42.4805	87.4413	42.4805	84.7141	42.4805	87.0881	42.4805	84.8063	42.4805	86.75	42.4805	84.9426	42.4805	86.4314	42.4805	85.1201	42.4805	86.1304	42.4805	85.3341	42.4805	85.8454	42.4805	85.5782
43.9453	86.7705	43.9453	86.4215	43.9453	87.1164	43.9453	86.0788	43.9453	87.4474	43.9453	85.7501	43.9453	87.7489	43.9453	85.4418	43.9453	88.0038	43.9453	85.1592	43.9453	88.1934	43.9453	84.9069	43.9453	88.2993	43.9453	84.6891	43.9453	88.3068	43.9453	84.5094	43.9453	88.2092	43.9453	84.3707	43.9453	88.0107	43.9453	84.2756	43.9453	87.7286	43.9453	84.2259	43.9453	87.3906	43.9453	84.2229	43.9453	87.0281	43.9453	84.2672	43.9453	86.6676	43.9453	84.3584	43.9453	86.3241	43.9453	84.4951	43.9453	86.0012	43.9453	84.6743	43.9453	85.6967	43.9453	84.8908	43.9453	85.4083	43.9453	85.1378
45.4102	86.5739	45.4102	86.2176	45.4102	86.9237	45.4102	85.8641	45.4102	87.2553	45.4102	85.5213	45.4102	87.5545	45.4102	85.1954	45.4102	87.8043	45.4102	84.892	45.4102	87.9861	45.4102	84.6161	45.4102	88.0816	45.4102	84.3724	45.4102	88.0761	45.4102	84.1651	45.4102	87.9626	45.4102	83.9984	45.4102	87.7454	45.4102	83.8755	45.4102	87.4414	45.4102	83.7996	45.4102	87.0786	45.4102	83.7729	45.4102	86.6888	45.4102	83.7971	45.4102	86.2994	45.4102	83.8727	45.4102	85.9268	45.4102	83.9993	45.4102	85.576	45.4102	84.1745	45.4102	85.2461	45.4102	84.3937	45.4102	84.9366	45.4102	84.6503
46.875	86.5653	46.875	86.2176	46.875	86.9057	46.875	85.8714	46.875	87.2277	46.875	85.5338	46.875	87.5174	46.875	85.2104	46.875	87.7583	46.875	84.9063	46.875	87.9321	46.875	84.6257	46.875	88.0205	46.875	84.3729	46.875	88.0089	46.875	84.1519	46.875	87.8898	46.875	83.9666	46.875	87.6668	46.875	83.8206	46.875	87.3556	46.875	83.7176	46.875	86.9824	46.875	83.6612	46.875	86.5777	46.875	83.6546	46.875	86.1684	46.875	83.7009	46.875	85.7719	46.875	83.8019	46.875	85.396	46.875	83.9578	46.875	85.0434	46.875	84.1662	46.875	84.7167	46.875	84.4217
48.3398	86.4326	48.3398	86.0881	48.3398	86.7717	48.3398	85.7469	48.3398	87.0939	48.3398	85.4162	48.3398	87.3854	48.3398	85.1017	48.3398	87.6297	48.3398	84.8081	48.3398	87.8087	48.3398	84.5396	48.3398	87.9047	48.3398	84.3	48.3398	87.9035	48.3398	84.0929	48.3398	87.7984	48.3398	83.9216	48.3398	87.5932	48.3398	83.7896	48.3398	87.3034	48.3398	83.7003	48.3398	86.954	48.3398	83.6568	48.3398	86.5736	48.3398	83.6626	48.3398	86.1864	48.3398	83.7203	48.3398	85.8076	48.3398	83.8318	48.3398	85.4439	48.3398	83.9972	48.3398	85.0976	48.3398	84.2135	48.3398	84.7724	48.3398	84.4747
51.2695	86.2703	51.2695	85.9383	51.2695	86.5975	51.2695	85.611	51.2695	86.9085	51.2695	85.2958	51.2695	87.1894	51.2695	84.9987	51.2695	87.4244	51.2695	84.7247	51.2695	87.5962	51.2695	84.4781	51.2695	87.6887	51.2695	84.2624	51.2695	87.6898	51.2695	84.081	51.2695	87.5951	51.2695	83.9367	51.2695	87.411	51.2695	83.8322	51.2695	87.1545	51.2695	83.7702	51.2695	86.8505	51.2695	83.7531	51.2695	86.5244	51.2695	83.7835	51.2695	86.1949	51.2695	83.8632	51.2695	85.8708	51.2695	83.9929	51.2695	85.5535	51.2695	84.1714	51.2695	85.2422	51.2695	84.3943	51.2695	84.9399	51.2695	84.6539
52.7344	86.1934	52.7344	85.8678	52.7344	86.5126	52.7344	85.5452	52.7344	86.8139	52.7344	85.2336	52.7344	87.0836	52.7344	84.9392	52.7344	87.3061	52.7344	84.6674	52.7344	87.4646	52.7344	84.4227	52.7344	87.5437	52.7344	84.2091	52.7344	87.5321	52.7344	84.03	52.7344	87.4268	52.7344	83.8885	52.7344	87.2356	52.7344	83.7873	52.7344	86.9777	52.7344	83.7291	52.7344	86.6796	52.7344	83.7161	52.7344	86.3671	52.7344	83.7504	52.7344	86.0578	52.7344	83.8335	52.7344	85.7576	52.7344	83.9653	52.7344	85.4644	52.7344	84.1438	52.7344	85.1747	52.7344	84.3635	52.7344	84.8896	52.7344	84.6157
54.1992	85.9378	54.1992	85.6063	54.1992	86.2604	54.1992	85.2762	54.1992	86.5623	54.1992	84.9567	54.1992	86.8302	54.1992	84.6556	54.1992	87.0491	54.1992	84.3798	54.1992	87.2033	54.1992	84.135	54.1992	87.2781	54.1992	83.9257	54.1992	87.263	54.1992	83.7552	54.1992	87.1548	54.1992	83.6257	54.1992	86.961	54.1992	83.5382	54.1992	86.6992	54.1992	83.4928	54.1992	86.394	54.1992	83.489	54.1992	86.0696	54.1992	83.5261	54.1992	85.7438	54.1992	83.6031	54.1992	85.4255	54.1992	83.7193	54.1992	85.118	54.1992	83.8739	54.1992	84.8233	54.1992	84.0654	54.1992	84.5456	54.1992	84.2909
55.6641	85.8708	55.6641	85.5352	55.6641	86.1981	55.6641	85.2019	55.6641	86.5046	55.6641	84.8804	55.6641	86.7765	55.6641	84.579	55.6641	86.9988	55.6641	84.3046	55.6641	87.1556	55.6641	84.0628	55.6641	87.2322	55.6641	83.8581	55.6641	87.2181	55.6641	83.6933	55.6641	87.11	55.6641	83.5702	55.6641	86.9154	55.6641	83.4892	55.6641	86.6516	55.6641	83.4497	55.6641	86.3432	55.6641	83.4508	55.6641	86.0147	55.6641	83.4909	55.6641	85.6845	55.6641	83.5686	55.6641	85.3626	55.6641	83.6829	55.6641	85.0534	55.6641	83.8331	55.6641	84.7597	55.6641	84.0184	55.6641	84.4859	55.6641	84.2371
58.5938	85.9525	58.5938	85.6096	58.5938	86.2862	58.5938	85.2685	58.5938	86.598	58.5938	84.939	58.5938	86.8739	58.5938	84.6298	58.5938	87.0988	58.5938	84.3485	58.5938	87.2568	58.5938	84.1014	58.5938	87.3336	58.5938	83.8933	58.5938	87.3193	58.5938	83.7277	58.5938	87.2112	58.5938	83.6065	58.5938	87.0171	58.5938	83.5299	58.5938	86.7545	58.5938	83.4971	58.5938	86.4472	58.5938	83.5062	58.5938	86.1191	58.5938	83.5549	58.5938	85.788	58.5938	83.6408	58.5938	85.464	58.5938	83.7621	58.5938	85.1518	58.5938	83.9177	58.5938	84.8553	58.5938	84.1067	58.5938	84.579	58.5938	84.328
60.0586	85.9168	60.0586	85.5728	60.0586	86.2506	60.0586	85.2299	60.0586	86.561	60.0586	84.8986	60.0586	86.8341	60.0586	84.588	60.0586	87.0546	60.0586	84.3061	60.0586	87.2072	60.0586	84.0594	60.0586	87.2784	60.0586	83.8531	60.0586	87.2596	60.0586	83.6907	60.0586	87.1495	60.0586	83.5739	60.0586	86.9573	60.0586	83.5028	60.0586	86.7013	60.0586	83.4762	60.0586	86.4051	60.0586	83.4919	60.0586	86.0907	60.0586	83.5471	60.0586	85.7735	60.0586	83.6392	60.0586	85.4614	60.0586	83.7659	60.0586	85.1579	60.0586	83.9259	60.0586	84.8665	60.0586	84.1181	60.0586	84.5923	60.0586	84.3412
62.9883	85.989	62.9883	85.6316	62.9883	86.33	62.9883	85.2696	62.9883	86.6416	62.9883	84.9141	62.9883	86.91	62.9883	84.5752	62.9883	87.1204	62.9883	84.2618	62.9883	87.2583	62.9883	83.982	62.9883	87.311	62.9883	83.7421	62.9883	87.2701	62.9883	83.5472	62.9883	87.1352	62.9883	83.4002	62.9883	86.9155	62.9883	83.3023	62.9883	86.6299	62.9883	83.2529	62.9883	86.3025	62.9883	83.2502	62.9883	85.9564	62.9883	83.2912	62.9883	85.6082	62.9883	83.3729	62.9883	85.2668	62.9883	83.493	62.9883	84.9373	62.9883	83.65	62.9883	84.6243	62.9883	83.8432	62.9883	84.3337	62.9883	84.0718
64.4531	86.1236	64.4531	85.7664	64.4531	86.4644	64.4531	85.4043	64.4531	86.7759	64.4531	85.0482	64.4531	87.0449	64.4531	84.708	64.4531	87.257	64.4531	84.3927	64.4531	87.3985	64.4531	84.1099	64.4531	87.4572	64.4531	83.8661	64.4531	87.4255	64.4531	83.6659	64.4531	87.3029	64.4531	83.5126	64.4531	87.098	64.4531	83.4077	64.4531	86.8276	64.4531	83.3511	64.4531	86.5127	64.4531	83.3417	64.4531	86.1731	64.4531	83.3776	64.4531	85.8229	64.4531	83.4568	64.4531	85.4706	64.4531	83.5781	64.4531	85.1228	64.4531	83.741	64.4531	84.7872	64.4531	83.9454	64.4531	84.4734	64.4531	84.1906
67.3828	86.1949	67.3828	85.837	67.3828	86.5355	67.3828	85.4741	67.3828	86.8457	67.3828	85.1177	67.3828	87.1125	67.3828	84.7787	67.3828	87.3228	67.3828	84.467	67.3828	87.4643	67.3828	84.1911	67.3828	87.5274	67.3828	83.9579	67.3828	87.5073	67.3828	83.7724	67.3828	87.4063	67.3828	83.6377	67.3828	87.235	67.3828	83.555	67.3828	87.0103	67.3828	83.5238	67.3828	86.7501	67.3828	83.5424	67.3828	86.4677	67.3828	83.6084	67.3828	86.1695	67.3828	83.7196	67.3828	85.8572	67.3828	83.874	67.3828	85.5331	67.3828	84.0701	67.3828	85.2042	67.3828	84.3063	67.3828	84.882	67.3828	84.5792
68.8477	86.3033	68.8477	85.9501	68.8477	86.6366	68.8477	85.5895	68.8477	86.9375	68.8477	85.2335	68.8477	87.193	68.8477	84.8933	68.8477	87.3907	68.8477	84.5795	68.8477	87.5194	68.8477	84.3014	68.8477	87.5705	68.8477	84.0668	68.8477	87.5406	68.8477	83.8814	68.8477	87.4336	68.8477	83.749	68.8477	87.2619	68.8477	83.6711	68.8477	87.0435	68.8477	83.6471	68.8477	86.7967	68.8477	83.6752	68.8477	86.5337	68.8477	83.7523	68.8477	86.2585	68.8477	83.875	68.8477	85.9701	68.8477	84.0398	68.8477	85.6685	68.8477	84.2438	68.8477	85.3585	68.8477	84.4837	68.8477	85.05	68.8477	84.7549
71.7773	86.4565	71.7773	86.1141	71.7773	86.7754	71.7773	85.7607	71.7773	87.0581	71.7773	85.4089	71.7773	87.2918	71.7773	85.0706	71.7773	87.4647	71.7773	84.7573	71.7773	87.5662	71.7773	84.4791	71.7773	87.5895	71.7773	84.2449	71.7773	87.5335	71.7773	84.0612	71.7773	87.4061	71.7773	83.9327	71.7773	87.2241	71.7773	83.8613	71.7773	87.0098	71.7773	83.8466	71.7773	86.7832	71.7773	83.8863	71.7773	86.5547	71.7773	83.9762	71.7773	86.3234	71.7773	84.1113	71.7773	86.0818	71.7773	84.2864	71.7773	85.8242	71.7773	84.496	71.7773	85.5518	71.7773	84.7348	71.7773	85.2721	71.7773	84.9963
74.707	86.6186	74.707	86.283	74.707	86.9279	74.707	85.9338	74.707	87.1984	74.707	85.5833	74.707	87.4174	74.707	85.2433	74.707	87.5727	74.707	84.9253	74.707	87.6538	74.707	84.6396	74.707	87.6536	74.707	84.3955	74.707	87.5715	74.707	84.2002	74.707	87.416	74.707	84.0588	74.707	87.2056	74.707	83.9741	74.707	86.9652	74.707	83.9462	74.707	86.7179	74.707	83.9727	74.707	86.4769	74.707	84.0495	74.707	86.2418	74.707	84.1709	74.707	86.0046	74.707	84.331	74.707	85.7581	74.707	84.5238	74.707	85.5015	74.707	84.7439	74.707	85.2409	74.707	84.9854
77.6367	86.7238	77.6367	86.3941	77.6367	87.0269	77.6367	86.0507	77.6367	87.29	77.6367	85.7063	77.6367	87.4999	77.6367	85.3731	77.6367	87.6441	77.6367	85.0621	77.6367	87.7121	77.6367	84.7834	77.6367	87.697	77.6367	84.5452	77.6367	87.5988	77.6367	84.3539	77.6367	87.4271	77.6367	84.2137	77.6367	87.2024	77.6367	84.1266	77.6367	86.9515	77.6367	84.0925	77.6367	86.6994	77.6367	84.1095	77.6367	86.4593	77.6367	84.1738	77.6367	86.2301	77.6367	84.2808	77.6367	86.0022	77.6367	84.4254	77.6367	85.7668	77.6367	84.6025	77.6367	85.5226	77.6367	84.8071	77.6367	85.2751	77.6367	85.0337
79.1016	86.7791	79.1016	86.445	79.1016	87.0846	79.1016	86.0959	79.1016	87.3481	79.1016	85.7448	79.1016	87.556	79.1016	85.4044	79.1016	87.696	79.1016	85.0863	79.1016	87.7572	79.1016	84.8012	79.1016	87.7331	79.1016	84.5579	79.1016	87.6238	79.1016	84.3629	79.1016	87.4398	79.1016	84.2209	79.1016	87.2021	79.1016	84.1335	79.1016	86.9392	79.1016	84.1005	79.1016	86.6776	79.1016	84.1192	79.1016	86.4318	79.1016	84.1854	79.1016	86.2013	79.1016	84.2937	79.1016	85.9761	79.1016	84.4384	79.1016	85.7464	79.1016	84.6139	79.1016	85.5096	79.1016	84.8149	79.1016	85.2701	79.1016	85.0358
82.0312	86.8923	82.0312	86.5442	82.0312	87.2066	82.0312	86.1767	82.0312	87.4734	82.0312	85.8045	82.0312	87.68	82.0312	85.4422	82.0312	87.815	82.0312	85.1037	82.0312	87.8692	82.0312	84.8017	82.0312	87.8373	82.0312	84.5466	82.0312	87.7191	82.0312	84.3461	82.0312	87.5226	82.0312	84.2045	82.0312	87.2638	82.0312	84.1223	82.0312	86.9656	82.0312	84.0967	82.0312	86.6515	82.0312	84.1216	82.0312	86.3401	82.0312	84.1891	82.0312	86.0425	82.0312	84.29	82.0312	85.7642	82.0312	84.4155	82.0312	85.5085	82.0312	84.5584	82.0312	85.2773	82.0312	84.7147	82.0312	85.0704	82.0312	84.8843
84.9609	86.9057	84.9609	86.5661	84.9609	87.2123	84.9609	86.2069	84.9609	87.4728	84.9609	85.842	84.9609	87.6747	84.9609	85.4845	84.9609	87.807	84.9609	85.1474	84.9609	87.8609	84.9609	84.842	84.9609	87.8311	84.9609	84.5782	84.9609	87.718	84.9609	84.3636	84.9609	87.5296	84.9609	84.2028	84.9609	87.2815	84.9609	84.0976	84.9609	86.9947	84.9609	84.0469	84.9609	86.6898	84.9609	84.047	84.9609	86.3817	84.9609	84.0923	84.9609	86.0782	84.9609	84.1762	84.9609	85.7837	84.9609	84.292	84.9609	85.5028	84.9609	84.4344	84.9609	85.2409	84.9609	84.6004	84.9609	85.0026	84.9609	84.7894
87.8906	86.8127	87.8906	86.4579	87.8906	87.1355	87.8906	86.0865	87.8906	87.4113	87.8906	85.7141	87.8906	87.6265	87.8906	85.3555	87.8906	87.7693	87.8906	85.0244	87.8906	87.8307	87.8906	84.7325	87.8906	87.8061	87.8906	84.4887	87.8906	87.6973	87.8906	84.2991	87.8906	87.514	87.8906	84.1662	87.8906	87.2736	87.8906	84.0897	87.8906	86.998	87.8906	84.0664	87.8906	86.7081	87.8906	84.0916	87.8906	86.4179	87.8906	84.1589	87.8906	86.1342	87.8906	84.2616	87.8906	85.86	87.8906	84.3933	87.8906	85.5979	87.8906	84.5481	87.8906	85.3516	87.8906	84.7222	87.8906	85.1234	87.8906	84.9138
90.8203	86.9944	90.8203	86.6295	90.8203	87.3218	90.8203	86.2435	90.8203	87.5965	90.8203	85.8533	90.8203	87.805	90.8203	85.4755	90.8203	87.9364	90.8203	85.1255	90.8203	87.9836	90.8203	84.8168	90.8203	87.9436	90.8203	84.5595	90.8203	87.82	90.8203	84.3603	90.8203	87.6231	90.8203	84.2215	90.8203	87.37	90.8203	84.1418	90.8203	87.081	90.8203	84.1167	90.8203	86.7743	90.8203	84.1395	90.8203	86.4629	90.8203	84.2024	90.8203	86.1546	90.8203	84.2976	90.8203	85.8564	90.8203	84.418	90.8203	85.576	90.8203	84.5585	90.8203	85.3206	90.8203	84.7168	90.8203	85.0937	90.8203	84.8939
95.2148	87.0026	95.2148	86.6492	95.2148	87.3143	95.2148	86.2703	95.2148	87.5698	95.2148	85.8832	95.2148	87.7569	95.2148	85.5055	95.2148	87.866	95.2148	85.1545	95.2148	87.8913	95.2148	84.8454	95.2148	87.8319	95.2148	84.5903	95.2148	87.6941	95.2148	84.397	95.2148	87.4929	95.2148	84.2688	95.2148	87.2506	95.2148	84.2043	95.2148	86.9912	95.2148	84.1983	95.2148	86.733	95.2148	84.2432	95.2148	86.483	95.2148	84.33	95.2148	86.2398	95.2148	84.4497	95.2148	86	95.2148	84.5939	95.2148	85.7644	95.2148	84.7561	95.2148	85.537	95.2148	84.9321	95.2148	85.3219	95.2148	85.1205
98.1445	86.9985	98.1445	86.6355	98.1445	87.318	98.1445	86.2465	98.1445	87.578	98.1445	85.8505	98.1445	87.7651	98.1445	85.4664	98.1445	87.8689	98.1445	85.1122	98.1445	87.8834	98.1445	84.8031	98.1445	87.8083	98.1445	84.5505	98.1445	87.6515	98.1445	84.3608	98.1445	87.4304	98.1445	84.2357	98.1445	87.1701	98.1445	84.1723	98.1445	86.8975	98.1445	84.1646	98.1445	86.6323	98.1445	84.2049	98.1445	86.3812	98.1445	84.285	98.1445	86.1408	98.1445	84.397	98.1445	85.9062	98.1445	84.5338	98.1445	85.6762	98.1445	84.6898	98.1445	85.454	98.1445	84.861	98.1445	85.2432	98.1445	85.0455
101.074	86.8401	101.074	86.4345	101.074	87.1939	101.074	85.9967	101.074	87.4788	101.074	85.549	101.074	87.6807	101.074	85.1149	101.074	87.7889	101.074	84.7176	101.074	87.7975	101.074	84.3782	101.074	87.7069	101.074	84.1128	101.074	87.5267	101.074	83.9303	101.074	87.2776	101.074	83.8319	101.074	86.9906	101.074	83.8112	101.074	86.6995	101.074	83.8572	101.074	86.4297	101.074	83.9561	101.074	86.1899	101.074	84.0941	101.074	85.9742	101.074	84.2585	101.074	85.7721	101.074	84.4385	101.074	85.5761	101.074	84.6261	101.074	85.3836	101.074	84.8158	101.074	85.1937	101.074	85.0049
105.469	87.3518	105.469	86.9486	105.469	87.6884	105.469	86.4958	105.469	87.9441	105.469	86.0137	105.469	88.1076	105.469	85.5252	105.469	88.1702	105.469	85.0553	105.469	88.1271	105.469	84.6292	105.469	87.9789	105.469	84.2692	105.469	87.7346	105.469	83.9923	105.469	87.4152	105.469	83.8069	105.469	87.0537	105.469	83.7126	105.469	86.6891	105.469	83.7009	105.469	86.3541	105.469	83.7581	105.469	86.0631	105.469	83.8685	105.469	85.8115	105.469	84.0167	105.469	85.5852	105.469	84.1891	105.469	85.3721	105.469	84.3755	105.469	85.1658	105.469	84.5687	105.469	84.9639	105.469	84.7651
108.398	87.5732	108.398	87.1913	108.398	87.8906	108.398	86.7606	108.398	88.1297	108.398	86.2996	108.398	88.2792	108.398	85.8292	108.398	88.3299	108.398	85.3724	108.398	88.2759	108.398	84.9529	108.398	88.1164	108.398	84.5926	108.398	87.8589	108.398	84.3093	108.398	87.5232	108.398	84.1133	108.398	87.142	108.398	84.0065	108.398	86.7573	108.398	83.9827	108.398	86.4075	108.398	84.0298	108.398	86.1143	108.398	84.1329	108.398	85.8772	108.398	84.2762	108.398	85.6811	108.398	84.4453	108.398	85.5072	108.398	84.6279	108.398	85.3407	108.398	84.814	108.398	85.172	108.398	84.9965
112.793	87.6274	112.793	87.2397	112.793	87.9498	112.793	86.8026	112.793	88.1932	112.793	86.3343	112.793	88.3459	112.793	85.8557	112.793	88.3985	112.793	85.3894	112.793	88.3445	112.793	84.9592	112.793	88.1818	112.793	84.5875	112.793	87.9155	112.793	84.2928	112.793	87.5613	112.793	84.0864	112.793	87.1482	112.793	83.9712	112.793	86.7167	112.793	83.9413	112.793	86.3099	112.793	83.9846	112.793	85.9609	112.793	84.085	112.793	85.6835	112.793	84.2257	112.793	85.4719	112.793	84.39	112.793	85.308	112.793	84.5633	112.793	85.169	112.793	84.7331	112.793	85.0346	112.793	84.8911
117.188	87.6346	117.188	87.2559	117.188	87.9464	117.188	86.8252	117.188	88.1786	117.188	86.3603	117.188	88.3206	117.188	85.8814	117.188	88.3643	117.188	85.4111	117.188	88.304	117.188	84.9732	117.188	88.1383	117.188	84.5911	117.188	87.8725	117.188	84.2844	117.188	87.5217	117.188	84.066	117.188	87.1126	117.188	83.9404	117.188	86.6823	117.188	83.9028	117.188	86.2703	117.188	83.9412	117.188	85.9085	117.188	84.0389	117.188	85.6141	117.188	84.1777	117.188	85.3877	117.188	84.3397	117.188	85.2164	117.188	84.5087	117.188	85.079	117.188	84.6715	117.188	84.9527	117.188	84.8198
120.117	87.622	120.117	87.2424	120.117	87.9358	120.117	86.8115	120.117	88.1711	120.117	86.3463	120.117	88.317	120.117	85.8663	120.117	88.3647	120.117	85.3934	120.117	88.3076	120.117	84.9512	120.117	88.1433	120.117	84.563	120.117	87.8757	120.117	84.2496	120.117	87.5184	120.117	84.0256	120.117	87.0968	120.117	83.897	120.117	86.6472	120.117	83.8603	120.117	86.2104	120.117	83.9038	120.117	85.8236	120.117	84.0097	120.117	85.5109	120.117	84.1575	120.117	85.2794	120.117	84.3265	120.117	85.1178	120.117	84.4973	120.117	85.0011	120.117	84.6542	120.117	84.8993	120.117	84.788
124.512	87.6216	124.512	87.2236	124.512	87.9537	124.512	86.7767	124.512	88.2054	124.512	86.3003	124.512	88.365	124.512	85.8163	124.512	88.4237	124.512	85.3482	124.512	88.3763	124.512	84.9199	124.512	88.2228	124.512	84.554	124.512	87.9701	124.512	84.2686	124.512	87.6344	124.512	84.0748	124.512	87.2414	124.512	83.9752	124.512	86.8245	124.512	83.9634	124.512	86.4183	124.512	84.0263	124.512	86.0516	124.512	84.146	124.512	85.744	124.512	84.303	124.512	85.5036	124.512	84.4777	124.512	85.3253	124.512	84.6526	124.512	85.1908	124.512	84.8138	124.512	85.0747	124.512	84.9537
128.906	87.7069	128.906	87.3025	128.906	88.0406	128.906	86.844	128.906	88.2899	128.906	86.3503	128.906	88.4435	128.906	85.8435	128.906	88.4932	128.906	85.3481	128.906	88.4344	128.906	84.8905	128.906	88.2679	128.906	84.4971	128.906	88.0014	128.906	84.1909	128.906	87.6519	128.906	83.9883	128.906	87.2472	128.906	83.8958	128.906	86.823	128.906	83.9083	128.906	86.4178	128.906	84.0106	128.906	86.0647	128.906	84.1806	128.906	85.7861	128.906	84.3924	128.906	85.5887	128.906	84.6198	128.906	85.4602	128.906	84.8385	128.906	85.3717	128.906	85.0287	128.906	85.2876	128.906	85.1783
133.301	87.6822	133.301	87.271	133.301	88.0202	133.301	86.8045	133.301	88.27	133.301	86.3036	133.301	88.42	133.301	85.7917	133.301	88.4625	133.301	85.2938	133.301	88.394	133.301	84.8353	133.301	88.2164	133.301	84.4403	133.301	87.9385	133.301	84.1294	133.301	87.578	133.301	83.9166	133.301	87.1619	133.301	83.8082	133.301	86.7244	133.301	83.8014	133.301	86.3018	133.301	83.8849	133.301	85.927	133.301	84.0399	133.301	85.6258	133.301	84.2426	133.301	85.411	133.301	84.4659	133.301	85.2754	133.301	84.683	133.301	85.1901	133.301	84.8706	133.301	85.1148	133.301	85.0145
139.16	87.5852	139.16	87.1701	139.16	87.9213	139.16	86.6922	139.16	88.1654	139.16	86.1716	139.16	88.3081	139.16	85.6317	139.16	88.3429	139.16	85.0995	139.16	88.2671	139.16	84.6037	139.16	88.0821	139.16	84.1724	139.16	87.7957	139.16	83.83	139.16	87.4231	139.16	83.5932	139.16	86.9883	139.16	83.4689	139.16	86.5222	139.16	83.4529	139.16	86.0598	139.16	83.5313	139.16	85.6371	139.16	83.6828	139.16	85.2877	139.16	83.8815	139.16	85.0345	139.16	84.0994	139.16	84.8764	139.16	84.3091	139.16	84.7843	139.16	84.4875	139.16	84.7128	139.16	84.6214
143.555	87.4316	143.555	87.0112	143.555	87.7716	143.555	86.5275	143.555	88.0174	143.555	86.0014	143.555	88.1589	143.555	85.4572	143.555	88.1902	143.555	84.922	143.555	88.1098	143.555	84.4242	143.555	87.922	143.555	83.991	143.555	87.6375	143.555	83.6452	143.555	87.274	143.555	83.402	143.555	86.8548	143.555	83.2674	143.555	86.4061	143.555	83.2379	143.555	85.9548	143.555	83.3017	143.555	85.5293	143.555	83.4405	143.555	85.1613	143.555	83.6304	143.555	84.8791	143.555	83.8446	143.555	84.6911	143.555	84.0554	143.555	84.5743	143.555	84.2391	143.555	84.4852	143.555	84.3815
147.949	87.3575	147.949	86.9161	147.949	87.7081	147.949	86.4034	147.949	87.9533	147.949	85.8431	147.949	88.0834	147.949	85.2633	147.949	88.0943	147.949	84.6956	147.949	87.988	147.949	84.1727	147.949	87.7739	147.949	83.7252	147.949	87.469	147.949	83.3765	147.949	87.0976	147.949	83.1402	147.949	86.6877	147.949	83.0177	147.949	86.2655	147.949	83.0012	147.949	85.8512	147.949	83.0757	147.949	85.4614	147.949	83.2221	147.949	85.1156	147.949	83.4184	147.949	84.8355	147.949	83.6402	147.949	84.6305	147.949	83.8628	147.949	84.4852	147.949	84.0642	147.949	84.364	147.949	84.2307
153.809	87.6328	153.809	87.1784	153.809	87.9732	153.809	86.6247	153.809	88.1904	153.809	85.9924	153.809	88.2801	153.809	85.3101	153.809	88.2421	153.809	84.6145	153.809	88.0806	153.809	83.9506	153.809	87.8054	153.809	83.367	153.809	87.4328	153.809	82.9085	153.809	86.9881	153.809	82.6052	153.809	86.5045	153.809	82.4651	153.809	86.0192	153.809	82.4744	153.809	85.5665	153.809	82.6048	153.809	85.1742	153.809	82.822	153.809	84.8633	153.809	83.0922	153.809	84.6419	153.809	83.3842	153.809	84.4966	153.809	83.6693	153.809	84.3907	153.809	83.9232	153.809	84.2793	153.809	84.1281
159.668	87.9462	159.668	87.5792	159.668	88.2077	159.668	87.1186	159.668	88.3554	159.668	86.5798	159.668	88.3845	159.668	85.9815	159.668	88.295	159.668	85.3468	159.668	88.0921	159.668	84.7034	159.668	87.7878	159.668	84.0837	159.668	87.4016	159.668	83.5244	159.668	86.9604	159.668	83.0633	159.668	86.4959	159.668	82.7344	159.668	86.0392	159.668	82.5611	159.668	85.6171	159.668	82.5499	159.668	85.2526	159.668	82.6868	159.668	84.9661	159.668	82.9394	159.668	84.7661	159.668	83.263	159.668	84.6351	159.668	83.6088	159.668	84.5285	159.668	83.9322	159.668	84.3952	159.668	84.1994
165.527	87.68	165.527	87.3251	165.527	87.9379	165.527	86.8874	165.527	88.0884	165.527	86.3847	165.527	88.125	165.527	85.8386	165.527	88.0451	165.527	85.2745	165.527	87.8514	165.527	84.7207	165.527	87.553	165.527	84.2072	165.527	87.1673	165.527	83.7624	165.527	86.7204	165.527	83.4111	165.527	86.2448	165.527	83.1718	165.527	85.7753	165.527	83.0554	165.527	85.3465	165.527	83.064	165.527	84.9958	165.527	83.1895	165.527	84.7598	165.527	83.4116	165.527	84.6526	165.527	83.6972	165.527	84.6414	165.527	84.0038	165.527	84.6549	165.527	84.2849	165.527	84.6212	165.527	84.4991
171.387	87.7009	171.387	87.3025	171.387	88.002	171.387	86.8229	171.387	88.1929	171.387	86.2816	171.387	88.2649	171.387	85.7014	171.387	88.2137	171.387	85.1086	171.387	88.041	171.387	84.5332	171.387	87.7556	171.387	84.0079	171.387	87.3728	171.387	83.565	171.387	86.9133	171.387	83.2334	171.387	86.3989	171.387	83.0332	171.387	85.8518	171.387	82.9726	171.387	85.3026	171.387	83.046	171.387	84.8073	171.387	83.2337	171.387	84.4498	171.387	83.5037	171.387	84.2962	171.387	83.8135	171.387	84.3282	171.387	84.1148	171.387	84.443	171.387	84.3581	171.387	84.5246	171.387	84.5019
177.246	87.4424	177.246	87.0303	177.246	87.7513	177.246	86.5341	177.246	87.9425	177.246	85.9773	177.246	88.0071	177.246	85.3873	177.246	87.9423	177.246	84.7949	177.246	87.7524	177.246	84.2325	177.246	87.4508	177.246	83.7324	177.246	87.059	177.246	83.3237	177.246	86.6034	177.246	83.0296	177.246	86.1094	177.246	82.8652	177.246	85.5955	177.246	82.8365	177.246	85.0816	177.246	82.9378	177.246	84.6108	177.246	83.1506	177.246	84.2616	177.246	83.4418	177.246	84.1094	177.246	83.7658	177.246	84.1521	177.246	84.0699	177.246	84.293	177.246	84.3022	177.246	84.4099	177.246	84.4213
183.105	87.5702	183.105	87.1453	183.105	87.8845	183.105	86.6283	183.105	88.074	183.105	86.0412	183.105	88.1299	183.105	85.4089	183.105	88.0503	183.105	84.7597	183.105	87.8424	183.105	84.125	183.105	87.5232	183.105	83.5398	183.105	87.1177	183.105	83.0414	183.105	86.6537	183.105	82.668	183.105	86.1528	183.105	82.4535	183.105	85.6267	183.105	82.4198	183.105	85.0906	183.105	82.5673	183.105	84.5941	183.105	82.8685	183.105	84.2359	183.105	83.2708	183.105	84.11	183.105	83.7066	183.105	84.2075	183.105	84.1058	183.105	84.4035	183.105	84.4062	183.105	84.5518	183.105	84.5613
188.965	87.863	188.965	87.4365	188.965	88.1673	188.965	86.91	188.965	88.3333	188.965	86.3099	188.965	88.3535	188.965	85.6654	188.965	88.2299	188.965	85.0054	188.965	87.976	188.965	84.3564	188.965	87.6157	188.965	83.7408	188.965	87.179	188.965	83.177	188.965	86.6921	188.965	82.6848	188.965	86.1632	188.965	82.2924	188.965	85.5784	188.965	82.0408	188.965	84.9236	188.965	81.9764	188.965	84.2394	188.965	82.1259	188.965	83.6679	188.965	82.467	188.965	83.3968	188.965	82.9231	188.965	83.4718	188.965	83.3875	188.965	83.7228	188.965	83.7553	188.965	83.9259	188.965	83.9472
196.289	88.0027	196.289	87.6101	196.289	88.2735	196.289	87.1176	196.289	88.4077	196.289	86.5525	196.289	88.4003	196.289	85.9438	196.289	88.2589	196.289	85.3202	196.289	88.0053	196.289	84.707	196.289	87.6771	196.289	84.1255	196.289	87.3199	196.289	83.593	196.289	86.9658	196.289	83.1258	196.289	86.6036	196.289	82.7445	196.289	86.1665	196.289	82.4766	196.289	85.5633	196.289	82.3527	196.289	84.7501	196.289	82.3921	196.289	83.8217	196.289	82.5819	196.289	83.0594	196.289	82.8662	196.289	82.7622	196.289	83.1558	196.289	82.9089	196.289	83.3517	196.289	83.197	196.289	83.3738
203.613	88.2428	203.613	87.7192	203.613	88.5996	203.613	87.0542	203.613	88.7721	203.613	86.283	203.613	88.751	203.613	85.4516	203.613	88.5361	203.613	84.6179	203.613	88.1402	203.613	83.8451	203.613	87.5947	203.613	83.1877	203.613	86.9567	203.613	82.6746	203.613	86.3104	203.613	82.3014	203.613	85.7432	203.613	82.0409	203.613	85.293	203.613	81.8633	203.613	84.9113	203.613	81.7526	203.613	84.5018	203.613	81.7095	203.613	84.0041	203.613	81.7396	203.613	83.4478	203.613	81.8365	203.613	82.9373	203.613	81.9722	203.613	82.5704	203.613	82.109	203.613	82.3572	203.613	82.2281
210.938	88.2308	210.938	87.8339	210.938	88.4627	210.938	87.2916	210.938	88.5196	210.938	86.6307	210.938	88.4036	210.938	85.883	210.938	88.1318	210.938	85.0848	210.938	87.7386	210.938	84.2747	210.938	87.2763	210.938	83.4925	210.938	86.8081	210.938	82.7771	210.938	86.3851	210.938	82.1661	210.938	86.0117	210.938	81.6969	210.938	85.63	210.938	81.4061	210.938	85.1507	210.938	81.3198	210.938	84.5232	210.938	81.4357	210.938	83.8022	210.938	81.7086	210.938	83.1613	210.938	82.058	210.938	82.7851	210.938	82.3925	210.938	82.6944	210.938	82.6365	210.938	82.7379	210.938	82.748
218.262	88.7135	218.262	88.2865	218.262	88.9778	218.262	87.7238	218.262	89.0614	218.262	87.0617	218.262	88.9546	218.262	86.3443	218.262	88.6588	218.262	85.6191	218.262	88.1941	218.262	84.9272	218.262	87.6146	218.262	84.2935	218.262	87.0232	218.262	83.7232	218.262	86.5601	218.262	83.2092	218.262	86.3278	218.262	82.7487	218.262	86.2924	218.262	82.362	218.262	86.2926	218.262	82.1015	218.262	86.1626	218.262	82.0347	218.262	85.835	218.262	82.199	218.262	85.3633	218.262	82.5591	218.262	84.8755	218.262	83.0168	218.262	84.4735	218.262	83.4656	218.262	84.1557	218.262	83.843
225.586	89.4209	225.586	88.9493	225.586	89.6975	225.586	88.3097	225.586	89.7608	225.586	87.5389	225.586	89.6014	225.586	86.6876	225.586	89.2217	225.586	85.8219	225.586	88.64	225.586	85.018	225.586	87.9004	225.586	84.3442	225.586	87.0849	225.586	83.8365	225.586	86.3249	225.586	83.4888	225.586	85.7752	225.586	83.27	225.586	85.5205	225.586	83.1577	225.586	85.4974	225.586	83.1605	225.586	85.5628	225.586	83.3112	225.586	85.6242	225.586	83.6306	225.586	85.6708	225.586	84.0891	225.586	85.7132	225.586	84.6047	225.586	85.7255	225.586	85.0799	225.586	85.6506	225.586	85.4395
232.91	88.5229	232.91	88.1549	232.91	88.7229	232.91	87.6453	232.91	88.74	232.91	87.0321	232.91	88.571	232.91	86.3619	232.91	88.2218	232.91	85.6852	232.91	87.7072	232.91	85.0464	232.91	87.0571	232.91	84.4717	232.91	86.3324	232.91	83.9615	232.91	85.6383	232.91	83.494	232.91	85.0962	232.91	83.0442	232.91	84.7521	232.91	82.6093	232.91	84.5166	232.91	82.2321	232.91	84.2484	232.91	82.0033	232.91	83.8943	232.91	82.0143	232.91	83.54	232.91	82.2715	232.91	83.326	232.91	82.6635	232.91	83.2891	232.91	83.0306	232.91	83.3161	232.91	83.2563
241.699	88.6321	241.699	88.19	241.699	88.8409	241.699	87.5286	241.699	88.8121	241.699	86.6801	241.699	88.5457	241.699	85.7098	241.699	88.0453	241.699	84.7337	241.699	87.3206	241.699	83.916	241.699	86.3979	241.699	83.4092	241.699	85.3413	241.699	83.2521	241.699	84.2832	241.699	83.3418	241.699	83.4341	241.699	83.522	241.699	82.9872	241.699	83.6727	241.699	82.9486	241.699	83.7377	241.699	83.1479	241.699	83.7155	241.699	83.4138	241.699	83.6413	241.699	83.6478	241.699	83.5673	241.699	83.7958	241.699	83.5389	241.699	83.8329	241.699	83.5769	241.699	83.7741	241.699	83.6692
250.488	89.7889	250.488	89.3194	250.488	90.0816	250.488	88.6639	250.488	90.2005	250.488	87.8111	250.488	90.14	250.488	86.7548	250.488	89.8848	250.488	85.5043	250.488	89.4109	250.488	84.105	250.488	88.6861	250.488	82.6759	250.488	87.6718	250.488	81.4535	250.488	86.3371	250.488	80.757	250.488	84.722	250.488	80.7652	250.488	83.1218	250.488	81.3365	250.488	82.2678	250.488	82.177	250.488	82.6607	250.488	83.0645	250.488	83.7361	250.488	83.886	250.488	84.7764	250.488	84.594	250.488	85.5059	250.488	85.1707	250.488	85.8994	250.488	85.6083	250.488	86.0088	250.488	85.8962
259.277	89.479	259.277	89.2109	259.277	89.5905	259.277	88.7927	259.277	89.541	259.277	88.2261	259.277	89.3362	259.277	87.5057	259.277	88.9971	259.277	86.6227	259.277	88.5582	259.277	85.5735	259.277	88.0553	259.277	84.3769	259.277	87.503	259.277	83.1078	259.277	86.8639	259.277	81.9523	259.277	86.0285	259.277	81.232	259.277	84.8268	259.277	81.239	259.277	83.1231	259.277	81.9338	259.277	81.2187	259.277	82.9892	259.277	80.6629	259.277	84.0962	259.277	82.2559	259.277	85.0788	259.277	84.2283	259.277	85.8523	259.277	85.6159	259.277	86.3653	259.277	86.3522	259.277	86.561
268.066	88.6982	268.066	88.5126	268.066	88.7491	268.066	88.1948	268.066	88.6711	268.066	87.7504	268.066	88.4794	268.066	87.1803	268.066	88.1937	268.066	86.476	268.066	87.8311	268.066	85.6185	268.066	87.4031	268.066	84.5824	268.066	86.9142	268.066	83.3502	268.066	86.3545	268.066	81.9519	268.066	85.6851	268.066	80.5659	268.066	84.8328	268.066	79.6674	268.066	83.731	268.066	79.8249	268.066	82.4648	268.066	80.9409	268.066	81.5324	268.066	82.3657	268.066	81.6651	268.066	83.6327	268.066	82.7271	268.066	84.5545	268.066	83.9135	268.066	85.0678	268.066	84.7586	268.066	85.1434
276.855	87.3606	276.855	87.1361	276.855	87.4904	276.855	86.8445	276.855	87.5077	276.855	86.5134	276.855	87.4145	276.855	86.1587	276.855	87.2376	276.855	85.7746	276.855	87.0275	276.855	85.3267	276.855	86.8421	276.855	84.753	276.855	86.7108	276.855	83.9702	276.855	86.5885	276.855	82.887	276.855	86.3327	276.855	81.4395	276.855	85.7259	276.855	79.738	276.855	84.5301	276.855	78.5046	276.855	82.6233	276.855	78.984	276.855	80.5763	276.855	80.8431	276.855	80.4298	276.855	82.7773	276.855	82.2615	276.855	84.2347	276.855	84.0213	276.855	85.1134	276.855	85.0623	276.855	85.4008
287.109	86.9203	287.109	86.6411	287.109	87.0174	287.109	86.2285	287.109	86.9109	287.109	85.7544	287.109	86.6021	287.109	85.2969	287.109	86.1158	287.109	84.9094	287.109	85.5247	287.109	84.5903	287.109	85.0009	287.109	84.276	287.109	84.8093	287.109	83.8616	287.109	85.0973	287.109	83.2284	287.109	85.6523	287.109	82.2696	287.109	86.0314	287.109	80.9389	287.109	85.8328	287.109	79.4258	287.109	84.7905	287.109	78.5336	287.109	82.8503	287.109	79.206	287.109	80.6979	287.109	80.8505	287.109	80.3417	287.109	82.3738	287.109	81.758	287.109	83.3215	287.109	83.0382	287.109	83.5645
297.363	88.6588	297.363	87.9977	297.363	89.0472	297.363	87.1098	297.363	89.1273	297.363	86.0682	297.363	88.8683	297.363	84.999	297.363	88.2489	297.363	84.0821	297.363	87.2735	297.363	83.4732	297.363	86.0167	297.363	83.1739	297.363	84.7209	297.363	83.0131	297.363	83.884	297.363	82.7684	297.363	83.9181	297.363	82.2705	297.363	84.5046	297.363	81.4495	297.363	84.9404	297.363	80.4182	297.363	84.7951	297.363	79.6525	297.363	84.0203	297.363	79.8491	297.363	82.9813	297.363	80.9618	297.363	82.4143	297.363	82.2218	297.363	82.6575	297.363	83.0942	297.363	83.1792	297.363	83.4048
307.617	87.429	307.617	86.9299	307.617	87.6998	307.617	86.2412	307.617	87.7201	307.617	85.4182	307.617	87.4858	307.617	84.54	307.617	87.0078	307.617	83.716	307.617	86.3142	307.617	83.0621	307.617	85.4722	307.617	82.629	307.617	84.6291	307.617	82.339	307.617	84.0105	307.617	82.0124	307.617	83.7593	307.617	81.4538	307.617	83.7006	307.617	80.5234	307.617	83.4213	307.617	79.2332	307.617	82.6115	307.617	78.0177	307.617	81.3755	307.617	77.8941	307.617	80.5028	307.617	79.1244	307.617	80.7731	307.617	80.6713	307.617	81.6363	307.617	81.808	307.617	82.262	307.617	82.3415
319.336	88.3818	319.336	87.7144	319.336	88.7513	319.336	86.7867	319.336	88.8024	319.336	85.6657	319.336	88.5259	319.336	84.4658	319.336	87.9251	319.336	83.3562	319.336	87.0246	319.336	82.5122	319.336	85.8975	319.336	82.0005	319.336	84.7148	319.336	81.712	319.336	83.7943	319.336	81.4412	319.336	83.4589	319.336	81.0072	319.336	83.6035	319.336	80.3271	319.336	83.6746	319.336	79.4969	319.336	83.1819	319.336	78.9301	319.336	82.0046	319.336	79.2061	319.336	80.6463	319.336	80.2881	319.336	80.292	319.336	81.5062	319.336	81.1506	319.336	82.3384	319.336	82.1237	319.336	82.5634
329.59	88.1873	329.59	87.6869	329.59	88.3808	329.59	86.8928	329.59	88.271	329.59	85.8441	329.59	87.8736	329.59	84.6285	329.59	87.2121	329.59	83.4146	329.59	86.321	329.59	82.4429	329.59	85.2746	329.59	81.8847	329.59	84.2498	329.59	81.6583	329.59	83.558	329.59	81.4798	329.59	83.4309	329.59	81.0633	329.59	83.6366	329.59	80.2202	329.59	83.6181	329.59	78.9135	329.59	82.9551	329.59	77.4986	329.59	81.5703	329.59	77.0466	329.59	79.9176	329.59	78.0824	329.59	79.058	329.59	79.4982	329.59	79.4258	329.59	80.4116	329.59	80.1861	329.59	80.614
341.309	88.4979	341.309	87.9301	341.309	88.7318	341.309	87.0357	341.309	88.6287	341.309	85.8299	341.309	88.1964	341.309	84.3643	341.309	87.4586	341.309	82.7935	341.309	86.4537	341.309	81.452	341.309	85.243	341.309	80.7324	341.309	83.9652	341.309	80.6533	341.309	82.9594	341.309	80.8	341.309	82.7208	341.309	80.7623	341.309	83.2539	341.309	80.3379	341.309	83.8786	341.309	79.5401	341.309	84.0058	341.309	78.7098	341.309	83.4428	341.309	78.5618	341.309	82.3176	341.309	79.3801	341.309	81.1162	341.309	80.4796	341.309	80.5829	341.309	81.1804	341.309	80.8621	341.309	81.2561
353.027	88.2997	353.027	87.879	353.027	88.4535	353.027	87.1947	353.027	88.3402	353.027	86.2523	353.027	87.965	353.027	85.0672	353.027	87.3346	353.027	83.6922	353.027	86.4536	353.027	82.2722	353.027	85.3424	353.027	81.0865	353.027	84.1091	353.027	80.4093	353.027	83.0806	353.027	80.1909	353.027	82.7574	353.027	80.0593	353.027	83.1404	353.027	79.6537	353.027	83.5179	353.027	78.8315	353.027	83.304	353.027	77.8438	353.027	82.4526	353.027	77.5332	353.027	81.4837	353.027	78.4498	353.027	81.1012	353.027	79.8346	353.027	81.2866	353.027	80.8995	353.027	81.5109	353.027	81.4362
366.211	88.7686	366.211	88.1539	366.211	89.0864	366.211	87.262	366.211	89.1035	366.211	86.1206	366.211	88.8349	366.211	84.7749	366.211	88.2947	366.211	83.3233	366.211	87.4649	366.211	81.9588	366.211	86.2949	366.211	80.9287	366.211	84.7621	366.211	80.3287	366.211	83.044	366.211	79.9611	366.211	81.8789	366.211	79.5028	366.211	82.1085	366.211	78.7453	366.211	83.0625	366.211	77.8042	366.211	83.6462	366.211	77.4306	366.211	83.5173	366.211	78.4689	366.211	82.8407	366.211	80.3106	366.211	82.135	366.211	81.9014	366.211	82.0354	366.211	82.8024	366.211	82.5273	366.211	82.9519
379.395	88.3471	379.395	87.6477	379.395	88.7378	379.395	86.6423	379.395	88.8355	379.395	85.3585	379.395	88.6618	379.395	83.8688	379.395	88.2201	379.395	82.3445	379.395	87.4884	379.395	81.1021	379.395	86.4598	379.395	80.4557	379.395	85.2075	379.395	80.3552	379.395	83.9294	379.395	80.3796	379.395	82.9253	379.395	80.0816	379.395	82.4037	379.395	79.1148	379.395	82.2496	379.395	77.1987	379.395	82.1996	379.395	74.5227	379.395	82.0543	379.395	73.9949	379.395	81.5891	379.395	76.8604	379.395	80.6935	379.395	79.3404	379.395	79.8666	379.395	80.5104	379.395	79.9558	379.395	80.532
392.578	87.9923	392.578	87.2435	392.578	88.3937	392.578	86.1415	392.578	88.4552	392.578	84.695	392.578	88.1703	392.578	82.9463	392.578	87.5073	392.578	81.038	392.578	86.4245	392.578	79.369	392.578	84.9322	392.578	78.5874	392.578	83.2175	392.578	78.8366	392.578	81.8361	392.578	79.4257	392.578	81.5567	392.578	79.687	392.578	82.2012	392.578	79.2948	392.578	82.7215	392.578	78.1336	392.578	82.5618	392.578	76.4096	392.578	81.9547	392.578	75.3485	392.578	81.5663	392.578	76.3524	392.578	81.5362	392.578	78.1378	392.578	81.3903	392.578	79.4698	392.578	80.9392	392.578	80.3125
405.762	88.4923	405.762	87.6606	405.762	88.9405	405.762	86.4398	405.762	88.9936	405.762	84.8094	405.762	88.6321	405.762	82.7463	405.762	87.853	405.762	80.2896	405.762	86.6989	405.762	77.8083	405.762	85.2732	405.762	76.4062	405.762	83.7073	405.762	76.7195	405.762	82.0835	405.762	77.6055	405.762	80.4727	405.762	78.0643	405.762	79.2062	405.762	77.7386	405.762	78.9314	405.762	76.4716	405.762	79.8133	405.762	74.4516	405.762	81.0766	405.762	73.7225	405.762	81.9093	405.762	76.0775	405.762	82.0419	405.762	78.6942	405.762	81.7106	405.762	80.3094	405.762	81.36	405.762	81.0439
420.41	88.135	420.41	87.4448	420.41	88.4477	420.41	86.3774	420.41	88.367	420.41	84.894	420.41	87.8927	420.41	82.8993	420.41	87.0639	420.41	80.2145	420.41	85.952	420.41	76.5924	420.41	84.6498	420.41	72.6029	420.41	83.3006	420.41	72.7506	420.41	82.1627	420.41	75.7176	420.41	81.5973	420.41	77.6516	420.41	81.6038	420.41	78.2343	420.41	81.5053	420.41	77.4752	420.41	80.7439	420.41	75.2158	420.41	79.6389	420.41	71.9531	420.41	79.2497	420.41	72.7408	420.41	79.6493	420.41	76.4195	420.41	80.0491	420.41	78.8035	420.41	80.18	420.41	79.8955
435.059	87.5642	435.059	86.9629	435.059	87.8468	435.059	86.1141	435.059	87.7528	435.059	85.0519	435.059	87.2712	435.059	83.7268	435.059	86.4371	435.059	81.9889	435.059	85.2839	435.059	79.5884	435.059	83.7982	435.059	76.1654	435.059	81.9714	435.059	71.5816	435.059	80.0803	435.059	69.4578	435.059	79.2871	435.059	72.1106	435.059	80.2761	435.059	74.041	435.059	81.4062	435.059	74.5004	435.059	81.5161	435.059	73.9509	435.059	80.6041	435.059	73.7426	435.059	79.4919	435.059	75.4559	435.059	79.2747	435.059	77.8809	435.059	79.8484	435.059	79.6204	435.059	80.3977	435.059	80.4149
451.172	87.6851	451.172	86.7873	451.172	88.1383	451.172	85.4876	451.172	88.1577	451.172	83.9005	451.172	87.7859	451.172	82.1971	451.172	87.0624	451.172	80.5029	451.172	85.9868	451.172	78.7715	451.172	84.5381	451.172	76.8239	451.172	82.7304	451.172	74.6382	451.172	80.6062	451.172	72.9163	451.172	78.4208	451.172	72.7964	451.172	77.404	451.172	73.5283	451.172	78.4775	451.172	73.5225	451.172	80.2114	451.172	71.8282	451.172	81.4189	451.172	68.3389	451.172	81.6586	451.172	69.9914	451.172	80.89	451.172	74.8727	451.172	79.6894	451.172	77.6663	451.172	79.057	451.172	78.7774
465.82	87.8436	465.82	86.9857	465.82	88.3234	465.82	85.8145	465.82	88.3766	465.82	84.4007	465.82	87.9799	465.82	82.7867	465.82	87.1492	465.82	80.9246	465.82	85.9388	465.82	78.6409	465.82	84.4423	465.82	75.7144	465.82	82.812	465.82	72.4729	465.82	81.2105	465.82	71.5124	465.82	79.5946	465.82	73.4129	465.82	77.4445	465.82	75.0895	465.82	73.7904	465.82	75.6048	465.82	71.9333	465.82	74.8388	465.82	76.7796	465.82	73.0292	465.82	79.8668	465.82	72.3683	465.82	80.833	465.82	74.8091	465.82	80.5251	465.82	77.3512	465.82	79.7691	465.82	78.8659
483.398	87.5748	483.398	86.9243	483.398	87.6928	483.398	85.827	483.398	87.2374	483.398	84.4221	483.398	86.2145	483.398	82.884	483.398	84.6712	483.398	81.3226	483.398	82.6484	483.398	79.6588	483.398	80.173	483.398	77.6264	483.398	77.5344	483.398	74.9393	483.398	75.9398	483.398	71.8453	483.398	76.7264	483.398	70.4905	483.398	78.4323	483.398	71.5879	483.398	79.0608	483.398	72.3494	483.398	77.6131	483.398	71.671	483.398	72.8916	483.398	70.1904	483.398	65.7708	483.398	71.4365	483.398	72.8477	483.398	74.7833	483.398	76.554	483.398	77.1363	483.398	77.9925	483.398	78.1494
499.512	87.742	499.512	87.1557	499.512	87.778	499.512	86.0422	499.512	87.2649	499.512	84.4703	499.512	86.2295	499.512	82.5958	499.512	84.7029	499.512	80.6658	499.512	82.6513	499.512	78.8809	499.512	79.9555	499.512	77.2144	499.512	76.5645	499.512	75.5474	499.512	72.9439	499.512	74.1501	499.512	72.1263	499.512	73.8193	499.512	75.1346	499.512	74.5461	499.512	77.5864	499.512	75.2459	499.512	78.5372	499.512	75.1911	499.512	78.3654	499.512	74.2855	499.512	77.7966	499.512	73.3372	499.512	77.649	499.512	74.0588	499.512	78.0067	499.512	76.0115	499.512	78.1639	499.512	77.5483
517.09	88.4999	517.09	88.1242	517.09	88.3344	517.09	87.2196	517.09	87.6405	517.09	85.8136	517.09	86.4581	517.09	83.955	517.09	84.827	517.09	81.7414	517.09	82.7417	517.09	79.3411	517.09	80.1605	517.09	76.9222	517.09	77.1533	517.09	74.4993	517.09	74.0713	517.09	72.122	517.09	71.3403	517.09	70.8125	517.09	69.4356	517.09	71.6222	517.09	70.2025	517.09	72.9223	517.09	73.0733	517.09	73.3371	517.09	74.9077	517.09	72.8732	517.09	75.1833	517.09	73.3128	517.09	75.7419	517.09	76.0538	517.09	77.9465	517.09	78.7523	517.09	79.7563	517.09	80.0608
536.133	88.6107	536.133	88.0977	536.133	88.6053	536.133	87.0919	536.133	88.0741	536.133	85.6279	536.133	87.0175	536.133	83.7436	536.133	85.4057	536.133	81.5032	536.133	83.1327	536.133	79.0717	536.133	80.0079	536.133	76.7885	536.133	75.8694	536.133	74.9935	536.133	71.0288	536.133	73.6114	536.133	66.857	536.133	72.3139	536.133	63.6384	536.133	71.3665	536.133	58.4899	536.133	71.7468	536.133	67.5082	536.133	73.06	536.133	73.8146	536.133	73.9479	536.133	76.4807	536.133	74.0976	536.133	77.2352	536.133	74.4951	536.133	77.5183	536.133	75.965	536.133	77.7973	536.133	77.3704
555.176	88.11	555.176	87.9109	555.176	87.7447	555.176	87.18	555.176	86.8009	555.176	85.9568	555.176	85.2814	555.176	84.2815	555.176	83.1884	555.176	82.2146	555.176	80.519	555.176	79.8829	555.176	77.3035	555.176	77.5165	555.176	73.7125	555.176	75.3549	555.176	70.4069	555.176	73.4082	555.176	68.7958	555.176	71.6661	555.176	69.1126	555.176	71.105	555.176	69.1115	555.176	72.5031	555.176	65.9658	555.176	74.2125	555.176	60.3499	555.176	74.9903	555.176	68.9288	555.176	74.7017	555.176	72.9607	555.176	74.19	555.176	74.741	555.176	74.7349	555.176	75.6299	555.176	75.6126
574.219	88.5121	574.219	88.2243	574.219	88.1632	574.219	87.3626	574.219	87.1199	574.219	85.987	574.219	85.3182	574.219	84.1503	574.219	82.6558	574.219	81.9199	574.219	78.9674	574.219	79.4405	574.219	74.0138	574.219	77.0217	574.219	67.7019	574.219	75.0742	574.219	63.7865	574.219	73.6849	574.219	65.814	574.219	72.3538	574.219	68.3551	574.219	70.3511	574.219	70.3597	574.219	67.4227	574.219	70.9337	574.219	66.1709	574.219	68.4701	574.219	68.6037	574.219	53.7317	574.219	71.4564	574.219	69.8045	574.219	74.248	574.219	75.8479	574.219	76.6789	574.219	78.0263	574.219	78.098
594.727	88.5595	594.727	88.3101	594.727	88.1701	594.727	87.4496	594.727	87.148	594.727	86.0299	594.727	85.5316	594.727	84.1073	594.727	83.3393	594.727	81.7196	594.727	80.4103	594.727	78.9025	594.727	76.1538	594.727	75.9124	594.727	69.7109	594.727	73.8841	594.727	67.7988	594.727	74.0038	594.727	70.3506	594.727	74.8277	594.727	70.8216	594.727	74.7127	594.727	72.2275	594.727	73.113	594.727	75.3239	594.727	71.3175	594.727	77.4947	594.727	72.8547	594.727	76.9824	594.727	74.8751	594.727	72.4549	594.727	75.159	594.727	67.5328	594.727	74.3919	594.727	72.412	594.727	73.9269
615.234	88.6217	615.234	88.3256	615.234	88.2546	615.234	87.4448	615.234	87.2384	615.234	86.106	615.234	85.7265	615.234	84.4365	615.234	83.9683	615.234	82.5027	615.234	82.0459	615.234	80.2622	615.234	79.6136	615.234	77.4983	615.234	76.1646	615.234	73.7177	615.234	72.4795	615.234	70.327	615.234	70.9968	615.234	73.2275	615.234	68.9689	615.234	76.135	615.234	65.1177	615.234	76.6671	615.234	73.6993	615.234	74.9369	615.234	78.5425	615.234	72.5084	615.234	79.5431	615.234	74.2679	615.234	77.9532	615.234	76.6679	615.234	76.2149	615.234	77.2721	615.234	76.291	615.234	76.8319
637.207	89.1518	637.207	88.8879	637.207	88.5814	637.207	87.8835	637.207	87.117	637.207	86.247	637.207	84.8744	637.207	84.1477	637.207	82.4527	637.207	81.8715	637.207	80.8323	637.207	79.7777	637.207	79.7965	637.207	78.0557	637.207	77.86	637.207	76.5423	637.207	74.387	637.207	75.0702	637.207	72.6156	637.207	74.2154	637.207	73.2878	637.207	74.6561	637.207	71.7661	637.207	75.2127	637.207	67.6651	637.207	74.2832	637.207	70.3661	637.207	71.2007	637.207	73.8447	637.207	71.1643	637.207	74.4758	637.207	75.0169	637.207	73.7872	637.207	76.5096	637.207	74.1185	637.207	75.7693
659.18	88.3055	659.18	88.2305	659.18	87.6169	659.18	87.4384	659.18	86.2199	659.18	86.0725	659.18	84.3069	659.18	84.3817	659.18	82.1855	659.18	82.648	659.18	80.1297	659.18	80.9894	659.18	78.2274	659.18	79.2058	659.18	76.2183	659.18	76.8131	659.18	73.8415	659.18	73.4814	659.18	72.356	659.18	72	659.18	73.1847	659.18	74.656	659.18	73.8844	659.18	76.447	659.18	71.6788	659.18	76.0608	659.18	62.0765	659.18	73.0919	659.18	66.2992	659.18	68.6136	659.18	71.0261	659.18	70.748	659.18	71.3068	659.18	72.5356	659.18	70.6099	659.18	71.6249
682.617	88.7647	682.617	88.7604	682.617	88.0942	682.617	88.0758	682.617	86.9567	682.617	86.8522	682.617	85.6714	682.617	85.2956	682.617	84.2877	682.617	83.5565	682.617	82.3903	682.617	81.6564	682.617	79.5917	682.617	79.5848	682.617	76.4312	682.617	77.5164	682.617	74.5418	682.617	75.8422	682.617	73.3088	682.617	74.8873	682.617	71.0227	682.617	75.431	682.617	73.6331	682.617	77.5171	682.617	77.5406	682.617	79.0263	682.617	77.0855	682.617	78.5606	682.617	68.7526	682.617	75.9197	682.617	68.683	682.617	74.7499	682.617	74.7067	682.617	76.7923	682.617	75.7618	682.617	76.9949
707.52	88.8838	707.52	88.9044	707.52	88.1624	707.52	88.2457	707.52	86.8956	707.52	87.0294	707.52	85.5899	707.52	85.5208	707.52	84.7432	707.52	84.1016	707.52	84.0612	707.52	83.0135	707.52	83.0329	707.52	82.0514	707.52	81.4955	707.52	80.7005	707.52	79.5413	707.52	78.5804	707.52	77.5709	707.52	75.5818	707.52	75.2708	707.52	72.1199	707.52	70.7362	707.52	72.3653	707.52	74.1688	707.52	75.8603	707.52	79.4142	707.52	77.7227	707.52	79.7933	707.52	77.744	707.52	75.4867	707.52	77.5154	707.52	66.651	707.52	77.3294	707.52	67.119	707.52	74.5672
732.422	88.0833	732.422	88.5739	732.422	87.0679	732.422	88.3584	732.422	85.9282	732.422	87.5454	732.422	84.7977	732.422	86.3225	732.422	83.4715	732.422	84.7774	732.422	82.1532	732.422	83.0457	732.422	81.565	732.422	81.4989	732.422	81.1891	732.422	80.1901	732.422	79.3715	732.422	78.6188	732.422	76.5436	732.422	76.4573	732.422	76.9364	732.422	74.0532	732.422	76.8371	732.422	73.4665	732.422	70.6623	732.422	75.1073	732.422	70.4947	732.422	75.8364	732.422	77.2609	732.422	75.1489	732.422	76.6898	732.422	75.38	732.422	71.9631	732.422	75.2758	732.422	63.2853	732.422	70.8336
757.324	88.7662	757.324	88.9989	757.324	88.0548	757.324	88.7797	757.324	87.2269	757.324	88.262	757.324	86.6958	757.324	87.4246	757.324	86.2968	757.324	86.0643	757.324	85.4649	757.324	84.059	757.324	83.7177	757.324	81.6017	757.324	80.9476	757.324	79.1986	757.324	77.5829	757.324	77.8188	757.324	74.2094	757.324	78.1089	757.324	70.8288	757.324	78.2757	757.324	75.919	757.324	77.2787	757.324	80.7683	757.324	77.5019	757.324	80.2455	757.324	78.7334	757.324	70.4055	757.324	77.2343	757.324	71.5258	757.324	72.7471	757.324	76.4194	757.324	76.0789	757.324	78.2864	757.324	78.8625
785.156	88.5694	785.156	88.8054	785.156	87.8894	785.156	88.6246	785.156	86.9406	785.156	88.0082	785.156	86.0076	785.156	86.7442	785.156	85.1539	785.156	84.7457	785.156	84.1478	785.156	82.534	785.156	82.7836	785.156	80.9416	785.156	81.1215	785.156	79.7743	785.156	79.1762	785.156	78.2979	785.156	76.0479	785.156	77.4494	785.156	68.9025	785.156	77.5154	785.156	69.5909	785.156	76.4996	785.156	76.8088	785.156	75.4778	785.156	80.2704	785.156	77.1948	785.156	79.585	785.156	77.4081	785.156	72.7077	785.156	77.119	785.156	58.3238	785.156	79.343	785.156	69.8523	785.156	78.1668
811.523	89.103	811.523	89.7858	811.523	87.5034	811.523	89.4708	811.523	85.6837	811.523	88.3231	811.523	84.4979	811.523	86.6303	811.523	83.8324	811.523	84.8992	811.523	83.0637	811.523	83.5323	811.523	81.9112	811.523	82.3104	811.523	80.8005	811.523	80.6446	811.523	80.7281	811.523	78.0467	811.523	81.0512	811.523	74.2294	811.523	78.9847	811.523	73.666	811.523	71.9565	811.523	76.8524	811.523	65.491	811.523	77.4728	811.523	62.1289	811.523	76.0945	811.523	73.3747	811.523	75.2092	811.523	72.3095	811.523	75.2983	811.523	59.8943	811.523	75.0578	811.523	59.9159	811.523	71.4369
840.82	88.5151	840.82	89.3197	840.82	87.275	840.82	89.3661	840.82	86.3163	840.82	88.7073	840.82	86.0989	840.82	87.5599	840.82	86.207	840.82	86.1896	840.82	85.8997	840.82	84.8051	840.82	84.7458	840.82	83.325	840.82	82.4643	840.82	81.4106	840.82	79.6256	840.82	78.6328	840.82	78.6478	840.82	75.0393	840.82	78.432	840.82	72.3114	840.82	76.1241	840.82	74.1407	840.82	78.2062	840.82	77.2228	840.82	81.8001	840.82	77.5816	840.82	78.6117	840.82	75.113	840.82	59.3889	840.82	73.8282	840.82	74.0317	840.82	74.7334	840.82	71.3052	840.82	72.4426
870.117	87.9661	870.117	88.7707	870.117	86.6092	870.117	88.913	870.117	85.3568	870.117	88.4714	870.117	84.3141	870.117	87.2984	870.117	83.3495	870.117	85.2118	870.117	82.8017	870.117	82.4362	870.117	82.5033	870.117	80.1874	870.117	81.2097	870.117	79.4125	870.117	77.3217	870.117	78.6217	870.117	68.355	870.117	76.936	870.117	72.6525	870.117	74.8417	870.117	75.817	870.117	73.8723	870.117	72.2897	870.117	74.8852	870.117	76.5432	870.117	75.1896	870.117	79.3836	870.117	74.8482	870.117	74.5335	870.117	73.9222	870.117	72.6826	870.117	73.8473	870.117	73.7984	870.117	74.5901
900.879	88.2786	900.879	89.0848	900.879	86.8401	900.879	89.0611	900.879	85.4495	900.879	88.2285	900.879	85.0565	900.879	86.82	900.879	85.1976	900.879	85.1466	900.879	84.4978	900.879	83.2232	900.879	82.4585	900.879	80.654	900.879	79.6576	900.879	77.0995	900.879	77.5328	900.879	73.9129	900.879	76.8776	900.879	74.3031	900.879	75.4563	900.879	74.8929	900.879	70.6118	900.879	72.8577	900.879	77.3999	900.879	66.5899	900.879	78.5925	900.879	69.358	900.879	68.3589	900.879	72.0535	900.879	73.0879	900.879	68.9921	900.879	72.441	900.879	71.5708	900.879	73.4088	900.879	74.8571
933.105	88.2501	933.105	88.4424	933.105	87.6584	933.105	88.7646	933.105	86.6712	933.105	88.6811	933.105	86.2142	933.105	87.564	933.105	85.1775	933.105	85.1837	933.105	82.9838	933.105	81.5459	933.105	81.4855	933.105	77.475	933.105	81.8247	933.105	74.9213	933.105	81.2973	933.105	70.2542	933.105	76.3073	933.105	47.6943	933.105	74.1955	933.105	71.3526	933.105	74.8041	933.105	75.4358	933.105	75.8781	933.105	74.7439	933.105	82.7596	933.105	75.3733	933.105	82.7293	933.105	77.6601	933.105	74.3581	933.105	75.1787	933.105	73.1723	933.105	75.7581	933.105	63.4289	933.105	76.8435
965.332	88.5757	965.332	88.8767	965.332	87.6477	965.332	88.8946	965.332	85.8975	965.332	88.3244	965.332	84.2785	965.332	86.7638	965.332	83.7661	965.332	84.2544	965.332	83.4616	965.332	81.2794	965.332	82.1279	965.332	79.5247	965.332	80.1037	965.332	79.0775	965.332	78.3741	965.332	77.4927	965.332	74.8376	965.332	74.1951	965.332	67.1984	965.332	69.6174	965.332	69.4699	965.332	68.2292	965.332	73.7766	965.332	65.8154	965.332	64.1831	965.332	56.3413	965.332	74.8272	965.332	71.4589	965.332	69.4596	965.332	74.1576	965.332	67.0763	965.332	73.4339	965.332	62.1511	965.332	72.3851
1,000.49	88.8017	1,000.49	89.6423	1,000.49	87.012	1,000.49	89.3683	1,000.49	85.4563	1,000.49	87.8217	1,000.49	85.3533	1,000.49	86.0496	1,000.49	85.714	1,000.49	84.8689	1,000.49	86.2129	1,000.49	82.8769	1,000.49	84.9356	1,000.49	79.9312	1,000.49	79.868	1,000.49	78.3234	1,000.49	76.322	1,000.49	79.659	1,000.49	75.5921	1,000.49	79.1415	1,000.49	54.8923	1,000.49	75.2642	1,000.49	72.6135	1,000.49	77.6359	1,000.49	72.5321	1,000.49	78.4959	1,000.49	73.7369	1,000.49	76.7729	1,000.49	64.3337	1,000.49	76.074	1,000.49	75.2319	1,000.49	75.5411	1,000.49	72.0481	1,000.49	72.2545	1,000.49	71.8903	1,000.49	71.3593
1,035.64	87.7111	1,035.64	88.9751	1,035.64	86.4461	1,035.64	89.0702	1,035.64	85.4208	1,035.64	88.3514	1,035.64	85.104	1,035.64	87.3144	1,035.64	85.7691	1,035.64	84.5724	1,035.64	84.995	1,035.64	81.4437	1,035.64	82.07	1,035.64	81.0512	1,035.64	81.0806	1,035.64	77.5338	1,035.64	78.8068	1,035.64	74.5983	1,035.64	74.9124	1,035.64	77.8258	1,035.64	78.5317	1,035.64	74.5154	1,035.64	73.7167	1,035.64	69.004	1,035.64	80.0099	1,035.64	68.0988	1,035.64	68.7541	1,035.64	56.2047	1,035.64	79.3481	1,035.64	70.5121	1,035.64	73.2715	1,035.64	72.2598	1,035.64	72.9409	1,035.64	72.09	1,035.64	72.6981	1,035.64	75.9618
1,072.27	88.2365	1,072.27	88.783	1,072.27	86.5603	1,072.27	88.6232	1,072.27	84.3599	1,072.27	87.9557	1,072.27	83.6894	1,072.27	85.6952	1,072.27	85.0098	1,072.27	83.8765	1,072.27	85.7831	1,072.27	83.7623	1,072.27	85.022	1,072.27	80.5591	1,072.27	81.6671	1,072.27	76.8642	1,072.27	78.3032	1,072.27	75.9576	1,072.27	75.0091	1,072.27	64.7389	1,072.27	71.9432	1,072.27	76.449	1,072.27	73.818	1,072.27	79.0235	1,072.27	71.3434	1,072.27	76.2337	1,072.27	76.1993	1,072.27	78.5992	1,072.27	62.217	1,072.27	73.2061	1,072.27	76.2901	1,072.27	73.5555	1,072.27	71.8192	1,072.27	73.0883	1,072.27	62.9603	1,072.27	73.5418
1,108.89	88.1649	1,108.89	88.705	1,108.89	86.7171	1,108.89	88.6854	1,108.89	84.844	1,108.89	87.4029	1,108.89	84.3841	1,108.89	85.131	1,108.89	84.8993	1,108.89	84.7747	1,108.89	84.5063	1,108.89	83.5983	1,108.89	83.2331	1,108.89	80.6479	1,108.89	79.9373	1,108.89	79.2832	1,108.89	78.546	1,108.89	79.7262	1,108.89	79.7909	1,108.89	79.4075	1,108.89	74.3799	1,108.89	73.5538	1,108.89	75.3745	1,108.89	70.0689	1,108.89	78.8103	1,108.89	73.4736	1,108.89	75.9648	1,108.89	72.764	1,108.89	77.2973	1,108.89	72.8782	1,108.89	70.4022	1,108.89	69.8711	1,108.89	74.9589	1,108.89	69.8778	1,108.89	75.5408	1,108.89	73.6888
1,148.44	87.9076	1,148.44	89.1057	1,148.44	85.9903	1,148.44	88.4629	1,148.44	85.306	1,148.44	86.2562	1,148.44	85.2177	1,148.44	86.3544	1,148.44	84.9787	1,148.44	85.4794	1,148.44	85.939	1,148.44	82.4334	1,148.44	84.6702	1,148.44	81.2333	1,148.44	84.08	1,148.44	82.0012	1,148.44	84.4234	1,148.44	81.8957	1,148.44	80.5086	1,148.44	83.4469	1,148.44	79.1559	1,148.44	83.6403	1,148.44	56.424	1,148.44	78.0016	1,148.44	69.5982	1,148.44	80.0691	1,148.44	72.2154	1,148.44	76.3124	1,148.44	65.373	1,148.44	71.6217	1,148.44	73.674	1,148.44	71.7442	1,148.44	75.1886	1,148.44	73.7615	1,148.44	66.7504	1,148.44	75.7836
1,189.45	88.4264	1,189.45	88.3707	1,189.45	87.4321	1,189.45	87.0986	1,189.45	84.9559	1,189.45	86.5655	1,189.45	83.9263	1,189.45	86.6819	1,189.45	86.2075	1,189.45	85.4888	1,189.45	85.7195	1,189.45	83.9767	1,189.45	85.491	1,189.45	81.7771	1,189.45	84.6542	1,189.45	76.2184	1,189.45	78.9426	1,189.45	65.7337	1,189.45	76.4651	1,189.45	60.4043	1,189.45	71.1536	1,189.45	63.4933	1,189.45	73.1077	1,189.45	64.2724	1,189.45	74.9961	1,189.45	72.5291	1,189.45	75.3467	1,189.45	76.8223	1,189.45	78.4534	1,189.45	75.085	1,189.45	72.9537	1,189.45	75.2435	1,189.45	71.9551	1,189.45	62.7276	1,189.45	72.9889	1,189.45	66.4534
1,230.47	88.8877	1,230.47	88.6328	1,230.47	87.2212	1,230.47	87.1282	1,230.47	85.8171	1,230.47	86.3872	1,230.47	85.3532	1,230.47	84.929	1,230.47	85.0923	1,230.47	83.6239	1,230.47	86.304	1,230.47	83.0547	1,230.47	85.7565	1,230.47	80.8069	1,230.47	82.5175	1,230.47	78.6579	1,230.47	81.5168	1,230.47	77.5608	1,230.47	80.594	1,230.47	75.6758	1,230.47	80.9246	1,230.47	74.961	1,230.47	64.4979	1,230.47	75.5366	1,230.47	68.8477	1,230.47	74.8317	1,230.47	71.008	1,230.47	74.3671	1,230.47	66.2309	1,230.47	71.741	1,230.47	75.7136	1,230.47	69.5044	1,230.47	74.3522	1,230.47	74.5624	1,230.47	66.2831	1,230.47	70.3717
1,274.41	89.0002	1,274.41	88.1299	1,274.41	88.3863	1,274.41	87.6191	1,274.41	85.9759	1,274.41	86.525	1,274.41	84.2546	1,274.41	85.1377	1,274.41	85.3551	1,274.41	84.3147	1,274.41	86.2657	1,274.41	81.5492	1,274.41	84.6162	1,274.41	78.9497	1,274.41	83.4267	1,274.41	78.054	1,274.41	80.0681	1,274.41	74.0584	1,274.41	70.1076	1,274.41	75.4736	1,274.41	74.375	1,274.41	62.0318	1,274.41	79.0901	1,274.41	75.7092	1,274.41	73.2578	1,274.41	74.1684	1,274.41	69.3085	1,274.41	76.8183	1,274.41	76.9713	1,274.41	73.5787	1,274.41	74.9251	1,274.41	73.6388	1,274.41	69.4193	1,274.41	70.7519	1,274.41	67.6422	1,274.41	67.6601
1,319.82	88.8461	1,319.82	88.0657	1,319.82	88.68	1,319.82	87.7724	1,319.82	87.1832	1,319.82	87.1952	1,319.82	85.6886	1,319.82	85.3798	1,319.82	84.7559	1,319.82	82.1774	1,319.82	84.1471	1,319.82	80.5563	1,319.82	85.2176	1,319.82	79.4742	1,319.82	81.0569	1,319.82	77.0425	1,319.82	77.3976	1,319.82	70.6359	1,319.82	76.7484	1,319.82	68.3837	1,319.82	56.8372	1,319.82	73.3728	1,319.82	68.1983	1,319.82	63.703	1,319.82	74.1769	1,319.82	72.5616	1,319.82	75.5709	1,319.82	65.6259	1,319.82	65.6696	1,319.82	69.2004	1,319.82	74.2941	1,319.82	60.302	1,319.82	70.8871	1,319.82	71.0686	1,319.82	59.9917	1,319.82	64.0629
1,366.7	88.6086	1,366.7	88.6382	1,366.7	88.8651	1,366.7	88.002	1,366.7	87.1792	1,366.7	86.7118	1,366.7	84.593	1,366.7	84.8656	1,366.7	84.7236	1,366.7	83.27	1,366.7	84.6968	1,366.7	81.5081	1,366.7	82.9698	1,366.7	77.132	1,366.7	81.6131	1,366.7	72.4383	1,366.7	79.5451	1,366.7	71.0172	1,366.7	77.4856	1,366.7	72.4414	1,366.7	77.6061	1,366.7	52.7439	1,366.7	66.5397	1,366.7	65.1234	1,366.7	71.6723	1,366.7	75.0974	1,366.7	67.722	1,366.7	74.5028	1,366.7	73.5749	1,366.7	74.4392	1,366.7	71.5419	1,366.7	69.3523	1,366.7	67.6157	1,366.7	67.9164	1,366.7	70.6326	1,366.7	67.5368
1,413.57	88.1011	1,413.57	88.1431	1,413.57	88.165	1,413.57	87.9802	1,413.57	87.197	1,413.57	86.9015	1,413.57	84.8817	1,413.57	84.3005	1,413.57	84.0026	1,413.57	81.5386	1,413.57	82.8792	1,413.57	76.8633	1,413.57	82.4974	1,413.57	76.9433	1,413.57	81.4398	1,413.57	77.2542	1,413.57	76.0402	1,413.57	72.718	1,413.57	73.1741	1,413.57	72.5096	1,413.57	68.9052	1,413.57	70.079	1,413.57	74.9015	1,413.57	60.6908	1,413.57	68.1113	1,413.57	73.436	1,413.57	68.6903	1,413.57	72.1291	1,413.57	68.8134	1,413.57	73.0378	1,413.57	56.508	1,413.57	67.5158	1,413.57	71.2083	1,413.57	70.8678	1,413.57	67.613	1,413.57	53.268
1,463.38	87.4995	1,463.38	87.5182	1,463.38	87.7659	1,463.38	87.5822	1,463.38	86.9854	1,463.38	86.417	1,463.38	84.8735	1,463.38	84.2192	1,463.38	84.1528	1,463.38	79.8151	1,463.38	83.5211	1,463.38	78.4159	1,463.38	81.9374	1,463.38	77.5658	1,463.38	79.1897	1,463.38	73.6772	1,463.38	76.7513	1,463.38	71.2841	1,463.38	69.4672	1,463.38	52.7715	1,463.38	71.5765	1,463.38	66.9804	1,463.38	68.2232	1,463.38	65.8645	1,463.38	67.4946	1,463.38	65.0541	1,463.38	64.601	1,463.38	65.9398	1,463.38	69.9322	1,463.38	67.9644	1,463.38	68.8769	1,463.38	66.2885	1,463.38	68.1277	1,463.38	64.3511	1,463.38	70.8385	1,463.38	62.4109
1,516.11	87.3124	1,516.11	87.4263	1,516.11	86.9833	1,516.11	87.3361	1,516.11	86.3625	1,516.11	86.1874	1,516.11	84.2615	1,516.11	83.8242	1,516.11	81.9575	1,516.11	81.5702	1,516.11	82.0167	1,516.11	79.5615	1,516.11	80.6248	1,516.11	75.4884	1,516.11	78.566	1,516.11	67.2132	1,516.11	73.3505	1,516.11	62.6375	1,516.11	71.7314	1,516.11	63.184	1,516.11	65.1598	1,516.11	53.285	1,516.11	72.3083	1,516.11	64.1157	1,516.11	64.3169	1,516.11	70.7029	1,516.11	65.9161	1,516.11	74.5584	1,516.11	73.8905	1,516.11	70.0144	1,516.11	67.2194	1,516.11	71.0505	1,516.11	57.8236	1,516.11	68.592	1,516.11	58.1373	1,516.11	60.0384
1,568.85	87.2926	1,568.85	87.261	1,568.85	87.3185	1,568.85	86.7304	1,568.85	86.1988	1,568.85	85.4846	1,568.85	84.2494	1,568.85	83.8154	1,568.85	83.0804	1,568.85	80.3256	1,568.85	81.1492	1,568.85	76.9366	1,568.85	78.6424	1,568.85	74.061	1,568.85	77.0125	1,568.85	73.3175	1,568.85	75.1569	1,568.85	72.6864	1,568.85	70.9853	1,568.85	69.8074	1,568.85	68.5872	1,568.85	69.325	1,568.85	67.8028	1,568.85	64.4556	1,568.85	72.4719	1,568.85	68.5244	1,568.85	73.2229	1,568.85	66.4569	1,568.85	64.3295	1,568.85	64.904	1,568.85	68.3888	1,568.85	62.8511	1,568.85	61.6542	1,568.85	61.4079	1,568.85	66.7362	1,568.85	68.743
1,624.51	87.9245	1,624.51	87.7357	1,624.51	88.0506	1,624.51	86.1274	1,624.51	86.427	1,624.51	84.3998	1,624.51	83.341	1,624.51	82.2924	1,624.51	81.4494	1,624.51	79.2639	1,624.51	80.9323	1,624.51	75.8634	1,624.51	78.5275	1,624.51	73.1159	1,624.51	76.4625	1,624.51	64.8862	1,624.51	72.929	1,624.51	64.8697	1,624.51	71.6802	1,624.51	64.4152	1,624.51	69.8839	1,624.51	65.2472	1,624.51	63.1911	1,624.51	56.159	1,624.51	69.7644	1,624.51	66.7234	1,624.51	66.3296	1,624.51	72.4726	1,624.51	68.2001	1,624.51	70.5235	1,624.51	69.0492	1,624.51	69.074	1,624.51	63.5628	1,624.51	64.5244	1,624.51	66.6261	1,624.51	50.7806
1,681.64	88.8494	1,681.64	88.0285	1,681.64	88.8732	1,681.64	85.5856	1,681.64	87.1315	1,681.64	83.4433	1,681.64	82.3914	1,681.64	81.2871	1,681.64	80.3667	1,681.64	78.3141	1,681.64	78.5251	1,681.64	75.4972	1,681.64	76.9751	1,681.64	72.4646	1,681.64	75.8539	1,681.64	72.3113	1,681.64	71.6932	1,681.64	68.8541	1,681.64	66.4323	1,681.64	72.792	1,681.64	68.2925	1,681.64	61.6533	1,681.64	65.9499	1,681.64	71.0514	1,681.64	65.2246	1,681.64	69.2274	1,681.64	67.4155	1,681.64	70.3924	1,681.64	69.8891	1,681.64	63.0921	1,681.64	60.9679	1,681.64	63.2672	1,681.64	62.6668	1,681.64	63.3447	1,681.64	67.492	1,681.64	60.3415
1,741.7	89.0193	1,741.7	88.2324	1,741.7	89.0289	1,741.7	85.4778	1,741.7	87.2869	1,741.7	80.8739	1,741.7	81.0329	1,741.7	76.9864	1,741.7	76.2064	1,741.7	76.1205	1,741.7	74.7616	1,741.7	73.8805	1,741.7	77.052	1,741.7	74.6326	1,741.7	75.9876	1,741.7	71.1975	1,741.7	74.648	1,741.7	62.999	1,741.7	68.7081	1,741.7	70.5882	1,741.7	70.918	1,741.7	72.0503	1,741.7	68.4832	1,741.7	67.8256	1,741.7	61.307	1,741.7	64.838	1,741.7	69.8326	1,741.7	64.5531	1,741.7	67.1622	1,741.7	61.5075	1,741.7	63.3453	1,741.7	54.4451	1,741.7	68.5109	1,741.7	66.4221	1,741.7	62.0947	1,741.7	50.9441
1,803.22	88.7466	1,803.22	88.0694	1,803.22	88.5129	1,803.22	85.2853	1,803.22	87.0733	1,803.22	78.4452	1,803.22	80.0725	1,803.22	70.9574	1,803.22	70.5123	1,803.22	74.2374	1,803.22	70.6315	1,803.22	73.2455	1,803.22	76.8915	1,803.22	73.6048	1,803.22	78.1081	1,803.22	72.0686	1,803.22	74.2102	1,803.22	73.5562	1,803.22	72.1486	1,803.22	68.6422	1,803.22	66.4481	1,803.22	67.6893	1,803.22	65.2915	1,803.22	70.1219	1,803.22	67.6444	1,803.22	66.3282	1,803.22	70.3716	1,803.22	67.6112	1,803.22	62.8377	1,803.22	65.5222	1,803.22	62.7095	1,803.22	63.6446	1,803.22	62.0747	1,803.22	66.5582	1,803.22	53.7919	1,803.22	64.0844
1,866.21	88.1785	1,866.21	87.2953	1,866.21	87.3531	1,866.21	84.1347	1,866.21	86.1386	1,866.21	77.1112	1,866.21	79.1329	1,866.21	63.4098	1,866.21	60.4785	1,866.21	72.6559	1,866.21	71.5743	1,866.21	74.1034	1,866.21	77.3354	1,866.21	75.9264	1,866.21	79.5175	1,866.21	73.088	1,866.21	76.932	1,866.21	69.5733	1,866.21	66.5348	1,866.21	71.753	1,866.21	70.5397	1,866.21	72.9948	1,866.21	67.7477	1,866.21	68.1213	1,866.21	66.7476	1,866.21	64.4402	1,866.21	66.8891	1,866.21	70.4128	1,866.21	65.1265	1,866.21	61.2734	1,866.21	56.3997	1,866.21	65.4056	1,866.21	67.7562	1,866.21	62.279	1,866.21	54.7857	1,866.21	57.037
1,932.13	87.5644	1,932.13	86.6028	1,932.13	87.0394	1,932.13	82.7253	1,932.13	84.6957	1,932.13	77.0982	1,932.13	77.2314	1,932.13	59.6964	1,932.13	58.3739	1,932.13	74.86	1,932.13	72.2304	1,932.13	76.8945	1,932.13	79.7994	1,932.13	73.8837	1,932.13	78.8263	1,932.13	72.6418	1,932.13	78.6168	1,932.13	73.235	1,932.13	72.406	1,932.13	69.444	1,932.13	67.2352	1,932.13	67.4462	1,932.13	68.9939	1,932.13	69.8153	1,932.13	68.7673	1,932.13	66.9541	1,932.13	65.2013	1,932.13	66.6093	1,932.13	63.0203	1,932.13	66.1474	1,932.13	53.4599	1,932.13	64.6613	1,932.13	54.3676	1,932.13	57.093	1,932.13	58.4348	1,932.13	55.2094
1,999.51	88.4316	1,999.51	86.3305	1,999.51	86.8313	1,999.51	81.7344	1,999.51	84.1519	1,999.51	73.2887	1,999.51	72.7334	1,999.51	71.3556	1,999.51	64.7186	1,999.51	77.0891	1,999.51	75.3352	1,999.51	77.9781	1,999.51	80.0562	1,999.51	77.4336	1,999.51	80.0374	1,999.51	75.0247	1,999.51	76.4702	1,999.51	72.4089	1,999.51	74.7369	1,999.51	73.7221	1,999.51	69.5251	1,999.51	71.0461	1,999.51	64.033	1,999.51	67.1512	1,999.51	69.4537	1,999.51	61.1009	1,999.51	61.5364	1,999.51	64.6515	1,999.51	60.0897	1,999.51	62.9994	1,999.51	57.4157	1,999.51	56.5029	1,999.51	63.7565	1,999.51	38.3527	1,999.51	63.3022	1,999.51	60.898
2,069.82	88.9029	2,069.82	86.6487	2,069.82	87.49	2,069.82	81.4119	2,069.82	85.0093	2,069.82	72.3734	2,069.82	72.4421	2,069.82	73.792	2,069.82	70.4332	2,069.82	78.794	2,069.82	74.6541	2,069.82	78.8206	2,069.82	81.351	2,069.82	75.0622	2,069.82	80.1757	2,069.82	72.0547	2,069.82	78.8807	2,069.82	73.934	2,069.82	68.7493	2,069.82	72.8945	2,069.82	67.2586	2,069.82	67.604	2,069.82	73.225	2,069.82	66.6812	2,069.82	65.2427	2,069.82	68.8743	2,069.82	50.8594	2,069.82	56.1315	2,069.82	67.9209	2,069.82	53.9644	2,069.82	54.8227	2,069.82	57.1474	2,069.82	53.3046	2,069.82	57.8903	2,069.82	56.3577	2,069.82	55.8521
2,143.07	88.7965	2,143.07	87.2426	2,143.07	87.7939	2,143.07	81.8891	2,143.07	85.4624	2,143.07	77.8254	2,143.07	75.1305	2,143.07	77.4022	2,143.07	77.1634	2,143.07	79.1524	2,143.07	74.531	2,143.07	77.5263	2,143.07	82.1752	2,143.07	77.2068	2,143.07	80.6109	2,143.07	73.9449	2,143.07	78.653	2,143.07	70.2093	2,143.07	75.6963	2,143.07	69.7092	2,143.07	55.2269	2,143.07	69.5353	2,143.07	67.1427	2,143.07	64.4363	2,143.07	72.2415	2,143.07	70.3903	2,143.07	51.5195	2,143.07	58.7647	2,143.07	69.7199	2,143.07	64.8857	2,143.07	60.8722	2,143.07	56.2456	2,143.07	61.3148	2,143.07	53.7946	2,143.07	62.2235	2,143.07	62.7609
2,219.24	87.7721	2,219.24	85.9289	2,219.24	87.002	2,219.24	82.9333	2,219.24	85.1833	2,219.24	78.2619	2,219.24	76.6835	2,219.24	80.4684	2,219.24	77.6777	2,219.24	78.4861	2,219.24	75.249	2,219.24	78.1069	2,219.24	81.1417	2,219.24	75.7621	2,219.24	81.5021	2,219.24	73.3458	2,219.24	76.1163	2,219.24	73.1841	2,219.24	72.866	2,219.24	67.7116	2,219.24	53.0769	2,219.24	64.9783	2,219.24	67.9993	2,219.24	67.655	2,219.24	72.343	2,219.24	70.1769	2,219.24	61.4049	2,219.24	60.3711	2,219.24	68.2046	2,219.24	66.2451	2,219.24	63.3005	2,219.24	66.3108	2,219.24	56.1198	2,219.24	49.8424	2,219.24	59.6862	2,219.24	60.7875
2,296.88	87.0317	2,296.88	85.103	2,296.88	86.019	2,296.88	82.2151	2,296.88	84.3701	2,296.88	80.8652	2,296.88	78.3446	2,296.88	81.3306	2,296.88	77.3044	2,296.88	79.518	2,296.88	77.0796	2,296.88	77.1265	2,296.88	80.8322	2,296.88	76.0886	2,296.88	79.6775	2,296.88	73.693	2,296.88	79.5023	2,296.88	69.5087	2,296.88	69.6596	2,296.88	69.1798	2,296.88	64.6538	2,296.88	69.3263	2,296.88	73.8974	2,296.88	67.8693	2,296.88	69.172	2,296.88	67.5145	2,296.88	57.9396	2,296.88	62.2224	2,296.88	67.0489	2,296.88	66.7951	2,296.88	48.0204	2,296.88	59.3611	2,296.88	60.1487	2,296.88	56.7361	2,296.88	59.8755	2,296.88	57.934
2,378.91	87.5826	2,378.91	85.6086	2,378.91	86.6437	2,378.91	81.8227	2,378.91	82.1242	2,378.91	81.2526	2,378.91	77.5916	2,378.91	80.6511	2,378.91	75.4612	2,378.91	79.007	2,378.91	78.0352	2,378.91	77.4109	2,378.91	81.0303	2,378.91	76.6455	2,378.91	81.5662	2,378.91	73.2717	2,378.91	78.451	2,378.91	74.2421	2,378.91	73.9884	2,378.91	64.1173	2,378.91	72.2734	2,378.91	67.5453	2,378.91	66.8651	2,378.91	68.9751	2,378.91	72.1821	2,378.91	70.1093	2,378.91	56.6583	2,378.91	68.6943	2,378.91	67.8631	2,378.91	49.562	2,378.91	57.6177	2,378.91	64.255	2,378.91	62.7762	2,378.91	51.6435	2,378.91	56.6137	2,378.91	62.3755
2,462.4	89.1347	2,462.4	87.4291	2,462.4	88.6146	2,462.4	83.7218	2,462.4	83.4551	2,462.4	82.4837	2,462.4	77.338	2,462.4	80.3755	2,462.4	75.4666	2,462.4	80.6302	2,462.4	79.6244	2,462.4	78.0407	2,462.4	80.1655	2,462.4	74.5488	2,462.4	81.9785	2,462.4	71.8269	2,462.4	76.905	2,462.4	69.3428	2,462.4	75.6084	2,462.4	58.4165	2,462.4	63.9392	2,462.4	69.3019	2,462.4	68.6597	2,462.4	66.9269	2,462.4	71.4429	2,462.4	68.6765	2,462.4	57.886	2,462.4	67.7138	2,462.4	61.0816	2,462.4	65.277	2,462.4	61.0192	2,462.4	62.9412	2,462.4	62.8326	2,462.4	53.7149	2,462.4	57.1599	2,462.4	59.6097
2,548.83	88.8888	2,548.83	87.5877	2,548.83	88.9956	2,548.83	85.2499	2,548.83	85.344	2,548.83	83.1856	2,548.83	77.0935	2,548.83	80.2829	2,548.83	77.5135	2,548.83	80.47	2,548.83	79.3127	2,548.83	77.3893	2,548.83	80.0211	2,548.83	75.9521	2,548.83	79.8033	2,548.83	75.8185	2,548.83	77.1798	2,548.83	72.356	2,548.83	75.5346	2,548.83	72.07	2,548.83	69.0092	2,548.83	59.7781	2,548.83	69.2984	2,548.83	72.4954	2,548.83	63.0053	2,548.83	66.5332	2,548.83	63.8746	2,548.83	70.132	2,548.83	66.0352	2,548.83	63.8998	2,548.83	65.068	2,548.83	60.9595	2,548.83	56.7228	2,548.83	61.5118	2,548.83	60.6916	2,548.83	55.7114
2,639.65	87.905	2,639.65	86.7471	2,639.65	88.4743	2,639.65	86.0356	2,639.65	86.166	2,639.65	83.1883	2,639.65	80.7088	2,639.65	82.5085	2,639.65	77.0862	2,639.65	79.9253	2,639.65	80.1055	2,639.65	78.5217	2,639.65	80.5572	2,639.65	77.1055	2,639.65	79.8403	2,639.65	74.6282	2,639.65	78.4415	2,639.65	75.7159	2,639.65	73.5146	2,639.65	69.2849	2,639.65	65.5948	2,639.65	69.7832	2,639.65	51.9216	2,639.65	68.548	2,639.65	63.9427	2,639.65	69.4677	2,639.65	67.9589	2,639.65	67.6924	2,639.65	65.0289	2,639.65	63.0736	2,639.65	65.4788	2,639.65	58.6876	2,639.65	55.6174	2,639.65	49.8306	2,639.65	56.4552	2,639.65	63.4364
2,731.93	87.383	2,731.93	86.08	2,731.93	87.3312	2,731.93	85.3107	2,731.93	84.8429	2,731.93	83.317	2,731.93	82.4063	2,731.93	82.4414	2,731.93	75.3196	2,731.93	81.2077	2,731.93	80.2571	2,731.93	78.5345	2,731.93	80.406	2,731.93	77.9477	2,731.93	79.2418	2,731.93	73.5801	2,731.93	78.0527	2,731.93	72.5003	2,731.93	72.577	2,731.93	66.3382	2,731.93	62.3385	2,731.93	69.2073	2,731.93	68.5113	2,731.93	68.6075	2,731.93	54.5685	2,731.93	67.079	2,731.93	68.7158	2,731.93	71.4468	2,731.93	67.0857	2,731.93	59.2324	2,731.93	51.6674	2,731.93	59.1175	2,731.93	52.7916	2,731.93	50.5512	2,731.93	59.6233	2,731.93	58.4305
2,828.61	87.8627	2,828.61	86.8904	2,828.61	87.7954	2,828.61	84.8271	2,828.61	84.3797	2,828.61	82.7918	2,828.61	82.7776	2,828.61	81.9652	2,828.61	74.7934	2,828.61	82.0339	2,828.61	81.0108	2,828.61	78.6221	2,828.61	79.201	2,828.61	78.4904	2,828.61	80.1942	2,828.61	77.2271	2,828.61	77.5611	2,828.61	73.1386	2,828.61	70.4007	2,828.61	70.7058	2,828.61	61.9113	2,828.61	68.4202	2,828.61	65.485	2,828.61	70.6831	2,828.61	57.9293	2,828.61	64.0963	2,828.61	64.3961	2,828.61	70.6778	2,828.61	67.7005	2,828.61	67.9343	2,828.61	52.4024	2,828.61	62.5663	2,828.61	61.2435	2,828.61	63.3304	2,828.61	62.2302	2,828.61	39.2467
2,928.22	87.9641	2,928.22	87.9135	2,928.22	87.9633	2,928.22	86.1993	2,928.22	85.4431	2,928.22	84.1848	2,928.22	82.7579	2,928.22	82.6593	2,928.22	76.4917	2,928.22	81.7053	2,928.22	80.1244	2,928.22	80.4823	2,928.22	78.3829	2,928.22	79.4366	2,928.22	80.2714	2,928.22	76.4794	2,928.22	75.1232	2,928.22	75.1884	2,928.22	65.0977	2,928.22	70.1677	2,928.22	62.1894	2,928.22	68.0421	2,928.22	69.1867	2,928.22	66.0589	2,928.22	57.9253	2,928.22	67.8855	2,928.22	57.908	2,928.22	62.289	2,928.22	66.4461	2,928.22	69.2421	2,928.22	64.2043	2,928.22	59.0503	2,928.22	64.0531	2,928.22	65.7133	2,928.22	64.1421	2,928.22	62.7989
3,030.76	88.0725	3,030.76	88.0299	3,030.76	87.3867	3,030.76	86.4473	3,030.76	85.7207	3,030.76	84.8326	3,030.76	81.4812	3,030.76	82.4242	3,030.76	79.6785	3,030.76	82.7395	3,030.76	78.487	3,030.76	79.6315	3,030.76	77.0541	3,030.76	78.4552	3,030.76	80.9335	3,030.76	74.4941	3,030.76	75.4905	3,030.76	71.4275	3,030.76	72.4638	3,030.76	72.3981	3,030.76	64.1725	3,030.76	66.981	3,030.76	67.1715	3,030.76	64.1334	3,030.76	61.611	3,030.76	68.7934	3,030.76	63.6202	3,030.76	64.1519	3,030.76	69.8903	3,030.76	65.0108	3,030.76	58.0179	3,030.76	65.3932	3,030.76	54.7889	3,030.76	59.3932	3,030.76	60.8363	3,030.76	54.3689
3,137.7	87.7536	3,137.7	87.8067	3,137.7	87.4152	3,137.7	86.4924	3,137.7	86.2705	3,137.7	85.1666	3,137.7	81.5168	3,137.7	83.0871	3,137.7	79.4629	3,137.7	82.5609	3,137.7	79.4364	3,137.7	80.3271	3,137.7	75.9652	3,137.7	77.5923	3,137.7	80.3756	3,137.7	77.2587	3,137.7	74.4424	3,137.7	65.3846	3,137.7	71.5179	3,137.7	73.2034	3,137.7	66.2316	3,137.7	56.3609	3,137.7	58.1008	3,137.7	68.6831	3,137.7	63.5797	3,137.7	62.1532	3,137.7	67.4303	3,137.7	70.0332	3,137.7	70.1341	3,137.7	62.1313	3,137.7	66.7113	3,137.7	63.1006	3,137.7	68.1399	3,137.7	58.3088	3,137.7	59.2159	3,137.7	56.9945
3,249.02	87.8743	3,249.02	87.5053	3,249.02	87.326	3,249.02	86.4091	3,249.02	86.9563	3,249.02	84.6096	3,249.02	83.5057	3,249.02	84.0864	3,249.02	77.7893	3,249.02	81.8993	3,249.02	79.3904	3,249.02	80.432	3,249.02	76.4498	3,249.02	76.5953	3,249.02	80.2679	3,249.02	74.4876	3,249.02	76.1805	3,249.02	65.6033	3,249.02	70.9874	3,249.02	71.5774	3,249.02	60.0623	3,249.02	53.6518	3,249.02	65.5084	3,249.02	68.3633	3,249.02	63.215	3,249.02	71.6383	3,249.02	54.5304	3,249.02	63.3127	3,249.02	71.5905	3,249.02	65.056	3,249.02	46.2322	3,249.02	54.8558	3,249.02	61.4802	3,249.02	50.3657	3,249.02	45.9536	3,249.02	50.0642
3,363.28	88.2046	3,363.28	87.9198	3,363.28	87.3095	3,363.28	86.6606	3,363.28	86.4036	3,363.28	83.775	3,363.28	84.3322	3,363.28	83.1413	3,363.28	78.7944	3,363.28	82.8709	3,363.28	78.7313	3,363.28	78.6464	3,363.28	76.5306	3,363.28	75.0352	3,363.28	78.4002	3,363.28	74.0411	3,363.28	74.6731	3,363.28	66.6403	3,363.28	71.5108	3,363.28	72.0078	3,363.28	56.1647	3,363.28	61.6153	3,363.28	63.7096	3,363.28	55.9064	3,363.28	59.8285	3,363.28	68.2518	3,363.28	65.3384	3,363.28	69.3495	3,363.28	64.2513	3,363.28	61.234	3,363.28	60.8835	3,363.28	64.8954	3,363.28	58.1938	3,363.28	61.8707	3,363.28	66.779	3,363.28	59.3552
3,481.93	88.0367	3,481.93	88.4607	3,481.93	87.1111	3,481.93	87.2997	3,481.93	87.1994	3,481.93	84.8338	3,481.93	84.7566	3,481.93	83.8191	3,481.93	80.6369	3,481.93	83.1613	3,481.93	77.8622	3,481.93	78.3071	3,481.93	75.7605	3,481.93	75.5126	3,481.93	75.5382	3,481.93	74.36	3,481.93	73.3063	3,481.93	68.6572	3,481.93	65.7834	3,481.93	69.7688	3,481.93	61.9456	3,481.93	57.4999	3,481.93	67.2534	3,481.93	66.3805	3,481.93	53.1096	3,481.93	64.6169	3,481.93	62.1816	3,481.93	69.4364	3,481.93	70.1181	3,481.93	61.8472	3,481.93	63.6902	3,481.93	64.145	3,481.93	55.1064	3,481.93	53.0535	3,481.93	60.3027	3,481.93	50.8978
3,604.98	87.8695	3,604.98	88.3734	3,604.98	85.9586	3,604.98	86.5559	3,604.98	86.319	3,604.98	85.4824	3,604.98	85.0145	3,604.98	84.5126	3,604.98	80.5682	3,604.98	81.2644	3,604.98	75.894	3,604.98	78.3921	3,604.98	74.1653	3,604.98	76.3994	3,604.98	75.0353	3,604.98	71.1687	3,604.98	69.4675	3,604.98	69.8984	3,604.98	67.0081	3,604.98	67.112	3,604.98	57.8868	3,604.98	65.1815	3,604.98	60.9409	3,604.98	60.7337	3,604.98	57.2799	3,604.98	71.2326	3,604.98	61.384	3,604.98	72.4587	3,604.98	63.9368	3,604.98	57.0189	3,604.98	56.7106	3,604.98	61.4364	3,604.98	56.5828	3,604.98	61.1529	3,604.98	62.7671	3,604.98	57.8567
3,732.42	88.8054	3,732.42	89.0898	3,732.42	87.5439	3,732.42	86.6327	3,732.42	85.7093	3,732.42	85.1507	3,732.42	85.1161	3,732.42	84.6906	3,732.42	80.3733	3,732.42	81.4737	3,732.42	72.3898	3,732.42	77.8973	3,732.42	74.5965	3,732.42	75.5419	3,732.42	72.7204	3,732.42	73.4918	3,732.42	73.1524	3,732.42	70.3667	3,732.42	67.2112	3,732.42	67.4731	3,732.42	59.66	3,732.42	63.8432	3,732.42	66.4256	3,732.42	61.6355	3,732.42	58.1936	3,732.42	64.5404	3,732.42	60.2244	3,732.42	70.3454	3,732.42	64.9594	3,732.42	67.5326	3,732.42	62.6032	3,732.42	63.0327	3,732.42	64.4548	3,732.42	50.3361	3,732.42	59.7842	3,732.42	51.1284
3,864.26	87.9549	3,864.26	88.0373	3,864.26	87.5876	3,864.26	86.6633	3,864.26	86.3845	3,864.26	85.9258	3,864.26	84.9052	3,864.26	83.9203	3,864.26	81.2977	3,864.26	81.072	3,864.26	74.3017	3,864.26	78.3596	3,864.26	71.9736	3,864.26	76.0275	3,864.26	73.4321	3,864.26	70.7091	3,864.26	73.5216	3,864.26	69.8148	3,864.26	72.6722	3,864.26	65.6126	3,864.26	59.4663	3,864.26	60.406	3,864.26	59.3033	3,864.26	60.3978	3,864.26	63.0863	3,864.26	66.9303	3,864.26	63.0857	3,864.26	73.8877	3,864.26	63.951	3,864.26	67.2124	3,864.26	63.5144	3,864.26	67.1549	3,864.26	64.9277	3,864.26	60.5804	3,864.26	59.9666	3,864.26	56.3492
4,000.49	87.4635	4,000.49	87.4724	4,000.49	85.9678	4,000.49	86.371	4,000.49	85.958	4,000.49	86.0733	4,000.49	85.2109	4,000.49	83.0919	4,000.49	80.7609	4,000.49	80.43	4,000.49	75.739	4,000.49	77.5134	4,000.49	69.5283	4,000.49	73.5264	4,000.49	72.8526	4,000.49	67.078	4,000.49	74.3603	4,000.49	68.5127	4,000.49	68.6297	4,000.49	62.7821	4,000.49	57.6773	4,000.49	65.9575	4,000.49	67.7522	4,000.49	62.1496	4,000.49	62.5019	4,000.49	64.093	4,000.49	60.3603	4,000.49	68.2689	4,000.49	68.4115	4,000.49	69.5935	4,000.49	53.7189	4,000.49	63.8695	4,000.49	63.8737	4,000.49	52.5547	4,000.49	64.5799	4,000.49	62.8793
4,141.11	88.4947	4,141.11	87.8847	4,141.11	86.7818	4,141.11	87.5475	4,141.11	84.7345	4,141.11	85.4426	4,141.11	86.2989	4,141.11	82.3144	4,141.11	81.5283	4,141.11	80.3511	4,141.11	74.7532	4,141.11	77.4674	4,141.11	70.897	4,141.11	72.909	4,141.11	70.0432	4,141.11	67.6677	4,141.11	72.722	4,141.11	68.9203	4,141.11	71.4858	4,141.11	62.2198	4,141.11	58.8359	4,141.11	59.3977	4,141.11	62.2166	4,141.11	60.6821	4,141.11	62.5175	4,141.11	59.6909	4,141.11	64.5289	4,141.11	71.3572	4,141.11	67.9675	4,141.11	66.1909	4,141.11	48.4725	4,141.11	62.4398	4,141.11	65.9255	4,141.11	59.8944	4,141.11	56.2834	4,141.11	55.8199
4,287.6	88.0992	4,287.6	87.2924	4,287.6	86.5239	4,287.6	87.919	4,287.6	84.4581	4,287.6	84.8986	4,287.6	85.4294	4,287.6	82.786	4,287.6	81.6768	4,287.6	80.0592	4,287.6	70.3929	4,287.6	75.7982	4,287.6	68.9367	4,287.6	73.4888	4,287.6	70.7925	4,287.6	70.9981	4,287.6	74.5016	4,287.6	71.5508	4,287.6	74.5074	4,287.6	63.3916	4,287.6	59.1361	4,287.6	62.5028	4,287.6	55.9395	4,287.6	56.6901	4,287.6	65.6896	4,287.6	61.7386	4,287.6	67.2293	4,287.6	69.7915	4,287.6	68.6647	4,287.6	64.0835	4,287.6	62.2463	4,287.6	68.1253	4,287.6	61.2189	4,287.6	62.0838	4,287.6	56.0868	4,287.6	54.4231
4,438.48	88.0037	4,438.48	87.0794	4,438.48	86.847	4,438.48	87.6073	4,438.48	84.7757	4,438.48	84.0794	4,438.48	84.2223	4,438.48	83.1351	4,438.48	82.0039	4,438.48	79.6107	4,438.48	72.4209	4,438.48	74.736	4,438.48	72.7176	4,438.48	74.843	4,438.48	74.0104	4,438.48	72.0325	4,438.48	72.8085	4,438.48	70.2808	4,438.48	74.25	4,438.48	56.8534	4,438.48	61.4067	4,438.48	67.7236	4,438.48	44.6187	4,438.48	58.0192	4,438.48	62.3619	4,438.48	62.4861	4,438.48	59.6414	4,438.48	65.4083	4,438.48	66.1043	4,438.48	64.4195	4,438.48	49.3867	4,438.48	64.3427	4,438.48	58.281	4,438.48	59.2835	4,438.48	60.8913	4,438.48	60.095
4,595.21	87.8487	4,595.21	87.1289	4,595.21	86.8416	4,595.21	87.5569	4,595.21	84.5978	4,595.21	82.1918	4,595.21	84.2801	4,595.21	82.9465	4,595.21	80.9103	4,595.21	77.2613	4,595.21	76.6236	4,595.21	76.3043	4,595.21	72.7468	4,595.21	75.5356	4,595.21	72.7424	4,595.21	72.051	4,595.21	73.4282	4,595.21	71.433	4,595.21	71.1902	4,595.21	62.015	4,595.21	57.4045	4,595.21	66.131	4,595.21	56.4981	4,595.21	45.492	4,595.21	60.3363	4,595.21	63.3162	4,595.21	63.7746	4,595.21	59.195	4,595.21	64.2752	4,595.21	66.0505	4,595.21	57.4504	4,595.21	66.1037	4,595.21	59.0955	4,595.21	58.9738	4,595.21	51.4521	4,595.21	52.6534
4,756.35	87.8678	4,756.35	87.9829	4,756.35	86.7642	4,756.35	86.8851	4,756.35	84.793	4,756.35	83.7673	4,756.35	84.0586	4,756.35	82.3222	4,756.35	80.8744	4,756.35	76.8276	4,756.35	76.7776	4,756.35	77.0131	4,756.35	72.9573	4,756.35	74.8728	4,756.35	66.0515	4,756.35	71.7113	4,756.35	69.3961	4,756.35	70.1037	4,756.35	60.0505	4,756.35	63.1301	4,756.35	61.2471	4,756.35	63.7026	4,756.35	58.5111	4,756.35	59.215	4,756.35	53.3324	4,756.35	60.7424	4,756.35	48.8749	4,756.35	56.5761	4,756.35	62.3902	4,756.35	67.8935	4,756.35	55.979	4,756.35	56.2675	4,756.35	55.6063	4,756.35	50.6719	4,756.35	57.8358	4,756.35	38.718
4,924.8	87.7809	4,924.8	89.3098	4,924.8	88.4337	4,924.8	84.7211	4,924.8	83.8269	4,924.8	84.3397	4,924.8	83.6235	4,924.8	80.0137	4,924.8	80.3992	4,924.8	78.4635	4,924.8	76.0619	4,924.8	77.6913	4,924.8	76.9305	4,924.8	73.421	4,924.8	63.694	4,924.8	71.2157	4,924.8	72.2174	4,924.8	69.042	4,924.8	70.5885	4,924.8	64.2209	4,924.8	64.1355	4,924.8	63.0634	4,924.8	56.5832	4,924.8	56.7923	4,924.8	51.4492	4,924.8	65.9816	4,924.8	59.1918	4,924.8	58.239	4,924.8	62.0603	4,924.8	66.1401	4,924.8	49.5127	4,924.8	56.9916	4,924.8	53.1266	4,924.8	58.6566	4,924.8	59.4651	4,924.8	58.8914
5,097.66	87.4603	5,097.66	88.932	5,097.66	88.6216	5,097.66	84.5338	5,097.66	84.7596	5,097.66	83.9257	5,097.66	83.2305	5,097.66	80.1166	5,097.66	80.6191	5,097.66	79.2837	5,097.66	75.5744	5,097.66	75.5863	5,097.66	76.6774	5,097.66	74.103	5,097.66	68.2987	5,097.66	74.1847	5,097.66	74.6121	5,097.66	70.1508	5,097.66	69.6185	5,097.66	66.1133	5,097.66	60.3146	5,097.66	61.4101	5,097.66	50.1884	5,097.66	53.9185	5,097.66	58.8133	5,097.66	60.9629	5,097.66	60.1129	5,097.66	68.9577	5,097.66	55.6031	5,097.66	64.2638	5,097.66	59.4526	5,097.66	53.9559	5,097.66	57.8324	5,097.66	49.6774	5,097.66	53.8283	5,097.66	53.6445
5,277.83	88.1577	5,277.83	88.374	5,277.83	88.5241	5,277.83	85.8545	5,277.83	85.0333	5,277.83	81.7749	5,277.83	83.8841	5,277.83	81.4996	5,277.83	81.9502	5,277.83	78.7987	5,277.83	76.5347	5,277.83	77.1943	5,277.83	73.4127	5,277.83	75.0109	5,277.83	70.846	5,277.83	72.0633	5,277.83	72.3041	5,277.83	66.8846	5,277.83	64.8176	5,277.83	63.9973	5,277.83	51.8683	5,277.83	62.0078	5,277.83	53.091	5,277.83	57.6579	5,277.83	56.6918	5,277.83	56.009	5,277.83	54.91	5,277.83	67.5483	5,277.83	67.1256	5,277.83	69.1782	5,277.83	58.6556	5,277.83	56.5488	5,277.83	57.5219	5,277.83	58.2612	5,277.83	55.8552	5,277.83	44.263
5,463.87	88.6928	5,463.87	86.9242	5,463.87	86.8142	5,463.87	86.4886	5,463.87	84.8261	5,463.87	81.1796	5,463.87	83.3194	5,463.87	82.0154	5,463.87	83.1941	5,463.87	77.9622	5,463.87	77.6014	5,463.87	77.1309	5,463.87	74.1309	5,463.87	73.4539	5,463.87	70.5298	5,463.87	70.872	5,463.87	62.0883	5,463.87	66.4342	5,463.87	65.774	5,463.87	65.1215	5,463.87	56.2431	5,463.87	61.4128	5,463.87	59.3	5,463.87	55.2893	5,463.87	58.1341	5,463.87	59.5408	5,463.87	59.452	5,463.87	67.5483	5,463.87	61.281	5,463.87	70.11	5,463.87	42.4992	5,463.87	50.8191	5,463.87	54.5924	5,463.87	58.3341	5,463.87	54.7061	5,463.87	52.5235
5,657.23	88.275	5,657.23	86.8788	5,657.23	86.6753	5,657.23	86.1493	5,657.23	84.9658	5,657.23	82.38	5,657.23	82.1303	5,657.23	81.1382	5,657.23	83.3472	5,657.23	78.7459	5,657.23	76.151	5,657.23	77.0829	5,657.23	74.7239	5,657.23	72.9686	5,657.23	69.4444	5,657.23	70.2389	5,657.23	65.7651	5,657.23	64.7399	5,657.23	63.4329	5,657.23	63.7532	5,657.23	59.9281	5,657.23	60.654	5,657.23	55.0538	5,657.23	52.5447	5,657.23	60.233	5,657.23	62.3627	5,657.23	60.275	5,657.23	65.9203	5,657.23	50.6185	5,657.23	70.0081	5,657.23	56.3878	5,657.23	57.3073	5,657.23	55.4208	5,657.23	63.1187	5,657.23	54.0307	5,657.23	44.1775
5,856.45	88.3958	5,856.45	86.9487	5,856.45	85.1141	5,856.45	85.6361	5,856.45	85.3601	5,856.45	82.4602	5,856.45	78.738	5,856.45	81.9161	5,856.45	82.9173	5,856.45	78.8805	5,856.45	76.7907	5,856.45	75.7606	5,856.45	72.7523	5,856.45	73.3745	5,856.45	68.9801	5,856.45	70.7494	5,856.45	66.9143	5,856.45	65.0749	5,856.45	62.2314	5,856.45	63.4152	5,856.45	58.2547	5,856.45	52.9442	5,856.45	43.5638	5,856.45	56.9824	5,856.45	50.8193	5,856.45	59.4443	5,856.45	56.6245	5,856.45	68.5913	5,856.45	59.5247	5,856.45	67.9594	5,856.45	50.9625	5,856.45	38.4397	5,856.45	54.4166	5,856.45	56.3446	5,856.45	61.4636	5,856.45	53.5565
6,062.99	88.093	6,062.99	87.0009	6,062.99	85.1069	6,062.99	85.0293	6,062.99	84.4823	6,062.99	83.2959	6,062.99	78.6176	6,062.99	81.7052	6,062.99	82.0432	6,062.99	77.5956	6,062.99	77.6223	6,062.99	76.3118	6,062.99	70.0939	6,062.99	73.6049	6,062.99	69.9117	6,062.99	69.1185	6,062.99	68.5239	6,062.99	64.2919	6,062.99	59.3484	6,062.99	62.4553	6,062.99	54.5584	6,062.99	55.7359	6,062.99	48.34	6,062.99	42.9106	6,062.99	55.8382	6,062.99	57.9448	6,062.99	42.3158	6,062.99	56.6074	6,062.99	64.6632	6,062.99	68.1684	6,062.99	55.2251	6,062.99	58.8906	6,062.99	61.5086	6,062.99	60.5976	6,062.99	59.095	6,062.99	51.6081
6,276.86	87.9093	6,276.86	87.0476	6,276.86	85.8088	6,276.86	84.9446	6,276.86	84.7121	6,276.86	83.078	6,276.86	79.312	6,276.86	81.3789	6,276.86	81.8425	6,276.86	78.7213	6,276.86	78.9896	6,276.86	75.924	6,276.86	68.5248	6,276.86	72.6044	6,276.86	70.7153	6,276.86	70.1758	6,276.86	56.2426	6,276.86	63.625	6,276.86	61.0269	6,276.86	60.7695	6,276.86	57.8177	6,276.86	53.5509	6,276.86	51.005	6,276.86	52.8216	6,276.86	52.3984	6,276.86	55.4566	6,276.86	52.0185	6,276.86	58.0718	6,276.86	50.9829	6,276.86	66.0121	6,276.86	57.1064	6,276.86	53.7872	6,276.86	48.5232	6,276.86	54.252	6,276.86	56.7381	6,276.86	56.3674
6,498.05	86.8009	6,498.05	87.0787	6,498.05	86.1247	6,498.05	85.2512	6,498.05	84.8364	6,498.05	81.8407	6,498.05	81.9057	6,498.05	81.3689	6,498.05	82.2426	6,498.05	78.8361	6,498.05	81.088	6,498.05	75.7499	6,498.05	70.4059	6,498.05	72.6665	6,498.05	65.8835	6,498.05	68.6518	6,498.05	59.5462	6,498.05	63.7569	6,498.05	55.5623	6,498.05	60.0601	6,498.05	37.6873	6,498.05	45.9677	6,498.05	50.308	6,498.05	51.815	6,498.05	50.5409	6,498.05	51.1831	6,498.05	54.9898	6,498.05	65.3151	6,498.05	48.029	6,498.05	59.3537	6,498.05	60.4805	6,498.05	55.3924	6,498.05	60.9187	6,498.05	57.8789	6,498.05	53.8981	6,498.05	56.5242
6,726.56	86.8101	6,726.56	87.1116	6,726.56	86.7488	6,726.56	85.6691	6,726.56	83.8782	6,726.56	81.2013	6,726.56	83.0822	6,726.56	81.2542	6,726.56	81.367	6,726.56	78.4967	6,726.56	81.8767	6,726.56	75.91	6,726.56	70.6244	6,726.56	72.4196	6,726.56	59.1124	6,726.56	67.8939	6,726.56	62.8798	6,726.56	63.3814	6,726.56	61.4521	6,726.56	58.5518	6,726.56	39.5414	6,726.56	50.9884	6,726.56	48.6971	6,726.56	58.3446	6,726.56	51.4745	6,726.56	49.8809	6,726.56	54.3671	6,726.56	68.2169	6,726.56	60.3023	6,726.56	58.7084	6,726.56	48.0229	6,726.56	59.4487	6,726.56	61.4221	6,726.56	53.9701	6,726.56	56.7258	6,726.56	58.7774
6,963.87	86.7896	6,963.87	86.3249	6,963.87	86.8346	6,963.87	85.7235	6,963.87	84.239	6,963.87	81.0802	6,963.87	83.3145	6,963.87	81.2519	6,963.87	80.1994	6,963.87	78.5169	6,963.87	80.8848	6,963.87	75.4779	6,963.87	68.9056	6,963.87	71.3932	6,963.87	65.6313	6,963.87	68.7551	6,963.87	60.9853	6,963.87	61.7289	6,963.87	57.7287	6,963.87	55.1942	6,963.87	52.6945	6,963.87	50.2652	6,963.87	46.5284	6,963.87	56.7045	6,963.87	50.3476	6,963.87	54.257	6,963.87	43.4686	6,963.87	65.8728	6,963.87	57.8764	6,963.87	61.4813	6,963.87	53.7242	6,963.87	64.2416	6,963.87	52.1313	6,963.87	55.7591	6,963.87	61.5928	6,963.87	58.1586
7,209.96	86.9667	7,209.96	86.1382	7,209.96	86.6252	7,209.96	85.7088	7,209.96	83.7926	7,209.96	81.8374	7,209.96	83.7875	7,209.96	80.9489	7,209.96	78.109	7,209.96	78.3578	7,209.96	78.753	7,209.96	75.3818	7,209.96	67.8691	7,209.96	70.9936	7,209.96	68.8207	7,209.96	68.4536	7,209.96	63.7195	7,209.96	62.0671	7,209.96	53.6106	7,209.96	53.4492	7,209.96	49.3417	7,209.96	51.0419	7,209.96	54.79	7,209.96	53.5893	7,209.96	50.8517	7,209.96	54.0635	7,209.96	48.293	7,209.96	66.5007	7,209.96	54.2897	7,209.96	62.3761	7,209.96	58.2929	7,209.96	63.5921	7,209.96	51.1623	7,209.96	44.1719	7,209.96	56.2189	7,209.96	58.9507
7,464.84	87.5859	7,464.84	86.5579	7,464.84	86.6176	7,464.84	84.7898	7,464.84	84.0181	7,464.84	82.4198	7,464.84	83.6021	7,464.84	81.8253	7,464.84	76.6164	7,464.84	78.438	7,464.84	77.9244	7,464.84	74.1834	7,464.84	72.0137	7,464.84	70.22	7,464.84	70.4603	7,464.84	68.4634	7,464.84	59.773	7,464.84	63.8044	7,464.84	52.1425	7,464.84	53.5277	7,464.84	51.4789	7,464.84	53.3571	7,464.84	57.8277	7,464.84	52.5939	7,464.84	52.8722	7,464.84	45.8244	7,464.84	53.3747	7,464.84	61.2125	7,464.84	55.8027	7,464.84	59.2816	7,464.84	50.4179	7,464.84	63.7484	7,464.84	59.3812	7,464.84	45.0094	7,464.84	53.397	7,464.84	56.426
7,727.05	87.4973	7,727.05	86.9204	7,727.05	86.0463	7,727.05	84.8013	7,727.05	84.6844	7,727.05	82.2832	7,727.05	82.9884	7,727.05	82.3511	7,727.05	76.4155	7,727.05	78.6097	7,727.05	78.6623	7,727.05	73.7481	7,727.05	74.2928	7,727.05	70.2044	7,727.05	67.3381	7,727.05	68.0064	7,727.05	62.8009	7,727.05	64.8198	7,727.05	53.9967	7,727.05	54.5554	7,727.05	55.9132	7,727.05	54.211	7,727.05	53.2069	7,727.05	50.269	7,727.05	54.5788	7,727.05	51.9006	7,727.05	48.3009	7,727.05	59.5289	7,727.05	57.3752	7,727.05	59.5226	7,727.05	51.199	7,727.05	61.4512	7,727.05	57.7598	7,727.05	52.0834	7,727.05	52.0034	7,727.05	57.6069
7,999.51	87.569	7,999.51	87.1651	7,999.51	86.2365	7,999.51	85.2027	7,999.51	84.4196	7,999.51	81.7867	7,999.51	83.3066	7,999.51	82.0912	7,999.51	76.9239	7,999.51	78.33	7,999.51	78.7039	7,999.51	74.5065	7,999.51	75.0885	7,999.51	70.3379	7,999.51	64.6346	7,999.51	68.0646	7,999.51	65.6079	7,999.51	63.952	7,999.51	54.1312	7,999.51	52.383	7,999.51	51.327	7,999.51	56.849	7,999.51	52.4683	7,999.51	54.4047	7,999.51	56.5661	7,999.51	53.9371	7,999.51	49.3837	7,999.51	57.6592	7,999.51	58.2505	7,999.51	61.7383	7,999.51	57.5918	7,999.51	61.7141	7,999.51	55.1234	7,999.51	57.163	7,999.51	54.0519	7,999.51	52.6109
8,282.23	87.3973	8,282.23	87.3238	8,282.23	86.1981	8,282.23	85.7298	8,282.23	84.8974	8,282.23	82.4318	8,282.23	82.7008	8,282.23	81.3605	8,282.23	77.3236	8,282.23	78.2341	8,282.23	76.2552	8,282.23	74.5959	8,282.23	75.4998	8,282.23	70.416	8,282.23	69.2161	8,282.23	66.815	8,282.23	56.9271	8,282.23	63.5877	8,282.23	54.0244	8,282.23	55.3171	8,282.23	48.6522	8,282.23	53.628	8,282.23	48.3056	8,282.23	58.7855	8,282.23	46.8187	8,282.23	48.3724	8,282.23	44.2967	8,282.23	64.6107	8,282.23	54.1041	8,282.23	62.904	8,282.23	59.6411	8,282.23	56.8058	8,282.23	47.7034	8,282.23	55.9904	8,282.23	39.8699	8,282.23	54.5515
8,573.73	87.9622	8,573.73	87.1264	8,573.73	86.3147	8,573.73	85.9918	8,573.73	84.7553	8,573.73	82.7008	8,573.73	82.4806	8,573.73	81.258	8,573.73	77.1575	8,573.73	77.8592	8,573.73	73.5701	8,573.73	74.1269	8,573.73	75.0179	8,573.73	69.9064	8,573.73	67.0087	8,573.73	68.1806	8,573.73	58.6916	8,573.73	64.3907	8,573.73	43.8386	8,573.73	51.1992	8,573.73	54.7197	8,573.73	54.7565	8,573.73	48.3562	8,573.73	48.3606	8,573.73	53.1149	8,573.73	59.1658	8,573.73	40.6782	8,573.73	61.0251	8,573.73	58.3496	8,573.73	63.0435	8,573.73	53.9631	8,573.73	60.3609	8,573.73	61.5057	8,573.73	40.5565	8,573.73	55.7754	8,573.73	57.1434
8,876.95	87.7916	8,876.95	86.9049	8,876.95	86.4039	8,876.95	86.011	8,876.95	85.1175	8,876.95	82.2315	8,876.95	82.1022	8,876.95	81.3887	8,876.95	77.8436	8,876.95	78.1325	8,876.95	73.8636	8,876.95	74.0999	8,876.95	75.4961	8,876.95	70.0934	8,876.95	65.1102	8,876.95	67.0659	8,876.95	59.9819	8,876.95	63.8403	8,876.95	53.7419	8,876.95	57.4581	8,876.95	53.963	8,876.95	53.814	8,876.95	53.0703	8,876.95	55.0195	8,876.95	52.4328	8,876.95	54.2674	8,876.95	52.6572	8,876.95	62.416	8,876.95	55.2533	8,876.95	58.3632	8,876.95	56.6126	8,876.95	56.1132	8,876.95	51.1902	8,876.95	53.3346	8,876.95	39.4754	8,876.95	54.9325
9,188.96	87.8213	9,188.96	87.2631	9,188.96	86.1648	9,188.96	85.9989	9,188.96	85.2225	9,188.96	81.6702	9,188.96	81.8826	9,188.96	81.7769	9,188.96	77.554	9,188.96	78.3062	9,188.96	74.8575	9,188.96	74.1741	9,188.96	74.8908	9,188.96	68.1086	9,188.96	66.1973	9,188.96	65.4714	9,188.96	60.3572	9,188.96	65.8309	9,188.96	51.679	9,188.96	57.1661	9,188.96	59.0708	9,188.96	33.2789	9,188.96	53.5572	9,188.96	56.4417	9,188.96	54.4466	9,188.96	50.676	9,188.96	54.7192	9,188.96	63.4528	9,188.96	53.3299	9,188.96	61.5856	9,188.96	52.4915	9,188.96	63.0156	9,188.96	59.2987	9,188.96	55.5586	9,188.96	50.607	9,188.96	59.3941
9,514.16	87.4977	9,514.16	87.5237	9,514.16	86.182	9,514.16	86.1539	9,514.16	85.3427	9,514.16	81.6049	9,514.16	81.1245	9,514.16	81.4354	9,514.16	78.4368	9,514.16	78.3228	9,514.16	74.755	9,514.16	73.5454	9,514.16	71.8723	9,514.16	68.3276	9,514.16	67.5936	9,514.16	66.8966	9,514.16	56.8485	9,514.16	64.8285	9,514.16	37.3134	9,514.16	56.6068	9,514.16	59.4792	9,514.16	51.3042	9,514.16	46.5281	9,514.16	57.1422	9,514.16	54.6777	9,514.16	53.6559	9,514.16	50.3071	9,514.16	64.2186	9,514.16	53.9866	9,514.16	66.4583	9,514.16	50.8693	9,514.16	60.4439	9,514.16	59.3536	9,514.16	54.3723	9,514.16	28.2619	9,514.16	57.2781
9,849.61	87.5043	9,849.61	87.4883	9,849.61	86.4374	9,849.61	86.1599	9,849.61	84.949	9,849.61	81.9324	9,849.61	81.6344	9,849.61	81.6127	9,849.61	78.2943	9,849.61	77.7008	9,849.61	73.5842	9,849.61	73.868	9,849.61	72.1952	9,849.61	69.6737	9,849.61	68.8573	9,849.61	66.4014	9,849.61	58.4745	9,849.61	64.1669	9,849.61	43.0684	9,849.61	57.3471	9,849.61	58.0759	9,849.61	47.782	9,849.61	54.6021	9,849.61	56.6136	9,849.61	56.4347	9,849.61	55.4907	9,849.61	48.8367	9,849.61	63.2837	9,849.61	54.5316	9,849.61	67.6016	9,849.61	52.5932	9,849.61	63.5162	9,849.61	55.6941	9,849.61	56.1686	9,849.61	56.286	9,849.61	51.1005
10,196.8	87.6943	10,196.8	87.4693	10,196.8	86.7002	10,196.8	85.9175	10,196.8	84.8028	10,196.8	82.1738	10,196.8	81.7438	10,196.8	81.5558	10,196.8	79.1121	10,196.8	77.5919	10,196.8	74.7717	10,196.8	74.4691	10,196.8	72.8462	10,196.8	68.5051	10,196.8	68.846	10,196.8	65.4347	10,196.8	57.2111	10,196.8	65.7467	10,196.8	54.9314	10,196.8	58.0157	10,196.8	50.1529	10,196.8	51.5412	10,196.8	46.3443	10,196.8	58.9592	10,196.8	48.3334	10,196.8	55.4663	10,196.8	52.9249	10,196.8	45.3806	10,196.8	57.8514	10,196.8	63.5902	10,196.8	57.5987	10,196.8	61.8471	10,196.8	35.8509	10,196.8	47.2458	10,196.8	61.2445	10,196.8	50.0983
10,555.7	87.64	10,555.7	87.4008	10,555.7	87.0838	10,555.7	86.0532	10,555.7	84.8221	10,555.7	82.2235	10,555.7	81.564	10,555.7	81.0769	10,555.7	79.1584	10,555.7	77.7525	10,555.7	74.7067	10,555.7	74.5869	10,555.7	70.1464	10,555.7	68.2853	10,555.7	69.3199	10,555.7	65.3952	10,555.7	62.7556	10,555.7	64.272	10,555.7	42.9193	10,555.7	58.9077	10,555.7	59.259	10,555.7	48.3597	10,555.7	51.6973	10,555.7	54.3959	10,555.7	44.6749	10,555.7	55.8591	10,555.7	49.5272	10,555.7	58.0493	10,555.7	60.0178	10,555.7	55.0129	10,555.7	56.6099	10,555.7	58.5657	10,555.7	52.7041	10,555.7	47.4506	10,555.7	51.6824	10,555.7	51.0902
10,927.7	87.496	10,927.7	87.3842	10,927.7	87.1563	10,927.7	86.4152	10,927.7	84.8346	10,927.7	82.3409	10,927.7	81.1349	10,927.7	80.6192	10,927.7	79.2049	10,927.7	77.6743	10,927.7	73.9551	10,927.7	74.6496	10,927.7	67.4553	10,927.7	68.5674	10,927.7	68.4882	10,927.7	65.7569	10,927.7	62.8035	10,927.7	64.0772	10,927.7	53.727	10,927.7	59.6689	10,927.7	58.1771	10,927.7	48.5583	10,927.7	55.5353	10,927.7	54.0026	10,927.7	45.0224	10,927.7	48.3583	10,927.7	52.4725	10,927.7	66.8596	10,927.7	57.8424	10,927.7	65.8282	10,927.7	40.6967	10,927.7	55.2305	10,927.7	55.1059	10,927.7	50.9501	10,927.7	57.6398	10,927.7	52.9572
11,313	87.3965	11,313	87.3222	11,313	87.0879	11,313	86.6423	11,313	84.7399	11,313	82.1121	11,313	80.7051	11,313	80.9482	11,313	78.7183	11,313	77.5416	11,313	73.1562	11,313	74.6204	11,313	66.0314	11,313	69.698	11,313	70.5135	11,313	65.4788	11,313	63.2093	11,313	64.3842	11,313	52.1386	11,313	58.2114	11,313	56.1072	11,313	53.912	11,313	52.1175	11,313	57.1235	11,313	42.4945	11,313	47.6558	11,313	37.4258	11,313	56.2785	11,313	49.1844	11,313	61.9809	11,313	60.7854	11,313	55.6028	11,313	47.6028	11,313	59.2534	11,313	49.6344	11,313	52.1103
11,712.9	87.644	11,712.9	87.2938	11,712.9	86.8914	11,712.9	86.6453	11,712.9	84.709	11,712.9	81.7566	11,712.9	80.6672	11,712.9	80.684	11,712.9	77.8401	11,712.9	77.4393	11,712.9	72.8305	11,712.9	75.1321	11,712.9	67.2861	11,712.9	69.8158	11,712.9	67.5955	11,712.9	64.8193	11,712.9	62.763	11,712.9	64.4056	11,712.9	54.8614	11,712.9	61.7203	11,712.9	58.0794	11,712.9	43.0012	11,712.9	50.0275	11,712.9	53.0147	11,712.9	44.5872	11,712.9	49.6468	11,712.9	48.1374	11,712.9	56.0911	11,712.9	55.7695	11,712.9	56.6294	11,712.9	55.869	11,712.9	57.7193	11,712.9	55.7824	11,712.9	59.0958	11,712.9	58.6956	11,712.9	47.9239
12,126	87.7174	12,126	87.4183	12,126	86.8932	12,126	86.6074	12,126	84.6478	12,126	81.8391	12,126	81.3092	12,126	80.294	12,126	77.3375	12,126	77.3354	12,126	71.6005	12,126	75.288	12,126	71.4571	12,126	69.3872	12,126	64.2734	12,126	65.2429	12,126	63.4549	12,126	63.3373	12,126	50.0946	12,126	58.7261	12,126	55.0329	12,126	49.6735	12,126	47.5114	12,126	53.4456	12,126	45.1354	12,126	50.678	12,126	50.7855	12,126	57.2542	12,126	57.0477	12,126	53.9453	12,126	52.0126	12,126	48.8748	12,126	49.0369	12,126	62.155	12,126	57.5528	12,126	38.7032
12,553.7	87.3808	12,553.7	87.5043	12,553.7	87.1612	12,553.7	86.4732	12,553.7	84.6014	12,553.7	81.8844	12,553.7	82.0433	12,553.7	79.7928	12,553.7	75.621	12,553.7	77.5078	12,553.7	72.6897	12,553.7	74.858	12,553.7	69.8399	12,553.7	68.6058	12,553.7	65.7783	12,553.7	64.5463	12,553.7	59.9135	12,553.7	61.9128	12,553.7	48.4369	12,553.7	57.6671	12,553.7	59.7134	12,553.7	51.5601	12,553.7	50.565	12,553.7	52.8198	12,553.7	48.7107	12,553.7	47.0448	12,553.7	49.7857	12,553.7	58.449	12,553.7	50.0829	12,553.7	54.7564	12,553.7	46.2168	12,553.7	51.1927	12,553.7	54.0757	12,553.7	62.0958	12,553.7	42.89	12,553.7	34.9092
12,996.1	87.142	12,996.1	87.3469	12,996.1	87.1168	12,996.1	86.717	12,996.1	84.5812	12,996.1	81.3822	12,996.1	82.1483	12,996.1	79.4504	12,996.1	76.0175	12,996.1	77.3635	12,996.1	75.2661	12,996.1	74.3885	12,996.1	67.9573	12,996.1	68.8085	12,996.1	63.5868	12,996.1	64.1696	12,996.1	58.9596	12,996.1	60.508	12,996.1	52.8021	12,996.1	59.2243	12,996.1	54.6848	12,996.1	45.5377	12,996.1	45.4683	12,996.1	45.4998	12,996.1	44.41	12,996.1	47.9402	12,996.1	54.0336	12,996.1	55.9612	12,996.1	57.8993	12,996.1	51.0949	12,996.1	50.3196	12,996.1	45.7368	12,996.1	57.0299	12,996.1	59.256	12,996.1	52.2295	12,996.1	51.6965
13,454.6	87.1764	13,454.6	87.1029	13,454.6	86.8846	13,454.6	86.8991	13,454.6	84.569	13,454.6	81.2494	13,454.6	82.022	13,454.6	79.7622	13,454.6	77.163	13,454.6	77.0244	13,454.6	75.1007	13,454.6	74.084	13,454.6	68.4415	13,454.6	69.0589	13,454.6	63.7006	13,454.6	63.5272	13,454.6	60.8017	13,454.6	60.7077	13,454.6	41.7982	13,454.6	59.4102	13,454.6	57.4613	13,454.6	50.0879	13,454.6	46.7975	13,454.6	47.5176	13,454.6	42.212	13,454.6	45.9169	13,454.6	49.7416	13,454.6	54.4972	13,454.6	55.5719	13,454.6	58.4557	13,454.6	44.7005	13,454.6	58.3117	13,454.6	53.884	13,454.6	57.543	13,454.6	48.1018	13,454.6	50.4701
13,929.2	87.1215	13,929.2	86.9864	13,929.2	86.7923	13,929.2	86.928	13,929.2	84.2738	13,929.2	81.4681	13,929.2	80.9819	13,929.2	80.0828	13,929.2	77.5025	13,929.2	77.2812	13,929.2	74.4323	13,929.2	73.9961	13,929.2	68.0707	13,929.2	68.565	13,929.2	64.9236	13,929.2	63.607	13,929.2	60.8291	13,929.2	60.5219	13,929.2	54.3773	13,929.2	57.5298	13,929.2	59.6302	13,929.2	55.5842	13,929.2	51.274	13,929.2	53.0796	13,929.2	53.1268	13,929.2	52.7019	13,929.2	46.1324	13,929.2	38.6292	13,929.2	43.3227	13,929.2	62.7233	13,929.2	43.7484	13,929.2	58.7332	13,929.2	49.771	13,929.2	52.1367	13,929.2	40.2221	13,929.2	59.4827
14,419.9	87.2251	14,419.9	86.6519	14,419.9	86.7818	14,419.9	86.9655	14,419.9	84.3791	14,419.9	82.3138	14,419.9	80.096	14,419.9	80.2087	14,419.9	77.2482	14,419.9	77.1213	14,419.9	73.3968	14,419.9	73.2544	14,419.9	69.8872	14,419.9	68.4868	14,419.9	65.7973	14,419.9	62.7379	14,419.9	58.455	14,419.9	59.8221	14,419.9	51.7969	14,419.9	56.2401	14,419.9	58.3456	14,419.9	53.6185	14,419.9	51.4123	14,419.9	48.9484	14,419.9	53.0505	14,419.9	48.5819	14,419.9	51.8225	14,419.9	50.851	14,419.9	51.732	14,419.9	59.9301	14,419.9	48.3015	14,419.9	58.6837	14,419.9	55.8994	14,419.9	52.6365	14,419.9	45.9995	14,419.9	59.5342
14,928.2	87.4985	14,928.2	86.5682	14,928.2	86.5697	14,928.2	86.8817	14,928.2	84.3304	14,928.2	82.3836	14,928.2	79.6143	14,928.2	79.844	14,928.2	77.4394	14,928.2	76.4983	14,928.2	69.8062	14,928.2	71.9177	14,928.2	70.2262	14,928.2	67.8419	14,928.2	63.2192	14,928.2	61.4905	14,928.2	58.6936	14,928.2	57.1326	14,928.2	47.7512	14,928.2	55.5114	14,928.2	52.8702	14,928.2	47.4358	14,928.2	52.792	14,928.2	23.3363	14,928.2	51.6311	14,928.2	42.3407	14,928.2	49.8274	14,928.2	55.7733	14,928.2	58.3359	14,928.2	61.8698	14,928.2	34.3321	14,928.2	61.9112	14,928.2	52.0075	14,928.2	58.4636	14,928.2	55.1198	14,928.2	58.9275
15,455.6	87.0518	15,455.6	86.2424	15,455.6	85.6338	15,455.6	86.6988	15,455.6	84.2603	15,455.6	82.474	15,455.6	80.1992	15,455.6	80.5831	15,455.6	77.7287	15,455.6	76.2044	15,455.6	70.5286	15,455.6	71.8883	15,455.6	70.0115	15,455.6	67.7126	15,455.6	63.4277	15,455.6	61.2138	15,455.6	55.2338	15,455.6	56.6214	15,455.6	50.7416	15,455.6	54.6407	15,455.6	51.239	15,455.6	48.4679	15,455.6	54.0315	15,455.6	42.9975	15,455.6	50.2809	15,455.6	50.3882	15,455.6	50.5204	15,455.6	54.0117	15,455.6	35.7244	15,455.6	62.311	15,455.6	44.8716	15,455.6	64.8397	15,455.6	45.9699	15,455.6	57.5433	15,455.6	59.8839	15,455.6	54.4338
16,000.5	86.9303	16,000.5	86.3523	16,000.5	85.8293	16,000.5	86.7336	16,000.5	84.4534	16,000.5	82.9434	16,000.5	81.0843	16,000.5	80.9877	16,000.5	76.8127	16,000.5	76.3202	16,000.5	69.3725	16,000.5	71.8732	16,000.5	66.6388	16,000.5	67.6746	16,000.5	60.5742	16,000.5	60.3825	16,000.5	57.6451	16,000.5	54.6548	16,000.5	46.1275	16,000.5	56.0959	16,000.5	53.9818	16,000.5	51.8287	16,000.5	47.4433	16,000.5	46.7632	16,000.5	45.4724	16,000.5	54.6313	16,000.5	49.291	16,000.5	58.2627	16,000.5	50.2021	16,000.5	61.3814	16,000.5	44.9462	16,000.5	54.5651	16,000.5	62.1378	16,000.5	61.4689	16,000.5	49.5649	16,000.5	56.2132
16,564.5	86.755	16,564.5	86.6345	16,564.5	85.8238	16,564.5	87.0741	16,564.5	84.1774	16,564.5	83.3436	16,564.5	80.815	16,564.5	80.6376	16,564.5	75.0596	16,564.5	75.7253	16,564.5	68.3398	16,564.5	70.729	16,564.5	63.6943	16,564.5	67.3003	16,564.5	63.0456	16,564.5	58.4432	16,564.5	55.8273	16,564.5	53.8734	16,564.5	46.8545	16,564.5	55.4756	16,564.5	51.3864	16,564.5	46.1305	16,564.5	51.7643	16,564.5	49.0159	16,564.5	44.5943	16,564.5	37.3203	16,564.5	46.2179	16,564.5	51.8289	16,564.5	42.5373	16,564.5	57.3333	16,564.5	53.6491	16,564.5	50.4917	16,564.5	54.6056	16,564.5	60.513	16,564.5	48.9204	16,564.5	55.0347
17,148.9	86.6241	17,148.9	86.9057	17,148.9	85.6153	17,148.9	87.446	17,148.9	84.0345	17,148.9	83.5118	17,148.9	79.9132	17,148.9	79.6769	17,148.9	74.3826	17,148.9	74.3239	17,148.9	70.2129	17,148.9	68.9109	17,148.9	59.9601	17,148.9	66.0557	17,148.9	63.6365	17,148.9	56.5947	17,148.9	57.5907	17,148.9	54.0747	17,148.9	47.2221	17,148.9	52.1439	17,148.9	47.4411	17,148.9	47.2011	17,148.9	54.925	17,148.9	48.8471	17,148.9	48.232	17,148.9	52.45	17,148.9	45.4024	17,148.9	48.0567	17,148.9	54.8652	17,148.9	42.9722	17,148.9	44.6915	17,148.9	43.0858	17,148.9	45.2484	17,148.9	59.3065	17,148.9	52.8981	17,148.9	46.5905
17,752.4	86.2635	17,752.4	86.7903	17,752.4	85.5624	17,752.4	87.4359	17,752.4	84.4184	17,752.4	83.063	17,752.4	80.512	17,752.4	78.3447	17,752.4	75.3909	17,752.4	72.6031	17,752.4	72.1097	17,752.4	67.7507	17,752.4	60.1788	17,752.4	65.0781	17,752.4	61.8223	17,752.4	56.8349	17,752.4	56.634	17,752.4	53.6764	17,752.4	42.8125	17,752.4	52.0227	17,752.4	55.4552	17,752.4	49.5612	17,752.4	53.2215	17,752.4	47.9904	17,752.4	45.1405	17,752.4	46.8652	17,752.4	46.1982	17,752.4	48.5822	17,752.4	40.843	17,752.4	49.2916	17,752.4	46.8639	17,752.4	50.1756	17,752.4	50.9974	17,752.4	59.0744	17,752.4	49.8152	17,752.4	35.991
18,379.4	85.8207	18,379.4	86.1836	18,379.4	85.7603	18,379.4	86.8449	18,379.4	85.1831	18,379.4	82.483	18,379.4	81.3909	18,379.4	77.5864	18,379.4	75.3068	18,379.4	73.0351	18,379.4	69.9491	18,379.4	68.1067	18,379.4	61.0928	18,379.4	66.2728	18,379.4	62.4681	18,379.4	57.7291	18,379.4	52.3575	18,379.4	54.0568	18,379.4	46.7779	18,379.4	51.0052	18,379.4	59.1074	18,379.4	47.5449	18,379.4	50.0086	18,379.4	51.4924	18,379.4	49.0252	18,379.4	47.8481	18,379.4	48.9846	18,379.4	35.7203	18,379.4	41.4709	18,379.4	51.0973	18,379.4	41.464	18,379.4	54.8508	18,379.4	49.3794	18,379.4	60.6105	18,379.4	56.5191	18,379.4	52.2434
19,026.9	84.6169	19,026.9	84.8488	19,026.9	85.1417	19,026.9	85.9988	19,026.9	84.6636	19,026.9	82.3646	19,026.9	80.5297	19,026.9	77.9974	19,026.9	73.7234	19,026.9	73.2968	19,026.9	67.3602	19,026.9	68.2235	19,026.9	60.2805	19,026.9	66.0724	19,026.9	56.5658	19,026.9	57.3538	19,026.9	56.5493	19,026.9	54.4942	19,026.9	42.3661	19,026.9	51.1468	19,026.9	61.3884	19,026.9	47.4093	19,026.9	52.6051	19,026.9	44.9001	19,026.9	50.2594	19,026.9	44.1258	19,026.9	49.7902	19,026.9	51.8071	19,026.9	54.156	19,026.9	56.9697	19,026.9	45.5603	19,026.9	63.313	19,026.9	58.0912	19,026.9	63.0766	19,026.9	56.0404	19,026.9	51.2983
19,697.8	83.1451	19,697.8	83.5678	19,697.8	84.0658	19,697.8	84.8333	19,697.8	82.4957	19,697.8	81.246	19,697.8	78.2646	19,697.8	77.168	19,697.8	72.2954	19,697.8	72.0559	19,697.8	64.9939	19,697.8	66.2513	19,697.8	60.0944	19,697.8	63.5762	19,697.8	54.3516	19,697.8	55.3492	19,697.8	53.6564	19,697.8	52.9987	19,697.8	42.5879	19,697.8	48.6772	19,697.8	60.8971	19,697.8	49.2499	19,697.8	51.4686	19,697.8	51.7642	19,697.8	38.5091	19,697.8	42.7828	19,697.8	47.2345	19,697.8	48.3523	19,697.8	48.5423	19,697.8	54.0089	19,697.8	42.4934	19,697.8	62.0075	19,697.8	49.4933	19,697.8	61.4969	19,697.8	49.9143	19,697.8	46.5882
19,999.5	83.185	19,999.5	82.7594	19,999.5	83.9684	19,999.5	84.2259	19,999.5	81.8456	19,999.5	80.837	19,999.5	76.0299	19,999.5	76.6582	19,999.5	71.6329	19,999.5	70.0798	19,999.5	63.4988	19,999.5	65.5431	19,999.5	61.8575	19,999.5	63.8609	19,999.5	57.7902	19,999.5	50.9224	19,999.5	50.3308	19,999.5	50.3512	19,999.5	35.8181	19,999.5	41.9424	19,999.5	64.1975	19,999.5	37.1816	19,999.5	55.0247	19,999.5	42.2354	19,999.5	45.9133	19,999.5	56.9566	19,999.5	48.2125	19,999.5	52.9339	19,999.5	46.6896	19,999.5	59.6351	19,999.5	48.2066	19,999.5	62.9094	19,999.5	39.4216	19,999.5	51.2146	19,999.5	44.0487	19,999.5	43.0226
