"SPL Vertical"
"On-Axis"		"10°"		"-10°"		"20°"		"-20°"		"30°"		"-30°"		"40°"		"-40°"		"50°"		"-50°"		"60°"		"-60°"		"70°"		"-70°"		"80°"		"-80°"		"90°"		"-90°"		"100°"		"-100°"		"110°"		"-110°"		"120°"		"-120°"		"130°"		"-130°"		"140°"		"-140°"		"150°"		"-150°"		"160°"		"-160°"		"170°"		"-170°"		"180°"
"Frequency / Hz"	"Sound Pressure Level / dB (re 20 µPa/V)  [2.83  V @ 1. m]"	"Frequency / Hz"	"Sound Pressure Level / dB (re 20 µPa/V)  [2.83  V @ 1. m]"	"Frequency / Hz"	"Sound Pressure Level / dB (re 20 µPa/V)  [2.83  V @ 1. m]"	"Frequency / Hz"	"Sound Pressure Level / dB (re 20 µPa/V)  [2.83  V @ 1. m]"	"Frequency / Hz"	"Sound Pressure Level / dB (re 20 µPa/V)  [2.83  V @ 1. m]"	"Frequency / Hz"	"Sound Pressure Level / dB (re 20 µPa/V)  [2.83  V @ 1. m]"	"Frequency / Hz"	"Sound Pressure Level / dB (re 20 µPa/V)  [2.83  V @ 1. m]"	"Frequency / Hz"	"Sound Pressure Level / dB (re 20 µPa/V)  [2.83  V @ 1. m]"	"Frequency / Hz"	"Sound Pressure Level / dB (re 20 µPa/V)  [2.83  V @ 1. m]"	"Frequency / Hz"	"Sound Pressure Level / dB (re 20 µPa/V)  [2.83  V @ 1. m]"	"Frequency / Hz"	"Sound Pressure Level / dB (re 20 µPa/V)  [2.83  V @ 1. m]"	"Frequency / Hz"	"Sound Pressure Level / dB (re 20 µPa/V)  [2.83  V @ 1. m]"	"Frequency / Hz"	"Sound Pressure Level / dB (re 20 µPa/V)  [2.83  V @ 1. m]"	"Frequency / Hz"	"Sound Pressure Level / dB (re 20 µPa/V)  [2.83  V @ 1. m]"	"Frequency / Hz"	"Sound Pressure Level / dB (re 20 µPa/V)  [2.83  V @ 1. m]"	"Frequency / Hz"	"Sound Pressure Level / dB (re 20 µPa/V)  [2.83  V @ 1. m]"	"Frequency / Hz"	"Sound Pressure Level / dB (re 20 µPa/V)  [2.83  V @ 1. m]"	"Frequency / Hz"	"Sound Pressure Level / dB (re 20 µPa/V)  [2.83  V @ 1. m]"	"Frequency / Hz"	"Sound Pressure Level / dB (re 20 µPa/V)  [2.83  V @ 1. m]"	"Frequency / Hz"	"Sound Pressure Level / dB (re 20 µPa/V)  [2.83  V @ 1. m]"	"Frequency / Hz"	"Sound Pressure Level / dB (re 20 µPa/V)  [2.83  V @ 1. m]"	"Frequency / Hz"	"Sound Pressure Level / dB (re 20 µPa/V)  [2.83  V @ 1. m]"	"Frequency / Hz"	"Sound Pressure Level / dB (re 20 µPa/V)  [2.83  V @ 1. m]"	"Frequency / Hz"	"Sound Pressure Level / dB (re 20 µPa/V)  [2.83  V @ 1. m]"	"Frequency / Hz"	"Sound Pressure Level / dB (re 20 µPa/V)  [2.83  V @ 1. m]"	"Frequency / Hz"	"Sound Pressure Level / dB (re 20 µPa/V)  [2.83  V @ 1. m]"	"Frequency / Hz"	"Sound Pressure Level / dB (re 20 µPa/V)  [2.83  V @ 1. m]"	"Frequency / Hz"	"Sound Pressure Level / dB (re 20 µPa/V)  [2.83  V @ 1. m]"	"Frequency / Hz"	"Sound Pressure Level / dB (re 20 µPa/V)  [2.83  V @ 1. m]"	"Frequency / Hz"	"Sound Pressure Level / dB (re 20 µPa/V)  [2.83  V @ 1. m]"	"Frequency / Hz"	"Sound Pressure Level / dB (re 20 µPa/V)  [2.83  V @ 1. m]"	"Frequency / Hz"	"Sound Pressure Level / dB (re 20 µPa/V)  [2.83  V @ 1. m]"	"Frequency / Hz"	"Sound Pressure Level / dB (re 20 µPa/V)  [2.83  V @ 1. m]"	"Frequency / Hz"	"Sound Pressure Level / dB (re 20 µPa/V)  [2.83  V @ 1. m]"	"Frequency / Hz"	"Sound Pressure Level / dB (re 20 µPa/V)  [2.83  V @ 1. m]"	"Frequency / Hz"	"Sound Pressure Level / dB (re 20 µPa/V)  [2.83  V @ 1. m]"
20.5078	41.3747	20.5078	40.961	20.5078	41.7208	20.5078	40.49	20.5078	41.9896	20.5078	39.9713	20.5078	42.1731	20.5078	39.4143	20.5078	42.2659	20.5078	38.8286	20.5078	42.2661	20.5078	38.226	20.5078	42.1755	20.5078	37.6236	20.5078	41.9998	20.5078	37.0476	20.5078	41.7491	20.5078	36.5369	20.5078	41.438	20.5078	36.1424	20.5078	41.0855	20.5078	35.9169	20.5078	40.713	20.5078	35.8951	20.5078	40.3409	20.5078	36.0762	20.5078	39.9841	20.5078	36.4206	20.5078	39.6477	20.5078	36.8664	20.5078	39.325	20.5078	37.3509	20.5078	38.9995	20.5078	37.8256	20.5078	38.6509	20.5078	38.2619
21.9727	38.9923	21.9727	38.4367	21.9727	39.3939	21.9727	37.7368	21.9727	39.6453	21.9727	36.9297	21.9727	39.7604	21.9727	36.1121	21.9727	39.7652	21.9727	35.4843	21.9727	39.7053	21.9727	35.3377	21.9727	39.6523	21.9727	35.8692	21.9727	39.7035	21.9727	36.9748	21.9727	39.9574	21.9727	38.3626	21.9727	40.467	21.9727	39.7881	21.9727	41.2045	21.9727	41.1204	21.9727	42.0776	21.9727	42.3047	21.9727	42.9787	21.9727	43.3219	21.9727	43.8205	21.9727	44.1667	21.9727	44.545	21.9727	44.8373	21.9727	45.1181	21.9727	45.3327	21.9727	45.5214	21.9727	45.6507	21.9727	45.7461	21.9727	45.7891
23.4375	40.3175	23.4375	39.635	23.4375	40.74	23.4375	38.657	23.4375	40.9122	23.4375	37.3087	23.4375	40.823	23.4375	35.4407	23.4375	40.4398	23.4375	32.7315	23.4375	39.7015	23.4375	28.3176	23.4375	38.5009	23.4375	18.3608	23.4375	36.6403	23.4375	22.6368	23.4375	33.7164	23.4375	30.5285	23.4375	28.8701	23.4375	34.7147	23.4375	24.8585	23.4375	37.5294	23.4375	31.029	23.4375	39.5991	23.4375	35.7324	23.4375	41.1742	23.4375	38.7782	23.4375	42.3736	23.4375	40.8724	23.4375	43.2569	23.4375	42.3346	23.4375	43.8519	23.4375	43.3236	23.4375	44.1675	23.4375	43.9276	23.4375	44.1985
24.9023	42.0505	24.9023	41.9247	24.9023	42.0751	24.9023	41.7447	24.9023	41.963	24.9023	41.5764	24.9023	41.6864	24.9023	41.5079	24.9023	41.2302	24.9023	41.6358	24.9023	40.614	24.9023	42.0285	24.9023	39.9455	24.9023	42.6873	24.9023	39.5027	24.9023	43.5469	24.9023	39.7014	24.9023	44.5124	24.9023	40.7241	24.9023	45.4974	24.9023	42.2744	24.9023	46.4395	24.9023	43.9349	24.9023	47.2989	24.9023	45.4606	24.9023	48.0506	24.9023	46.7583	24.9023	48.6784	24.9023	47.8068	24.9023	49.1699	24.9023	48.612	24.9023	49.5143	24.9023	49.1881	24.9023	49.7007	24.9023	49.5513	24.9023	49.7174
26.3672	51.4887	26.3672	51.2536	26.3672	51.5643	26.3672	50.8747	26.3672	51.4773	26.3672	50.3885	26.3672	51.2357	26.3672	49.8643	26.3672	50.8612	26.3672	49.4173	26.3672	50.4011	26.3672	49.1998	26.3672	49.9459	26.3672	49.3447	26.3672	49.6433	26.3672	49.881	26.3672	49.67	26.3672	50.7145	26.3672	50.1318	26.3672	51.6998	26.3672	50.9738	26.3672	52.7124	26.3672	52.0248	26.3672	53.6709	26.3672	53.1121	26.3672	54.5281	26.3672	54.1186	26.3672	55.2564	26.3672	54.9803	26.3672	55.838	26.3672	55.6665	26.3672	56.26	26.3672	56.1642	26.3672	56.5115	26.3672	56.4694	26.3672	56.5836
27.832	54.6807	27.832	54.5922	27.832	54.7918	27.832	54.5409	27.832	54.9146	27.832	54.5432	27.832	55.044	27.832	54.6139	27.832	55.1816	27.832	54.7637	27.832	55.3355	27.832	54.9963	27.832	55.5199	27.832	55.3082	27.832	55.7517	27.832	55.6886	27.832	56.0454	27.832	56.1219	27.832	56.4073	27.832	56.5892	27.832	56.8304	27.832	57.0705	27.832	57.2943	27.832	57.5458	27.832	57.7689	27.832	57.996	27.832	58.2208	27.832	58.4033	27.832	58.6195	27.832	58.7513	27.832	58.9402	27.832	59.0252	27.832	59.166	27.832	59.2122	27.832	59.2875	27.832	59.302
29.2969	60.3197	29.2969	60.2357	29.2969	60.4035	29.2969	60.1605	29.2969	60.4816	29.2969	60.1056	29.2969	60.5527	29.2969	60.0836	29.2969	60.6198	29.2969	60.1063	29.2969	60.6898	29.2969	60.1829	29.2969	60.7731	29.2969	60.3186	29.2969	60.882	29.2969	60.5134	29.2969	61.0281	29.2969	60.7619	29.2969	61.2194	29.2969	61.054	29.2969	61.4568	29.2969	61.3759	29.2969	61.732	29.2969	61.7112	29.2969	62.0284	29.2969	62.0422	29.2969	62.324	29.2969	62.3514	29.2969	62.5947	29.2969	62.6222	29.2969	62.8186	29.2969	62.8395	29.2969	62.9785	29.2969	62.9909	29.2969	63.0632	29.2969	63.0672
30.7617	64.5308	30.7617	64.4462	30.7617	64.6251	30.7617	64.3762	30.7617	64.7255	30.7617	64.327	30.7617	64.83	30.7617	64.3051	30.7617	64.9389	30.7617	64.3167	30.7617	65.0541	30.7617	64.3667	30.7617	65.1791	30.7617	64.4586	30.7617	65.3179	30.7617	64.5933	30.7617	65.4742	30.7617	64.769	30.7617	65.6497	30.7617	64.9809	30.7617	65.8426	30.7617	65.2215	30.7617	66.0465	30.7617	65.4809	30.7617	66.2508	30.7617	65.7473	30.7617	66.4415	30.7617	66.0078	30.7617	66.6037	30.7617	66.2494	30.7617	66.7234	30.7617	66.4594	30.7617	66.7897	30.7617	66.6263	30.7617	66.7961	30.7617	66.7407
32.2266	67.2761	32.2266	67.2022	32.2266	67.3656	32.2266	67.1483	32.2266	67.4668	32.2266	67.1183	32.2266	67.5763	32.2266	67.1158	32.2266	67.692	32.2266	67.1432	32.2266	67.8129	32.2266	67.2025	32.2266	67.9394	32.2266	67.294	32.2266	68.0726	32.2266	67.4172	32.2266	68.2138	32.2266	67.5699	32.2266	68.3633	32.2266	67.7484	32.2266	68.5197	32.2266	67.9471	32.2266	68.679	32.2266	68.159	32.2266	68.8345	32.2266	68.3755	32.2266	68.9774	32.2266	68.5868	32.2266	69.0974	32.2266	68.7829	32.2266	69.1848	32.2266	68.9536	32.2266	69.2315	32.2266	69.0898	32.2266	69.2319	32.2266	69.1841
33.6914	70.0986	33.6914	70.0477	33.6914	70.1629	33.6914	70.012	33.6914	70.2386	33.6914	69.9939	33.6914	70.3242	33.6914	69.9954	33.6914	70.4185	33.6914	70.0188	33.6914	70.5208	33.6914	70.0657	33.6914	70.6308	33.6914	70.1376	33.6914	70.7486	33.6914	70.2349	33.6914	70.8741	33.6914	70.3568	33.6914	71.0066	33.6914	70.5013	33.6914	71.1441	33.6914	70.6644	33.6914	71.283	33.6914	70.8407	33.6914	71.4177	33.6914	71.023	33.6914	71.5409	33.6914	71.203	33.6914	71.6444	33.6914	71.3715	33.6914	71.7199	33.6914	71.5191	33.6914	71.7603	33.6914	71.6374	33.6914	71.7608	33.6914	71.7194
35.1562	72.4443	35.1562	72.3945	35.1562	72.4992	35.1562	72.3512	35.1562	72.5582	35.1562	72.3163	35.1562	72.6209	35.1562	72.2919	35.1562	72.6869	35.1562	72.2804	35.1562	72.7562	35.1562	72.2842	35.1562	72.8288	35.1562	72.3055	35.1562	72.9047	35.1562	72.3458	35.1562	72.9835	35.1562	72.406	35.1562	73.0645	35.1562	72.4857	35.1562	73.1461	35.1562	72.5835	35.1562	73.2258	35.1562	72.6962	35.1562	73.2998	35.1562	72.8194	35.1562	73.3636	35.1562	72.9471	35.1562	73.4119	35.1562	73.0726	35.1562	73.4397	35.1562	73.1887	35.1562	73.4428	35.1562	73.2886	35.1562	73.4186	35.1562	73.3666
36.6211	73.4397	36.6211	73.3744	36.6211	73.5108	36.6211	73.3168	36.6211	73.5861	36.6211	73.2692	36.6211	73.6642	36.6211	73.2341	36.6211	73.744	36.6211	73.2138	36.6211	73.8246	36.6211	73.2106	36.6211	73.9054	36.6211	73.2264	36.6211	73.9857	36.6211	73.2624	36.6211	74.0645	36.6211	73.3191	36.6211	74.141	36.6211	73.3959	36.6211	74.2136	36.6211	73.491	36.6211	74.2801	36.6211	73.6016	36.6211	74.3375	36.6211	73.7232	36.6211	74.3823	36.6211	73.8507	36.6211	74.4104	36.6211	73.9779	36.6211	74.4179	36.6211	74.0982	36.6211	74.4018	36.6211	74.2056	36.6211	74.3605	36.6211	74.2944
38.0859	74.2003	38.0859	74.1202	38.0859	74.2873	38.0859	74.0494	38.0859	74.3791	38.0859	73.9902	38.0859	74.4737	38.0859	73.9452	38.0859	74.5693	38.0859	73.9167	38.0859	74.6643	38.0859	73.9069	38.0859	74.7573	38.0859	73.9174	38.0859	74.8467	38.0859	73.9494	38.0859	74.9313	38.0859	74.0031	38.0859	75.0093	38.0859	74.0777	38.0859	75.079	38.0859	74.1715	38.0859	75.1381	38.0859	74.2818	38.0859	75.184	38.0859	74.4049	38.0859	75.2134	38.0859	74.536	38.0859	75.2233	38.0859	74.6698	38.0859	75.2106	38.0859	74.8002	38.0859	75.1736	38.0859	74.921	38.0859	75.1117	38.0859	75.0264
39.5508	75.2456	39.5508	75.182	39.5508	75.3202	39.5508	75.1311	39.5508	75.404	39.5508	75.0946	39.5508	75.495	39.5508	75.0734	39.5508	75.591	39.5508	75.0687	39.5508	75.6896	39.5508	75.0809	39.5508	75.7884	39.5508	75.1102	39.5508	75.8848	39.5508	75.1563	39.5508	75.9764	39.5508	75.2186	39.5508	76.0608	39.5508	75.2958	39.5508	76.1355	39.5508	75.3862	39.5508	76.1983	39.5508	75.4875	39.5508	76.2466	39.5508	75.597	39.5508	76.278	39.5508	75.711	39.5508	76.2903	39.5508	75.8256	39.5508	76.2817	39.5508	75.9362	39.5508	76.2512	39.5508	76.0382	39.5508	76.1992	39.5508	76.1272
41.0156	76.5297	41.0156	76.465	41.0156	76.6067	41.0156	76.4142	41.0156	76.6935	41.0156	76.3783	41.0156	76.7873	41.0156	76.3578	41.0156	76.885	41.0156	76.3525	41.0156	76.9832	41.0156	76.362	41.0156	77.0788	41.0156	76.3857	41.0156	77.169	41.0156	76.4229	41.0156	77.2511	41.0156	76.4729	41.0156	77.323	41.0156	76.535	41.0156	77.3829	41.0156	76.6085	41.0156	77.4292	41.0156	76.6922	41.0156	77.4602	41.0156	76.7846	41.0156	77.4746	41.0156	76.8836	41.0156	77.4712	41.0156	76.986	41.0156	77.449	41.0156	77.088	41.0156	77.4081	41.0156	77.1854	41.0156	77.349	41.0156	77.2738
42.4805	77.5525	42.4805	77.4932	42.4805	77.6205	42.4805	77.4439	42.4805	77.6953	42.4805	77.4055	42.4805	77.7749	42.4805	77.3786	42.4805	77.8566	42.4805	77.3637	42.4805	77.9378	42.4805	77.3609	42.4805	78.0159	42.4805	77.3707	42.4805	78.0884	42.4805	77.3932	42.4805	78.1533	42.4805	77.4284	42.4805	78.2087	42.4805	77.4762	42.4805	78.2533	42.4805	77.5361	42.4805	78.286	42.4805	77.6072	42.4805	78.3058	42.4805	77.6876	42.4805	78.3119	42.4805	77.7749	42.4805	78.3035	42.4805	77.8658	42.4805	78.28	42.4805	77.9564	42.4805	78.2413	42.4805	78.0427	42.4805	78.1879	42.4805	78.1209
43.9453	78.1441	43.9453	78.0828	43.9453	78.2123	43.9453	78.0298	43.9453	78.286	43.9453	77.9863	43.9453	78.3632	43.9453	77.9533	43.9453	78.4418	43.9453	77.9317	43.9453	78.5195	43.9453	77.9224	43.9453	78.594	43.9453	77.9261	43.9453	78.6631	43.9453	77.9434	43.9453	78.7248	43.9453	77.9746	43.9453	78.7775	43.9453	78.0198	43.9453	78.8196	43.9453	78.0785	43.9453	78.8502	43.9453	78.1496	43.9453	78.8682	43.9453	78.2311	43.9453	78.8729	43.9453	78.3203	43.9453	78.8633	43.9453	78.4135	43.9453	78.8388	43.9453	78.5067	43.9453	78.799	43.9453	78.5954	43.9453	78.7443	43.9453	78.6757
45.4102	78.6071	45.4102	78.544	45.4102	78.6793	45.4102	78.4916	45.4102	78.7588	45.4102	78.4511	45.4102	78.8433	45.4102	78.4235	45.4102	78.9305	45.4102	78.4096	45.4102	79.0177	45.4102	78.4101	45.4102	79.1022	45.4102	78.4251	45.4102	79.1813	45.4102	78.4548	45.4102	79.2526	45.4102	78.4988	45.4102	79.3142	45.4102	78.5565	45.4102	79.3645	45.4102	78.6269	45.4102	79.4022	45.4102	78.7082	45.4102	79.4263	45.4102	78.7982	45.4102	79.4362	45.4102	78.8938	45.4102	79.4311	45.4102	78.9913	45.4102	79.4105	45.4102	79.0867	45.4102	79.374	45.4102	79.176	45.4102	79.322	45.4102	79.2554
46.875	78.7262	46.875	78.6556	46.875	78.8103	46.875	78.6007	46.875	78.905	46.875	78.563	46.875	79.007	46.875	78.5434	46.875	79.113	46.875	78.5421	46.875	79.2193	46.875	78.5591	46.875	79.3229	46.875	78.5939	46.875	79.4208	46.875	78.6459	46.875	79.5106	46.875	78.7143	46.875	79.5905	46.875	78.7977	46.875	79.659	46.875	78.8943	46.875	79.7147	46.875	79.0018	46.875	79.7566	46.875	79.117	46.875	79.7837	46.875	79.2357	46.875	79.7944	46.875	79.3534	46.875	79.7875	46.875	79.4647	46.875	79.7614	46.875	79.5647	46.875	79.7153	46.875	79.6492
48.3398	79.4219	48.3398	79.3406	48.3398	79.5093	48.3398	79.2679	48.3398	79.5997	48.3398	79.2057	48.3398	79.6894	48.3398	79.155	48.3398	79.7748	48.3398	79.1165	48.3398	79.8523	48.3398	79.0903	48.3398	79.9188	48.3398	79.0764	48.3398	79.9719	48.3398	79.0749	48.3398	80.0098	48.3398	79.0855	48.3398	80.0317	48.3398	79.1084	48.3398	80.0372	48.3398	79.143	48.3398	80.0269	48.3398	79.189	48.3398	80.0016	48.3398	79.2455	48.3398	79.9627	48.3398	79.3112	48.3398	79.9118	48.3398	79.3844	48.3398	79.8508	48.3398	79.4629	48.3398	79.7815	48.3398	79.5444	48.3398	79.706	48.3398	79.6262
51.2695	80.7767	51.2695	80.6965	51.2695	80.8509	51.2695	80.6122	51.2695	80.9176	51.2695	80.5262	51.2695	80.9754	51.2695	80.4411	51.2695	81.0231	51.2695	80.3598	51.2695	81.0596	51.2695	80.2849	51.2695	81.0834	51.2695	80.2186	51.2695	81.0933	51.2695	80.1626	51.2695	81.0879	51.2695	80.1182	51.2695	81.0663	51.2695	80.0862	51.2695	81.028	51.2695	80.067	51.2695	80.9732	51.2695	80.0611	51.2695	80.9027	51.2695	80.069	51.2695	80.8187	51.2695	80.0913	51.2695	80.7242	51.2695	80.1284	51.2695	80.6232	51.2695	80.1807	51.2695	80.5205	51.2695	80.2478	51.2695	80.4208	51.2695	80.3287
52.7344	80.8969	52.7344	80.8165	52.7344	80.9771	52.7344	80.738	52.7344	81.0553	52.7344	80.6633	52.7344	81.1294	52.7344	80.5946	52.7344	81.1976	52.7344	80.5335	52.7344	81.2578	52.7344	80.4818	52.7344	81.3082	52.7344	80.4408	52.7344	81.3468	52.7344	80.4117	52.7344	81.3719	52.7344	80.3951	52.7344	81.382	52.7344	80.3916	52.7344	81.3761	52.7344	80.4015	52.7344	81.3536	52.7344	80.425	52.7344	81.3145	52.7344	80.4623	52.7344	81.2597	52.7344	80.5131	52.7344	81.1907	52.7344	80.577	52.7344	81.1098	52.7344	80.6526	52.7344	81.0203	52.7344	80.738	52.7344	80.9257	52.7344	80.8303
54.1992	80.9394	54.1992	80.8554	54.1992	81.0251	54.1992	80.7754	54.1992	81.1098	54.1992	80.7017	54.1992	81.1911	54.1992	80.6364	54.1992	81.2663	54.1992	80.5811	54.1992	81.3331	54.1992	80.5373	54.1992	81.3893	54.1992	80.5059	54.1992	81.4328	54.1992	80.4879	54.1992	81.4622	54.1992	80.4836	54.1992	81.4764	54.1992	80.4933	54.1992	81.4749	54.1992	80.517	54.1992	81.4577	54.1992	80.5546	54.1992	81.4256	54.1992	80.6053	54.1992	81.3794	54.1992	80.6682	54.1992	81.3207	54.1992	80.7415	54.1992	81.2512	54.1992	80.823	54.1992	81.1729	54.1992	80.91	54.1992	81.088	54.1992	80.9994
55.6641	81.2562	55.6641	81.1735	55.6641	81.34	55.6641	81.0942	55.6641	81.4221	55.6641	81.0197	55.6641	81.4996	55.6641	80.9514	55.6641	81.5692	55.6641	80.8901	55.6641	81.6279	55.6641	80.8364	55.6641	81.6731	55.6641	80.7912	55.6641	81.7026	55.6641	80.7555	55.6641	81.7151	55.6641	80.7302	55.6641	81.71	55.6641	80.7167	55.6641	81.6875	55.6641	80.7162	55.6641	81.6486	55.6641	80.7298	55.6641	81.5948	55.6641	80.7582	55.6641	81.5283	55.6641	80.8013	55.6641	81.4513	55.6641	80.8584	55.6641	81.3666	55.6641	80.9279	55.6641	81.2769	55.6641	81.0074	55.6641	81.1851	55.6641	81.0942
58.5938	81.6605	58.5938	81.5767	58.5938	81.7492	58.5938	81.4997	58.5938	81.8406	58.5938	81.4306	58.5938	81.9316	58.5938	81.3702	58.5938	82.0188	58.5938	81.3193	58.5938	82.0985	58.5938	81.2783	58.5938	82.1672	58.5938	81.2477	58.5938	82.2218	58.5938	81.2281	58.5938	82.2597	58.5938	81.22	58.5938	82.2794	58.5938	81.2241	58.5938	82.2799	58.5938	81.2411	58.5938	82.2611	58.5938	81.2717	58.5938	82.2237	58.5938	81.3162	58.5938	82.1689	58.5938	81.3747	58.5938	82.0987	58.5938	81.4465	58.5938	82.0156	58.5938	81.5302	58.5938	81.9227	58.5938	81.6233	58.5938	81.8236	58.5938	81.7224
60.0586	82.1517	60.0586	82.0577	60.0586	82.2411	60.0586	81.9613	60.0586	82.3236	60.0586	81.865	60.0586	82.3969	60.0586	81.7709	60.0586	82.4584	60.0586	81.6812	60.0586	82.5058	60.0586	81.5979	60.0586	82.537	60.0586	81.5231	60.0586	82.5504	60.0586	81.4586	60.0586	82.5448	60.0586	81.4063	60.0586	82.5199	60.0586	81.3678	60.0586	82.4759	60.0586	81.3448	60.0586	82.414	60.0586	81.3391	60.0586	82.3357	60.0586	81.3517	60.0586	82.2434	60.0586	81.3837	60.0586	82.14	60.0586	81.4351	60.0586	82.029	60.0586	81.505	60.0586	81.9143	60.0586	81.5913	60.0586	81.8001	60.0586	81.691
62.9883	82.6634	62.9883	82.5577	62.9883	82.7614	62.9883	82.448	62.9883	82.8481	62.9883	82.3381	62.9883	82.9205	62.9883	82.2312	62.9883	82.9757	62.9883	82.1302	62.9883	83.0116	62.9883	82.0373	62.9883	83.0264	62.9883	81.9541	62.9883	83.0188	62.9883	81.8817	62.9883	82.9881	62.9883	81.8207	62.9883	82.9346	62.9883	81.7719	62.9883	82.8592	62.9883	81.7358	62.9883	82.7641	62.9883	81.7132	62.9883	82.6524	62.9883	81.7053	62.9883	82.5287	62.9883	81.7132	62.9883	82.3984	62.9883	81.7384	62.9883	82.2675	62.9883	81.7821	62.9883	82.1419	62.9883	81.8451	62.9883	82.027	62.9883	81.9272
64.4531	82.6917	64.4531	82.5896	64.4531	82.7883	64.4531	82.4852	64.4531	82.8764	64.4531	82.3819	64.4531	82.9535	64.4531	82.283	64.4531	83.0172	64.4531	82.1911	64.4531	83.0654	64.4531	82.1085	64.4531	83.0962	64.4531	82.0369	64.4531	83.1077	64.4531	81.9772	64.4531	83.0987	64.4531	81.9302	64.4531	83.0682	64.4531	81.8963	64.4531	83.0164	64.4531	81.876	64.4531	82.9442	64.4531	81.8699	64.4531	82.8538	64.4531	81.8787	64.4531	82.7484	64.4531	81.9034	64.4531	82.6325	64.4531	81.9446	64.4531	82.5113	64.4531	82.0029	64.4531	82.3903	64.4531	82.0783	64.4531	82.2749	64.4531	82.1698
67.3828	82.4824	67.3828	82.3814	67.3828	82.5854	67.3828	82.2852	67.3828	82.6872	67.3828	82.196	67.3828	82.7842	67.3828	82.1154	67.3828	82.8727	67.3828	82.045	67.3828	82.9491	67.3828	81.9857	67.3828	83.0104	67.3828	81.9387	67.3828	83.0541	67.3828	81.9048	67.3828	83.0784	67.3828	81.8848	67.3828	83.0823	67.3828	81.8797	67.3828	83.0654	67.3828	81.8901	67.3828	83.0282	67.3828	81.9165	67.3828	82.9718	67.3828	81.9591	67.3828	82.898	67.3828	82.0176	67.3828	82.8096	67.3828	82.0911	67.3828	82.7097	67.3828	82.1778	67.3828	82.6024	67.3828	82.2756	67.3828	82.4915	67.3828	82.3813
68.8477	82.5882	68.8477	82.4898	68.8477	82.6882	68.8477	82.3954	68.8477	82.7864	68.8477	82.3071	68.8477	82.8794	68.8477	82.2264	68.8477	82.9636	68.8477	82.1544	68.8477	83.0356	68.8477	82.0922	68.8477	83.0925	68.8477	82.0406	68.8477	83.1319	68.8477	82.0007	68.8477	83.152	68.8477	81.9736	68.8477	83.1518	68.8477	81.9603	68.8477	83.1308	68.8477	81.9618	68.8477	83.0892	68.8477	81.9792	68.8477	83.0281	68.8477	82.013	68.8477	82.9492	68.8477	82.0634	68.8477	82.8555	68.8477	82.1301	68.8477	82.7505	68.8477	82.2119	68.8477	82.6384	68.8477	82.3069	68.8477	82.5241	68.8477	82.4121
71.7773	82.7887	71.7773	82.6922	71.7773	82.8908	71.7773	82.6045	71.7773	82.9948	71.7773	82.5277	71.7773	83.0969	71.7773	82.4635	71.7773	83.1929	71.7773	82.413	71.7773	83.2794	71.7773	82.3768	71.7773	83.3532	71.7773	82.3555	71.7773	83.4123	71.7773	82.3493	71.7773	83.4549	71.7773	82.3582	71.7773	83.4802	71.7773	82.3821	71.7773	83.4877	71.7773	82.4208	71.7773	83.4776	71.7773	82.4738	71.7773	83.4502	71.7773	82.5401	71.7773	83.4065	71.7773	82.6182	71.7773	83.3478	71.7773	82.7063	71.7773	83.2757	71.7773	82.8018	71.7773	83.1922	71.7773	82.9015	71.7773	83.1001	71.7773	83.0021
74.707	83.0803	74.707	82.9741	74.707	83.1865	74.707	82.8714	74.707	83.2889	74.707	82.7756	74.707	83.3839	74.707	82.6896	74.707	83.4682	74.707	82.6156	74.707	83.539	74.707	82.5553	74.707	83.5941	74.707	82.51	74.707	83.6321	74.707	82.4805	74.707	83.6518	74.707	82.4673	74.707	83.653	74.707	82.4707	74.707	83.6357	74.707	82.4907	74.707	83.6008	74.707	82.527	74.707	83.5493	74.707	82.5789	74.707	83.4829	74.707	82.6452	74.707	83.4039	74.707	82.7243	74.707	83.3147	74.707	82.8139	74.707	83.2179	74.707	82.9111	74.707	83.1163	74.707	83.013
77.6367	83.2698	77.6367	83.1485	77.6367	83.3892	77.6367	83.0298	77.6367	83.5022	77.6367	82.9177	77.6367	83.6045	77.6367	82.8159	77.6367	83.6922	77.6367	82.7272	77.6367	83.7623	77.6367	82.654	77.6367	83.8125	77.6367	82.5977	77.6367	83.8416	77.6367	82.5597	77.6367	83.8494	77.6367	82.5404	77.6367	83.8364	77.6367	82.5403	77.6367	83.8039	77.6367	82.5592	77.6367	83.7539	77.6367	82.5967	77.6367	83.6885	77.6367	82.6517	77.6367	83.6102	77.6367	82.7224	77.6367	83.5216	77.6367	82.8066	77.6367	83.425	77.6367	82.9014	77.6367	83.3227	77.6367	83.0035	77.6367	83.2168	77.6367	83.1096
79.1016	83.4191	79.1016	83.2985	79.1016	83.5324	79.1016	83.1749	79.1016	83.6338	79.1016	83.0529	79.1016	83.7196	79.1016	82.9365	79.1016	83.7865	79.1016	82.8291	79.1016	83.8324	79.1016	82.7337	79.1016	83.8561	79.1016	82.6526	79.1016	83.8575	79.1016	82.5878	79.1016	83.8374	79.1016	82.5409	79.1016	83.7973	79.1016	82.5132	79.1016	83.7394	79.1016	82.5056	79.1016	83.6662	79.1016	82.5184	79.1016	83.5804	79.1016	82.5515	79.1016	83.485	79.1016	82.6037	79.1016	83.3827	79.1016	82.6729	79.1016	83.2761	79.1016	82.7563	79.1016	83.1675	79.1016	82.8506	79.1016	83.0589	79.1016	82.9524
82.0312	83.412	82.0312	83.3088	82.0312	83.5009	82.0312	83.1942	82.0312	83.5733	82.0312	83.0716	82.0312	83.6276	82.0312	82.9451	82.0312	83.6626	82.0312	82.819	82.0312	83.6777	82.0312	82.6972	82.0312	83.6724	82.0312	82.5838	82.0312	83.6463	82.0312	82.4819	82.0312	83.5994	82.0312	82.3945	82.0312	83.5319	82.0312	82.3235	82.0312	83.4444	82.0312	82.2707	82.0312	83.3387	82.0312	82.2372	82.0312	83.2176	82.0312	82.2237	82.0312	83.0854	82.0312	82.2304	82.0312	82.9474	82.0312	82.2574	82.0312	82.81	82.0312	82.3043	82.0312	82.6792	82.0312	82.3709	82.0312	82.5601	82.0312	82.4566
84.9609	83.6576	84.9609	83.5611	84.9609	83.7495	84.9609	83.4612	84.9609	83.8354	84.9609	83.3593	84.9609	83.9143	84.9609	83.2572	84.9609	83.9847	84.9609	83.157	84.9609	84.0449	84.9609	83.0607	84.9609	84.0927	84.9609	82.9707	84.9609	84.1257	84.9609	82.8892	84.9609	84.1413	84.9609	82.8188	84.9609	84.1368	84.9609	82.7621	84.9609	84.1096	84.9609	82.7218	84.9609	84.0576	84.9609	82.7013	84.9609	83.9796	84.9609	82.7037	84.9609	83.8757	84.9609	82.7323	84.9609	83.7481	84.9609	82.7893	84.9609	83.6014	84.9609	82.8756	84.9609	83.4429	84.9609	82.9898	84.9609	83.2817	84.9609	83.1275
87.8906	84.0357	87.8906	83.9172	87.8906	84.1423	87.8906	83.7901	87.8906	84.2335	87.8906	83.6578	87.8906	84.3061	87.8906	83.5236	87.8906	84.3572	87.8906	83.3905	87.8906	84.384	87.8906	83.2612	87.8906	84.3849	87.8906	83.1386	87.8906	84.3588	87.8906	83.0254	87.8906	84.306	87.8906	82.9247	87.8906	84.2276	87.8906	82.8394	87.8906	84.1262	87.8906	82.7728	87.8906	84.0051	87.8906	82.7279	87.8906	83.8686	87.8906	82.7075	87.8906	83.7214	87.8906	82.7136	87.8906	83.5686	87.8906	82.7472	87.8906	83.4154	87.8906	82.8078	87.8906	83.2666	87.8906	82.8935	87.8906	83.1271	87.8906	83.0013
90.8203	84.0486	90.8203	83.9354	90.8203	84.1503	90.8203	83.8142	90.8203	84.2377	90.8203	83.6886	90.8203	84.3082	90.8203	83.562	90.8203	84.36	90.8203	83.4376	90.8203	84.3919	90.8203	83.3179	90.8203	84.4028	90.8203	83.2049	90.8203	84.3921	90.8203	83.1003	90.8203	84.359	90.8203	83.0057	90.8203	84.3028	90.8203	82.9228	90.8203	84.2231	90.8203	82.854	90.8203	84.1195	90.8203	82.802	90.8203	83.9931	90.8203	82.7706	90.8203	83.8464	90.8203	82.7636	90.8203	83.6841	90.8203	82.785	90.8203	83.5131	90.8203	82.8377	90.8203	83.3422	90.8203	82.9228	90.8203	83.181	90.8203	83.0388
95.2148	83.3641	95.2148	83.2396	95.2148	83.486	95.2148	83.117	95.2148	83.6011	95.2148	83.0008	95.2148	83.7055	95.2148	82.8953	95.2148	83.7963	95.2148	82.8048	95.2148	83.8717	95.2148	82.7329	95.2148	83.9306	95.2148	82.6827	95.2148	83.9729	95.2148	82.6562	95.2148	83.9992	95.2148	82.6543	95.2148	84.0099	95.2148	82.6767	95.2148	84.0054	95.2148	82.7219	95.2148	83.9856	95.2148	82.7873	95.2148	83.95	95.2148	82.87	95.2148	83.8981	95.2148	82.9667	95.2148	83.8298	95.2148	83.0738	95.2148	83.7461	95.2148	83.1883	95.2148	83.6487	95.2148	83.3066	95.2148	83.5406	95.2148	83.4253
98.1445	83.7701	98.1445	83.6546	98.1445	83.8761	98.1445	83.5328	98.1445	83.9698	98.1445	83.4084	98.1445	84.0492	98.1445	83.2859	98.1445	84.1128	98.1445	83.1695	98.1445	84.1597	98.1445	83.064	98.1445	84.1899	98.1445	82.9736	98.1445	84.2038	98.1445	82.9021	98.1445	84.2019	98.1445	82.8526	98.1445	84.1851	98.1445	82.827	98.1445	84.1538	98.1445	82.8265	98.1445	84.1081	98.1445	82.851	98.1445	84.0477	98.1445	82.8995	98.1445	83.9723	98.1445	82.9701	98.1445	83.882	98.1445	83.0602	98.1445	83.7778	98.1445	83.1666	98.1445	83.662	98.1445	83.2851	98.1445	83.538	98.1445	83.4106
101.074	83.6512	101.074	83.5103	101.074	83.7832	101.074	83.3657	101.074	83.9017	101.074	83.2234	101.074	84.0033	101.074	83.0895	101.074	84.0854	101.074	82.9702	101.074	84.1467	101.074	82.8715	101.074	84.1874	101.074	82.7986	101.074	84.2086	101.074	82.7552	101.074	84.2126	101.074	82.7436	101.074	84.2021	101.074	82.764	101.074	84.1798	101.074	82.8148	101.074	84.1476	101.074	82.8927	101.074	84.1063	101.074	82.9927	101.074	84.0558	101.074	83.1092	101.074	83.9947	101.074	83.2361	101.074	83.9215	101.074	83.3674	101.074	83.8348	101.074	83.4974	101.074	83.7343	101.074	83.621
105.469	84.0406	105.469	83.9096	105.469	84.1549	105.469	83.7669	105.469	84.2486	105.469	83.6179	105.469	84.3186	105.469	83.4684	105.469	84.3632	105.469	83.324	105.469	84.3818	105.469	83.1901	105.469	84.3753	105.469	83.0715	105.469	84.3459	105.469	82.9729	105.469	84.2966	105.469	82.8983	105.469	84.2312	105.469	82.8507	105.469	84.1538	105.469	82.8323	105.469	84.0681	105.469	82.8437	105.469	83.9768	105.469	82.8835	105.469	83.8819	105.469	82.9488	105.469	83.7841	105.469	83.0348	105.469	83.6833	105.469	83.1356	105.469	83.5786	105.469	83.2452	105.469	83.47	105.469	83.358
108.398	84.1937	108.398	84.0798	108.398	84.2878	108.398	83.9502	108.398	84.3587	108.398	83.8098	108.398	84.4046	108.398	83.664	108.398	84.4244	108.398	83.5184	108.398	84.4183	108.398	83.3784	108.398	84.3876	108.398	83.2491	108.398	84.3348	108.398	83.1355	108.398	84.2631	108.398	83.0415	108.398	84.1764	108.398	82.9707	108.398	84.0788	108.398	82.9254	108.398	83.9744	108.398	82.9068	108.398	83.8668	108.398	82.9145	108.398	83.7586	108.398	82.9466	108.398	83.6516	108.398	83.0001	108.398	83.5466	108.398	83.0707	108.398	83.4437	108.398	83.1541	108.398	83.3433	108.398	83.246
112.793	84.2836	112.793	84.1639	112.793	84.3838	112.793	84.0282	112.793	84.4619	112.793	83.8807	112.793	84.5158	112.793	83.726	112.793	84.544	112.793	83.5696	112.793	84.546	112.793	83.4173	112.793	84.5223	112.793	83.2754	112.793	84.4745	112.793	83.1499	112.793	84.4055	112.793	83.0467	112.793	84.3193	112.793	82.9706	112.793	84.2206	112.793	82.9253	112.793	84.114	112.793	82.9123	112.793	84.0036	112.793	82.931	112.793	83.8925	112.793	82.9784	112.793	83.7824	112.793	83.0497	112.793	83.6734	112.793	83.139	112.793	83.5648	112.793	83.2399	112.793	83.4558	112.793	83.3469
117.188	84.551	117.188	84.4282	117.188	84.6509	117.188	84.2864	117.188	84.7252	117.188	84.1297	117.188	84.7713	117.188	83.9627	117.188	84.7876	117.188	83.7906	117.188	84.7734	117.188	83.6188	117.188	84.7287	117.188	83.4533	117.188	84.6549	117.188	83.3002	117.188	84.5545	117.188	83.1657	117.188	84.4312	117.188	83.0557	117.188	84.2899	117.188	82.975	117.188	84.1367	117.188	82.9266	117.188	83.9786	117.188	82.9111	117.188	83.8225	117.188	82.9265	117.188	83.6742	117.188	82.9684	117.188	83.5376	117.188	83.0315	117.188	83.4138	117.188	83.1103	117.188	83.3021	117.188	83.2011
120.117	84.6392	120.117	84.5374	120.117	84.7207	120.117	84.4175	120.117	84.7802	120.117	84.2821	120.117	84.8163	120.117	84.1342	120.117	84.8284	120.117	83.9774	120.117	84.8161	120.117	83.8153	120.117	84.7797	120.117	83.6523	120.117	84.7194	120.117	83.4933	120.117	84.636	120.117	83.3439	120.117	84.5304	120.117	83.2102	120.117	84.4041	120.117	83.0982	120.117	84.2595	120.117	83.0136	120.117	84.1004	120.117	82.9604	120.117	83.9322	120.117	82.9409	120.117	83.7613	120.117	82.9549	120.117	83.5945	120.117	83.0006	120.117	83.4381	120.117	83.075	120.117	83.2969	120.117	83.1749
124.512	84.5425	124.512	84.4236	124.512	84.645	124.512	84.2925	124.512	84.7281	124.512	84.1539	124.512	84.79	124.512	84.0129	124.512	84.8296	124.512	83.8747	124.512	84.8472	124.512	83.7439	124.512	84.8434	124.512	83.6247	124.512	84.8197	124.512	83.5208	124.512	84.7775	124.512	83.435	124.512	84.718	124.512	83.3701	124.512	84.6427	124.512	83.3281	124.512	84.5526	124.512	83.3107	124.512	84.4493	124.512	83.3187	124.512	84.3347	124.512	83.3521	124.512	84.2115	124.512	83.4099	124.512	84.0828	124.512	83.4896	124.512	83.9522	124.512	83.5879	124.512	83.8235	124.512	83.7006
128.906	84.7536	128.906	84.6338	128.906	84.8547	128.906	84.4995	128.906	84.9342	128.906	84.3561	128.906	84.9905	128.906	84.2094	128.906	85.0229	128.906	84.0656	128.906	85.0321	128.906	83.9309	128.906	85.0193	128.906	83.8105	128.906	84.9864	128.906	83.7089	128.906	84.9354	128.906	83.6295	128.906	84.8687	128.906	83.5742	128.906	84.7879	128.906	83.5441	128.906	84.6949	128.906	83.5388	128.906	84.5916	128.906	83.5569	128.906	84.4804	128.906	83.5963	128.906	84.3642	128.906	83.6543	128.906	84.2462	128.906	83.7279	128.906	84.1297	128.906	83.8144	128.906	84.0174	128.906	83.9116
133.301	84.9277	133.301	84.8061	133.301	85.031	133.301	84.6704	133.301	85.1129	133.301	84.5256	133.301	85.1712	133.301	84.3768	133.301	85.2048	133.301	84.2296	133.301	85.2139	133.301	84.0894	133.301	85.1999	133.301	83.9616	133.301	85.1649	133.301	83.8508	133.301	85.1116	133.301	83.7612	133.301	85.043	133.301	83.6962	133.301	84.9614	133.301	83.658	133.301	84.869	133.301	83.6475	133.301	84.7675	133.301	83.6643	133.301	84.6585	133.301	83.7066	133.301	84.5433	133.301	83.7714	133.301	84.424	133.301	83.8554	133.301	84.3026	133.301	83.9543	133.301	84.1817	133.301	84.0644
139.16	85.0936	139.16	84.9643	139.16	85.2041	139.16	84.822	139.16	85.2916	139.16	84.6733	139.16	85.3533	139.16	84.5247	139.16	85.3887	139.16	84.3825	139.16	85.3987	139.16	84.2519	139.16	85.3857	139.16	84.137	139.16	85.3527	139.16	84.0413	139.16	85.3029	139.16	83.9669	139.16	85.2389	139.16	83.9155	139.16	85.1626	139.16	83.8883	139.16	85.0754	139.16	83.8854	139.16	84.9783	139.16	83.9064	139.16	84.8728	139.16	83.95	139.16	84.7607	139.16	84.0139	139.16	84.6443	139.16	84.0951	139.16	84.5262	139.16	84.1905	139.16	84.4093	139.16	84.2963
143.555	85.2521	143.555	85.122	143.555	85.3596	143.555	84.9752	143.555	85.4408	143.555	84.8188	143.555	85.4939	143.555	84.6609	143.555	85.5196	143.555	84.5093	143.555	85.5203	143.555	84.3713	143.555	85.4998	143.555	84.2527	143.555	85.4626	143.555	84.1582	143.555	85.4131	143.555	84.0907	143.555	85.3552	143.555	84.0515	143.555	85.2914	143.555	84.0406	143.555	85.2224	143.555	84.0568	143.555	85.1479	143.555	84.0975	143.555	85.0667	143.555	84.16	143.555	84.9775	143.555	84.2405	143.555	84.88	143.555	84.3353	143.555	84.7748	143.555	84.4403	143.555	84.6642	143.555	84.5514
147.949	85.4864	147.949	85.3555	147.949	85.5921	147.949	85.2046	147.949	85.6693	147.949	85.0402	147.949	85.7165	147.949	84.8696	147.949	85.734	147.949	84.7009	147.949	85.7238	147.949	84.5417	147.949	85.6893	147.949	84.3994	147.949	85.6348	147.949	84.2802	147.949	85.5656	147.949	84.1893	147.949	85.4863	147.949	84.1301	147.949	85.4011	147.949	84.1041	147.949	85.3126	147.949	84.1108	147.949	85.2221	147.949	84.1475	147.949	85.1298	147.949	84.2102	147.949	85.0347	147.949	84.2936	147.949	84.9357	147.949	84.392	147.949	84.8319	147.949	84.4997	147.949	84.7233	147.949	84.6116
153.809	85.6417	153.809	85.5133	153.809	85.743	153.809	85.3629	153.809	85.8137	153.809	85.1972	153.809	85.8527	153.809	85.0237	153.809	85.8607	153.809	84.8503	153.809	85.8406	153.809	84.6851	153.809	85.7968	153.809	84.5355	153.809	85.7349	153.809	84.4084	153.809	85.6612	153.809	84.3095	153.809	85.5811	153.809	84.2432	153.809	85.4989	153.809	84.2118	153.809	85.4168	153.809	84.2156	153.809	85.3353	153.809	84.2525	153.809	85.2527	153.809	84.3185	153.809	85.1666	153.809	84.4077	153.809	85.0741	153.809	84.5136	153.809	84.9732	153.809	84.6292	153.809	84.8639	153.809	84.7479
159.668	85.8284	159.668	85.7192	159.668	85.915	159.668	85.593	159.668	85.9748	159.668	85.4565	159.668	86.0057	159.668	85.3163	159.668	86.008	159.668	85.1784	159.668	85.984	159.668	85.0482	159.668	85.9382	159.668	84.9301	159.668	85.8763	159.668	84.8281	159.668	85.805	159.668	84.7459	159.668	85.7306	159.668	84.687	159.668	85.6581	159.668	84.6545	159.668	85.5904	159.668	84.6503	159.668	85.5279	159.668	84.6748	159.668	85.4685	159.668	84.7261	159.668	85.4083	159.668	84.7997	159.668	85.3426	159.668	84.8894	159.668	85.2679	159.668	84.988	159.668	85.1825	159.668	85.0878
165.527	85.8977	165.527	85.7638	165.527	86.0059	165.527	85.6126	165.527	86.0826	165.527	85.4541	165.527	86.1246	165.527	85.299	165.527	86.1319	165.527	85.157	165.527	86.1071	165.527	85.0363	165.527	86.0555	165.527	84.9422	165.527	85.9843	165.527	84.8771	165.527	85.9018	165.527	84.8406	165.527	85.8166	165.527	84.8307	165.527	85.7356	165.527	84.8444	165.527	85.6638	165.527	84.8781	165.527	85.603	165.527	84.9282	165.527	85.552	165.527	84.9912	165.527	85.507	165.527	85.0632	165.527	85.4626	165.527	85.1401	165.527	85.4137	165.527	85.2174	165.527	85.3568	165.527	85.2908
171.387	86.2526	171.387	86.1164	171.387	86.3543	171.387	85.9527	171.387	86.4165	171.387	85.7705	171.387	86.437	171.387	85.5795	171.387	86.4162	171.387	85.3899	171.387	86.3575	171.387	85.2116	171.387	86.2666	171.387	85.0536	171.387	86.1513	171.387	84.9236	171.387	86.0205	171.387	84.8269	171.387	85.8837	171.387	84.7665	171.387	85.7501	171.387	84.7424	171.387	85.6278	171.387	84.7521	171.387	85.523	171.387	84.7903	171.387	85.438	171.387	84.85	171.387	85.371	171.387	84.9234	171.387	85.3163	171.387	85.0024	171.387	85.266	171.387	85.08	171.387	85.2125	171.387	85.1508
177.246	86.2857	177.246	86.1512	177.246	86.385	177.246	85.9874	177.246	86.4464	177.246	85.8025	177.246	86.4697	177.246	85.6069	177.246	86.4572	177.246	85.4119	177.246	86.4132	177.246	85.2292	177.246	86.3435	177.246	85.0693	177.246	86.2549	177.246	84.9407	177.246	86.1545	177.246	84.8488	177.246	86.0484	177.246	84.7955	177.246	85.9419	177.246	84.7792	177.246	85.8386	177.246	84.7954	177.246	85.7407	177.246	84.8381	177.246	85.6491	177.246	84.9004	177.246	85.5629	177.246	84.9761	177.246	85.4806	177.246	85.0595	177.246	85.3995	177.246	85.1462	177.246	85.3173	177.246	85.2327
183.105	86.3388	183.105	86.2051	183.105	86.44	183.105	86.0462	183.105	86.5035	183.105	85.871	183.105	86.5272	183.105	85.6886	183.105	86.5126	183.105	85.5081	183.105	86.4643	183.105	85.3374	183.105	86.3899	183.105	85.1835	183.105	86.2982	183.105	85.0522	183.105	86.1981	183.105	84.9481	183.105	86.0965	183.105	84.8749	183.105	85.9979	183.105	84.8349	183.105	85.9044	183.105	84.8287	183.105	85.816	183.105	84.8547	183.105	85.7315	183.105	84.9091	183.105	85.6486	183.105	84.986	183.105	85.5643	183.105	85.0785	183.105	85.4759	183.105	85.1793	183.105	85.3817	183.105	85.2819
188.965	86.4174	188.965	86.2853	188.965	86.5077	188.965	86.1194	188.965	86.5518	188.965	85.9298	188.965	86.549	188.965	85.7286	188.965	86.5029	188.965	85.5284	188.965	86.4212	188.965	85.3423	188.965	86.3148	188.965	85.1822	188.965	86.1968	188.965	85.0579	188.965	86.0806	188.965	84.9758	188.965	85.9778	188.965	84.938	188.965	85.8964	188.965	84.9424	188.965	85.8389	188.965	84.9834	188.965	85.8025	188.965	85.053	188.965	85.7793	188.965	85.1424	188.965	85.759	188.965	85.2436	188.965	85.7312	188.965	85.349	188.965	85.6881	188.965	85.452	188.965	85.6262	188.965	85.5462
196.289	86.6262	196.289	86.5064	196.289	86.7018	196.289	86.3493	196.289	86.7296	196.289	86.1643	196.289	86.7098	196.289	85.9622	196.289	86.6466	196.289	85.7543	196.289	86.5471	196.289	85.5517	196.289	86.4212	196.289	85.3649	196.289	86.2798	196.289	85.2034	196.289	86.134	196.289	85.0753	196.289	85.9941	196.289	84.9864	196.289	85.8687	196.289	84.9395	196.289	85.7638	196.289	84.9342	196.289	85.6826	196.289	84.9662	196.289	85.6238	196.289	85.0282	196.289	85.5814	196.289	85.1109	196.289	85.5455	196.289	85.2041	196.289	85.5052	196.289	85.2975	196.289	85.452	196.289	85.3822
203.613	86.6304	203.613	86.5183	203.613	86.6952	203.613	86.3651	203.613	86.7106	203.613	86.1804	203.613	86.6786	203.613	85.9757	203.613	86.605	203.613	85.7637	203.613	86.4981	203.613	85.5572	203.613	86.3679	203.613	85.3687	203.613	86.2256	203.613	85.2095	203.613	86.0825	203.613	85.0895	203.613	85.9493	203.613	85.0153	203.613	85.8345	203.613	84.9891	203.613	85.744	203.613	85.0079	203.613	85.6799	203.613	85.064	203.613	85.6399	203.613	85.1461	203.613	85.6173	203.613	85.2418	203.613	85.6022	203.613	85.3388	203.613	85.5832	203.613	85.4271	203.613	85.5507	203.613	85.4989
210.938	86.6775	210.938	86.579	210.938	86.7373	210.938	86.4459	210.938	86.7568	210.938	86.2843	210.938	86.7359	210.938	86.1024	210.938	86.6768	210.938	85.9101	210.938	86.5837	210.938	85.7178	210.938	86.4642	210.938	85.5359	210.938	86.3287	210.938	85.3737	210.938	86.1902	210.938	85.2393	210.938	86.0615	210.938	85.1391	210.938	85.9529	210.938	85.0773	210.938	85.8698	210.938	85.0556	210.938	85.8111	210.938	85.0725	210.938	85.7701	210.938	85.1233	210.938	85.736	210.938	85.2004	210.938	85.6976	210.938	85.2942	210.938	85.6461	210.938	85.3945	210.938	85.5771	210.938	85.4915
218.262	86.5941	218.262	86.4617	218.262	86.6892	218.262	86.3032	218.262	86.738	218.262	86.1306	218.262	86.735	218.262	85.9553	218.262	86.6792	218.262	85.7872	218.262	86.5745	218.262	85.6341	218.262	86.4304	218.262	85.5019	218.262	86.2612	218.262	85.3951	218.262	86.0849	218.262	85.3173	218.262	85.9218	218.262	85.2716	218.262	85.7917	218.262	85.2606	218.262	85.7103	218.262	85.2852	218.262	85.6841	218.262	85.3437	218.262	85.7073	218.262	85.4304	218.262	85.7613	218.262	85.5358	218.262	85.8203	218.262	85.6466	218.262	85.8594	218.262	85.7475	218.262	85.8622	218.262	85.8233
225.586	86.8076	225.586	86.6554	225.586	86.9078	225.586	86.4636	225.586	86.9476	225.586	86.2473	225.586	86.9235	225.586	86.023	225.586	86.8374	225.586	85.8071	225.586	86.6961	225.586	85.6141	225.586	86.5112	225.586	85.456	225.586	86.2987	225.586	85.3412	225.586	86.0781	225.586	85.2744	225.586	85.8718	225.586	85.2558	225.586	85.7025	225.586	85.2821	225.586	85.5901	225.586	85.3461	225.586	85.5457	225.586	85.438	225.586	85.5668	225.586	85.5458	225.586	85.6358	225.586	85.6559	225.586	85.725	225.586	85.7542	225.586	85.8055	225.586	85.827	225.586	85.8554	225.586	85.8629
232.91	86.9182	232.91	86.7633	232.91	87.0188	232.91	86.5655	232.91	87.0583	232.91	86.3398	232.91	87.035	232.91	86.1033	232.91	86.9511	232.91	85.8724	232.91	86.8119	232.91	85.6614	232.91	86.6248	232.91	85.4813	232.91	86.3992	232.91	85.3398	232.91	86.1467	232.91	85.2415	232.91	85.8826	232.91	85.1885	232.91	85.6275	232.91	85.1798	232.91	85.408	232.91	85.2106	232.91	85.2525	232.91	85.2719	232.91	85.1812	232.91	85.3503	232.91	85.1948	232.91	85.4299	232.91	85.2704	232.91	85.4937	232.91	85.3711	232.91	85.526	232.91	85.4612	232.91	85.516
241.699	86.7821	241.699	86.6218	241.699	86.8891	241.699	86.4181	241.699	86.9375	241.699	86.1851	241.699	86.9257	241.699	85.94	241.699	86.8563	241.699	85.7012	241.699	86.7355	241.699	85.4857	241.699	86.5729	241.699	85.3061	241.699	86.3808	241.699	85.1693	241.699	86.1721	241.699	85.0768	241.699	85.9576	241.699	85.0261	241.699	85.7466	241.699	85.0122	241.699	85.5482	241.699	85.0283	241.699	85.3743	241.699	85.0658	241.699	85.2393	241.699	85.1143	241.699	85.1551	241.699	85.1615	241.699	85.1238	241.699	85.1956	241.699	85.1343	241.699	85.2078	241.699	85.1657	241.699	85.1956
250.488	87.0324	250.488	86.8072	250.488	87.186	250.488	86.5263	250.488	87.2582	250.488	86.2108	250.488	87.2455	250.488	85.8857	250.488	87.1522	250.488	85.5775	250.488	86.9895	250.488	85.3107	250.488	86.7752	250.488	85.1032	250.488	86.5307	250.488	84.9626	250.488	86.2775	250.488	84.8859	250.488	86.0333	250.488	84.8623	250.488	85.8103	250.488	84.8772	250.488	85.6162	250.488	84.9172	250.488	85.4565	250.488	84.9714	250.488	85.3352	250.488	85.031	250.488	85.2542	250.488	85.0884	250.488	85.21	250.488	85.1363	250.488	85.1933	250.488	85.1692	250.488	85.19	250.488	85.1856
259.277	87.1747	259.277	87.0023	259.277	87.2706	259.277	86.7621	259.277	87.2877	259.277	86.4688	259.277	87.2297	259.277	86.1426	259.277	87.106	259.277	85.8087	259.277	86.9306	259.277	85.4952	259.277	86.7202	259.277	85.2297	259.277	86.4931	259.277	85.0327	259.277	86.2676	259.277	84.9123	259.277	86.0594	259.277	84.8623	259.277	85.8792	259.277	84.8656	259.277	85.7321	259.277	84.9014	259.277	85.6164	259.277	84.9519	259.277	85.5258	259.277	85.0056	259.277	85.4512	259.277	85.0577	259.277	85.3848	259.277	85.1075	259.277	85.3223	259.277	85.1567	259.277	85.2631	259.277	85.208
268.066	87.1117	268.066	86.9335	268.066	87.2147	268.066	86.6872	268.066	87.2402	268.066	86.3851	268.066	87.1905	268.066	86.0456	268.066	87.0721	268.066	85.6933	268.066	86.8966	268.066	85.3576	268.066	86.6803	268.066	85.0681	268.066	86.4438	268.066	84.848	268.066	86.2101	268.066	84.7079	268.066	86.0005	268.066	84.6428	268.066	85.8314	268.066	84.6366	268.066	85.7102	268.066	84.6697	268.066	85.633	268.066	84.7265	268.066	85.5851	268.066	84.7984	268.066	85.5451	268.066	84.883	268.066	85.493	268.066	84.9804	268.066	85.4173	268.066	85.0893	268.066	85.3184	268.066	85.2051
276.855	87.1455	276.855	86.9947	276.855	87.2126	276.855	86.7623	276.855	87.1995	276.855	86.4564	276.855	87.1147	276.855	86.0911	276.855	86.9702	276.855	85.6878	276.855	86.7805	276.855	85.2753	276.855	86.5618	276.855	84.8904	276.855	86.3314	276.855	84.5741	276.855	86.1073	276.855	84.3618	276.855	85.9065	276.855	84.2695	276.855	85.7432	276.855	84.2861	276.855	85.6272	276.855	84.38	276.855	85.5603	276.855	84.5161	276.855	85.5338	276.855	84.6692	276.855	85.5275	276.855	84.8273	276.855	85.5157	276.855	84.9862	276.855	85.4762	276.855	85.1411	276.855	85.3979	276.855	85.2827
287.109	86.9684	287.109	86.8635	287.109	87.0082	287.109	86.6923	287.109	86.983	287.109	86.4555	287.109	86.8914	287.109	86.1602	287.109	86.7329	287.109	85.8225	287.109	86.5112	287.109	85.4683	287.109	86.238	287.109	85.1295	287.109	85.9349	287.109	84.8373	287.109	85.635	287.109	84.6153	287.109	85.381	287.109	84.4758	287.109	85.2177	287.109	84.4197	287.109	85.1745	287.109	84.4405	287.109	85.2455	287.109	84.5282	287.109	85.386	287.109	84.6708	287.109	85.532	287.109	84.8539	287.109	85.6284	287.109	85.0593	287.109	85.646	287.109	85.2649	287.109	85.581	287.109	85.4468
297.363	87.3044	297.363	87.1641	297.363	87.3589	297.363	86.9534	297.363	87.3159	297.363	86.6864	297.363	87.1715	297.363	86.3736	297.363	86.9311	297.363	86.0228	297.363	86.6091	297.363	85.6444	297.363	86.2256	297.363	85.2588	297.363	85.8051	297.363	84.9013	297.363	85.3756	297.363	84.6196	297.363	84.9735	297.363	84.458	297.363	84.649	297.363	84.4359	297.363	84.4646	297.363	84.5359	297.363	84.4695	297.363	84.7154	297.363	84.6562	297.363	84.9282	297.363	84.949	297.363	85.1398	297.363	85.2441	297.363	85.3283	297.363	85.4614	297.363	85.4765	297.363	85.5669	297.363	85.5644
307.617	87.0205	307.617	86.8109	307.617	87.1491	307.617	86.5376	307.617	87.1853	307.617	86.2217	307.617	87.1245	307.617	85.8874	307.617	86.9709	307.617	85.5599	307.617	86.7364	307.617	85.2619	307.617	86.4395	307.617	85.009	307.617	86.1005	307.617	84.8069	307.617	85.7359	307.617	84.6532	307.617	85.3557	307.617	84.5432	307.617	84.9696	307.617	84.4767	307.617	84.6022	307.617	84.4583	307.617	84.3054	307.617	84.4926	307.617	84.1464	307.617	84.5752	307.617	84.1634	307.617	84.6871	307.617	84.3253	307.617	84.7955	307.617	84.5465	307.617	84.8606	307.617	84.7385	307.617	84.8475
319.336	87.1729	319.336	86.9905	319.336	87.2415	319.336	86.7012	319.336	87.198	319.336	86.3208	319.336	87.0508	319.336	85.8763	319.336	86.8141	319.336	85.4064	319.336	86.5055	319.336	84.9619	319.336	86.1469	319.336	84.5989	319.336	85.7644	319.336	84.3633	319.336	85.3898	319.336	84.2697	319.336	85.0578	319.336	84.2929	319.336	84.7996	319.336	84.3823	319.336	84.6331	319.336	84.4872	319.336	84.555	319.336	84.5754	319.336	84.5415	319.336	84.6363	319.336	84.5608	319.336	84.6723	319.336	84.5891	319.336	84.688	319.336	84.6174	319.336	84.6862	319.336	84.645	319.336	84.67
329.59	86.8639	329.59	86.7357	329.59	86.9145	329.59	86.5366	329.59	86.8816	329.59	86.2702	329.59	86.763	329.59	85.9383	329.59	86.5632	329.59	85.5445	329.59	86.293	329.59	85.1026	329.59	85.9662	329.59	84.646	329.59	85.5955	329.59	84.2317	329.59	85.1912	329.59	83.9278	329.59	84.7658	329.59	83.782	329.59	84.3468	329.59	83.7916	329.59	83.9896	329.59	83.9063	329.59	83.769	329.59	84.0615	329.59	83.7338	329.59	84.2098	329.59	83.8606	329.59	84.3283	329.59	84.0646	329.59	84.4107	329.59	84.2576	329.59	84.4543	329.59	84.3899	329.59	84.4518
341.309	86.7246	341.309	86.5453	341.309	86.8095	341.309	86.2847	341.309	86.7961	341.309	85.963	341.309	86.689	341.309	85.6026	341.309	86.5004	341.309	85.2239	341.309	86.2475	341.309	84.8426	341.309	85.9527	341.309	84.4725	341.309	85.6422	341.309	84.1323	341.309	85.3404	341.309	83.8488	341.309	85.0611	341.309	83.6517	341.309	84.8033	341.309	83.5585	341.309	84.5591	341.309	83.5642	341.309	84.3301	341.309	83.6445	341.309	84.138	341.309	83.7673	341.309	84.0164	341.309	83.9022	341.309	83.9843	341.309	84.0211	341.309	84.0233	341.309	84.0992	341.309	84.0851	341.309	84.1199
353.027	86.7253	353.027	86.5559	353.027	86.7824	353.027	86.2878	353.027	86.7232	353.027	85.942	353.027	86.5535	353.027	85.5438	353.027	86.2875	353.027	85.1189	353.027	85.9459	353.027	84.6911	353.027	85.554	353.027	84.284	353.027	85.1381	353.027	83.9236	353.027	84.7241	353.027	83.6384	353.027	84.3391	353.027	83.453	353.027	84.0177	353.027	83.3767	353.027	83.8017	353.027	83.3966	353.027	83.7185	353.027	83.4827	353.027	83.7512	353.027	83.5992	353.027	83.8391	353.027	83.7152	353.027	83.9176	353.027	83.8112	353.027	83.9546	353.027	83.8803	353.027	83.9526	353.027	83.926
366.211	86.2844	366.211	86.1771	366.211	86.3087	366.211	85.9889	366.211	86.2458	366.211	85.7231	366.211	86.0903	366.211	85.3884	366.211	85.84	366.211	85.004	366.211	85.5037	366.211	84.6032	366.211	85.1068	366.211	84.2317	366.211	84.6907	366.211	83.9361	366.211	84.3013	366.211	83.7425	366.211	83.9754	366.211	83.6398	366.211	83.7345	366.211	83.586	366.211	83.5898	366.211	83.5366	366.211	83.5432	366.211	83.4715	366.211	83.5775	366.211	83.4024	366.211	83.6489	366.211	83.3596	366.211	83.7021	366.211	83.3685	366.211	83.6987	366.211	83.4328	366.211	83.634	366.211	83.5328
379.395	86.295	379.395	86.0461	379.395	86.4507	379.395	85.7301	379.395	86.4899	379.395	85.371	379.395	86.3978	379.395	84.988	379.395	86.1738	379.395	84.5982	379.395	85.8361	379.395	84.2248	379.395	85.4209	379.395	83.906	379.395	84.9757	379.395	83.6916	379.395	84.546	379.395	83.6189	379.395	84.1672	379.395	83.6821	379.395	83.8682	379.395	83.8284	379.395	83.6815	379.395	83.9893	379.395	83.6382	379.395	84.1173	379.395	83.7392	379.395	84.2009	379.395	83.9351	379.395	84.2559	379.395	84.1465	379.395	84.3044	379.395	84.3065	379.395	84.3546	379.395	84.3857	379.395	84.3919
392.578	86.6696	392.578	86.367	392.578	86.8152	392.578	85.93	392.578	86.7909	392.578	85.3924	392.578	86.5949	392.578	84.8022	392.578	86.2421	392.578	84.2179	392.578	85.7673	392.578	83.6981	392.578	85.2244	392.578	83.2922	392.578	84.679	392.578	83.0396	392.578	84.1944	392.578	82.9701	392.578	83.8182	392.578	83.0901	392.578	83.5806	392.578	83.3663	392.578	83.5026	392.578	83.7321	392.578	83.5919	392.578	84.1164	392.578	83.8232	392.578	84.4671	392.578	84.1356	392.578	84.7538	392.578	84.4591	392.578	84.9574	392.578	84.7411	392.578	85.0628	392.578	84.9485	392.578	85.0598
405.762	87.1964	405.762	86.9353	405.762	87.3012	405.762	86.5474	405.762	87.2245	405.762	86.0559	405.762	86.9569	405.762	85.4744	405.762	86.514	405.762	84.813	405.762	85.9369	405.762	84.0983	405.762	85.2873	405.762	83.4008	405.762	84.638	405.762	82.8461	405.762	84.0624	405.762	82.5669	405.762	83.6216	405.762	82.6068	405.762	83.3621	405.762	82.8878	405.762	83.3217	405.762	83.2877	405.762	83.5138	405.762	83.7179	405.762	83.8854	405.762	84.1333	405.762	84.3185	405.762	84.5064	405.762	84.6963	405.762	84.8091	405.762	84.957	405.762	85.0151	405.762	85.0919	405.762	85.11
420.41	87.4462	420.41	87.2171	420.41	87.5047	420.41	86.832	420.41	87.3943	420.41	86.3189	420.41	87.1313	420.41	85.7143	420.41	86.7382	420.41	85.0546	420.41	86.2326	420.41	84.371	420.41	85.6257	420.41	83.7002	420.41	84.9362	420.41	83.1129	420.41	84.2064	420.41	82.724	420.41	83.5051	420.41	82.6385	420.41	82.9286	420.41	82.86	420.41	82.6072	420.41	83.2836	420.41	82.6701	420.41	83.7836	420.41	83.1222	420.41	84.2745	420.41	83.7869	420.41	84.7069	420.41	84.436	420.41	85.0446	420.41	84.9268	420.41	85.257	420.41	85.2179	420.41	85.321
435.059	87.1443	435.059	86.9353	435.059	87.2135	435.059	86.5864	435.059	87.1496	435.059	86.1072	435.059	86.959	435.059	85.5163	435.059	86.6413	435.059	84.8396	435.059	86.1941	435.059	84.1108	435.059	85.6289	435.059	83.3799	435.059	84.985	435.059	82.7294	435.059	84.3206	435.059	82.2791	435.059	83.6841	435.059	82.1364	435.059	83.1039	435.059	82.3124	435.059	82.6374	435.059	82.7079	435.059	82.4301	435.059	83.1923	435.059	82.6392	435.059	83.6713	435.059	83.2173	435.059	84.0951	435.059	83.9008	435.059	84.4389	435.059	84.4421	435.059	84.6838	435.059	84.7382	435.059	84.8003
451.172	87.5591	451.172	87.2941	451.172	87.6728	451.172	86.886	451.172	87.6166	451.172	86.3376	451.172	87.3653	451.172	85.6513	451.172	86.903	451.172	84.8301	451.172	86.2401	451.172	83.8841	451.172	85.4201	451.172	82.8531	451.172	84.5164	451.172	81.8432	451.172	83.6276	451.172	81.0484	451.172	82.8646	451.172	80.6773	451.172	82.3139	451.172	80.785	451.172	81.9865	451.172	81.2248	451.172	81.8165	451.172	81.7966	451.172	81.7385	451.172	82.3651	451.172	81.771	451.172	82.8544	451.172	81.9959	451.172	83.2036	451.172	82.4194	451.172	83.3491	451.172	82.8975	451.172	83.2435
465.82	87.169	465.82	86.8872	465.82	87.2897	465.82	86.469	465.82	87.2251	465.82	85.9338	465.82	86.9649	465.82	85.2973	465.82	86.5213	465.82	84.5727	465.82	85.9262	465.82	83.7725	465.82	85.218	465.82	82.9217	465.82	84.4328	465.82	82.0855	465.82	83.6036	465.82	81.3931	465.82	82.7689	465.82	81.0074	465.82	82.0044	465.82	81.019	465.82	81.4752	465.82	81.3671	465.82	81.3908	465.82	81.8991	465.82	81.7778	465.82	82.4711	465.82	82.3905	465.82	82.981	465.82	82.9552	465.82	83.3629	465.82	83.3497	465.82	83.5856	465.82	83.5726	465.82	83.6505
483.398	87.1564	483.398	87.0378	483.398	87.1233	483.398	86.7581	483.398	86.9542	483.398	86.3143	483.398	86.6677	483.398	85.7088	483.398	86.2794	483.398	84.944	483.398	85.7972	483.398	84.0172	483.398	85.2243	483.398	82.9323	483.398	84.5764	483.398	81.7478	483.398	83.895	483.398	80.6581	483.398	83.2394	483.398	79.9904	483.398	82.6719	483.398	79.9421	483.398	82.2744	483.398	80.3626	483.398	82.1542	483.398	80.9862	483.398	82.3477	483.398	81.6604	483.398	82.7283	483.398	82.3116	483.398	83.1032	483.398	82.8681	483.398	83.3608	483.398	83.2599	483.398	83.481	483.398	83.4575
499.512	86.6204	499.512	86.3494	499.512	86.8082	499.512	86.0304	499.512	86.8653	499.512	85.6716	499.512	86.752	499.512	85.2533	499.512	86.4487	499.512	84.7383	499.512	85.9552	499.512	84.0852	499.512	85.2844	499.512	83.2639	499.512	84.4665	499.512	82.2818	499.512	83.5559	499.512	81.2313	499.512	82.6203	499.512	80.3285	499.512	81.7312	499.512	79.8459	499.512	81.0229	499.512	79.9039	499.512	80.7769	499.512	80.3883	499.512	81.2227	499.512	81.1059	499.512	82.1382	499.512	81.902	499.512	83.0436	499.512	82.6602	499.512	83.636	499.512	83.2858	499.512	83.8421	499.512	83.7025
517.09	87.1123	517.09	86.8275	517.09	87.1968	517.09	86.3437	517.09	87.1021	517.09	85.7044	517.09	86.8469	517.09	84.997	517.09	86.4363	517.09	84.3192	517.09	85.8732	517.09	83.721	517.09	85.1814	517.09	83.1705	517.09	84.4118	517.09	82.5825	517.09	83.623	517.09	81.8949	517.09	82.8499	517.09	81.1643	517.09	82.1028	517.09	80.6318	517.09	81.4214	517.09	80.6035	517.09	80.9479	517.09	81.1337	517.09	80.9002	517.09	81.9683	517.09	81.3613	517.09	82.815	517.09	82.1451	517.09	83.483	517.09	82.9596	517.09	83.8638	517.09	83.5848	517.09	83.901
536.133	87.1368	536.133	86.9091	536.133	87.1498	536.133	86.4623	536.133	86.9696	536.133	85.8179	536.133	86.6149	536.133	85.0364	536.133	86.079	536.133	84.2327	536.133	85.3426	536.133	83.5452	536.133	84.4228	536.133	83.0359	536.133	83.4192	536.133	82.6136	536.133	82.5235	536.133	82.1082	536.133	81.962	536.133	81.4449	536.133	81.8028	536.133	80.7637	536.133	81.8201	536.133	80.3692	536.133	81.7308	536.133	80.4716	536.133	81.523	536.133	80.9844	536.133	81.4776	536.133	81.6479	536.133	81.7838	536.133	82.2358	536.133	82.2568	536.133	82.6199	536.133	82.6211	536.133	82.7508
555.176	86.9213	555.176	86.6857	555.176	87.0026	555.176	86.2508	555.176	86.9487	555.176	85.5897	555.176	86.7374	555.176	84.7449	555.176	86.329	555.176	83.8561	555.176	85.7054	555.176	83.1086	555.176	84.8835	555.176	82.5658	555.176	83.8872	555.176	82.0608	555.176	82.7099	555.176	81.3642	555.176	81.3674	555.176	80.4717	555.176	80.1516	555.176	79.7374	555.176	79.7523	555.176	79.6359	555.176	80.3123	555.176	80.2175	555.176	81.0896	555.176	81.0982	555.176	81.6539	555.176	81.9343	555.176	82.0985	555.176	82.5744	555.176	82.5551	555.176	82.9691	555.176	82.9363	555.176	83.0932
574.219	87.0144	574.219	86.6433	574.219	87.3211	574.219	86.2372	574.219	87.5066	574.219	85.7878	574.219	87.4955	574.219	85.2369	574.219	87.229	574.219	84.5101	574.219	86.7041	574.219	83.615	574.219	85.9677	574.219	82.7272	574.219	85.0537	574.219	82.062	574.219	83.929	574.219	81.5605	574.219	82.5316	574.219	80.936	574.219	80.9496	574.219	80.0898	574.219	79.6552	574.219	79.44	574.219	79.1985	574.219	79.6936	574.219	79.4761	574.219	80.8054	574.219	80.2482	574.219	82.0827	574.219	81.4452	574.219	83.0936	574.219	82.6859	574.219	83.7069	574.219	83.5449	574.219	83.8756
594.727	86.7975	594.727	86.5635	594.727	86.8383	594.727	86.1352	594.727	86.7079	594.727	85.5321	594.727	86.4285	594.727	84.7874	594.727	86.0015	594.727	83.9369	594.727	85.4208	594.727	83.0126	594.727	84.7008	594.727	82.078	594.727	83.8794	594.727	81.307	594.727	83.0206	594.727	80.9102	594.727	82.253	594.727	80.7969	594.727	81.7179	594.727	80.617	594.727	81.3303	594.727	80.252	594.727	80.7612	594.727	80.0448	594.727	79.9354	594.727	80.5039	594.727	79.626	594.727	81.5553	594.727	80.6058	594.727	82.6278	594.727	82.0551	594.727	83.3228	594.727	83.0853	594.727	83.496
615.234	86.6571	615.234	86.3165	615.234	86.8156	615.234	85.7815	615.234	86.7714	615.234	85.0549	615.234	86.4874	615.234	84.2143	615.234	85.9597	615.234	83.4011	615.234	85.2231	615.234	82.6855	615.234	84.3204	615.234	81.9437	615.234	83.3	615.234	81.0174	615.234	82.2224	615.234	80.0572	615.234	81.1454	615.234	79.5081	615.234	80.2096	615.234	79.4813	615.234	79.7727	615.234	79.6538	615.234	80.0298	615.234	79.881	615.234	80.5604	615.234	80.3232	615.234	80.8984	615.234	81.0063	615.234	80.9915	615.234	81.6208	615.234	81.0735	615.234	81.8711	615.234	81.3468	615.234	81.7125
637.207	86.4824	637.207	86.2082	637.207	86.605	637.207	85.7866	637.207	86.5606	637.207	85.187	637.207	86.3665	637.207	84.3966	637.207	86.0357	637.207	83.4868	637.207	85.5211	637.207	82.5946	637.207	84.7765	637.207	81.7958	637.207	83.8464	637.207	81.02	637.207	82.8206	637.207	80.1892	637.207	81.734	637.207	79.3937	637.207	80.6175	637.207	78.797	637.207	79.654	637.207	78.4645	637.207	79.1969	637.207	78.5114	637.207	79.4538	637.207	79.1584	637.207	80.2285	637.207	80.2661	637.207	81.1459	637.207	81.3538	637.207	81.9056	637.207	82.0992	637.207	82.3494	637.207	82.4237
659.18	86.3885	659.18	86.0798	659.18	86.5021	659.18	85.6003	659.18	86.426	659.18	84.9865	659.18	86.166	659.18	84.2614	659.18	85.7088	659.18	83.4312	659.18	85.06	659.18	82.5046	659.18	84.2682	659.18	81.534	659.18	83.3898	659.18	80.6107	659.18	82.4609	659.18	79.8055	659.18	81.5154	659.18	79.1721	659.18	80.6381	659.18	78.7408	659.18	79.9604	659.18	78.4935	659.18	79.4794	659.18	78.4702	659.18	79.0557	659.18	78.8991	659.18	78.9479	659.18	79.8874	659.18	79.7011	659.18	81.0606	659.18	80.9351	659.18	81.923	659.18	81.8742	659.18	82.2159
682.617	86.3966	682.617	86.0638	682.617	86.5195	682.617	85.5798	682.617	86.3952	682.617	84.95	682.617	86.0625	682.617	84.1479	682.617	85.5987	682.617	83.1982	682.617	85.0628	682.617	82.1887	682.617	84.4862	682.617	81.207	682.617	83.8951	682.617	80.3606	682.617	83.3657	682.617	79.7957	682.617	82.9265	682.617	79.4926	682.617	82.2991	682.617	79.1757	682.617	81.2321	682.617	78.7173	682.617	80.3987	682.617	78.4958	682.617	80.6679	682.617	78.9908	682.617	81.0566	682.617	80.0409	682.617	80.9831	682.617	81.1157	682.617	81.2019	682.617	81.8634	682.617	81.816	682.617	82.1208
707.52	85.9916	707.52	85.5294	707.52	86.2487	707.52	84.8315	707.52	86.3214	707.52	83.9794	707.52	86.1095	707.52	83.101	707.52	85.5527	707.52	82.2926	707.52	84.7892	707.52	81.6845	707.52	83.9759	707.52	81.4321	707.52	83.0273	707.52	81.3925	707.52	81.7694	707.52	81.0747	707.52	80.372	707.52	80.2466	707.52	79.455	707.52	79.2478	707.52	79.0602	707.52	78.5084	707.52	78.4425	707.52	78.0902	707.52	77.8594	707.52	78.1706	707.52	78.2758	707.52	79.0616	707.52	79.1636	707.52	80.3546	707.52	79.9823	707.52	81.2819	707.52	80.8481	707.52	81.4318
732.422	86.2912	732.422	85.9577	732.422	86.4183	732.422	85.5104	732.422	86.2512	732.422	85	732.422	85.7271	732.422	84.4115	732.422	84.8449	732.422	83.7133	732.422	83.693	732.422	82.8764	732.422	82.4732	732.422	81.8794	732.422	81.4857	732.422	80.8367	732.422	80.8597	732.422	80.0426	732.422	80.312	732.422	79.5431	732.422	79.5641	732.422	78.9908	732.422	79.0127	732.422	78.2577	732.422	79.0647	732.422	77.8871	732.422	78.7441	732.422	78.4141	732.422	77.4765	732.422	79.3792	732.422	77.5654	732.422	80.1796	732.422	79.4857	732.422	80.6564	732.422	80.6491	732.422	80.864
757.324	86.1292	757.324	85.5932	757.324	86.2895	757.324	84.7171	757.324	86.236	757.324	83.8354	757.324	86.0544	757.324	83.2475	757.324	85.6552	757.324	82.8183	757.324	84.9345	757.324	82.2849	757.324	83.9076	757.324	81.7527	757.324	82.695	757.324	81.3255	757.324	81.4737	757.324	80.6566	757.324	80.4219	757.324	79.77	757.324	79.5085	757.324	79.2806	757.324	78.4412	757.324	78.9575	757.324	77.7028	757.324	78.0802	757.324	78.4527	757.324	77.3946	757.324	79.5088	757.324	78.4605	757.324	79.6957	757.324	80.1279	757.324	79.6835	757.324	81.0661	757.324	80.3491	757.324	81.0644
785.156	85.5534	785.156	85.0323	785.156	86.063	785.156	84.8977	785.156	86.0634	785.156	84.9462	785.156	85.4339	785.156	84.7235	785.156	84.5001	785.156	83.9624	785.156	83.7477	785.156	82.7216	785.156	83.1984	785.156	81.3995	785.156	82.4239	785.156	80.5111	785.156	81.1023	785.156	80.1385	785.156	79.4503	785.156	79.6696	785.156	78.3143	785.156	78.774	785.156	77.8921	785.156	78.1657	785.156	77.2992	785.156	78.4421	785.156	75.8867	785.156	78.8181	785.156	75.402	785.156	78.9603	785.156	77.7085	785.156	79.4265	785.156	79.2694	785.156	79.8034	785.156	79.441	785.156	79.5697
811.523	86.1882	811.523	85.6854	811.523	86.4026	811.523	85.0138	811.523	86.3295	811.523	84.4702	811.523	85.9175	811.523	84.1053	811.523	85.1275	811.523	83.5533	811.523	84.0035	811.523	82.6073	811.523	82.6618	811.523	81.4187	811.523	81.324	811.523	80.0922	811.523	80.1679	811.523	79.0211	811.523	79.0749	811.523	78.7702	811.523	77.9529	811.523	78.4608	811.523	77.5023	811.523	77.1379	811.523	78.1445	811.523	75.959	811.523	78.4785	811.523	76.9442	811.523	77.4188	811.523	78.5026	811.523	76.0576	811.523	79.6004	811.523	77.6306	811.523	80.2891	811.523	79.7361	811.523	80.4992
840.82	85.9878	840.82	85.4034	840.82	86.4213	840.82	84.8291	840.82	86.4168	840.82	84.3255	840.82	85.8878	840.82	83.9317	840.82	85.0937	840.82	83.5094	840.82	84.3284	840.82	82.7463	840.82	83.6252	840.82	81.5602	840.82	82.9418	840.82	80.5099	840.82	82.16	840.82	79.8736	840.82	80.8739	840.82	78.9321	840.82	78.7651	840.82	77.6774	840.82	76.1009	840.82	77.2356	840.82	73.8525	840.82	77.0361	840.82	74.4444	840.82	76.2871	840.82	77.3405	840.82	76.6207	840.82	79.426	840.82	78.8891	840.82	80.1028	840.82	80.2931	840.82	80.0329	840.82	80.2635
870.117	86.7215	870.117	86.0785	870.117	86.9553	870.117	85.3079	870.117	86.5585	870.117	84.5349	870.117	85.5863	870.117	83.6536	870.117	84.3593	870.117	82.4006	870.117	83.1826	870.117	81.0354	870.117	82.0292	870.117	80.5866	870.117	80.8363	870.117	80.7994	870.117	79.8902	870.117	80.7516	870.117	79.304	870.117	80.464	870.117	78.9021	870.117	79.9687	870.117	78.6414	870.117	79.1688	870.117	78.2544	870.117	78.5245	870.117	77.1895	870.117	78.6342	870.117	75.5977	870.117	78.9619	870.117	75.7051	870.117	79.0174	870.117	78.4462	870.117	79.366	870.117	80.2585	870.117	80.2173
900.879	86.7579	900.879	86.4147	900.879	86.616	900.879	85.5881	900.879	86.1004	900.879	84.5512	900.879	85.3932	900.879	83.6451	900.879	84.7008	900.879	82.7144	900.879	83.9063	900.879	81.3443	900.879	82.6906	900.879	79.6734	900.879	81.2143	900.879	78.009	900.879	80.0388	900.879	76.2917	900.879	79.0179	900.879	75.6082	900.879	77.3707	900.879	76.2323	900.879	75.4961	900.879	76.4377	900.879	74.9748	900.879	75.8817	900.879	75.5011	900.879	75.7622	900.879	76.241	900.879	77.0345	900.879	76.2844	900.879	78.6584	900.879	76.5375	900.879	79.6529	900.879	78.2967	900.879	79.6267
933.105	86.5488	933.105	86.3309	933.105	86.4571	933.105	85.6291	933.105	86.0641	933.105	84.4485	933.105	85.3117	933.105	83.224	933.105	84.2599	933.105	82.2632	933.105	83.0185	933.105	81.1866	933.105	81.5853	933.105	79.9028	933.105	79.8717	933.105	78.7075	933.105	78.5937	933.105	77.7795	933.105	78.1347	933.105	77.7601	933.105	77.4229	933.105	78.3182	933.105	76.958	933.105	78.2566	933.105	77.3475	933.105	77.3088	933.105	76.6184	933.105	76.4097	933.105	74.4006	933.105	77.1358	933.105	75.2023	933.105	78.2774	933.105	77.9928	933.105	78.9681	933.105	79.5503	933.105	79.6176
965.332	87.2361	965.332	86.9313	965.332	87.1353	965.332	86.0428	965.332	86.6625	965.332	84.6956	965.332	85.7568	965.332	83.3811	965.332	84.5545	965.332	82.3814	965.332	83.1908	965.332	80.983	965.332	81.637	965.332	79.0509	965.332	79.7054	965.332	78.1958	965.332	77.4183	965.332	78.5104	965.332	75.1995	965.332	78.1582	965.332	74.3263	965.332	77.3704	965.332	73.8233	965.332	77.265	965.332	73.2589	965.332	77.2387	965.332	74.3952	965.332	76.9635	965.332	75.3846	965.332	77.6275	965.332	75.8932	965.332	79.3101	965.332	76.4457	965.332	80.4903	965.332	78.2096	965.332	80.1234
1,000.49	86.6033	1,000.49	86.3537	1,000.49	86.7795	1,000.49	86.1992	1,000.49	86.4618	1,000.49	85.716	1,000.49	85.5933	1,000.49	84.3973	1,000.49	84.5179	1,000.49	82.2455	1,000.49	83.3994	1,000.49	79.9662	1,000.49	81.8128	1,000.49	79.1354	1,000.49	79.7322	1,000.49	79.425	1,000.49	78.4285	1,000.49	78.4976	1,000.49	78.0488	1,000.49	76.8519	1,000.49	75.8643	1,000.49	77.0457	1,000.49	72.9135	1,000.49	77.3449	1,000.49	75.007	1,000.49	75.9152	1,000.49	74.857	1,000.49	75.1353	1,000.49	70.6886	1,000.49	76.5958	1,000.49	70.8023	1,000.49	78.0054	1,000.49	75.7444	1,000.49	79.2533	1,000.49	78.8395	1,000.49	79.8459
1,035.64	86.8831	1,035.64	86.7607	1,035.64	86.8921	1,035.64	86.9017	1,035.64	86.1759	1,035.64	86.5488	1,035.64	85.1828	1,035.64	85.0325	1,035.64	84.3605	1,035.64	82.5103	1,035.64	83.4196	1,035.64	79.5418	1,035.64	82.4368	1,035.64	76.3998	1,035.64	81.0398	1,035.64	75.1115	1,035.64	78.3747	1,035.64	74.9015	1,035.64	75.1188	1,035.64	74.6162	1,035.64	74.6432	1,035.64	77.1019	1,035.64	74.9044	1,035.64	78.9345	1,035.64	73.3979	1,035.64	77.7774	1,035.64	74.0809	1,035.64	75.6163	1,035.64	74.4946	1,035.64	76.3979	1,035.64	73.8551	1,035.64	78.2909	1,035.64	73.97	1,035.64	79.3109	1,035.64	77.2584	1,035.64	79.2702
1,072.27	86.6422	1,072.27	86.6339	1,072.27	86.6115	1,072.27	86.7574	1,072.27	86.0619	1,072.27	86.5049	1,072.27	85.046	1,072.27	85.3738	1,072.27	84.4495	1,072.27	83.4921	1,072.27	84.0033	1,072.27	81.0815	1,072.27	82.6354	1,072.27	78.068	1,072.27	80.5611	1,072.27	75.6646	1,072.27	78.8426	1,072.27	76.0934	1,072.27	78.5908	1,072.27	77.612	1,072.27	77.2893	1,072.27	77.5647	1,072.27	73.367	1,072.27	76.8099	1,072.27	75.1255	1,072.27	76.5265	1,072.27	76.9095	1,072.27	75.4038	1,072.27	73.524	1,072.27	76.2795	1,072.27	68.8251	1,072.27	78.3089	1,072.27	73.8695	1,072.27	78.4863	1,072.27	76.7006	1,072.27	77.9152
1,108.89	86.4427	1,108.89	86.6385	1,108.89	86.2738	1,108.89	86.6408	1,108.89	85.9813	1,108.89	86.2332	1,108.89	85.3555	1,108.89	85.4664	1,108.89	84.2578	1,108.89	84.0857	1,108.89	83.0073	1,108.89	81.5936	1,108.89	82.185	1,108.89	78.2308	1,108.89	81.1696	1,108.89	76.185	1,108.89	78.7293	1,108.89	77.5217	1,108.89	75.6844	1,108.89	77.8035	1,108.89	74.3759	1,108.89	76.3431	1,108.89	74.0202	1,108.89	77.3877	1,108.89	73.0096	1,108.89	77.7567	1,108.89	73.9019	1,108.89	75.7088	1,108.89	74.4987	1,108.89	74.9623	1,108.89	73.4193	1,108.89	76.6322	1,108.89	73.2059	1,108.89	77.6028	1,108.89	75.1843	1,108.89	77.3007
1,148.44	86.6031	1,148.44	85.6712	1,148.44	86.327	1,148.44	85.4319	1,148.44	85.0951	1,148.44	85.7798	1,148.44	84.6501	1,148.44	85.0424	1,148.44	84.2909	1,148.44	83.2177	1,148.44	83.2457	1,148.44	81.4646	1,148.44	82.3204	1,148.44	80.2281	1,148.44	81.0955	1,148.44	78.7809	1,148.44	78.9635	1,148.44	76.6691	1,148.44	76.6802	1,148.44	76.345	1,148.44	73.7896	1,148.44	75.5337	1,148.44	70.9009	1,148.44	73.9574	1,148.44	73.6077	1,148.44	75.8265	1,148.44	75.7838	1,148.44	76.2869	1,148.44	75.0228	1,148.44	73.7605	1,148.44	75.5193	1,148.44	75.2322	1,148.44	76.469	1,148.44	76.7445	1,148.44	76.6154	1,148.44	77.4613
1,189.45	86.7258	1,189.45	86.0432	1,189.45	86.3924	1,189.45	85.0978	1,189.45	85.6764	1,189.45	84.6914	1,189.45	85.0681	1,189.45	84.063	1,189.45	83.3503	1,189.45	82.7135	1,189.45	80.2962	1,189.45	81.5328	1,189.45	78.8339	1,189.45	80.0157	1,189.45	79.2597	1,189.45	77.9683	1,189.45	78.7097	1,189.45	76.6134	1,189.45	76.0104	1,189.45	75.2317	1,189.45	73.0382	1,189.45	74.6834	1,189.45	71.1053	1,189.45	74.9876	1,189.45	70.6477	1,189.45	75.4756	1,189.45	73.1734	1,189.45	74.2985	1,189.45	73.5869	1,189.45	71.6477	1,189.45	74.7126	1,189.45	72.1797	1,189.45	73.0386	1,189.45	74.8476	1,189.45	76.482	1,189.45	77.6747
1,230.47	86.6475	1,230.47	86.1904	1,230.47	86.1382	1,230.47	85.1759	1,230.47	85.8158	1,230.47	85.2269	1,230.47	85.0245	1,230.47	85.2323	1,230.47	82.592	1,230.47	83.537	1,230.47	80.3613	1,230.47	81.272	1,230.47	80.4427	1,230.47	79.6759	1,230.47	80.2001	1,230.47	77.1489	1,230.47	78.4438	1,230.47	74.2292	1,230.47	76.4479	1,230.47	74.8439	1,230.47	74.1575	1,230.47	76.2001	1,230.47	71.326	1,230.47	77.1983	1,230.47	71.2896	1,230.47	77.8631	1,230.47	72.9449	1,230.47	76.3872	1,230.47	74.3396	1,230.47	72.8649	1,230.47	74.6638	1,230.47	72.4234	1,230.47	75.4599	1,230.47	76.1548	1,230.47	75.4854	1,230.47	77.6526
1,274.41	86.5226	1,274.41	86.465	1,274.41	86.3798	1,274.41	86.023	1,274.41	86.0312	1,274.41	85.2694	1,274.41	84.8284	1,274.41	84.3556	1,274.41	83.2154	1,274.41	82.909	1,274.41	82.1094	1,274.41	81.0419	1,274.41	80.4873	1,274.41	78.8467	1,274.41	79.0963	1,274.41	76.4908	1,274.41	77.8281	1,274.41	73.6348	1,274.41	75.8255	1,274.41	71.8332	1,274.41	75.628	1,274.41	73.2218	1,274.41	74.5802	1,274.41	75.1799	1,274.41	71.6653	1,274.41	76.3797	1,274.41	73.5617	1,274.41	74.7386	1,274.41	70.3085	1,274.41	70.8266	1,274.41	72.5264	1,274.41	71.9897	1,274.41	74.1874	1,274.41	76.4737	1,274.41	74.0096	1,274.41	77.3038
1,319.82	86.8345	1,319.82	87.2891	1,319.82	86.5806	1,319.82	87.0101	1,319.82	85.9242	1,319.82	85.2755	1,319.82	84.476	1,319.82	83.1036	1,319.82	83.2881	1,319.82	81.8158	1,319.82	82.6187	1,319.82	81.1035	1,319.82	80.6026	1,319.82	79.454	1,319.82	77.3646	1,319.82	76.4676	1,319.82	75.0066	1,319.82	73.8648	1,319.82	74.0045	1,319.82	72.8838	1,319.82	73.7116	1,319.82	73.778	1,319.82	71.5486	1,319.82	76.3808	1,319.82	70.4543	1,319.82	77.3887	1,319.82	69.8946	1,319.82	74.9917	1,319.82	73.1338	1,319.82	71.5088	1,319.82	75.2834	1,319.82	73.1842	1,319.82	74.3255	1,319.82	76.4847	1,319.82	75.5788	1,319.82	76.9731
1,366.7	86.998	1,366.7	87.2807	1,366.7	86.4798	1,366.7	86.8008	1,366.7	85.6709	1,366.7	84.9545	1,366.7	84.5537	1,366.7	83.0939	1,366.7	82.7401	1,366.7	82.5521	1,366.7	81.1025	1,366.7	80.737	1,366.7	80.2148	1,366.7	77.3629	1,366.7	79.0042	1,366.7	76.5095	1,366.7	76.3447	1,366.7	76.321	1,366.7	72.8877	1,366.7	73.5641	1,366.7	71.2119	1,366.7	70.0292	1,366.7	69.3798	1,366.7	73.8606	1,366.7	69.6762	1,366.7	77.7117	1,366.7	72.1711	1,366.7	77.2479	1,366.7	73.8154	1,366.7	73.5709	1,366.7	71.64	1,366.7	71.7483	1,366.7	74.2426	1,366.7	75.7904	1,366.7	76.1214	1,366.7	77.5216
1,413.57	86.8139	1,413.57	87.0708	1,413.57	86.3218	1,413.57	86.6258	1,413.57	85.7284	1,413.57	85.2582	1,413.57	84.5106	1,413.57	83.9481	1,413.57	82.7372	1,413.57	82.955	1,413.57	81.2904	1,413.57	80.6374	1,413.57	80.1031	1,413.57	76.4136	1,413.57	78.9767	1,413.57	74.1575	1,413.57	78.7055	1,413.57	75.2203	1,413.57	77.3498	1,413.57	72.548	1,413.57	74.3458	1,413.57	69.2164	1,413.57	70.7842	1,413.57	68.895	1,413.57	73.6702	1,413.57	72.5127	1,413.57	74.1867	1,413.57	76.3982	1,413.57	72.1904	1,413.57	74.4452	1,413.57	73.2733	1,413.57	72.2322	1,413.57	73.6631	1,413.57	75.7669	1,413.57	72.8292	1,413.57	77.2425
1,463.38	86.4787	1,463.38	86.4024	1,463.38	85.9781	1,463.38	85.9471	1,463.38	85.3611	1,463.38	85.3813	1,463.38	84.1624	1,463.38	84.368	1,463.38	82.9856	1,463.38	82.4962	1,463.38	81.4122	1,463.38	79.5541	1,463.38	79.2119	1,463.38	75.57	1,463.38	76.931	1,463.38	72.5121	1,463.38	76.1548	1,463.38	70.2755	1,463.38	75.4213	1,463.38	68.755	1,463.38	72.1297	1,463.38	68.1237	1,463.38	72.2124	1,463.38	67.7139	1,463.38	70.9407	1,463.38	71.8384	1,463.38	70.646	1,463.38	75.2791	1,463.38	70.7752	1,463.38	73.961	1,463.38	71.5535	1,463.38	70.4786	1,463.38	70.7104	1,463.38	72.6564	1,463.38	72.952	1,463.38	73.6929
1,516.11	85.8818	1,516.11	85.9949	1,516.11	85.3108	1,516.11	85.83	1,516.11	84.7012	1,516.11	85.1967	1,516.11	83.7433	1,516.11	83.5561	1,516.11	82.4964	1,516.11	80.9613	1,516.11	80.6684	1,516.11	77.2597	1,516.11	78.1367	1,516.11	75.0041	1,516.11	76.7385	1,516.11	72.5483	1,516.11	76.7437	1,516.11	71.0913	1,516.11	75.6723	1,516.11	74.0497	1,516.11	73.8916	1,516.11	71.557	1,516.11	71.231	1,516.11	72.1533	1,516.11	66.6688	1,516.11	72.5604	1,516.11	67.4246	1,516.11	73.2105	1,516.11	72.2912	1,516.11	72.1796	1,516.11	70.3966	1,516.11	64.6443	1,516.11	69.2624	1,516.11	71.5446	1,516.11	72.4699	1,516.11	73.6689
1,568.85	85.4258	1,568.85	85.0727	1,568.85	85.1784	1,568.85	84.9532	1,568.85	84.5705	1,568.85	84.803	1,568.85	83.0877	1,568.85	83.0604	1,568.85	81.6551	1,568.85	80.1997	1,568.85	79.4736	1,568.85	77.9216	1,568.85	77.1845	1,568.85	76.1783	1,568.85	76.0629	1,568.85	74.0211	1,568.85	75.6532	1,568.85	69.9752	1,568.85	75.1234	1,568.85	73.602	1,568.85	72.3363	1,568.85	75.1015	1,568.85	71.1171	1,568.85	72.3872	1,568.85	65.2893	1,568.85	67.461	1,568.85	71.1648	1,568.85	69.2626	1,568.85	73.3958	1,568.85	72.5456	1,568.85	69.8854	1,568.85	69.7075	1,568.85	70.6009	1,568.85	71.3747	1,568.85	71.4571	1,568.85	73.0437
1,624.51	86.2925	1,624.51	85.6824	1,624.51	85.5498	1,624.51	84.1892	1,624.51	84.3171	1,624.51	84.1239	1,624.51	82.3208	1,624.51	83.4148	1,624.51	80.953	1,624.51	80.2813	1,624.51	78.3305	1,624.51	76.3461	1,624.51	74.9242	1,624.51	75.539	1,624.51	74.4402	1,624.51	74.3803	1,624.51	75.0009	1,624.51	62.9623	1,624.51	72.9368	1,624.51	69.4422	1,624.51	72.0386	1,624.51	71.1937	1,624.51	72.5945	1,624.51	69.9085	1,624.51	66.0777	1,624.51	71.2405	1,624.51	68.0756	1,624.51	70.6359	1,624.51	67.5264	1,624.51	72.8612	1,624.51	66.9268	1,624.51	67.9111	1,624.51	71.791	1,624.51	67.8697	1,624.51	68.9075	1,624.51	72.138
1,681.64	86.7444	1,681.64	86.2781	1,681.64	85.9224	1,681.64	85.1728	1,681.64	83.6993	1,681.64	84.3238	1,681.64	81.5663	1,681.64	83.0501	1,681.64	80.7459	1,681.64	79.7506	1,681.64	78.2086	1,681.64	75.0411	1,681.64	77.2685	1,681.64	74.792	1,681.64	74.4243	1,681.64	74.0877	1,681.64	74.7332	1,681.64	69.9158	1,681.64	76.0289	1,681.64	66.0093	1,681.64	73.0558	1,681.64	70.2289	1,681.64	70.1248	1,681.64	72.4702	1,681.64	65.733	1,681.64	71.6852	1,681.64	68.1295	1,681.64	68.3088	1,681.64	63.9465	1,681.64	69.7894	1,681.64	68.0851	1,681.64	67.9479	1,681.64	73.4973	1,681.64	69.9895	1,681.64	72.5743	1,681.64	73.4745
1,741.7	86.8567	1,741.7	86.6935	1,741.7	86.1581	1,741.7	85.7888	1,741.7	84.2008	1,741.7	83.5205	1,741.7	81.8058	1,741.7	81.1438	1,741.7	79.2501	1,741.7	79.3569	1,741.7	75.5615	1,741.7	75.912	1,741.7	75.4721	1,741.7	72.1513	1,741.7	72.6302	1,741.7	72.5135	1,741.7	71.8642	1,741.7	67.3157	1,741.7	67.3535	1,741.7	60.2276	1,741.7	65.6238	1,741.7	61.9917	1,741.7	65.9173	1,741.7	60.1602	1,741.7	69.3845	1,741.7	67.8222	1,741.7	72.6257	1,741.7	65.0441	1,741.7	61.3674	1,741.7	67.2648	1,741.7	70.5032	1,741.7	70.2667	1,741.7	71.3253	1,741.7	69.0676	1,741.7	67.8509	1,741.7	68.7256
1,803.22	86.4744	1,803.22	86.7182	1,803.22	85.9448	1,803.22	85.9029	1,803.22	84.3977	1,803.22	82.5128	1,803.22	81.2943	1,803.22	79.0883	1,803.22	76.6449	1,803.22	77.8959	1,803.22	74.8279	1,803.22	73.0402	1,803.22	73.1743	1,803.22	71.939	1,803.22	73.6985	1,803.22	71.6816	1,803.22	69.615	1,803.22	60.8013	1,803.22	55.9052	1,803.22	64.0558	1,803.22	55.2599	1,803.22	64.5849	1,803.22	65.0984	1,803.22	60.5316	1,803.22	68.7359	1,803.22	70.1071	1,803.22	68.9881	1,803.22	64.3879	1,803.22	68.9544	1,803.22	65.4845	1,803.22	67.9379	1,803.22	69.7479	1,803.22	68.5863	1,803.22	69.8127	1,803.22	71.624	1,803.22	71.9861
1,866.21	86.0027	1,866.21	86.5499	1,866.21	85.4035	1,866.21	85.796	1,866.21	83.8448	1,866.21	82.1458	1,866.21	80.3285	1,866.21	77.3663	1,866.21	76.0086	1,866.21	75.3669	1,866.21	74.2738	1,866.21	72.363	1,866.21	73.8563	1,866.21	68.7097	1,866.21	73.8986	1,866.21	65.5398	1,866.21	71.1791	1,866.21	60.6563	1,866.21	68.8158	1,866.21	53.9497	1,866.21	62.7046	1,866.21	61.3466	1,866.21	63.8378	1,866.21	37.7442	1,866.21	66.5564	1,866.21	67.4887	1,866.21	64.492	1,866.21	65.5011	1,866.21	65.8831	1,866.21	52.6526	1,866.21	65.7814	1,866.21	65.4153	1,866.21	69.4532	1,866.21	69.389	1,866.21	71.451	1,866.21	70.0144
1,932.13	85.5917	1,932.13	85.9608	1,932.13	85.0658	1,932.13	85.0986	1,932.13	83.4881	1,932.13	81.9467	1,932.13	80.0759	1,932.13	77.9818	1,932.13	75.0141	1,932.13	72.994	1,932.13	72.2453	1,932.13	69.15	1,932.13	74.9366	1,932.13	68.2114	1,932.13	74.7825	1,932.13	62.3965	1,932.13	72.8834	1,932.13	61.0794	1,932.13	70.4454	1,932.13	65.6837	1,932.13	66.6112	1,932.13	52.9903	1,932.13	65.4061	1,932.13	54.962	1,932.13	65.9328	1,932.13	64.7005	1,932.13	61.3621	1,932.13	65.5291	1,932.13	59.183	1,932.13	60.1881	1,932.13	63.7432	1,932.13	59.9875	1,932.13	68.8802	1,932.13	68.3366	1,932.13	72.1356	1,932.13	71.189
1,999.51	85.6644	1,999.51	84.9452	1,999.51	84.9119	1,999.51	83.0837	1,999.51	82.808	1,999.51	81.3544	1,999.51	79.3032	1,999.51	78.2384	1,999.51	71.054	1,999.51	68.992	1,999.51	68.1394	1,999.51	67.976	1,999.51	72.9018	1,999.51	69.9396	1,999.51	74.0576	1,999.51	67.2397	1,999.51	73.83	1,999.51	66.6869	1,999.51	70.8948	1,999.51	69.7636	1,999.51	64.8837	1,999.51	65.4365	1,999.51	62.8745	1,999.51	38.113	1,999.51	65.0432	1,999.51	65.3315	1,999.51	64.081	1,999.51	63.5105	1,999.51	58.4458	1,999.51	59.3099	1,999.51	51.528	1,999.51	52.6484	1,999.51	67.2759	1,999.51	65.5547	1,999.51	72.0435	1,999.51	70.5259
2,069.82	86.25	2,069.82	84.7581	2,069.82	84.9418	2,069.82	81.0701	2,069.82	82.209	2,069.82	79.1553	2,069.82	77.1834	2,069.82	75.455	2,069.82	65.4144	2,069.82	55.0381	2,069.82	67.0298	2,069.82	67.4131	2,069.82	73.5097	2,069.82	70.1484	2,069.82	75.3377	2,069.82	66.5698	2,069.82	75.3391	2,069.82	63.6903	2,069.82	74.8237	2,069.82	65.7658	2,069.82	67.5891	2,069.82	67.9438	2,069.82	63.0642	2,069.82	64.0639	2,069.82	63.5071	2,069.82	64.7706	2,069.82	64.6588	2,069.82	65.7772	2,069.82	58.6817	2,069.82	64.1244	2,069.82	33.1208	2,069.82	63.7556	2,069.82	65.205	2,069.82	56.9483	2,069.82	69.9783	2,069.82	67.5091
2,143.07	86.443	2,143.07	85.4388	2,143.07	85.4086	2,143.07	82.3941	2,143.07	82.1712	2,143.07	77.5332	2,143.07	76.6122	2,143.07	71.8343	2,143.07	66.7982	2,143.07	62.9415	2,143.07	71.1813	2,143.07	68.2276	2,143.07	72.5335	2,143.07	68.3503	2,143.07	75.7036	2,143.07	71.4389	2,143.07	76.3231	2,143.07	69.9214	2,143.07	73.1138	2,143.07	69.9866	2,143.07	66.9682	2,143.07	69.1227	2,143.07	59.4531	2,143.07	69.142	2,143.07	61.6621	2,143.07	55.9275	2,143.07	65.7641	2,143.07	67.6341	2,143.07	61.7396	2,143.07	62.6223	2,143.07	54.0346	2,143.07	65.9359	2,143.07	67.87	2,143.07	63.7602	2,143.07	69.7226	2,143.07	66.3431
2,219.24	85.5362	2,219.24	85.0072	2,219.24	84.8238	2,219.24	82.9838	2,219.24	81.4815	2,219.24	76.1768	2,219.24	76.7327	2,219.24	61.4546	2,219.24	70.7652	2,219.24	66.8897	2,219.24	73.8719	2,219.24	68.8328	2,219.24	75.681	2,219.24	72.891	2,219.24	76.7731	2,219.24	71.4317	2,219.24	75.1757	2,219.24	65.8398	2,219.24	73.2728	2,219.24	68.261	2,219.24	64.8647	2,219.24	68.7124	2,219.24	61.0596	2,219.24	70.2258	2,219.24	60.9071	2,219.24	62.5221	2,219.24	62.7571	2,219.24	69.5719	2,219.24	62.5204	2,219.24	62.2239	2,219.24	62.7084	2,219.24	65.9587	2,219.24	67.9226	2,219.24	67.2124	2,219.24	70.6825	2,219.24	69.9995
2,296.88	84.7408	2,296.88	84.0596	2,296.88	84.1276	2,296.88	82.5707	2,296.88	81.4801	2,296.88	76.4187	2,296.88	78.2783	2,296.88	72.0845	2,296.88	74.7967	2,296.88	68.0202	2,296.88	75.1253	2,296.88	72.4867	2,296.88	77.5012	2,296.88	71.1395	2,296.88	76.2041	2,296.88	73.5657	2,296.88	75.0448	2,296.88	74.6345	2,296.88	72.201	2,296.88	69.5403	2,296.88	66.0779	2,296.88	69.3792	2,296.88	61.9341	2,296.88	72.7618	2,296.88	61.1686	2,296.88	69.8958	2,296.88	60.2301	2,296.88	67.7343	2,296.88	65.7128	2,296.88	65.0664	2,296.88	66.3999	2,296.88	61.5851	2,296.88	67.8535	2,296.88	65.4069	2,296.88	68.8652	2,296.88	69.2077
2,378.91	85.1654	2,378.91	84.0754	2,378.91	84.1082	2,378.91	80.0136	2,378.91	79.231	2,378.91	77.2674	2,378.91	78.1903	2,378.91	73.3727	2,378.91	78.2154	2,378.91	72.3348	2,378.91	76.9344	2,378.91	73.6992	2,378.91	78.8827	2,378.91	77.2053	2,378.91	77.986	2,378.91	74.2558	2,378.91	76.4053	2,378.91	71.2403	2,378.91	73.8519	2,378.91	71.8109	2,378.91	68.205	2,378.91	70.7464	2,378.91	65.0482	2,378.91	69.8475	2,378.91	64.9244	2,378.91	73.2379	2,378.91	67.7999	2,378.91	67.1254	2,378.91	67.8403	2,378.91	68.1391	2,378.91	66.0374	2,378.91	55.5184	2,378.91	66.0339	2,378.91	64.3335	2,378.91	69.8686	2,378.91	68.9812
2,462.4	86.3204	2,462.4	84.8358	2,462.4	85.2806	2,462.4	80.9957	2,462.4	80.6408	2,462.4	78.1905	2,462.4	76.1479	2,462.4	75.212	2,462.4	79.6591	2,462.4	75.9247	2,462.4	78.3829	2,462.4	77.2775	2,462.4	79.3507	2,462.4	75.6366	2,462.4	78.1685	2,462.4	75.1451	2,462.4	74.764	2,462.4	74.7103	2,462.4	74.0512	2,462.4	70.169	2,462.4	65.5714	2,462.4	71.4703	2,462.4	68.6675	2,462.4	69.4023	2,462.4	69.2084	2,462.4	73.2618	2,462.4	72.2654	2,462.4	68.9567	2,462.4	67.9642	2,462.4	69.6643	2,462.4	66.0122	2,462.4	54.9316	2,462.4	66.6888	2,462.4	67.6766	2,462.4	71.7287	2,462.4	71.3671
2,548.83	86.6599	2,548.83	85.4883	2,548.83	85.8608	2,548.83	83.4325	2,548.83	82.4208	2,548.83	78.2745	2,548.83	76.6227	2,548.83	78.0368	2,548.83	80.2658	2,548.83	79.757	2,548.83	79.3086	2,548.83	78.2651	2,548.83	78.0363	2,548.83	75.415	2,548.83	76.2408	2,548.83	76.6029	2,548.83	78.5003	2,548.83	68.9641	2,548.83	77.2911	2,548.83	72.9843	2,548.83	59.7208	2,548.83	71.7468	2,548.83	66.8707	2,548.83	70.908	2,548.83	72.9746	2,548.83	73.0932	2,548.83	68.5256	2,548.83	71.6435	2,548.83	67.3126	2,548.83	68.8632	2,548.83	69.3649	2,548.83	66.3653	2,548.83	67.5688	2,548.83	65.428	2,548.83	74.2695	2,548.83	72.5147
2,639.65	85.4054	2,639.65	84.737	2,639.65	85.2373	2,639.65	83.2137	2,639.65	82.8753	2,639.65	79.5144	2,639.65	78.7232	2,639.65	80.7464	2,639.65	80.3233	2,639.65	81.0422	2,639.65	81.6854	2,639.65	79.7775	2,639.65	79.4963	2,639.65	77.1165	2,639.65	78.1441	2,639.65	77.9325	2,639.65	78.0146	2,639.65	77.0442	2,639.65	75.6189	2,639.65	73.7124	2,639.65	65.574	2,639.65	70.988	2,639.65	63.3266	2,639.65	74.4148	2,639.65	72.2893	2,639.65	71.4432	2,639.65	67.6813	2,639.65	72.8144	2,639.65	68.3559	2,639.65	67.5862	2,639.65	69.3888	2,639.65	64.5686	2,639.65	69.9357	2,639.65	69.9255	2,639.65	74.5588	2,639.65	70.8368
2,731.93	84.5058	2,731.93	83.7508	2,731.93	84.2497	2,731.93	81.2386	2,731.93	81.133	2,731.93	81.9119	2,731.93	78.8451	2,731.93	81.0916	2,731.93	80.1684	2,731.93	81.5604	2,731.93	82.6045	2,731.93	79.3812	2,731.93	80.8428	2,731.93	79.1863	2,731.93	79.1927	2,731.93	76.1969	2,731.93	78.4648	2,731.93	75.3431	2,731.93	70.5744	2,731.93	72.3589	2,731.93	70.8617	2,731.93	71.4057	2,731.93	63.9358	2,731.93	71.074	2,731.93	68.5814	2,731.93	73.3543	2,731.93	68.9995	2,731.93	71.9855	2,731.93	71.3025	2,731.93	68.8328	2,731.93	69.9354	2,731.93	63.5469	2,731.93	70.0843	2,731.93	65.9711	2,731.93	72.7808	2,731.93	70.935
2,828.61	85.1867	2,828.61	84.0387	2,828.61	83.9443	2,828.61	81.297	2,828.61	81.0494	2,828.61	82.2526	2,828.61	78.8737	2,828.61	81.2889	2,828.61	81.2559	2,828.61	81.3751	2,828.61	82.5693	2,828.61	80.1913	2,828.61	81.4779	2,828.61	78.5116	2,828.61	80.951	2,828.61	74.8467	2,828.61	77.3237	2,828.61	71.7056	2,828.61	66.2628	2,828.61	72.9785	2,828.61	74.0119	2,828.61	69.229	2,828.61	70.6916	2,828.61	70.7497	2,828.61	69.3777	2,828.61	72.6863	2,828.61	69.0423	2,828.61	71.95	2,828.61	72.0125	2,828.61	69.3128	2,828.61	70.3558	2,828.61	62.3972	2,828.61	70.2906	2,828.61	67.6155	2,828.61	72.7079	2,828.61	68.369
2,928.22	85.9787	2,928.22	84.6642	2,928.22	84.5716	2,928.22	83.7541	2,928.22	82.3321	2,928.22	82.4599	2,928.22	80.3755	2,928.22	82.6498	2,928.22	81.8813	2,928.22	80.9986	2,928.22	82.0965	2,928.22	80.4824	2,928.22	80.816	2,928.22	77.8688	2,928.22	80.4611	2,928.22	76.4574	2,928.22	75.2899	2,928.22	75.6	2,928.22	76.3265	2,928.22	73.0756	2,928.22	73.6801	2,928.22	73.6056	2,928.22	72.0945	2,928.22	69.2012	2,928.22	67.5623	2,928.22	72.2806	2,928.22	69.7324	2,928.22	71.5452	2,928.22	68.6379	2,928.22	68.7181	2,928.22	69.2404	2,928.22	66.4091	2,928.22	71.2719	2,928.22	63.6536	2,928.22	72.9772	2,928.22	71.9829
3,030.76	86.3903	3,030.76	84.6017	3,030.76	85.257	3,030.76	84.3787	3,030.76	82.5721	3,030.76	83.4415	3,030.76	80.0482	3,030.76	83.0121	3,030.76	82.1345	3,030.76	82.0483	3,030.76	82.4579	3,030.76	80.1758	3,030.76	79.9171	3,030.76	79.1742	3,030.76	79.6526	3,030.76	79.6813	3,030.76	76.5678	3,030.76	75.6047	3,030.76	78.5482	3,030.76	74.2073	3,030.76	73.1526	3,030.76	71.4213	3,030.76	66.4595	3,030.76	71.6199	3,030.76	66.2224	3,030.76	70.3784	3,030.76	69.897	3,030.76	71.8533	3,030.76	64.2442	3,030.76	70.0913	3,030.76	70.3396	3,030.76	65.3807	3,030.76	68.6901	3,030.76	67.9525	3,030.76	74.6762	3,030.76	68.7729
3,137.7	85.8676	3,137.7	83.143	3,137.7	85.8699	3,137.7	84.1673	3,137.7	83.2231	3,137.7	83.905	3,137.7	80.4372	3,137.7	81.6315	3,137.7	81.4364	3,137.7	83.0494	3,137.7	83.686	3,137.7	81.9733	3,137.7	81.5361	3,137.7	82.0129	3,137.7	80.854	3,137.7	78.7085	3,137.7	78.6523	3,137.7	72.8294	3,137.7	78.2122	3,137.7	75.1307	3,137.7	67.7065	3,137.7	71.542	3,137.7	67.0326	3,137.7	71.9747	3,137.7	60.9905	3,137.7	71.34	3,137.7	71.3545	3,137.7	72.9518	3,137.7	62.3616	3,137.7	69.4433	3,137.7	66.4075	3,137.7	67.7771	3,137.7	70.1835	3,137.7	68.7372	3,137.7	75.3567	3,137.7	67.5528
3,249.02	84.1802	3,249.02	83.1143	3,249.02	85.95	3,249.02	83.9939	3,249.02	82.6706	3,249.02	83.0256	3,249.02	79.805	3,249.02	82.0024	3,249.02	81.1534	3,249.02	83.3862	3,249.02	83.3699	3,249.02	82.5089	3,249.02	82.8631	3,249.02	80.7659	3,249.02	82.8833	3,249.02	73.8954	3,249.02	82.4277	3,249.02	75.899	3,249.02	78.0699	3,249.02	72.8655	3,249.02	69.7139	3,249.02	74.2572	3,249.02	68.1121	3,249.02	67.54	3,249.02	57.1079	3,249.02	69.3417	3,249.02	73.3799	3,249.02	71.4584	3,249.02	67.2376	3,249.02	70.4292	3,249.02	60.3206	3,249.02	62.0159	3,249.02	71.3206	3,249.02	69.2459	3,249.02	75.6932	3,249.02	71.0304
3,363.28	82.7993	3,363.28	83.9176	3,363.28	85.7036	3,363.28	83.3682	3,363.28	83.8337	3,363.28	81.1625	3,363.28	79.2374	3,363.28	82.3683	3,363.28	81.4103	3,363.28	81.4633	3,363.28	82.7266	3,363.28	80.7494	3,363.28	84.0587	3,363.28	77.3398	3,363.28	82.9478	3,363.28	78.0058	3,363.28	83.0333	3,363.28	74.3829	3,363.28	78.3101	3,363.28	71.1827	3,363.28	69.3366	3,363.28	72.5777	3,363.28	47.7753	3,363.28	72.1608	3,363.28	64.6196	3,363.28	70.3455	3,363.28	72.6821	3,363.28	65.9056	3,363.28	67.5444	3,363.28	65.8635	3,363.28	61.7798	3,363.28	65.06	3,363.28	72.0924	3,363.28	58.3628	3,363.28	72.2142	3,363.28	68.519
3,481.93	83.2014	3,481.93	85.9119	3,481.93	84.9275	3,481.93	84.5902	3,481.93	85.1767	3,481.93	82.9494	3,481.93	80.8361	3,481.93	83.5047	3,481.93	81.8529	3,481.93	81.2414	3,481.93	81.9117	3,481.93	77.0209	3,481.93	84.8279	3,481.93	79.3927	3,481.93	81.0703	3,481.93	75.2442	3,481.93	82.13	3,481.93	70.5415	3,481.93	74.6473	3,481.93	72.6558	3,481.93	70.8457	3,481.93	72.3522	3,481.93	58.5723	3,481.93	72.7462	3,481.93	60.1774	3,481.93	74.601	3,481.93	71.4625	3,481.93	72.9076	3,481.93	66.8139	3,481.93	62.5761	3,481.93	62.077	3,481.93	67.2892	3,481.93	73.9179	3,481.93	60.8173	3,481.93	72.1164	3,481.93	64.2674
3,604.98	83.9913	3,604.98	85.6721	3,604.98	83.1789	3,604.98	84.0615	3,604.98	84.3577	3,604.98	85.1063	3,604.98	81.8458	3,604.98	83.5978	3,604.98	80.9079	3,604.98	80.5743	3,604.98	83.2305	3,604.98	79.2755	3,604.98	85.3348	3,604.98	78.4172	3,604.98	82.5347	3,604.98	79.1444	3,604.98	76.8857	3,604.98	77.2427	3,604.98	60.9686	3,604.98	74.9288	3,604.98	59.6562	3,604.98	73.4963	3,604.98	61.0878	3,604.98	71.0952	3,604.98	65.4008	3,604.98	74.5783	3,604.98	69.5463	3,604.98	72.8689	3,604.98	67.8279	3,604.98	69.7744	3,604.98	63.8079	3,604.98	67.1205	3,604.98	72.7329	3,604.98	63.5647	3,604.98	72.8519	3,604.98	65.1789
3,732.42	85.383	3,732.42	85.8226	3,732.42	84.3859	3,732.42	83.1645	3,732.42	85.1358	3,732.42	85.6789	3,732.42	82.2134	3,732.42	83.1304	3,732.42	80.5773	3,732.42	81.9245	3,732.42	82.4333	3,732.42	81.527	3,732.42	83.1622	3,732.42	80.5896	3,732.42	80.2593	3,732.42	81.0708	3,732.42	74.8826	3,732.42	76.9501	3,732.42	76.6086	3,732.42	74.8289	3,732.42	68.0148	3,732.42	74.8949	3,732.42	63.6015	3,732.42	72.2583	3,732.42	67.3011	3,732.42	74.9152	3,732.42	71.4071	3,732.42	73.9672	3,732.42	60.617	3,732.42	71.8476	3,732.42	60.8256	3,732.42	60.8916	3,732.42	72.6301	3,732.42	67.1467	3,732.42	73.658	3,732.42	68.3478
3,864.26	85.1869	3,864.26	83.715	3,864.26	83.4774	3,864.26	84.6092	3,864.26	86.104	3,864.26	84.815	3,864.26	82.5712	3,864.26	82.7586	3,864.26	79.1727	3,864.26	83.9225	3,864.26	84.8918	3,864.26	83.3153	3,864.26	83.3023	3,864.26	82.6674	3,864.26	79.9358	3,864.26	79.4801	3,864.26	76.6085	3,864.26	73.9269	3,864.26	74.6582	3,864.26	73.194	3,864.26	73.2376	3,864.26	73.6356	3,864.26	66.0938	3,864.26	73.767	3,864.26	69.5031	3,864.26	73.7787	3,864.26	68.1918	3,864.26	74.6895	3,864.26	66.3086	3,864.26	72.4803	3,864.26	59.457	3,864.26	64.2522	3,864.26	73.8633	3,864.26	62.91	3,864.26	73.1578	3,864.26	71.4961
4,000.49	85.1662	4,000.49	81.1627	4,000.49	82.6338	4,000.49	86.1674	4,000.49	84.7696	4,000.49	84.619	4,000.49	84.1935	4,000.49	84.4739	4,000.49	77.1015	4,000.49	84.2034	4,000.49	84.4231	4,000.49	84.0787	4,000.49	84.5567	4,000.49	80.9463	4,000.49	80.0008	4,000.49	78.1241	4,000.49	76.1879	4,000.49	75.161	4,000.49	76.6664	4,000.49	72.5569	4,000.49	75.6183	4,000.49	72.6095	4,000.49	63.8498	4,000.49	72.8367	4,000.49	70.0524	4,000.49	72.4477	4,000.49	68.7993	4,000.49	72.0892	4,000.49	61.7325	4,000.49	72.2425	4,000.49	53.4583	4,000.49	65.0497	4,000.49	73.3783	4,000.49	58.9541	4,000.49	71.7244	4,000.49	69.9298
4,141.11	85.2807	4,141.11	85.0826	4,141.11	84.3039	4,141.11	86.7552	4,141.11	84.0789	4,141.11	84.5159	4,141.11	84.9779	4,141.11	84.1599	4,141.11	79.6647	4,141.11	85.9257	4,141.11	84.2713	4,141.11	83.3143	4,141.11	83.6241	4,141.11	79.8049	4,141.11	79.4404	4,141.11	79.8542	4,141.11	80.3077	4,141.11	73.8285	4,141.11	79.8742	4,141.11	71.4813	4,141.11	73.2085	4,141.11	72.0298	4,141.11	52.3482	4,141.11	72.3431	4,141.11	72.1656	4,141.11	70.404	4,141.11	65.1947	4,141.11	71.2657	4,141.11	66.1901	4,141.11	71.4104	4,141.11	54.1575	4,141.11	63.9365	4,141.11	72.7023	4,141.11	55.3029	4,141.11	69.9993	4,141.11	67.1736
4,287.6	83.017	4,287.6	85.5735	4,287.6	84.6368	4,287.6	85.9364	4,287.6	84.0548	4,287.6	81.4936	4,287.6	85.2545	4,287.6	85.87	4,287.6	82.375	4,287.6	84.2883	4,287.6	84.0319	4,287.6	81.889	4,287.6	82.4507	4,287.6	81.1021	4,287.6	82.7215	4,287.6	75.7633	4,287.6	83.1787	4,287.6	78.5384	4,287.6	76.4366	4,287.6	72.8173	4,287.6	60.0012	4,287.6	71.685	4,287.6	64.245	4,287.6	72.5093	4,287.6	67.894	4,287.6	72.1876	4,287.6	70.132	4,287.6	71.4001	4,287.6	67.9431	4,287.6	68.5288	4,287.6	61.4808	4,287.6	64.6392	4,287.6	71.0756	4,287.6	61.0215	4,287.6	71.605	4,287.6	67.8422
4,438.48	84.1201	4,438.48	84.1897	4,438.48	84.9287	4,438.48	84.047	4,438.48	85.0068	4,438.48	87.222	4,438.48	86.3115	4,438.48	86.7471	4,438.48	82.3816	4,438.48	84.0664	4,438.48	81.4954	4,438.48	81.5277	4,438.48	79.945	4,438.48	80.5008	4,438.48	85.1459	4,438.48	80.2162	4,438.48	83.2713	4,438.48	72.6253	4,438.48	70.561	4,438.48	72.7684	4,438.48	70.0645	4,438.48	72.9384	4,438.48	68.7973	4,438.48	73.2654	4,438.48	57.7044	4,438.48	74.575	4,438.48	70.0402	4,438.48	70.6906	4,438.48	68.8086	4,438.48	71.2624	4,438.48	65.3273	4,438.48	66.7045	4,438.48	70.9766	4,438.48	59.5734	4,438.48	71.7532	4,438.48	66.9457
4,595.21	84.4098	4,595.21	86.953	4,595.21	84.4995	4,595.21	84.3478	4,595.21	84.3028	4,595.21	86.1807	4,595.21	86.0152	4,595.21	83.9314	4,595.21	81.8039	4,595.21	84.1853	4,595.21	79.0374	4,595.21	80.9814	4,595.21	83.1366	4,595.21	82.4967	4,595.21	85.0953	4,595.21	76.0996	4,595.21	80.959	4,595.21	77.5786	4,595.21	73.2898	4,595.21	72.1913	4,595.21	71.9447	4,595.21	72.3669	4,595.21	67.1721	4,595.21	73.4335	4,595.21	63.4989	4,595.21	71.5952	4,595.21	65.2811	4,595.21	72.5091	4,595.21	68.144	4,595.21	71.0296	4,595.21	61.8342	4,595.21	65.0267	4,595.21	70.3979	4,595.21	54.6036	4,595.21	71.1887	4,595.21	66.1172
4,756.35	84.8676	4,756.35	86.146	4,756.35	83.8726	4,756.35	85.4936	4,756.35	83.9339	4,756.35	86.1206	4,756.35	85.0556	4,756.35	84.5679	4,756.35	81.1569	4,756.35	83.86	4,756.35	75.6948	4,756.35	82.8465	4,756.35	85.9464	4,756.35	79.4874	4,756.35	83.9394	4,756.35	79.6388	4,756.35	76.4242	4,756.35	75.0588	4,756.35	74.9477	4,756.35	71.1935	4,756.35	68.9311	4,756.35	72.3373	4,756.35	46.456	4,756.35	72.3592	4,756.35	58.423	4,756.35	71.7549	4,756.35	56.3002	4,756.35	71.6605	4,756.35	67.9798	4,756.35	70.0252	4,756.35	50.8887	4,756.35	65.0742	4,756.35	70.4861	4,756.35	53.6314	4,756.35	68.8847	4,756.35	62.192
4,924.8	85.4947	4,924.8	84.6758	4,924.8	84.8507	4,924.8	84.3499	4,924.8	84.9343	4,924.8	86.6091	4,924.8	84.4152	4,924.8	84.1778	4,924.8	80.8791	4,924.8	83.6981	4,924.8	78.059	4,924.8	81.4041	4,924.8	85.3834	4,924.8	81.1055	4,924.8	81.4872	4,924.8	76.1306	4,924.8	76.5625	4,924.8	71.7868	4,924.8	73.473	4,924.8	72.2197	4,924.8	66.8081	4,924.8	66.7807	4,924.8	67.4763	4,924.8	72.7492	4,924.8	63.2202	4,924.8	69.5474	4,924.8	59.6801	4,924.8	70.6959	4,924.8	66.392	4,924.8	69.129	4,924.8	63.5314	4,924.8	66.6267	4,924.8	68.8839	4,924.8	54.5318	4,924.8	68.4497	4,924.8	64.7361
5,097.66	86.1585	5,097.66	85.3409	5,097.66	85.0865	5,097.66	86.5931	5,097.66	84.8612	5,097.66	84.3752	5,097.66	83.8119	5,097.66	84.1311	5,097.66	81.3679	5,097.66	83.4384	5,097.66	79.1759	5,097.66	81.5329	5,097.66	84.2715	5,097.66	77.6611	5,097.66	78.6526	5,097.66	77.8947	5,097.66	77.0874	5,097.66	73.7132	5,097.66	71.9995	5,097.66	69.4298	5,097.66	64.7313	5,097.66	66.8547	5,097.66	69.4741	5,097.66	71.1917	5,097.66	61.8741	5,097.66	68.2432	5,097.66	62.4003	5,097.66	70.0585	5,097.66	70.5793	5,097.66	67.5672	5,097.66	63.1716	5,097.66	66.6055	5,097.66	67.9955	5,097.66	51.5411	5,097.66	68.2159	5,097.66	60.3248
5,277.83	86.384	5,277.83	85.4509	5,277.83	86.0687	5,277.83	86.3803	5,277.83	85.0987	5,277.83	85.289	5,277.83	85.2613	5,277.83	85.6144	5,277.83	82.0579	5,277.83	81.9389	5,277.83	78.1782	5,277.83	80.6942	5,277.83	81.4941	5,277.83	79.0186	5,277.83	77.9234	5,277.83	75.5008	5,277.83	77.5163	5,277.83	70.9054	5,277.83	73.2877	5,277.83	68.9551	5,277.83	54.1374	5,277.83	67.787	5,277.83	64.9038	5,277.83	69.9509	5,277.83	60.1811	5,277.83	70.893	5,277.83	61.5183	5,277.83	68.7919	5,277.83	68.2595	5,277.83	68.9618	5,277.83	65.2815	5,277.83	68.3562	5,277.83	69.4221	5,277.83	58.5224	5,277.83	68.5893	5,277.83	60.8872
5,463.87	85.8365	5,463.87	85.9496	5,463.87	85.8878	5,463.87	86.1982	5,463.87	85.443	5,463.87	85.2523	5,463.87	86.4256	5,463.87	83.6078	5,463.87	83.4726	5,463.87	82.0233	5,463.87	79.0903	5,463.87	80.1985	5,463.87	78.4118	5,463.87	76.6233	5,463.87	79.7511	5,463.87	76.3164	5,463.87	78.6414	5,463.87	73.4975	5,463.87	74.3152	5,463.87	68.8208	5,463.87	62.4884	5,463.87	69.1398	5,463.87	59.4028	5,463.87	70.368	5,463.87	53.0731	5,463.87	71.3119	5,463.87	63.5742	5,463.87	69.123	5,463.87	66.839	5,463.87	69.5199	5,463.87	65.0298	5,463.87	69.3057	5,463.87	69.2209	5,463.87	64.4661	5,463.87	66.9689	5,463.87	60.2468
5,657.23	85.7694	5,657.23	86.144	5,657.23	86.6089	5,657.23	86.5806	5,657.23	86.2789	5,657.23	85.5187	5,657.23	85.7308	5,657.23	84.4574	5,657.23	84.7203	5,657.23	82.0722	5,657.23	77.767	5,657.23	80.6137	5,657.23	77.3292	5,657.23	78.7555	5,657.23	81.3734	5,657.23	74.8144	5,657.23	77.6653	5,657.23	72.1508	5,657.23	71.9286	5,657.23	68.3326	5,657.23	63.3672	5,657.23	67.362	5,657.23	63.6448	5,657.23	70.8201	5,657.23	54.2897	5,657.23	72.6164	5,657.23	62.9243	5,657.23	69.9693	5,657.23	65.5173	5,657.23	70.9593	5,657.23	66.5952	5,657.23	68.2167	5,657.23	65.4937	5,657.23	63.5962	5,657.23	66.1737	5,657.23	55.848
5,856.45	86.1799	5,856.45	86.7239	5,856.45	86.2974	5,856.45	86.5573	5,856.45	85.9227	5,856.45	84.8514	5,856.45	85.5166	5,856.45	84.2467	5,856.45	84.168	5,856.45	82.9182	5,856.45	77.4077	5,856.45	79.9801	5,856.45	78.6553	5,856.45	78.8131	5,856.45	81.9249	5,856.45	76.9692	5,856.45	79.2568	5,856.45	73.7591	5,856.45	75.1573	5,856.45	68.8139	5,856.45	70.6319	5,856.45	69.1374	5,856.45	65.1552	5,856.45	70.6768	5,856.45	60.1976	5,856.45	71.4781	5,856.45	64.6493	5,856.45	70.8349	5,856.45	47.3331	5,856.45	72.2287	5,856.45	62.7416	5,856.45	68.5462	5,856.45	68.6047	5,856.45	65.9209	5,856.45	66.3029	5,856.45	60.8901
6,062.99	86.104	6,062.99	86.6237	6,062.99	85.8061	6,062.99	86.2973	6,062.99	82.6119	6,062.99	85.402	6,062.99	85.6637	6,062.99	84.3575	6,062.99	84.2567	6,062.99	82.7675	6,062.99	77.8236	6,062.99	80.7407	6,062.99	79.4028	6,062.99	79.4872	6,062.99	82.5915	6,062.99	75.7746	6,062.99	78.1154	6,062.99	72.591	6,062.99	74.3639	6,062.99	68.5218	6,062.99	69.6306	6,062.99	68.6441	6,062.99	57.2755	6,062.99	70.3602	6,062.99	57.8872	6,062.99	70.9898	6,062.99	62.3886	6,062.99	70.7223	6,062.99	64.9107	6,062.99	71.4182	6,062.99	59.095	6,062.99	69.0179	6,062.99	68.7435	6,062.99	67.9931	6,062.99	66.8893	6,062.99	55.5814
6,276.86	86.0322	6,276.86	86.3011	6,276.86	85.8722	6,276.86	85.831	6,276.86	86.2947	6,276.86	85.0719	6,276.86	84.4167	6,276.86	84.9088	6,276.86	84.4457	6,276.86	81.9724	6,276.86	80.3844	6,276.86	81.5975	6,276.86	77.1262	6,276.86	78.5837	6,276.86	81.9797	6,276.86	76.1121	6,276.86	77.1335	6,276.86	69.6828	6,276.86	70.6753	6,276.86	69.1147	6,276.86	69.0994	6,276.86	65.6238	6,276.86	59.6799	6,276.86	68.9024	6,276.86	60.3451	6,276.86	70.8474	6,276.86	62.8775	6,276.86	69.4254	6,276.86	64.7411	6,276.86	69.1153	6,276.86	60.4339	6,276.86	70.3977	6,276.86	68.6006	6,276.86	63.8907	6,276.86	65.792	6,276.86	59.8539
6,498.05	86.3928	6,498.05	86.6614	6,498.05	86.7247	6,498.05	85.621	6,498.05	87.0521	6,498.05	85.78	6,498.05	84.8506	6,498.05	84.6138	6,498.05	85.4877	6,498.05	82.2865	6,498.05	81.2324	6,498.05	80.3852	6,498.05	77.8588	6,498.05	77.4711	6,498.05	80.5346	6,498.05	74.7482	6,498.05	73.7609	6,498.05	74.2197	6,498.05	74.5366	6,498.05	67.9595	6,498.05	66.3662	6,498.05	65.5521	6,498.05	67.5956	6,498.05	69.9147	6,498.05	60.3112	6,498.05	70.9569	6,498.05	63.3283	6,498.05	68.0779	6,498.05	65.0766	6,498.05	69.7257	6,498.05	62.9898	6,498.05	71.2265	6,498.05	64.8028	6,498.05	66.5158	6,498.05	61.9997	6,498.05	63.0512
6,726.56	86.2205	6,726.56	85.8498	6,726.56	86.0186	6,726.56	85.8297	6,726.56	85.4605	6,726.56	85.6666	6,726.56	85.1926	6,726.56	83.8058	6,726.56	85.3092	6,726.56	82.3681	6,726.56	80.7553	6,726.56	79.8687	6,726.56	78.5557	6,726.56	79.547	6,726.56	75.9596	6,726.56	76.4614	6,726.56	77.1243	6,726.56	74.822	6,726.56	75.9756	6,726.56	68.7875	6,726.56	67.9805	6,726.56	67.7076	6,726.56	66.5661	6,726.56	70.8503	6,726.56	62.5516	6,726.56	71.7773	6,726.56	59.7196	6,726.56	67.8619	6,726.56	62.2587	6,726.56	71.7291	6,726.56	66.7874	6,726.56	72.0142	6,726.56	65.7238	6,726.56	67.2107	6,726.56	60.6895	6,726.56	62.7967
6,963.87	86.1224	6,963.87	85.376	6,963.87	84.8095	6,963.87	85.9421	6,963.87	84.193	6,963.87	84.9286	6,963.87	85.1413	6,963.87	84.2353	6,963.87	84.5408	6,963.87	82.0094	6,963.87	80.6942	6,963.87	81.2045	6,963.87	77.0665	6,963.87	79.238	6,963.87	74.4347	6,963.87	77.4953	6,963.87	78.2362	6,963.87	73.5099	6,963.87	73.4045	6,963.87	67.7739	6,963.87	68.4014	6,963.87	67.0085	6,963.87	65.9243	6,963.87	69.3736	6,963.87	54.7943	6,963.87	70.8386	6,963.87	59.395	6,963.87	68.4414	6,963.87	52.8192	6,963.87	71.3351	6,963.87	66.2699	6,963.87	70.8416	6,963.87	65.7792	6,963.87	67.2277	6,963.87	63.4569	6,963.87	61.5666
7,209.96	86.4768	7,209.96	85.4725	7,209.96	85.2409	7,209.96	86.1762	7,209.96	84.8233	7,209.96	83.7828	7,209.96	83.7463	7,209.96	83.627	7,209.96	82.5322	7,209.96	81.8066	7,209.96	81.3606	7,209.96	81.5205	7,209.96	72.2187	7,209.96	79.4053	7,209.96	78.5465	7,209.96	75.1789	7,209.96	76.4017	7,209.96	73.8493	7,209.96	73.8474	7,209.96	65.7789	7,209.96	70.8214	7,209.96	65.3081	7,209.96	64.162	7,209.96	69.0366	7,209.96	60.9829	7,209.96	68.3102	7,209.96	50.6759	7,209.96	66.1643	7,209.96	50.9554	7,209.96	69.8452	7,209.96	63.2752	7,209.96	70.4619	7,209.96	58.4107	7,209.96	67.048	7,209.96	59.115	7,209.96	61.7437
7,464.84	85.5415	7,464.84	85.8248	7,464.84	86.3908	7,464.84	84.9232	7,464.84	86.1955	7,464.84	84.0782	7,464.84	82.2851	7,464.84	83.745	7,464.84	82.9256	7,464.84	82.1911	7,464.84	81.3329	7,464.84	80.4686	7,464.84	71.8543	7,464.84	77.9547	7,464.84	80.0219	7,464.84	74.2984	7,464.84	74.5488	7,464.84	70.3938	7,464.84	74.8989	7,464.84	64.1826	7,464.84	66.4724	7,464.84	63.9618	7,464.84	60.3211	7,464.84	68.0264	7,464.84	54.9121	7,464.84	68.6451	7,464.84	57.8167	7,464.84	63.4401	7,464.84	60.7238	7,464.84	68.1879	7,464.84	64.382	7,464.84	68.6202	7,464.84	55.0508	7,464.84	67.5607	7,464.84	60.8045	7,464.84	60.3705
7,727.05	85.7304	7,727.05	85.7106	7,727.05	84.0907	7,727.05	85.2043	7,727.05	85.922	7,727.05	83.6586	7,727.05	81.961	7,727.05	83.4495	7,727.05	82.392	7,727.05	82.003	7,727.05	81.3896	7,727.05	80.075	7,727.05	74.6575	7,727.05	78.6051	7,727.05	76.5441	7,727.05	74.7823	7,727.05	68.1529	7,727.05	72.7319	7,727.05	70.2402	7,727.05	63.9059	7,727.05	66.2106	7,727.05	64.7098	7,727.05	61.5784	7,727.05	68.2747	7,727.05	37.2328	7,727.05	68.5988	7,727.05	60.096	7,727.05	62.6745	7,727.05	57.7251	7,727.05	67.3912	7,727.05	60.8447	7,727.05	68.7972	7,727.05	55.9994	7,727.05	66.5761	7,727.05	60.1623	7,727.05	60.4316
7,999.51	85.5329	7,999.51	85.1705	7,999.51	85.1258	7,999.51	84.6622	7,999.51	83.8818	7,999.51	83.2896	7,999.51	83.0733	7,999.51	82.9375	7,999.51	81.4276	7,999.51	81.714	7,999.51	79.2187	7,999.51	80.1387	7,999.51	75.3894	7,999.51	78.0737	7,999.51	68.3738	7,999.51	74.4072	7,999.51	74.4778	7,999.51	72.3444	7,999.51	71.3383	7,999.51	62.1548	7,999.51	66.2464	7,999.51	65.2686	7,999.51	61.0352	7,999.51	66.8112	7,999.51	54.5212	7,999.51	67.023	7,999.51	60.8525	7,999.51	63.0336	7,999.51	61.5259	7,999.51	64.9496	7,999.51	60.7839	7,999.51	68.0044	7,999.51	54.6354	7,999.51	63.6253	7,999.51	57.5734	7,999.51	58.0017
8,282.23	85.6196	8,282.23	84.9613	8,282.23	84.9946	8,282.23	84.0613	8,282.23	84.2567	8,282.23	82.6983	8,282.23	84.2962	8,282.23	82.6989	8,282.23	81.0676	8,282.23	80.7972	8,282.23	78.169	8,282.23	79.2043	8,282.23	71.7722	8,282.23	77.1844	8,282.23	73.8831	8,282.23	72.1796	8,282.23	74.6489	8,282.23	70.3722	8,282.23	73.9862	8,282.23	61.0612	8,282.23	66.3484	8,282.23	62.0759	8,282.23	63.7939	8,282.23	66.364	8,282.23	58.807	8,282.23	64.6016	8,282.23	59.6366	8,282.23	59.2338	8,282.23	55.8316	8,282.23	63.4967	8,282.23	50.699	8,282.23	67.6389	8,282.23	55.4722	8,282.23	65.984	8,282.23	50.575	8,282.23	58.7906
8,573.73	85.2724	8,573.73	84.9614	8,573.73	84.0978	8,573.73	83.7971	8,573.73	84.0115	8,573.73	82.3545	8,573.73	84.2319	8,573.73	82.4265	8,573.73	80.7025	8,573.73	80.0639	8,573.73	80.2309	8,573.73	78.47	8,573.73	68.5115	8,573.73	75.0581	8,573.73	76.7543	8,573.73	71.5703	8,573.73	71.1267	8,573.73	68.5	8,573.73	72.2865	8,573.73	61.2687	8,573.73	69.355	8,573.73	62.3147	8,573.73	62.0379	8,573.73	64.6653	8,573.73	59.55	8,573.73	63.5863	8,573.73	54.6752	8,573.73	59.9678	8,573.73	59.863	8,573.73	63.7599	8,573.73	57.1258	8,573.73	67.7169	8,573.73	58.3361	8,573.73	63.6633	8,573.73	46.6372	8,573.73	60.347
8,876.95	85.7613	8,876.95	84.9767	8,876.95	84.1312	8,876.95	83.6232	8,876.95	82.9727	8,876.95	82.928	8,876.95	82.793	8,876.95	81.513	8,876.95	80.1516	8,876.95	80.0591	8,876.95	80.9045	8,876.95	77.3027	8,876.95	71.1257	8,876.95	74.2517	8,876.95	75.2099	8,876.95	69.9434	8,876.95	70.472	8,876.95	67.1242	8,876.95	70.739	8,876.95	59.9545	8,876.95	69.3685	8,876.95	60.6101	8,876.95	58.7487	8,876.95	65.5569	8,876.95	53.7463	8,876.95	61.287	8,876.95	52.1582	8,876.95	61.4277	8,876.95	58.3606	8,876.95	62.4535	8,876.95	59.6419	8,876.95	64.0182	8,876.95	51.9023	8,876.95	63.2327	8,876.95	39.9913	8,876.95	58.3692
9,188.96	85.545	9,188.96	84.9155	9,188.96	84.6408	9,188.96	84.0682	9,188.96	83.0894	9,188.96	82.9529	9,188.96	81.4866	9,188.96	81.0382	9,188.96	80.4831	9,188.96	79.5195	9,188.96	79.3656	9,188.96	76.5979	9,188.96	72.1884	9,188.96	73.653	9,188.96	71.4208	9,188.96	68.7418	9,188.96	73.1769	9,188.96	64.3775	9,188.96	68.7896	9,188.96	59.2524	9,188.96	68.4141	9,188.96	57.5413	9,188.96	59.2667	9,188.96	62.7709	9,188.96	52.8961	9,188.96	61.5653	9,188.96	49.4633	9,188.96	57.8052	9,188.96	59.8316	9,188.96	60.234	9,188.96	57.0113	9,188.96	62.5199	9,188.96	47.6451	9,188.96	59.5286	9,188.96	50.0345	9,188.96	56.7742
9,514.16	85.2934	9,514.16	84.7456	9,514.16	84.8577	9,514.16	84.4125	9,514.16	84.2288	9,514.16	82.2527	9,514.16	82.484	9,514.16	81.3633	9,514.16	79.067	9,514.16	78.6339	9,514.16	75.8319	9,514.16	75.6115	9,514.16	72.1297	9,514.16	72.1394	9,514.16	64.653	9,514.16	67.3562	9,514.16	71.8867	9,514.16	65.7024	9,514.16	68.0791	9,514.16	56.5928	9,514.16	68.0597	9,514.16	59.8829	9,514.16	63.0232	9,514.16	61.9458	9,514.16	54.5253	9,514.16	60.8047	9,514.16	56.424	9,514.16	57.1338	9,514.16	59.8704	9,514.16	55.6333	9,514.16	47.8549	9,514.16	61.4477	9,514.16	54.0607	9,514.16	61.8768	9,514.16	43.4794	9,514.16	57.3392
9,849.61	84.8507	9,849.61	84.5324	9,849.61	84.3729	9,849.61	83.8741	9,849.61	83.7149	9,849.61	82.1232	9,849.61	82.6894	9,849.61	81.2351	9,849.61	77.8351	9,849.61	77.4092	9,849.61	75.6076	9,849.61	74.278	9,849.61	72.6163	9,849.61	71.5902	9,849.61	65.8523	9,849.61	67.144	9,849.61	70.593	9,849.61	65.0127	9,849.61	68.4173	9,849.61	53.6056	9,849.61	69.823	9,849.61	58.0212	9,849.61	60.4927	9,849.61	61.2438	9,849.61	57.1254	9,849.61	61.9076	9,849.61	49.7364	9,849.61	57.9164	9,849.61	58.6031	9,849.61	53.4338	9,849.61	44.4405	9,849.61	61.0693	9,849.61	36.9244	9,849.61	62.6984	9,849.61	49.6836	9,849.61	55.7117
10,196.8	84.9675	10,196.8	84.4359	10,196.8	84.4359	10,196.8	83.3637	10,196.8	82.9386	10,196.8	82.4304	10,196.8	81.6948	10,196.8	80.0579	10,196.8	77.1636	10,196.8	76.4784	10,196.8	75.9533	10,196.8	73.7323	10,196.8	70.5349	10,196.8	70.8851	10,196.8	65.3121	10,196.8	68.4744	10,196.8	69.8293	10,196.8	65.1432	10,196.8	66.2939	10,196.8	60.1737	10,196.8	69.5873	10,196.8	59.1529	10,196.8	60.0884	10,196.8	61.5698	10,196.8	55.5826	10,196.8	59.5042	10,196.8	42.1962	10,196.8	57.1665	10,196.8	55.979	10,196.8	55.4016	10,196.8	47.1221	10,196.8	60.0889	10,196.8	48.9244	10,196.8	62.022	10,196.8	49.9142	10,196.8	57.8267
10,555.7	84.4148	10,555.7	83.855	10,555.7	84.2889	10,555.7	83.3928	10,555.7	82.5576	10,555.7	81.9266	10,555.7	79.7945	10,555.7	78.781	10,555.7	77.7234	10,555.7	75.7033	10,555.7	75.9904	10,555.7	72.9354	10,555.7	70.2094	10,555.7	71.0962	10,555.7	63.6621	10,555.7	66.424	10,555.7	67.0681	10,555.7	63.0815	10,555.7	67.6859	10,555.7	54.2937	10,555.7	68.6481	10,555.7	55.5401	10,555.7	62.069	10,555.7	61.2068	10,555.7	54.9007	10,555.7	58.4075	10,555.7	48.4869	10,555.7	54.8123	10,555.7	54.6259	10,555.7	52.4765	10,555.7	42.0575	10,555.7	59.1743	10,555.7	46.5541	10,555.7	60.0408	10,555.7	51.1622	10,555.7	54.4383
10,927.7	83.6051	10,927.7	83.2545	10,927.7	83.4807	10,927.7	82.7368	10,927.7	81.6165	10,927.7	80.5742	10,927.7	78.9113	10,927.7	78.0793	10,927.7	76.5424	10,927.7	74.0432	10,927.7	73.5655	10,927.7	72.646	10,927.7	70.9994	10,927.7	69.2287	10,927.7	54.8114	10,927.7	65.7755	10,927.7	67.2055	10,927.7	64.0834	10,927.7	67.7252	10,927.7	56.7196	10,927.7	69.0997	10,927.7	53.378	10,927.7	62.5928	10,927.7	59.8151	10,927.7	54.7854	10,927.7	58.4769	10,927.7	52.2378	10,927.7	55.4415	10,927.7	55.2405	10,927.7	48.9412	10,927.7	38.3673	10,927.7	57.3108	10,927.7	47.5208	10,927.7	57.9421	10,927.7	49.3178	10,927.7	56.0699
11,313	82.8952	11,313	82.3058	11,313	82.5501	11,313	81.1834	11,313	80.6647	11,313	79.3397	11,313	77.4566	11,313	76.0163	11,313	75.4711	11,313	72.5788	11,313	71.6479	11,313	70.1921	11,313	68.7278	11,313	68.9022	11,313	58.7692	11,313	64.5522	11,313	67.0535	11,313	60.6525	11,313	67.5946	11,313	53.5496	11,313	69.2357	11,313	53.3282	11,313	65.1205	11,313	57.5372	11,313	54.4455	11,313	55.9832	11,313	42.6473	11,313	53.5761	11,313	46.4132	11,313	46.0084	11,313	41.0762	11,313	52.0979	11,313	45.8919	11,313	56.4858	11,313	52.5928	11,313	55.6512
11,712.9	82.065	11,712.9	80.7503	11,712.9	81.3388	11,712.9	80.033	11,712.9	78.4542	11,712.9	77.2773	11,712.9	76.3443	11,712.9	73.7529	11,712.9	71.9255	11,712.9	70.7324	11,712.9	69.7039	11,712.9	68.4213	11,712.9	65.2991	11,712.9	66.1344	11,712.9	54.6787	11,712.9	60.5554	11,712.9	61.3845	11,712.9	57.549	11,712.9	65.4036	11,712.9	46.8612	11,712.9	68.8566	11,712.9	48.0214	11,712.9	64.0171	11,712.9	54.0122	11,712.9	53.5344	11,712.9	55.9867	11,712.9	41.0451	11,712.9	52.8252	11,712.9	45.0304	11,712.9	41.3466	11,712.9	39.6493	11,712.9	44.6111	11,712.9	45.2596	11,712.9	52.5837	11,712.9	48.3599	11,712.9	54.6366
12,126	81.5575	12,126	80.6577	12,126	81.5982	12,126	79.4197	12,126	78.5096	12,126	75.9173	12,126	75.0428	12,126	72.7585	12,126	71.4547	12,126	68.7429	12,126	68.9052	12,126	68.2447	12,126	64.0019	12,126	64.0179	12,126	57.1286	12,126	61.8029	12,126	58.5577	12,126	58.6546	12,126	65.9247	12,126	50.8864	12,126	68.9812	12,126	48.5599	12,126	64.6478	12,126	52.3975	12,126	53.2609	12,126	54.3676	12,126	40.2296	12,126	52.6621	12,126	47.7458	12,126	42.121	12,126	42.3004	12,126	39.3834	12,126	47.3122	12,126	50.7029	12,126	51.7654	12,126	53.1794
12,553.7	81.9988	12,553.7	81.7317	12,553.7	81.659	12,553.7	79.6887	12,553.7	78.7782	12,553.7	75.6717	12,553.7	74.9391	12,553.7	72.2059	12,553.7	72.4756	12,553.7	69.8454	12,553.7	69.8907	12,553.7	68.1778	12,553.7	66.6374	12,553.7	64.7415	12,553.7	61.6189	12,553.7	58.9345	12,553.7	61.751	12,553.7	57.5722	12,553.7	66.9905	12,553.7	51.6565	12,553.7	69.5234	12,553.7	50.6353	12,553.7	64.9553	12,553.7	53.2798	12,553.7	54.677	12,553.7	52.7953	12,553.7	37.1996	12,553.7	52.6031	12,553.7	43.3261	12,553.7	48.9964	12,553.7	44.8881	12,553.7	39.1485	12,553.7	43.8678	12,553.7	46.3616	12,553.7	49.3614	12,553.7	51.9392
12,996.1	83.0411	12,996.1	82.3933	12,996.1	82.2487	12,996.1	80.3984	12,996.1	78.6705	12,996.1	76.008	12,996.1	76.527	12,996.1	73.4173	12,996.1	72.597	12,996.1	71.6239	12,996.1	71.0665	12,996.1	68.8654	12,996.1	67.5516	12,996.1	65.1101	12,996.1	63.2632	12,996.1	61.9072	12,996.1	61.2345	12,996.1	56.5461	12,996.1	66.1622	12,996.1	50.7093	12,996.1	70.1279	12,996.1	48.5355	12,996.1	65.4336	12,996.1	53.6935	12,996.1	53.3272	12,996.1	54.1522	12,996.1	41.0668	12,996.1	54.3874	12,996.1	34.9654	12,996.1	54.2526	12,996.1	44.1361	12,996.1	37.882	12,996.1	36.6205	12,996.1	38.6487	12,996.1	49.0412	12,996.1	53.5912
13,454.6	83.9518	13,454.6	83.361	13,454.6	82.6598	13,454.6	80.9882	13,454.6	79.9612	13,454.6	77.4362	13,454.6	77.2828	13,454.6	75.9566	13,454.6	73.6234	13,454.6	72.472	13,454.6	70.3739	13,454.6	69.8699	13,454.6	69.4836	13,454.6	66.3673	13,454.6	65.4461	13,454.6	61.8844	13,454.6	59.6715	13,454.6	57.4699	13,454.6	66.4571	13,454.6	46.1347	13,454.6	70.8005	13,454.6	48.0498	13,454.6	66.5416	13,454.6	53.7219	13,454.6	54.6476	13,454.6	55.4885	13,454.6	50.7434	13,454.6	53.617	13,454.6	43.2021	13,454.6	52.6843	13,454.6	43.8967	13,454.6	43.5697	13,454.6	36.6125	13,454.6	38.5689	13,454.6	47.7407	13,454.6	54.363
13,929.2	84.4765	13,929.2	84.445	13,929.2	83.1735	13,929.2	81.9741	13,929.2	81.0092	13,929.2	79.4846	13,929.2	77.1203	13,929.2	77.3261	13,929.2	74.3537	13,929.2	73.3998	13,929.2	73.4932	13,929.2	69.9423	13,929.2	66.7791	13,929.2	66.7514	13,929.2	64.2132	13,929.2	63.0967	13,929.2	53.9639	13,929.2	58.4544	13,929.2	67.5965	13,929.2	51.4505	13,929.2	71.4052	13,929.2	49.522	13,929.2	68.1816	13,929.2	54.4441	13,929.2	53.5334	13,929.2	53.4894	13,929.2	49.907	13,929.2	53.6436	13,929.2	46.627	13,929.2	52.3736	13,929.2	46.3659	13,929.2	47.7046	13,929.2	44.0568	13,929.2	28.6597	13,929.2	51.7203	13,929.2	54.1934
14,419.9	84.0961	14,419.9	83.7186	14,419.9	82.73	14,419.9	81.5892	14,419.9	80.6785	14,419.9	79.686	14,419.9	76.5528	14,419.9	77.058	14,419.9	74.2246	14,419.9	72.222	14,419.9	71.5075	14,419.9	69.2227	14,419.9	66.1523	14,419.9	65.1401	14,419.9	64.0317	14,419.9	61.9479	14,419.9	52.8502	14,419.9	57.0882	14,419.9	65.5521	14,419.9	48.7228	14,419.9	71.1358	14,419.9	46.0262	14,419.9	67.8023	14,419.9	50.428	14,419.9	55.1854	14,419.9	52.1176	14,419.9	49.5142	14,419.9	52.5756	14,419.9	40.5934	14,419.9	49.7139	14,419.9	42.6589	14,419.9	49.8469	14,419.9	45.2661	14,419.9	34.328	14,419.9	48.7201	14,419.9	52.9623
14,928.2	83.6617	14,928.2	83.2916	14,928.2	82.5402	14,928.2	81.2146	14,928.2	80.9126	14,928.2	79.848	14,928.2	75.7965	14,928.2	76.2683	14,928.2	70.4052	14,928.2	71.5931	14,928.2	69.8156	14,928.2	68.5263	14,928.2	65.9471	14,928.2	64.4394	14,928.2	64.9049	14,928.2	59.0289	14,928.2	41.4764	14,928.2	55.2947	14,928.2	64.0789	14,928.2	43.4763	14,928.2	69.9801	14,928.2	41.8602	14,928.2	67.2186	14,928.2	47.6721	14,928.2	55.7314	14,928.2	48.9485	14,928.2	50.1441	14,928.2	48.77	14,928.2	42.3418	14,928.2	49.4594	14,928.2	42.5427	14,928.2	51.3044	14,928.2	36.9726	14,928.2	39.251	14,928.2	45.3961	14,928.2	51.7432
15,455.6	83.0384	15,455.6	82.5342	15,455.6	81.5728	15,455.6	80.8537	15,455.6	80.1481	15,455.6	78.568	15,455.6	75.8099	15,455.6	74.8355	15,455.6	69.7544	15,455.6	70.0715	15,455.6	68.9794	15,455.6	67.5537	15,455.6	65.3794	15,455.6	62.4613	15,455.6	63.4854	15,455.6	59.0884	15,455.6	49.1854	15,455.6	54.5035	15,455.6	62.6892	15,455.6	40.5116	15,455.6	69.0432	15,455.6	41.7479	15,455.6	66.4966	15,455.6	47.4523	15,455.6	54.042	15,455.6	48.7498	15,455.6	40.235	15,455.6	46.724	15,455.6	47.0282	15,455.6	50.6818	15,455.6	40.4158	15,455.6	50.643	15,455.6	37.9045	15,455.6	42.2642	15,455.6	42.4825	15,455.6	50.523
16,000.5	84.0497	16,000.5	83.5962	16,000.5	82.5487	16,000.5	81.6944	16,000.5	80.5245	16,000.5	78.6223	16,000.5	76.1774	16,000.5	74.7699	16,000.5	72.3331	16,000.5	69.7679	16,000.5	69.4455	16,000.5	67.5005	16,000.5	66.2394	16,000.5	63.1235	16,000.5	63.6901	16,000.5	57.7602	16,000.5	49.6972	16,000.5	54.007	16,000.5	62.1075	16,000.5	44.9813	16,000.5	69.3491	16,000.5	43.5548	16,000.5	66.5864	16,000.5	46.2706	16,000.5	54.4722	16,000.5	47.8338	16,000.5	39.8755	16,000.5	45.3546	16,000.5	35.2071	16,000.5	51.2435	16,000.5	41.8044	16,000.5	51.4801	16,000.5	33.2769	16,000.5	46.3733	16,000.5	39.2028	16,000.5	49.3135
16,564.5	84.4589	16,564.5	84.0665	16,564.5	83.2519	16,564.5	81.6101	16,564.5	81.3068	16,564.5	78.4254	16,564.5	76.2751	16,564.5	74.8503	16,564.5	73.6518	16,564.5	71.7563	16,564.5	69.686	16,564.5	69.1304	16,564.5	64.624	16,564.5	64.8555	16,564.5	62.326	16,564.5	60.3237	16,564.5	45.2815	16,564.5	55.8595	16,564.5	61.3359	16,564.5	46.9772	16,564.5	68.8333	16,564.5	44.8912	16,564.5	66.6575	16,564.5	46.5187	16,564.5	54.8791	16,564.5	46.8461	16,564.5	32.8244	16,564.5	49.3478	16,564.5	45.4891	16,564.5	51.6133	16,564.5	33.2098	16,564.5	50.5782	16,564.5	42.0899	16,564.5	45.0588	16,564.5	41.1852	16,564.5	49.3763
17,148.9	84.3723	17,148.9	83.8488	17,148.9	83.0268	17,148.9	81.3323	17,148.9	80.3876	17,148.9	78.2193	17,148.9	76.7673	17,148.9	75.337	17,148.9	75.1887	17,148.9	72.227	17,148.9	70.8796	17,148.9	69.4193	17,148.9	65.6315	17,148.9	64.1951	17,148.9	60.4881	17,148.9	57.5893	17,148.9	41.9439	17,148.9	54.3105	17,148.9	60.7913	17,148.9	45.9486	17,148.9	68.2871	17,148.9	46.0982	17,148.9	66.3003	17,148.9	47.1431	17,148.9	54.4166	17,148.9	46.4508	17,148.9	35.2066	17,148.9	48.2071	17,148.9	42.0143	17,148.9	50.6257	17,148.9	39.5774	17,148.9	47.793	17,148.9	45.0618	17,148.9	43.661	17,148.9	43.3199	17,148.9	48.95
17,752.4	84.1872	17,752.4	83.7824	17,752.4	82.8921	17,752.4	81.3752	17,752.4	80.3147	17,752.4	78.435	17,752.4	77.1971	17,752.4	75.7448	17,752.4	75.2442	17,752.4	72.4623	17,752.4	71.9783	17,752.4	68.869	17,752.4	65.295	17,752.4	61.701	17,752.4	58.5957	17,752.4	55.764	17,752.4	49.8386	17,752.4	52.1263	17,752.4	61.0394	17,752.4	43.8726	17,752.4	67.2856	17,752.4	45.0377	17,752.4	65.9436	17,752.4	46.7129	17,752.4	54.8383	17,752.4	49.0888	17,752.4	41.8284	17,752.4	46.7706	17,752.4	44.2959	17,752.4	52.4967	17,752.4	35.9601	17,752.4	46.803	17,752.4	45.625	17,752.4	43.4347	17,752.4	42.9298	17,752.4	47.6753
18,379.4	84.4131	18,379.4	84.0674	18,379.4	82.9373	18,379.4	81.8605	18,379.4	80.7183	18,379.4	78.8609	18,379.4	78.8355	18,379.4	76.7436	18,379.4	76.0662	18,379.4	72.9286	18,379.4	73.2577	18,379.4	68.7757	18,379.4	65.3589	18,379.4	61.5163	18,379.4	57.2282	18,379.4	54.7903	18,379.4	47.8374	18,379.4	53.4251	18,379.4	61.1449	18,379.4	42.6277	18,379.4	67.1377	18,379.4	49.2151	18,379.4	65.5596	18,379.4	46.4295	18,379.4	55.9732	18,379.4	49.818	18,379.4	44.0046	18,379.4	50.4008	18,379.4	34.9454	18,379.4	52.1184	18,379.4	30.1544	18,379.4	48.3967	18,379.4	42.6154	18,379.4	42.2273	18,379.4	40.7244	18,379.4	43.2007
19,026.9	84.8516	19,026.9	84.8516	19,026.9	83.7942	19,026.9	82.9514	19,026.9	82.3664	19,026.9	80.0057	19,026.9	80.4494	19,026.9	78.3651	19,026.9	77.2178	19,026.9	73.2181	19,026.9	74.1421	19,026.9	68.2218	19,026.9	66.5248	19,026.9	61.4786	19,026.9	53.7222	19,026.9	56.9034	19,026.9	48.6501	19,026.9	54.0344	19,026.9	61.686	19,026.9	47.0946	19,026.9	67.7567	19,026.9	48.426	19,026.9	66.6894	19,026.9	45.6357	19,026.9	55.6546	19,026.9	49.4021	19,026.9	41.6336	19,026.9	51.3227	19,026.9	41.8674	19,026.9	52.0044	19,026.9	35.9284	19,026.9	49.381	19,026.9	42.9679	19,026.9	43.5321	19,026.9	38.1537	19,026.9	38.5724
19,697.8	83.5285	19,697.8	83.4952	19,697.8	82.9232	19,697.8	82.0238	19,697.8	82.4021	19,697.8	79.3968	19,697.8	80.4226	19,697.8	77.824	19,697.8	76.9175	19,697.8	70.9772	19,697.8	72.5067	19,697.8	66.2933	19,697.8	63.8136	19,697.8	61.2087	19,697.8	52.2291	19,697.8	54.3015	19,697.8	50.9962	19,697.8	52.307	19,697.8	61.2832	19,697.8	49.3706	19,697.8	66.729	19,697.8	49.6736	19,697.8	65.6852	19,697.8	45.5288	19,697.8	54.5907	19,697.8	49.1528	19,697.8	33.197	19,697.8	51.2434	19,697.8	39.4242	19,697.8	51.0338	19,697.8	26.7485	19,697.8	49.2517	19,697.8	41.9664	19,697.8	40.4431	19,697.8	38.2489	19,697.8	26.2369
19,999.5	82.6947	19,999.5	82.7345	19,999.5	82.2609	19,999.5	81.3782	19,999.5	81.7303	19,999.5	78.8787	19,999.5	79.9986	19,999.5	76.591	19,999.5	76.1852	19,999.5	68.9473	19,999.5	70.6874	19,999.5	65.7231	19,999.5	64.2736	19,999.5	60.4771	19,999.5	57.1777	19,999.5	55.6183	19,999.5	51.689	19,999.5	46.8271	19,999.5	60.3054	19,999.5	45.2442	19,999.5	65.8956	19,999.5	55.5443	19,999.5	65.2886	19,999.5	54.3579	19,999.5	52.9122	19,999.5	31.8199	19,999.5	48.1918	19,999.5	56.1228	19,999.5	49.192	19,999.5	57.3569	19,999.5	38.6524	19,999.5	44.9695	19,999.5	55.182	19,999.5	52.9972	19,999.5	46.3528	19,999.5	45.7664
