"SPL Horizontal"
"On-Axis"		"10°"		"-10°"		"20°"		"-20°"		"30°"		"-30°"		"40°"		"-40°"		"50°"		"-50°"		"60°"		"-60°"		"70°"		"-70°"		"80°"		"-80°"		"90°"		"-90°"		"100°"		"-100°"		"110°"		"-110°"		"120°"		"-120°"		"130°"		"-130°"		"140°"		"-140°"		"150°"		"-150°"		"160°"		"-160°"		"170°"		"-170°"		"180°"
"Frequency / Hz"	"Sound Pressure Level / dB (re 20 µPa/V)  [2.83  V @ 1. m]"	"Frequency / Hz"	"Sound Pressure Level / dB (re 20 µPa/V)  [2.83  V @ 1. m]"	"Frequency / Hz"	"Sound Pressure Level / dB (re 20 µPa/V)  [2.83  V @ 1. m]"	"Frequency / Hz"	"Sound Pressure Level / dB (re 20 µPa/V)  [2.83  V @ 1. m]"	"Frequency / Hz"	"Sound Pressure Level / dB (re 20 µPa/V)  [2.83  V @ 1. m]"	"Frequency / Hz"	"Sound Pressure Level / dB (re 20 µPa/V)  [2.83  V @ 1. m]"	"Frequency / Hz"	"Sound Pressure Level / dB (re 20 µPa/V)  [2.83  V @ 1. m]"	"Frequency / Hz"	"Sound Pressure Level / dB (re 20 µPa/V)  [2.83  V @ 1. m]"	"Frequency / Hz"	"Sound Pressure Level / dB (re 20 µPa/V)  [2.83  V @ 1. m]"	"Frequency / Hz"	"Sound Pressure Level / dB (re 20 µPa/V)  [2.83  V @ 1. m]"	"Frequency / Hz"	"Sound Pressure Level / dB (re 20 µPa/V)  [2.83  V @ 1. m]"	"Frequency / Hz"	"Sound Pressure Level / dB (re 20 µPa/V)  [2.83  V @ 1. m]"	"Frequency / Hz"	"Sound Pressure Level / dB (re 20 µPa/V)  [2.83  V @ 1. m]"	"Frequency / Hz"	"Sound Pressure Level / dB (re 20 µPa/V)  [2.83  V @ 1. m]"	"Frequency / Hz"	"Sound Pressure Level / dB (re 20 µPa/V)  [2.83  V @ 1. m]"	"Frequency / Hz"	"Sound Pressure Level / dB (re 20 µPa/V)  [2.83  V @ 1. m]"	"Frequency / Hz"	"Sound Pressure Level / dB (re 20 µPa/V)  [2.83  V @ 1. m]"	"Frequency / Hz"	"Sound Pressure Level / dB (re 20 µPa/V)  [2.83  V @ 1. m]"	"Frequency / Hz"	"Sound Pressure Level / dB (re 20 µPa/V)  [2.83  V @ 1. m]"	"Frequency / Hz"	"Sound Pressure Level / dB (re 20 µPa/V)  [2.83  V @ 1. m]"	"Frequency / Hz"	"Sound Pressure Level / dB (re 20 µPa/V)  [2.83  V @ 1. m]"	"Frequency / Hz"	"Sound Pressure Level / dB (re 20 µPa/V)  [2.83  V @ 1. m]"	"Frequency / Hz"	"Sound Pressure Level / dB (re 20 µPa/V)  [2.83  V @ 1. m]"	"Frequency / Hz"	"Sound Pressure Level / dB (re 20 µPa/V)  [2.83  V @ 1. m]"	"Frequency / Hz"	"Sound Pressure Level / dB (re 20 µPa/V)  [2.83  V @ 1. m]"	"Frequency / Hz"	"Sound Pressure Level / dB (re 20 µPa/V)  [2.83  V @ 1. m]"	"Frequency / Hz"	"Sound Pressure Level / dB (re 20 µPa/V)  [2.83  V @ 1. m]"	"Frequency / Hz"	"Sound Pressure Level / dB (re 20 µPa/V)  [2.83  V @ 1. m]"	"Frequency / Hz"	"Sound Pressure Level / dB (re 20 µPa/V)  [2.83  V @ 1. m]"	"Frequency / Hz"	"Sound Pressure Level / dB (re 20 µPa/V)  [2.83  V @ 1. m]"	"Frequency / Hz"	"Sound Pressure Level / dB (re 20 µPa/V)  [2.83  V @ 1. m]"	"Frequency / Hz"	"Sound Pressure Level / dB (re 20 µPa/V)  [2.83  V @ 1. m]"	"Frequency / Hz"	"Sound Pressure Level / dB (re 20 µPa/V)  [2.83  V @ 1. m]"	"Frequency / Hz"	"Sound Pressure Level / dB (re 20 µPa/V)  [2.83  V @ 1. m]"	"Frequency / Hz"	"Sound Pressure Level / dB (re 20 µPa/V)  [2.83  V @ 1. m]"	"Frequency / Hz"	"Sound Pressure Level / dB (re 20 µPa/V)  [2.83  V @ 1. m]"
20.5078	41.3747	20.5078	41.1269	20.5078	41.5617	20.5078	40.8142	20.5078	41.6897	20.5078	40.4298	20.5078	41.7582	20.5078	39.9675	20.5078	41.7642	20.5078	39.4257	20.5078	41.7016	20.5078	38.8141	20.5078	41.5613	20.5078	38.1612	20.5078	41.3338	20.5078	37.5194	20.5078	41.0161	20.5078	36.9621	20.5078	40.6197	20.5078	36.5656	20.5078	40.1754	20.5078	36.3812	20.5078	39.7312	20.5078	36.4136	20.5078	39.3383	20.5078	36.6241	20.5078	39.0329	20.5078	36.9502	20.5078	38.8214	20.5078	37.3257	20.5078	38.6803	20.5078	37.6936	20.5078	38.5682	20.5078	38.0128	20.5078	38.4405	20.5078	38.2619
21.9727	38.9923	21.9727	38.7363	21.9727	39.1211	21.9727	38.3434	21.9727	39.1414	21.9727	37.813	21.9727	39.0843	21.9727	37.1637	21.9727	38.9992	21.9727	36.4606	21.9727	38.9567	21.9727	35.8673	21.9727	39.043	21.9727	35.6711	21.9727	39.3379	21.9727	36.1343	21.9727	39.88	21.9727	37.221	21.9727	40.6436	21.9727	38.6332	21.9727	41.5503	21.9727	40.0912	21.9727	42.5032	21.9727	41.4448	21.9727	43.4167	21.9727	42.6347	21.9727	44.2281	21.9727	43.6424	21.9727	44.8966	21.9727	44.4631	21.9727	45.3976	21.9727	45.0952	21.9727	45.7174	21.9727	45.5376	21.9727	45.8489	21.9727	45.7891
23.4375	40.3175	23.4375	40.1649	23.4375	40.2195	23.4375	39.7451	23.4375	39.8702	23.4375	39.02	23.4375	39.2494	23.4375	37.9201	23.4375	38.3077	23.4375	36.3198	23.4375	36.9453	23.4375	33.9878	23.4375	34.9595	23.4375	30.5199	23.4375	31.901	23.4375	26.2394	23.4375	26.6031	23.4375	27.8731	23.4375	21.2193	23.4375	32.6727	23.4375	29.1247	23.4375	36.1966	23.4375	34.2503	23.4375	38.7232	23.4375	37.5249	23.4375	40.5929	23.4375	39.8233	23.4375	41.9883	23.4375	41.4925	23.4375	43.0068	23.4375	42.6958	23.4375	43.7001	23.4375	43.5194	23.4375	44.094	23.4375	44.0113	23.4375	44.1985
24.9023	42.0505	24.9023	41.8254	24.9023	42.1231	24.9023	41.4709	24.9023	42.0401	24.9023	41.0443	24.9023	41.8176	24.9023	40.6618	24.9023	41.5	24.9023	40.5105	24.9023	41.1774	24.9023	40.7875	24.9023	40.9948	24.9023	41.5551	24.9023	41.1217	24.9023	42.6807	24.9023	41.6578	24.9023	43.9534	24.9023	42.557	24.9023	45.2085	24.9023	43.6682	24.9023	46.354	24.9023	44.8369	24.9023	47.3482	24.9023	45.9568	24.9023	48.1753	24.9023	46.9685	24.9023	48.8306	24.9023	47.8417	24.9023	49.3131	24.9023	48.5608	24.9023	49.6221	24.9023	49.1166	24.9023	49.7571	24.9023	49.5033	24.9023	49.7174
26.3672	51.4887	26.3672	51.4431	26.3672	51.3935	26.3672	51.2676	26.3672	51.1564	26.3672	50.9853	26.3672	50.7873	26.3672	50.6397	26.3672	50.3163	26.3672	50.3055	26.3672	49.8099	26.3672	50.0923	26.3672	49.3886	26.3672	50.1231	26.3672	49.2232	26.3672	50.4759	26.3672	49.4653	26.3672	51.1309	26.3672	50.1364	26.3672	51.9841	26.3672	51.1084	26.3672	52.9111	26.3672	52.2023	26.3672	53.8138	26.3672	53.2768	26.3672	54.6302	26.3672	54.2467	26.3672	55.325	26.3672	55.0674	26.3672	55.8783	26.3672	55.7175	26.3672	56.2781	26.3672	56.1878	26.3672	56.5156	26.3672	56.4759	26.3672	56.5836
27.832	54.6807	27.832	54.7215	27.832	54.6554	27.832	54.7797	27.832	54.6486	27.832	54.8625	27.832	54.6689	27.832	54.9802	27.832	54.7295	27.832	55.145	27.832	54.8462	27.832	55.3679	27.832	55.0346	27.832	55.6555	27.832	55.3054	27.832	56.0076	27.832	55.6604	27.832	56.4153	27.832	56.0898	27.832	56.862	27.832	56.573	27.832	57.3255	27.832	57.0823	27.832	57.7816	27.832	57.588	27.832	58.2072	27.832	58.0622	27.832	58.5824	27.832	58.4813	27.832	58.8909	27.832	58.8265	27.832	59.1199	27.832	59.0836	27.832	59.2594	27.832	59.2435	27.832	59.302
29.2969	60.3197	29.2969	60.3193	29.2969	60.318	29.2969	60.3177	29.2969	60.3168	29.2969	60.3194	29.2969	60.3227	29.2969	60.3315	29.2969	60.345	29.2969	60.364	29.2969	60.3955	29.2969	60.4278	29.2969	60.4859	29.2969	60.5335	29.2969	60.6255	29.2969	60.689	29.2969	60.8183	29.2969	60.8973	29.2969	61.0621	29.2969	61.1548	29.2969	61.3474	29.2969	61.451	29.2969	61.6592	29.2969	61.7694	29.2969	61.9792	29.2969	62.0897	29.2969	62.2876	29.2969	62.391	29.2969	62.565	29.2969	62.6538	29.2969	62.7939	29.2969	62.8616	29.2969	62.9599	29.2969	63.0021	29.2969	63.0529	29.2969	63.0672
30.7617	64.5308	30.7617	64.5243	30.7617	64.5446	30.7617	64.5258	30.7617	64.5668	30.7617	64.5378	30.7617	64.6	30.7617	64.5644	30.7617	64.6484	30.7617	64.6109	30.7617	64.7168	30.7617	64.683	30.7617	64.81	30.7617	64.786	30.7617	64.9318	30.7617	64.9235	30.7617	65.0839	30.7617	65.0959	30.7617	65.2653	30.7617	65.2999	30.7617	65.4713	30.7617	65.5281	30.7617	65.6941	30.7617	65.7697	30.7617	65.9232	30.7617	66.0113	30.7617	66.1462	30.7617	66.2384	30.7617	66.35	30.7617	66.4364	30.7617	66.5217	30.7617	66.5923	30.7617	66.6497	30.7617	66.6959	30.7617	66.7246	30.7617	66.7407
32.2266	67.2761	32.2266	67.2733	32.2266	67.2916	32.2266	67.284	32.2266	67.3198	32.2266	67.3098	32.2266	67.3615	32.2266	67.3529	32.2266	67.4182	32.2266	67.4155	32.2266	67.4919	32.2266	67.4997	32.2266	67.5845	32.2266	67.6066	32.2266	67.6977	32.2266	67.7361	32.2266	67.832	32.2266	67.8867	32.2266	67.9862	32.2266	68.0553	32.2266	68.1571	32.2266	68.2372	32.2266	68.3392	32.2266	68.4259	32.2266	68.5249	32.2266	68.6131	32.2266	68.705	32.2266	68.7891	32.2266	68.8695	32.2266	68.9433	32.2266	69.0081	32.2266	69.0658	32.2266	69.1112	32.2266	69.1481	32.2266	69.1715	32.2266	69.1841
33.6914	70.0986	33.6914	70.1139	33.6914	70.0962	33.6914	70.142	33.6914	70.1068	33.6914	70.1833	33.6914	70.1314	33.6914	70.2384	33.6914	70.1712	33.6914	70.3079	33.6914	70.2281	33.6914	70.3922	33.6914	70.3037	33.6914	70.4915	33.6914	70.3994	33.6914	70.6055	33.6914	70.5153	33.6914	70.7328	33.6914	70.6502	33.6914	70.8711	33.6914	70.8006	33.6914	71.0167	33.6914	70.9611	33.6914	71.1643	33.6914	71.1248	33.6914	71.3078	33.6914	71.2834	33.6914	71.4401	33.6914	71.4282	33.6914	71.554	33.6914	71.5507	33.6914	71.6424	33.6914	71.6434	33.6914	71.6991	33.6914	71.7007	33.6914	71.7194
35.1562	72.4443	35.1562	72.4473	35.1562	72.4496	35.1562	72.4586	35.1562	72.4634	35.1562	72.4782	35.1562	72.4859	35.1562	72.5061	35.1562	72.5172	35.1562	72.5424	35.1562	72.5574	35.1562	72.5872	35.1562	72.6065	35.1562	72.6404	35.1562	72.6644	35.1562	72.7019	35.1562	72.7307	35.1562	72.7711	35.1562	72.805	35.1562	72.847	35.1562	72.886	35.1562	72.9279	35.1562	72.9718	35.1562	73.0117	35.1562	73.0594	35.1562	73.0953	35.1562	73.1447	35.1562	73.1751	35.1562	73.2228	35.1562	73.2467	35.1562	73.2885	35.1562	73.3053	35.1562	73.3366	35.1562	73.3465	35.1562	73.3633	35.1562	73.3666
36.6211	73.4397	36.6211	73.4419	36.6211	73.4447	36.6211	73.4512	36.6211	73.4568	36.6211	73.4678	36.6211	73.4764	36.6211	73.4917	36.6211	73.5038	36.6211	73.5234	36.6211	73.5393	36.6211	73.563	36.6211	73.583	36.6211	73.6111	36.6211	73.635	36.6211	73.6676	36.6211	73.6953	36.6211	73.7322	36.6211	73.7632	36.6211	73.8042	36.6211	73.8378	36.6211	73.8818	36.6211	73.9172	36.6211	73.9626	36.6211	73.9987	36.6211	74.0433	36.6211	74.0785	36.6211	74.1198	36.6211	74.152	36.6211	74.1874	36.6211	74.2144	36.6211	74.2416	36.6211	74.2611	36.6211	74.2783	36.6211	74.2885	36.6211	74.2944
38.0859	74.2003	38.0859	74.2112	38.0859	74.1965	38.0859	74.2293	38.0859	74.2	38.0859	74.2546	38.0859	74.2111	38.0859	74.2874	38.0859	74.2301	38.0859	74.3277	38.0859	74.2574	38.0859	74.3757	38.0859	74.2934	38.0859	74.4311	38.0859	74.3382	38.0859	74.4936	38.0859	74.3917	38.0859	74.5621	38.0859	74.4537	38.0859	74.6352	38.0859	74.5231	38.0859	74.7108	38.0859	74.5987	38.0859	74.786	38.0859	74.6781	38.0859	74.8575	38.0859	74.7584	38.0859	74.9214	38.0859	74.8355	38.0859	74.9736	38.0859	74.905	38.0859	75.0103	38.0859	74.9625	38.0859	75.0285	38.0859	75.0039	38.0859	75.0264
39.5508	75.2456	39.5508	75.2578	39.5508	75.2436	39.5508	75.2803	39.5508	75.2521	39.5508	75.3124	39.5508	75.271	39.5508	75.3538	39.5508	75.2999	39.5508	75.4039	39.5508	75.3385	39.5508	75.4616	39.5508	75.3861	39.5508	75.5262	39.5508	75.4422	39.5508	75.5962	39.5508	75.5057	39.5508	75.6702	39.5508	75.5756	39.5508	75.7464	39.5508	75.6504	39.5508	75.8227	39.5508	75.7282	39.5508	75.8968	39.5508	75.807	39.5508	75.9657	39.5508	75.884	39.5508	76.0263	39.5508	75.9561	39.5508	76.0755	39.5508	76.0198	39.5508	76.1101	39.5508	76.0715	39.5508	76.1278	39.5508	76.108	39.5508	76.1272
41.0156	76.5297	41.0156	76.5431	41.0156	76.5261	41.0156	76.566	41.0156	76.5322	41.0156	76.5978	41.0156	76.5478	41.0156	76.6377	41.0156	76.5725	41.0156	76.6846	41.0156	76.6058	41.0156	76.7372	41.0156	76.6473	41.0156	76.7941	41.0156	76.6961	41.0156	76.8538	41.0156	76.7515	41.0156	76.9145	41.0156	76.8122	41.0156	76.9748	41.0156	76.8769	41.0156	77.0336	41.0156	76.9437	41.0156	77.0896	41.0156	77.0108	41.0156	77.1418	41.0156	77.0757	41.0156	77.1885	41.0156	77.136	41.0156	77.2275	41.0156	77.1887	41.0156	77.2563	41.0156	77.2308	41.0156	77.2724	41.0156	77.2597	41.0156	77.2738
42.4805	77.5525	42.4805	77.5621	42.4805	77.55	42.4805	77.5786	42.4805	77.5549	42.4805	77.6014	42.4805	77.5671	42.4805	77.63	42.4805	77.5863	42.4805	77.6636	42.4805	77.6121	42.4805	77.7015	42.4805	77.644	42.4805	77.743	42.4805	77.6814	42.4805	77.7874	42.4805	77.7234	42.4805	77.8339	42.4805	77.769	42.4805	77.8816	42.4805	77.8173	42.4805	77.9295	42.4805	77.867	42.4805	77.9762	42.4805	77.9168	42.4805	78.02	42.4805	77.9653	42.4805	78.0585	42.4805	78.0107	42.4805	78.0897	42.4805	78.051	42.4805	78.1114	42.4805	78.0841	42.4805	78.1221	42.4805	78.108	42.4805	78.1209
43.9453	78.1441	43.9453	78.154	43.9453	78.14	43.9453	78.1695	43.9453	78.1423	43.9453	78.1899	43.9453	78.1512	43.9453	78.215	43.9453	78.1666	43.9453	78.2444	43.9453	78.1886	43.9453	78.2777	43.9453	78.2168	43.9453	78.3147	43.9453	78.2506	43.9453	78.3548	43.9453	78.2894	43.9453	78.3977	43.9453	78.3324	43.9453	78.4425	43.9453	78.3785	43.9453	78.4881	43.9453	78.4265	43.9453	78.533	43.9453	78.4753	43.9453	78.5754	43.9453	78.5231	43.9453	78.6129	43.9453	78.5681	43.9453	78.6434	43.9453	78.608	43.9453	78.665	43.9453	78.6406	43.9453	78.6761	43.9453	78.6636	43.9453	78.6757
45.4102	78.6071	45.4102	78.6077	45.4102	78.6147	45.4102	78.6165	45.4102	78.6306	45.4102	78.6332	45.4102	78.6545	45.4102	78.6573	45.4102	78.6862	45.4102	78.6883	45.4102	78.7252	45.4102	78.7255	45.4102	78.7707	45.4102	78.7679	45.4102	78.8218	45.4102	78.8146	45.4102	78.8772	45.4102	78.8647	45.4102	78.9353	45.4102	78.9171	45.4102	78.9943	45.4102	78.9708	45.4102	79.0525	45.4102	79.0245	45.4102	79.1075	45.4102	79.077	45.4102	79.1573	45.4102	79.1264	45.4102	79.1996	45.4102	79.171	45.4102	79.232	45.4102	79.2088	45.4102	79.2528	45.4102	79.2376	45.4102	79.2607	45.4102	79.2554
46.875	78.7262	46.875	78.7252	46.875	78.7395	46.875	78.7365	46.875	78.7649	46.875	78.7598	46.875	78.8019	46.875	78.7942	46.875	78.8498	46.875	78.8389	46.875	78.9078	46.875	78.8924	46.875	78.9746	46.875	78.9533	46.875	79.0488	46.875	79.0202	46.875	79.1286	46.875	79.0915	46.875	79.2119	46.875	79.1658	46.875	79.2963	46.875	79.2416	46.875	79.3789	46.875	79.3174	46.875	79.4565	46.875	79.3913	46.875	79.5258	46.875	79.4613	46.875	79.5833	46.875	79.5249	46.875	79.6261	46.875	79.5793	46.875	79.652	46.875	79.6217	46.875	79.6597	46.875	79.6492
48.3398	79.4219	48.3398	79.4567	48.3398	79.3905	48.3398	79.4939	48.3398	79.3637	48.3398	79.5321	48.3398	79.3425	48.3398	79.5702	48.3398	79.3276	48.3398	79.6069	48.3398	79.3196	48.3398	79.6412	48.3398	79.3187	48.3398	79.6719	48.3398	79.3248	48.3398	79.6981	48.3398	79.3374	48.3398	79.7189	48.3398	79.3555	48.3398	79.7337	48.3398	79.3781	48.3398	79.7418	48.3398	79.4041	48.3398	79.7428	48.3398	79.4326	48.3398	79.7369	48.3398	79.463	48.3398	79.7245	48.3398	79.4948	48.3398	79.7063	48.3398	79.5276	48.3398	79.6832	48.3398	79.561	48.3398	79.6562	48.3398	79.5941	48.3398	79.6262
51.2695	80.7767	51.2695	80.7803	51.2695	80.768	51.2695	80.7782	51.2695	80.7546	51.2695	80.77	51.2695	80.7371	51.2695	80.7556	51.2695	80.716	51.2695	80.7351	51.2695	80.6915	51.2695	80.709	51.2695	80.664	51.2695	80.6781	51.2695	80.6337	51.2695	80.6432	51.2695	80.6009	51.2695	80.6054	51.2695	80.5658	51.2695	80.566	51.2695	80.5288	51.2695	80.5258	51.2695	80.4905	51.2695	80.4862	51.2695	80.4522	51.2695	80.4482	51.2695	80.4156	51.2695	80.4131	51.2695	80.3828	51.2695	80.3822	51.2695	80.3561	51.2695	80.3569	51.2695	80.3375	51.2695	80.3386	51.2695	80.3282	51.2695	80.3287
52.7344	80.8969	52.7344	80.8793	52.7344	80.9141	52.7344	80.8617	52.7344	80.9308	52.7344	80.844	52.7344	80.9465	52.7344	80.8267	52.7344	80.9609	52.7344	80.8101	52.7344	80.9733	52.7344	80.7944	52.7344	80.9833	52.7344	80.7803	52.7344	80.9901	52.7344	80.7681	52.7344	80.9931	52.7344	80.7583	52.7344	80.9917	52.7344	80.7515	52.7344	80.9856	52.7344	80.7481	52.7344	80.975	52.7344	80.7486	52.7344	80.9602	52.7344	80.7533	52.7344	80.942	52.7344	80.7621	52.7344	80.9213	52.7344	80.7748	52.7344	80.8988	52.7344	80.7908	52.7344	80.8757	52.7344	80.8095	52.7344	80.8526	52.7344	80.8303
54.1992	80.9394	54.1992	80.9391	54.1992	80.9398	54.1992	80.9389	54.1992	80.9404	54.1992	80.9388	54.1992	80.9414	54.1992	80.9391	54.1992	80.9429	54.1992	80.9398	54.1992	80.9452	54.1992	80.9411	54.1992	80.9483	54.1992	80.9431	54.1992	80.9522	54.1992	80.9456	54.1992	80.9569	54.1992	80.9486	54.1992	80.9622	54.1992	80.9523	54.1992	80.9679	54.1992	80.9568	54.1992	80.974	54.1992	80.9623	54.1992	80.9801	54.1992	80.9688	54.1992	80.9862	54.1992	80.9762	54.1992	80.9918	54.1992	80.9837	54.1992	80.9964	54.1992	80.9906	54.1992	80.9994	54.1992	80.996	54.1992	81.0005	54.1992	80.9994
55.6641	81.2562	55.6641	81.2825	55.6641	81.2288	55.6641	81.3072	55.6641	81.2009	55.6641	81.3297	55.6641	81.1728	55.6641	81.3494	55.6641	81.1451	55.6641	81.3654	55.6641	81.1182	55.6641	81.377	55.6641	81.0924	55.6641	81.383	55.6641	81.0683	55.6641	81.3825	55.6641	81.0465	55.6641	81.375	55.6641	81.0277	55.6641	81.3601	55.6641	81.0129	55.6641	81.3383	55.6641	81.003	55.6641	81.3102	55.6641	80.9985	55.6641	81.2774	55.6641	80.9999	55.6641	81.2411	55.6641	81.0072	55.6641	81.2031	55.6641	81.0206	55.6641	81.1649	55.6641	81.0397	55.6641	81.1281	55.6641	81.0644	55.6641	81.0942
58.5938	81.6605	58.5938	81.6488	58.5938	81.6756	58.5938	81.6408	58.5938	81.6936	58.5938	81.6365	58.5938	81.7136	58.5938	81.6356	58.5938	81.7346	58.5938	81.6377	58.5938	81.7555	58.5938	81.6421	58.5938	81.7753	58.5938	81.6482	58.5938	81.7928	58.5938	81.6555	58.5938	81.8072	58.5938	81.663	58.5938	81.8176	58.5938	81.6701	58.5938	81.8232	58.5938	81.6762	58.5938	81.8236	58.5938	81.6811	58.5938	81.8186	58.5938	81.6849	58.5938	81.8084	58.5938	81.6884	58.5938	81.7939	58.5938	81.6928	58.5938	81.7763	58.5938	81.6994	58.5938	81.7574	58.5938	81.7091	58.5938	81.7389	58.5938	81.7224
60.0586	82.1517	60.0586	82.1297	60.0586	82.1672	60.0586	82.1015	60.0586	82.1762	60.0586	82.0678	60.0586	82.1789	60.0586	82.0295	60.0586	82.1757	60.0586	81.9877	60.0586	82.167	60.0586	81.9436	60.0586	82.1532	60.0586	81.8987	60.0586	82.1346	60.0586	81.8543	60.0586	82.111	60.0586	81.8119	60.0586	82.0823	60.0586	81.7727	60.0586	82.048	60.0586	81.7376	60.0586	82.008	60.0586	81.7075	60.0586	81.9625	60.0586	81.6832	60.0586	81.9131	60.0586	81.6658	60.0586	81.8617	60.0586	81.6567	60.0586	81.811	60.0586	81.6574	60.0586	81.764	60.0586	81.6688	60.0586	81.7233	60.0586	81.691
62.9883	82.6634	62.9883	82.6707	62.9883	82.6492	62.9883	82.6705	62.9883	82.6286	62.9883	82.6622	62.9883	82.6019	62.9883	82.6451	62.9883	82.5692	62.9883	82.6187	62.9883	82.5307	62.9883	82.5831	62.9883	82.4863	62.9883	82.5383	62.9883	82.4362	62.9883	82.485	62.9883	82.3808	62.9883	82.4244	62.9883	82.3208	62.9883	82.3582	62.9883	82.2575	62.9883	82.2883	62.9883	82.1925	62.9883	82.2174	62.9883	82.1281	62.9883	82.1481	62.9883	82.0673	62.9883	82.0834	62.9883	82.0134	62.9883	82.0263	62.9883	81.9698	62.9883	81.9796	62.9883	81.9395	62.9883	81.9458	62.9883	81.925	62.9883	81.9272
64.4531	82.6917	64.4531	82.6974	64.4531	82.6818	64.4531	82.6984	64.4531	82.6681	64.4531	82.6941	64.4531	82.6509	64.4531	82.6839	64.4531	82.6302	64.4531	82.6672	64.4531	82.6059	64.4531	82.6436	64.4531	82.5778	64.4531	82.6131	64.4531	82.5455	64.4531	82.576	64.4531	82.5089	64.4531	82.5332	64.4531	82.4681	64.4531	82.4858	64.4531	82.4237	64.4531	82.4353	64.4531	82.3769	64.4531	82.3837	64.4531	82.3293	64.4531	82.3329	64.4531	82.2833	64.4531	82.2851	64.4531	82.2415	64.4531	82.2427	64.4531	82.2069	64.4531	82.2079	64.4531	82.1823	64.4531	82.1829	64.4531	82.1695	64.4531	82.1698
67.3828	82.4824	67.3828	82.4734	67.3828	82.4907	67.3828	82.464	67.3828	82.4979	67.3828	82.4546	67.3828	82.5036	67.3828	82.4455	67.3828	82.5076	67.3828	82.4368	67.3828	82.5098	67.3828	82.4285	67.3828	82.5102	67.3828	82.4204	67.3828	82.5089	67.3828	82.4122	67.3828	82.5059	67.3828	82.4036	67.3828	82.5013	67.3828	82.3946	67.3828	82.4949	67.3828	82.3853	67.3828	82.4867	67.3828	82.3761	67.3828	82.4763	67.3828	82.368	67.3828	82.4635	67.3828	82.3623	67.3828	82.4485	67.3828	82.36	67.3828	82.4316	67.3828	82.3623	67.3828	82.4139	67.3828	82.3695	67.3828	82.3966	67.3828	82.3813
68.8477	82.5882	68.8477	82.5828	68.8477	82.5927	68.8477	82.5764	68.8477	82.5957	68.8477	82.569	68.8477	82.5968	68.8477	82.5605	68.8477	82.5954	68.8477	82.5505	68.8477	82.5912	68.8477	82.5386	68.8477	82.584	68.8477	82.5246	68.8477	82.5738	68.8477	82.5087	68.8477	82.561	68.8477	82.4909	68.8477	82.5462	68.8477	82.4719	68.8477	82.5302	68.8477	82.4525	68.8477	82.5139	68.8477	82.4341	68.8477	82.4978	68.8477	82.4181	68.8477	82.4822	68.8477	82.4061	68.8477	82.4671	68.8477	82.3994	68.8477	82.4524	68.8477	82.3985	68.8477	82.4379	68.8477	82.4031	68.8477	82.4242	68.8477	82.4121
71.7773	82.7887	71.7773	82.7776	71.7773	82.8032	71.7773	82.77	71.7773	82.8212	71.7773	82.7658	71.7773	82.8424	71.7773	82.7649	71.7773	82.8661	71.7773	82.7671	71.7773	82.8917	71.7773	82.7722	71.7773	82.9179	71.7773	82.7798	71.7773	82.9436	71.7773	82.7896	71.7773	82.9676	71.7773	82.8015	71.7773	82.9889	71.7773	82.8154	71.7773	83.0069	71.7773	82.8315	71.7773	83.0216	71.7773	82.8503	71.7773	83.0328	71.7773	82.8721	71.7773	83.0403	71.7773	82.8969	71.7773	83.0435	71.7773	82.9238	71.7773	83.0418	71.7773	82.9516	71.7773	83.0345	71.7773	82.9783	71.7773	83.0211	71.7773	83.0021
74.707	83.0803	74.707	83.0578	74.707	83.1031	74.707	83.0361	74.707	83.1254	74.707	83.0157	74.707	83.1468	74.707	82.9971	74.707	83.1666	74.707	82.9806	74.707	83.1842	74.707	82.966	74.707	83.199	74.707	82.9535	74.707	83.2101	74.707	82.9426	74.707	83.2168	74.707	82.9335	74.707	83.2182	74.707	82.9262	74.707	83.2138	74.707	82.9212	74.707	83.2032	74.707	82.9194	74.707	83.1864	74.707	82.9218	74.707	83.1642	74.707	82.9292	74.707	83.1374	74.707	82.9423	74.707	83.1074	74.707	82.9611	74.707	83.0757	74.707	82.985	74.707	83.0438	74.707	83.013
77.6367	83.2698	77.6367	83.2485	77.6367	83.2884	77.6367	83.2249	77.6367	83.3041	77.6367	83.1995	77.6367	83.317	77.6367	83.1731	77.6367	83.3272	77.6367	83.1466	77.6367	83.3349	77.6367	83.1209	77.6367	83.3403	77.6367	83.0965	77.6367	83.3432	77.6367	83.0742	77.6367	83.3435	77.6367	83.0546	77.6367	83.3406	77.6367	83.038	77.6367	83.3337	77.6367	83.0254	77.6367	83.3219	77.6367	83.0175	77.6367	83.3045	77.6367	83.0155	77.6367	83.281	77.6367	83.0202	77.6367	83.2519	77.6367	83.0322	77.6367	83.2184	77.6367	83.0517	77.6367	83.182	77.6367	83.0779	77.6367	83.145	77.6367	83.1096
79.1016	83.4191	79.1016	83.3995	79.1016	83.4303	79.1016	83.3708	79.1016	83.434	79.1016	83.3335	79.1016	83.4313	79.1016	83.2882	79.1016	83.4237	79.1016	83.2366	79.1016	83.4126	79.1016	83.1808	79.1016	83.3987	79.1016	83.1232	79.1016	83.3826	79.1016	83.0665	79.1016	83.3641	79.1016	83.0129	79.1016	83.3425	79.1016	82.9648	79.1016	83.3167	79.1016	82.9241	79.1016	83.2858	79.1016	82.8926	79.1016	83.2488	79.1016	82.8719	79.1016	83.2057	79.1016	82.8632	79.1016	83.1572	79.1016	82.8673	79.1016	83.105	79.1016	82.8842	79.1016	83.0514	79.1016	82.9132	79.1016	82.9995	79.1016	82.9524
82.0312	83.412	82.0312	83.4138	82.0312	83.396	82.0312	83.4005	82.0312	83.3671	82.0312	83.372	82.0312	83.327	82.0312	83.3288	82.0312	83.2778	82.0312	83.2723	82.0312	83.2215	82.0312	83.2041	82.0312	83.1602	82.0312	83.1268	82.0312	83.0953	82.0312	83.043	82.0312	83.0279	82.0312	82.9556	82.0312	82.9586	82.0312	82.8676	82.0312	82.8881	82.0312	82.7817	82.0312	82.817	82.0312	82.7003	82.0312	82.7463	82.0312	82.6262	82.0312	82.6778	82.0312	82.5618	82.0312	82.6137	82.0312	82.5103	82.0312	82.5564	82.0312	82.4743	82.0312	82.5091	82.0312	82.4562	82.0312	82.4749	82.0312	82.4566
84.9609	83.6576	84.9609	83.6618	84.9609	83.6492	84.9609	83.6621	84.9609	83.6359	84.9609	83.6589	84.9609	83.6171	84.9609	83.6522	84.9609	83.5922	84.9609	83.6417	84.9609	83.5606	84.9609	83.627	84.9609	83.5222	84.9609	83.6075	84.9609	83.4772	84.9609	83.5828	84.9609	83.4265	84.9609	83.5523	84.9609	83.3718	84.9609	83.516	84.9609	83.3154	84.9609	83.4738	84.9609	83.2601	84.9609	83.4262	84.9609	83.2089	84.9609	83.374	84.9609	83.1647	84.9609	83.3188	84.9609	83.1301	84.9609	83.2628	84.9609	83.1075	84.9609	83.2096	84.9609	83.0989	84.9609	83.1632	84.9609	83.1056	84.9609	83.1275
87.8906	84.0357	87.8906	84.0613	87.8906	83.9953	87.8906	84.071	87.8906	83.9416	87.8906	84.0644	87.8906	83.8766	87.8906	84.0415	87.8906	83.8025	87.8906	84.0027	87.8906	83.7216	87.8906	83.949	87.8906	83.6363	87.8906	83.8817	87.8906	83.5488	87.8906	83.8025	87.8906	83.4613	87.8906	83.7135	87.8906	83.3757	87.8906	83.6174	87.8906	83.2936	87.8906	83.5173	87.8906	83.2171	87.8906	83.4169	87.8906	83.1481	87.8906	83.32	87.8906	83.0887	87.8906	83.2302	87.8906	83.0409	87.8906	83.1509	87.8906	83.0067	87.8906	83.085	87.8906	82.9878	87.8906	83.0346	87.8906	82.9857	87.8906	83.0013
90.8203	84.0486	90.8203	84.0382	90.8203	84.0516	90.8203	84.0215	90.8203	84.0456	90.8203	83.999	90.8203	84.0287	90.8203	83.9705	90.8203	83.9991	90.8203	83.9351	90.8203	83.9557	90.8203	83.8916	90.8203	83.8981	90.8203	83.8388	90.8203	83.827	90.8203	83.7758	90.8203	83.744	90.8203	83.7024	90.8203	83.652	90.8203	83.6192	90.8203	83.5543	90.8203	83.5282	90.8203	83.4546	90.8203	83.4325	90.8203	83.3572	90.8203	83.3365	90.8203	83.2662	90.8203	83.2455	90.8203	83.1856	90.8203	83.1653	90.8203	83.1193	90.8203	83.1015	90.8203	83.0709	90.8203	83.0584	90.8203	83.0432	90.8203	83.0388
95.2148	83.3641	95.2148	83.3665	95.2148	83.3547	95.2148	83.3598	95.2148	83.3413	95.2148	83.3434	95.2148	83.3276	95.2148	83.3183	95.2148	83.3174	95.2148	83.2867	95.2148	83.3144	95.2148	83.2523	95.2148	83.321	95.2148	83.2195	95.2148	83.3379	95.2148	83.193	95.2148	83.3637	95.2148	83.1768	95.2148	83.3952	95.2148	83.1736	95.2148	83.4279	95.2148	83.1841	95.2148	83.4573	95.2148	83.2072	95.2148	83.4794	95.2148	83.2401	95.2148	83.4918	95.2148	83.2788	95.2148	83.494	95.2148	83.3195	95.2148	83.4869	95.2148	83.3588	95.2148	83.4721	95.2148	83.3944	95.2148	83.4513	95.2148	83.4253
98.1445	83.7701	98.1445	83.7682	98.1445	83.7604	98.1445	83.7543	98.1445	83.74	98.1445	83.7292	98.1445	83.7111	98.1445	83.6944	98.1445	83.6764	98.1445	83.6516	98.1445	83.6396	98.1445	83.6035	98.1445	83.6042	98.1445	83.5526	98.1445	83.5735	98.1445	83.502	98.1445	83.5498	98.1445	83.4547	98.1445	83.5339	98.1445	83.4135	98.1445	83.5248	98.1445	83.3806	98.1445	83.5202	98.1445	83.3576	98.1445	83.5167	98.1445	83.345	98.1445	83.5109	98.1445	83.3427	98.1445	83.5003	98.1445	83.3498	98.1445	83.484	98.1445	83.3647	98.1445	83.4623	98.1445	83.3857	98.1445	83.437	98.1445	83.4106
101.074	83.6512	101.074	83.6508	101.074	83.6436	101.074	83.6424	101.074	83.6289	101.074	83.6267	101.074	83.6086	101.074	83.6048	101.074	83.585	101.074	83.5782	101.074	83.5606	101.074	83.5488	101.074	83.5386	101.074	83.5186	101.074	83.5218	101.074	83.49	101.074	83.5129	101.074	83.4654	101.074	83.5137	101.074	83.4478	101.074	83.5245	101.074	83.4397	101.074	83.5441	101.074	83.443	101.074	83.5693	101.074	83.4585	101.074	83.5963	101.074	83.4848	101.074	83.6205	101.074	83.519	101.074	83.6377	101.074	83.5566	101.074	83.6446	101.074	83.5922	101.074	83.6391	101.074	83.621
105.469	84.0406	105.469	84.0498	105.469	84.0201	105.469	84.047	105.469	83.9899	105.469	84.0318	105.469	83.9516	105.469	84.0048	105.469	83.9071	105.469	83.9668	105.469	83.8585	105.469	83.919	105.469	83.8073	105.469	83.8625	105.469	83.7551	105.469	83.799	105.469	83.7033	105.469	83.7301	105.469	83.6531	105.469	83.658	105.469	83.6056	105.469	83.5858	105.469	83.5618	105.469	83.5173	105.469	83.522	105.469	83.4568	105.469	83.4861	105.469	83.408	105.469	83.4535	105.469	83.3737	105.469	83.4239	105.469	83.3549	105.469	83.3972	105.469	83.3504	105.469	83.3746	105.469	83.358
108.398	84.1937	108.398	84.1893	108.398	84.1797	108.398	84.1666	108.398	84.1481	108.398	84.1266	108.398	84.1009	108.398	84.0711	108.398	84.0407	108.398	84.0026	108.398	83.971	108.398	83.9242	108.398	83.8954	108.398	83.839	108.398	83.8178	108.398	83.7504	108.398	83.7412	108.398	83.6617	108.398	83.6682	108.398	83.5759	108.398	83.6001	108.398	83.4954	108.398	83.5374	108.398	83.4227	108.398	83.4799	108.398	83.3598	108.398	83.4269	108.398	83.3086	108.398	83.3783	108.398	83.2707	108.398	83.3342	108.398	83.2475	108.398	83.2959	108.398	83.2394	108.398	83.2657	108.398	83.246
112.793	84.2836	112.793	84.2753	112.793	84.2731	112.793	84.2487	112.793	84.2442	112.793	84.205	112.793	84.198	112.793	84.1459	112.793	84.1364	112.793	84.0735	112.793	84.0623	112.793	83.9908	112.793	83.9792	112.793	83.9008	112.793	83.8914	112.793	83.8072	112.793	83.8033	112.793	83.714	112.793	83.7194	112.793	83.6251	112.793	83.6429	112.793	83.5444	112.793	83.5763	112.793	83.4753	112.793	83.5203	112.793	83.4199	112.793	83.4742	112.793	83.3793	112.793	83.4368	112.793	83.3534	112.793	83.4063	112.793	83.3408	112.793	83.3813	112.793	83.3393	112.793	83.3613	112.793	83.3469
117.188	84.551	117.188	84.5373	117.188	84.5435	117.188	84.5035	117.188	84.5145	117.188	84.4506	117.188	84.4641	117.188	84.3803	117.188	84.3932	117.188	84.2945	117.188	84.3032	117.188	84.1953	117.188	84.1965	117.188	84.0855	117.188	84.0766	117.188	83.9685	117.188	83.9479	117.188	83.8481	117.188	83.8156	117.188	83.7285	117.188	83.6858	117.188	83.6144	117.188	83.5644	117.188	83.5098	117.188	83.4569	117.188	83.4186	117.188	83.3671	117.188	83.3431	117.188	83.2973	117.188	83.2843	117.188	83.2476	117.188	83.2418	117.188	83.2163	117.188	83.2144	117.188	83.2014	117.188	83.2011
120.117	84.6392	120.117	84.6288	120.117	84.632	120.117	84.6006	120.117	84.6072	120.117	84.5549	120.117	84.5653	120.117	84.4923	120.117	84.5069	120.117	84.4136	120.117	84.4328	120.117	84.3199	120.117	84.3437	120.117	84.2129	120.117	84.2409	120.117	84.0948	120.117	84.1259	120.117	83.9686	120.117	84.0013	120.117	83.838	120.117	83.8703	120.117	83.7071	120.117	83.7375	120.117	83.581	120.117	83.6082	120.117	83.4646	120.117	83.488	120.117	83.3629	120.117	83.3824	120.117	83.2804	120.117	83.2957	120.117	83.2204	120.117	83.2311	120.117	83.1849	120.117	83.1904	120.117	83.1749
124.512	84.5425	124.512	84.544	124.512	84.5273	124.512	84.5319	124.512	84.4992	124.512	84.5064	124.512	84.4594	124.512	84.4685	124.512	84.4096	124.512	84.4195	124.512	84.3518	124.512	84.3608	124.512	84.2882	124.512	84.294	124.512	84.2209	124.512	84.221	124.512	84.1517	124.512	84.1439	124.512	84.0822	124.512	84.0652	124.512	84.0141	124.512	83.9878	124.512	83.949	124.512	83.9148	124.512	83.8887	124.512	83.8494	124.512	83.8348	124.512	83.7944	124.512	83.7888	124.512	83.7516	124.512	83.7517	124.512	83.722	124.512	83.7244	124.512	83.7053	124.512	83.7072	124.512	83.7006
128.906	84.7536	128.906	84.7522	128.906	84.7388	128.906	84.7347	128.906	84.7084	128.906	84.7021	128.906	84.6639	128.906	84.6558	128.906	84.6074	128.906	84.5978	128.906	84.5414	128.906	84.5306	128.906	84.4688	128.906	84.4564	128.906	84.3929	128.906	84.3781	128.906	84.3167	128.906	84.2982	128.906	84.2433	128.906	84.2196	128.906	84.175	128.906	84.1451	128.906	84.114	128.906	84.0778	128.906	84.0614	128.906	84.0202	128.906	84.0176	128.906	83.9743	128.906	83.9823	128.906	83.9412	128.906	83.9547	128.906	83.9207	128.906	83.9339	128.906	83.9114	128.906	83.9195	128.906	83.9116
133.301	84.9277	133.301	84.9267	133.301	84.912	133.301	84.9096	133.301	84.88	133.301	84.8775	133.301	84.8327	133.301	84.8321	133.301	84.7721	133.301	84.7755	133.301	84.7008	133.301	84.7099	133.301	84.6221	133.301	84.6378	133.301	84.5397	133.301	84.5615	133.301	84.4574	133.301	84.4835	133.301	84.3788	133.301	84.4062	133.301	84.3068	133.301	84.3321	133.301	84.2436	133.301	84.2634	133.301	84.1907	133.301	84.2028	133.301	84.1482	133.301	84.1521	133.301	84.1157	133.301	84.1131	133.301	84.092	133.301	84.086	133.301	84.0759	133.301	84.0703	133.301	84.0667	133.301	84.0644
139.16	85.0936	139.16	85.0861	139.16	85.0846	139.16	85.0629	139.16	85.0591	139.16	85.0255	139.16	85.0181	139.16	84.9761	139.16	84.9632	139.16	84.9176	139.16	84.897	139.16	84.8529	139.16	84.8224	139.16	84.7849	139.16	84.7426	139.16	84.7165	139.16	84.6612	139.16	84.6503	139.16	84.5818	139.16	84.588	139.16	84.5078	139.16	84.531	139.16	84.4421	139.16	84.4798	139.16	84.387	139.16	84.4346	139.16	84.3438	139.16	84.3954	139.16	84.3129	139.16	84.3619	139.16	84.294	139.16	84.3342	139.16	84.2859	139.16	84.3122	139.16	84.2871	139.16	84.2963
143.555	85.2521	143.555	85.2392	143.555	85.2453	143.555	85.2069	143.555	85.2199	143.555	85.157	143.555	85.1785	143.555	85.0926	143.555	85.1247	143.555	85.0175	143.555	85.0627	143.555	84.9362	143.555	84.997	143.555	84.8532	143.555	84.9313	143.555	84.7728	143.555	84.8689	143.555	84.6988	143.555	84.8121	143.555	84.6345	143.555	84.7622	143.555	84.5822	143.555	84.7199	143.555	84.5435	143.555	84.6849	143.555	84.5188	143.555	84.6562	143.555	84.5075	143.555	84.6322	143.555	84.5078	143.555	84.611	143.555	84.5172	143.555	84.5911	143.555	84.5327	143.555	84.5712	143.555	84.5514
147.949	85.4864	147.949	85.4801	147.949	85.4694	147.949	85.4508	147.949	85.43	147.949	85.4004	147.949	85.3709	147.949	85.3319	147.949	85.2957	147.949	85.249	147.949	85.2095	147.949	85.1564	147.949	85.1178	147.949	85.0588	147.949	85.0267	147.949	84.961	147.949	84.9414	147.949	84.8678	147.949	84.8664	147.949	84.7835	147.949	84.8043	147.949	84.7117	147.949	84.7559	147.949	84.6552	147.949	84.72	147.949	84.6154	147.949	84.6941	147.949	84.592	147.949	84.6749	147.949	84.5833	147.949	84.659	147.949	84.5861	147.949	84.6437	147.949	84.5967	147.949	84.6279	147.949	84.6116
153.809	85.6417	153.809	85.6389	153.809	85.6213	153.809	85.6135	153.809	85.5782	153.809	85.5672	153.809	85.5144	153.809	85.5027	153.809	85.4332	153.809	85.4231	153.809	85.3391	153.809	85.3322	153.809	85.2376	153.809	85.2341	153.809	85.1351	153.809	85.1332	153.809	85.0378	153.809	85.0341	153.809	84.9517	153.809	84.9418	153.809	84.8813	153.809	84.8617	153.809	84.8289	153.809	84.7981	153.809	84.7943	153.809	84.754	153.809	84.7749	153.809	84.7296	153.809	84.7662	153.809	84.7221	153.809	84.763	153.809	84.7266	153.809	84.7608	153.809	84.7369	153.809	84.7562	153.809	84.7479
159.668	85.8284	159.668	85.8255	159.668	85.8108	159.668	85.8035	159.668	85.7724	159.668	85.7647	159.668	85.7145	159.668	85.7123	159.668	85.6396	159.668	85.6494	159.668	85.5515	159.668	85.5794	159.668	85.4553	159.668	85.5052	159.668	85.3566	159.668	85.4292	159.668	85.2618	159.668	85.3538	159.668	85.1769	159.668	85.2817	159.668	85.1075	159.668	85.2162	159.668	85.0579	159.668	85.1611	159.668	85.0302	159.668	85.1198	159.668	85.0231	159.668	85.0944	159.668	85.0319	159.668	85.0836	159.668	85.0495	159.668	85.0832	159.668	85.0682	159.668	85.0867	159.668	85.082	159.668	85.0878
165.527	85.8977	165.527	85.8621	165.527	85.9091	165.527	85.8055	165.527	85.8961	165.527	85.7328	165.527	85.8599	165.527	85.6509	165.527	85.8042	165.527	85.5674	165.527	85.7334	165.527	85.4894	165.527	85.6529	165.527	85.4225	165.527	85.5681	165.527	85.3697	165.527	85.4842	165.527	85.3314	165.527	85.4062	165.527	85.306	165.527	85.3383	165.527	85.2909	165.527	85.2847	165.527	85.2836	165.527	85.2483	165.527	85.2821	165.527	85.2305	165.527	85.2849	165.527	85.2297	165.527	85.2901	165.527	85.2416	165.527	85.295	165.527	85.2599	165.527	85.2962	165.527	85.278	165.527	85.2908
171.387	86.2526	171.387	86.2253	171.387	86.2466	171.387	86.166	171.387	86.2076	171.387	86.0782	171.387	86.1381	171.387	85.9674	171.387	86.0427	171.387	85.8408	171.387	85.9281	171.387	85.7069	171.387	85.8027	171.387	85.5749	171.387	85.6756	171.387	85.4527	171.387	85.5556	171.387	85.3462	171.387	85.4501	171.387	85.2589	171.387	85.3637	171.387	85.1916	171.387	85.2979	171.387	85.1438	171.387	85.2518	171.387	85.1141	171.387	85.2221	171.387	85.1009	171.387	85.2039	171.387	85.1019	171.387	85.1919	171.387	85.1136	171.387	85.1811	171.387	85.1316	171.387	85.1678	171.387	85.1508
177.246	86.2857	177.246	86.277	177.246	86.2659	177.246	86.2396	177.246	86.2191	177.246	86.1749	177.246	86.1473	177.246	86.086	177.246	86.0538	177.246	85.9781	177.246	85.9426	177.246	85.8578	177.246	85.8193	177.246	85.7335	177.246	85.6906	177.246	85.6135	177.246	85.5641	177.246	85.5057	177.246	85.4477	177.246	85.416	177.246	85.3483	177.246	85.3475	177.246	85.2709	177.246	85.3002	177.246	85.2179	177.246	85.2713	177.246	85.1887	177.246	85.2563	177.246	85.1801	177.246	85.2499	177.246	85.1866	177.246	85.2466	177.246	85.2016	177.246	85.2419	177.246	85.2186	177.246	85.2327
183.105	86.3388	183.105	86.3468	183.105	86.3036	183.105	86.3279	183.105	86.2424	183.105	86.2836	183.105	86.1575	183.105	86.2173	183.105	86.053	183.105	86.1334	183.105	85.9338	183.105	86.0377	183.105	85.806	183.105	85.936	183.105	85.6763	183.105	85.834	183.105	85.5513	183.105	85.7363	183.105	85.4375	183.105	85.6461	183.105	85.3402	183.105	85.5659	183.105	85.2638	183.105	85.497	183.105	85.2113	183.105	85.4402	183.105	85.1836	183.105	85.3954	183.105	85.1792	183.105	85.361	183.105	85.1937	183.105	85.3337	183.105	85.2204	183.105	85.3087	183.105	85.2517	183.105	85.2819
188.965	86.4174	188.965	86.4028	188.965	86.3997	188.965	86.3588	188.965	86.3492	188.965	86.2901	188.965	86.268	188.965	86.203	188.965	86.1608	188.965	86.1044	188.965	86.0349	188.965	86.0014	188.965	85.8996	188.965	85.9001	188.965	85.7657	188.965	85.8056	188.965	85.6436	188.965	85.722	188.965	85.5427	188.965	85.6526	188.965	85.4691	188.965	85.6	188.965	85.425	188.965	85.5652	188.965	85.4087	188.965	85.5475	188.965	85.4153	188.965	85.5434	188.965	85.4377	188.965	85.5476	188.965	85.4685	188.965	85.5533	188.965	85.5004	188.965	85.5543	188.965	85.5277	188.965	85.5462
196.289	86.6262	196.289	86.6031	196.289	86.6102	196.289	86.5436	196.289	86.5547	196.289	86.4535	196.289	86.4625	196.289	86.3409	196.289	86.3385	196.289	86.2155	196.289	86.1899	196.289	86.0874	196.289	86.0256	196.289	85.9653	196.289	85.856	196.289	85.8554	196.289	85.6918	196.289	85.7601	196.289	85.5436	196.289	85.6794	196.289	85.4197	196.289	85.6122	196.289	85.3264	196.289	85.5577	196.289	85.2664	196.289	85.5152	196.289	85.2391	196.289	85.4837	196.289	85.2407	196.289	85.4599	196.289	85.2643	196.289	85.4386	196.289	85.3015	196.289	85.414	196.289	85.3433	196.289	85.3822
203.613	86.6304	203.613	86.5883	203.613	86.6288	203.613	86.5057	203.613	86.5836	203.613	86.3892	203.613	86.4975	203.613	86.2493	203.613	86.3753	203.613	86.099	203.613	86.2247	203.613	85.9522	203.613	86.0556	203.613	85.8206	203.613	85.8802	203.613	85.7112	203.613	85.7124	203.613	85.6256	203.613	85.5661	203.613	85.5612	203.613	85.4528	203.613	85.514	203.613	85.3794	203.613	85.4819	203.613	85.3465	203.613	85.4649	203.613	85.3486	203.613	85.463	203.613	85.3751	203.613	85.473	203.613	85.4138	203.613	85.4882	203.613	85.4528	203.613	85.4994	203.613	85.483	203.613	85.4989
210.938	86.6775	210.938	86.6461	210.938	86.6772	210.938	86.5818	210.938	86.6469	210.938	86.4845	210.938	86.5888	210.938	86.3568	210.938	86.5056	210.938	86.2053	210.938	86.4014	210.938	86.0411	210.938	86.2815	210.938	85.8787	210.938	86.1533	210.938	85.7321	210.938	86.0251	210.938	85.6117	210.938	85.9051	210.938	85.521	210.938	85.8009	210.938	85.4583	210.938	85.7171	210.938	85.4189	210.938	85.6555	210.938	85.3986	210.938	85.6139	210.938	85.3947	210.938	85.5867	210.938	85.4053	210.938	85.5666	210.938	85.4281	210.938	85.5465	210.938	85.4586	210.938	85.5217	210.938	85.4915
218.262	86.5941	218.262	86.5832	218.262	86.5669	218.262	86.5328	218.262	86.5045	218.262	86.4441	218.262	86.4114	218.262	86.3212	218.262	86.2931	218.262	86.1724	218.262	86.1572	218.262	86.01	218.262	86.0133	218.262	85.8498	218.262	85.8735	218.262	85.7078	218.262	85.7513	218.262	85.5971	218.262	85.6596	218.262	85.5251	218.262	85.607	218.262	85.4931	218.262	85.5958	218.262	85.4979	218.262	85.6207	218.262	85.5329	218.262	85.6704	218.262	85.5896	218.262	85.7304	218.262	85.6577	218.262	85.7856	218.262	85.7262	218.262	85.8237	218.262	85.7843	218.262	85.8372	218.262	85.8233
225.586	86.8076	225.586	86.8253	225.586	86.7439	225.586	86.7977	225.586	86.6358	225.586	86.7279	225.586	86.4878	225.586	86.6214	225.586	86.307	225.586	86.4865	225.586	86.1029	225.586	86.3342	225.586	85.8872	225.586	86.1779	225.586	85.6743	225.586	86.0312	225.586	85.4809	225.586	85.9056	225.586	85.3255	225.586	85.8089	225.586	85.2249	225.586	85.7452	225.586	85.1901	225.586	85.7163	225.586	85.2225	225.586	85.7213	225.586	85.3118	225.586	85.7544	225.586	85.4386	225.586	85.8033	225.586	85.5786	225.586	85.85	225.586	85.7076	225.586	85.875	225.586	85.8063	225.586	85.8629
232.91	86.9182	232.91	86.8739	232.91	86.9124	232.91	86.786	232.91	86.8527	232.91	86.6629	232.91	86.7387	232.91	86.5139	232.91	86.5741	232.91	86.3488	232.91	86.3661	232.91	86.1776	232.91	86.1252	232.91	86.0109	232.91	85.8655	232.91	85.8588	232.91	85.6039	232.91	85.7294	232.91	85.361	232.91	85.6274	232.91	85.16	232.91	85.5539	232.91	85.0234	232.91	85.5082	232.91	84.9667	232.91	85.4891	232.91	84.9914	232.91	85.4933	232.91	85.0817	232.91	85.5135	232.91	85.2089	232.91	85.5357	232.91	85.3401	232.91	85.5422	232.91	85.4478	232.91	85.516
241.699	86.7821	241.699	86.7461	241.699	86.7649	241.699	86.6596	241.699	86.6962	241.699	86.5293	241.699	86.5818	241.699	86.3656	241.699	86.43	241.699	86.1812	241.699	86.2511	241.699	85.9901	241.699	86.0561	241.699	85.8051	241.699	85.8558	241.699	85.6366	241.699	85.6604	241.699	85.4906	241.699	85.479	241.699	85.3696	241.699	85.3197	241.699	85.2737	241.699	85.1903	241.699	85.2032	241.699	85.0988	241.699	85.1597	241.699	85.0515	241.699	85.1436	241.699	85.0489	241.699	85.1514	241.699	85.0814	241.699	85.1728	241.699	85.1302	241.699	85.1926	241.699	85.1735	241.699	85.1956
250.488	87.0324	250.488	87.005	250.488	86.9947	250.488	86.9129	250.488	86.8957	250.488	86.7613	250.488	86.7427	250.488	86.561	250.488	86.5459	250.488	86.3283	250.488	86.3178	250.488	86.085	250.488	86.0723	250.488	85.8557	250.488	85.8245	250.488	85.6625	250.488	85.5893	250.488	85.5178	250.488	85.381	250.488	85.4197	250.488	85.2123	250.488	85.3549	250.488	85.0924	250.488	85.3073	250.488	85.0248	250.488	85.2668	250.488	85.0062	250.488	85.2327	250.488	85.0264	250.488	85.2093	250.488	85.0704	250.488	85.1984	250.488	85.1206	250.488	85.1943	250.488	85.1617	250.488	85.1856
259.277	87.1747	259.277	87.14	259.277	87.1396	259.277	87.0388	259.277	87.035	259.277	86.8769	259.277	86.8654	259.277	86.6628	259.277	86.6401	259.277	86.4077	259.277	86.3743	259.277	86.127	259.277	86.0885	259.277	85.8412	259.277	85.8065	259.277	85.5768	259.277	85.5503	259.277	85.3617	259.277	85.3364	259.277	85.2171	259.277	85.1729	259.277	85.1479	259.277	85.0611	259.277	85.1412	259.277	84.9986	259.277	85.172	259.277	84.9806	259.277	85.2139	259.277	84.999	259.277	85.246	259.277	85.0426	259.277	85.2567	259.277	85.0992	259.277	85.2431	259.277	85.1574	259.277	85.208
268.066	87.1117	268.066	87.0466	268.066	87.107	268.066	86.9164	268.066	87.0315	268.066	86.7296	268.066	86.8872	268.066	86.4979	268.066	86.6791	268.066	86.2362	268.066	86.4161	268.066	85.9619	268.066	86.1128	268.066	85.6945	268.066	85.7913	268.066	85.4555	268.066	85.4824	268.066	85.2662	268.066	85.22	268.066	85.142	268.066	85.0304	268.066	85.0866	268.066	84.9213	268.066	85.089	268.066	84.8824	268.066	85.1266	268.066	84.8958	268.066	85.1743	268.066	84.9447	268.066	85.2129	268.066	85.0144	268.066	85.2327	268.066	85.0899	268.066	85.2304	268.066	85.1569	268.066	85.2051
276.855	87.1455	276.855	87.1179	276.855	87.1272	276.855	87.0399	276.855	87.0646	276.855	86.9062	276.855	86.9563	276.855	86.7135	276.855	86.7983	276.855	86.4642	276.855	86.5861	276.855	86.1697	276.855	86.3167	276.855	85.8529	276.855	85.9932	276.855	85.5476	276.855	85.6314	276.855	85.2915	276.855	85.2661	276.855	85.1141	276.855	84.9496	276.855	85.0286	276.855	84.7341	276.855	85.03	276.855	84.6436	276.855	85.0995	276.855	84.6617	276.855	85.2055	276.855	84.7497	276.855	85.3074	276.855	84.8743	276.855	85.3662	276.855	85.016	276.855	85.3581	276.855	85.1596	276.855	85.2827
287.109	86.9684	287.109	86.9645	287.109	86.9166	287.109	86.8994	287.109	86.8157	287.109	86.7695	287.109	86.6735	287.109	86.5731	287.109	86.4992	287.109	86.3122	287.109	86.3034	287.109	85.997	287.109	86.0983	287.109	85.6533	287.109	85.8955	287.109	85.3269	287.109	85.7017	287.109	85.0756	287.109	85.5178	287.109	84.943	287.109	85.3457	287.109	84.9298	287.109	85.1981	287.109	84.9957	287.109	85.0996	287.109	85.0918	287.109	85.074	287.109	85.19	287.109	85.1232	287.109	85.2832	287.109	85.2217	287.109	85.3672	287.109	85.3301	287.109	85.4281	287.109	85.4125	287.109	85.4468
297.363	87.3044	297.363	87.3345	297.363	87.2098	297.363	87.3059	297.363	87.0475	297.363	87.2241	297.363	86.8181	297.363	87.091	297.363	86.5244	297.363	86.905	297.363	86.1715	297.363	86.6629	297.363	85.7724	297.363	86.361	297.363	85.3574	297.363	86.0005	297.363	84.979	297.363	85.5974	297.363	84.7029	297.363	85.1954	297.363	84.5814	297.363	84.8672	297.363	84.6237	297.363	84.6889	297.363	84.7907	297.363	84.6943	297.363	85.0169	297.363	84.8502	297.363	85.24	297.363	85.0794	297.363	85.4188	297.363	85.3034	297.363	85.5347	297.363	85.4713	297.363	85.5839	297.363	85.5644
307.617	87.0205	307.617	86.9628	307.617	87.0139	307.617	86.8414	307.617	86.9478	307.617	86.6615	307.617	86.8311	307.617	86.4293	307.617	86.6731	307.617	86.152	307.617	86.4793	307.617	85.8434	307.617	86.249	307.617	85.532	307.617	85.9781	307.617	85.2605	307.617	85.6668	307.617	85.0676	307.617	85.3274	307.617	84.9616	307.617	84.9889	307.617	84.9127	307.617	84.6946	307.617	84.8742	307.617	84.4944	307.617	84.816	307.617	84.4269	307.617	84.7449	307.617	84.4927	307.617	84.6981	307.617	84.6398	307.617	84.7101	307.617	84.7855	307.617	84.7764	307.617	84.8615	307.617	84.8475
319.336	87.1729	319.336	87.0863	319.336	87.1517	319.336	86.9035	319.336	87.0196	319.336	86.6415	319.336	86.7835	319.336	86.3165	319.336	86.46	319.336	85.9394	319.336	86.0765	319.336	85.5168	319.336	85.6684	319.336	85.0606	319.336	85.2763	319.336	84.6042	319.336	84.9381	319.336	84.2136	319.336	84.6811	319.336	83.9725	319.336	84.5143	319.336	83.9343	319.336	84.4282	319.336	84.0747	319.336	84.4025	319.336	84.3032	319.336	84.4172	319.336	84.5201	319.336	84.457	319.336	84.6633	319.336	84.5094	319.336	84.7196	319.336	84.5649	319.336	84.711	319.336	84.6188	319.336	84.67
329.59	86.8639	329.59	86.8184	329.59	86.8574	329.59	86.7256	329.59	86.7896	329.59	86.5852	329.59	86.6494	329.59	86.3948	329.59	86.43	329.59	86.1512	329.59	86.1323	329.59	85.8504	329.59	85.7682	329.59	85.4895	329.59	85.3612	329.59	85.0775	329.59	84.9468	329.59	84.6475	329.59	84.5674	329.59	84.2622	329.59	84.2624	329.59	83.9973	329.59	84.0549	329.59	83.9039	329.59	83.9456	329.59	83.9749	329.59	83.9193	329.59	84.1461	329.59	83.9594	329.59	84.3323	329.59	84.0537	329.59	84.4635	329.59	84.1874	329.59	84.5037	329.59	84.3332	329.59	84.4518
341.309	86.7246	341.309	86.716	341.309	86.6522	341.309	86.625	341.309	86.4995	341.309	86.4528	341.309	86.2673	341.309	86.2108	341.309	85.9615	341.309	85.9246	341.309	85.5949	341.309	85.6267	341.309	85.1881	341.309	85.3387	341.309	84.7699	341.309	85.0572	341.309	84.3788	341.309	84.7615	341.309	84.0589	341.309	84.4395	341.309	83.8477	341.309	84.1101	341.309	83.7606	341.309	83.8236	341.309	83.7848	341.309	83.6388	341.309	83.8859	341.309	83.5905	341.309	84.0175	341.309	83.6676	341.309	84.1332	341.309	83.8199	341.309	84.198	341.309	83.9863	341.309	84.1941	341.309	84.1199
353.027	86.7253	353.027	86.7846	353.027	86.6181	353.027	86.7795	353.027	86.4754	353.027	86.6907	353.027	86.3011	353.027	86.4999	353.027	86.0892	353.027	86.198	353.027	85.8257	353.027	85.7976	353.027	85.498	353.027	85.3402	353.027	85.1047	353.027	84.8879	353.027	84.6609	353.027	84.4975	353.027	84.196	353.027	84.1972	353.027	83.748	353.027	83.9867	353.027	83.36	353.027	83.8556	353.027	83.0772	353.027	83.7945	353.027	82.9447	353.027	83.7953	353.027	82.9919	353.027	83.8455	353.027	83.2018	353.027	83.9181	353.027	83.4955	353.027	83.9647	353.027	83.7637	353.027	83.926
366.211	86.2844	366.211	86.1917	366.211	86.2818	366.211	86.0077	366.211	86.1972	366.211	85.755	366.211	86.0516	366.211	85.4661	366.211	85.8606	366.211	85.1736	366.211	85.6307	366.211	84.9024	366.211	85.3661	366.211	84.6694	366.211	85.0797	366.211	84.4822	366.211	84.7961	366.211	84.3337	366.211	84.5436	366.211	84.1997	366.211	84.3414	366.211	84.0559	366.211	84.1886	366.211	83.903	366.211	84.0655	366.211	83.7706	366.211	83.9479	366.211	83.6852	366.211	83.8244	366.211	83.6395	366.211	83.7019	366.211	83.6037	366.211	83.6003	366.211	83.5629	366.211	83.5409	366.211	83.5328
379.395	86.295	379.395	86.274	379.395	86.2225	379.395	86.1685	379.395	86.0527	379.395	85.986	379.395	85.793	379.395	85.7276	379.395	85.4661	379.395	85.3925	379.395	85.1086	379.395	84.9931	379.395	84.7627	379.395	84.5723	379.395	84.4641	379.395	84.2062	379.395	84.2386	379.395	83.9737	379.395	84.1048	379.395	83.9052	379.395	84.0706	379.395	83.9608	379.395	84.1193	379.395	84.0633	379.395	84.2077	379.395	84.1499	379.395	84.2895	379.395	84.2013	379.395	84.3433	379.395	84.2364	379.395	84.3766	379.395	84.2817	379.395	84.4015	379.395	84.341	379.395	84.412	379.395	84.3919
392.578	86.6696	392.578	86.5933	392.578	86.6399	392.578	86.4239	392.578	86.4853	392.578	86.1663	392.578	86.1896	392.578	85.8245	392.578	85.7477	392.578	85.4112	392.578	85.1748	392.578	84.955	392.578	84.5177	392.578	84.505	392.578	83.8673	392.578	84.1365	392.578	83.3487	392.578	83.9409	392.578	83.0682	392.578	83.9679	392.578	83.0553	392.578	84.1643	392.578	83.267	392.578	84.4096	392.578	83.6274	392.578	84.6125	392.578	84.0478	392.578	84.7555	392.578	84.4396	392.578	84.8639	392.578	84.7412	392.578	84.9572	392.578	84.9345	392.578	85.0289	392.578	85.0336	392.578	85.0598
405.762	87.1964	405.762	87.0077	405.762	87.2268	405.762	86.6731	405.762	87.0967	405.762	86.2183	405.762	86.808	405.762	85.6831	405.762	86.363	405.762	85.117	405.762	85.7639	405.762	84.5716	405.762	85.0239	405.762	84.0866	405.762	84.1954	405.762	83.6888	405.762	83.407	405.762	83.4203	405.762	82.8558	405.762	83.3641	405.762	82.6942	405.762	83.5824	405.762	82.9036	405.762	84.0088	405.762	83.3405	405.762	84.4718	405.762	83.8585	405.762	84.8271	405.762	84.3464	405.762	85.0276	405.762	84.7255	405.762	85.1052	405.762	84.9611	405.762	85.1195	405.762	85.0721	405.762	85.11
420.41	87.4462	420.41	87.384	420.41	87.3849	420.41	87.1856	420.41	87.2127	420.41	86.8393	420.41	86.9389	420.41	86.3335	420.41	86.5682	420.41	85.659	420.41	86.0994	420.41	84.8276	420.41	85.5225	420.41	83.9076	420.41	84.8221	420.41	83.0461	420.41	83.9984	420.41	82.4218	420.41	83.1154	420.41	82.1551	420.41	82.3463	420.41	82.2868	420.41	81.9312	420.41	82.791	420.41	81.9978	420.41	83.537	420.41	82.4537	420.41	84.3162	420.41	83.1084	420.41	84.9481	420.41	83.8077	420.41	85.3356	420.41	84.4516	420.41	85.4539	420.41	84.9727	420.41	85.321
435.059	87.1443	435.059	87.0677	435.059	87.1274	435.059	86.9062	435.059	87.0005	435.059	86.6524	435.059	86.7509	435.059	86.2831	435.059	86.3763	435.059	85.7643	435.059	85.8812	435.059	85.0596	435.059	85.2684	435.059	84.1527	435.059	84.5398	435.059	83.0913	435.059	83.7196	435.059	82.039	435.059	82.8973	435.059	81.2798	435.059	82.2462	435.059	81.072	435.059	81.9536	435.059	81.4301	435.059	82.0865	435.059	82.1373	435.059	82.5535	435.059	82.948	435.059	83.19	435.059	83.6945	435.059	83.8358	435.059	84.2817	435.059	84.3657	435.059	84.6584	435.059	84.6997	435.059	84.8003
451.172	87.5591	451.172	87.4541	451.172	87.5028	451.172	87.1944	451.172	87.2985	451.172	86.8106	451.172	86.9646	451.172	86.3454	451.172	86.5103	451.172	85.829	451.172	85.9337	451.172	85.2563	451.172	85.2327	451.172	84.5895	451.172	84.4241	451.172	83.7977	451.172	83.558	451.172	82.9176	451.172	82.7222	451.172	82.099	451.172	82.0336	451.172	81.5707	451.172	81.6132	451.172	81.4871	451.172	81.5272	451.172	81.7919	451.172	81.7314	451.172	82.2765	451.172	82.0984	451.172	82.7385	451.172	82.5022	451.172	83.0662	451.172	82.8579	451.172	83.2315	451.172	83.1143	451.172	83.2435
465.82	87.169	465.82	87.1303	465.82	87.1411	465.82	87.0011	465.82	87.0499	465.82	86.7548	465.82	86.8725	465.82	86.3786	465.82	86.5727	465.82	85.8745	465.82	86.1197	465.82	85.2462	465.82	85.5012	465.82	84.4889	465.82	84.7256	465.82	83.6212	465.82	83.822	465.82	82.7619	465.82	82.86	465.82	82.1388	465.82	81.9924	465.82	81.8952	465.82	81.4468	465.82	81.9318	465.82	81.363	465.82	82.0938	465.82	81.6491	465.82	82.3599	465.82	82.1084	465.82	82.7593	465.82	82.6114	465.82	83.2149	465.82	83.0917	465.82	83.5569	465.82	83.4718	465.82	83.6505
483.398	87.1564	483.398	87.1214	483.398	87.1011	483.398	86.9854	483.398	86.9713	483.398	86.7402	483.398	86.7756	483.398	86.3773	483.398	86.4949	483.398	85.8954	483.398	86.0775	483.398	85.31	483.398	85.474	483.398	84.6302	483.398	84.6967	483.398	83.808	483.398	83.8411	483.398	82.7524	483.398	83.0102	483.398	81.5022	483.398	82.2168	483.398	80.513	483.398	81.4719	483.398	80.4702	483.398	81.0167	483.398	81.2468	483.398	81.198	483.398	82.1276	483.398	81.892	483.398	82.7626	483.398	82.6243	483.398	83.1518	483.398	83.1301	483.398	83.3728	483.398	83.3903	483.398	83.4575
499.512	86.6204	499.512	86.5969	499.512	86.5974	499.512	86.5191	499.512	86.5057	499.512	86.3376	499.512	86.3226	499.512	85.98	499.512	86.0455	499.512	85.3959	499.512	85.6743	499.512	84.6172	499.512	85.1684	499.512	83.7902	499.512	84.4498	499.512	83.0872	499.512	83.4934	499.512	82.5221	499.512	82.453	499.512	81.9634	499.512	81.6554	499.512	81.4183	499.512	81.2771	499.512	81.1741	499.512	81.1793	499.512	81.4465	499.512	81.2909	499.512	82.0484	499.512	81.7169	499.512	82.6894	499.512	82.4029	499.512	83.222	499.512	83.0852	499.512	83.5788	499.512	83.5434	499.512	83.7025
517.09	87.1123	517.09	86.9434	517.09	87.1344	517.09	86.6723	517.09	86.99	517.09	86.356	517.09	86.6894	517.09	86.0329	517.09	86.2712	517.09	85.6677	517.09	85.7838	517.09	85.1299	517.09	85.257	517.09	84.275	517.09	84.6748	517.09	83.1052	517.09	83.965	517.09	81.8834	517.09	83.0496	517.09	80.9707	517.09	81.9945	517.09	80.5025	517.09	81.1531	517.09	80.5366	517.09	80.9268	517.09	81.1767	517.09	81.2422	517.09	82.1991	517.09	81.7724	517.09	83.1481	517.09	82.379	517.09	83.755	517.09	83.0094	517.09	83.987	517.09	83.5534	517.09	83.901
536.133	87.1368	536.133	87.0993	536.133	87.0705	536.133	86.9541	536.133	86.9033	536.133	86.6976	536.133	86.6287	536.133	86.3266	536.133	86.2235	536.133	85.8435	536.133	85.6594	536.133	85.2586	536.133	84.9286	536.133	84.5651	536.133	84.0423	536.133	83.7029	536.133	82.9946	536.133	82.5786	536.133	81.7659	536.133	81.1848	536.133	80.4344	536.133	79.8346	536.133	79.374	536.133	79.3011	536.133	79.1928	536.133	79.9209	536.133	79.9727	536.133	80.9199	536.133	81.1163	536.133	81.6499	536.133	82.1191	536.133	82.0781	536.133	82.7489	536.133	82.4172	536.133	82.9311	536.133	82.7508
555.176	86.9213	555.176	86.9381	555.176	86.8679	555.176	86.8667	555.176	86.8283	555.176	86.6913	555.176	86.7787	555.176	86.4041	555.176	86.6222	555.176	85.966	555.176	86.2776	555.176	85.3141	555.176	85.7402	555.176	84.4195	555.176	85.0459	555.176	83.3424	555.176	84.1976	555.176	82.2093	555.176	83.1574	555.176	81.1433	555.176	81.9319	555.176	80.3228	555.176	80.6935	555.176	80.028	555.176	79.8352	555.176	80.3179	555.176	79.7414	555.176	80.9602	555.176	80.324	555.176	81.7724	555.176	81.151	555.176	82.579	555.176	81.9561	555.176	83.0868	555.176	82.6505	555.176	83.0932
574.219	87.0144	574.219	86.8854	574.219	87.0058	574.219	86.6861	574.219	86.8356	574.219	86.4663	574.219	86.5525	574.219	86.2343	574.219	86.2177	574.219	85.9637	574.219	85.8175	574.219	85.588	574.219	85.2855	574.219	84.9926	574.219	84.592	574.219	84.0675	574.219	83.7569	574.219	82.7967	574.219	82.7949	574.219	81.2958	574.219	81.7542	574.219	79.8511	574.219	80.8404	574.219	79.1595	574.219	80.359	574.219	79.829	574.219	80.4938	574.219	81.1381	574.219	81.2063	574.219	82.2543	574.219	82.2201	574.219	83.0517	574.219	83.156	574.219	83.607	574.219	83.7409	574.219	83.8756
594.727	86.7975	594.727	86.8282	594.727	86.6969	594.727	86.732	594.727	86.571	594.727	86.5008	594.727	86.4242	594.727	86.1725	594.727	86.2344	594.727	85.7585	594.727	85.942	594.727	85.2083	594.727	85.4387	594.727	84.457	594.727	84.6389	594.727	83.4908	594.727	83.5842	594.727	82.3726	594.727	82.3917	594.727	81.1868	594.727	81.0392	594.727	79.9829	594.727	79.4585	594.727	79.1184	594.727	78.2519	594.727	79.5276	594.727	78.5147	594.727	81.0558	594.727	79.7661	594.727	82.4697	594.727	81.0815	594.727	83.2823	594.727	82.2085	594.727	83.5818	594.727	83.039	594.727	83.496
615.234	86.6571	615.234	86.6888	615.234	86.6517	615.234	86.7189	615.234	86.6281	615.234	86.6263	615.234	86.5393	615.234	86.328	615.234	86.3475	615.234	85.8745	615.234	86.0373	615.234	85.3543	615.234	85.609	615.234	84.7459	615.234	85.0083	615.234	83.9186	615.234	84.1021	615.234	82.7249	615.234	82.7841	615.234	81.105	615.234	81.0769	615.234	79.2906	615.234	79.1177	615.234	77.956	615.234	77.3884	615.234	77.6619	615.234	77.2275	615.234	78.3054	615.234	78.711	615.234	79.4572	615.234	80.2178	615.234	80.6054	615.234	81.155	615.234	81.3932	615.234	81.6197	615.234	81.7125
637.207	86.4824	637.207	86.3453	637.207	86.4762	637.207	86.135	637.207	86.3258	637.207	85.9415	637.207	86.0644	637.207	85.7705	637.207	85.7264	637.207	85.5648	637.207	85.3386	637.207	85.299	637.207	84.9118	637.207	84.9335	637.207	84.4352	637.207	84.3203	637.207	83.8743	637.207	83.2989	637.207	83.1512	637.207	81.8926	637.207	82.1613	637.207	80.3093	637.207	80.8973	637.207	78.8029	637.207	79.6061	637.207	78.0666	637.207	78.8668	637.207	78.8829	637.207	79.1982	637.207	80.349	637.207	80.2963	637.207	81.5002	637.207	81.4312	637.207	82.1872	637.207	82.1771	637.207	82.4237
659.18	86.3885	659.18	86.2347	659.18	86.4091	659.18	85.9594	659.18	86.2938	659.18	85.6402	659.18	86.0404	659.18	85.3622	659.18	85.6997	659.18	85.0852	659.18	85.3422	659.18	84.66	659.18	84.9665	659.18	83.952	659.18	84.4808	659.18	82.9408	659.18	83.7421	659.18	81.7595	659.18	82.6434	659.18	80.4774	659.18	81.1757	659.18	78.943	659.18	79.4145	659.18	77.4449	659.18	77.8771	659.18	77.4	659.18	77.7659	659.18	79.0381	659.18	78.8591	659.18	80.8014	659.18	80.0275	659.18	81.9097	659.18	81.0103	659.18	82.3133	659.18	81.7651	659.18	82.2159
682.617	86.3966	682.617	86.4298	682.617	86.2303	682.617	86.2826	682.617	86.0003	682.617	85.9715	682.617	85.795	682.617	85.6309	682.617	85.6368	682.617	85.3614	682.617	85.4202	682.617	85.0467	682.617	85.0094	682.617	84.4721	682.617	84.3225	682.617	83.5038	682.617	83.2995	682.617	82.1103	682.617	81.8933	682.617	80.3147	682.617	80.1896	682.617	78.2741	682.617	78.4332	682.617	76.8322	682.617	76.7738	682.617	77.0777	682.617	75.9411	682.617	78.2877	682.617	77.3887	682.617	79.559	682.617	79.6153	682.617	80.7351	682.617	81.1501	682.617	81.6733	682.617	81.9493	682.617	82.1208
707.52	85.9916	707.52	85.9638	707.52	85.9997	707.52	85.9238	707.52	85.9072	707.52	85.7636	707.52	85.6951	707.52	85.4342	707.52	85.4091	707.52	85.082	707.52	85.1084	707.52	84.8066	707.52	84.8199	707.52	84.3709	707.52	84.4749	707.52	83.5795	707.52	83.9064	707.52	82.5726	707.52	82.9623	707.52	81.4156	707.52	81.6199	707.52	79.6633	707.52	79.8717	707.52	76.9477	707.52	77.5438	707.52	74.9432	707.52	75.1226	707.52	76.0394	707.52	75.1892	707.52	78.1003	707.52	77.2877	707.52	79.9736	707.52	79.2597	707.52	81.1952	707.52	80.7109	707.52	81.4318
732.422	86.2912	732.422	86.0679	732.422	86.3586	732.422	85.878	732.422	86.0934	732.422	85.7179	732.422	85.5625	732.422	85.4577	732.422	85.057	732.422	85.0593	732.422	84.7709	732.422	84.6411	732.422	84.5606	732.422	84.2489	732.422	84.2391	732.422	83.6005	732.422	83.7959	732.422	82.3588	732.422	83.1866	732.422	80.5465	732.422	82.254	732.422	78.3476	732.422	80.7747	732.422	76.0792	732.422	78.4649	732.422	75.3075	732.422	75.8858	732.422	76.7132	732.422	76.2064	732.422	78.6868	732.422	78.3871	732.422	80.2759	732.422	79.7175	732.422	80.9905	732.422	80.3768	732.422	80.864
757.324	86.1292	757.324	85.9049	757.324	86.0594	757.324	85.424	757.324	85.7703	757.324	84.8765	757.324	85.342	757.324	84.4359	757.324	84.8368	757.324	84.1557	757.324	84.3998	757.324	84.0395	757.324	84.1791	757.324	83.9791	757.324	83.9698	757.324	83.7321	757.324	83.4101	757.324	83.0251	757.324	82.4793	757.324	81.7589	757.324	81.3405	757.324	79.9323	757.324	79.9354	757.324	77.1412	757.324	78.1895	757.324	74.1689	757.324	76.2426	757.324	75.7255	757.324	75.3514	757.324	78.4016	757.324	77.1012	757.324	80.0277	757.324	79.2506	757.324	80.8764	757.324	80.5594	757.324	81.0644
785.156	85.5534	785.156	85.679	785.156	85.3345	785.156	85.4028	785.156	85.2421	785.156	84.8932	785.156	85.1329	785.156	84.5399	785.156	84.8808	785.156	84.1837	785.156	84.4546	785.156	83.566	785.156	83.8315	785.156	82.8832	785.156	83.2463	785.156	82.2466	785.156	82.8061	785.156	81.4408	785.156	82.1417	785.156	80.2959	785.156	81.1587	785.156	78.6852	785.156	79.9597	785.156	76.5332	785.156	78.2271	785.156	74.7894	785.156	76.0459	785.156	75.3586	785.156	75.1233	785.156	76.7444	785.156	76.01	785.156	77.6787	785.156	77.7443	785.156	78.718	785.156	79.2715	785.156	79.5697
811.523	86.1882	811.523	85.8216	811.523	86.3594	811.523	85.5413	811.523	86.0744	811.523	85.1215	811.523	85.4381	811.523	84.3914	811.523	84.6634	811.523	83.7757	811.523	84.0407	811.523	83.5798	811.523	83.7644	811.523	83.5818	811.523	83.4947	811.523	83.4713	811.523	82.9481	811.523	82.8304	811.523	82.4749	811.523	81.3223	811.523	82.1401	811.523	79.029	811.523	80.9883	811.523	76.4072	811.523	77.9888	811.523	74.074	811.523	74.7142	811.523	75.1965	811.523	75.6056	811.523	78.1152	811.523	77.8146	811.523	79.8709	811.523	79.3871	811.523	80.4784	811.523	80.1846	811.523	80.4992
840.82	85.9878	840.82	86.1565	840.82	85.7347	840.82	86.0768	840.82	85.4448	840.82	85.6558	840.82	84.9661	840.82	84.8648	840.82	84.2494	840.82	83.8779	840.82	83.5145	840.82	83.0755	840.82	83.1054	840.82	82.5552	840.82	83.0345	840.82	82.0854	840.82	82.8685	840.82	81.5861	840.82	82.3786	840.82	80.9654	840.82	81.6326	840.82	79.4134	840.82	80.4597	840.82	76.0702	840.82	78.6162	840.82	71.8486	840.82	76.45	840.82	72.8014	840.82	75.8325	840.82	76.1373	840.82	77.2536	840.82	78.4575	840.82	78.7914	840.82	79.8342	840.82	79.8434	840.82	80.2635
870.117	86.7215	870.117	86.4239	870.117	86.7358	870.117	86.0483	870.117	86.4555	870.117	85.7028	870.117	86.0589	870.117	85.2413	870.117	85.5054	870.117	84.5092	870.117	84.6004	870.117	83.8309	870.117	83.4268	870.117	83.638	870.117	82.5048	870.117	83.5085	870.117	82.1072	870.117	82.7186	870.117	81.5659	870.117	80.9592	870.117	80.7372	870.117	78.4006	870.117	79.5609	870.117	75.594	870.117	76.6433	870.117	71.8735	870.117	71.7195	870.117	68.4552	870.117	73.6413	870.117	73.4599	870.117	77.274	870.117	78.008	870.117	79.2178	870.117	79.878	870.117	80.029	870.117	80.2173
900.879	86.7579	900.879	86.7974	900.879	86.6399	900.879	86.5731	900.879	86.571	900.879	86.1632	900.879	86.2928	900.879	85.6586	900.879	85.6261	900.879	84.9139	900.879	84.9177	900.879	83.8006	900.879	84.4622	900.879	82.7565	900.879	84.0111	900.879	82.5026	900.879	83.4089	900.879	82.8526	900.879	82.6713	900.879	82.7717	900.879	81.8347	900.879	81.4403	900.879	80.9657	900.879	78.5366	900.879	79.2787	900.879	74.1687	900.879	75.4578	900.879	70.014	900.879	72.0464	900.879	72.8679	900.879	74.4908	900.879	77.2344	900.879	76.9755	900.879	79.2588	900.879	78.7584	900.879	79.6267
933.105	86.5488	933.105	86.3678	933.105	86.6837	933.105	86.2423	933.105	86.4222	933.105	85.8544	933.105	85.6548	933.105	85.0509	933.105	84.6058	933.105	84.208	933.105	83.5938	933.105	83.618	933.105	82.9373	933.105	83.2601	933.105	82.7156	933.105	83.3989	933.105	82.5913	933.105	83.5244	933.105	82.4722	933.105	82.8088	933.105	82.4338	933.105	81.0058	933.105	81.901	933.105	78.0922	933.105	79.7362	933.105	74.1016	933.105	74.9379	933.105	71.992	933.105	71.8707	933.105	74.963	933.105	76.4439	933.105	77.7365	933.105	79.4762	933.105	78.9805	933.105	80.1737	933.105	79.6176
965.332	87.2361	965.332	87.214	965.332	86.8424	965.332	86.6799	965.332	86.4555	965.332	85.9953	965.332	86.1348	965.332	85.3729	965.332	85.4728	965.332	84.4333	965.332	84.5474	965.332	83.0853	965.332	83.7959	965.332	82.0892	965.332	83.1557	965.332	81.7006	965.332	82.881	965.332	81.8688	965.332	82.9128	965.332	82.1019	965.332	82.5961	965.332	81.0272	965.332	81.3622	965.332	78.7292	965.332	78.6639	965.332	75.6731	965.332	74.363	965.332	72.5043	965.332	68.3415	965.332	72.5971	965.332	72.8938	965.332	76.4046	965.332	77.9374	965.332	78.9218	965.332	79.9565	965.332	80.1234
1,000.49	86.6033	1,000.49	86.5413	1,000.49	86.3547	1,000.49	86.1405	1,000.49	85.8576	1,000.49	85.3882	1,000.49	85.1898	1,000.49	84.4537	1,000.49	84.1369	1,000.49	83.3649	1,000.49	82.5074	1,000.49	82.2149	1,000.49	80.752	1,000.49	81.1802	1,000.49	79.7958	1,000.49	81.2082	1,000.49	79.7529	1,000.49	82.2071	1,000.49	80.1457	1,000.49	82.165	1,000.49	80.5602	1,000.49	80.5174	1,000.49	80.3909	1,000.49	77.834	1,000.49	78.7719	1,000.49	74.2202	1,000.49	74.751	1,000.49	70.3665	1,000.49	71.8296	1,000.49	74.6573	1,000.49	74.18	1,000.49	78.3319	1,000.49	77.0681	1,000.49	79.4694	1,000.49	79.3602	1,000.49	79.8459
1,035.64	86.8831	1,035.64	86.8409	1,035.64	86.6575	1,035.64	86.704	1,035.64	86.1814	1,035.64	86.1511	1,035.64	85.7489	1,035.64	84.9294	1,035.64	85.076	1,035.64	83.4227	1,035.64	84.0012	1,035.64	82.0666	1,035.64	82.8312	1,035.64	81.017	1,035.64	81.6527	1,035.64	80.8143	1,035.64	80.2144	1,035.64	80.6964	1,035.64	79.0955	1,035.64	80.7242	1,035.64	79.5521	1,035.64	80.3531	1,035.64	79.841	1,035.64	78.2491	1,035.64	78.3368	1,035.64	73.7468	1,035.64	73.7458	1,035.64	69.6865	1,035.64	56.7825	1,035.64	70.8951	1,035.64	71.2686	1,035.64	75.5394	1,035.64	76.8765	1,035.64	78.7066	1,035.64	78.6716	1,035.64	79.2702
1,072.27	86.6422	1,072.27	86.5115	1,072.27	86.6749	1,072.27	86.285	1,072.27	86.4316	1,072.27	85.7298	1,072.27	85.9944	1,072.27	84.806	1,072.27	85.1829	1,072.27	83.928	1,072.27	83.8659	1,072.27	82.829	1,072.27	82.7185	1,072.27	80.7876	1,072.27	81.5137	1,072.27	78.8747	1,072.27	80.0263	1,072.27	79.6433	1,072.27	79.4939	1,072.27	81.0047	1,072.27	79.7811	1,072.27	80.779	1,072.27	79.8089	1,072.27	79.1077	1,072.27	79.0553	1,072.27	76.1873	1,072.27	77.0821	1,072.27	70.4636	1,072.27	72.5727	1,072.27	69.6784	1,072.27	62.9357	1,072.27	74.4851	1,072.27	73.2936	1,072.27	77.0305	1,072.27	77.1569	1,072.27	77.9152
1,108.89	86.4427	1,108.89	86.5751	1,108.89	86.0934	1,108.89	86.0864	1,108.89	85.7507	1,108.89	85.4622	1,108.89	85.0997	1,108.89	84.9267	1,108.89	84.459	1,108.89	83.8433	1,108.89	83.7513	1,108.89	82.7159	1,108.89	82.3513	1,108.89	81.6522	1,108.89	81.261	1,108.89	79.9711	1,108.89	80.4753	1,108.89	79.232	1,108.89	79.167	1,108.89	79.844	1,108.89	78.6604	1,108.89	80.6611	1,108.89	79.7878	1,108.89	79.7696	1,108.89	80.0625	1,108.89	76.7106	1,108.89	77.4448	1,108.89	72.9612	1,108.89	71.9736	1,108.89	69.5979	1,108.89	69.8356	1,108.89	73.3465	1,108.89	72.8008	1,108.89	76.5431	1,108.89	76.1567	1,108.89	77.3007
1,148.44	86.6031	1,148.44	86.3717	1,148.44	86.3456	1,148.44	85.8361	1,148.44	85.609	1,148.44	85.2831	1,148.44	84.8291	1,148.44	84.8149	1,148.44	83.9295	1,148.44	83.8151	1,148.44	82.6304	1,148.44	81.9884	1,148.44	81.5507	1,148.44	80.2806	1,148.44	80.6169	1,148.44	79.0321	1,148.44	79.8606	1,148.44	78.2241	1,148.44	79.1845	1,148.44	79.4614	1,148.44	78.82	1,148.44	80.0444	1,148.44	78.846	1,148.44	78.5402	1,148.44	78.3613	1,148.44	75.115	1,148.44	77.8891	1,148.44	70.5916	1,148.44	75.48	1,148.44	71.1391	1,148.44	67.9901	1,148.44	73.8802	1,148.44	69.9632	1,148.44	75.8555	1,148.44	75.4493	1,148.44	77.4613
1,189.45	86.7258	1,189.45	86.3685	1,189.45	86.3544	1,189.45	85.7885	1,189.45	86.1332	1,189.45	85.2656	1,189.45	85.8706	1,189.45	84.2426	1,189.45	85.0184	1,189.45	83.0302	1,189.45	83.6157	1,189.45	81.5637	1,189.45	81.0537	1,189.45	79.3612	1,189.45	79.3536	1,189.45	77.2507	1,189.45	79.6609	1,189.45	76.657	1,189.45	79.4805	1,189.45	76.55	1,189.45	78.7734	1,189.45	77.4707	1,189.45	77.1828	1,189.45	77.4952	1,189.45	77.043	1,189.45	73.9654	1,189.45	75.9443	1,189.45	69.4964	1,189.45	72.0009	1,189.45	70.5254	1,189.45	71.5986	1,189.45	74.7758	1,189.45	72.306	1,189.45	77.4658	1,189.45	75.5829	1,189.45	77.6747
1,230.47	86.6475	1,230.47	86.2489	1,230.47	86.7855	1,230.47	85.41	1,230.47	86.4104	1,230.47	84.7041	1,230.47	85.6405	1,230.47	83.7985	1,230.47	85.06	1,230.47	82.2063	1,230.47	84.0227	1,230.47	80.4258	1,230.47	81.9602	1,230.47	79.3012	1,230.47	79.7593	1,230.47	78.8553	1,230.47	78.9639	1,230.47	78.2655	1,230.47	78.948	1,230.47	78.2711	1,230.47	78.5064	1,230.47	77.5825	1,230.47	78.7124	1,230.47	76.8661	1,230.47	77.3476	1,230.47	75.5839	1,230.47	76.0335	1,230.47	68.9495	1,230.47	74.131	1,230.47	68.3551	1,230.47	67.6212	1,230.47	73.3705	1,230.47	74.7142	1,230.47	76.6544	1,230.47	76.4994	1,230.47	77.6526
1,274.41	86.5226	1,274.41	86.326	1,274.41	86.4774	1,274.41	86.2048	1,274.41	86.1231	1,274.41	85.6162	1,274.41	85.8477	1,274.41	84.3339	1,274.41	85.0631	1,274.41	83.1981	1,274.41	83.8626	1,274.41	82.1596	1,274.41	82.2843	1,274.41	80.4666	1,274.41	79.7396	1,274.41	79.1057	1,274.41	78.3367	1,274.41	78.2882	1,274.41	77.9862	1,274.41	77.0526	1,274.41	78.9991	1,274.41	77.4557	1,274.41	78.7768	1,274.41	76.5101	1,274.41	78.6876	1,274.41	73.7686	1,274.41	76.9978	1,274.41	68.488	1,274.41	72.4277	1,274.41	66.2898	1,274.41	70.0161	1,274.41	73.6137	1,274.41	72.1202	1,274.41	76.898	1,274.41	76.03	1,274.41	77.3038
1,319.82	86.8345	1,319.82	86.6085	1,319.82	86.9267	1,319.82	86.3055	1,319.82	86.6679	1,319.82	85.9529	1,319.82	85.9956	1,319.82	85.1186	1,319.82	85.0453	1,319.82	83.7878	1,319.82	83.7642	1,319.82	82.5681	1,319.82	81.8838	1,319.82	81.304	1,319.82	80.3513	1,319.82	79.6676	1,319.82	78.6528	1,319.82	76.8998	1,319.82	77.7908	1,319.82	76.6198	1,319.82	78.0259	1,319.82	78.5592	1,319.82	78.7063	1,319.82	79.0463	1,319.82	78.2395	1,319.82	77.0058	1,319.82	76.5407	1,319.82	71.7636	1,319.82	72.8492	1,319.82	62.3664	1,319.82	60.2695	1,319.82	72.6174	1,319.82	72.9881	1,319.82	76.105	1,319.82	76.6259	1,319.82	76.9731
1,366.7	86.998	1,366.7	86.8181	1,366.7	87.0601	1,366.7	86.5924	1,366.7	86.785	1,366.7	85.6822	1,366.7	86.1097	1,366.7	84.9109	1,366.7	85.0186	1,366.7	84.5168	1,366.7	83.913	1,366.7	82.9717	1,366.7	82.6715	1,366.7	80.7506	1,366.7	80.5971	1,366.7	78.7741	1,366.7	78.4485	1,366.7	77.3105	1,366.7	77.4397	1,366.7	77.3392	1,366.7	76.3137	1,366.7	77.6691	1,366.7	77.1308	1,366.7	76.6341	1,366.7	78.5102	1,366.7	74.9458	1,366.7	76.6571	1,366.7	70.3963	1,366.7	71.4515	1,366.7	65.4964	1,366.7	67.895	1,366.7	72.306	1,366.7	69.8845	1,366.7	76.4477	1,366.7	74.3484	1,366.7	77.5216
1,413.57	86.8139	1,413.57	86.6207	1,413.57	86.6073	1,413.57	86.2201	1,413.57	86.3791	1,413.57	85.738	1,413.57	85.5405	1,413.57	84.7358	1,413.57	84.4561	1,413.57	83.8555	1,413.57	83.7614	1,413.57	82.4883	1,413.57	81.9506	1,413.57	80.4354	1,413.57	80.264	1,413.57	78.8219	1,413.57	76.7957	1,413.57	78.9526	1,413.57	74.7295	1,413.57	78.541	1,413.57	76.3243	1,413.57	76.3419	1,413.57	77.9352	1,413.57	75.3669	1,413.57	76.8262	1,413.57	73.9196	1,413.57	72.9943	1,413.57	69.3192	1,413.57	69.4666	1,413.57	63.509	1,413.57	52.23	1,413.57	71.5135	1,413.57	69.6471	1,413.57	75.1988	1,413.57	74.0319	1,413.57	77.2425
1,463.38	86.4787	1,463.38	86.3078	1,463.38	86.3124	1,463.38	85.9429	1,463.38	85.5165	1,463.38	85.4959	1,463.38	84.753	1,463.38	84.0707	1,463.38	84.3878	1,463.38	83.0985	1,463.38	83.3995	1,463.38	81.7649	1,463.38	82.4865	1,463.38	80.4368	1,463.38	81.364	1,463.38	78.2917	1,463.38	78.5505	1,463.38	77.4	1,463.38	74.3711	1,463.38	76.6828	1,463.38	75.312	1,463.38	77.0875	1,463.38	76.2865	1,463.38	76.4484	1,463.38	77.1805	1,463.38	75.4539	1,463.38	76.5381	1,463.38	70.5901	1,463.38	71.9419	1,463.38	52.1158	1,463.38	63.3547	1,463.38	68.8572	1,463.38	66.9459	1,463.38	73.8431	1,463.38	73.8687	1,463.38	73.6929
1,516.11	85.8818	1,516.11	85.564	1,516.11	85.6476	1,516.11	85.1424	1,516.11	85.215	1,516.11	84.4524	1,516.11	84.7637	1,516.11	83.3652	1,516.11	83.6797	1,516.11	82.4771	1,516.11	82.9504	1,516.11	81.19	1,516.11	80.9651	1,516.11	79.642	1,516.11	79.9492	1,516.11	77.1664	1,516.11	78.7414	1,516.11	75.857	1,516.11	75.4033	1,516.11	75.8968	1,516.11	71.9107	1,516.11	75.8606	1,516.11	73.2611	1,516.11	75.0422	1,516.11	74.7693	1,516.11	74.7784	1,516.11	75.2994	1,516.11	72.7949	1,516.11	70.4649	1,516.11	61.1432	1,516.11	63.4329	1,516.11	67.7487	1,516.11	63.7693	1,516.11	72.6032	1,516.11	71.7871	1,516.11	73.6689
1,568.85	85.4258	1,568.85	85.5478	1,568.85	85.2442	1,568.85	84.6439	1,568.85	84.5337	1,568.85	83.1531	1,568.85	84.0111	1,568.85	82.3168	1,568.85	83.4118	1,568.85	80.8609	1,568.85	82.4698	1,568.85	80.1566	1,568.85	81.2527	1,568.85	78.4578	1,568.85	79.6599	1,568.85	76.266	1,568.85	77.7082	1,568.85	75.3543	1,568.85	75.6787	1,568.85	73.9501	1,568.85	73.9178	1,568.85	75.2398	1,568.85	73.0289	1,568.85	74.9918	1,568.85	74.7609	1,568.85	73.7293	1,568.85	73.5099	1,568.85	70.8266	1,568.85	71.7748	1,568.85	61.238	1,568.85	66.6929	1,568.85	62.021	1,568.85	61.9127	1,568.85	71.5479	1,568.85	72.7272	1,568.85	73.0437
1,624.51	86.2925	1,624.51	85.6819	1,624.51	85.8828	1,624.51	84.9598	1,624.51	85.287	1,624.51	83.8642	1,624.51	84.4558	1,624.51	82.7494	1,624.51	83.5554	1,624.51	81.4408	1,624.51	82.219	1,624.51	81.2408	1,624.51	81.0881	1,624.51	78.5467	1,624.51	80.3088	1,624.51	76.3306	1,624.51	79.0523	1,624.51	71.9252	1,624.51	77.4788	1,624.51	71.0636	1,624.51	74.6837	1,624.51	74.0449	1,624.51	73.8418	1,624.51	73.1382	1,624.51	73.8654	1,624.51	75.118	1,624.51	76.7804	1,624.51	73.0979	1,624.51	72.6826	1,624.51	67.9364	1,624.51	68.6677	1,624.51	59.3127	1,624.51	36.6812	1,624.51	72.4442	1,624.51	61.7689	1,624.51	72.138
1,681.64	86.7444	1,681.64	86.5294	1,681.64	86.3026	1,681.64	85.6945	1,681.64	85.3718	1,681.64	84.7362	1,681.64	84.6899	1,681.64	83.7081	1,681.64	84.2619	1,681.64	82.224	1,681.64	82.8033	1,681.64	80.6472	1,681.64	81.2614	1,681.64	79.0462	1,681.64	79.9205	1,681.64	76.4598	1,681.64	79.2733	1,681.64	75.3568	1,681.64	78.1995	1,681.64	74.0491	1,681.64	72.6751	1,681.64	68.9043	1,681.64	71.6555	1,681.64	74.8963	1,681.64	74.7314	1,681.64	73.9348	1,681.64	75.0585	1,681.64	75.1866	1,681.64	74.4012	1,681.64	70.0245	1,681.64	71.5868	1,681.64	57.1004	1,681.64	63.2304	1,681.64	70.1984	1,681.64	70.0849	1,681.64	73.4745
1,741.7	86.8567	1,741.7	86.5555	1,741.7	87.0117	1,741.7	86.3161	1,741.7	85.7904	1,741.7	85.4646	1,741.7	85.2508	1,741.7	83.9425	1,741.7	84.2277	1,741.7	83.6094	1,741.7	82.9632	1,741.7	80.4558	1,741.7	81.7252	1,741.7	80.6637	1,741.7	80.0594	1,741.7	78.8094	1,741.7	79.1698	1,741.7	77.3381	1,741.7	77.2342	1,741.7	72.8807	1,741.7	72.6211	1,741.7	74.1388	1,741.7	73.8511	1,741.7	73.6791	1,741.7	74.327	1,741.7	76.3327	1,741.7	73.6127	1,741.7	74.413	1,741.7	73.2633	1,741.7	71.1897	1,741.7	73.8655	1,741.7	62.4348	1,741.7	40.486	1,741.7	69.3218	1,741.7	70.3677	1,741.7	68.7256
1,803.22	86.4744	1,803.22	86.4448	1,803.22	86.1247	1,803.22	85.8219	1,803.22	85.5517	1,803.22	84.9942	1,803.22	84.5227	1,803.22	83.8052	1,803.22	83.4026	1,803.22	82.7251	1,803.22	82.1355	1,803.22	81.4855	1,803.22	80.8064	1,803.22	79.9947	1,803.22	79.8742	1,803.22	79.0025	1,803.22	78.1518	1,803.22	77.1515	1,803.22	76.3362	1,803.22	74.7088	1,803.22	74.6013	1,803.22	72.3646	1,803.22	72.7143	1,803.22	73.3059	1,803.22	73.8035	1,803.22	74.5364	1,803.22	74.5228	1,803.22	74.0292	1,803.22	73.8559	1,803.22	69.6019	1,803.22	68.5577	1,803.22	63.3169	1,803.22	62.5212	1,803.22	70.1633	1,803.22	68.4875	1,803.22	71.9861
1,866.21	86.0027	1,866.21	85.7768	1,866.21	85.762	1,866.21	85.2522	1,866.21	85.0011	1,866.21	84.278	1,866.21	83.9831	1,866.21	83.1425	1,866.21	82.7161	1,866.21	81.7314	1,866.21	81.5423	1,866.21	80.7258	1,866.21	80.0827	1,866.21	79.7422	1,866.21	79.0165	1,866.21	78.4403	1,866.21	78.0217	1,866.21	76.7737	1,866.21	76.0485	1,866.21	74.5634	1,866.21	74.0216	1,866.21	73.0019	1,866.21	72.4193	1,866.21	73.2913	1,866.21	72.3954	1,866.21	73.9812	1,866.21	74.0468	1,866.21	73.6321	1,866.21	73.6627	1,866.21	69.7442	1,866.21	71.6374	1,866.21	64.5312	1,866.21	63.0701	1,866.21	68.5394	1,866.21	68.9885	1,866.21	70.0144
1,932.13	85.5917	1,932.13	85.4001	1,932.13	85.5384	1,932.13	84.5919	1,932.13	85.0072	1,932.13	83.3949	1,932.13	84.0231	1,932.13	82.0638	1,932.13	82.7898	1,932.13	80.6666	1,932.13	81.1935	1,932.13	79.5214	1,932.13	79.6465	1,932.13	78.2386	1,932.13	78.6407	1,932.13	77.9007	1,932.13	77.5596	1,932.13	75.9764	1,932.13	76.1385	1,932.13	74.4526	1,932.13	74.0357	1,932.13	71.575	1,932.13	71.8147	1,932.13	71.1267	1,932.13	71.545	1,932.13	72.6771	1,932.13	73.1597	1,932.13	72.5178	1,932.13	73.6924	1,932.13	67.5776	1,932.13	70.524	1,932.13	63.6161	1,932.13	65.4551	1,932.13	71.3009	1,932.13	69.3557	1,932.13	71.189
1,999.51	85.6644	1,999.51	85.5324	1,999.51	85.7558	1,999.51	84.8432	1,999.51	85.3623	1,999.51	84.0575	1,999.51	84.6406	1,999.51	82.4458	1,999.51	83.7833	1,999.51	80.602	1,999.51	82.3095	1,999.51	78.9464	1,999.51	80.8604	1,999.51	77.3522	1,999.51	79.2043	1,999.51	76.0265	1,999.51	78.0559	1,999.51	75.9464	1,999.51	76.5069	1,999.51	73.9569	1,999.51	75.2373	1,999.51	71.5251	1,999.51	72.5142	1,999.51	68.4348	1,999.51	71.3589	1,999.51	70.196	1,999.51	72.4509	1,999.51	70.3644	1,999.51	72.1836	1,999.51	66.2847	1,999.51	69.9397	1,999.51	60.5035	1,999.51	66.2478	1,999.51	67.0568	1,999.51	68.3993	1,999.51	70.5259
2,069.82	86.25	2,069.82	85.9489	2,069.82	86.3988	2,069.82	85.4066	2,069.82	85.9641	2,069.82	84.7093	2,069.82	85.3854	2,069.82	83.7897	2,069.82	84.4425	2,069.82	81.9466	2,069.82	83.3021	2,069.82	80.1839	2,069.82	81.6786	2,069.82	77.9663	2,069.82	80.1501	2,069.82	77.075	2,069.82	78.3077	2,069.82	75.0433	2,069.82	76.8839	2,069.82	74.5297	2,069.82	75.7028	2,069.82	73.8221	2,069.82	73.1003	2,069.82	72.4733	2,069.82	71.9082	2,069.82	70.3457	2,069.82	71.486	2,069.82	68.567	2,069.82	70.7775	2,069.82	67.4408	2,069.82	66.5935	2,069.82	57.5769	2,069.82	61.1423	2,069.82	63.78	2,069.82	65.4039	2,069.82	67.5091
2,143.07	86.443	2,143.07	86.2317	2,143.07	86.2065	2,143.07	85.7532	2,143.07	85.7851	2,143.07	85.1263	2,143.07	84.9029	2,143.07	84.0049	2,143.07	83.9395	2,143.07	82.8591	2,143.07	82.5144	2,143.07	80.4501	2,143.07	80.949	2,143.07	78.357	2,143.07	78.921	2,143.07	76.3932	2,143.07	77.519	2,143.07	76.0173	2,143.07	76.0192	2,143.07	74.8644	2,143.07	74.4222	2,143.07	73.8779	2,143.07	73.288	2,143.07	74.1251	2,143.07	71.5618	2,143.07	74.5448	2,143.07	73.1058	2,143.07	73.2713	2,143.07	73.1062	2,143.07	69.6482	2,143.07	70.9176	2,143.07	66.6988	2,143.07	63.5299	2,143.07	64.0858	2,143.07	67.7075	2,143.07	66.3431
2,219.24	85.5362	2,219.24	85.4955	2,219.24	85.4466	2,219.24	85.1715	2,219.24	84.6848	2,219.24	84.208	2,219.24	83.7085	2,219.24	83.309	2,219.24	82.509	2,219.24	82.208	2,219.24	81.1761	2,219.24	81.1527	2,219.24	79.7443	2,219.24	78.8671	2,219.24	78.1716	2,219.24	77.0736	2,219.24	76.4294	2,219.24	75.1194	2,219.24	74.6536	2,219.24	74.6388	2,219.24	73.368	2,219.24	73.5516	2,219.24	71.6621	2,219.24	71.2527	2,219.24	69.4993	2,219.24	73.1766	2,219.24	71.5925	2,219.24	73.4904	2,219.24	72.6817	2,219.24	71.7065	2,219.24	71.0098	2,219.24	67.0735	2,219.24	65.141	2,219.24	68.1283	2,219.24	66.2238	2,219.24	69.9995
2,296.88	84.7408	2,296.88	84.6678	2,296.88	84.6092	2,296.88	83.7594	2,296.88	83.9744	2,296.88	83.3319	2,296.88	83.148	2,296.88	81.7642	2,296.88	82.0237	2,296.88	80.6704	2,296.88	80.7657	2,296.88	79.3682	2,296.88	79.5269	2,296.88	78.0176	2,296.88	78.1671	2,296.88	75.3295	2,296.88	76.6516	2,296.88	74.9664	2,296.88	74.8486	2,296.88	73.6501	2,296.88	73.5507	2,296.88	71.6321	2,296.88	72.3623	2,296.88	71.5255	2,296.88	71.0474	2,296.88	71.6609	2,296.88	70.6064	2,296.88	72.7399	2,296.88	72.7021	2,296.88	72.695	2,296.88	71.1672	2,296.88	69.2669	2,296.88	65.637	2,296.88	67.712	2,296.88	66.8	2,296.88	69.2077
2,378.91	85.1654	2,378.91	84.8271	2,378.91	85.1309	2,378.91	84.4546	2,378.91	84.6246	2,378.91	83.2178	2,378.91	84.0822	2,378.91	82.2505	2,378.91	82.9224	2,378.91	80.8654	2,378.91	81.9299	2,378.91	79.3816	2,378.91	80.5029	2,378.91	77.4813	2,378.91	79.1531	2,378.91	77.0486	2,378.91	77.4516	2,378.91	74.408	2,378.91	76.9482	2,378.91	72.379	2,378.91	75.1449	2,378.91	71.9339	2,378.91	73.9139	2,378.91	70.8906	2,378.91	72.5643	2,378.91	71.6417	2,378.91	71.7793	2,378.91	72.6552	2,378.91	74.2822	2,378.91	71.1487	2,378.91	73.461	2,378.91	65.8271	2,378.91	69.7249	2,378.91	69.0483	2,378.91	67.8193	2,378.91	68.9812
2,462.4	86.3204	2,462.4	86.1488	2,462.4	86.1	2,462.4	85.8268	2,462.4	85.8672	2,462.4	85.3157	2,462.4	85.1754	2,462.4	84.6984	2,462.4	84.4968	2,462.4	83.3687	2,462.4	83.3786	2,462.4	81.4574	2,462.4	81.4865	2,462.4	79.5844	2,462.4	79.8336	2,462.4	77.5503	2,462.4	78.9995	2,462.4	75.7332	2,462.4	76.764	2,462.4	73.4808	2,462.4	74.5692	2,462.4	73.1602	2,462.4	75.1038	2,462.4	71.9943	2,462.4	72.4996	2,462.4	72.3613	2,462.4	73.4331	2,462.4	74.8223	2,462.4	75.2374	2,462.4	73.1511	2,462.4	74.7459	2,462.4	68.0569	2,462.4	69.5933	2,462.4	69.2512	2,462.4	68.6491	2,462.4	71.3671
2,548.83	86.6599	2,548.83	86.5403	2,548.83	86.0246	2,548.83	86.2981	2,548.83	85.8166	2,548.83	85.9838	2,548.83	84.7399	2,548.83	85.0952	2,548.83	84.0763	2,548.83	83.8132	2,548.83	82.9799	2,548.83	82.4706	2,548.83	81.8415	2,548.83	80.4257	2,548.83	79.7237	2,548.83	77.454	2,548.83	79.1006	2,548.83	76.9227	2,548.83	76.4105	2,548.83	75.2234	2,548.83	75.2793	2,548.83	73.7857	2,548.83	73.8172	2,548.83	73.5154	2,548.83	71.5101	2,548.83	72.8279	2,548.83	71.5218	2,548.83	75.065	2,548.83	74.0822	2,548.83	74.4961	2,548.83	73.5569	2,548.83	71.7571	2,548.83	69.6045	2,548.83	69.5688	2,548.83	70.1977	2,548.83	72.5147
2,639.65	85.4054	2,639.65	85.2327	2,639.65	85.471	2,639.65	85.3042	2,639.65	84.744	2,639.65	84.5726	2,639.65	84.269	2,639.65	84.1574	2,639.65	83.4762	2,639.65	83.692	2,639.65	82.4305	2,639.65	82.2976	2,639.65	81.2924	2,639.65	80.1402	2,639.65	79.3546	2,639.65	79.5008	2,639.65	78.1887	2,639.65	76.6132	2,639.65	76.4975	2,639.65	73.9501	2,639.65	75.8984	2,639.65	74.3213	2,639.65	74.0273	2,639.65	71.8763	2,639.65	72.6109	2,639.65	71.3806	2,639.65	70.4249	2,639.65	73.9812	2,639.65	71.7099	2,639.65	73.1828	2,639.65	73.2679	2,639.65	68.8385	2,639.65	68.0091	2,639.65	69.0385	2,639.65	64.5271	2,639.65	70.8368
2,731.93	84.5058	2,731.93	84.4632	2,731.93	85.012	2,731.93	84.1275	2,731.93	84.1425	2,731.93	83.632	2,731.93	83.8965	2,731.93	82.9727	2,731.93	83.3015	2,731.93	83.0955	2,731.93	82.9235	2,731.93	81.7558	2,731.93	81.4235	2,731.93	79.3282	2,731.93	79.7888	2,731.93	78.9907	2,731.93	77.8386	2,731.93	76.067	2,731.93	76.8279	2,731.93	74.6736	2,731.93	75.0821	2,731.93	72.8423	2,731.93	73.0485	2,731.93	71.4394	2,731.93	74.5863	2,731.93	69.2586	2,731.93	70.2145	2,731.93	72.1513	2,731.93	71.2818	2,731.93	73.9115	2,731.93	73.1641	2,731.93	69.9468	2,731.93	70.0945	2,731.93	68.8071	2,731.93	68.6627	2,731.93	70.935
2,828.61	85.1867	2,828.61	85.2221	2,828.61	84.9555	2,828.61	84.6818	2,828.61	85.147	2,828.61	84.3976	2,828.61	84.658	2,828.61	83.3995	2,828.61	84.2214	2,828.61	82.5431	2,828.61	83.6144	2,828.61	81.4768	2,828.61	82.6709	2,828.61	80.575	2,828.61	81.3344	2,828.61	78.7331	2,828.61	78.5491	2,828.61	76.1336	2,828.61	77.1904	2,828.61	73.8634	2,828.61	74.8003	2,828.61	72.3963	2,828.61	74.4955	2,828.61	73.3671	2,828.61	74.8164	2,828.61	69.3841	2,828.61	73.0098	2,828.61	70.5433	2,828.61	73.6274	2,828.61	72.821	2,828.61	74.2726	2,828.61	69.5409	2,828.61	71.5929	2,828.61	68.4336	2,828.61	68.4576	2,828.61	68.369
2,928.22	85.9787	2,928.22	86.12	2,928.22	85.7977	2,928.22	85.7801	2,928.22	85.8299	2,928.22	85.2761	2,928.22	85.4247	2,928.22	84.3592	2,928.22	84.9609	2,928.22	83.0075	2,928.22	84.4234	2,928.22	82.0467	2,928.22	83.56	2,928.22	81.513	2,928.22	82.4579	2,928.22	78.0142	2,928.22	79.882	2,928.22	77.1715	2,928.22	78.1266	2,928.22	75.7338	2,928.22	76.9285	2,928.22	73.3267	2,928.22	75.1141	2,928.22	74.53	2,928.22	74.0914	2,928.22	72.157	2,928.22	72.9795	2,928.22	72.1445	2,928.22	72.2913	2,928.22	74.2696	2,928.22	74.9457	2,928.22	72.2024	2,928.22	72.2457	2,928.22	71.9332	2,928.22	67.3551	2,928.22	71.9829
3,030.76	86.3903	3,030.76	86.665	3,030.76	85.9931	3,030.76	86.4195	3,030.76	86.2912	3,030.76	86.0265	3,030.76	85.8159	3,030.76	85.2292	3,030.76	85.2599	3,030.76	83.9036	3,030.76	84.0405	3,030.76	82.9214	3,030.76	83.4014	3,030.76	81.6731	3,030.76	82.3386	3,030.76	78.0426	3,030.76	80.1437	3,030.76	77.5819	3,030.76	78.3626	3,030.76	75.7011	3,030.76	77.0738	3,030.76	73.5841	3,030.76	74.5894	3,030.76	74.1174	3,030.76	72.1324	3,030.76	73.2212	3,030.76	72.5154	3,030.76	71.5569	3,030.76	70.9906	3,030.76	72.6939	3,030.76	73.907	3,030.76	71.2569	3,030.76	72.0968	3,030.76	62.2765	3,030.76	64.1887	3,030.76	68.7729
3,137.7	85.8676	3,137.7	85.8999	3,137.7	85.7258	3,137.7	85.8954	3,137.7	85.9192	3,137.7	86.2292	3,137.7	85.7311	3,137.7	85.2698	3,137.7	85.055	3,137.7	83.5894	3,137.7	83.5007	3,137.7	82.8489	3,137.7	82.5124	3,137.7	81.5204	3,137.7	81.4318	3,137.7	79.221	3,137.7	79.4525	3,137.7	77.7119	3,137.7	77.3939	3,137.7	77.0166	3,137.7	76.2174	3,137.7	73.9211	3,137.7	76.0929	3,137.7	73.6976	3,137.7	74.8806	3,137.7	72.7955	3,137.7	72.4062	3,137.7	71.751	3,137.7	70.7951	3,137.7	73.7264	3,137.7	72.4008	3,137.7	72.0619	3,137.7	72.709	3,137.7	66.8617	3,137.7	67.3258	3,137.7	67.5528
3,249.02	84.1802	3,249.02	84.3589	3,249.02	84.3816	3,249.02	85.1415	3,249.02	85.1098	3,249.02	85.9203	3,249.02	85.9053	3,249.02	85.3471	3,249.02	85.7222	3,249.02	83.6168	3,249.02	84.1548	3,249.02	81.5612	3,249.02	82.5893	3,249.02	80.1371	3,249.02	80.9955	3,249.02	79.1359	3,249.02	79.8985	3,249.02	77.7459	3,249.02	78.5921	3,249.02	76.7501	3,249.02	76.2003	3,249.02	74.2382	3,249.02	75.12	3,249.02	72.6648	3,249.02	75.6069	3,249.02	73.0467	3,249.02	75.8633	3,249.02	69.1792	3,249.02	72.0194	3,249.02	72.5204	3,249.02	72.2213	3,249.02	69.4276	3,249.02	72.0858	3,249.02	67.8216	3,249.02	65.0614	3,249.02	71.0304
3,363.28	82.7993	3,363.28	82.8234	3,363.28	84.5145	3,363.28	84.2544	3,363.28	84.3342	3,363.28	85.1445	3,363.28	85.91	3,363.28	84.8786	3,363.28	85.5801	3,363.28	84.1349	3,363.28	84.8794	3,363.28	82.2947	3,363.28	82.6038	3,363.28	79.8062	3,363.28	80.7799	3,363.28	78.4525	3,363.28	79.2399	3,363.28	77.1045	3,363.28	77.7509	3,363.28	75.7715	3,363.28	75.7113	3,363.28	73.6356	3,363.28	72.9535	3,363.28	72.7422	3,363.28	72.3265	3,363.28	74.7617	3,363.28	75.381	3,363.28	69.8688	3,363.28	73.462	3,363.28	71.8096	3,363.28	73.3342	3,363.28	69.7503	3,363.28	73.4346	3,363.28	65.9782	3,363.28	69.4774	3,363.28	68.519
3,481.93	83.2014	3,481.93	83.3661	3,481.93	84.1541	3,481.93	83.692	3,481.93	84.9119	3,481.93	84.6037	3,481.93	85.3756	3,481.93	84.2311	3,481.93	85.4675	3,481.93	85.0347	3,481.93	84.8239	3,481.93	83.2338	3,481.93	82.3956	3,481.93	81.1286	3,481.93	80.1266	3,481.93	79.138	3,481.93	78.7105	3,481.93	77.0352	3,481.93	76.8355	3,481.93	75.3354	3,481.93	75.444	3,481.93	72.4811	3,481.93	74.1326	3,481.93	73.6055	3,481.93	70.5614	3,481.93	75.0576	3,481.93	73.8649	3,481.93	71.9092	3,481.93	72.7967	3,481.93	72.5213	3,481.93	72.1943	3,481.93	72.8158	3,481.93	73.7211	3,481.93	65.489	3,481.93	68.576	3,481.93	64.2674
3,604.98	83.9913	3,604.98	84.5444	3,604.98	83.7965	3,604.98	85.3494	3,604.98	85.3869	3,604.98	84.9908	3,604.98	85.6593	3,604.98	85.0652	3,604.98	85.5389	3,604.98	84.1398	3,604.98	84.2501	3,604.98	83.2217	3,604.98	82.873	3,604.98	82.1584	3,604.98	81.7715	3,604.98	78.8239	3,604.98	79.7078	3,604.98	77.1573	3,604.98	76.6061	3,604.98	75.0318	3,604.98	75.5658	3,604.98	72.883	3,604.98	74.8228	3,604.98	71.7835	3,604.98	73.7865	3,604.98	72.5824	3,604.98	75.3099	3,604.98	71.9047	3,604.98	73.0131	3,604.98	72.6042	3,604.98	71.25	3,604.98	72.1265	3,604.98	72.7967	3,604.98	64.4133	3,604.98	68.1633	3,604.98	65.1789
3,732.42	85.383	3,732.42	85.974	3,732.42	85.113	3,732.42	86.1106	3,732.42	86.1695	3,732.42	85.7603	3,732.42	86.1112	3,732.42	85.8945	3,732.42	85.9198	3,732.42	83.497	3,732.42	84.8538	3,732.42	81.9351	3,732.42	83.3182	3,732.42	81.3717	3,732.42	82.0579	3,732.42	79.3572	3,732.42	79.7476	3,732.42	76.9978	3,732.42	76.6409	3,732.42	74.2579	3,732.42	75.6647	3,732.42	75.3644	3,732.42	73.2558	3,732.42	72.6517	3,732.42	71.6568	3,732.42	73.3491	3,732.42	75.29	3,732.42	73.4346	3,732.42	73.8982	3,732.42	72.0601	3,732.42	73.1619	3,732.42	72.4247	3,732.42	73.865	3,732.42	69.1817	3,732.42	69.235	3,732.42	68.3478
3,864.26	85.1869	3,864.26	85.4254	3,864.26	85.691	3,864.26	85.7548	3,864.26	85.4381	3,864.26	85.792	3,864.26	85.1897	3,864.26	85.5051	3,864.26	84.4479	3,864.26	83.6702	3,864.26	83.3966	3,864.26	81.4878	3,864.26	82.9912	3,864.26	79.7757	3,864.26	81.0031	3,864.26	78.8298	3,864.26	79.0643	3,864.26	75.3353	3,864.26	76.1565	3,864.26	74.1938	3,864.26	74.0304	3,864.26	74.7794	3,864.26	72.9992	3,864.26	70.5803	3,864.26	70.905	3,864.26	74.302	3,864.26	71.792	3,864.26	73.8025	3,864.26	73.7196	3,864.26	73.5905	3,864.26	72.8264	3,864.26	72.9308	3,864.26	73.362	3,864.26	70.861	3,864.26	69.6985	3,864.26	71.4961
4,000.49	85.1662	4,000.49	84.6166	4,000.49	85.9886	4,000.49	84.7088	4,000.49	84.8963	4,000.49	84.9049	4,000.49	85.2291	4,000.49	83.8936	4,000.49	84.6247	4,000.49	83.0867	4,000.49	83.7816	4,000.49	81.8423	4,000.49	83.0935	4,000.49	79.5446	4,000.49	81.499	4,000.49	79.0773	4,000.49	78.4425	4,000.49	75.1698	4,000.49	77.153	4,000.49	73.9288	4,000.49	75.6707	4,000.49	72.6775	4,000.49	74.9577	4,000.49	70.6579	4,000.49	72.9623	4,000.49	71.9992	4,000.49	71.6582	4,000.49	70.41	4,000.49	74.4074	4,000.49	73.0579	4,000.49	72.373	4,000.49	72.2506	4,000.49	72.9036	4,000.49	67.3554	4,000.49	71.2671	4,000.49	69.9298
4,141.11	85.2807	4,141.11	84.5378	4,141.11	85.7729	4,141.11	85.5905	4,141.11	85.6606	4,141.11	85.1106	4,141.11	85.5956	4,141.11	84.0758	4,141.11	85.455	4,141.11	83.8869	4,141.11	84.9924	4,141.11	82.5322	4,141.11	83.6171	4,141.11	81.371	4,141.11	81.3232	4,141.11	79.6558	4,141.11	80.2251	4,141.11	77.2871	4,141.11	78.3386	4,141.11	74.3417	4,141.11	75.7832	4,141.11	74.1473	4,141.11	73.8749	4,141.11	71.8042	4,141.11	72.5014	4,141.11	72.4453	4,141.11	72.1231	4,141.11	73.4368	4,141.11	74.7112	4,141.11	71.7376	4,141.11	72.93	4,141.11	73.463	4,141.11	74.1802	4,141.11	67.6201	4,141.11	68.2503	4,141.11	67.1736
4,287.6	83.017	4,287.6	84.5977	4,287.6	83.3645	4,287.6	83.6615	4,287.6	85.5393	4,287.6	84.9489	4,287.6	85.156	4,287.6	86.0786	4,287.6	86.0258	4,287.6	84.3886	4,287.6	85.5884	4,287.6	83.3013	4,287.6	83.4526	4,287.6	81.6046	4,287.6	81.9292	4,287.6	79.1374	4,287.6	80.0043	4,287.6	78.1738	4,287.6	77.9196	4,287.6	76.5062	4,287.6	75.4806	4,287.6	74.3604	4,287.6	73.4321	4,287.6	73.663	4,287.6	72.434	4,287.6	73.6465	4,287.6	71.2983	4,287.6	72.414	4,287.6	72.4172	4,287.6	71.302	4,287.6	73.0452	4,287.6	72.9356	4,287.6	74.5058	4,287.6	67.1388	4,287.6	66.768	4,287.6	67.8422
4,438.48	84.1201	4,438.48	84.1558	4,438.48	84.5639	4,438.48	84.8563	4,438.48	84.7561	4,438.48	85.6302	4,438.48	86.5795	4,438.48	86.4383	4,438.48	85.438	4,438.48	86.1207	4,438.48	84.741	4,438.48	83.8066	4,438.48	83.5661	4,438.48	81.4948	4,438.48	81.989	4,438.48	79.6257	4,438.48	81.326	4,438.48	78.0423	4,438.48	78.2736	4,438.48	76.0722	4,438.48	75.7878	4,438.48	72.2479	4,438.48	74.9109	4,438.48	72.7589	4,438.48	73.1039	4,438.48	70.9551	4,438.48	69.7581	4,438.48	72.6006	4,438.48	74.5328	4,438.48	72.8251	4,438.48	73.406	4,438.48	73.5962	4,438.48	74.0953	4,438.48	62.6755	4,438.48	70.4178	4,438.48	66.9457
4,595.21	84.4098	4,595.21	83.8976	4,595.21	84.1763	4,595.21	85.8061	4,595.21	84.6848	4,595.21	85.5726	4,595.21	85.4958	4,595.21	85.2167	4,595.21	85.3258	4,595.21	85.3513	4,595.21	84.1938	4,595.21	83.8173	4,595.21	83.9165	4,595.21	82.1246	4,595.21	82.8761	4,595.21	80.6049	4,595.21	79.1872	4,595.21	77.4921	4,595.21	77.8956	4,595.21	75.8966	4,595.21	75.842	4,595.21	73.2993	4,595.21	72.9852	4,595.21	73.0264	4,595.21	71.4981	4,595.21	69.4509	4,595.21	73.2305	4,595.21	73.4097	4,595.21	72.8054	4,595.21	72.6022	4,595.21	71.2243	4,595.21	71.4046	4,595.21	71.7603	4,595.21	67.2391	4,595.21	68.0555	4,595.21	66.1172
4,756.35	84.8676	4,756.35	85.3957	4,756.35	84.2772	4,756.35	83.9558	4,756.35	85.3653	4,756.35	85.4691	4,756.35	85.0057	4,756.35	84.7725	4,756.35	86.2154	4,756.35	83.5989	4,756.35	86.0952	4,756.35	83.1368	4,756.35	84.5725	4,756.35	82.4986	4,756.35	82.525	4,756.35	77.1471	4,756.35	80.8777	4,756.35	76.313	4,756.35	77.3019	4,756.35	69.2953	4,756.35	74.7713	4,756.35	73.6543	4,756.35	73.8971	4,756.35	71.8017	4,756.35	71.5224	4,756.35	72.5532	4,756.35	72.5637	4,756.35	74.3877	4,756.35	71.4801	4,756.35	71.9784	4,756.35	72.7071	4,756.35	71.7631	4,756.35	71.0491	4,756.35	64.2475	4,756.35	66.7969	4,756.35	62.192
4,924.8	85.4947	4,924.8	85.3844	4,924.8	85.9389	4,924.8	85.0163	4,924.8	85.3636	4,924.8	85.6329	4,924.8	86.2645	4,924.8	85.4304	4,924.8	86.2574	4,924.8	85.0032	4,924.8	85.5438	4,924.8	83.6944	4,924.8	84.6483	4,924.8	81.9988	4,924.8	82.6018	4,924.8	78.2334	4,924.8	79.4067	4,924.8	76.4683	4,924.8	76.8468	4,924.8	76.2318	4,924.8	74.634	4,924.8	70.9276	4,924.8	74.691	4,924.8	69.849	4,924.8	71.2752	4,924.8	69.961	4,924.8	69.1265	4,924.8	72.5349	4,924.8	71.816	4,924.8	72.1111	4,924.8	72.2592	4,924.8	73.5692	4,924.8	73.1689	4,924.8	60.8973	4,924.8	66.2168	4,924.8	64.7361
5,097.66	86.1585	5,097.66	85.2115	5,097.66	86.3176	5,097.66	86.2271	5,097.66	85.1181	5,097.66	84.916	5,097.66	86.2536	5,097.66	85.1478	5,097.66	86.022	5,097.66	83.7787	5,097.66	84.5515	5,097.66	81.554	5,097.66	83.9005	5,097.66	77.5277	5,097.66	82.1186	5,097.66	77.4059	5,097.66	79.6504	5,097.66	73.3098	5,097.66	77.3232	5,097.66	76.1196	5,097.66	74.8923	5,097.66	71.8195	5,097.66	72.2438	5,097.66	69.4474	5,097.66	72.2915	5,097.66	68.164	5,097.66	72.7276	5,097.66	67.9483	5,097.66	73.0261	5,097.66	70.8678	5,097.66	72.0884	5,097.66	71.5479	5,097.66	71.0321	5,097.66	62.0123	5,097.66	67.3819	5,097.66	60.3248
5,277.83	86.384	5,277.83	85.896	5,277.83	84.9379	5,277.83	85.8017	5,277.83	85.5477	5,277.83	85.9547	5,277.83	84.9576	5,277.83	85.6768	5,277.83	86.0981	5,277.83	84.6059	5,277.83	85.754	5,277.83	82.9189	5,277.83	83.3102	5,277.83	80.5516	5,277.83	80.912	5,277.83	79.1301	5,277.83	80.1589	5,277.83	75.7216	5,277.83	76.4203	5,277.83	70.0075	5,277.83	74.9675	5,277.83	69.5621	5,277.83	71.0205	5,277.83	69.6045	5,277.83	72.343	5,277.83	73.8442	5,277.83	70.1915	5,277.83	69.5756	5,277.83	69.8698	5,277.83	70.1951	5,277.83	70.4804	5,277.83	71.3036	5,277.83	72.2749	5,277.83	64.7325	5,277.83	67.9746	5,277.83	60.8872
5,463.87	85.8365	5,463.87	85.2833	5,463.87	85.5297	5,463.87	84.6332	5,463.87	84.9446	5,463.87	84.2505	5,463.87	84.9426	5,463.87	84.0851	5,463.87	85.988	5,463.87	83.6365	5,463.87	85.1829	5,463.87	82.9719	5,463.87	84.1091	5,463.87	82.3952	5,463.87	82.8486	5,463.87	78.9334	5,463.87	78.9887	5,463.87	77.8303	5,463.87	77.2766	5,463.87	74.739	5,463.87	74.257	5,463.87	71.7629	5,463.87	73.5357	5,463.87	72.7176	5,463.87	69.6668	5,463.87	70.154	5,463.87	70.818	5,463.87	72.3689	5,463.87	71.5185	5,463.87	70.3921	5,463.87	71.6668	5,463.87	71.801	5,463.87	71.3309	5,463.87	60.1615	5,463.87	68.6934	5,463.87	60.2468
5,657.23	85.7694	5,657.23	85.7236	5,657.23	86.2562	5,657.23	84.9091	5,657.23	84.3677	5,657.23	84.5056	5,657.23	85.4157	5,657.23	85.039	5,657.23	84.9932	5,657.23	84.2604	5,657.23	83.9682	5,657.23	82.5219	5,657.23	83.2595	5,657.23	80.3686	5,657.23	81.8404	5,657.23	78.1704	5,657.23	78.0872	5,657.23	75.2559	5,657.23	76.2543	5,657.23	75.0336	5,657.23	74.9509	5,657.23	70.4224	5,657.23	69.8358	5,657.23	70.3223	5,657.23	70.8292	5,657.23	68.0519	5,657.23	69.5218	5,657.23	69.6647	5,657.23	70.7999	5,657.23	69.7534	5,657.23	72.4263	5,657.23	71.6722	5,657.23	70.9159	5,657.23	63.3781	5,657.23	67.7058	5,657.23	55.848
5,856.45	86.1799	5,856.45	85.2376	5,856.45	85.2179	5,856.45	84.0048	5,856.45	85.0364	5,856.45	83.8277	5,856.45	83.6197	5,856.45	84.9661	5,856.45	84.4746	5,856.45	83.8559	5,856.45	84.8646	5,856.45	82.7898	5,856.45	83.5776	5,856.45	79.8387	5,856.45	80.4191	5,856.45	79.1037	5,856.45	80.1622	5,856.45	75.3932	5,856.45	76.6898	5,856.45	74.6452	5,856.45	74.8272	5,856.45	72.0602	5,856.45	72.5951	5,856.45	70.4295	5,856.45	70.0177	5,856.45	69.8572	5,856.45	69.7482	5,856.45	68.2354	5,856.45	68.727	5,856.45	73.6111	5,856.45	71.5827	5,856.45	71.6704	5,856.45	70.1519	5,856.45	64.8758	5,856.45	69.3565	5,856.45	60.8901
6,062.99	86.104	6,062.99	85.2344	6,062.99	86.1183	6,062.99	83.798	6,062.99	84.5151	6,062.99	84.361	6,062.99	84.338	6,062.99	84.314	6,062.99	83.8492	6,062.99	84.59	6,062.99	84.5029	6,062.99	83.5211	6,062.99	84.1911	6,062.99	82.6648	6,062.99	83.4187	6,062.99	78.8987	6,062.99	80.3315	6,062.99	75.5188	6,062.99	77.4253	6,062.99	70.7193	6,062.99	74.2342	6,062.99	68.4818	6,062.99	72.7837	6,062.99	68.6077	6,062.99	70.6288	6,062.99	64.6041	6,062.99	71.1828	6,062.99	66.718	6,062.99	68.1058	6,062.99	70.0253	6,062.99	69.7308	6,062.99	69.0926	6,062.99	68.4013	6,062.99	65.8985	6,062.99	68.2015	6,062.99	55.5814
6,276.86	86.0322	6,276.86	85.2284	6,276.86	86.234	6,276.86	84.6024	6,276.86	84.7059	6,276.86	83.9007	6,276.86	84.7568	6,276.86	84.6095	6,276.86	84.5089	6,276.86	84.1423	6,276.86	83.9624	6,276.86	82.1364	6,276.86	83.3452	6,276.86	81.712	6,276.86	81.8056	6,276.86	77.2621	6,276.86	79.0967	6,276.86	75.1488	6,276.86	76.3933	6,276.86	73.2272	6,276.86	74.3346	6,276.86	70.1224	6,276.86	71.5005	6,276.86	67.6452	6,276.86	70.955	6,276.86	67.2946	6,276.86	70.6406	6,276.86	69.2338	6,276.86	69.5622	6,276.86	72.5421	6,276.86	71.9029	6,276.86	69.0841	6,276.86	68.6901	6,276.86	64.5168	6,276.86	66.129	6,276.86	59.8539
6,498.05	86.3928	6,498.05	86.0103	6,498.05	85.8611	6,498.05	85.1689	6,498.05	86.0362	6,498.05	83.6244	6,498.05	84.0621	6,498.05	84.4577	6,498.05	85.1783	6,498.05	83.4143	6,498.05	84.8927	6,498.05	82.9937	6,498.05	83.8823	6,498.05	79.0702	6,498.05	81.1266	6,498.05	77.4818	6,498.05	80.3111	6,498.05	74.5911	6,498.05	76.6452	6,498.05	73.1499	6,498.05	72.7873	6,498.05	70.8583	6,498.05	71.9708	6,498.05	68.9786	6,498.05	71.0542	6,498.05	69.5086	6,498.05	68.1592	6,498.05	67.5213	6,498.05	68.1858	6,498.05	71.243	6,498.05	72.1061	6,498.05	66.7563	6,498.05	67.7512	6,498.05	64.2015	6,498.05	67.1546	6,498.05	63.0512
6,726.56	86.2205	6,726.56	86.0529	6,726.56	86.745	6,726.56	85.0441	6,726.56	85.4807	6,726.56	84.2543	6,726.56	84.7014	6,726.56	83.8029	6,726.56	84.3007	6,726.56	84.354	6,726.56	84.2645	6,726.56	82.964	6,726.56	83.5707	6,726.56	80.0032	6,726.56	81.7004	6,726.56	78.3839	6,726.56	79.1022	6,726.56	74.8952	6,726.56	76.4202	6,726.56	72.9245	6,726.56	73.1228	6,726.56	71.6269	6,726.56	70.5857	6,726.56	68.9934	6,726.56	67.0717	6,726.56	68.6798	6,726.56	66.8176	6,726.56	68.016	6,726.56	69.3484	6,726.56	71.6049	6,726.56	68.926	6,726.56	67.3654	6,726.56	68.3911	6,726.56	65.7417	6,726.56	67.2521	6,726.56	62.7967
6,963.87	86.1224	6,963.87	85.9302	6,963.87	86.0274	6,963.87	84.9159	6,963.87	85.4439	6,963.87	83.6149	6,963.87	84.6645	6,963.87	83.3427	6,963.87	84.4375	6,963.87	83.226	6,963.87	83.4056	6,963.87	81.3096	6,963.87	82.7496	6,963.87	79.6901	6,963.87	80.536	6,963.87	76.6701	6,963.87	78.1698	6,963.87	73.1404	6,963.87	75.1444	6,963.87	70.8262	6,963.87	71.8177	6,963.87	66.8771	6,963.87	67.9688	6,963.87	63.7346	6,963.87	66.8769	6,963.87	66.3553	6,963.87	66.8282	6,963.87	69.0267	6,963.87	68.0133	6,963.87	70.2156	6,963.87	70.6235	6,963.87	66.9591	6,963.87	69.2926	6,963.87	61.9841	6,963.87	65.2013	6,963.87	61.5666
7,209.96	86.4768	7,209.96	86.0152	7,209.96	86.053	7,209.96	85.4366	7,209.96	85.9337	7,209.96	84.1062	7,209.96	84.4479	7,209.96	83.7876	7,209.96	83.7816	7,209.96	81.7939	7,209.96	83.9623	7,209.96	81.2856	7,209.96	82.6087	7,209.96	80.1263	7,209.96	80.2403	7,209.96	75.4465	7,209.96	77.0801	7,209.96	72.6771	7,209.96	74.0788	7,209.96	69.9719	7,209.96	72.2416	7,209.96	68.9822	7,209.96	69.7448	7,209.96	66.3397	7,209.96	65.7099	7,209.96	64.6213	7,209.96	65.8893	7,209.96	64.1547	7,209.96	66.4679	7,209.96	67.7165	7,209.96	69.0375	7,209.96	67.0797	7,209.96	67.8753	7,209.96	64.2108	7,209.96	65.5775	7,209.96	61.7437
7,464.84	85.5415	7,464.84	85.768	7,464.84	85.8764	7,464.84	85.5637	7,464.84	85.6985	7,464.84	83.9164	7,464.84	84.7626	7,464.84	83.2961	7,464.84	82.8396	7,464.84	82.6909	7,464.84	82.0339	7,464.84	80.9094	7,464.84	81.259	7,464.84	77.6936	7,464.84	80.1331	7,464.84	75.5496	7,464.84	76.3249	7,464.84	71.9298	7,464.84	72.8068	7,464.84	67.9187	7,464.84	71.1909	7,464.84	67.4468	7,464.84	69.1103	7,464.84	62.3368	7,464.84	64.8822	7,464.84	64.5678	7,464.84	67.7848	7,464.84	65.8253	7,464.84	67.0087	7,464.84	68.1167	7,464.84	66.674	7,464.84	66.4505	7,464.84	68.2302	7,464.84	62.3645	7,464.84	64.5006	7,464.84	60.3705
7,727.05	85.7304	7,727.05	85.8757	7,727.05	85.9829	7,727.05	85.1455	7,727.05	85.9122	7,727.05	82.6169	7,727.05	84.3801	7,727.05	82.727	7,727.05	83.6519	7,727.05	81.4217	7,727.05	82.4322	7,727.05	79.5456	7,727.05	81.8592	7,727.05	77.5319	7,727.05	79.1863	7,727.05	74.7505	7,727.05	76.8977	7,727.05	72.448	7,727.05	73.8632	7,727.05	70.3892	7,727.05	70.7265	7,727.05	65.4688	7,727.05	68.6636	7,727.05	63.434	7,727.05	66.8608	7,727.05	61.7159	7,727.05	67.6195	7,727.05	66.2533	7,727.05	65.9021	7,727.05	67.5256	7,727.05	68.1874	7,727.05	66.6638	7,727.05	67.7007	7,727.05	57.4832	7,727.05	64.3238	7,727.05	60.4316
7,999.51	85.5329	7,999.51	85.4697	7,999.51	86.0471	7,999.51	84.7406	7,999.51	84.9614	7,999.51	83.4127	7,999.51	83.7748	7,999.51	82.47	7,999.51	82.8478	7,999.51	81.177	7,999.51	81.9007	7,999.51	80.036	7,999.51	80.7663	7,999.51	77.9864	7,999.51	79.4126	7,999.51	74.5513	7,999.51	75.4128	7,999.51	71.1479	7,999.51	72.9642	7,999.51	68.8369	7,999.51	70.3202	7,999.51	64.682	7,999.51	67.241	7,999.51	63.7926	7,999.51	67.0778	7,999.51	62.5627	7,999.51	64.7762	7,999.51	63.3214	7,999.51	65.6007	7,999.51	65.5287	7,999.51	65.7485	7,999.51	67.1992	7,999.51	67.4267	7,999.51	61.3487	7,999.51	63.8742	7,999.51	58.0017
8,282.23	85.6196	8,282.23	84.7297	8,282.23	85.6458	8,282.23	84.5489	8,282.23	84.9405	8,282.23	82.9544	8,282.23	84.0636	8,282.23	81.1904	8,282.23	82.6624	8,282.23	79.9828	8,282.23	80.8964	8,282.23	77.4912	8,282.23	79.8492	8,282.23	75.6499	8,282.23	77.2632	8,282.23	73.1752	8,282.23	75.6023	8,282.23	69.8411	8,282.23	72.725	8,282.23	68.3391	8,282.23	68.6711	8,282.23	65.2086	8,282.23	65.0363	8,282.23	62.5641	8,282.23	62.8834	8,282.23	60.5843	8,282.23	62.264	8,282.23	61.3682	8,282.23	62.5468	8,282.23	65.0405	8,282.23	65.2769	8,282.23	66.3663	8,282.23	66.3334	8,282.23	58.1544	8,282.23	62.2245	8,282.23	58.7906
8,573.73	85.2724	8,573.73	85.0578	8,573.73	85.3715	8,573.73	84.2237	8,573.73	84.7237	8,573.73	83.4793	8,573.73	83.8598	8,573.73	81.1759	8,573.73	82.1153	8,573.73	79.6438	8,573.73	81.1761	8,573.73	78.1773	8,573.73	78.9076	8,573.73	75.1382	8,573.73	77.0943	8,573.73	72.9468	8,573.73	74.6007	8,573.73	70.8889	8,573.73	71.7243	8,573.73	68.941	8,573.73	69.4918	8,573.73	64.6614	8,573.73	64.9655	8,573.73	63.9134	8,573.73	64.0905	8,573.73	63.5262	8,573.73	57.3655	8,573.73	58.9674	8,573.73	61.7003	8,573.73	64.3648	8,573.73	64.4365	8,573.73	66.1468	8,573.73	65.7071	8,573.73	52.9298	8,573.73	61.2297	8,573.73	60.347
8,876.95	85.7613	8,876.95	84.7664	8,876.95	85.2354	8,876.95	84.1892	8,876.95	84.8765	8,876.95	82.8214	8,876.95	83.9465	8,876.95	80.809	8,876.95	81.9287	8,876.95	78.6046	8,876.95	80.0177	8,876.95	77.2669	8,876.95	78.9596	8,876.95	75.5094	8,876.95	76.1362	8,876.95	72.4702	8,876.95	75.2223	8,876.95	67.1921	8,876.95	71.4364	8,876.95	66.5956	8,876.95	68.2525	8,876.95	63.9688	8,876.95	65.465	8,876.95	61.9234	8,876.95	63.624	8,876.95	63.1532	8,876.95	53.6068	8,876.95	56.4699	8,876.95	59.9857	8,876.95	62.7455	8,876.95	64.7097	8,876.95	64.1534	8,876.95	65.184	8,876.95	51.5943	8,876.95	55.3146	8,876.95	58.3692
9,188.96	85.545	9,188.96	84.7368	9,188.96	85.0798	9,188.96	84.2475	9,188.96	84.4956	9,188.96	82.408	9,188.96	83.2176	9,188.96	80.3714	9,188.96	81.1549	9,188.96	78.6474	9,188.96	79.6203	9,188.96	77.3909	9,188.96	78.9039	9,188.96	74.4578	9,188.96	77.0234	9,188.96	70.7262	9,188.96	73.4359	9,188.96	68.0006	9,188.96	70.2322	9,188.96	65.502	9,188.96	67.3981	9,188.96	64.1713	9,188.96	66.313	9,188.96	60.5982	9,188.96	63.7655	9,188.96	59.725	9,188.96	51.6895	9,188.96	58.4959	9,188.96	59.2072	9,188.96	61.5258	9,188.96	61.634	9,188.96	61.8447	9,188.96	64.0595	9,188.96	55.8192	9,188.96	55.2359	9,188.96	56.7742
9,514.16	85.2934	9,514.16	84.6337	9,514.16	85.2299	9,514.16	84.1348	9,514.16	84.744	9,514.16	81.9091	9,514.16	83.3409	9,514.16	80.3318	9,514.16	80.9363	9,514.16	77.7906	9,514.16	79.2909	9,514.16	76.1642	9,514.16	78.6323	9,514.16	73.2935	9,514.16	75.6535	9,514.16	70.2578	9,514.16	73.1377	9,514.16	66.6748	9,514.16	69.4296	9,514.16	65.4015	9,514.16	67.0541	9,514.16	62.7595	9,514.16	64.4756	9,514.16	58.4223	9,514.16	60.2161	9,514.16	55.6445	9,514.16	59.4501	9,514.16	56.2113	9,514.16	55.9595	9,514.16	59.7147	9,514.16	62.7935	9,514.16	62.7513	9,514.16	63.578	9,514.16	52.3258	9,514.16	54.3216	9,514.16	57.3392
9,849.61	84.8507	9,849.61	84.4429	9,849.61	85.09	9,849.61	83.247	9,849.61	84.2484	9,849.61	81.2639	9,849.61	82.5674	9,849.61	79.2971	9,849.61	80.527	9,849.61	78.2174	9,849.61	79.2693	9,849.61	75.0847	9,849.61	78.0341	9,849.61	72.5956	9,849.61	75.5512	9,849.61	69.9816	9,849.61	72.0445	9,849.61	67.4615	9,849.61	69.3861	9,849.61	65.9449	9,849.61	66.9417	9,849.61	61.4795	9,849.61	62.5047	9,849.61	58.6774	9,849.61	60.1234	9,849.61	52.4635	9,849.61	59.6398	9,849.61	55.5941	9,849.61	57.3356	9,849.61	61.2091	9,849.61	60.9598	9,849.61	63.5482	9,849.61	63.2989	9,849.61	52.2109	9,849.61	55.8969	9,849.61	55.7117
10,196.8	84.9675	10,196.8	84.3621	10,196.8	85.0123	10,196.8	83.1518	10,196.8	83.911	10,196.8	80.4636	10,196.8	81.8362	10,196.8	79.2972	10,196.8	80.6959	10,196.8	77.2382	10,196.8	78.789	10,196.8	75.4135	10,196.8	77.0218	10,196.8	73.0794	10,196.8	74.8801	10,196.8	71.7591	10,196.8	73.0105	10,196.8	68.8139	10,196.8	69.859	10,196.8	66.009	10,196.8	66.2736	10,196.8	63.1531	10,196.8	63.4958	10,196.8	60.646	10,196.8	60.4186	10,196.8	57.8468	10,196.8	54.3374	10,196.8	55.436	10,196.8	57.429	10,196.8	61.0028	10,196.8	61.1355	10,196.8	62.7684	10,196.8	63.0368	10,196.8	47.5691	10,196.8	53.2483	10,196.8	57.8267
10,555.7	84.4148	10,555.7	84.0454	10,555.7	84.5976	10,555.7	81.8908	10,555.7	83.1997	10,555.7	79.8886	10,555.7	80.9936	10,555.7	78.768	10,555.7	79.68	10,555.7	76.461	10,555.7	78.0016	10,555.7	75.242	10,555.7	76.4728	10,555.7	75.3535	10,555.7	75.5143	10,555.7	71.9513	10,555.7	73.1067	10,555.7	69.4416	10,555.7	69.9689	10,555.7	66.3541	10,555.7	67.1009	10,555.7	64.3388	10,555.7	64.4242	10,555.7	60.9357	10,555.7	59.4176	10,555.7	57.8582	10,555.7	55.8793	10,555.7	55.2458	10,555.7	56.3751	10,555.7	60.2304	10,555.7	60.9146	10,555.7	62.4127	10,555.7	62.7295	10,555.7	53.3818	10,555.7	51.5586	10,555.7	54.4383
10,927.7	83.6051	10,927.7	83.4033	10,927.7	83.7201	10,927.7	81.0938	10,927.7	82.3598	10,927.7	79.6154	10,927.7	80.3539	10,927.7	77.6806	10,927.7	79.0458	10,927.7	75.2692	10,927.7	76.5256	10,927.7	76.114	10,927.7	76.2414	10,927.7	74.9999	10,927.7	74.8469	10,927.7	71.935	10,927.7	72.6264	10,927.7	68.5941	10,927.7	69.3277	10,927.7	65.7645	10,927.7	66.5231	10,927.7	63.5301	10,927.7	63.6773	10,927.7	58.843	10,927.7	59.0212	10,927.7	57.7352	10,927.7	53.8362	10,927.7	56.4475	10,927.7	56.4971	10,927.7	59.8972	10,927.7	60.5126	10,927.7	60.5406	10,927.7	61.8907	10,927.7	51.9587	10,927.7	52.7165	10,927.7	56.0699
11,313	82.8952	11,313	82.4804	11,313	82.8512	11,313	80.0581	11,313	80.9638	11,313	78.3863	11,313	79.2337	11,313	75.8848	11,313	77.1933	11,313	75.2203	11,313	75.3064	11,313	75.3752	11,313	75.5998	11,313	73.8591	11,313	73.8858	11,313	69.9646	11,313	71.2375	11,313	66.8463	11,313	67.944	11,313	64.3336	11,313	64.9743	11,313	61.7911	11,313	62.2241	11,313	57.9742	11,313	59.8714	11,313	54.2817	11,313	53.333	11,313	55.122	11,313	55.1956	11,313	57.8193	11,313	58.4021	11,313	59.1678	11,313	60.4907	11,313	53.4215	11,313	51.1548	11,313	55.6512
11,712.9	82.065	11,712.9	81.1535	11,712.9	81.8121	11,712.9	78.9177	11,712.9	79.3955	11,712.9	76.513	11,712.9	77.8492	11,712.9	73.9548	11,712.9	75.3442	11,712.9	74.5576	11,712.9	74.5139	11,712.9	74.0422	11,712.9	74.6162	11,712.9	71.5269	11,712.9	72.556	11,712.9	69.2308	11,712.9	69.3695	11,712.9	66.6158	11,712.9	66.2873	11,712.9	64.4003	11,712.9	63.6141	11,712.9	61.7437	11,712.9	60.2071	11,712.9	56.2798	11,712.9	56.8396	11,712.9	53.3904	11,712.9	55.4661	11,712.9	51.9921	11,712.9	53.8909	11,712.9	55.6449	11,712.9	57.1309	11,712.9	56.797	11,712.9	58.5325	11,712.9	52.519	11,712.9	51.3477	11,712.9	54.6366
12,126	81.5575	12,126	80.445	12,126	80.9744	12,126	78.8381	12,126	79.2075	12,126	75.8413	12,126	76.9506	12,126	74.5011	12,126	74.7536	12,126	74.0341	12,126	74.4637	12,126	72.9459	12,126	73.7985	12,126	70.9903	12,126	72.6136	12,126	69.0031	12,126	69.1603	12,126	66.6774	12,126	66.913	12,126	62.363	12,126	62.6816	12,126	60.052	12,126	61.018	12,126	55.2556	12,126	57.3274	12,126	53.707	12,126	53.3105	12,126	51.0499	12,126	51.4045	12,126	55.0678	12,126	54.8367	12,126	54.7459	12,126	57.2185	12,126	49.2476	12,126	51.2759	12,126	53.1794
12,553.7	81.9988	12,553.7	80.425	12,553.7	81.0176	12,553.7	79.3942	12,553.7	79.9427	12,553.7	75.1165	12,553.7	77.3317	12,553.7	74.4664	12,553.7	75.5108	12,553.7	73.2286	12,553.7	74.403	12,553.7	72.1767	12,553.7	72.7342	12,553.7	71.9267	12,553.7	71.92	12,553.7	69.6341	12,553.7	70.8005	12,553.7	67.3089	12,553.7	67.8477	12,553.7	63.6853	12,553.7	63.1601	12,553.7	59.6783	12,553.7	61.7206	12,553.7	54.3542	12,553.7	58.7474	12,553.7	53.8786	12,553.7	55.3016	12,553.7	48.4392	12,553.7	53.2686	12,553.7	56.4217	12,553.7	56.3146	12,553.7	54.9659	12,553.7	57.5688	12,553.7	52.1497	12,553.7	51.1854	12,553.7	51.9392
12,996.1	83.0411	12,996.1	81.5093	12,996.1	81.5192	12,996.1	80.1412	12,996.1	81.0762	12,996.1	76.0379	12,996.1	78.2268	12,996.1	75.397	12,996.1	76.6021	12,996.1	71.8722	12,996.1	74.2675	12,996.1	73.1571	12,996.1	73.4759	12,996.1	72.6984	12,996.1	72.8147	12,996.1	70.5697	12,996.1	71.0935	12,996.1	67.1561	12,996.1	67.9129	12,996.1	63.2961	12,996.1	64.7819	12,996.1	60.7621	12,996.1	61.2209	12,996.1	57.0407	12,996.1	58.066	12,996.1	53.3439	12,996.1	53.5431	12,996.1	48.1055	12,996.1	53.4949	12,996.1	55.442	12,996.1	55.8757	12,996.1	55.3308	12,996.1	57.3273	12,996.1	52.9122	12,996.1	52.2931	12,996.1	53.5912
13,454.6	83.9518	13,454.6	82.7232	13,454.6	82.927	13,454.6	81.4614	13,454.6	82.3989	13,454.6	78.0005	13,454.6	79.6378	13,454.6	75.7485	13,454.6	77.7504	13,454.6	73.1245	13,454.6	73.8002	13,454.6	74.6007	13,454.6	75.8263	13,454.6	72.9197	13,454.6	75.2252	13,454.6	70.3392	13,454.6	72.637	13,454.6	66.9755	13,454.6	68.9068	13,454.6	63.3284	13,454.6	66.1056	13,454.6	59.9265	13,454.6	61.6236	13,454.6	59.1206	13,454.6	60.5093	13,454.6	53.1442	13,454.6	53.9575	13,454.6	47.135	13,454.6	53.4408	13,454.6	55.0422	13,454.6	54.9882	13,454.6	56.5845	13,454.6	57.9268	13,454.6	55.0454	13,454.6	52.7084	13,454.6	54.363
13,929.2	84.4765	13,929.2	83.87	13,929.2	84.4795	13,929.2	82.5489	13,929.2	83.8279	13,929.2	80.2907	13,929.2	81.5846	13,929.2	75.8882	13,929.2	78.3546	13,929.2	75.1096	13,929.2	75.2639	13,929.2	75.1646	13,929.2	77.0422	13,929.2	74.0991	13,929.2	75.8265	13,929.2	71.4396	13,929.2	73.0952	13,929.2	68.5878	13,929.2	69.8195	13,929.2	65.2168	13,929.2	65.5484	13,929.2	62.5758	13,929.2	62.5827	13,929.2	59.8034	13,929.2	60.995	13,929.2	55.9997	13,929.2	57.0319	13,929.2	48.7631	13,929.2	49.0145	13,929.2	51.2796	13,929.2	54.9323	13,929.2	58.1966	13,929.2	59.4945	13,929.2	55.6209	13,929.2	51.0971	13,929.2	54.1934
14,419.9	84.0961	14,419.9	83.9699	14,419.9	84.7187	14,419.9	82.3425	14,419.9	83.9606	14,419.9	81.1077	14,419.9	82.5054	14,419.9	76.7606	14,419.9	78.6129	14,419.9	76.2641	14,419.9	77.458	14,419.9	75.6543	14,419.9	77.0263	14,419.9	74.6832	14,419.9	75.4786	14,419.9	72.4957	14,419.9	73.0454	14,419.9	68.7985	14,419.9	69.789	14,419.9	65.9541	14,419.9	65.7297	14,419.9	63.3994	14,419.9	62.6506	14,419.9	60.5835	14,419.9	60.7662	14,419.9	52.407	14,419.9	57.9414	14,419.9	45.2488	14,419.9	51.3848	14,419.9	49.8975	14,419.9	56.3248	14,419.9	58.2067	14,419.9	59.9433	14,419.9	53.603	14,419.9	45.2534	14,419.9	52.9623
14,928.2	83.6617	14,928.2	83.3183	14,928.2	84.3206	14,928.2	82.0752	14,928.2	83.2139	14,928.2	80.5516	14,928.2	81.8131	14,928.2	77.7181	14,928.2	79.0186	14,928.2	75.9587	14,928.2	77.7709	14,928.2	75.1255	14,928.2	75.8203	14,928.2	74.4765	14,928.2	74.3642	14,928.2	71.7417	14,928.2	72.4727	14,928.2	66.9159	14,928.2	67.7452	14,928.2	64.3522	14,928.2	63.3102	14,928.2	61.5725	14,928.2	60.9274	14,928.2	57.1319	14,928.2	58.9255	14,928.2	47.9446	14,928.2	55.4683	14,928.2	46.6006	14,928.2	50.1026	14,928.2	43.9232	14,928.2	55.829	14,928.2	55.3699	14,928.2	58.7864	14,928.2	52.0858	14,928.2	37.1505	14,928.2	51.7432
15,455.6	83.0384	15,455.6	82.0758	15,455.6	83.5309	15,455.6	81.1107	15,455.6	82.1191	15,455.6	78.7762	15,455.6	80.4452	15,455.6	77.4892	15,455.6	78.6253	15,455.6	75.4926	15,455.6	76.708	15,455.6	74.6764	15,455.6	75.2967	15,455.6	72.7541	15,455.6	73.8398	15,455.6	68.5996	15,455.6	70.1565	15,455.6	64.7299	15,455.6	64.9851	15,455.6	60.7335	15,455.6	58.7709	15,455.6	59.202	15,455.6	58.3792	15,455.6	53.9415	15,455.6	57.162	15,455.6	43.8132	15,455.6	51.8463	15,455.6	43.0634	15,455.6	41.3541	15,455.6	38.9377	15,455.6	53.909	15,455.6	53.17	15,455.6	56.7725	15,455.6	50.3403	15,455.6	23.8129	15,455.6	50.523
16,000.5	84.0497	16,000.5	82.607	16,000.5	84.2464	16,000.5	81.4062	16,000.5	82.9364	16,000.5	78.9482	16,000.5	81.1488	16,000.5	78.7469	16,000.5	79.7496	16,000.5	76.1138	16,000.5	77.2177	16,000.5	74.8535	16,000.5	75.7725	16,000.5	71.8205	16,000.5	73.538	16,000.5	66.8871	16,000.5	67.5291	16,000.5	63.0843	16,000.5	62.9873	16,000.5	58.3996	16,000.5	59.6351	16,000.5	54.5992	16,000.5	57.6842	16,000.5	52.7725	16,000.5	54.6174	16,000.5	47.2979	16,000.5	52.0706	16,000.5	39.9877	16,000.5	37.6307	16,000.5	38.4516	16,000.5	53.4223	16,000.5	52.8721	16,000.5	54.907	16,000.5	45.6133	16,000.5	33.903	16,000.5	49.3135
16,564.5	84.4589	16,564.5	82.808	16,564.5	84.4671	16,564.5	81.1612	16,564.5	83.2165	16,564.5	79.6327	16,564.5	81.4974	16,564.5	79.6525	16,564.5	80.4044	16,564.5	77.2422	16,564.5	77.7477	16,564.5	74.9664	16,564.5	75.9316	16,564.5	71.9164	16,564.5	72.7787	16,564.5	67.03	16,564.5	68.5049	16,564.5	63.4882	16,564.5	63.5851	16,564.5	59.5153	16,564.5	60.8816	16,564.5	56.4018	16,564.5	57.3973	16,564.5	52.6373	16,564.5	51.1336	16,564.5	46.9077	16,564.5	46.501	16,564.5	36.0866	16,564.5	36.5057	16,564.5	42.3413	16,564.5	52.7515	16,564.5	48.3978	16,564.5	54.219	16,564.5	41.8518	16,564.5	41.5917	16,564.5	49.3763
17,148.9	84.3723	17,148.9	82.6467	17,148.9	84.2446	17,148.9	80.7354	17,148.9	82.9768	17,148.9	80.2324	17,148.9	81.6888	17,148.9	79.8575	17,148.9	80.5052	17,148.9	77.8774	17,148.9	77.7276	17,148.9	74.552	17,148.9	75.5157	17,148.9	72.0438	17,148.9	72.8341	17,148.9	67.5796	17,148.9	69.0627	17,148.9	64.1313	17,148.9	64.4621	17,148.9	57.6536	17,148.9	60.4424	17,148.9	56.1707	17,148.9	57.4392	17,148.9	51.6199	17,148.9	51.1293	17,148.9	48.8685	17,148.9	43.197	17,148.9	43.051	17,148.9	44.4211	17,148.9	39.5869	17,148.9	51.9461	17,148.9	44.0639	17,148.9	54.1107	17,148.9	45.0644	17,148.9	43.9894	17,148.9	48.95
17,752.4	84.1872	17,752.4	82.687	17,752.4	83.967	17,752.4	81.34	17,752.4	82.8178	17,752.4	80.8556	17,752.4	81.5869	17,752.4	80.1467	17,752.4	80.3992	17,752.4	77.7633	17,752.4	77.2667	17,752.4	74.289	17,752.4	75.2122	17,752.4	72.2827	17,752.4	73.4497	17,752.4	67.9046	17,752.4	68.5617	17,752.4	63.297	17,752.4	64.1057	17,752.4	57.9106	17,752.4	59.6282	17,752.4	55.4807	17,752.4	55.8465	17,752.4	52.4953	17,752.4	52.2334	17,752.4	49.6483	17,752.4	39.221	17,752.4	47.6106	17,752.4	46.578	17,752.4	40.9927	17,752.4	50.138	17,752.4	41.4998	17,752.4	49.9374	17,752.4	48.9381	17,752.4	44.6531	17,752.4	47.6753
18,379.4	84.4131	18,379.4	83.2373	18,379.4	84.1853	18,379.4	82.4824	18,379.4	83.0776	18,379.4	81.6206	18,379.4	81.6276	18,379.4	80.8885	18,379.4	80.5094	18,379.4	77.9554	18,379.4	77.2551	18,379.4	75.0884	18,379.4	75.7683	18,379.4	72.1324	18,379.4	73.4261	18,379.4	68.1897	18,379.4	68.8845	18,379.4	63.2354	18,379.4	64.1973	18,379.4	59.7324	18,379.4	59.8067	18,379.4	55.7866	18,379.4	56.0874	18,379.4	53.376	18,379.4	50.3737	18,379.4	47.5	18,379.4	42.5832	18,379.4	45.7884	18,379.4	48.8105	18,379.4	38.0604	18,379.4	46.7693	18,379.4	43.3396	18,379.4	47.6967	18,379.4	47.5625	18,379.4	41.6617	18,379.4	43.2007
19,026.9	84.8516	19,026.9	84.3171	19,026.9	84.7317	19,026.9	84.0522	19,026.9	83.668	19,026.9	83.1331	19,026.9	82.3192	19,026.9	81.8248	19,026.9	81.3671	19,026.9	78.4311	19,026.9	78.3647	19,026.9	75.322	19,026.9	76.467	19,026.9	71.8197	19,026.9	73.5458	19,026.9	67.6292	19,026.9	69.6377	19,026.9	63.9129	19,026.9	64.7309	19,026.9	59.9311	19,026.9	60.2614	19,026.9	56.6353	19,026.9	56.8056	19,026.9	52.0042	19,026.9	50.4343	19,026.9	47.215	19,026.9	46.6707	19,026.9	46.5747	19,026.9	49.9998	19,026.9	35.1582	19,026.9	47.3821	19,026.9	39.153	19,026.9	44.1883	19,026.9	45.2023	19,026.9	29.6089	19,026.9	38.5724
19,697.8	83.5285	19,697.8	83.3917	19,697.8	83.1897	19,697.8	83.5479	19,697.8	82.556	19,697.8	82.2923	19,697.8	81.1024	19,697.8	80.535	19,697.8	79.832	19,697.8	76.834	19,697.8	77.0752	19,697.8	72.9108	19,697.8	74.2946	19,697.8	69.888	19,697.8	71.002	19,697.8	64.9465	19,697.8	67.5309	19,697.8	62.3658	19,697.8	62.3746	19,697.8	55.9427	19,697.8	58.4857	19,697.8	53.9191	19,697.8	54.5585	19,697.8	50.2812	19,697.8	46.9729	19,697.8	48.7894	19,697.8	42.0695	19,697.8	44.801	19,697.8	48.0709	19,697.8	27.3073	19,697.8	47.1217	19,697.8	41.9089	19,697.8	36.2721	19,697.8	43.7174	19,697.8	40.0507	19,697.8	26.2369
19,999.5	82.6947	19,999.5	82.3031	19,999.5	82.2055	19,999.5	82.8583	19,999.5	81.7862	19,999.5	81.2631	19,999.5	80.0256	19,999.5	79.3386	19,999.5	78.6856	19,999.5	74.7296	19,999.5	76.5788	19,999.5	70.3452	19,999.5	72.6782	19,999.5	68.9559	19,999.5	70.2802	19,999.5	63.7749	19,999.5	64.2757	19,999.5	61.0815	19,999.5	61.3278	19,999.5	48.8893	19,999.5	58.2416	19,999.5	53.2172	19,999.5	50.5522	19,999.5	53.9325	19,999.5	51.1569	19,999.5	57.009	19,999.5	47.4372	19,999.5	56.4657	19,999.5	53.9911	19,999.5	56.084	19,999.5	51.5675	19,999.5	43.8696	19,999.5	52.6386	19,999.5	50.1252	19,999.5	49.3378	19,999.5	45.7664
