"SPL Horizontal"																																																																							
"On-Axis"		"10°"		"-10°"		"20°"		"-20°"		"30°"		"-30°"		"40°"		"-40°"		"50°"		"-50°"		"60°"		"-60°"		"70°"		"-70°"		"80°"		"-80°"		"90°"		"-90°"		"100°"		"-100°"		"110°"		"-110°"		"120°"		"-120°"		"130°"		"-130°"		"140°"		"-140°"		"150°"		"-150°"		"160°"		"-160°"		"170°"		"-170°"		"180°"	
"Frequency [Hz]"	"Sound Pessure Level [dB]  / [2.83V 1m] "	"Frequency [Hz]"	"Sound Pessure Level [dB]  / [2.83V 1m] "	"Frequency [Hz]"	"Sound Pessure Level [dB]  / [2.83V 1m] "	"Frequency [Hz]"	"Sound Pessure Level [dB]  / [2.83V 1m] "	"Frequency [Hz]"	"Sound Pessure Level [dB]  / [2.83V 1m] "	"Frequency [Hz]"	"Sound Pessure Level [dB]  / [2.83V 1m] "	"Frequency [Hz]"	"Sound Pessure Level [dB]  / [2.83V 1m] "	"Frequency [Hz]"	"Sound Pessure Level [dB]  / [2.83V 1m] "	"Frequency [Hz]"	"Sound Pessure Level [dB]  / [2.83V 1m] "	"Frequency [Hz]"	"Sound Pessure Level [dB]  / [2.83V 1m] "	"Frequency [Hz]"	"Sound Pessure Level [dB]  / [2.83V 1m] "	"Frequency [Hz]"	"Sound Pessure Level [dB]  / [2.83V 1m] "	"Frequency [Hz]"	"Sound Pessure Level [dB]  / [2.83V 1m] "	"Frequency [Hz]"	"Sound Pessure Level [dB]  / [2.83V 1m] "	"Frequency [Hz]"	"Sound Pessure Level [dB]  / [2.83V 1m] "	"Frequency [Hz]"	"Sound Pessure Level [dB]  / [2.83V 1m] "	"Frequency [Hz]"	"Sound Pessure Level [dB]  / [2.83V 1m] "	"Frequency [Hz]"	"Sound Pessure Level [dB]  / [2.83V 1m] "	"Frequency [Hz]"	"Sound Pessure Level [dB]  / [2.83V 1m] "	"Frequency [Hz]"	"Sound Pessure Level [dB]  / [2.83V 1m] "	"Frequency [Hz]"	"Sound Pessure Level [dB]  / [2.83V 1m] "	"Frequency [Hz]"	"Sound Pessure Level [dB]  / [2.83V 1m] "	"Frequency [Hz]"	"Sound Pessure Level [dB]  / [2.83V 1m] "	"Frequency [Hz]"	"Sound Pessure Level [dB]  / [2.83V 1m] "	"Frequency [Hz]"	"Sound Pessure Level [dB]  / [2.83V 1m] "	"Frequency [Hz]"	"Sound Pessure Level [dB]  / [2.83V 1m] "	"Frequency [Hz]"	"Sound Pessure Level [dB]  / [2.83V 1m] "	"Frequency [Hz]"	"Sound Pessure Level [dB]  / [2.83V 1m] "	"Frequency [Hz]"	"Sound Pessure Level [dB]  / [2.83V 1m] "	"Frequency [Hz]"	"Sound Pessure Level [dB]  / [2.83V 1m] "	"Frequency [Hz]"	"Sound Pessure Level [dB]  / [2.83V 1m] "	"Frequency [Hz]"	"Sound Pessure Level [dB]  / [2.83V 1m] "	"Frequency [Hz]"	"Sound Pessure Level [dB]  / [2.83V 1m] "	"Frequency [Hz]"	"Sound Pessure Level [dB]  / [2.83V 1m] "	"Frequency [Hz]"	"Sound Pessure Level [dB]  / [2.83V 1m] "	"Frequency [Hz]"	"Sound Pessure Level [dB]  / [2.83V 1m] "
20.5078	52.0829	20.5078	52.2732	20.5078	51.8173	20.5078	52.3936	20.5078	51.4764	20.5078	52.4535	20.5078	51.0689	20.5078	52.4665	20.5078	50.6186	20.5078	52.4508	20.5078	50.1739	20.5078	52.4303	20.5078	49.817	20.5078	52.4337	20.5078	49.6581	20.5078	52.4923	20.5078	49.7981	20.5078	52.6337	20.5078	50.267	20.5078	52.8741	20.5078	50.9977	20.5078	53.2111	20.5078	51.8665	20.5078	53.623	20.5078	52.7537	20.5078	54.0731	20.5078	53.5731	20.5078	54.5188	20.5078	54.2728	20.5078	54.9186	20.5078	54.8249	20.5078	55.2366	20.5078	55.2172	20.5078	55.4443	20.5078	55.4473	20.5078	55.5197
23.4375	51.5701	23.4375	51.6724	23.4375	51.6077	23.4375	51.9053	23.4375	51.8114	23.4375	52.2759	23.4375	52.2135	23.4375	52.7972	23.4375	52.8322	23.4375	53.4746	23.4375	53.6544	23.4375	54.2953	23.4375	54.635	23.4375	55.2275	23.4375	55.711	23.4375	56.2275	23.4375	56.819	23.4375	57.2497	23.4375	57.9065	23.4375	58.2532	23.4375	58.9339	23.4375	59.2051	23.4375	59.8732	23.4375	60.0799	23.4375	60.7048	23.4375	60.8583	23.4375	61.415	23.4375	61.5256	23.4375	61.9941	23.4375	62.0707	23.4375	62.4354	23.4375	62.485	23.4375	62.7345	23.4375	62.7622	23.4375	62.8888	23.4375	62.8977
26.3672	60.588	26.3672	60.6182	26.3672	60.5914	26.3672	60.6839	26.3672	60.636	26.3672	60.7953	26.3672	60.7371	26.3672	60.9686	26.3672	60.9155	26.3672	61.2221	26.3672	61.1914	26.3672	61.5705	26.3672	61.5782	26.3672	62.0192	26.3672	62.0759	26.3672	62.5605	26.3672	62.6688	26.3672	63.1741	26.3672	63.3284	26.3672	63.8308	26.3672	64.0193	26.3672	64.4978	26.3672	64.7055	26.3672	65.1432	26.3672	65.3542	26.3672	65.7388	26.3672	65.9382	26.3672	66.2611	26.3672	66.4361	26.3672	66.6917	26.3672	66.832	26.3672	67.0166	26.3672	67.1144	26.3672	67.226	26.3672	67.2762	26.3672	67.3134
29.2969	63.9882	29.2969	64.0473	29.2969	63.962	29.2969	64.1444	29.2969	63.9733	29.2969	64.2929	29.2969	64.0367	29.2969	64.5113	29.2969	64.1738	29.2969	64.818	29.2969	64.409	29.2969	65.2248	29.2969	64.7615	29.2969	65.7321	29.2969	65.2374	29.2969	66.326	29.2969	65.8252	29.2969	66.9812	29.2969	66.4976	29.2969	67.6654	29.2969	67.2174	29.2969	68.345	29.2969	67.945	29.2969	68.989	29.2969	68.6441	29.2969	69.5709	29.2969	69.2841	29.2969	70.0689	29.2969	69.8411	29.2969	70.4666	29.2969	70.297	29.2969	70.7512	29.2969	70.639	29.2969	70.9144	29.2969	70.8585	29.2969	70.9508
32.2266	69.8789	32.2266	69.9015	32.2266	69.8811	32.2266	69.9522	32.2266	69.9107	32.2266	70.0402	32.2266	69.9765	32.2266	70.1787	32.2266	70.0919	32.2266	70.3821	32.2266	70.2728	32.2266	70.6622	32.2266	70.533	32.2266	71.0245	32.2266	70.8804	32.2266	71.4649	32.2266	71.3129	32.2266	71.9691	32.2266	71.8169	32.2266	72.5147	32.2266	72.3695	32.2266	73.0746	32.2266	72.9421	32.2266	73.6206	32.2266	73.5047	32.2266	74.1263	32.2266	74.0293	32.2266	74.569	32.2266	74.4918	32.2266	74.9301	32.2266	74.8727	32.2266	75.1954	32.2266	75.1574	32.2266	75.3548	32.2266	75.3359	32.2266	75.4023
35.1563	74.3509	35.1563	74.376	35.1563	74.3496	35.1563	74.4281	35.1563	74.3741	35.1563	74.5143	35.1563	74.431	35.1563	74.645	35.1563	74.5307	35.1563	74.8315	35.1563	74.6858	35.1563	75.0834	35.1563	74.9079	35.1563	75.4053	35.1563	75.2046	35.1563	75.7944	35.1563	75.576	35.1563	76.2399	35.1563	76.0131	35.1563	76.7234	35.1563	76.4983	35.1563	77.222	35.1563	77.0082	35.1563	77.7107	35.1563	77.5162	35.1563	78.1653	35.1563	77.9962	35.1563	78.5641	35.1563	78.4249	35.1563	78.889	35.1563	78.7826	35.1563	79.1258	35.1563	79.0541	35.1563	79.2646	35.1563	79.2285	35.1563	79.2995
38.0859	78.9851	38.0859	79.0011	38.0859	78.9939	38.0859	79.0438	38.0859	79.0288	38.0859	79.1184	38.0859	79.0943	38.0859	79.232	38.0859	79.1973	38.0859	79.3929	38.0859	79.3464	38.0859	79.6078	38.0859	79.5491	38.0859	79.8808	38.0859	79.8104	38.0859	80.2102	38.0859	80.1304	38.0859	80.5887	38.0859	80.5026	38.0859	81.0026	38.0859	80.9143	38.0859	81.4337	38.0859	81.3473	38.0859	81.8611	38.0859	81.7806	38.0859	82.2634	38.0859	82.1921	38.0859	82.6206	38.0859	82.561	38.0859	82.9153	38.0859	82.8693	38.0859	83.1337	38.0859	83.1024	38.0859	83.2656	38.0859	83.2498	38.0859	83.3049
41.0156	83.1728	41.0156	83.1852	41.0156	83.1841	41.0156	83.2229	41.0156	83.2199	41.0156	83.2896	41.0156	83.2829	41.0156	83.3904	41.0156	83.378	41.0156	83.5311	41.0156	83.5107	41.0156	83.7166	41.0156	83.6864	41.0156	83.9498	41.0156	83.9088	41.0156	84.2298	41.0156	84.1784	41.0156	84.5513	41.0156	84.4911	41.0156	84.904	41.0156	84.8378	41.0156	85.2734	41.0156	85.2048	41.0156	85.6424	41.0156	85.5752	41.0156	85.9923	41.0156	85.9303	41.0156	86.3051	41.0156	86.2517	41.0156	86.5648	41.0156	86.5224	41.0156	86.7579	41.0156	86.7286	41.0156	86.8747	41.0156	86.8597	41.0156	86.9092
43.9453	86.8778	43.9453	86.8918	43.9453	86.8869	43.9453	86.9297	43.9453	86.9194	43.9453	86.9939	43.9453	86.9774	43.9453	87.0877	43.9453	87.0639	43.9453	87.2146	43.9453	87.1825	43.9453	87.3779	43.9453	87.3367	43.9453	87.5792	43.9453	87.529	43.9453	87.8179	43.9453	87.7595	43.9453	88.09	43.9453	88.0252	43.9453	88.388	43.9453	88.3192	43.9453	88.7008	43.9453	88.6311	43.9453	89.0145	43.9453	88.9473	43.9453	89.3137	43.9453	89.2523	43.9453	89.5827	43.9453	89.53	43.9453	89.8071	43.9453	89.7655	43.9453	89.9746	43.9453	89.9459	43.9453	90.0759	43.9453	90.0612	43.9453	90.1054
46.875	89.6736	46.875	89.6867	46.875	89.6828	46.875	89.7226	46.875	89.7146	46.875	89.7828	46.875	89.7703	46.875	89.8691	46.875	89.8516	46.875	89.9837	46.875	89.9608	46.875	90.1285	46.875	90.1	46.875	90.3044	46.875	90.2704	46.875	90.5107	46.875	90.4717	46.875	90.7443	46.875	90.7014	46.875	90.9994	46.875	90.9541	46.875	91.2673	46.875	91.2216	46.875	91.5369	46.875	91.4927	46.875	91.7953	46.875	91.7548	46.875	92.0291	46.875	91.9941	46.875	92.2252	46.875	92.1976	46.875	92.3726	46.875	92.3535	46.875	92.4627	46.875	92.4529	46.875	92.49
49.8047	91.5102	49.8047	91.5225	49.8047	91.5197	49.8047	91.5567	49.8047	91.5511	49.8047	91.6136	49.8047	91.6049	49.8047	91.694	49.8047	91.6822	49.8047	91.799	49.8047	91.7839	49.8047	91.9293	49.8047	91.9109	49.8047	92.0851	49.8047	92.0634	49.8047	92.2654	49.8047	92.2408	49.8047	92.4676	49.8047	92.4408	49.8047	92.6871	49.8047	92.6588	49.8047	92.917	49.8047	92.8884	49.8047	93.1484	49.8047	93.1207	49.8047	93.3706	49.8047	93.3452	49.8047	93.5724	49.8047	93.5504	49.8047	93.7426	49.8047	93.7251	49.8047	93.8711	49.8047	93.859	49.8047	93.9502	49.8047	93.944	49.8047	93.9751
55.6641	92.9355	55.6641	92.946	55.6641	92.9455	55.6641	92.9771	55.6641	92.9761	55.6641	93.0282	55.6641	93.0269	55.6641	93.0992	55.6641	93.0976	55.6641	93.1892	55.6641	93.1876	55.6641	93.2977	55.6641	93.2961	55.6641	93.4234	55.6641	93.422	55.6641	93.5649	55.6641	93.5637	55.6641	93.7198	55.6641	93.7189	55.6641	93.8851	55.6641	93.8843	55.6641	94.0562	55.6641	94.0556	55.6641	94.2274	55.6641	94.2269	55.6641	94.3918	55.6641	94.3914	55.6641	94.5415	55.6641	94.5411	55.6641	94.6685	55.6641	94.6682	55.6641	94.7654	55.6641	94.7652	55.6641	94.8262	55.6641	94.826	55.6641	94.8468
58.5938	93.1081	58.5938	93.1165	58.5938	93.1195	58.5938	93.1448	58.5938	93.1507	58.5938	93.1922	58.5938	93.201	58.5938	93.2579	58.5938	93.2697	58.5938	93.3408	58.5938	93.3555	58.5938	93.4396	58.5938	93.4569	58.5938	93.5528	58.5938	93.5723	58.5938	93.6785	58.5938	93.6998	58.5938	93.8146	58.5938	93.837	58.5938	93.9582	58.5938	93.981	58.5938	94.1059	58.5938	94.1282	58.5938	94.2529	58.5938	94.2738	58.5938	94.3937	58.5938	94.4125	58.5938	94.5221	58.5938	94.538	58.5938	94.6314	58.5938	94.6438	58.5938	94.7154	58.5938	94.7239	58.5938	94.769	58.5938	94.7733	58.5938	94.7887
61.5234	93.0518	61.5234	93.0607	61.5234	93.0623	61.5234	93.0887	61.5234	93.092	61.5234	93.1349	61.5234	93.1401	61.5234	93.1982	61.5234	93.2053	61.5234	93.2768	61.5234	93.2861	61.5234	93.3692	61.5234	93.3806	61.5234	93.4732	61.5234	93.4866	61.5234	93.5869	61.5234	93.6021	61.5234	93.7079	61.5234	93.7245	61.5234	93.834	61.5234	93.8512	61.5234	93.9619	61.5234	93.9792	61.5234	94.0881	61.5234	94.1047	61.5234	94.2082	61.5234	94.2232	61.5234	94.3171	61.5234	94.33	61.5234	94.4096	61.5234	94.4198	61.5234	94.4807	61.5234	94.4877	61.5234	94.5259	61.5234	94.5295	61.5234	94.5425
67.3828	92.9899	67.3828	92.9972	67.3828	93.0006	67.3828	93.0222	67.3828	93.029	67.3828	93.0636	67.3828	93.074	67.3828	93.1197	67.3828	93.1338	67.3828	93.1885	67.3828	93.2064	67.3828	93.2675	67.3828	93.2891	67.3828	93.3542	67.3828	93.3794	67.3828	93.4462	67.3828	93.4745	67.3828	93.5414	67.3828	93.5721	67.3828	93.6375	67.3828	93.6697	67.3828	93.7325	67.3828	93.765	67.3828	93.8242	67.3828	93.8557	67.3828	93.9101	67.3828	93.9391	67.3828	93.9874	67.3828	94.0125	67.3828	94.0529	67.3828	94.073	67.3828	94.1036	67.3828	94.1175	67.3828	94.1367	67.3828	94.1439	67.3828	94.1504
73.2422	93.0222	73.2422	93.0253	73.2422	93.0356	73.2422	93.0446	73.2422	93.0651	73.2422	93.0788	73.2422	93.1093	73.2422	93.1261	73.2422	93.1662	73.2422	93.184	73.2422	93.2331	73.2422	93.2497	73.2422	93.3072	73.2422	93.3206	73.2422	93.3852	73.2422	93.3942	73.2422	93.4644	73.2422	93.468	73.2422	93.542	73.2422	93.5404	73.2422	93.6158	73.2422	93.6098	73.2422	93.6842	73.2422	93.675	73.2422	93.7457	73.2422	93.735	73.2422	93.799	73.2422	93.7884	73.2422	93.8433	73.2422	93.834	73.2422	93.8774	73.2422	93.8703	73.2422	93.9003	73.2422	93.8959	73.2422	93.9112	73.2422	93.9097
76.1719	92.9893	76.1719	92.9941	76.1719	93.0007	76.1719	93.0145	76.1719	93.0277	76.1719	93.0493	76.1719	93.0691	76.1719	93.0963	76.1719	93.1227	76.1719	93.153	76.1719	93.1858	76.1719	93.2165	76.1719	93.2554	76.1719	93.2839	76.1719	93.3283	76.1719	93.3524	76.1719	93.4013	76.1719	93.4197	76.1719	93.4719	76.1719	93.484	76.1719	93.5379	76.1719	93.544	76.1719	93.5977	76.1719	93.5988	76.1719	93.6501	76.1719	93.6477	76.1719	93.6946	76.1719	93.6902	76.1719	93.7306	76.1719	93.7257	76.1719	93.7578	76.1719	93.7536	76.1719	93.7758	76.1719	93.773	76.1719	93.7844	76.1719	93.7834
82.0313	93.0649	82.0313	93.0737	82.0313	93.0701	82.0313	93.0958	82.0313	93.0888	82.0313	93.1298	82.0313	93.12	82.0313	93.1734	82.0313	93.1616	82.0313	93.2239	82.0313	93.2111	82.0313	93.2783	82.0313	93.2653	82.0313	93.3335	82.0313	93.3214	82.0313	93.3868	82.0313	93.3761	82.0313	93.4357	82.0313	93.427	82.0313	93.4785	82.0313	93.4722	82.0313	93.5145	82.0313	93.5105	82.0313	93.5434	82.0313	93.5414	82.0313	93.5656	82.0313	93.5652	82.0313	93.582	82.0313	93.5826	82.0313	93.5935	82.0313	93.5946	82.0313	93.6012	82.0313	93.6022	82.0313	93.6056	82.0313	93.6062	82.0313	93.6073
87.8906	93.2228	87.8906	93.23	87.8906	93.2267	87.8906	93.2477	87.8906	93.2413	87.8906	93.2744	87.8906	93.2654	87.8906	93.3077	87.8906	93.2968	87.8906	93.3449	87.8906	93.3329	87.8906	93.3827	87.8906	93.3706	87.8906	93.4181	87.8906	93.4068	87.8906	93.4482	87.8906	93.4386	87.8906	93.471	87.8906	93.4637	87.8906	93.4853	87.8906	93.4806	87.8906	93.4909	87.8906	93.489	87.8906	93.4889	87.8906	93.4895	87.8906	93.4809	87.8906	93.4835	87.8906	93.4696	87.8906	93.4733	87.8906	93.4575	87.8906	93.4614	87.8906	93.4471	87.8906	93.4503	87.8906	93.4405	87.8906	93.4423	87.8906	93.4388
93.75	93.1204	93.75	93.1204	93.75	93.1346	93.75	93.1344	93.75	93.1627	93.75	93.1609	93.75	93.2031	93.75	93.1977	93.75	93.2534	93.75	93.242	93.75	93.3106	93.75	93.2906	93.75	93.3712	93.75	93.3401	93.75	93.4314	93.75	93.3876	93.75	93.4877	93.75	93.4304	93.75	93.537	93.75	93.4669	93.75	93.577	93.75	93.4962	93.75	93.6062	93.75	93.5184	93.75	93.6244	93.75	93.5348	93.75	93.6323	93.75	93.5469	93.75	93.6316	93.75	93.5566	93.75	93.6244	93.75	93.5658	93.75	93.6132	93.75	93.5759	93.75	93.6003	93.75	93.5875
102.539	93.386	102.539	93.387	102.539	93.3953	102.539	93.3979	102.539	93.4145	102.539	93.4175	102.539	93.4423	102.539	93.4437	102.539	93.4767	102.539	93.474	102.539	93.5148	102.539	93.5053	102.539	93.5537	102.539	93.5347	102.539	93.59	102.539	93.5592	102.539	93.6206	102.539	93.5766	102.539	93.6429	102.539	93.5856	102.539	93.6549	102.539	93.5858	102.539	93.656	102.539	93.5781	102.539	93.6466	102.539	93.5648	102.539	93.6286	102.539	93.5486	102.539	93.6046	102.539	93.5332	102.539	93.5784	102.539	93.5218	102.539	93.5536	102.539	93.5173	102.539	93.5337	102.539	93.5211
108.398	93.5027	108.398	93.5082	108.398	93.506	108.398	93.5221	108.398	93.5178	108.398	93.543	108.398	93.5372	108.398	93.5691	108.398	93.5624	108.398	93.5979	108.398	93.5913	108.398	93.6267	108.398	93.621	108.398	93.6525	108.398	93.6486	108.398	93.6726	108.398	93.6713	108.398	93.6848	108.398	93.6867	108.398	93.6879	108.398	93.6931	108.398	93.6814	108.398	93.6897	108.398	93.6665	108.398	93.6772	108.398	93.6454	108.398	93.6573	108.398	93.6211	108.398	93.633	108.398	93.5973	108.398	93.6078	108.398	93.5778	108.398	93.5856	108.398	93.5656	108.398	93.5698	108.398	93.5628
117.188	93.8366	117.188	93.8279	117.188	93.8508	117.188	93.8245	117.188	93.8697	117.188	93.8261	117.188	93.8923	117.188	93.8315	117.188	93.9169	117.188	93.8393	117.188	93.9416	117.188	93.8475	117.188	93.964	117.188	93.854	117.188	93.9816	117.188	93.8568	117.188	93.992	117.188	93.8541	117.188	93.9932	117.188	93.8449	117.188	93.984	117.188	93.8291	117.188	93.964	117.188	93.8078	117.188	93.9342	117.188	93.783	117.188	93.8968	117.188	93.758	117.188	93.855	117.188	93.7363	117.188	93.8129	117.188	93.7217	117.188	93.7747	117.188	93.7173	117.188	93.7443	117.188	93.7247
125.977	93.942	125.977	93.9446	125.977	93.9421	125.977	93.9493	125.977	93.9451	125.977	93.9551	125.977	93.9507	125.977	93.9604	125.977	93.958	125.977	93.9636	125.977	93.9656	125.977	93.9627	125.977	93.9717	125.977	93.9558	125.977	93.9742	125.977	93.9413	125.977	93.9708	125.977	93.9181	125.977	93.9594	125.977	93.8861	125.977	93.9388	125.977	93.8463	125.977	93.9083	125.977	93.8009	125.977	93.8688	125.977	93.7532	125.977	93.8225	125.977	93.7076	125.977	93.7727	125.977	93.6685	125.977	93.7238	125.977	93.6405	125.977	93.6807	125.977	93.6269	125.977	93.648	125.977	93.6294
134.766	93.9924	134.766	93.9942	134.766	93.9917	134.766	93.9971	134.766	93.9918	134.766	94.0007	134.766	93.9922	134.766	94.0044	134.766	93.9921	134.766	94.0071	134.766	93.9904	134.766	94.0073	134.766	93.9859	134.766	94.0031	134.766	93.9772	134.766	93.993	134.766	93.9631	134.766	93.9753	134.766	93.9424	134.766	93.9493	134.766	93.9147	134.766	93.9151	134.766	93.8803	134.766	93.874	134.766	93.8405	134.766	93.8283	134.766	93.7977	134.766	93.7817	134.766	93.7553	134.766	93.7381	134.766	93.7172	134.766	93.7021	134.766	93.6876	134.766	93.6771	134.766	93.6697	134.766	93.666
143.555	94.132	143.555	94.122	143.555	94.1397	143.555	94.11	143.555	94.1447	143.555	94.0962	143.555	94.1465	143.555	94.0806	143.555	94.1447	143.555	94.0628	143.555	94.1385	143.555	94.0422	143.555	94.1271	143.555	94.0182	143.555	94.1096	143.555	93.9898	143.555	94.085	143.555	93.9565	143.555	94.0527	143.555	93.9181	143.555	94.0127	143.555	93.8752	143.555	93.9655	143.555	93.8293	143.555	93.9127	143.555	93.7829	143.555	93.8568	143.555	93.7391	143.555	93.8014	143.555	93.7017	143.555	93.7503	143.555	93.6744	143.555	93.7077	143.555	93.66	143.555	93.677	143.555	93.6607
155.273	94.2286	155.273	94.217	155.273	94.2341	155.273	94.1997	155.273	94.2335	155.273	94.1768	155.273	94.2269	155.273	94.1488	155.273	94.2145	155.273	94.1161	155.273	94.1964	155.273	94.0788	155.273	94.1725	155.273	94.0373	155.273	94.1426	155.273	93.9917	155.273	94.1066	155.273	93.9424	155.273	94.0641	155.273	93.8901	155.273	94.0153	155.273	93.8362	155.273	93.9609	155.273	93.7826	155.273	93.9023	155.273	93.7319	155.273	93.8418	155.273	93.6871	155.273	93.7822	155.273	93.6514	155.273	93.7273	155.273	93.6276	155.273	93.6806	155.273	93.6182	155.273	93.6453	155.273	93.6241
164.063	94.3822	164.063	94.3766	164.063	94.3785	164.063	94.3618	164.063	94.3658	164.063	94.338	164.063	94.3445	164.063	94.3059	164.063	94.3154	164.063	94.2658	164.063	94.2793	164.063	94.2186	164.063	94.2368	164.063	94.1648	164.063	94.1888	164.063	94.1054	164.063	94.1357	164.063	94.0413	164.063	94.0783	164.063	93.9742	164.063	94.0173	164.063	93.9058	164.063	93.9538	164.063	93.8389	164.063	93.8894	164.063	93.7764	164.063	93.8265	164.063	93.7214	164.063	93.7675	164.063	93.6769	164.063	93.7155	164.063	93.6456	164.063	93.6734	164.063	93.6292	164.063	93.6438	164.063	93.6287
175.781	94.0238	175.781	94.0173	175.781	94.0205	175.781	94.0015	175.781	94.0077	175.781	93.977	175.781	93.9855	175.781	93.9445	175.781	93.9547	175.781	93.9047	175.781	93.9162	175.781	93.8582	175.781	93.871	175.781	93.8054	175.781	93.82	175.781	93.7469	175.781	93.764	175.781	93.6833	175.781	93.7039	175.781	93.616	175.781	93.6407	175.781	93.5468	175.781	93.5755	175.781	93.4782	175.781	93.5102	175.781	93.4135	175.781	93.4469	175.781	93.3559	175.781	93.3882	175.781	93.309	175.781	93.337	175.781	93.2753	175.781	93.2961	175.781	93.2569	175.781	93.2679	175.781	93.2544
190.43	93.8529	190.43	93.8367	190.43	93.8548	190.43	93.8082	190.43	93.8418	190.43	93.77	190.43	93.814	190.43	93.7252	190.43	93.773	190.43	93.6772	190.43	93.7207	190.43	93.6287	190.43	93.6598	190.43	93.5818	190.43	93.5933	190.43	93.5373	190.43	93.5239	190.43	93.4955	190.43	93.4545	190.43	93.4555	190.43	93.3878	190.43	93.4165	190.43	93.326	190.43	93.3776	190.43	93.2716	190.43	93.3384	190.43	93.2264	190.43	93.2994	190.43	93.1921	190.43	93.2616	190.43	93.1696	190.43	93.2267	190.43	93.1596	190.43	93.197	190.43	93.1615	190.43	93.1746
202.148	93.6498	202.148	93.6082	202.148	93.6701	202.148	93.5467	202.148	93.6692	202.148	93.4678	202.148	93.6484	202.148	93.3758	202.148	93.6099	202.148	93.2756	202.148	93.5567	202.148	93.1731	202.148	93.4921	202.148	93.0741	202.148	93.4196	202.148	92.9843	202.148	93.3424	202.148	92.908	202.148	93.264	202.148	92.848	202.148	93.1871	202.148	92.8054	202.148	93.1146	202.148	92.7794	202.148	93.0485	202.148	92.7679	202.148	92.9906	202.148	92.7677	202.148	92.9417	202.148	92.7753	202.148	92.9017	202.148	92.7881	202.148	92.8696	202.148	92.8039	202.148	92.8437	202.148	92.8223
216.797	93.3033	216.797	93.3062	216.797	93.2728	216.797	93.2805	216.797	93.2176	216.797	93.2274	216.797	93.1425	216.797	93.1496	216.797	93.0541	216.797	93.052	216.797	92.9596	216.797	92.9407	216.797	92.867	216.797	92.8229	216.797	92.7833	216.797	92.7069	216.797	92.7137	216.797	92.6005	216.797	92.6615	216.797	92.5112	216.797	92.6268	216.797	92.4443	216.797	92.6076	216.797	92.4029	216.797	92.5995	216.797	92.387	216.797	92.5975	216.797	92.3935	216.797	92.5962	216.797	92.4173	216.797	92.5909	216.797	92.4517	216.797	92.5783	216.797	92.49	216.797	92.5567	216.797	92.5265
234.375	92.8111	234.375	92.7884	234.375	92.8072	234.375	92.7434	234.375	92.7739	234.375	92.6814	234.375	92.7102	234.375	92.6079	234.375	92.617	234.375	92.5284	234.375	92.4975	234.375	92.4475	234.375	92.3574	234.375	92.3688	234.375	92.2045	234.375	92.2945	234.375	92.0485	234.375	92.2257	234.375	91.9005	234.375	92.1629	234.375	91.7718	234.375	92.1059	234.375	91.6719	234.375	92.0541	234.375	91.6069	234.375	92.0066	234.375	91.5785	234.375	91.962	234.375	91.5831	234.375	91.9183	234.375	91.6136	234.375	91.8732	234.375	91.6608	234.375	91.8247	234.375	91.7159	234.375	91.7718
249.023	92.6516	249.023	92.5826	249.023	92.6777	249.023	92.4738	249.023	92.6611	249.023	92.3318	249.023	92.605	249.023	92.1671	249.023	92.5155	249.023	91.9929	249.023	92.4005	249.023	91.8244	249.023	92.2695	249.023	91.6771	249.023	92.1328	249.023	91.5639	249.023	92.0004	249.023	91.493	249.023	91.8817	249.023	91.4659	249.023	91.7841	249.023	91.4778	249.023	91.7123	249.023	91.5185	249.023	91.6683	249.023	91.5753	249.023	91.6506	249.023	91.6352	249.023	91.6548	249.023	91.6875	249.023	91.6744	249.023	91.7246	249.023	91.701	249.023	91.7428	249.023	91.7262	249.023	91.7422
266.602	92.7071	266.602	92.6452	266.602	92.7128	266.602	92.5266	266.602	92.666	266.602	92.3546	266.602	92.5733	266.602	92.1365	266.602	92.4442	266.602	91.8847	266.602	92.2907	266.602	91.6169	266.602	92.1268	266.602	91.3558	266.602	91.9674	266.602	91.1271	266.602	91.8266	266.602	90.9558	266.602	91.7161	266.602	90.8604	266.602	91.6434	266.602	90.8477	266.602	91.61	266.602	90.9108	266.602	91.6113	266.602	91.031	266.602	91.6378	266.602	91.1836	266.602	91.6766	266.602	91.3434	266.602	91.7132	266.602	91.4892	266.602	91.7342	266.602	91.6063	266.602	91.7279	266.602	91.6865
287.109	92.8839	287.109	92.8639	287.109	92.8402	287.109	92.7824	287.109	92.7326	287.109	92.6443	287.109	92.5642	287.109	92.4571	287.109	92.3417	287.109	92.2314	287.109	92.0766	287.109	91.9814	287.109	91.7864	287.109	91.7253	287.109	91.4948	287.109	91.484	287.109	91.2303	287.109	91.2797	287.109	91.0223	287.109	91.1317	287.109	90.8946	287.109	91.0524	287.109	90.8574	287.109	91.0431	287.109	90.904	287.109	91.094	287.109	91.0124	287.109	91.1857	287.109	91.152	287.109	91.2943	287.109	91.2919	287.109	91.3956	287.109	91.4065	287.109	91.4688	287.109	91.4784	287.109	91.4991
307.617	92.6169	307.617	92.5854	307.617	92.576	307.617	92.4822	307.617	92.4644	307.617	92.3109	307.617	92.2866	307.617	92.0782	307.617	92.0505	307.617	91.7957	307.617	91.7684	307.617	91.4808	307.617	91.4586	307.617	91.158	307.617	91.1456	307.617	90.8583	307.617	90.8597	307.617	90.6161	307.617	90.6333	307.617	90.4619	307.617	90.494	307.617	90.413	307.617	90.4563	307.617	90.4669	307.617	90.5156	307.617	90.6011	307.617	90.6494	307.617	90.7806	307.617	90.8234	307.617	90.9671	307.617	91.0011	307.617	91.1269	307.617	91.1503	307.617	91.2351	307.617	91.247	307.617	91.2768
331.055	92.6265	331.055	92.5805	331.055	92.589	331.055	92.4513	331.055	92.4685	331.055	92.2413	331.055	92.2668	331.055	91.9551	331.055	91.9886	331.055	91.6018	331.055	91.6424	331.055	91.1976	331.055	91.2437	331.055	90.7691	331.055	90.8178	331.055	90.3546	331.055	90.402	331.055	90.0028	331.055	90.0445	331.055	89.7638	331.055	89.7959	331.055	89.6722	331.055	89.6929	331.055	89.7317	331.055	89.7421	331.055	89.9114	331.055	89.9146	331.055	90.1582	331.055	90.1576	331.055	90.4145	331.055	90.4128	331.055	90.6316	331.055	90.6302	331.055	90.775	331.055	90.7743	331.055	90.8248
354.492	92.5904	354.492	92.517	354.492	92.578	354.492	92.3594	354.492	92.4776	354.492	92.1193	354.492	92.287	354.492	91.7996	354.492	92.0041	354.492	91.4067	354.492	91.6288	354.492	90.9535	354.492	91.1658	354.492	90.4631	354.492	90.629	354.492	89.9729	354.492	90.0472	354.492	89.5353	354.492	89.4715	354.492	89.2105	354.492	88.9763	354.492	89.0474	354.492	88.6464	354.492	89.0607	354.492	88.5421	354.492	89.22	354.492	88.6632	354.492	89.4622	354.492	88.9461	354.492	89.7157	354.492	89.2967	354.492	89.9186	354.492	89.6283	354.492	90.0273	354.492	89.8797	354.492	90.0167
377.93	92.652	377.93	92.5986	377.93	92.6226	377.93	92.4599	377.93	92.5114	377.93	92.2321	377.93	92.3182	377.93	91.9116	377.93	92.042	377.93	91.4973	377.93	91.6831	377.93	90.9936	377.93	91.2453	377.93	90.4163	377.93	90.7401	377.93	89.8	377.93	90.1923	377.93	89.2059	377.93	89.6457	377.93	88.721	377.93	89.1656	377.93	88.4369	377.93	88.8286	377.93	88.4051	377.93	88.694	377.93	88.6011	377.93	88.7703	377.93	88.9365	377.93	89.0052	377.93	89.3048	377.93	89.311	377.93	89.6183	377.93	89.5998	377.93	89.8208	377.93	89.8047	377.93	89.8843
407.227	92.2069	407.227	92.1338	407.227	92.1942	407.227	91.9736	407.227	92.0941	407.227	91.7228	407.227	91.9027	407.227	91.3768	407.227	91.6143	407.227	90.9324	407.227	91.2236	407.227	90.3913	407.227	90.7281	407.227	89.7666	407.227	90.1335	407.227	89.0922	407.227	89.4616	407.227	88.4336	407.227	88.7626	407.227	87.8919	407.227	88.1255	407.227	87.5808	407.227	87.6722	407.227	87.5677	407.227	87.5094	407.227	87.823	407.227	87.6577	407.227	88.2355	407.227	88.0292	407.227	88.6755	407.227	88.4845	407.227	89.0405	407.227	88.8996	407.227	89.2661	407.227	89.1924	407.227	89.3195
436.523	92.2509	436.523	92.2206	436.523	92.2122	436.523	92.1153	436.523	92.1056	436.523	91.9246	436.523	91.9273	436.523	91.6342	436.523	91.6693	436.523	91.2285	436.523	91.321	436.523	90.6927	436.523	90.8713	436.523	90.0181	436.523	90.3126	436.523	89.211	436.523	89.6474	436.523	88.3108	436.523	88.9007	436.523	87.4179	436.523	88.1373	436.523	86.7135	436.523	87.4777	436.523	86.4074	436.523	87.0789	436.523	86.5815	436.523	87.049	436.523	87.0998	436.523	87.3518	436.523	87.7258	436.523	87.8262	436.523	88.2694	436.523	88.2929	436.523	88.6233	436.523	88.6225	436.523	88.7426
465.82	92.1068	465.82	92.0882	465.82	92.0667	465.82	92.0081	465.82	91.9657	465.82	91.8591	465.82	91.7974	465.82	91.6289	465.82	91.5519	465.82	91.3018	465.82	91.2168	465.82	90.8605	465.82	90.7791	465.82	90.2897	465.82	90.2278	465.82	89.5824	465.82	89.5601	465.82	88.7515	465.82	88.7918	465.82	87.8517	465.82	87.9754	465.82	87.0071	465.82	87.221	465.82	86.4137	465.82	86.6926	465.82	86.2473	465.82	86.5328	465.82	86.5081	465.82	86.7438	465.82	87.0074	465.82	87.1709	465.82	87.5183	465.82	87.6156	465.82	87.8842	465.82	87.9286	465.82	88.0275
500.977	91.501	500.977	91.4678	500.977	91.4907	500.977	91.3897	500.977	91.4337	500.977	91.2593	500.977	91.3224	500.977	91.0634	500.977	91.1451	500.977	90.7837	500.977	90.886	500.977	90.3989	500.977	90.527	500.977	89.8888	500.977	90.0496	500.977	89.2411	500.977	89.4404	500.977	88.4635	500.977	88.701	500.977	87.6052	500.977	87.8674	500.977	86.7876	500.977	87.0388	500.977	86.2116	500.977	86.3963	500.977	86.0668	500.977	86.1423	500.977	86.3611	500.977	86.3379	500.977	86.897	500.977	86.8255	500.977	87.4322	500.977	87.3612	500.977	87.7992	500.977	87.7576	500.977	87.9146
536.133	91.5674	536.133	91.4923	536.133	91.532	536.133	91.3185	536.133	91.3904	536.133	91.0699	536.133	91.1598	536.133	90.7737	536.133	90.8629	536.133	90.4456	536.133	90.5157	536.133	90.0785	536.133	90.1163	536.133	89.6388	536.133	89.64	536.133	89.0749	536.133	89.0434	536.133	88.3335	536.133	88.2791	536.133	87.3867	536.133	87.3223	536.133	86.2867	536.133	86.2273	536.133	85.2669	536.133	85.2311	536.133	84.7855	536.133	84.7879	536.133	85.155	536.133	85.1884	536.133	86.0862	536.133	86.1282	536.133	87.0497	536.133	87.0837	536.133	87.7167	536.133	87.7352	536.133	87.9561
574.219	92.2909	574.219	92.2051	574.219	92.2402	574.219	91.991	574.219	92.0568	574.219	91.6675	574.219	91.7549	574.219	91.2597	574.219	91.356	574.219	90.7921	574.219	90.8822	574.219	90.2782	574.219	90.349	574.219	89.7132	574.219	89.7564	574.219	89.0726	574.219	89.0864	574.219	88.3207	574.219	88.3073	574.219	87.43	574.219	87.3909	574.219	86.4167	574.219	86.3468	574.219	85.4004	574.219	85.286	574.219	84.6526	574.219	84.4844	574.219	84.4731	574.219	84.274	574.219	84.8581	574.219	84.6782	574.219	85.4656	574.219	85.3394	574.219	85.9447	574.219	85.8816	574.219	86.1022
615.234	91.9399	615.234	91.8571	615.234	91.9063	615.234	91.667	615.234	91.7592	615.234	91.3883	615.234	91.5115	615.234	91.0427	615.234	91.1812	615.234	90.6449	615.234	90.7833	615.234	90.1915	615.234	90.3188	615.234	89.654	615.234	89.767	615.234	88.9811	615.234	89.0843	615.234	88.11	615.234	88.2107	615.234	86.9897	615.234	87.0907	615.234	85.6363	615.234	85.7244	615.234	84.2708	615.234	84.303	615.234	83.4795	615.234	83.4035	615.234	83.7984	615.234	83.6437	615.234	84.876	615.234	84.7297	615.234	85.9853	615.234	85.8874	615.234	86.7276	615.234	86.6807	615.234	86.9694
659.18	91.7407	659.18	91.6487	659.18	91.6777	659.18	91.4132	659.18	91.4697	659.18	91.0652	659.18	91.1473	659.18	90.6484	659.18	90.7561	659.18	90.2027	659.18	90.3429	659.18	89.7431	659.18	89.9332	659.18	89.2421	659.18	89.5107	659.18	88.6306	659.18	89.0125	659.18	87.8164	659.18	88.3446	659.18	86.7136	659.18	87.4077	659.18	85.3023	659.18	86.1379	659.18	83.7966	659.18	84.6154	659.18	82.9141	659.18	83.3315	659.18	83.3849	659.18	83.1974	659.18	84.7141	659.18	84.2814	659.18	85.9885	659.18	85.6287	659.18	86.7883	659.18	86.6	659.18	86.9986
706.055	92.357	706.055	92.2222	706.055	92.2924	706.055	91.9014	706.055	92.0368	706.055	91.4327	706.055	91.6204	706.055	90.8806	706.055	91.0969	706.055	90.3237	706.055	90.5373	706.055	89.8183	706.055	90.0049	706.055	89.3532	706.055	89.5155	706.055	88.8341	706.055	89.0079	706.055	88.1114	706.055	88.3543	706.055	87.0212	706.055	87.3942	706.055	85.4282	706.055	85.9754	706.055	83.3816	706.055	84.0598	706.055	81.7328	706.055	82.1804	706.055	82.1935	706.055	81.9946	706.055	84.1469	706.055	83.7218	706.055	85.9144	706.055	85.5933	706.055	86.9768	706.055	86.8172	706.055	87.2775
758.789	93.5299	758.789	93.3594	758.789	93.4517	758.789	92.9518	758.789	93.133	758.789	92.3474	758.789	92.604	758.789	91.6326	758.789	91.9288	758.789	90.9435	758.789	91.2139	758.789	90.4171	758.789	90.5877	758.789	90.0847	758.789	90.1244	758.789	89.8142	758.789	89.7647	758.789	89.3742	758.789	89.3216	758.789	88.5176	758.789	88.5554	758.789	86.9948	758.789	87.2192	758.789	84.544	758.789	85.0859	758.789	81.2931	758.789	82.2887	758.789	80.318	758.789	81.102	758.789	83.2576	758.789	83.3925	758.789	85.9586	758.789	85.9361	758.789	87.5004	758.789	87.4748	758.789	87.9844
811.523	93.9728	811.523	93.823	811.523	93.8562	811.523	93.403	811.523	93.4737	811.523	92.7148	811.523	92.8292	811.523	91.7951	811.523	91.9539	811.523	90.7654	811.523	90.9504	811.523	89.8679	811.523	90.0299	811.523	89.3584	811.523	89.4404	811.523	89.2303	811.523	89.2244	811.523	89.1587	811.523	89.1074	811.523	88.7457	811.523	88.6931	811.523	87.651	811.523	87.6182	811.523	85.5331	811.523	85.5214	811.523	82.1017	811.523	82.1187	811.523	79.4192	811.523	79.5937	811.523	82.3095	811.523	82.5381	811.523	85.6096	811.523	85.7661	811.523	87.4764	811.523	87.5556	811.523	88.0924
870.117	93.6814	870.117	93.5557	870.117	93.5817	870.117	93.1904	870.117	93.2456	870.117	92.5531	870.117	92.6429	870.117	91.6179	870.117	91.7452	870.117	90.417	870.117	90.5667	870.117	89.1327	870.117	89.2421	870.117	88.1539	870.117	88.109	870.117	87.7957	870.117	87.5478	870.117	87.8301	870.117	87.4883	870.117	87.6838	870.117	87.3928	870.117	86.8582	870.117	86.7087	870.117	84.9185	870.117	84.9609	870.117	81.3526	870.117	81.587	870.117	77.631	870.117	77.4291	870.117	80.9151	870.117	80.3073	870.117	84.7234	870.117	84.4018	870.117	86.7449	870.117	86.6111	870.117	87.3333
931.641	93.2886	931.641	93.1801	931.641	93.248	931.641	92.9099	931.641	93.0414	931.641	92.4322	931.641	92.6275	931.641	91.6729	931.641	91.9458	931.641	90.5602	931.641	90.9367	931.641	89.1044	931.641	89.5953	931.641	87.5727	931.641	88.0964	931.641	86.6084	931.641	86.9377	931.641	86.5676	931.641	86.594	931.641	86.816	931.641	86.7289	931.641	86.5207	931.641	86.5294	931.641	85.1013	931.641	85.3297	931.641	81.8888	931.641	82.421	931.641	76.2097	931.641	76.5785	931.641	77.6895	931.641	75.9949	931.641	82.7798	931.641	82.0249	931.641	85.2804	931.641	84.9861	931.641	85.9448
999.023	93.3055	999.023	93.1762	999.023	93.2886	999.023	92.904	999.023	93.1234	999.023	92.4807	999.023	92.7966	999.023	91.8604	999.023	92.2626	999.023	90.9557	999.023	91.4418	999.023	89.6824	999.023	90.2552	999.023	88.079	999.023	88.7158	999.023	86.5347	999.023	87.1234	999.023	85.7688	999.023	86.1646	999.023	85.8112	999.023	86.108	999.023	85.7346	999.023	86.173	999.023	84.6686	999.023	85.4648	999.023	81.8184	999.023	83.2969	999.023	75.8349	999.023	78.8068	999.023	75.3324	999.023	75.3857	999.023	81.4726	999.023	80.634	999.023	84.3216	999.023	83.9408	999.023	85.0422
1,072.27	93.0929	1,072.27	92.9533	1,072.27	92.9945	1,072.27	92.5936	1,072.27	92.6765	1,072.27	92.0555	1,072.27	92.1803	1,072.27	91.3696	1,072.27	91.535	1,072.27	90.5156	1,072.27	90.718	1,072.27	89.4223	1,072.27	89.6484	1,072.27	88.0443	1,072.27	88.2467	1,072.27	86.5308	1,072.27	86.586	1,072.27	85.3915	1,072.27	85.1365	1,072.27	85.0544	1,072.27	84.5553	1,072.27	85.0224	1,072.27	84.5697	1,072.27	84.3645	1,072.27	84.1492	1,072.27	82.3161	1,072.27	82.437	1,072.27	78.3616	1,072.27	78.8536	1,072.27	77.0492	1,072.27	76.8256	1,072.27	81.4276	1,072.27	80.9713	1,072.27	84.1774	1,072.27	83.9557	1,072.27	84.9566
1,148.44	92.6655	1,148.44	92.5316	1,148.44	92.5628	1,148.44	92.1607	1,148.44	92.2368	1,148.44	91.551	1,148.44	91.6992	1,148.44	90.6773	1,148.44	90.9336	1,148.44	89.4981	1,148.44	89.8937	1,148.44	88.0139	1,148.44	88.5485	1,148.44	86.3919	1,148.44	86.9815	1,148.44	85.0755	1,148.44	85.5159	1,148.44	84.4477	1,148.44	84.5879	1,148.44	84.1744	1,148.44	84.1322	1,148.44	83.4809	1,148.44	83.4678	1,148.44	81.6424	1,148.44	81.8225	1,148.44	77.8145	1,148.44	78.3488	1,148.44	73.2103	1,148.44	72.9452	1,148.44	77.6633	1,148.44	75.9796	1,148.44	81.7055	1,148.44	80.6552	1,148.44	83.5916	1,148.44	83.078	1,148.44	83.9815
1,230.47	93.4816	1,230.47	93.2321	1,230.47	93.33	1,230.47	92.6634	1,230.47	92.8426	1,230.47	91.9659	1,230.47	92.1961	1,230.47	91.2834	1,230.47	91.5448	1,230.47	90.5232	1,230.47	90.8421	1,230.47	89.3735	1,230.47	89.8319	1,230.47	87.5097	1,230.47	88.2274	1,230.47	84.9548	1,230.47	85.9929	1,230.47	83.1935	1,230.47	84.1009	1,230.47	83.9934	1,230.47	84.2714	1,230.47	85.1452	1,230.47	85.2661	1,230.47	84.821	1,230.47	85.124	1,230.47	82.0347	1,230.47	82.7889	1,230.47	73.257	1,230.47	75.7547	1,230.47	73.04	1,230.47	69.9163	1,230.47	81.7532	1,230.47	80.9504	1,230.47	84.6749	1,230.47	84.3907	1,230.47	85.396
1,318.36	93.9601	1,318.36	93.6433	1,318.36	93.7261	1,318.36	92.8274	1,318.36	92.9928	1,318.36	91.7059	1,318.36	91.9327	1,318.36	90.6278	1,318.36	90.8595	1,318.36	89.8391	1,318.36	90.0303	1,318.36	89.0999	1,318.36	89.2792	1,318.36	87.8582	1,318.36	88.0935	1,318.36	85.6847	1,318.36	86.0072	1,318.36	82.9405	1,318.36	83.187	1,318.36	82.382	1,318.36	82.2491	1,318.36	84.0687	1,318.36	83.9898	1,318.36	84.6891	1,318.36	84.865	1,318.36	82.8967	1,318.36	83.397	1,318.36	76.3005	1,318.36	77.6068	1,318.36	69.3658	1,318.36	65.9057	1,318.36	81.3181	1,318.36	80.8174	1,318.36	84.8528	1,318.36	84.7099	1,318.36	85.7786
1,415.04	94.0889	1,415.04	93.9151	1,415.04	94.0069	1,415.04	93.3911	1,415.04	93.5648	1,415.04	92.322	1,415.04	92.5577	1,415.04	90.6591	1,415.04	90.9272	1,415.04	88.855	1,415.04	89.1002	1,415.04	87.786	1,415.04	87.9836	1,415.04	87.3053	1,415.04	87.5935	1,415.04	86.1767	1,415.04	86.7571	1,415.04	83.3419	1,415.04	84.4035	1,415.04	79.3614	1,415.04	80.354	1,415.04	81.6672	1,415.04	81.0005	1,415.04	84.8691	1,415.04	84.4949	1,415.04	85.3097	1,415.04	85.3821	1,415.04	82.6769	1,415.04	83.187	1,415.04	75.9513	1,415.04	76.0584	1,415.04	79.4716	1,415.04	78.2011	1,415.04	84.6301	1,415.04	84.3801	1,415.04	86.0688
1,514.65	94.3619	1,514.65	94.2674	1,514.65	94.4216	1,514.65	94.078	1,514.65	94.3224	1,514.65	93.5835	1,514.65	93.8332	1,514.65	92.5646	1,514.65	92.7548	1,514.65	90.9595	1,514.65	91.0521	1,514.65	89.0701	1,514.65	89.0405	1,514.65	87.6192	1,514.65	87.4966	1,514.65	86.7583	1,514.65	86.669	1,514.65	85.4534	1,514.65	85.479	1,514.65	82.6292	1,514.65	82.8089	1,514.65	79.5113	1,514.65	79.9862	1,514.65	81.9399	1,514.65	82.2946	1,514.65	84.379	1,514.65	84.5261	1,514.65	84.0236	1,514.65	83.9593	1,514.65	79.6462	1,514.65	78.9961	1,514.65	60.0897	1,514.65	64.1372	1,514.65	79.9301	1,514.65	80.6891	1,514.65	83.0496
1,623.05	95.4579	1,623.05	95.2869	1,623.05	95.2793	1,623.05	94.8315	1,623.05	94.8067	1,623.05	94.1743	1,623.05	94.1188	1,623.05	93.2618	1,623.05	93.1667	1,623.05	91.9401	1,623.05	91.7957	1,623.05	90.177	1,623.05	89.942	1,623.05	88.3279	1,623.05	87.9042	1,623.05	86.9698	1,623.05	86.3416	1,623.05	85.8805	1,623.05	85.1985	1,623.05	84.0844	1,623.05	83.275	1,623.05	81.4818	1,623.05	79.7042	1,623.05	81.4715	1,623.05	79.1012	1,623.05	83.653	1,623.05	82.6008	1,623.05	84.0222	1,623.05	83.7107	1,623.05	81.1343	1,623.05	81.1747	1,623.05	72.4533	1,623.05	69.853	1,623.05	77.665	1,623.05	76.5012	1,623.05	80.6227
1,740.23	97.5947	1,740.23	97.3692	1,740.23	97.3368	1,740.23	96.728	1,740.23	96.6665	1,740.23	95.8266	1,740.23	95.7325	1,740.23	94.7605	1,740.23	94.6309	1,740.23	93.4556	1,740.23	93.3181	1,740.23	91.7662	1,740.23	91.6825	1,740.23	89.7449	1,740.23	89.7587	1,740.23	87.8663	1,740.23	87.9245	1,740.23	86.5376	1,740.23	86.5288	1,740.23	85.1352	1,740.23	85.0334	1,740.23	82.7491	1,740.23	82.4881	1,740.23	80.961	1,740.23	80.0915	1,740.23	82.8337	1,740.23	81.9541	1,740.23	84.1134	1,740.23	83.6154	1,740.23	82.4213	1,740.23	82.1296	1,740.23	76.5305	1,740.23	76.2133	1,740.23	77.6491	1,740.23	77.711	1,740.23	80.6477
1,866.21	96.2471	1,866.21	95.9998	1,866.21	96.0525	1,866.21	95.3171	1,866.21	95.4435	1,866.21	94.262	1,866.21	94.4745	1,866.21	92.951	1,866.21	93.2294	1,866.21	91.4738	1,866.21	91.7958	1,866.21	89.8116	1,866.21	90.213	1,866.21	87.9229	1,866.21	88.4779	1,866.21	85.9843	1,866.21	86.6727	1,866.21	84.4314	1,866.21	85.0979	1,866.21	83.249	1,866.21	83.8868	1,866.21	81.701	1,866.21	82.413	1,866.21	80.0572	1,866.21	80.2409	1,866.21	80.6457	1,866.21	79.6435	1,866.21	82.0129	1,866.21	81.341	1,866.21	81.4813	1,866.21	81.4859	1,866.21	79.068	1,866.21	78.8472	1,866.21	78.8049	1,866.21	77.4123	1,866.21	79.3052
2,000.98	95.3413	2,000.98	95.1363	2,000.98	95.1163	2,000.98	94.5039	2,000.98	94.4923	2,000.98	93.4938	2,000.98	93.5171	2,000.98	92.1989	2,000.98	92.2505	2,000.98	90.7276	2,000.98	90.7669	2,000.98	89.1579	2,000.98	89.1411	2,000.98	87.4996	2,000.98	87.4193	2,000.98	85.7274	2,000.98	85.643	2,000.98	83.903	2,000.98	83.9441	2,000.98	82.213	2,000.98	82.499	2,000.98	80.7639	2,000.98	81.2348	2,000.98	79.6448	2,000.98	80.0161	2,000.98	79.3323	2,000.98	79.4426	2,000.98	79.659	2,000.98	79.7377	2,000.98	79.5471	2,000.98	79.4204	2,000.98	79.3336	2,000.98	78.4112	2,000.98	80.2782	2,000.98	79.401	2,000.98	80.7294
2,144.53	95.2788	2,144.53	94.9868	2,144.53	95.1072	2,144.53	94.2347	2,144.53	94.5168	2,144.53	93.0908	2,144.53	93.5779	2,144.53	91.6802	2,144.53	92.3796	2,144.53	90.1246	2,144.53	90.9967	2,144.53	88.4421	2,144.53	89.4424	2,144.53	86.5851	2,144.53	87.7153	2,144.53	84.6619	2,144.53	85.8941	2,144.53	82.9241	2,144.53	84.0894	2,144.53	81.2367	2,144.53	82.2483	2,144.53	79.1634	2,144.53	80.294	2,144.53	77.9361	2,144.53	79.0502	2,144.53	79.0195	2,144.53	79.3488	2,144.53	79.2407	2,144.53	79.315	2,144.53	76.4149	2,144.53	77.2844	2,144.53	75.2946	2,144.53	76.5023	2,144.53	80.3028	2,144.53	80.3487	2,144.53	82.0384
2,296.88	94.3684	2,296.88	94.1806	2,296.88	94.338	2,296.88	93.7535	2,296.88	94.0288	2,296.88	92.995	2,296.88	93.379	2,296.88	91.8367	2,296.88	92.3691	2,296.88	90.2923	2,296.88	91.0253	2,296.88	88.4634	2,296.88	89.4283	2,296.88	86.4996	2,296.88	87.6685	2,296.88	84.5429	2,296.88	85.7875	2,296.88	82.7828	2,296.88	83.8685	2,296.88	81.3293	2,296.88	82.057	2,296.88	79.5927	2,296.88	80.1271	2,296.88	77.0011	2,296.88	77.7816	2,296.88	76.7325	2,296.88	77.346	2,296.88	79.0703	2,296.88	79.2439	2,296.88	78.9271	2,296.88	78.9594	2,296.88	75.0276	2,296.88	74.5579	2,296.88	76.1478	2,296.88	75.84	2,296.88	78.729
2,460.94	94.8819	2,460.94	94.5811	2,460.94	94.9379	2,460.94	94.0564	2,460.94	94.6495	2,460.94	93.2735	2,460.94	93.9106	2,460.94	92.197	2,460.94	92.7112	2,460.94	90.819	2,460.94	91.1611	2,460.94	89.1589	2,460.94	89.438	2,460.94	87.2437	2,460.94	87.6811	2,460.94	85.147	2,460.94	85.8654	2,460.94	83.0881	2,460.94	83.8998	2,460.94	81.2924	2,460.94	82.0305	2,460.94	79.5495	2,460.94	80.6745	2,460.94	77.5748	2,460.94	79.3358	2,460.94	76.974	2,460.94	77.9186	2,460.94	78.43	2,460.94	78.5105	2,460.94	78.5821	2,460.94	79.1018	2,460.94	76.9986	2,460.94	77.681	2,460.94	78.8644	2,460.94	79.006	2,460.94	80.6541
2,639.65	95.1065	2,639.65	94.8139	2,639.65	94.967	2,639.65	94.1097	2,639.65	94.4532	2,639.65	93.0543	2,639.65	93.6476	2,639.65	91.7037	2,639.65	92.5618	2,639.65	90.1354	2,639.65	91.1519	2,639.65	88.4687	2,639.65	89.4433	2,639.65	86.7589	2,639.65	87.5994	2,639.65	84.9025	2,639.65	85.8006	2,639.65	82.8513	2,639.65	83.9854	2,639.65	80.9949	2,639.65	81.9631	2,639.65	79.6103	2,639.65	79.9935	2,639.65	77.8487	2,639.65	78.5241	2,639.65	76.3703	2,639.65	77.6268	2,639.65	77.9974	2,639.65	78.6524	2,639.65	78.4525	2,639.65	79.4429	2,639.65	76.1626	2,639.65	76.5254	2,639.65	79.2452	2,639.65	77.2118	2,639.65	80.8711
2,827.15	95.0089	2,827.15	94.7424	2,827.15	94.8704	2,827.15	94.1208	2,827.15	94.4163	2,827.15	93.2657	2,827.15	93.7087	2,827.15	92.1605	2,827.15	92.703	2,827.15	90.6852	2,827.15	91.3453	2,827.15	88.8725	2,827.15	89.6166	2,827.15	86.9522	2,827.15	87.6104	2,827.15	85.0477	2,827.15	85.5761	2,827.15	82.9752	2,827.15	83.652	2,827.15	80.6918	2,827.15	81.7391	2,827.15	79.0135	2,827.15	79.9836	2,827.15	78.0854	2,827.15	78.6823	2,827.15	76.6492	2,827.15	77.2914	2,827.15	76.6424	2,827.15	77.0017	2,827.15	77.7447	2,827.15	78.4795	2,827.15	75.4579	2,827.15	77.3282	2,827.15	75.7257	2,827.15	75.6779	2,827.15	77.796
3,032.23	95.3172	3,032.23	95.1588	3,032.23	95.3152	3,032.23	94.7511	3,032.23	95.1225	3,032.23	93.9672	3,032.23	94.5986	3,032.23	92.728	3,032.23	93.633	3,032.23	91.0615	3,032.23	92.2016	3,032.23	89.1104	3,032.23	90.3761	3,032.23	87.082	3,032.23	88.3633	3,032.23	85.0828	3,032.23	86.3475	3,032.23	82.9402	3,032.23	84.3379	3,032.23	80.4811	3,032.23	82.2207	3,032.23	78.5692	3,032.23	80.058	3,032.23	78.2731	3,032.23	78.5407	3,032.23	77.9538	3,032.23	77.8184	3,032.23	77.9862	3,032.23	77.7972	3,032.23	79.0742	3,032.23	78.8938	3,032.23	77.4296	3,032.23	78.2578	3,032.23	76.3119	3,032.23	77.0782	3,032.23	78.1651
3,249.02	96.1297	3,249.02	95.8443	3,249.02	96.2406	3,249.02	95.3798	3,249.02	96.0804	3,249.02	94.6235	3,249.02	95.5108	3,249.02	93.4448	3,249.02	94.4826	3,249.02	91.8622	3,249.02	93.0403	3,249.02	90.0219	3,249.02	91.232	3,249.02	88.0519	3,249.02	89.194	3,249.02	86.1321	3,249.02	87.1231	3,249.02	84.2911	3,249.02	85.1084	3,249.02	82.1156	3,249.02	83.1214	3,249.02	79.5781	3,249.02	81.1346	3,249.02	78.0824	3,249.02	79.4704	3,249.02	77.3268	3,249.02	78.5231	3,249.02	77.7853	3,249.02	78.5804	3,249.02	79.5009	3,249.02	78.9395	3,249.02	78.0371	3,249.02	76.9838	3,249.02	75.8538	3,249.02	76.1448	3,249.02	77.777
3,483.4	95.6352	3,483.4	95.455	3,483.4	95.6791	3,483.4	95.016	3,483.4	95.5473	3,483.4	94.2164	3,483.4	95.0549	3,483.4	93.0806	3,483.4	94.0818	3,483.4	91.626	3,483.4	92.6468	3,483.4	89.8408	3,483.4	90.8322	3,483.4	87.8408	3,483.4	88.8139	3,483.4	85.8343	3,483.4	86.7192	3,483.4	83.9154	3,483.4	84.5718	3,483.4	81.8843	3,483.4	82.562	3,483.4	79.735	3,483.4	80.777	3,483.4	78.3494	3,483.4	78.9172	3,483.4	77.5448	3,483.4	77.3622	3,483.4	77.1583	3,483.4	77.9118	3,483.4	78.1083	3,483.4	78.9976	3,483.4	76.8585	3,483.4	77.2232	3,483.4	75.436	3,483.4	74.8465	3,483.4	76.7604
3,732.42	94.8343	3,732.42	94.8323	3,732.42	94.9868	3,732.42	94.6576	3,732.42	95.0714	3,732.42	93.9156	3,732.42	94.6628	3,732.42	92.5841	3,732.42	93.6566	3,732.42	90.9303	3,732.42	92.1025	3,732.42	89.1138	3,732.42	90.1118	3,732.42	87.0987	3,732.42	88.0041	3,732.42	85.0046	3,732.42	85.8516	3,732.42	83.0957	3,732.42	83.6676	3,732.42	81.1218	3,732.42	81.5733	3,732.42	78.6535	3,732.42	79.4188	3,732.42	76.8297	3,732.42	77.8618	3,732.42	75.9277	3,732.42	76.7921	3,732.42	76.2956	3,732.42	75.2656	3,732.42	78.9395	3,732.42	77.6228	3,732.42	77.4276	3,732.42	77.086	3,732.42	71.9356	3,732.42	70.9955	3,732.42	74.2315
3,999.02	94.8999	3,999.02	94.7915	3,999.02	94.9933	3,999.02	94.3901	3,999.02	94.8787	3,999.02	93.4606	3,999.02	94.2201	3,999.02	92.1815	3,999.02	93.0335	3,999.02	90.686	3,999.02	91.431	3,999.02	88.7947	3,999.02	89.4412	3,999.02	86.5396	3,999.02	87.237	3,999.02	84.3556	3,999.02	84.9926	3,999.02	82.6093	3,999.02	82.9805	3,999.02	80.766	3,999.02	81.2139	3,999.02	78.1926	3,999.02	79.1017	3,999.02	76.6474	3,999.02	76.8878	3,999.02	76.1596	3,999.02	75.8903	3,999.02	74.5026	3,999.02	75.4424	3,999.02	76.7309	3,999.02	77.3753	3,999.02	75.7642	3,999.02	77.2979	3,999.02	69.2163	3,999.02	71.1166	3,999.02	70.7284
4,286.13	95.3344	4,286.13	95.1312	4,286.13	95.3292	4,286.13	94.5143	4,286.13	95.061	4,286.13	93.5019	4,286.13	94.3446	4,286.13	92.3598	4,286.13	93.1817	4,286.13	90.9543	4,286.13	91.6675	4,286.13	89.1257	4,286.13	89.9136	4,286.13	87.0245	4,286.13	87.871	4,286.13	84.7711	4,286.13	85.334	4,286.13	82.7042	4,286.13	82.5539	4,286.13	80.8158	4,286.13	80.4204	4,286.13	78.4749	4,286.13	78.9071	4,286.13	76.3545	4,286.13	76.3626	4,286.13	75.4085	4,286.13	74.2719	4,286.13	74.645	4,286.13	75.5735	4,286.13	76.9392	4,286.13	76.6579	4,286.13	75.989	4,286.13	76.5681	4,286.13	70.0879	4,286.13	71.7489	4,286.13	71.4175
4,593.75	95.7225	4,593.75	95.547	4,593.75	95.7111	4,593.75	95.0132	4,593.75	95.3814	4,593.75	94.1141	4,593.75	94.6707	4,593.75	93.1128	4,593.75	93.7655	4,593.75	91.8203	4,593.75	92.5431	4,593.75	90.0203	4,593.75	90.8488	4,593.75	87.7348	4,593.75	88.6581	4,593.75	84.9574	4,593.75	86.0348	4,593.75	82.2362	4,593.75	83.3451	4,593.75	80.2818	4,593.75	81.095	4,593.75	78.5286	4,593.75	79.4319	4,593.75	76.458	4,593.75	77.4479	4,593.75	75.6982	4,593.75	74.944	4,593.75	75.1583	4,593.75	73.9689	4,593.75	75.9453	4,593.75	75.9871	4,593.75	75.1258	4,593.75	76.6419	4,593.75	71.5206	4,593.75	71.3174	4,593.75	72.3536
4,924.8	96.1004	4,924.8	95.8181	4,924.8	95.9292	4,924.8	95.1192	4,924.8	95.3755	4,924.8	94.3729	4,924.8	94.7016	4,924.8	93.6884	4,924.8	94.0463	4,924.8	92.4437	4,924.8	92.917	4,924.8	90.5353	4,924.8	91.116	4,924.8	88.1434	4,924.8	88.8295	4,924.8	85.3255	4,924.8	86.1346	4,924.8	82.6605	4,924.8	83.326	4,924.8	80.4311	4,924.8	81.16	4,924.8	78.1772	4,924.8	79.9146	4,924.8	76.3738	4,924.8	78.455	4,924.8	76.0073	4,924.8	76.2442	4,924.8	74.7202	4,924.8	74.5911	4,924.8	75.7811	4,924.8	74.7246	4,924.8	74.1626	4,924.8	75.2621	4,924.8	70.6208	4,924.8	72.0836	4,924.8	73.1279
5,279.3	95.9226	5,279.3	95.5055	5,279.3	95.7122	5,279.3	94.7231	5,279.3	95.1063	5,279.3	94.1192	5,279.3	94.5697	5,279.3	93.4417	5,279.3	93.926	5,279.3	92.0724	5,279.3	92.6988	5,279.3	90.1744	5,279.3	91.0984	5,279.3	87.7674	5,279.3	89.0888	5,279.3	85.0208	5,279.3	86.5539	5,279.3	82.6465	5,279.3	83.8294	5,279.3	80.7547	5,279.3	81.4915	5,279.3	78.7076	5,279.3	79.8256	5,279.3	76.4982	5,279.3	78.032	5,279.3	76.0307	5,279.3	76.4417	5,279.3	75.5735	5,279.3	75.1361	5,279.3	77.4503	5,279.3	75.3683	5,279.3	74.6938	5,279.3	76.7018	5,279.3	70.9725	5,279.3	72.0837	5,279.3	73.3625
5,657.23	94.7348	5,657.23	94.4044	5,657.23	94.516	5,657.23	93.8943	5,657.23	93.8988	5,657.23	93.637	5,657.23	93.4511	5,657.23	92.9949	5,657.23	92.9792	5,657.23	91.4444	5,657.23	91.757	5,657.23	89.646	5,657.23	90.0229	5,657.23	87.5984	5,657.23	87.9025	5,657.23	85.1636	5,657.23	85.2469	5,657.23	82.7528	5,657.23	82.3507	5,657.23	80.518	5,657.23	80.196	5,657.23	78.5944	5,657.23	78.9632	5,657.23	76.0875	5,657.23	76.7425	5,657.23	73.5752	5,657.23	74.5544	5,657.23	71.6928	5,657.23	74.1459	5,657.23	75.3386	5,657.23	72.8598	5,657.23	73.6154	5,657.23	74.561	5,657.23	66.6876	5,657.23	70.8413	5,657.23	70.3291
6,061.52	94.4042	6,061.52	94.2318	6,061.52	94.1742	6,061.52	94.0371	6,061.52	93.7578	6,061.52	93.782	6,061.52	93.5365	6,061.52	92.7951	6,061.52	92.7617	6,061.52	91.1847	6,061.52	91.2407	6,061.52	89.4992	6,061.52	89.6474	6,061.52	87.2007	6,061.52	87.6757	6,061.52	84.5158	6,061.52	85.1067	6,061.52	81.8992	6,061.52	81.7396	6,061.52	79.5164	6,061.52	78.8576	6,061.52	77.4645	6,061.52	78.0838	6,061.52	75.5568	6,061.52	76.899	6,061.52	74.1553	6,061.52	73.8027	6,061.52	69.6453	6,061.52	71.4815	6,061.52	73.7319	6,061.52	70.5896	6,061.52	72.2512	6,061.52	73.2103	6,061.52	66.3142	6,061.52	71.3398	6,061.52	68.8956
6,498.05	95.0556	6,498.05	94.9334	6,498.05	94.7811	6,498.05	94.7358	6,498.05	94.6083	6,498.05	94.412	6,498.05	94.5698	6,498.05	93.3718	6,498.05	93.591	6,498.05	91.9694	6,498.05	92.2033	6,498.05	90.4234	6,498.05	90.879	6,498.05	87.9422	6,498.05	88.8651	6,498.05	85.131	6,498.05	86.2166	6,498.05	82.3209	6,498.05	82.4233	6,498.05	80.0444	6,498.05	79.4504	6,498.05	78.2589	6,498.05	78.8861	6,498.05	75.8766	6,498.05	76.8777	6,498.05	74.76	6,498.05	73.8286	6,498.05	67.8374	6,498.05	71.7719	6,498.05	74.2078	6,498.05	70.6795	6,498.05	72.3997	6,498.05	72.6655	6,498.05	65.8708	6,498.05	70.7914	6,498.05	70.2645
6,963.87	94.6361	6,963.87	94.9718	6,963.87	94.7086	6,963.87	95.2271	6,963.87	95.0332	6,963.87	94.8873	6,963.87	94.8135	6,963.87	94.0113	6,963.87	93.8065	6,963.87	92.8984	6,963.87	92.6489	6,963.87	91.3082	6,963.87	91.2595	6,963.87	88.8108	6,963.87	89.4477	6,963.87	85.8519	6,963.87	86.7734	6,963.87	82.6192	6,963.87	83.2374	6,963.87	80.1327	6,963.87	80.5316	6,963.87	78.6502	6,963.87	79.2237	6,963.87	75.2988	6,963.87	77.4604	6,963.87	74.7803	6,963.87	73.1358	6,963.87	69.0259	6,963.87	70.9076	6,963.87	73.693	6,963.87	66.8674	6,963.87	74.2081	6,963.87	73.2823	6,963.87	66.2115	6,963.87	71.565	6,963.87	68.4085
7,464.84	93.1911	7,464.84	93.8678	7,464.84	93.3095	7,464.84	94.2732	7,464.84	93.8318	7,464.84	93.9096	7,464.84	93.5783	7,464.84	93.2927	7,464.84	92.7854	7,464.84	92.2896	7,464.84	91.8107	7,464.84	90.5279	7,464.84	90.1402	7,464.84	88.2304	7,464.84	88.1441	7,464.84	85.6517	7,464.84	85.4413	7,464.84	82.5946	7,464.84	82.0966	7,464.84	80.1315	7,464.84	79.4606	7,464.84	79.0013	7,464.84	77.9133	7,464.84	75.033	7,464.84	76.2282	7,464.84	73.5192	7,464.84	71.2007	7,464.84	68.9539	7,464.84	70.4054	7,464.84	71.9972	7,464.84	64.9919	7,464.84	72.7467	7,464.84	70.6666	7,464.84	67.4385	7,464.84	70.8635	7,464.84	69.8265
8,000.98	92.6017	8,000.98	93.065	8,000.98	92.7217	8,000.98	93.2261	8,000.98	92.9678	8,000.98	92.8498	8,000.98	92.662	8,000.98	92.1593	8,000.98	92.0236	8,000.98	90.5992	8,000.98	90.6492	8,000.98	88.6148	8,000.98	88.661	8,000.98	86.3806	8,000.98	86.6066	8,000.98	83.9445	8,000.98	83.323	8,000.98	80.8916	8,000.98	79.2343	8,000.98	77.6252	8,000.98	76.8727	8,000.98	76.4633	8,000.98	75.782	8,000.98	73.4036	8,000.98	73.3797	8,000.98	70.6191	8,000.98	69.975	8,000.98	66.87	8,000.98	65.3787	8,000.98	68.6795	8,000.98	64.3951	8,000.98	69.1619	8,000.98	66.5506	8,000.98	63.9914	8,000.98	69.6325	8,000.98	61.3178
8,575.2	95.1236	8,575.2	95.4186	8,575.2	95.1137	8,575.2	95.4881	8,575.2	94.9416	8,575.2	95.0827	8,575.2	94.4764	8,575.2	94.1112	8,575.2	93.6078	8,575.2	92.1127	8,575.2	91.8841	8,575.2	90.0501	8,575.2	90.0749	8,575.2	87.4708	8,575.2	87.9065	8,575.2	84.6785	8,575.2	84.6308	8,575.2	80.8553	8,575.2	80.818	8,575.2	76.3097	8,575.2	77.7348	8,575.2	75.8429	8,575.2	76.2598	8,575.2	74.0907	8,575.2	72.37	8,575.2	71.2737	8,575.2	68.6353	8,575.2	67.0773	8,575.2	59.8158	8,575.2	69.3192	8,575.2	63.2475	8,575.2	68.0376	8,575.2	64.2708	8,575.2	67.5906	8,575.2	69.3092	8,575.2	65.3752
9,190.43	94.9382	9,190.43	95.1177	9,190.43	94.8239	9,190.43	95.1682	9,190.43	94.3027	9,190.43	94.7535	9,190.43	93.5764	9,190.43	93.6516	9,190.43	92.2834	9,190.43	91.7004	9,190.43	90.2844	9,190.43	89.8125	9,190.43	88.6576	9,190.43	87.144	9,190.43	86.3857	9,190.43	84.6556	9,190.43	83.1426	9,190.43	81.0725	9,190.43	79.3801	9,190.43	76.8178	9,190.43	76.4306	9,190.43	76.1862	9,190.43	75.1197	9,190.43	74.1618	9,190.43	71.0103	9,190.43	71.7502	9,190.43	68.2891	9,190.43	65.501	9,190.43	58.4252	9,190.43	69.5017	9,190.43	62.2477	9,190.43	68.2269	9,190.43	62.2674	9,190.43	67.1796	9,190.43	67.6329	9,190.43	60.1276
9,849.61	94.2696	9,849.61	94.2768	9,849.61	94.2486	9,849.61	94.1046	9,849.61	93.7044	9,849.61	93.2182	9,849.61	92.5673	9,849.61	91.6838	9,849.61	90.724	9,849.61	89.5378	9,849.61	88.6777	9,849.61	87.2273	9,849.61	86.2871	9,849.61	84.0929	9,849.61	83.5368	9,849.61	81.3194	9,849.61	80.3399	9,849.61	77.8921	9,849.61	76.4162	9,849.61	74.4665	9,849.61	72.5765	9,849.61	74.0378	9,849.61	71.7622	9,849.61	70.8336	9,849.61	66.3192	9,849.61	70.5003	9,849.61	65.8991	9,849.61	63.1364	9,849.61	56.4235	9,849.61	66.9377	9,849.61	62.6292	9,849.61	64.1416	9,849.61	59.7553	9,849.61	66.9154	9,849.61	66.5882	9,849.61	38.3338
10,555.7	95.4489	10,555.7	95.3931	10,555.7	95.5343	10,555.7	95.1865	10,555.7	94.8478	10,555.7	94.0094	10,555.7	93.4161	10,555.7	92.341	10,555.7	91.3692	10,555.7	89.8964	10,555.7	89.11	10,555.7	87.1683	10,555.7	86.3913	10,555.7	84.1573	10,555.7	83.7205	10,555.7	81.69	10,555.7	80.6689	10,555.7	77.2455	10,555.7	77.5901	10,555.7	71.6859	10,555.7	71.9682	10,555.7	73.2194	10,555.7	70.4941	10,555.7	69.824	10,555.7	66.9648	10,555.7	70.533	10,555.7	66.3923	10,555.7	63.4269	10,555.7	66.1111	10,555.7	69.1531	10,555.7	63.12	10,555.7	63.325	10,555.7	65.9675	10,555.7	69.7083	10,555.7	67.975	10,555.7	49.4219
11,314.5	95.0683	11,314.5	94.9261	11,314.5	95.3646	11,314.5	94.8323	11,314.5	94.6447	11,314.5	93.5497	11,314.5	92.9051	11,314.5	91.8202	11,314.5	90.8083	11,314.5	89.4011	11,314.5	88.2	11,314.5	86.8546	11,314.5	85.444	11,314.5	84.0527	11,314.5	83.5355	11,314.5	81.6259	11,314.5	80.9679	11,314.5	77.6864	11,314.5	77.6129	11,314.5	72.0853	11,314.5	70.807	11,314.5	73.3064	11,314.5	70.8393	11,314.5	69.8803	11,314.5	69.6382	11,314.5	69.8723	11,314.5	69.2153	11,314.5	61.6442	11,314.5	69.9142	11,314.5	70.8995	11,314.5	67.8474	11,314.5	67.9903	11,314.5	69.5423	11,314.5	73.0624	11,314.5	65.8906	11,314.5	57.6859
12,126	93.9841	12,126	93.5881	12,126	94.4539	12,126	93.679	12,126	93.5109	12,126	92.4741	12,126	91.7636	12,126	90.7277	12,126	89.5372	12,126	88.4743	12,126	87.1538	12,126	85.9048	12,126	84.3962	12,126	82.8252	12,126	81.8075	12,126	80.8081	12,126	79.503	12,126	76.8653	12,126	76.5557	12,126	70.2761	12,126	69.3652	12,126	73.1415	12,126	69.9114	12,126	69.7167	12,126	70.5502	12,126	70.6716	12,126	68.6927	12,126	62.5178	12,126	70.3833	12,126	70.134	12,126	70.1346	12,126	67.0206	12,126	69.796	12,126	73.4697	12,126	70.3795	12,126	67.6348
12,996.1	94.6033	12,996.1	94.1529	12,996.1	95.1196	12,996.1	94.3656	12,996.1	94.1722	12,996.1	93.0643	12,996.1	92.3692	12,996.1	91.269	12,996.1	89.8559	12,996.1	88.7983	12,996.1	87.5978	12,996.1	85.7919	12,996.1	84.1095	12,996.1	82.7581	12,996.1	81.4421	12,996.1	81.0544	12,996.1	80.8685	12,996.1	76.6661	12,996.1	77.9436	12,996.1	68.2206	12,996.1	72.7378	12,996.1	71.568	12,996.1	69.6808	12,996.1	68.5001	12,996.1	72.423	12,996.1	71.6308	12,996.1	71.427	12,996.1	65.4233	12,996.1	73.2892	12,996.1	73.351	12,996.1	72.8855	12,996.1	70.9771	12,996.1	73.5956	12,996.1	75.6372	12,996.1	71.8582	12,996.1	69.3406
13,927.7	94.5234	13,927.7	94.0484	13,927.7	95.0105	13,927.7	94.3321	13,927.7	93.9595	13,927.7	93.1174	13,927.7	91.9869	13,927.7	91.1138	13,927.7	89.418	13,927.7	88.4948	13,927.7	86.7594	13,927.7	85.1605	13,927.7	82.9569	13,927.7	81.7898	13,927.7	80.965	13,927.7	80.0264	13,927.7	80.6825	13,927.7	75.965	13,927.7	76.2667	13,927.7	68.534	13,927.7	72.7853	13,927.7	70.047	13,927.7	69.5265	13,927.7	68.5356	13,927.7	72.8337	13,927.7	70.2728	13,927.7	72.8983	13,927.7	62.7526	13,927.7	73.4956	13,927.7	72.6446	13,927.7	74.8329	13,927.7	72.4178	13,927.7	73.5701	13,927.7	76.5295	13,927.7	73.9976	13,927.7	73.011
14,929.7	96.2376	14,929.7	95.481	14,929.7	96.4422	14,929.7	95.0173	14,929.7	95.0491	14,929.7	93.0901	14,929.7	92.4831	14,929.7	90.0209	14,929.7	89.3184	14,929.7	86.9877	14,929.7	86.1777	14,929.7	82.3845	14,929.7	81.9337	14,929.7	78.9164	14,929.7	78.9945	14,929.7	76.6354	14,929.7	79.0549	14,929.7	73.1401	14,929.7	73.6213	14,929.7	63.9409	14,929.7	72.8747	14,929.7	67.5631	14,929.7	66.2549	14,929.7	67.7802	14,929.7	72.6768	14,929.7	69.2337	14,929.7	72.2925	14,929.7	65.6729	14,929.7	73.1857	14,929.7	70.3626	14,929.7	73.5043	14,929.7	72.4188	14,929.7	69.8325	14,929.7	74.7135	14,929.7	75.8773	14,929.7	74.4089
15,999	98.1223	15,999	97.4504	15,999	97.7979	15,999	96.3193	15,999	95.8463	15,999	93.8463	15,999	92.611	15,999	89.9625	15,999	88.8884	15,999	86.2781	15,999	85.3096	15,999	80.6549	15,999	80.9918	15,999	77.5406	15,999	77.4695	15,999	73.6789	15,999	78.2066	15,999	70.473	15,999	71.6249	15,999	63.8668	15,999	74.1035	15,999	63.5915	15,999	61.6153	15,999	66.399	15,999	72.8975	15,999	66.1388	15,999	72.0451	15,999	64.4978	15,999	73.5592	15,999	68.0258	15,999	71.6631	15,999	73.8609	15,999	68.2866	15,999	74.8962	15,999	76.8988	15,999	75.6422
17,147.5	98.5557	17,147.5	97.7173	17,147.5	97.8321	17,147.5	95.583	17,147.5	95.4046	17,147.5	92.4465	17,147.5	91.6029	17,147.5	87.6709	17,147.5	87.6953	17,147.5	83.1126	17,147.5	82.9937	17,147.5	76.3079	17,147.5	79.9882	17,147.5	74.0506	17,147.5	74.8403	17,147.5	64.9087	17,147.5	75.4105	17,147.5	66.415	17,147.5	67.6584	17,147.5	55.0681	17,147.5	70.2146	17,147.5	63.7377	17,147.5	63.6659	17,147.5	62.6598	17,147.5	69.189	17,147.5	66.388	17,147.5	68.5304	17,147.5	65.4258	17,147.5	70.429	17,147.5	66.699	17,147.5	63.6784	17,147.5	71.342	17,147.5	58.8253	17,147.5	72.3066	17,147.5	75.0834	17,147.5	72.923
18,377.9	97.5883	18,377.9	96.7881	18,377.9	96.3782	18,377.9	93.9038	18,377.9	93.5908	18,377.9	90.0882	18,377.9	89.4223	18,377.9	84.2487	18,377.9	84.9873	18,377.9	78.7892	18,377.9	79.3882	18,377.9	70.8422	18,377.9	77.3312	18,377.9	69.3502	18,377.9	71.3056	18,377.9	61.9346	18,377.9	71.1889	18,377.9	63.3248	18,377.9	67.4985	18,377.9	58.7541	18,377.9	61.4003	18,377.9	63.1262	18,377.9	60.5296	18,377.9	59.9397	18,377.9	62.1341	18,377.9	65.4088	18,377.9	61.418	18,377.9	64.844	18,377.9	64.7838	18,377.9	65.6894	18,377.9	61.1799	18,377.9	70.4221	18,377.9	58.0975	18,377.9	70.9508	18,377.9	72.7227	18,377.9	72.4731
19,699.2	96.0616	19,699.2	94.8714	19,699.2	94.7348	19,699.2	90.9216	19,699.2	91.6531	19,699.2	86.0782	19,699.2	87.1059	19,699.2	79.7794	19,699.2	82.4263	19,699.2	73.5703	19,699.2	75.6359	19,699.2	67.8175	19,699.2	73.6503	19,699.2	63.659	19,699.2	64.7445	19,699.2	63.541	19,699.2	65.88	19,699.2	63.0531	19,699.2	64.2819	19,699.2	60.4335	19,699.2	58.7935	19,699.2	61.0591	19,699.2	59.2225	19,699.2	61.1482	19,699.2	41.405	19,699.2	61.285	19,699.2	57.0889	19,699.2	65.8964	19,699.2	56.9866	19,699.2	63.9471	19,699.2	58.3538	19,699.2	68.8101	19,699.2	59.2242	19,699.2	68.3012	19,699.2	69.2884	19,699.2	70.752
19,998	95.4633	19,998	94.3241	19,998	94.1948	19,998	90.5001	19,998	91.0462	19,998	85.8451	19,998	86.2917	19,998	79.7669	19,998	82.1132	19,998	72.8384	19,998	75.1059	19,998	67.3422	19,998	72.985	19,998	62.7537	19,998	62.4488	19,998	63.4622	19,998	65.7184	19,998	62.7798	19,998	64.4201	19,998	61.2012	19,998	60.7143	19,998	61.8915	19,998	60.4979	19,998	61.0745	19,998	40.1005	19,998	60.2092	19,998	57.5017	19,998	65.6658	19,998	56.1976	19,998	62.113	19,998	58.2473	19,998	68.8292	19,998	56.5046	19,998	67.8148	19,998	69.335	19,998	71.7162
