"SPL Horizontal"
"On-Axis"		"10°"		"-10°"		"20°"		"-20°"		"30°"		"-30°"		"40°"		"-40°"		"50°"		"-50°"		"60°"		"-60°"		"70°"		"-70°"		"80°"		"-80°"		"90°"		"-90°"		"100°"		"-100°"		"110°"		"-110°"		"120°"		"-120°"		"130°"		"-130°"		"140°"		"-140°"		"150°"		"-150°"		"160°"		"-160°"		"170°"		"-170°"		"180°"
"Frequency / Hz"	"Sound Pressure Level / dB (re 20 µPa/V)  [2.83  V @ 1. m]"	"Frequency / Hz"	"Sound Pressure Level / dB (re 20 µPa/V)  [2.83  V @ 1. m]"	"Frequency / Hz"	"Sound Pressure Level / dB (re 20 µPa/V)  [2.83  V @ 1. m]"	"Frequency / Hz"	"Sound Pressure Level / dB (re 20 µPa/V)  [2.83  V @ 1. m]"	"Frequency / Hz"	"Sound Pressure Level / dB (re 20 µPa/V)  [2.83  V @ 1. m]"	"Frequency / Hz"	"Sound Pressure Level / dB (re 20 µPa/V)  [2.83  V @ 1. m]"	"Frequency / Hz"	"Sound Pressure Level / dB (re 20 µPa/V)  [2.83  V @ 1. m]"	"Frequency / Hz"	"Sound Pressure Level / dB (re 20 µPa/V)  [2.83  V @ 1. m]"	"Frequency / Hz"	"Sound Pressure Level / dB (re 20 µPa/V)  [2.83  V @ 1. m]"	"Frequency / Hz"	"Sound Pressure Level / dB (re 20 µPa/V)  [2.83  V @ 1. m]"	"Frequency / Hz"	"Sound Pressure Level / dB (re 20 µPa/V)  [2.83  V @ 1. m]"	"Frequency / Hz"	"Sound Pressure Level / dB (re 20 µPa/V)  [2.83  V @ 1. m]"	"Frequency / Hz"	"Sound Pressure Level / dB (re 20 µPa/V)  [2.83  V @ 1. m]"	"Frequency / Hz"	"Sound Pressure Level / dB (re 20 µPa/V)  [2.83  V @ 1. m]"	"Frequency / Hz"	"Sound Pressure Level / dB (re 20 µPa/V)  [2.83  V @ 1. m]"	"Frequency / Hz"	"Sound Pressure Level / dB (re 20 µPa/V)  [2.83  V @ 1. m]"	"Frequency / Hz"	"Sound Pressure Level / dB (re 20 µPa/V)  [2.83  V @ 1. m]"	"Frequency / Hz"	"Sound Pressure Level / dB (re 20 µPa/V)  [2.83  V @ 1. m]"	"Frequency / Hz"	"Sound Pressure Level / dB (re 20 µPa/V)  [2.83  V @ 1. m]"	"Frequency / Hz"	"Sound Pressure Level / dB (re 20 µPa/V)  [2.83  V @ 1. m]"	"Frequency / Hz"	"Sound Pressure Level / dB (re 20 µPa/V)  [2.83  V @ 1. m]"	"Frequency / Hz"	"Sound Pressure Level / dB (re 20 µPa/V)  [2.83  V @ 1. m]"	"Frequency / Hz"	"Sound Pressure Level / dB (re 20 µPa/V)  [2.83  V @ 1. m]"	"Frequency / Hz"	"Sound Pressure Level / dB (re 20 µPa/V)  [2.83  V @ 1. m]"	"Frequency / Hz"	"Sound Pressure Level / dB (re 20 µPa/V)  [2.83  V @ 1. m]"	"Frequency / Hz"	"Sound Pressure Level / dB (re 20 µPa/V)  [2.83  V @ 1. m]"	"Frequency / Hz"	"Sound Pressure Level / dB (re 20 µPa/V)  [2.83  V @ 1. m]"	"Frequency / Hz"	"Sound Pressure Level / dB (re 20 µPa/V)  [2.83  V @ 1. m]"	"Frequency / Hz"	"Sound Pressure Level / dB (re 20 µPa/V)  [2.83  V @ 1. m]"	"Frequency / Hz"	"Sound Pressure Level / dB (re 20 µPa/V)  [2.83  V @ 1. m]"	"Frequency / Hz"	"Sound Pressure Level / dB (re 20 µPa/V)  [2.83  V @ 1. m]"	"Frequency / Hz"	"Sound Pressure Level / dB (re 20 µPa/V)  [2.83  V @ 1. m]"	"Frequency / Hz"	"Sound Pressure Level / dB (re 20 µPa/V)  [2.83  V @ 1. m]"	"Frequency / Hz"	"Sound Pressure Level / dB (re 20 µPa/V)  [2.83  V @ 1. m]"	"Frequency / Hz"	"Sound Pressure Level / dB (re 20 µPa/V)  [2.83  V @ 1. m]"	"Frequency / Hz"	"Sound Pressure Level / dB (re 20 µPa/V)  [2.83  V @ 1. m]"
20.5078	52.1703	20.5078	52.0879	20.5078	52.0432	20.5078	51.7945	20.5078	51.7058	20.5078	51.2889	20.5078	51.1587	20.5078	50.5816	20.5078	50.4189	20.5078	49.728	20.5078	49.56	20.5078	48.9021	20.5078	48.797	20.5078	48.4851	20.5078	48.5558	20.5078	48.9219	20.5078	49.2281	20.5078	50.2276	20.5078	50.689	20.5078	51.9632	20.5078	52.4618	20.5078	53.7293	20.5078	54.1944	20.5078	55.3351	20.5078	55.736	20.5078	56.7141	20.5078	57.0404	20.5078	57.8483	20.5078	58.0995	20.5078	58.7348	20.5078	58.915	20.5078	59.3744	20.5078	59.4897	20.5078	59.7681	20.5078	59.8241	20.5078	59.9175
21.9727	54.0399	21.9727	53.9155	21.9727	54.0296	21.9727	53.6628	21.9727	53.8906	21.9727	53.3057	21.9727	53.644	21.9727	52.8996	21.9727	53.3359	21.9727	52.5527	21.9727	53.0543	21.9727	52.435	21.9727	52.9386	21.9727	52.7269	21.9727	53.1499	21.9727	53.4967	21.9727	53.7804	21.9727	54.6375	21.9727	54.7784	21.9727	55.9565	21.9727	55.9886	21.9727	57.2882	21.9727	57.2516	21.9727	58.5297	21.9727	58.4558	21.9727	59.6248	21.9727	59.5359	21.9727	60.5436	21.9727	60.4555	21.9727	61.2687	21.9727	61.193	21.9727	61.7893	21.9727	61.7343	21.9727	62.0982	21.9727	62.0693	21.9727	62.1916
23.4375	55.9667	23.4375	55.9035	23.4375	55.9105	23.4375	55.7269	23.4375	55.7402	23.4375	55.4577	23.4375	55.4756	23.4375	55.1407	23.4375	55.1599	23.4375	54.8581	23.4375	54.8743	23.4375	54.7368	23.4375	54.7456	23.4375	54.9203	23.4375	54.9206	23.4375	55.4938	23.4375	55.4883	23.4375	56.4182	23.4375	56.4109	23.4375	57.5582	23.4375	57.5503	23.4375	58.7654	23.4375	58.7556	23.4375	59.9283	23.4375	59.9151	23.4375	60.977	23.4375	60.9604	23.4375	61.8705	23.4375	61.8518	23.4375	62.5838	23.4375	62.5658	23.4375	63.1015	23.4375	63.0874	23.4375	63.4139	23.4375	63.4062	23.4375	63.5159
24.9023	57.707	24.9023	57.664	24.9023	57.6615	24.9023	57.5399	24.9023	57.5338	24.9023	57.3584	24.9023	57.3462	24.9023	57.1646	24.9023	57.1429	24.9023	57.0313	24.9023	56.9965	24.9023	57.0555	24.9023	57.0062	24.9023	57.3319	24.9023	57.271	24.9023	57.9062	24.9023	57.8405	24.9023	58.7442	24.9023	58.6813	24.9023	59.751	24.9023	59.6955	24.9023	60.8185	24.9023	60.7716	24.9023	61.8576	24.9023	61.8189	24.9023	62.8063	24.9023	62.7747	24.9023	63.6234	24.9023	63.5983	24.9023	64.282	24.9023	64.263	24.9023	64.7636	24.9023	64.7508	24.9023	65.056	24.9023	65.0496	24.9023	65.1521
26.3672	60.3855	26.3672	60.3441	26.3672	60.3687	26.3672	60.2513	26.3672	60.2971	26.3672	60.1258	26.3672	60.1856	26.3672	60.0006	26.3672	60.0626	26.3672	59.9247	26.3672	59.9727	26.3672	59.9599	26.3672	59.9755	26.3672	60.1671	26.3672	60.1353	26.3672	60.5831	26.3672	60.499	26.3672	61.201	26.3672	61.0732	26.3672	61.9714	26.3672	61.8175	26.3672	62.8225	26.3672	62.6617	26.3672	63.6823	26.3672	63.53	26.3672	64.491	26.3672	64.3571	26.3672	65.2031	26.3672	65.093	26.3672	65.7851	26.3672	65.7016	26.3672	66.2132	26.3672	66.1572	26.3672	66.4709	26.3672	66.4429	26.3672	66.5486
27.832	61.9997	27.832	61.9705	27.832	61.9668	27.832	61.8844	27.832	61.8768	27.832	61.7571	27.832	61.7453	27.832	61.618	27.832	61.6017	27.832	61.5126	27.832	61.4918	27.832	61.5016	27.832	61.4764	27.832	61.6503	27.832	61.6216	27.832	62.0061	27.832	61.9751	27.832	62.5751	27.832	62.5434	27.832	63.3158	27.832	63.2848	27.832	64.1568	27.832	64.1274	27.832	65.0213	27.832	64.9941	27.832	65.8432	27.832	65.8188	27.832	66.572	27.832	66.551	27.832	67.1712	27.832	67.1543	27.832	67.6152	27.832	67.6033	27.832	67.8868	27.832	67.8806	27.832	67.9763
29.2969	63.58	29.2969	63.5607	29.2969	63.556	29.2969	63.5034	29.2969	63.4931	29.2969	63.4238	29.2969	63.4062	29.2969	63.3493	29.2969	63.3219	29.2969	63.3197	29.2969	63.2796	29.2969	63.3842	29.2969	63.3288	29.2969	63.5911	29.2969	63.5196	29.2969	63.9716	29.2969	63.886	29.2969	64.5251	29.2969	64.4305	29.2969	65.2168	29.2969	65.1199	29.2969	65.9897	29.2969	65.8968	29.2969	66.7812	29.2969	66.6971	29.2969	67.5353	29.2969	67.4629	29.2969	68.2065	29.2969	68.1474	29.2969	68.76	29.2969	68.7152	29.2969	69.1707	29.2969	69.1405	29.2969	69.4209	29.2969	69.4057	29.2969	69.5004
30.7617	65.2778	30.7617	65.2654	30.7617	65.2686	30.7617	65.2363	30.7617	65.2413	30.7617	65.2048	30.7617	65.2088	30.7617	65.1943	30.7617	65.1931	30.7617	65.2368	30.7617	65.225	30.7617	65.3684	30.7617	65.3408	30.7617	65.622	30.7617	65.5746	30.7617	66.0159	30.7617	65.9477	30.7617	66.5454	30.7617	66.4592	30.7617	67.1826	30.7617	67.0835	30.7617	67.8833	30.7617	67.7778	30.7617	68.5978	30.7617	68.4921	30.7617	69.2787	30.7617	69.1787	30.7617	69.886	30.7617	69.7972	30.7617	70.3871	30.7617	70.3147	30.7617	70.7577	30.7617	70.7065	30.7617	70.981	30.7617	70.9544	30.7617	71.0475
32.2266	67.1082	32.2266	67.1054	32.2266	67.0951	32.2266	67.0905	32.2266	67.0693	32.2266	67.0747	32.2266	67.0418	32.2266	67.0765	32.2266	67.0311	32.2266	67.1209	32.2266	67.0627	32.2266	67.2366	32.2266	67.1668	32.2266	67.4504	32.2266	67.3721	32.2266	67.7797	32.2266	67.6974	32.2266	68.2254	32.2266	68.1443	32.2266	68.7696	32.2266	68.6941	32.2266	69.3794	32.2266	69.3121	32.2266	70.0136	32.2266	69.9553	32.2266	70.6295	32.2266	70.58	32.2266	71.1881	32.2266	71.1473	32.2266	71.6562	32.2266	71.6244	32.2266	72.0078	32.2266	71.9857	32.2266	72.2238	32.2266	72.2125	32.2266	72.2932
33.6914	68.8626	33.6914	68.8605	33.6914	68.8576	33.6914	68.8542	33.6914	68.8487	33.6914	68.853	33.6914	68.8456	33.6914	68.8722	33.6914	68.8638	33.6914	68.9319	33.6914	68.9241	33.6914	69.0554	33.6914	69.05	33.6914	69.2641	33.6914	69.2627	33.6914	69.5722	33.6914	69.5758	33.6914	69.9812	33.6914	69.9895	33.6914	70.4776	33.6914	70.489	33.6914	71.0347	33.6914	71.0469	33.6914	71.6173	33.6914	71.628	33.6914	72.1872	33.6914	72.195	33.6914	72.708	33.6914	72.7126	33.6914	73.1479	33.6914	73.1498	33.6914	73.4809	33.6914	73.4813	33.6914	73.6882	33.6914	73.6881	33.6914	73.7585
35.1562	70.6287	35.1562	70.6252	35.1562	70.6298	35.1562	70.6219	35.1562	70.6313	35.1562	70.6266	35.1562	70.6413	35.1562	70.6523	35.1562	70.6727	35.1562	70.716	35.1562	70.7426	35.1562	70.8371	35.1562	70.8699	35.1562	71.0335	35.1562	71.0723	35.1562	71.3175	35.1562	71.361	35.1562	71.6912	35.1562	71.7377	35.1562	72.1442	35.1562	72.1912	35.1562	72.6542	35.1562	72.6995	35.1562	73.1908	35.1562	73.2322	35.1562	73.7197	35.1562	73.7556	35.1562	74.2069	35.1562	74.2362	35.1562	74.6216	35.1562	74.6438	35.1562	74.9382	35.1562	74.9531	35.1562	75.1376	35.1562	75.145	35.1562	75.2078
36.6211	72.0742	36.6211	72.0719	36.6211	72.0813	36.6211	72.0769	36.6211	72.0954	36.6211	72.0956	36.6211	72.1229	36.6211	72.139	36.6211	72.1741	36.6211	72.2207	36.6211	72.2627	36.6211	72.3562	36.6211	72.4035	36.6211	72.5593	36.6211	72.61	36.6211	72.8391	36.6211	72.891	36.6211	73.1967	36.6211	73.2471	36.6211	73.6228	36.6211	73.6692	36.6211	74.0984	36.6211	74.1387	36.6211	74.5971	36.6211	74.63	36.6211	75.0882	36.6211	75.1132	36.6211	75.5408	36.6211	75.5584	36.6211	75.926	36.6211	75.9375	36.6211	76.2199	36.6211	76.2266	36.6211	76.4043	36.6211	76.4073	36.6211	76.4679
38.0859	73.6866	38.0859	73.6863	38.0859	73.6954	38.0859	73.6962	38.0859	73.7145	38.0859	73.7219	38.0859	73.7492	38.0859	73.7718	38.0859	73.8079	38.0859	73.8571	38.0859	73.9014	38.0859	73.9899	38.0859	74.0416	38.0859	74.1815	38.0859	74.2391	38.0859	74.4392	38.0859	74.5009	38.0859	74.7642	38.0859	74.8276	38.0859	75.1496	38.0859	75.212	38.0859	75.5798	38.0859	75.6387	38.0859	76.0327	38.0859	76.0855	38.0859	76.4814	38.0859	76.5264	38.0859	76.8978	38.0859	76.9339	38.0859	77.2549	38.0859	77.2816	38.0859	77.5293	38.0859	77.5469	38.0859	77.7032	38.0859	77.7119	38.0859	77.7653
39.5508	75.165	39.5508	75.1646	39.5508	75.1769	39.5508	75.1768	39.5508	75.2016	39.5508	75.2059	39.5508	75.2436	39.5508	75.2587	39.5508	75.3097	39.5508	75.3442	39.5508	75.4085	39.5508	75.4721	39.5508	75.5491	39.5508	75.6514	39.5508	75.74	39.5508	75.8886	39.5508	75.9863	39.5508	76.1848	39.5508	76.2884	39.5508	76.535	39.5508	76.6403	39.5508	76.9267	39.5508	77.0293	39.5508	77.341	39.5508	77.4365	39.5508	77.7544	39.5508	77.8389	39.5508	78.1411	39.5508	78.2115	39.5508	78.4756	39.5508	78.5298	39.5508	78.7353	39.5508	78.772	39.5508	78.9024	39.5508	78.9209	39.5508	78.9656
41.0156	77.097	41.0156	77.0838	41.0156	77.1256	41.0156	77.0878	41.0156	77.1703	41.0156	77.1128	41.0156	77.2337	41.0156	77.1647	41.0156	77.3204	41.0156	77.2507	41.0156	77.4359	41.0156	77.3785	41.0156	77.5866	41.0156	77.555	41.0156	77.7779	41.0156	77.7848	41.0156	78.0131	41.0156	78.0684	41.0156	78.2923	41.0156	78.4006	41.0156	78.6108	41.0156	78.7701	41.0156	78.9587	41.0156	79.1597	41.0156	79.321	41.0156	79.5475	41.0156	79.6788	41.0156	79.9096	41.0156	80.0108	41.0156	80.2226	41.0156	80.2952	41.0156	80.4656	41.0156	80.5121	41.0156	80.6225	41.0156	80.6451	41.0156	80.6833
42.4805	77.6044	42.4805	77.619	42.4805	77.6057	42.4805	77.6502	42.4805	77.6238	42.4805	77.7008	42.4805	77.6615	42.4805	77.7749	42.4805	77.7234	42.4805	77.878	42.4805	77.8148	42.4805	78.0158	42.4805	77.9419	42.4805	78.1935	42.4805	78.1102	42.4805	78.4146	42.4805	78.3234	42.4805	78.6789	42.4805	78.5822	42.4805	78.9822	42.4805	78.8828	42.4805	79.315	42.4805	79.2163	42.4805	79.6627	42.4805	79.5684	42.4805	80.0069	42.4805	79.921	42.4805	80.3266	42.4805	80.2528	42.4805	80.6006	42.4805	80.5423	42.4805	80.8093	42.4805	80.769	42.4805	80.9371	42.4805	80.9165	42.4805	80.9739
43.9453	78.4474	43.9453	78.4611	43.9453	78.4531	43.9453	78.4947	43.9453	78.4788	43.9453	78.5505	43.9453	78.5264	43.9453	78.6314	43.9453	78.599	43.9453	78.7413	43.9453	78.7006	43.9453	78.8843	43.9453	78.8354	43.9453	79.0637	43.9453	79.0071	43.9453	79.2814	43.9453	79.2181	43.9453	79.5367	43.9453	79.4682	43.9453	79.8251	43.9453	79.7537	43.9453	80.1382	43.9453	80.0666	43.9453	80.4634	43.9453	80.3946	43.9453	80.7844	43.9453	80.7214	43.9453	81.0825	43.9453	81.0282	43.9453	81.3383	43.9453	81.2953	43.9453	81.5339	43.9453	81.5041	43.9453	81.6545	43.9453	81.6392	43.9453	81.6906
45.4102	79.3989	45.4102	79.4134	45.4102	79.4024	45.4102	79.4465	45.4102	79.4246	45.4102	79.4994	45.4102	79.4669	45.4102	79.5744	45.4102	79.5319	45.4102	79.6741	45.4102	79.6223	45.4102	79.8017	45.4102	79.7417	45.4102	79.9597	45.4102	79.8928	45.4102	80.1499	45.4102	80.0777	45.4102	80.3721	45.4102	80.2965	45.4102	80.6233	45.4102	80.5464	45.4102	80.8969	45.4102	80.8213	45.4102	81.1825	45.4102	81.1108	45.4102	81.4661	45.4102	81.4011	45.4102	81.7311	45.4102	81.6754	45.4102	81.9598	45.4102	81.9158	45.4102	82.1352	45.4102	82.1048	45.4102	82.2434	45.4102	82.2279	45.4102	82.2753
46.875	79.922	46.875	79.9357	46.875	79.927	46.875	79.9683	46.875	79.9512	46.875	80.0208	46.875	79.9959	46.875	80.0949	46.875	80.0629	46.875	80.1927	46.875	80.1547	46.875	80.3165	46.875	80.2736	46.875	80.4683	46.875	80.4221	46.875	80.6494	46.875	80.6015	46.875	80.8595	46.875	80.8116	46.875	81.0959	46.875	81.0496	46.875	81.3529	46.875	81.3098	46.875	81.6215	46.875	81.5828	46.875	81.8889	46.875	81.8556	46.875	82.1401	46.875	82.1127	46.875	82.3581	46.875	82.3372	46.875	82.5269	46.875	82.5127	46.875	82.6328	46.875	82.6256	46.875	82.6667
48.3398	80.3255	48.3398	80.337	48.3398	80.3344	48.3398	80.3689	48.3398	80.364	48.3398	80.4221	48.3398	80.4151	48.3398	80.4974	48.3398	80.4888	48.3398	80.5961	48.3398	80.5865	48.3398	80.7197	48.3398	80.7097	48.3398	80.8693	48.3398	80.8596	48.3398	81.0453	48.3398	81.0366	48.3398	81.2471	48.3398	81.2397	48.3398	81.472	48.3398	81.4661	48.3398	81.7147	48.3398	81.7104	48.3398	81.9671	48.3398	81.9641	48.3398	82.2178	48.3398	82.2159	48.3398	82.4532	48.3398	82.4518	48.3398	82.6578	48.3398	82.6569	48.3398	82.817	48.3398	82.8164	48.3398	82.9181	48.3398	82.9178	48.3398	82.9527
51.2695	80.9063	51.2695	80.9205	51.2695	80.914	51.2695	80.9566	51.2695	80.9438	51.2695	81.0142	51.2695	80.9957	51.2695	81.0931	51.2695	81.0698	51.2695	81.1932	51.2695	81.1661	51.2695	81.3142	51.2695	81.2843	51.2695	81.4557	51.2695	81.4243	51.2695	81.617	51.2695	81.5851	51.2695	81.7965	51.2695	81.7652	51.2695	81.9918	51.2695	81.9621	51.2695	82.1986	51.2695	82.1713	51.2695	82.4108	51.2695	82.3865	51.2695	82.6199	51.2695	82.599	51.2695	82.815	51.2695	82.798	51.2695	82.9843	51.2695	82.9714	51.2695	83.1155	51.2695	83.1069	51.2695	83.1982	51.2695	83.1939	51.2695	83.2252
52.7344	81.135	52.7344	81.1497	52.7344	81.1418	52.7344	81.1856	52.7344	81.1701	52.7344	81.2422	52.7344	81.22	52.7344	81.3189	52.7344	81.2911	52.7344	81.4151	52.7344	81.3829	52.7344	81.5302	52.7344	81.4949	52.7344	81.6631	52.7344	81.6263	52.7344	81.8129	52.7344	81.7757	52.7344	81.9781	52.7344	81.9416	52.7344	82.1562	52.7344	82.1215	52.7344	82.3436	52.7344	82.3115	52.7344	82.535	52.7344	82.5063	52.7344	82.7231	52.7344	82.6983	52.7344	82.8985	52.7344	82.8782	52.7344	83.0506	52.7344	83.0352	52.7344	83.1684	52.7344	83.1581	52.7344	83.2425	52.7344	83.2373	52.7344	83.2663
54.1992	81.2431	54.1992	81.2584	54.1992	81.2495	54.1992	81.2949	54.1992	81.2776	54.1992	81.352	54.1992	81.3272	54.1992	81.429	54.1992	81.3975	54.1992	81.5246	54.1992	81.4879	54.1992	81.6378	54.1992	81.5972	54.1992	81.7672	54.1992	81.7242	54.1992	81.9114	54.1992	81.8673	54.1992	82.0685	54.1992	82.0246	54.1992	82.2362	54.1992	82.1936	54.1992	82.4109	54.1992	82.371	54.1992	82.5879	54.1992	82.5517	54.1992	82.7607	54.1992	82.7293	54.1992	82.9213	54.1992	82.8954	54.1992	83.0602	54.1992	83.0404	54.1992	83.1674	54.1992	83.1541	54.1992	83.2345	54.1992	83.2277	54.1992	83.2553
55.6641	81.3718	55.6641	81.3924	55.6641	81.372	55.6641	81.4332	55.6641	81.3932	55.6641	81.4933	55.6641	81.4351	55.6641	81.5714	55.6641	81.497	55.6641	81.666	55.6641	81.578	55.6641	81.7754	55.6641	81.6768	55.6641	81.898	55.6641	81.7919	55.6641	82.0319	55.6641	81.9217	55.6641	82.1752	55.6641	82.0644	55.6641	82.3255	55.6641	82.2175	55.6641	82.48	55.6641	82.3783	55.6641	82.6349	55.6641	82.5424	55.6641	82.7848	55.6641	82.7043	55.6641	82.923	55.6641	82.8565	55.6641	83.0414	55.6641	82.9905	55.6641	83.1315	55.6641	83.0971	55.6641	83.1857	55.6641	83.1683	55.6641	83.1986
58.5938	81.4647	58.5938	81.4792	58.5938	81.473	58.5938	81.5159	58.5938	81.5041	58.5938	81.5736	58.5938	81.5569	58.5938	81.6506	58.5938	81.6301	58.5938	81.7445	58.5938	81.7218	58.5938	81.8529	58.5938	81.8294	58.5938	81.9732	58.5938	81.9505	58.5938	82.1028	58.5938	82.0821	58.5938	82.239	58.5938	82.2216	58.5938	82.3792	58.5938	82.366	58.5938	82.5208	58.5938	82.5121	58.5938	82.6605	58.5938	82.6561	58.5938	82.7941	58.5938	82.7935	58.5938	82.9167	58.5938	82.9187	58.5938	83.0223	58.5938	83.0255	58.5938	83.1043	58.5938	83.1074	58.5938	83.1569	58.5938	83.1587	58.5938	83.1756
60.0586	81.5926	60.0586	81.6027	60.0586	81.6041	60.0586	81.6339	60.0586	81.6367	60.0586	81.685	60.0586	81.6894	60.0586	81.7542	60.0586	81.7603	60.0586	81.8391	60.0586	81.847	60.0586	81.9372	60.0586	81.947	60.0586	82.0454	60.0586	82.0572	60.0586	82.1611	60.0586	82.175	60.0586	82.2817	60.0586	82.2976	60.0586	82.4048	60.0586	82.4224	60.0586	82.5281	60.0586	82.5469	60.0586	82.6492	60.0586	82.6684	60.0586	82.7649	60.0586	82.7835	60.0586	82.8713	60.0586	82.8881	60.0586	82.9634	60.0586	82.977	60.0586	83.0354	60.0586	83.045	60.0586	83.0822	60.0586	83.0871	60.0586	83.0999
62.9883	81.7933	62.9883	81.8055	62.9883	81.8026	62.9883	81.8386	62.9883	81.833	62.9883	81.891	62.9883	81.8833	62.9883	81.9606	62.9883	81.9514	62.9883	82.0445	62.9883	82.0347	62.9883	82.1394	62.9883	82.1299	62.9883	82.242	62.9883	82.234	62.9883	82.3492	62.9883	82.3436	62.9883	82.4582	62.9883	82.4558	62.9883	82.5667	62.9883	82.5679	62.9883	82.6726	62.9883	82.6774	62.9883	82.7742	62.9883	82.782	62.9883	82.8692	62.9883	82.879	62.9883	82.9551	62.9883	82.9655	62.9883	83.0285	62.9883	83.0379	62.9883	83.0856	62.9883	83.0926	62.9883	83.1225	62.9883	83.1262	62.9883	83.1364
64.4531	81.8959	64.4531	81.9078	64.4531	81.9051	64.4531	81.94	64.4531	81.9348	64.4531	81.9912	64.4531	81.9838	64.4531	82.0588	64.4531	82.0499	64.4531	82.14	64.4531	82.1303	64.4531	82.2313	64.4531	82.2217	64.4531	82.3292	64.4531	82.3207	64.4531	82.4305	64.4531	82.424	64.4531	82.5322	64.4531	82.5287	64.4531	82.632	64.4531	82.6319	64.4531	82.7279	64.4531	82.7314	64.4531	82.8186	64.4531	82.8249	64.4531	82.9023	64.4531	82.9104	64.4531	82.9771	64.4531	82.9857	64.4531	83.0405	64.4531	83.0481	64.4531	83.0893	64.4531	83.095	64.4531	83.1208	64.4531	83.1238	64.4531	83.1326
67.3828	81.9774	67.3828	81.9837	67.3828	81.9933	67.3828	82.0116	67.3828	82.0305	67.3828	82.0598	67.3828	82.0874	67.3828	82.1258	67.3828	82.1612	67.3828	82.2063	67.3828	82.2484	67.3828	82.2976	67.3828	82.345	67.3828	82.3957	67.3828	82.447	67.3828	82.4966	67.3828	82.5503	67.3828	82.5969	67.3828	82.6513	67.3828	82.6935	67.3828	82.7472	67.3828	82.7842	67.3828	82.8357	67.3828	82.8676	67.3828	82.9153	67.3828	82.9424	67.3828	82.9851	67.3828	83.0077	67.3828	83.044	67.3828	83.0624	67.3828	83.0909	67.3828	83.1049	67.3828	83.1245	67.3828	83.1333	67.3828	83.1433	67.3828	83.1463
68.8477	82.0492	68.8477	82.0569	68.8477	82.0641	68.8477	82.0868	68.8477	82.1009	68.8477	82.1374	68.8477	82.1575	68.8477	82.206	68.8477	82.2309	68.8477	82.289	68.8477	82.3176	68.8477	82.3825	68.8477	82.4132	68.8477	82.4821	68.8477	82.5135	68.8477	82.5834	68.8477	82.6143	68.8477	82.6827	68.8477	82.712	68.8477	82.7767	68.8477	82.8037	68.8477	82.8633	68.8477	82.8875	68.8477	82.9409	68.8477	82.9621	68.8477	83.0087	68.8477	83.0267	68.8477	83.0663	68.8477	83.081	68.8477	83.1131	68.8477	83.1243	68.8477	83.1483	68.8477	83.1558	68.8477	83.1707	68.8477	83.1745	68.8477	83.1796
71.7773	82.238	71.7773	82.2465	71.7773	82.2516	71.7773	82.2765	71.7773	82.2865	71.7773	82.3265	71.7773	82.3409	71.7773	82.3936	71.7773	82.412	71.7773	82.4744	71.7773	82.4962	71.7773	82.5647	71.7773	82.5891	71.7773	82.66	71.7773	82.6862	71.7773	82.7558	71.7773	82.7831	71.7773	82.848	71.7773	82.8756	71.7773	82.9333	71.7773	82.9604	71.7773	83.0092	71.7773	83.0351	71.7773	83.0744	71.7773	83.0983	71.7773	83.1284	71.7773	83.1497	71.7773	83.1717	71.7773	83.1895	71.7773	83.205	71.7773	83.2187	71.7773	83.2288	71.7773	83.2382	71.7773	83.2439	71.7773	83.2486	71.7773	83.2505
74.707	82.5295	74.707	82.5363	74.707	82.5435	74.707	82.5635	74.707	82.5777	74.707	82.6094	74.707	82.6302	74.707	82.6713	74.707	82.698	74.707	82.7455	74.707	82.7774	74.707	82.8278	74.707	82.864	74.707	82.9135	74.707	82.9529	74.707	82.998	74.707	83.0394	74.707	83.077	74.707	83.1192	74.707	83.1472	74.707	83.1888	74.707	83.2063	74.707	83.2458	74.707	83.2532	74.707	83.2892	74.707	83.2882	74.707	83.3194	74.707	83.3128	74.707	83.3382	74.707	83.329	74.707	83.3482	74.707	83.3393	74.707	83.352	74.707	83.3458	74.707	83.3521	74.707	83.3498
77.6367	82.721	77.6367	82.7288	77.6367	82.734	77.6367	82.7567	77.6367	82.7669	77.6367	82.8032	77.6367	82.8178	77.6367	82.8653	77.6367	82.8835	77.6367	82.9391	77.6367	82.96	77.6367	83.0202	77.6367	83.0427	77.6367	83.1034	77.6367	83.1266	77.6367	83.1838	77.6367	83.2066	77.6367	83.2567	77.6367	83.2783	77.6367	83.3186	77.6367	83.3381	77.6367	83.367	77.6367	83.3839	77.6367	83.4012	77.6367	83.4151	77.6367	83.4221	77.6367	83.4329	77.6367	83.4319	77.6367	83.4399	77.6367	83.4342	77.6367	83.4397	77.6367	83.4326	77.6367	83.4359	77.6367	83.4304	77.6367	83.4319	77.6367	83.4298
79.1016	82.7784	79.1016	82.7858	79.1016	82.7919	79.1016	82.8136	79.1016	82.8255	79.1016	82.8601	79.1016	82.8772	79.1016	82.9222	79.1016	82.9437	79.1016	82.9958	79.1016	83.0209	79.1016	83.0763	79.1016	83.104	79.1016	83.1583	79.1016	83.1877	79.1016	83.2366	79.1016	83.2668	79.1016	83.3065	79.1016	83.3367	79.1016	83.3642	79.1016	83.3937	79.1016	83.4073	79.1016	83.4354	79.1016	83.4354	79.1016	83.4613	79.1016	83.4497	79.1016	83.4728	79.1016	83.4533	79.1016	83.4729	79.1016	83.4501	79.1016	83.4656	79.1016	83.4446	79.1016	83.4554	79.1016	83.4407	79.1016	83.4463	79.1016	83.441
82.0312	82.9912	82.0312	82.9965	82.0312	83.0053	82.0312	83.0206	82.0312	83.0383	82.0312	83.0617	82.0312	83.0884	82.0312	83.1171	82.0312	83.153	82.0312	83.1831	82.0312	83.2281	82.0312	83.2555	82.0312	83.3091	82.0312	83.3293	82.0312	83.3907	82.0312	83.3997	82.0312	83.4678	82.0312	83.4622	82.0312	83.5353	82.0312	83.5132	82.0312	83.5893	82.0312	83.5506	82.0312	83.6274	82.0312	83.5738	82.0312	83.6486	82.0312	83.5843	82.0312	83.6542	82.0312	83.5855	82.0312	83.6471	82.0312	83.5816	82.0312	83.6317	82.0312	83.5773	82.0312	83.6128	82.0312	83.5768	82.0312	83.5952	82.0312	83.5826
84.9609	83.1614	84.9609	83.1673	84.9609	83.1758	84.9609	83.1929	84.9609	83.2099	84.9609	83.2364	84.9609	83.2619	84.9609	83.295	84.9609	83.3288	84.9609	83.3649	84.9609	83.4065	84.9609	83.4414	84.9609	83.4898	84.9609	83.5195	84.9609	83.573	84.9609	83.5938	84.9609	83.6504	84.9609	83.6592	84.9609	83.7167	84.9609	83.7116	84.9609	83.7676	84.9609	83.7484	84.9609	83.8004	84.9609	83.7684	84.9609	83.8147	84.9609	83.7731	84.9609	83.812	84.9609	83.7657	84.9609	83.7966	84.9609	83.7514	84.9609	83.774	84.9609	83.736	84.9609	83.7507	84.9609	83.7253	84.9609	83.7325	84.9609	83.7236
87.8906	83.4425	87.8906	83.4658	87.8906	83.4352	87.8906	83.504	87.8906	83.444	87.8906	83.5552	87.8906	83.4678	87.8906	83.6165	87.8906	83.5044	87.8906	83.6839	87.8906	83.5508	87.8906	83.7528	87.8906	83.6024	87.8906	83.818	87.8906	83.6542	87.8906	83.8741	87.8906	83.7007	87.8906	83.916	87.8906	83.7365	87.8906	83.9395	87.8906	83.7577	87.8906	83.9419	87.8906	83.7618	87.8906	83.9227	87.8906	83.7493	87.8906	83.8842	87.8906	83.7233	87.8906	83.8311	87.8906	83.6896	87.8906	83.7709	87.8906	83.656	87.8906	83.7122	87.8906	83.6309	87.8906	83.6637	87.8906	83.6216	87.8906	83.6323
90.8203	83.8678	90.8203	83.8911	90.8203	83.8586	90.8203	83.9281	90.8203	83.8628	90.8203	83.9766	90.8203	83.8785	90.8203	84.0335	90.8203	83.9028	90.8203	84.0942	90.8203	83.9317	90.8203	84.1531	90.8203	83.961	90.8203	84.2043	90.8203	83.9863	90.8203	84.2419	90.8203	84.0034	90.8203	84.2605	90.8203	84.0087	90.8203	84.2565	90.8203	84.0001	90.8203	84.2283	90.8203	83.9769	90.8203	84.1772	90.8203	83.9408	90.8203	84.1073	90.8203	83.8954	90.8203	84.0256	90.8203	83.8465	90.8203	83.9413	90.8203	83.8018	90.8203	83.8644	90.8203	83.7691	90.8203	83.8042	90.8203	83.7559	90.8203	83.7671
95.2148	83.833	95.2148	83.842	95.2148	83.8398	95.2148	83.8665	95.2148	83.862	95.2148	83.9054	95.2148	83.8982	95.2148	83.9562	95.2148	83.9461	95.2148	84.016	95.2148	84.0026	95.2148	84.0807	95.2148	84.0637	95.2148	84.1455	95.2148	84.1249	95.2148	84.2055	95.2148	84.1812	95.2148	84.2557	95.2148	84.2278	95.2148	84.2916	95.2148	84.2604	95.2148	84.3103	95.2148	84.2764	95.2148	84.3105	95.2148	84.275	95.2148	84.2933	95.2148	84.2579	95.2148	84.2626	95.2148	84.2295	95.2148	84.2245	95.2148	84.1963	95.2148	84.187	95.2148	84.1663	95.2148	84.158	95.2148	84.1471	95.2148	84.1438
98.1445	84.1099	98.1445	84.1221	98.1445	84.1116	98.1445	84.148	98.1445	84.127	98.1445	84.1866	98.1445	84.1548	98.1445	84.2357	98.1445	84.1931	98.1445	84.2925	98.1445	84.2393	98.1445	84.3527	98.1445	84.2897	98.1445	84.4114	98.1445	84.3398	98.1445	84.4631	98.1445	84.3844	98.1445	84.5023	98.1445	84.4186	98.1445	84.5241	98.1445	84.4377	98.1445	84.5252	98.1445	84.4387	98.1445	84.5046	98.1445	84.4209	98.1445	84.4644	98.1445	84.3867	98.1445	84.4099	98.1445	84.3415	98.1445	84.3492	98.1445	84.2938	98.1445	84.2925	98.1445	84.2532	98.1445	84.2493	98.1445	84.2289	98.1445	84.227
101.074	84.1185	101.074	84.136	101.074	84.1187	101.074	84.1707	101.074	84.1361	101.074	84.2211	101.074	84.1694	101.074	84.2846	101.074	84.216	101.074	84.3576	101.074	84.2725	101.074	84.4353	101.074	84.3344	101.074	84.5119	101.074	84.3964	101.074	84.5815	101.074	84.4532	101.074	84.6377	101.074	84.4995	101.074	84.6756	101.074	84.531	101.074	84.6916	101.074	84.5453	101.074	84.6847	101.074	84.5419	101.074	84.6569	101.074	84.5236	101.074	84.6132	101.074	84.4955	101.074	84.561	101.074	84.4654	101.074	84.5092	101.074	84.4414	101.074	84.4663	101.074	84.4311	101.074	84.4392
105.469	84.5207	105.469	84.533	105.469	84.5224	105.469	84.5582	105.469	84.5385	105.469	84.5946	105.469	84.5684	105.469	84.6399	105.469	84.6101	105.469	84.6912	105.469	84.6603	105.469	84.7445	105.469	84.7141	105.469	84.795	105.469	84.7655	105.469	84.8372	105.469	84.8077	105.469	84.8652	105.469	84.8344	105.469	84.8738	105.469	84.8403	105.469	84.8591	105.469	84.8223	105.469	84.8201	105.469	84.7803	105.469	84.7591	105.469	84.7181	105.469	84.6824	105.469	84.6433	105.469	84.6004	105.469	84.5666	105.469	84.5257	105.469	84.5009	105.469	84.4715	105.469	84.4583	105.469	84.4476
108.398	84.7368	108.398	84.7401	108.398	84.7455	108.398	84.7551	108.398	84.7659	108.398	84.7809	108.398	84.7975	108.398	84.8161	108.398	84.8388	108.398	84.8584	108.398	84.8871	108.398	84.9044	108.398	84.9385	108.398	84.9496	108.398	84.9878	108.398	84.9886	108.398	85.0286	108.398	85.0156	108.398	85.0546	108.398	85.0252	108.398	85.0601	108.398	85.0134	108.398	85.0413	108.398	84.9785	108.398	84.9976	108.398	84.9223	108.398	84.9322	108.398	84.8505	108.398	84.8525	108.398	84.7729	108.398	84.7699	108.398	84.7024	108.398	84.6978	108.398	84.6523	108.398	84.6491	108.398	84.633
112.793	84.9268	112.793	84.9289	112.793	84.9338	112.793	84.9398	112.793	84.9501	112.793	84.959	112.793	84.9754	112.793	84.9855	112.793	85.0089	112.793	85.0173	112.793	85.049	112.793	85.0518	112.793	85.0927	112.793	85.0849	112.793	85.1359	112.793	85.1121	112.793	85.173	112.793	85.1283	112.793	85.1982	112.793	85.1291	112.793	85.2056	112.793	85.1115	112.793	85.191	112.793	85.0746	112.793	85.1529	112.793	85.0208	112.793	85.0933	112.793	84.9561	112.793	85.0184	112.793	84.8895	112.793	84.9383	112.793	84.8323	112.793	84.8656	112.793	84.7957	112.793	84.8125	112.793	84.7881
117.188	85.2218	117.188	85.2312	117.188	85.2162	117.188	85.2445	117.188	85.2146	117.188	85.2619	117.188	85.2172	117.188	85.2834	117.188	85.224	117.188	85.3084	117.188	85.2345	117.188	85.3352	117.188	85.2472	117.188	85.3607	117.188	85.259	117.188	85.3807	117.188	85.2659	117.188	85.39	117.188	85.2629	117.188	85.3836	117.188	85.2455	117.188	85.3573	117.188	85.2107	117.188	85.3092	117.188	85.1581	117.188	85.2405	117.188	85.0913	117.188	85.1564	117.188	85.0177	117.188	85.0658	117.188	84.9479	117.188	84.9805	117.188	84.8941	117.188	84.9128	117.188	84.867	117.188	84.8731
120.117	85.458	120.117	85.4648	120.117	85.4521	120.117	85.4726	120.117	85.447	120.117	85.4815	120.117	85.4424	120.117	85.491	120.117	85.4378	120.117	85.5002	120.117	85.4326	120.117	85.5071	120.117	85.4249	120.117	85.5088	120.117	85.4125	120.117	85.5012	120.117	85.3919	120.117	85.4801	120.117	85.3593	120.117	85.4413	120.117	85.3112	120.117	85.3818	120.117	85.2455	120.117	85.301	120.117	85.1629	120.117	85.2017	120.117	85.0677	120.117	85.0907	120.117	84.968	120.117	84.9784	120.117	84.8755	120.117	84.8779	120.117	84.8033	120.117	84.8023	120.117	84.763	120.117	84.7623
124.512	85.4597	124.512	85.4655	124.512	85.4594	124.512	85.4765	124.512	85.4642	124.512	85.492	124.512	85.4736	124.512	85.5107	124.512	85.4863	124.512	85.5307	124.512	85.5004	124.512	85.5488	124.512	85.5127	124.512	85.5612	124.512	85.5195	124.512	85.5631	124.512	85.516	124.512	85.5495	124.512	85.4976	124.512	85.516	124.512	85.4598	124.512	85.4597	124.512	85.4003	124.512	85.3803	124.512	85.3194	124.512	85.2811	124.512	85.2211	124.512	85.1699	124.512	85.1142	124.512	85.0582	124.512	85.0108	124.512	84.9602	124.512	84.9254	124.512	84.8901	124.512	84.8717	124.512	84.859
128.906	85.5485	128.906	85.5585	128.906	85.5444	128.906	85.574	128.906	85.5462	128.906	85.5941	128.906	85.5536	128.906	85.6175	128.906	85.5656	128.906	85.6423	128.906	85.5804	128.906	85.6653	128.906	85.595	128.906	85.6825	128.906	85.6056	128.906	85.6894	128.906	85.6075	128.906	85.6808	128.906	85.5956	128.906	85.6526	128.906	85.5658	128.906	85.6017	128.906	85.5155	128.906	85.528	128.906	85.4447	128.906	85.435	128.906	85.3574	128.906	85.33	128.906	85.2614	128.906	85.2242	128.906	85.1683	128.906	85.1312	128.906	85.0915	128.906	85.0643	128.906	85.0437	128.906	85.0337
133.301	85.6449	133.301	85.6672	133.301	85.628	133.301	85.6945	133.301	85.6168	133.301	85.726	133.301	85.6116	133.301	85.7607	133.301	85.612	133.301	85.7964	133.301	85.617	133.301	85.8301	133.301	85.6242	133.301	85.8572	133.301	85.63	133.301	85.8726	133.301	85.6297	133.301	85.8704	133.301	85.6181	133.301	85.8455	133.301	85.5907	133.301	85.7944	133.301	85.5444	133.301	85.7165	133.301	85.4793	133.301	85.615	133.301	85.3991	133.301	85.4979	133.301	85.3118	133.301	85.3772	133.301	85.2292	133.301	85.2675	133.301	85.1647	133.301	85.1835	133.301	85.1308	133.301	85.1363
139.16	85.7292	139.16	85.7398	139.16	85.7226	139.16	85.7546	139.16	85.7202	139.16	85.774	139.16	85.7225	139.16	85.7982	139.16	85.7297	139.16	85.8268	139.16	85.7412	139.16	85.858	139.16	85.755	139.16	85.8886	139.16	85.7677	139.16	85.9139	139.16	85.7745	139.16	85.9282	139.16	85.7699	139.16	85.9254	139.16	85.7491	139.16	85.9006	139.16	85.709	139.16	85.8511	139.16	85.65	139.16	85.7775	139.16	85.5763	139.16	85.6853	139.16	85.4966	139.16	85.584	139.16	85.4229	139.16	85.4866	139.16	85.3683	139.16	85.407	139.16	85.3443	139.16	85.3573
143.555	85.8244	143.555	85.8218	143.555	85.8278	143.555	85.8204	143.555	85.8321	143.555	85.8212	143.555	85.8383	143.555	85.8252	143.555	85.8469	143.555	85.833	143.555	85.8583	143.555	85.8441	143.555	85.8711	143.555	85.8565	143.555	85.8825	143.555	85.8666	143.555	85.8882	143.555	85.87	143.555	85.883	143.555	85.8616	143.555	85.8619	143.555	85.8371	143.555	85.8218	143.555	85.794	143.555	85.7623	143.555	85.7329	143.555	85.6871	143.555	85.658	143.555	85.6039	143.555	85.5778	143.555	85.524	143.555	85.5032	143.555	85.4597	143.555	85.4464	143.555	85.422	143.555	85.4174
147.949	85.963	147.949	85.961	147.949	85.9619	147.949	85.9563	147.949	85.9584	147.949	85.9501	147.949	85.9542	147.949	85.944	147.949	85.951	147.949	85.9392	147.949	85.95	147.949	85.9357	147.949	85.9511	147.949	85.9323	147.949	85.952	147.949	85.9258	147.949	85.9489	147.949	85.9122	147.949	85.9366	147.949	85.8871	147.949	85.9101	147.949	85.8472	147.949	85.8657	147.949	85.7912	147.949	85.803	147.949	85.7212	147.949	85.7253	147.949	85.6426	147.949	85.6398	147.949	85.5642	147.949	85.5571	147.949	85.4962	147.949	85.4884	147.949	85.449	147.949	85.444	147.949	85.4304
153.809	86.0641	153.809	86.0633	153.809	86.0586	153.809	86.0574	153.809	86.0466	153.809	86.0492	153.809	86.0295	153.809	86.0412	153.809	86.0095	153.809	86.0356	153.809	85.9889	153.809	86.0331	153.809	85.969	153.809	86.0323	153.809	85.9495	153.809	86.03	153.809	85.9279	153.809	86.0213	153.809	85.9003	153.809	86.0008	153.809	85.8623	153.809	85.9639	153.809	85.8106	153.809	85.9082	153.809	85.7448	153.809	85.8345	153.809	85.6682	153.809	85.7474	153.809	85.5883	153.809	85.6549	153.809	85.5163	153.809	85.5674	153.809	85.4639	153.809	85.4964	153.809	85.4408	153.809	85.452
159.668	86.2112	159.668	86.1965	159.668	86.2167	159.668	86.1737	159.668	86.2133	159.668	86.1451	159.668	86.2032	159.668	86.1142	159.668	86.1889	159.668	86.084	159.668	86.1732	159.668	86.0568	159.668	86.158	159.668	86.0332	159.668	86.1432	159.668	86.0118	159.668	86.1267	159.668	85.9896	159.668	86.1048	159.668	85.9627	159.668	86.0728	159.668	85.9276	159.668	86.027	159.668	85.8824	159.668	85.9661	159.668	85.8277	159.668	85.8923	159.668	85.767	159.668	85.8118	159.668	85.7066	159.668	85.7338	159.668	85.6546	159.668	85.6685	159.668	85.6195	159.668	85.6249	159.668	85.6083
165.527	86.278	165.527	86.2572	165.527	86.2869	165.527	86.2257	165.527	86.2847	165.527	86.1865	165.527	86.2739	165.527	86.1436	165.527	86.258	165.527	86.1018	165.527	86.2404	165.527	86.0646	165.527	86.2237	165.527	86.0342	165.527	86.2083	165.527	86.01	165.527	86.1923	165.527	85.9895	165.527	86.1715	165.527	85.9685	165.527	86.1412	165.527	85.9428	165.527	86.0973	165.527	85.9096	165.527	86.0385	165.527	85.8686	165.527	85.9674	165.527	85.8222	165.527	85.8907	165.527	85.7755	165.527	85.8175	165.527	85.7351	165.527	85.7572	165.527	85.7083	165.527	85.7172	165.527	85.701
171.387	86.4424	171.387	86.4161	171.387	86.4504	171.387	86.3716	171.387	86.4418	171.387	86.3108	171.387	86.4198	171.387	86.2374	171.387	86.3885	171.387	86.156	171.387	86.3521	171.387	86.0718	171.387	86.3139	171.387	85.9893	171.387	86.2755	171.387	85.9121	171.387	86.2361	171.387	85.8416	171.387	86.1932	171.387	85.7778	171.387	86.1428	171.387	85.7198	171.387	86.0817	171.387	85.6667	171.387	86.0084	171.387	85.6189	171.387	85.9247	171.387	85.5786	171.387	85.8356	171.387	85.5492	171.387	85.7481	171.387	85.5346	171.387	85.6696	171.387	85.5381	171.387	85.6062	171.387	85.5619
177.246	86.48	177.246	86.4954	177.246	86.4447	177.246	86.4899	177.246	86.392	177.246	86.4639	177.246	86.3264	177.246	86.4193	177.246	86.2534	177.246	86.3584	177.246	86.1785	177.246	86.2838	177.246	86.1065	177.246	86.1976	177.246	86.0403	177.246	86.1016	177.246	85.9795	177.246	85.9969	177.246	85.9212	177.246	85.8846	177.246	85.8604	177.246	85.7669	177.246	85.7923	177.246	85.6474	177.246	85.714	177.246	85.5321	177.246	85.6263	177.246	85.4287	177.246	85.5339	177.246	85.3456	177.246	85.4444	177.246	85.2895	177.246	85.366	177.246	85.2645	177.246	85.3062	177.246	85.2709
183.105	86.347	183.105	86.368	183.105	86.3089	183.105	86.3725	183.105	86.2546	183.105	86.3625	183.105	86.1872	183.105	86.3402	183.105	86.1112	183.105	86.3079	183.105	86.032	183.105	86.2672	183.105	85.9545	183.105	86.2185	183.105	85.882	183.105	86.1617	183.105	85.8151	183.105	86.096	183.105	85.7515	183.105	86.0205	183.105	85.6873	183.105	85.9349	183.105	85.6188	183.105	85.8398	183.105	85.5448	183.105	85.7377	183.105	85.4685	183.105	85.6333	183.105	85.3972	183.105	85.5328	183.105	85.3403	183.105	85.4432	183.105	85.3061	183.105	85.3711	183.105	85.2996	183.105	85.3219
188.965	86.4473	188.965	86.4407	188.965	86.4295	188.965	86.4129	188.965	86.3863	188.965	86.3687	188.965	86.3197	188.965	86.3138	188.965	86.2341	188.965	86.253	188.965	86.1361	188.965	86.1899	188.965	86.0332	188.965	86.1256	188.965	85.932	188.965	86.0595	188.965	85.837	188.965	85.9898	188.965	85.7496	188.965	85.9149	188.965	85.6682	188.965	85.8343	188.965	85.5897	188.965	85.7492	188.965	85.5122	188.965	85.6622	188.965	85.4371	188.965	85.5762	188.965	85.3697	188.965	85.4945	188.965	85.318	188.965	85.4204	188.965	85.2894	188.965	85.3579	188.965	85.2876	188.965	85.3119
196.289	86.5069	196.289	86.4962	196.289	86.4875	196.289	86.4583	196.289	86.4379	196.289	86.3984	196.289	86.3605	196.289	86.3237	196.289	86.2594	196.289	86.2411	196.289	86.1399	196.289	86.1562	196.289	86.0077	196.289	86.0713	196.289	85.8683	196.289	85.9855	196.289	85.7262	196.289	85.8951	196.289	85.5849	196.289	85.7962	196.289	85.4466	196.289	85.6864	196.289	85.3131	196.289	85.5664	196.289	85.1871	196.289	85.44	196.289	85.0737	196.289	85.313	196.289	84.98	196.289	85.192	196.289	84.9142	196.289	85.083	196.289	84.8824	196.289	84.992	196.289	84.8866	196.289	84.9247
203.613	86.4219	203.613	86.3763	203.613	86.4327	203.613	86.2979	203.613	86.4099	203.613	86.1917	203.613	86.357	203.613	86.0665	203.613	86.2793	203.613	85.9333	203.613	86.1829	203.613	85.8042	203.613	86.0741	203.613	85.6888	203.613	85.9575	203.613	85.5916	203.613	85.8367	203.613	85.511	203.613	85.7133	203.613	85.44	203.613	85.5886	203.613	85.3709	203.613	85.4641	203.613	85.2987	203.613	85.3432	203.613	85.2239	203.613	85.2309	203.613	85.1515	203.613	85.1337	203.613	85.0878	203.613	85.0581	203.613	85.0372	203.613	85.0079	203.613	85.0017	203.613	84.9838	203.613	84.9831
210.938	86.4152	210.938	86.3794	210.938	86.4217	210.938	86.3132	210.938	86.4009	210.938	86.2167	210.938	86.3557	210.938	86.0912	210.938	86.2898	210.938	85.9403	210.938	86.2077	210.938	85.7705	210.938	86.113	210.938	85.5912	210.938	86.0087	210.938	85.4138	210.938	85.8958	210.938	85.2494	210.938	85.7742	210.938	85.1064	210.938	85.6434	210.938	84.9892	210.938	85.5041	210.938	84.8979	210.938	85.3598	210.938	84.8302	210.938	85.2171	210.938	84.783	210.938	85.0849	210.938	84.7542	210.938	84.9712	210.938	84.7426	210.938	84.881	210.938	84.7482	210.938	84.8151	210.938	84.7717
218.262	86.1887	218.262	86.1827	218.262	86.1609	218.262	86.1415	218.262	86.1036	218.262	86.0659	218.262	86.0232	218.262	85.9589	218.262	85.9282	218.262	85.826	218.262	85.8281	218.262	85.6746	218.262	85.7317	218.262	85.5143	218.262	85.6463	218.262	85.3563	218.262	85.5756	218.262	85.212	218.262	85.5193	218.262	85.0919	218.262	85.4735	218.262	85.004	218.262	85.4318	218.262	84.9521	218.262	85.3883	218.262	84.9346	218.262	85.3397	218.262	84.9453	218.262	85.2865	218.262	84.9745	218.262	85.2322	218.262	85.0126	218.262	85.181	218.262	85.053	218.262	85.1351	218.262	85.0933
225.586	86.3801	225.586	86.3985	225.586	86.3162	225.586	86.3742	225.586	86.2073	225.586	86.3118	225.586	86.0579	225.586	86.2174	225.586	85.8757	225.586	86.0968	225.586	85.6724	225.586	85.9556	225.586	85.462	225.586	85.799	225.586	85.2602	225.586	85.6323	225.586	85.0823	225.586	85.4628	225.586	84.9407	225.586	85.3015	225.586	84.8431	225.586	85.1629	225.586	84.7916	225.586	85.0621	225.586	84.7833	225.586	85.0085	225.586	84.8113	225.586	85.0003	225.586	84.8657	225.586	85.0237	225.586	84.9338	225.586	85.0577	225.586	85.0012	225.586	85.082	225.586	85.0542	225.586	85.0824
232.91	86.4753	232.91	86.4506	232.91	86.455	232.91	86.3851	232.91	86.3873	232.91	86.2848	232.91	86.2717	232.91	86.1563	232.91	86.1098	232.91	86.0058	232.91	85.9054	232.91	85.8382	232.91	85.6651	232.91	85.6572	232.91	85.3998	232.91	85.4659	232.91	85.1248	232.91	85.2687	232.91	84.8591	232.91	85.0741	232.91	84.6232	232.91	84.8956	232.91	84.4358	232.91	84.7501	232.91	84.3115	232.91	84.6521	232.91	84.2582	232.91	84.6062	232.91	84.2735	232.91	84.6017	232.91	84.3424	232.91	84.6157	232.91	84.4383	232.91	84.6204	232.91	84.5305	232.91	84.5945
241.699	86.18	241.699	86.1368	241.699	86.1788	241.699	86.0512	241.699	86.1359	241.699	85.9298	241.699	86.058	241.699	85.7823	241.699	85.9529	241.699	85.6198	241.699	85.8267	241.699	85.4521	241.699	85.6815	241.699	85.2855	241.699	85.5143	241.699	85.1208	241.699	85.3205	241.699	84.9537	241.699	85.0977	241.699	84.779	241.699	84.8506	241.699	84.5967	241.699	84.5932	241.699	84.416	241.699	84.3476	241.699	84.2536	241.699	84.1398	241.699	84.1257	241.699	83.9908	241.699	84.039	241.699	83.9085	241.699	83.9863	241.699	83.8838	241.699	83.9521	241.699	83.8958	241.699	83.9226
250.488	86.468	250.488	86.446	250.488	86.4259	250.488	86.3614	250.488	86.3228	250.488	86.2199	250.488	86.1661	250.488	86.031	250.488	85.9668	250.488	85.8078	250.488	85.7388	250.488	85.5658	250.488	85.498	250.488	85.3215	250.488	85.2595	250.488	85.0899	250.488	85.0357	250.488	84.8802	250.488	84.8332	250.488	84.6938	250.488	84.6525	250.488	84.5266	250.488	84.4907	250.488	84.374	250.488	84.3453	250.488	84.2361	250.488	84.2173	250.488	84.1189	250.488	84.1115	250.488	84.0304	250.488	84.0325	250.488	83.9743	250.488	83.9808	250.488	83.9469	250.488	83.9521	250.488	83.9412
259.277	86.3987	259.277	86.3833	259.277	86.3544	259.277	86.3091	259.277	86.2528	259.277	86.1804	259.277	86.0996	259.277	86.0036	259.277	85.9029	259.277	85.7866	259.277	85.6725	259.277	85.5372	259.277	85.4188	259.277	85.2644	259.277	85.1527	259.277	84.9797	259.277	84.8856	259.277	84.6996	259.277	84.629	259.277	84.4465	259.277	84.3944	259.277	84.2445	259.277	84.1937	259.277	84.1111	259.277	84.0381	259.277	84.0479	259.277	83.9379	259.277	84.0389	259.277	83.8975	259.277	84.0577	259.277	83.9105	259.277	84.0786	259.277	83.9584	259.277	84.083	259.277	84.0162	259.277	84.0619
268.066	86.242	268.066	86.1813	268.066	86.2439	268.066	86.066	268.066	86.1836	268.066	85.9017	268.066	86.0594	268.066	85.6953	268.066	85.8728	268.066	85.455	268.066	85.6301	268.066	85.1894	268.066	85.3439	268.066	84.9058	268.066	85.0335	268.066	84.6103	268.066	84.7228	268.066	84.3108	268.066	84.4358	268.066	84.0227	268.066	84.189	268.066	83.7729	268.066	83.9873	268.066	83.5937	268.066	83.8253	268.066	83.5053	268.066	83.6972	268.066	83.4993	268.066	83.6053	268.066	83.5414	268.066	83.5574	268.066	83.59	268.066	83.5542	268.066	83.6155	268.066	83.5803	268.066	83.6088
276.855	86.2202	276.855	86.243	276.855	86.1432	276.855	86.2009	276.855	86.0268	276.855	86.0898	276.855	85.8855	276.855	85.913	276.855	85.727	276.855	85.6795	276.855	85.5483	276.855	85.4027	276.855	85.3354	276.855	85.0988	276.855	85.0699	276.855	84.784	276.855	84.7403	276.855	84.4709	276.855	84.3557	276.855	84.1666	276.855	83.9538	276.855	83.878	276.855	83.5956	276.855	83.6223	276.855	83.341	276.855	83.4298	276.855	83.2165	276.855	83.327	276.855	83.2021	276.855	83.3108	276.855	83.2504	276.855	83.3445	276.855	83.3161	276.855	83.382	276.855	83.3691	276.855	83.3931
287.109	85.9366	287.109	85.9345	287.109	85.889	287.109	85.8907	287.109	85.7853	287.109	85.8093	287.109	85.6257	287.109	85.6874	287.109	85.4195	287.109	85.517	287.109	85.1839	287.109	85.2907	287.109	84.9396	287.109	85.0094	287.109	84.7047	287.109	84.6889	287.109	84.4892	287.109	84.3622	287.109	84.2923	287.109	84.0711	287.109	84.1075	287.109	83.8505	287.109	83.9317	287.109	83.7143	287.109	83.7732	287.109	83.6568	287.109	83.6531	287.109	83.6641	287.109	83.5967	287.109	83.7179	287.109	83.616	287.109	83.7907	287.109	83.6941	287.109	83.8445	287.109	83.787	287.109	83.846
297.363	86.4519	297.363	86.449	297.363	86.3809	297.363	86.3853	297.363	86.2251	297.363	86.274	297.363	85.9793	297.363	86.1265	297.363	85.6463	297.363	85.9494	297.363	85.2393	297.363	85.74	297.363	84.7821	297.363	85.4841	297.363	84.3057	297.363	85.1598	297.363	83.8409	297.363	84.7519	297.363	83.4094	297.363	84.2747	297.363	83.0255	297.363	83.7899	297.363	82.7129	297.363	83.4017	297.363	82.5178	297.363	83.2055	297.363	82.4902	297.363	83.2174	297.363	82.6374	297.363	83.3594	297.363	82.9025	297.363	83.5187	297.363	83.1959	297.363	83.608	297.363	83.4395	297.363	83.5838
307.617	85.9936	307.617	85.8984	307.617	86.0262	307.617	85.7345	307.617	86.0068	307.617	85.5049	307.617	85.9444	307.617	85.2226	307.617	85.8407	307.617	84.9108	307.617	85.6877	307.617	84.6002	307.617	85.4717	307.617	84.3227	307.617	85.1812	307.617	84.0993	307.617	84.8168	307.617	83.9267	307.617	84.397	307.617	83.7749	307.617	83.9543	307.617	83.6048	307.617	83.5253	307.617	83.3977	307.617	83.145	307.617	83.1754	307.617	82.8523	307.617	82.9943	307.617	82.6906	307.617	82.9072	307.617	82.6797	307.617	82.9161	307.617	82.7807	307.617	82.9639	307.617	82.9055	307.617	82.9743
319.336	86.1812	319.336	86.0721	319.336	86.2005	319.336	85.8842	319.336	86.1235	319.336	85.6289	319.336	85.9511	319.336	85.3153	319.336	85.6944	319.336	84.948	319.336	85.373	319.336	84.5262	319.336	85.0108	319.336	84.0454	319.336	84.6305	319.336	83.5079	319.336	84.2524	319.336	82.9429	319.336	83.8969	319.336	82.4284	319.336	83.5859	319.336	82.0806	319.336	83.3378	319.336	81.9825	319.336	83.1604	319.336	82.1102	319.336	83.0498	319.336	82.3542	319.336	82.9974	319.336	82.6077	319.336	82.9923	319.336	82.8129	319.336	83.0157	319.336	82.9517	319.336	83.0371	319.336	83.0234
329.59	85.7211	329.59	85.7017	329.59	85.6818	329.59	85.6231	329.59	85.587	329.59	85.4889	329.59	85.4413	329.59	85.3062	329.59	85.2499	329.59	85.0824	329.59	85.019	329.59	84.8211	329.59	84.7534	329.59	84.5178	329.59	84.4515	329.59	84.1586	329.59	84.1036	329.59	83.7287	329.59	83.7005	329.59	83.2345	329.59	83.2513	329.59	82.7336	329.59	82.7999	329.59	82.3434	329.59	82.4234	329.59	82.1842	329.59	82.2002	329.59	82.2729	329.59	82.1634	329.59	82.4981	329.59	82.281	329.59	82.7139	329.59	82.4788	329.59	82.8262	329.59	82.6765	329.59	82.8076
341.309	85.791	341.309	85.8042	341.309	85.6813	341.309	85.7244	341.309	85.4784	341.309	85.562	341.309	85.1899	341.309	85.3324	341.309	84.8256	341.309	85.0511	341.309	84.3962	341.309	84.7281	341.309	83.9186	341.309	84.363	341.309	83.4226	341.309	83.9425	341.309	82.9558	341.309	83.4446	341.309	82.5737	341.309	82.8538	341.309	82.3166	341.309	82.1918	341.309	82.1907	341.309	81.556	341.309	82.1721	341.309	81.1216	341.309	82.2255	341.309	81.0422	341.309	82.3161	341.309	81.301	341.309	82.4109	341.309	81.7175	341.309	82.476	341.309	82.1031	341.309	82.4729	341.309	82.3593
353.027	85.6167	353.027	85.6181	353.027	85.5529	353.027	85.5524	353.027	85.43	353.027	85.4154	353.027	85.2499	353.027	85.2084	353.027	85.0148	353.027	84.9421	353.027	84.7265	353.027	84.638	353.027	84.3794	353.027	84.319	353.027	83.9527	353.027	83.9922	353.027	83.412	353.027	83.6373	353.027	82.7323	353.027	83.2212	353.027	81.9393	353.027	82.7374	353.027	81.1559	353.027	82.2418	353.027	80.6046	353.027	81.8522	353.027	80.4827	353.027	81.6816	353.027	80.7762	353.027	81.7439	353.027	81.2738	353.027	81.9388	353.027	81.751	353.027	82.1261	353.027	82.0731	353.027	82.1929
366.211	85.9633	366.211	85.8972	366.211	85.9421	366.211	85.737	366.211	85.849	366.211	85.4827	366.211	85.7031	366.211	85.1382	366.211	85.5157	366.211	84.7092	366.211	85.2824	366.211	84.2056	366.211	84.9875	366.211	83.6464	366.211	84.6181	366.211	83.065	366.211	84.1734	366.211	82.5098	366.211	83.6578	366.211	82.0313	366.211	83.0692	366.211	81.6632	366.211	82.4081	366.211	81.4164	366.211	81.7204	366.211	81.2914	366.211	81.1394	366.211	81.2876	366.211	80.8447	366.211	81.3881	366.211	80.903	366.211	81.5381	366.211	81.1819	366.211	81.6511	366.211	81.475	366.211	81.6437
379.395	86.0062	379.395	85.9602	379.395	85.9985	379.395	85.8697	379.395	85.9193	379.395	85.7284	379.395	85.7556	379.395	85.517	379.395	85.5122	379.395	85.2135	379.395	85.213	379.395	84.8037	379.395	84.8864	379.395	84.2861	379.395	84.54	379.395	83.6686	379.395	84.1521	379.395	82.9637	379.395	83.6922	379.395	82.2021	379.395	83.1572	379.395	81.4713	379.395	82.5925	379.395	80.9455	379.395	82.0823	379.395	80.8051	379.395	81.714	379.395	81.0505	379.395	81.5441	379.395	81.4764	379.395	81.5749	379.395	81.8576	379.395	81.7472	379.395	82.0713	379.395	81.9561	379.395	82.0916
392.578	85.7008	392.578	85.6442	392.578	85.6819	392.578	85.5411	392.578	85.5729	392.578	85.4187	392.578	85.375	392.578	85.2813	392.578	85.1015	392.578	85.1034	392.578	84.7727	392.578	84.8481	392.578	84.4135	392.578	84.4955	392.578	84.045	392.578	84.0511	392.578	83.672	392.578	83.5263	392.578	83.2738	392.578	82.9103	392.578	82.8214	392.578	82.1852	392.578	82.3223	392.578	81.41	392.578	81.8682	392.578	80.8148	392.578	81.6247	392.578	80.7048	392.578	81.7065	392.578	81.1134	392.578	82.0389	392.578	81.7417	392.578	82.4103	392.578	82.287	392.578	82.6303	392.578	82.5976
405.762	86.0065	405.762	85.9185	405.762	85.9467	405.762	85.6887	405.762	85.7596	405.762	85.3598	405.762	85.4739	405.762	85.006	405.762	85.1079	405.762	84.6972	405.762	84.6584	405.762	84.444	405.762	84.1114	405.762	84.1777	405.762	83.4714	405.762	83.7974	405.762	82.7919	405.762	83.2406	405.762	82.1712	405.762	82.5185	405.762	81.6964	405.762	81.7022	405.762	81.3836	405.762	80.8834	405.762	81.1967	405.762	80.176	405.762	81.1179	405.762	79.7589	405.762	81.1585	405.762	79.8009	405.762	81.2948	405.762	80.2421	405.762	81.4316	405.762	80.8053	405.762	81.4444	405.762	81.241
420.41	85.4786	420.41	85.4678	420.41	85.4265	420.41	85.3938	420.41	85.3095	420.41	85.2535	420.41	85.1291	420.41	85.0452	420.41	84.8933	420.41	84.7794	420.41	84.6136	420.41	84.4826	420.41	84.2877	420.41	84.1785	420.41	83.8786	420.41	83.8494	420.41	83.3095	420.41	83.4256	420.41	82.4917	420.41	82.836	420.41	81.3825	420.41	82.0945	420.41	80.0778	420.41	81.3637	420.41	78.9146	420.41	80.9092	420.41	78.3876	420.41	80.8816	420.41	78.6807	420.41	81.1624	420.41	79.4763	420.41	81.496	420.41	80.3696	420.41	81.6672	420.41	81.1044	420.41	81.5503
435.059	85.5666	435.059	85.4407	435.059	85.6031	435.059	85.2456	435.059	85.5425	435.059	85.0054	435.059	85.3923	435.059	84.7331	435.059	85.1731	435.059	84.4193	435.059	84.9057	435.059	84.043	435.059	84.5873	435.059	83.5971	435.059	84.1783	435.059	83.0962	435.059	83.6215	435.059	82.5485	435.059	82.88	435.059	81.9314	435.059	81.9679	435.059	81.2304	435.059	80.9734	435.059	80.5399	435.059	80.0948	435.059	80.1154	435.059	79.6402	435.059	80.1908	435.059	79.8206	435.059	80.6843	435.059	80.4737	435.059	81.2874	435.059	81.2094	435.059	81.7428	435.059	81.7302	435.059	81.911
451.172	86.1872	451.172	85.9611	451.172	86.2892	451.172	85.623	451.172	86.2557	451.172	85.1899	451.172	86.085	451.172	84.7059	451.172	85.7954	451.172	84.2588	451.172	85.4282	451.172	83.9469	451.172	85.0388	451.172	83.7913	451.172	84.6638	451.172	83.6837	451.172	84.2734	451.172	83.445	451.172	83.7526	451.172	82.9229	451.172	82.9482	451.172	82.0456	451.172	81.7642	451.172	80.8763	451.172	80.3048	451.172	79.7567	451.172	79.0482	451.172	79.3251	451.172	78.6439	451.172	79.7778	451.172	79.0959	451.172	80.4998	451.172	79.8542	451.172	80.9363	451.172	80.5272	451.172	80.9283
465.82	86.0764	465.82	85.9931	465.82	86.0698	465.82	85.8133	465.82	85.9882	465.82	85.539	465.82	85.8449	465.82	85.1706	465.82	85.6416	465.82	84.7048	465.82	85.3668	465.82	84.1503	465.82	85.0063	465.82	83.5448	465.82	84.5606	465.82	82.941	465.82	84.0517	465.82	82.3615	465.82	83.4936	465.82	81.7776	465.82	82.8381	465.82	81.1477	465.82	81.9708	465.82	80.4849	465.82	80.82	465.82	79.9111	465.82	79.5894	465.82	79.6393	465.82	78.9346	465.82	79.8046	465.82	79.2994	465.82	80.2793	465.82	80.1399	465.82	80.7606	465.82	80.7813	465.82	80.9805
483.398	85.7336	483.398	85.5933	483.398	85.7035	483.398	85.3091	483.398	85.5305	483.398	84.9616	483.398	85.2746	483.398	84.6509	483.398	84.9957	483.398	84.4355	483.398	84.7286	483.398	84.2971	483.398	84.4776	483.398	84.1661	483.398	84.2241	483.398	83.953	483.398	83.9151	483.398	83.5448	483.398	83.4455	483.398	82.797	483.398	82.6713	483.398	81.564	483.398	81.4726	483.398	79.8003	483.398	79.8871	483.398	77.8586	483.398	78.3836	483.398	76.8684	483.398	77.8877	483.398	77.4808	483.398	78.541	483.398	78.6739	483.398	79.4504	483.398	79.6126	483.398	80.0152	483.398	80.0732
499.512	86.2753	499.512	86.0977	499.512	86.2795	499.512	85.7416	499.512	86.1092	499.512	85.2046	499.512	85.7855	499.512	84.522	499.512	85.387	499.512	83.7923	499.512	85.0289	499.512	83.1708	499.512	84.7734	499.512	82.8146	499.512	84.57	499.512	82.776	499.512	84.314	499.512	82.9186	499.512	83.9223	499.512	82.9738	499.512	83.3221	499.512	82.6778	499.512	82.3919	499.512	81.8651	499.512	80.9579	499.512	80.5495	499.512	78.9256	499.512	79.122	499.512	76.765	499.512	78.4225	499.512	76.1442	499.512	78.7475	499.512	77.4098	499.512	79.3152	499.512	78.7705	499.512	79.4176
517.09	86.6971	517.09	86.5863	517.09	86.5846	517.09	86.2482	517.09	86.2641	517.09	85.6951	517.09	85.7609	517.09	84.966	517.09	85.1194	517.09	84.138	517.09	84.4384	517.09	83.318	517.09	83.9015	517.09	82.6017	517.09	83.6904	517.09	82.051	517.09	83.7809	517.09	81.7169	517.09	83.9254	517.09	81.5943	517.09	83.8578	517.09	81.516	517.09	83.4168	517.09	81.2108	517.09	82.5388	517.09	80.5076	517.09	81.2313	517.09	79.5301	517.09	79.6254	517.09	78.8416	517.09	78.2181	517.09	78.9536	517.09	77.8968	517.09	79.3819	517.09	78.6327	517.09	79.3347
536.133	86.9384	536.133	86.8762	536.133	86.8288	536.133	86.6175	536.133	86.5656	536.133	86.1505	536.133	86.1497	536.133	85.4941	536.133	85.5596	536.133	84.6997	536.133	84.7601	536.133	83.8448	536.133	83.7414	536.133	83.034	536.133	82.5954	536.133	82.3575	536.133	81.5603	536.133	81.7672	536.133	80.8754	536.133	81.0708	536.133	80.5226	536.133	80.1923	536.133	80.2941	536.133	79.4204	536.133	80.0691	536.133	79.1385	536.133	79.8754	536.133	79.2157	536.133	79.7807	536.133	79.3062	536.133	79.7865	536.133	79.361	536.133	79.8057	536.133	79.4638	536.133	79.7495	536.133	79.6146
555.176	86.7991	555.176	86.8631	555.176	86.6356	555.176	86.7977	555.176	86.382	555.176	86.5559	555.176	86.0246	555.176	86.0801	555.176	85.5496	555.176	85.323	555.176	84.9846	555.176	84.2718	555.176	84.4027	555.176	82.9796	555.176	83.8633	555.176	81.6261	555.176	83.3554	555.176	80.5326	555.176	82.8062	555.176	79.8855	555.176	82.1148	555.176	79.4605	555.176	81.1799	555.176	78.9561	555.176	79.9506	555.176	78.3291	555.176	78.5123	555.176	77.7086	555.176	77.18	555.176	77.2579	555.176	76.451	555.176	77.1341	555.176	76.5284	555.176	77.2671	555.176	76.9893	555.176	77.2961
574.219	86.8772	574.219	86.7494	574.219	86.8064	574.219	86.4703	574.219	86.5362	574.219	86.1144	574.219	86.1132	574.219	85.7443	574.219	85.6128	574.219	85.3775	574.219	85.0815	574.219	84.9857	574.219	84.4826	574.219	84.4917	574.219	83.7391	574.219	83.7591	574.219	82.8802	574.219	82.6517	574.219	82.1181	574.219	81.1614	574.219	81.6095	574.219	79.4788	574.219	81.1727	574.219	77.9245	574.219	80.5351	574.219	76.986	574.219	79.6913	574.219	77.1435	574.219	78.9519	574.219	77.9981	574.219	78.7235	574.219	78.862	574.219	79.0704	574.219	79.4842	574.219	79.5669	574.219	79.751
594.727	85.8258	594.727	85.7896	594.727	85.8148	594.727	85.6738	594.727	85.7301	594.727	85.4316	594.727	85.5043	594.727	85.0433	594.727	85.0984	594.727	84.5138	594.727	84.5599	594.727	83.8731	594.727	84.0028	594.727	83.2204	594.727	83.5038	594.727	82.6931	594.727	83.0203	594.727	82.2836	594.727	82.4271	594.727	81.7737	594.727	81.6058	594.727	80.9642	594.727	80.4927	594.727	79.948	594.727	79.1462	594.727	79.2377	594.727	77.9749	594.727	79.3943	594.727	77.7337	594.727	80.2164	594.727	78.4731	594.727	80.9859	594.727	79.4705	594.727	81.25	594.727	80.3315	594.727	80.9714
615.234	85.9163	615.234	85.8115	615.234	85.8804	615.234	85.6161	615.234	85.6546	615.234	85.3108	615.234	85.2543	615.234	84.8595	615.234	84.7403	615.234	84.3091	615.234	84.1799	615.234	83.7629	615.234	83.6261	615.234	83.2504	615.234	83.0673	615.234	82.6674	615.234	82.395	615.234	81.8462	615.234	81.5154	615.234	80.7005	615.234	80.4802	615.234	79.3652	615.234	79.4572	615.234	78.1021	615.234	78.6079	615.234	76.9654	615.234	78.0936	615.234	76.134	615.234	78.1957	615.234	76.3255	615.234	78.9377	615.234	77.4549	615.234	79.7148	615.234	78.6751	615.234	79.9609	615.234	79.5679
637.207	86.2746	637.207	86.1223	637.207	86.1656	637.207	85.7547	637.207	85.8138	637.207	85.2841	637.207	85.268	637.207	84.8033	637.207	84.5928	637.207	84.3269	637.207	83.8707	637.207	83.8761	637.207	83.2229	637.207	83.5028	637.207	82.7939	637.207	83.1627	637.207	82.5998	637.207	82.6925	637.207	82.4161	637.207	81.8899	637.207	81.9228	637.207	80.5188	637.207	80.891	637.207	78.434	637.207	79.2591	637.207	76.1794	637.207	77.292	637.207	75.682	637.207	76.064	637.207	77.4081	637.207	76.7551	637.207	79.4221	637.207	78.4521	637.207	80.6258	637.207	79.9402	637.207	80.755
659.18	85.7959	659.18	85.8488	659.18	85.5963	659.18	85.654	659.18	85.3121	659.18	85.1612	659.18	84.9238	659.18	84.4404	659.18	84.3874	659.18	83.6596	659.18	83.731	659.18	82.9322	659.18	83.0411	659.18	82.2136	659.18	82.3972	659.18	81.4452	659.18	81.9016	659.18	80.7103	659.18	81.5286	659.18	80.0301	659.18	80.9348	659.18	79.1409	659.18	79.749	659.18	77.8241	659.18	77.9108	659.18	76.5309	659.18	75.918	659.18	76.6889	659.18	75.1246	659.18	78.1621	659.18	76.1735	659.18	79.2529	659.18	77.6237	659.18	79.4565	659.18	78.5854	659.18	79.1364
682.617	86.3195	682.617	86.2527	682.617	86.224	682.617	86.0352	682.617	85.9571	682.617	85.6529	682.617	85.5154	682.617	85.0681	682.617	84.8768	682.617	84.2937	682.617	84.0433	682.617	83.5359	682.617	83.174	682.617	83.1015	682.617	82.5131	682.617	82.8773	682.617	82.0142	682.617	82.4102	682.617	81.4517	682.617	81.5104	682.617	80.8955	682.617	80.2232	682.617	80.4181	682.617	78.5834	682.617	79.5594	682.617	77.0504	682.617	77.9475	682.617	76.5233	682.617	76.5934	682.617	77.0384	682.617	77.4105	682.617	78.2796	682.617	79.1875	682.617	79.6233	682.617	80.2883	682.617	80.3942
707.52	86.8549	707.52	86.6065	707.52	86.9471	707.52	86.227	707.52	86.7698	707.52	85.6827	707.52	86.2179	707.52	84.9562	707.52	85.3566	707.52	84.0829	707.52	84.4251	707.52	83.1439	707.52	83.5824	707.52	82.3065	707.52	82.7704	707.52	81.7776	707.52	82.0608	707.52	81.5267	707.52	81.7473	707.52	81.2052	707.52	81.438	707.52	80.3191	707.52	80.2109	707.52	78.4222	707.52	77.6212	707.52	75.3053	707.52	74.1165	707.52	72.5409	707.52	72.5074	707.52	75.2511	707.52	74.7929	707.52	78.9657	707.52	77.8902	707.52	80.9409	707.52	80.2047	707.52	81.2833
732.422	86.559	732.422	86.4584	732.422	86.4398	732.422	86.1577	732.422	86.0893	732.422	85.6445	732.422	85.4872	732.422	84.8907	732.422	84.6151	732.422	84.0041	732.422	83.5611	732.422	83.219	732.422	82.5995	732.422	82.6912	732.422	82.0629	732.422	82.4736	732.422	82.0615	732.422	82.361	732.422	82.2123	732.422	81.9278	732.422	81.944	732.422	80.9394	732.422	81.0805	732.422	79.1926	732.422	79.6133	732.422	76.3842	732.422	77.0013	732.422	73.2192	732.422	72.9184	732.422	74.0129	732.422	72.9309	732.422	77.0342	732.422	76.4054	732.422	78.7027	732.422	78.3691	732.422	79.0461
757.324	86.5666	757.324	86.5582	757.324	86.4258	757.324	86.2512	757.324	86.2255	757.324	85.6098	757.324	85.9067	757.324	84.6963	757.324	85.3365	757.324	83.5744	757.324	84.3838	757.324	82.3863	757.324	83.1085	757.324	81.3342	757.324	81.928	757.324	80.6242	757.324	81.1172	757.324	80.412	757.324	80.6207	757.324	80.3585	757.324	80.4718	757.324	79.9186	757.324	80.1228	757.324	78.4641	757.324	78.8323	757.324	75.3537	757.324	76.4724	757.324	73.4781	757.324	73.5062	757.324	75.4705	757.324	73.3671	757.324	77.0737	757.324	76.2569	757.324	78.1303	757.324	78.0962	757.324	78.5924
785.156	86.2643	785.156	86.1036	785.156	86.2918	785.156	85.8086	785.156	86.1257	785.156	85.262	785.156	85.6716	785.156	84.3803	785.156	84.8986	785.156	83.3152	785.156	84.0031	785.156	82.3015	785.156	83.0935	785.156	81.4725	785.156	81.9898	785.156	81.0743	785.156	81.18	785.156	81.2265	785.156	81.297	785.156	81.4839	785.156	81.4103	785.156	81.0477	785.156	80.9259	785.156	79.2798	785.156	79.8279	785.156	76.261	785.156	77.617	785.156	73.1475	785.156	73.5031	785.156	73.0656	785.156	70.3911	785.156	75.8039	785.156	73.2819	785.156	77.4961	785.156	76.0464	785.156	77.5293
811.523	86.8652	811.523	86.5189	811.523	86.9952	811.523	86.1052	811.523	86.7411	811.523	85.6587	811.523	86.0529	811.523	85.0699	811.523	85.031	811.523	84.1055	811.523	83.7719	811.523	82.5228	811.523	82.3873	811.523	80.5185	811.523	81.2077	811.523	79.6486	811.523	80.4046	811.523	80.5043	811.523	80.1162	811.523	81.0103	811.523	80.4636	811.523	80.4841	811.523	80.6057	811.523	79.1595	811.523	79.6374	811.523	76.7534	811.523	76.9277	811.523	73.7399	811.523	73.2052	811.523	74.2071	811.523	72.9275	811.523	77.1215	811.523	76.1189	811.523	79.5493	811.523	79.1638	811.523	80.3947
840.82	86.8436	840.82	86.8445	840.82	86.7134	840.82	86.5946	840.82	86.5001	840.82	85.9212	840.82	86.1201	840.82	84.8407	840.82	85.4	840.82	83.6361	840.82	84.3073	840.82	82.2989	840.82	82.9471	840.82	80.6586	840.82	81.3407	840.82	79.0679	840.82	79.8322	840.82	78.2317	840.82	79.3599	840.82	78.5083	840.82	79.6519	840.82	78.5159	840.82	79.7047	840.82	77.4695	840.82	79.1897	840.82	75.8068	840.82	77.5834	840.82	73.5233	840.82	74.139	840.82	72.5272	840.82	71.7455	840.82	75.3506	840.82	73.5104	840.82	77.7308	840.82	76.2693	840.82	78.0538
870.117	86.889	870.117	86.9084	870.117	86.5905	870.117	86.5684	870.117	86.1703	870.117	85.9599	870.117	85.7643	870.117	85.3248	870.117	85.1824	870.117	84.5942	870.117	84.101	870.117	83.298	870.117	82.6842	870.117	81.2954	870.117	81.3913	870.117	79.7058	870.117	80.1022	870.117	79.268	870.117	79.169	870.117	78.9711	870.117	79.8386	870.117	78.9416	870.117	80.8574	870.117	78.3978	870.117	80.6293	870.117	75.4459	870.117	78.557	870.117	68.9563	870.117	74.8477	870.117	59.4744	870.117	72.8058	870.117	70.8268	870.117	73.8054	870.117	74.8766	870.117	74.9334	870.117	75.6263
900.879	86.5349	900.879	86.4945	900.879	86.4152	900.879	86.3338	900.879	86.1236	900.879	85.9715	900.879	85.6855	900.879	85.2864	900.879	85.0651	900.879	84.3734	900.879	84.2333	900.879	83.246	900.879	83.2064	900.879	81.4935	900.879	81.8342	900.879	78.8232	900.879	79.7513	900.879	76.2653	900.879	77.8038	900.879	76.5671	900.879	78.0859	900.879	77.8472	900.879	78.9416	900.879	77.9267	900.879	78.7303	900.879	76.6363	900.879	77.361	900.879	73.9048	900.879	74.0127	900.879	72.0831	900.879	71.0746	900.879	74.7308	900.879	75.3943	900.879	76.6558	900.879	77.4098	900.879	77.4679
933.105	86.0446	933.105	85.9791	933.105	85.8952	933.105	85.7242	933.105	85.6722	933.105	85.259	933.105	85.4397	933.105	84.5711	933.105	84.9875	933.105	83.9829	933.105	84.2238	933.105	83.2808	933.105	83.1393	933.105	81.8378	933.105	81.4576	933.105	80.495	933.105	79.7711	933.105	80.0308	933.105	78.9681	933.105	79.7951	933.105	79.2057	933.105	79.5394	933.105	80.2505	933.105	78.9917	933.105	80.1169	933.105	77.3725	933.105	77.5954	933.105	72.4407	933.105	72.2994	933.105	68.6483	933.105	67.612	933.105	73.6769	933.105	71.6171	933.105	77.3329	933.105	76.9814	933.105	78.8185
965.332	86.5994	965.332	86.581	965.332	86.4543	965.332	86.2205	965.332	86.2376	965.332	85.466	965.332	85.7335	965.332	84.402	965.332	84.8171	965.332	83.2429	965.332	83.7767	965.332	82.0718	965.332	82.7196	965.332	80.2634	965.332	81.2437	965.332	77.1667	965.332	79.0611	965.332	74.2635	965.332	76.5869	965.332	75.5895	965.332	75.5778	965.332	77.3277	965.332	76.6168	965.332	77.6668	965.332	77.2534	965.332	77.5006	965.332	77.0146	965.332	76.5306	965.332	74.8173	965.332	74.1925	965.332	72.4495	965.332	75.2369	965.332	74.4868	965.332	77.2083	965.332	76.1657	965.332	77.2837
1,000.49	86.6763	1,000.49	86.4406	1,000.49	86.5889	1,000.49	86.0128	1,000.49	86.1025	1,000.49	85.4825	1,000.49	85.4486	1,000.49	84.8197	1,000.49	84.8539	1,000.49	84.0476	1,000.49	83.9794	1,000.49	83.2407	1,000.49	82.7301	1,000.49	82.1973	1,000.49	81.3996	1,000.49	80.4885	1,000.49	79.5526	1,000.49	79.8786	1,000.49	77.8494	1,000.49	80.6119	1,000.49	77.9813	1,000.49	80.1703	1,000.49	78.6163	1,000.49	79.2687	1,000.49	78.2415	1,000.49	77.3436	1,000.49	75.8664	1,000.49	72.2768	1,000.49	70.9083	1,000.49	63.2146	1,000.49	64.4693	1,000.49	72.5033	1,000.49	70.4549	1,000.49	76.3159	1,000.49	75.3425	1,000.49	76.9703
1,035.64	87.0294	1,035.64	86.7928	1,035.64	86.8369	1,035.64	86.4902	1,035.64	86.1638	1,035.64	86.1014	1,035.64	85.2504	1,035.64	85.3126	1,035.64	84.2435	1,035.64	84.2297	1,035.64	83.215	1,035.64	83.3154	1,035.64	81.9642	1,035.64	81.7738	1,035.64	80.4702	1,035.64	79.0774	1,035.64	78.5397	1,035.64	75.8094	1,035.64	75.7633	1,035.64	73.0868	1,035.64	74.9831	1,035.64	75.5796	1,035.64	76.7188	1,035.64	77.1131	1,035.64	76.8772	1,035.64	75.6924	1,035.64	76.3876	1,035.64	72.6722	1,035.64	75.1109	1,035.64	70.2414	1,035.64	72.2525	1,035.64	73.6024	1,035.64	73.8763	1,035.64	77.0505	1,035.64	76.0403	1,035.64	77.424
1,072.27	86.369	1,072.27	86.4163	1,072.27	85.9227	1,072.27	86.0574	1,072.27	85.3491	1,072.27	85.4385	1,072.27	84.8223	1,072.27	84.5334	1,072.27	84.3167	1,072.27	83.5362	1,072.27	83.5617	1,072.27	82.4196	1,072.27	82.4364	1,072.27	80.9421	1,072.27	80.8816	1,072.27	78.1599	1,072.27	78.8997	1,072.27	74.2869	1,072.27	76.6938	1,072.27	76.1714	1,072.27	74.6184	1,072.27	77.6003	1,072.27	75.2583	1,072.27	77.328	1,072.27	76.5094	1,072.27	76.7822	1,072.27	74.7234	1,072.27	72.5914	1,072.27	67.9489	1,072.27	68.1662	1,072.27	65.0593	1,072.27	74.4699	1,072.27	72.3063	1,072.27	77.1543	1,072.27	77.3629	1,072.27	78.5237
1,108.89	85.9763	1,108.89	86.0741	1,108.89	85.7541	1,108.89	85.8066	1,108.89	85.1023	1,108.89	85.2676	1,108.89	84.0312	1,108.89	84.7175	1,108.89	82.9758	1,108.89	83.4396	1,108.89	82.0349	1,108.89	81.4982	1,108.89	80.83	1,108.89	79.6165	1,108.89	79.5952	1,108.89	77.351	1,108.89	77.8157	1,108.89	74.4111	1,108.89	75.4759	1,108.89	73.4514	1,108.89	73.0915	1,108.89	75.54	1,108.89	72.8466	1,108.89	77.2969	1,108.89	73.5009	1,108.89	76.927	1,108.89	73.6425	1,108.89	74.0019	1,108.89	71.5431	1,108.89	66.0872	1,108.89	63.0399	1,108.89	71.8376	1,108.89	70.715	1,108.89	76.8863	1,108.89	74.6451	1,108.89	77.4985
1,148.44	86.3164	1,148.44	86.2232	1,148.44	85.8485	1,148.44	85.7476	1,148.44	84.947	1,148.44	84.8568	1,148.44	84.1284	1,148.44	83.7497	1,148.44	83.5107	1,148.44	82.5554	1,148.44	82.6485	1,148.44	81.7296	1,148.44	81.5246	1,148.44	80.9794	1,148.44	80.2103	1,148.44	79.5548	1,148.44	79.0483	1,148.44	76.0667	1,148.44	77.5211	1,148.44	69.7521	1,148.44	75.8853	1,148.44	74.4279	1,148.44	73.4096	1,148.44	74.9493	1,148.44	74.3661	1,148.44	73.3264	1,148.44	74.6492	1,148.44	69.1586	1,148.44	68.5858	1,148.44	69.7864	1,148.44	63.9848	1,148.44	74.5954	1,148.44	71.7399	1,148.44	77.3351	1,148.44	77.1826	1,148.44	78.8406
1,189.45	85.3607	1,189.45	85.331	1,189.45	84.969	1,189.45	84.5495	1,189.45	84.6052	1,189.45	83.4965	1,189.45	84.2958	1,189.45	82.3547	1,189.45	83.7458	1,189.45	81.1684	1,189.45	82.8517	1,189.45	79.9478	1,189.45	81.538	1,189.45	79.0545	1,189.45	80.6866	1,189.45	79.2256	1,189.45	79.6898	1,189.45	77.6773	1,189.45	78.1106	1,189.45	72.8544	1,189.45	77.0118	1,189.45	72.1436	1,189.45	73.9546	1,189.45	73.4564	1,189.45	71.9262	1,189.45	73.0291	1,189.45	73.2149	1,189.45	69.8701	1,189.45	70.0923	1,189.45	62.5433	1,189.45	40.5272	1,189.45	72.0818	1,189.45	71.4827	1,189.45	76.3975	1,189.45	76.3543	1,189.45	77.329
1,230.47	86.2647	1,230.47	85.9775	1,230.47	86.263	1,230.47	85.5212	1,230.47	85.8364	1,230.47	84.0703	1,230.47	85.1994	1,230.47	82.542	1,230.47	84.2157	1,230.47	81.4191	1,230.47	82.48	1,230.47	80.5808	1,230.47	80.8752	1,230.47	80.2154	1,230.47	79.627	1,230.47	79.7041	1,230.47	78.538	1,230.47	78.7541	1,230.47	77.4694	1,230.47	74.559	1,230.47	76.4151	1,230.47	72.2376	1,230.47	76.2378	1,230.47	72.2309	1,230.47	75.5547	1,230.47	73.361	1,230.47	75.3793	1,230.47	69.8168	1,230.47	73.5439	1,230.47	46.5009	1,230.47	61.7915	1,230.47	70.8364	1,230.47	65.175	1,230.47	75.5181	1,230.47	72.1469	1,230.47	76.6481
1,274.41	86.8644	1,274.41	86.7583	1,274.41	86.414	1,274.41	85.7569	1,274.41	86.195	1,274.41	85.0742	1,274.41	85.8819	1,274.41	83.8144	1,274.41	84.5313	1,274.41	82.2124	1,274.41	82.6058	1,274.41	81.8566	1,274.41	81.3018	1,274.41	81.0123	1,274.41	80.1614	1,274.41	80.5023	1,274.41	79.1436	1,274.41	79.2865	1,274.41	77.9306	1,274.41	76.3299	1,274.41	74.2641	1,274.41	72.5884	1,274.41	74.2989	1,274.41	74.5369	1,274.41	75.3169	1,274.41	74.0034	1,274.41	76.2485	1,274.41	70.3616	1,274.41	73.5709	1,274.41	57.6467	1,274.41	66.2256	1,274.41	70.4836	1,274.41	68.6216	1,274.41	76.1347	1,274.41	75.7695	1,274.41	76.3486
1,319.82	87.5117	1,319.82	87.1965	1,319.82	87.4987	1,319.82	86.838	1,319.82	86.7372	1,319.82	85.763	1,319.82	85.3958	1,319.82	84.1667	1,319.82	83.8638	1,319.82	83.1584	1,319.82	82.8177	1,319.82	82.1764	1,319.82	81.8754	1,319.82	80.9998	1,319.82	81.3954	1,319.82	80.4108	1,319.82	80.0563	1,319.82	79.834	1,319.82	77.2357	1,319.82	77.4449	1,319.82	74.8163	1,319.82	75.4247	1,319.82	73.8582	1,319.82	76.2808	1,319.82	74.6579	1,319.82	75.6156	1,319.82	73.6704	1,319.82	73.3327	1,319.82	67.0984	1,319.82	65.7993	1,319.82	64.4823	1,319.82	66.4794	1,319.82	72.6535	1,319.82	73.4561	1,319.82	76.7242	1,319.82	77.9919
1,366.7	87.9893	1,366.7	87.887	1,366.7	87.8245	1,366.7	87.0684	1,366.7	87.3307	1,366.7	86.121	1,366.7	86.1119	1,366.7	85.1447	1,366.7	84.8531	1,366.7	84.066	1,366.7	83.4079	1,366.7	82.3575	1,366.7	82.3187	1,366.7	80.5712	1,366.7	81.0846	1,366.7	79.487	1,366.7	78.1701	1,366.7	77.1301	1,366.7	76.6369	1,366.7	76.9829	1,366.7	74.731	1,366.7	76.0137	1,366.7	74.8951	1,366.7	75.0547	1,366.7	76.5847	1,366.7	76.6267	1,366.7	76.0827	1,366.7	76.3766	1,366.7	73.6852	1,366.7	71.9607	1,366.7	69.284	1,366.7	57.9976	1,366.7	67.6863	1,366.7	71.3428	1,366.7	74.6761	1,366.7	74.5705
1,413.57	87.909	1,413.57	87.5973	1,413.57	87.997	1,413.57	87.2341	1,413.57	87.3062	1,413.57	86.302	1,413.57	85.715	1,413.57	85.3738	1,413.57	84.2747	1,413.57	83.9296	1,413.57	83.1246	1,413.57	82.2149	1,413.57	82.2019	1,413.57	80.6384	1,413.57	80.1524	1,413.57	77.3843	1,413.57	78.3035	1,413.57	77.2674	1,413.57	75.575	1,413.57	78.5818	1,413.57	75.1648	1,413.57	77.5176	1,413.57	75.773	1,413.57	76.9698	1,413.57	74.8459	1,413.57	77.4865	1,413.57	72.6617	1,413.57	76.3903	1,413.57	70.6857	1,413.57	73.8976	1,413.57	63.0402	1,413.57	71.2867	1,413.57	59.7449	1,413.57	70.6714	1,413.57	69.372	1,413.57	70.857
1,463.38	86.6283	1,463.38	86.6823	1,463.38	86.0385	1,463.38	86.0443	1,463.38	85.748	1,463.38	85.4697	1,463.38	84.9385	1,463.38	84.2165	1,463.38	83.4221	1,463.38	81.8927	1,463.38	81.5313	1,463.38	80.1649	1,463.38	79.4739	1,463.38	79.5706	1,463.38	79.4613	1,463.38	76.6371	1,463.38	79.1033	1,463.38	76.7637	1,463.38	76.328	1,463.38	75.701	1,463.38	71.2445	1,463.38	77.8765	1,463.38	72.9783	1,463.38	77.5863	1,463.38	75.4364	1,463.38	76.5407	1,463.38	75.791	1,463.38	73.6792	1,463.38	74.1069	1,463.38	71.8998	1,463.38	65.6812	1,463.38	72.7463	1,463.38	68.1712	1,463.38	76.2954	1,463.38	75.8597	1,463.38	77.2509
1,516.11	84.2537	1,516.11	83.7778	1,516.11	84.7019	1,516.11	84.3149	1,516.11	84.9155	1,516.11	84.4725	1,516.11	83.8487	1,516.11	83.5685	1,516.11	83.3599	1,516.11	82.6119	1,516.11	82.4647	1,516.11	80.2206	1,516.11	79.9883	1,516.11	79.2596	1,516.11	79.6808	1,516.11	77.9273	1,516.11	78.477	1,516.11	75.0284	1,516.11	76.0441	1,516.11	66.6429	1,516.11	72.8586	1,516.11	73.3406	1,516.11	56.5845	1,516.11	71.8775	1,516.11	70.1001	1,516.11	66.7937	1,516.11	72.6019	1,516.11	67.8113	1,516.11	70.5494	1,516.11	63.587	1,516.11	62.2806	1,516.11	74.4471	1,516.11	52.931	1,516.11	77.6441	1,516.11	72.2988	1,516.11	77.8119
1,568.85	84.5129	1,568.85	84.1006	1,568.85	84.8691	1,568.85	83.0205	1,568.85	84.5706	1,568.85	82.1787	1,568.85	82.9157	1,568.85	81.2352	1,568.85	82.8234	1,568.85	80.8841	1,568.85	81.7124	1,568.85	78.3714	1,568.85	77.8644	1,568.85	78.0025	1,568.85	75.8756	1,568.85	77.5159	1,568.85	74.3975	1,568.85	76.447	1,568.85	76.0886	1,568.85	71.5958	1,568.85	71.993	1,568.85	63.9286	1,568.85	71.9368	1,568.85	68.4016	1,568.85	69.3901	1,568.85	69.4342	1,568.85	72.0684	1,568.85	70.599	1,568.85	72.7024	1,568.85	58.0423	1,568.85	68.7624	1,568.85	69.5756	1,568.85	66.1686	1,568.85	73.3473	1,568.85	68.7757	1,568.85	72.9204
1,624.51	85.0231	1,624.51	84.7314	1,624.51	85.3664	1,624.51	83.9307	1,624.51	83.3189	1,624.51	82.6914	1,624.51	83.6391	1,624.51	82.1806	1,624.51	82.9283	1,624.51	81.0571	1,624.51	80.2109	1,624.51	79.9734	1,624.51	78.8957	1,624.51	76.6713	1,624.51	77.7406	1,624.51	75.4169	1,624.51	77.7434	1,624.51	77.0767	1,624.51	74.6712	1,624.51	72.4343	1,624.51	74.5258	1,624.51	66.8302	1,624.51	71.2318	1,624.51	64.7256	1,624.51	65.1908	1,624.51	68.15	1,624.51	71.542	1,624.51	70.1917	1,624.51	69.8159	1,624.51	62.8045	1,624.51	65.2809	1,624.51	67.5513	1,624.51	64.3272	1,624.51	75.0875	1,624.51	72.2686	1,624.51	74.6644
1,681.64	86.7124	1,681.64	86.2643	1,681.64	86.2553	1,681.64	85.571	1,681.64	85.6971	1,681.64	84.4876	1,681.64	84.2571	1,681.64	83.9965	1,681.64	82.9021	1,681.64	82.7617	1,681.64	82.4635	1,681.64	79.2985	1,681.64	80.8981	1,681.64	78.7356	1,681.64	80.7041	1,681.64	77.9795	1,681.64	79.3762	1,681.64	77.7937	1,681.64	77.5043	1,681.64	77.5772	1,681.64	77.9517	1,681.64	74.5251	1,681.64	74.3077	1,681.64	70.1732	1,681.64	72.201	1,681.64	71.1374	1,681.64	74.3772	1,681.64	70.4224	1,681.64	72.5816	1,681.64	62.1731	1,681.64	69.2578	1,681.64	73.8652	1,681.64	66.1872	1,681.64	74.7716	1,681.64	75.3279	1,681.64	75.9313
1,741.7	87.123	1,741.7	86.8071	1,741.7	85.7331	1,741.7	85.9946	1,741.7	86.0098	1,741.7	84.7879	1,741.7	84.173	1,741.7	84.2229	1,741.7	83.2161	1,741.7	82.7536	1,741.7	83.316	1,741.7	81.9419	1,741.7	81.2071	1,741.7	79.5971	1,741.7	80.5255	1,741.7	78.3176	1,741.7	74.6697	1,741.7	78.5742	1,741.7	77.0096	1,741.7	77.6481	1,741.7	76.1467	1,741.7	73.2721	1,741.7	73.4006	1,741.7	61.7667	1,741.7	71.9187	1,741.7	70.257	1,741.7	74.5304	1,741.7	69.0303	1,741.7	74.4565	1,741.7	69.3611	1,741.7	72.9812	1,741.7	70.1753	1,741.7	62.1083	1,741.7	70.2136	1,741.7	71.3975	1,741.7	73.6346
1,803.22	86.0891	1,803.22	86.6947	1,803.22	85.7864	1,803.22	85.6876	1,803.22	84.7855	1,803.22	84.7973	1,803.22	84.4703	1,803.22	84.4699	1,803.22	83.7789	1,803.22	83.4834	1,803.22	83.0357	1,803.22	81.8257	1,803.22	81.6554	1,803.22	80.7331	1,803.22	78.9414	1,803.22	78.3454	1,803.22	75.4461	1,803.22	78.4945	1,803.22	74.2125	1,803.22	76.5174	1,803.22	74.0838	1,803.22	72.8054	1,803.22	67.3399	1,803.22	68.082	1,803.22	66.3809	1,803.22	64.8794	1,803.22	70.4375	1,803.22	67.9144	1,803.22	73.3645	1,803.22	75.3433	1,803.22	70.4529	1,803.22	60.9815	1,803.22	57.6609	1,803.22	72.4142	1,803.22	62.3482	1,803.22	72.3122
1,866.21	84.7734	1,866.21	83.9122	1,866.21	84.8613	1,866.21	85.0371	1,866.21	84.8481	1,866.21	84.6269	1,866.21	84.1589	1,866.21	83.973	1,866.21	83.0447	1,866.21	82.9225	1,866.21	82.6958	1,866.21	81.7059	1,866.21	81.3261	1,866.21	79.0975	1,866.21	80.262	1,866.21	75.8158	1,866.21	78.1176	1,866.21	75.1091	1,866.21	76.0655	1,866.21	77.5054	1,866.21	72.8035	1,866.21	75.1386	1,866.21	73.5118	1,866.21	70.1927	1,866.21	66.6627	1,866.21	69.7141	1,866.21	63.3973	1,866.21	67.178	1,866.21	66.0557	1,866.21	72.2029	1,866.21	72.4857	1,866.21	32.2291	1,866.21	66.8148	1,866.21	61.5814	1,866.21	64.1711	1,866.21	68.729
1,932.13	84.6058	1,932.13	84.8459	1,932.13	84.9882	1,932.13	84.3561	1,932.13	84.0671	1,932.13	83.4894	1,932.13	83.5661	1,932.13	82.4617	1,932.13	82.8569	1,932.13	81.3947	1,932.13	81.8837	1,932.13	80.8874	1,932.13	81.3868	1,932.13	79.7444	1,932.13	79.7825	1,932.13	77.4716	1,932.13	78.0123	1,932.13	74.4441	1,932.13	75.3623	1,932.13	75.2005	1,932.13	75.5713	1,932.13	73.4838	1,932.13	72.8782	1,932.13	72.1959	1,932.13	70.1787	1,932.13	68.4902	1,932.13	65.3486	1,932.13	71.6292	1,932.13	68.695	1,932.13	70.7775	1,932.13	68.4506	1,932.13	58.4916	1,932.13	61.2837	1,932.13	67.1619	1,932.13	67.3121	1,932.13	70.6838
1,999.51	84.8144	1,999.51	84.5328	1,999.51	84.5747	1,999.51	84.1271	1,999.51	84.573	1,999.51	83.1894	1,999.51	83.8753	1,999.51	82.2712	1,999.51	82.8174	1,999.51	80.9691	1,999.51	81.7577	1,999.51	79.3657	1,999.51	81.0535	1,999.51	79.1339	1,999.51	80.6197	1,999.51	77.3155	1,999.51	78.2568	1,999.51	74.7845	1,999.51	76.3399	1,999.51	73.6145	1,999.51	75.059	1,999.51	72.6899	1,999.51	74.0165	1,999.51	68.7989	1,999.51	70.671	1,999.51	68.925	1,999.51	68.4907	1,999.51	69.7567	1,999.51	69.7823	1,999.51	69.9484	1,999.51	71.2314	1,999.51	62.4484	1,999.51	65.2742	1,999.51	67.1938	1,999.51	65.0026	1,999.51	70.9519
2,069.82	85.1503	2,069.82	84.9496	2,069.82	85.0621	2,069.82	84.4851	2,069.82	84.841	2,069.82	83.9206	2,069.82	84.1349	2,069.82	82.3276	2,069.82	83.2486	2,069.82	81.2262	2,069.82	82.17	2,069.82	80.183	2,069.82	80.9901	2,069.82	79.127	2,069.82	80.2919	2,069.82	77.9648	2,069.82	78.1133	2,069.82	75.3138	2,069.82	76.6288	2,069.82	75.1649	2,069.82	74.7541	2,069.82	73.2263	2,069.82	74.465	2,069.82	71.9299	2,069.82	70.8827	2,069.82	67.8896	2,069.82	68.1213	2,069.82	68.9509	2,069.82	70.7115	2,069.82	69.838	2,069.82	70.8872	2,069.82	66.4076	2,069.82	63.6588	2,069.82	65.7515	2,069.82	62.992	2,069.82	69.7262
2,143.07	85.2216	2,143.07	85.2016	2,143.07	85.26	2,143.07	85.1866	2,143.07	84.9553	2,143.07	84.5061	2,143.07	84.4278	2,143.07	83.5821	2,143.07	83.5769	2,143.07	82.227	2,143.07	81.8749	2,143.07	80.236	2,143.07	80.0824	2,143.07	79.5527	2,143.07	79.165	2,143.07	79.153	2,143.07	77.1067	2,143.07	75.6701	2,143.07	74.1384	2,143.07	75.454	2,143.07	73.2783	2,143.07	73.2954	2,143.07	70.6192	2,143.07	71.282	2,143.07	70.946	2,143.07	71.0314	2,143.07	67.9942	2,143.07	69.1888	2,143.07	67.8353	2,143.07	70.858	2,143.07	69.1552	2,143.07	66.9973	2,143.07	63.9852	2,143.07	59.1169	2,143.07	63.9631	2,143.07	67.5185
2,219.24	84.8662	2,219.24	84.5314	2,219.24	84.577	2,219.24	84.5657	2,219.24	84.0925	2,219.24	84.301	2,219.24	83.5646	2,219.24	83.426	2,219.24	82.4064	2,219.24	82.2129	2,219.24	80.9357	2,219.24	79.5986	2,219.24	78.1737	2,219.24	78.1498	2,219.24	76.9048	2,219.24	76.2052	2,219.24	75.1617	2,219.24	75.2681	2,219.24	73.4718	2,219.24	73.8251	2,219.24	71.3039	2,219.24	72.6185	2,219.24	68.5911	2,219.24	69.3871	2,219.24	67.9019	2,219.24	70.3301	2,219.24	69.2955	2,219.24	69.1874	2,219.24	64.8883	2,219.24	71.6831	2,219.24	69.1794	2,219.24	65.8194	2,219.24	65.3804	2,219.24	61.6605	2,219.24	54.81	2,219.24	68.9726
2,296.88	84.3404	2,296.88	84.4803	2,296.88	84.3138	2,296.88	84.0514	2,296.88	83.9068	2,296.88	83.4495	2,296.88	83.3211	2,296.88	83.1173	2,296.88	82.5077	2,296.88	82.1894	2,296.88	81.4623	2,296.88	80.1093	2,296.88	79.6912	2,296.88	78.9561	2,296.88	77.7122	2,296.88	78.4927	2,296.88	76.9281	2,296.88	75.7885	2,296.88	75.2548	2,296.88	74.5811	2,296.88	72.9272	2,296.88	73.0303	2,296.88	73.3758	2,296.88	70.8282	2,296.88	69.3755	2,296.88	72.211	2,296.88	71.3542	2,296.88	68.6866	2,296.88	65.1552	2,296.88	70.326	2,296.88	66.8124	2,296.88	66.5606	2,296.88	67.2013	2,296.88	62.0769	2,296.88	53.2478	2,296.88	65.5752
2,378.91	84.9949	2,378.91	84.5469	2,378.91	84.8681	2,378.91	84.0454	2,378.91	85.1791	2,378.91	83.8445	2,378.91	84.7032	2,378.91	82.6888	2,378.91	84.1949	2,378.91	81.5014	2,378.91	83.3921	2,378.91	79.805	2,378.91	82.1009	2,378.91	77.7902	2,378.91	79.7333	2,378.91	75.8892	2,378.91	79.2545	2,378.91	75.7129	2,378.91	77.3053	2,378.91	73.7783	2,378.91	75.2508	2,378.91	72.8862	2,378.91	74.8305	2,378.91	68.9171	2,378.91	72.565	2,378.91	71.4061	2,378.91	72.4622	2,378.91	66.9869	2,378.91	70.2665	2,378.91	68.7967	2,378.91	69.7909	2,378.91	66.0818	2,378.91	65.7072	2,378.91	61.2646	2,378.91	45.784	2,378.91	65.0422
2,462.4	86.4913	2,462.4	86.2526	2,462.4	86.6501	2,462.4	85.8551	2,462.4	86.402	2,462.4	85.1713	2,462.4	85.9698	2,462.4	84.2916	2,462.4	85.395	2,462.4	83.5551	2,462.4	84.5752	2,462.4	82.6461	2,462.4	83.5739	2,462.4	80.0705	2,462.4	81.7528	2,462.4	77.1253	2,462.4	80.5389	2,462.4	77.0934	2,462.4	78.5569	2,462.4	74.2525	2,462.4	76.7473	2,462.4	73.3493	2,462.4	75.9856	2,462.4	67.5024	2,462.4	73.1935	2,462.4	72.6895	2,462.4	73.2632	2,462.4	66.8697	2,462.4	70.6434	2,462.4	69.7353	2,462.4	68.9422	2,462.4	70.4235	2,462.4	70.4341	2,462.4	54.5501	2,462.4	54.5007	2,462.4	68.7583
2,548.83	86.1467	2,548.83	86.3631	2,548.83	86.686	2,548.83	86.2566	2,548.83	86.3311	2,548.83	85.6657	2,548.83	86.0996	2,548.83	85.0811	2,548.83	84.9343	2,548.83	84.2887	2,548.83	83.8891	2,548.83	83.6439	2,548.83	82.6545	2,548.83	81.9442	2,548.83	81.2715	2,548.83	80.9068	2,548.83	79.7495	2,548.83	77.8966	2,548.83	78.1088	2,548.83	76.1255	2,548.83	75.1973	2,548.83	74.2516	2,548.83	75.2101	2,548.83	73.5293	2,548.83	70.9312	2,548.83	72.6151	2,548.83	73.0989	2,548.83	70.9216	2,548.83	69.5259	2,548.83	69.4698	2,548.83	69.7613	2,548.83	72.6433	2,548.83	71.0236	2,548.83	64.4765	2,548.83	54.7329	2,548.83	69.863
2,639.65	85.6822	2,639.65	85.8737	2,639.65	85.5601	2,639.65	85.2454	2,639.65	85.5589	2,639.65	85.0861	2,639.65	85.1921	2,639.65	84.5037	2,639.65	84.4051	2,639.65	83.2054	2,639.65	83.1582	2,639.65	83.1593	2,639.65	82.3058	2,639.65	80.728	2,639.65	80.5277	2,639.65	78.5653	2,639.65	78.5015	2,639.65	76.8098	2,639.65	76.5985	2,639.65	75.7337	2,639.65	75.0786	2,639.65	73.75	2,639.65	73.3085	2,639.65	72.8199	2,639.65	71.4926	2,639.65	72.5071	2,639.65	70.6496	2,639.65	72.0566	2,639.65	72.7189	2,639.65	70.1864	2,639.65	68.3472	2,639.65	71.2622	2,639.65	71.6317	2,639.65	62.442	2,639.65	65.1316	2,639.65	62.3109
2,731.93	85.4807	2,731.93	84.8967	2,731.93	84.5988	2,731.93	84.6663	2,731.93	84.7645	2,731.93	84.4889	2,731.93	84.5193	2,731.93	83.9121	2,731.93	84.299	2,731.93	82.4079	2,731.93	82.8838	2,731.93	82.1874	2,731.93	82.4427	2,731.93	81.3695	2,731.93	81.0053	2,731.93	77.6178	2,731.93	78.5457	2,731.93	76.1129	2,731.93	76.9829	2,731.93	73.0392	2,731.93	76.5283	2,731.93	74.0537	2,731.93	73.5455	2,731.93	70.3688	2,731.93	71.8474	2,731.93	71.8659	2,731.93	71.2788	2,731.93	71.4762	2,731.93	73.9816	2,731.93	68.45	2,731.93	69.5201	2,731.93	71.1931	2,731.93	71.585	2,731.93	55.1382	2,731.93	64.5731	2,731.93	62.9667
2,828.61	85.5677	2,828.61	85.1098	2,828.61	85.9284	2,828.61	85.3988	2,828.61	85.1558	2,828.61	84.358	2,828.61	84.8654	2,828.61	84.0518	2,828.61	84.6537	2,828.61	83.0799	2,828.61	84.0119	2,828.61	81.1197	2,828.61	82.629	2,828.61	79.6198	2,828.61	81.7887	2,828.61	78.4356	2,828.61	79.8849	2,828.61	77.5464	2,828.61	78.043	2,828.61	74.0436	2,828.61	76.3599	2,828.61	73.2388	2,828.61	73.214	2,828.61	72.2436	2,828.61	72.1961	2,828.61	69.1736	2,828.61	69.684	2,828.61	72.4236	2,828.61	71.9445	2,828.61	64.2056	2,828.61	69.0315	2,828.61	69.7129	2,828.61	71.2665	2,828.61	62.9269	2,828.61	59.5671	2,828.61	56.1395
2,928.22	85.9482	2,928.22	85.8488	2,928.22	86.425	2,928.22	85.8536	2,928.22	86.2136	2,928.22	85.4505	2,928.22	85.8352	2,928.22	85.1974	2,928.22	85.057	2,928.22	84.504	2,928.22	84.3424	2,928.22	82.5321	2,928.22	83.424	2,928.22	80.485	2,928.22	81.9048	2,928.22	79.8003	2,928.22	80.6451	2,928.22	77.4184	2,928.22	78.1639	2,928.22	75.4149	2,928.22	76.2655	2,928.22	72.5456	2,928.22	73.1576	2,928.22	72.4328	2,928.22	74.4473	2,928.22	69.703	2,928.22	64.8225	2,928.22	72.4413	2,928.22	71.9186	2,928.22	65.7743	2,928.22	64.8052	2,928.22	71.6073	2,928.22	69	2,928.22	54.0652	2,928.22	66.3419	2,928.22	62.5443
3,030.76	86.0473	3,030.76	85.8663	3,030.76	85.9545	3,030.76	86.0646	3,030.76	85.5016	3,030.76	85.6058	3,030.76	85.5112	3,030.76	85.5688	3,030.76	85.1338	3,030.76	84.7872	3,030.76	84.3994	3,030.76	83.5605	3,030.76	83.245	3,030.76	82.0181	3,030.76	81.9666	3,030.76	81.4852	3,030.76	79.7822	3,030.76	77.2056	3,030.76	77.7403	3,030.76	76.6983	3,030.76	76.4348	3,030.76	74.692	3,030.76	74.8969	3,030.76	73.8764	3,030.76	74.8319	3,030.76	68.589	3,030.76	66.9522	3,030.76	73.484	3,030.76	73.8343	3,030.76	65.2718	3,030.76	63.3995	3,030.76	69.6123	3,030.76	71.6778	3,030.76	66.1413	3,030.76	66.7225	3,030.76	57.9818
3,137.7	85.1583	3,137.7	85.2941	3,137.7	84.8405	3,137.7	85.0053	3,137.7	85.0884	3,137.7	85.0895	3,137.7	85.0387	3,137.7	85.1447	3,137.7	84.9747	3,137.7	85.4431	3,137.7	84.2069	3,137.7	83.8314	3,137.7	82.7191	3,137.7	82.644	3,137.7	81.7295	3,137.7	80.8593	3,137.7	79.7015	3,137.7	78.6771	3,137.7	78.7996	3,137.7	77.0498	3,137.7	76.0529	3,137.7	75.5345	3,137.7	74.2563	3,137.7	73.5414	3,137.7	73.2095	3,137.7	69.3189	3,137.7	71.065	3,137.7	73.8634	3,137.7	73.3882	3,137.7	69.4616	3,137.7	68.2946	3,137.7	69.2882	3,137.7	70.7371	3,137.7	67.4961	3,137.7	64.9118	3,137.7	51.7847
3,249.02	84.6522	3,249.02	84.7803	3,249.02	84.6949	3,249.02	84.3492	3,249.02	84.8211	3,249.02	84.5154	3,249.02	85.0763	3,249.02	84.5487	3,249.02	85.068	3,249.02	84.1955	3,249.02	84.3599	3,249.02	83.5038	3,249.02	83.0027	3,249.02	82.5166	3,249.02	81.9939	3,249.02	80.0262	3,249.02	79.6439	3,249.02	78.1232	3,249.02	78.0753	3,249.02	75.983	3,249.02	75.0773	3,249.02	73.9782	3,249.02	74.6912	3,249.02	74.6446	3,249.02	71.1024	3,249.02	67.6546	3,249.02	71.0847	3,249.02	72.5429	3,249.02	71.925	3,249.02	69.5257	3,249.02	70.4487	3,249.02	70.2244	3,249.02	71.9184	3,249.02	67.6774	3,249.02	67.0516	3,249.02	62.0574
3,363.28	85.2999	3,363.28	85.3365	3,363.28	83.7589	3,363.28	84.2016	3,363.28	84.9359	3,363.28	84.4893	3,363.28	84.5442	3,363.28	84.6698	3,363.28	85.0563	3,363.28	84.4706	3,363.28	84.4499	3,363.28	83.158	3,363.28	83.3504	3,363.28	82.073	3,363.28	80.8848	3,363.28	79.2731	3,363.28	80.2479	3,363.28	77.6413	3,363.28	78.228	3,363.28	75.5312	3,363.28	75.2251	3,363.28	73.296	3,363.28	74.5055	3,363.28	72.5221	3,363.28	71.8692	3,363.28	68.6327	3,363.28	69.1395	3,363.28	70.7599	3,363.28	70.2255	3,363.28	70.0692	3,363.28	69.972	3,363.28	70.5457	3,363.28	70.7126	3,363.28	66.2908	3,363.28	66.7525	3,363.28	63.7466
3,481.93	85.6751	3,481.93	85.1747	3,481.93	85.3336	3,481.93	85.3692	3,481.93	84.6188	3,481.93	85.4287	3,481.93	84.1652	3,481.93	85.1334	3,481.93	83.1647	3,481.93	83.4167	3,481.93	83.5439	3,481.93	83.7761	3,481.93	83.6072	3,481.93	81.9573	3,481.93	81.649	3,481.93	79.5875	3,481.93	80.5454	3,481.93	79.0654	3,481.93	77.7528	3,481.93	76.9335	3,481.93	76.3104	3,481.93	74.1571	3,481.93	73.7285	3,481.93	72.0999	3,481.93	72.43	3,481.93	71.8462	3,481.93	71.0176	3,481.93	66.6873	3,481.93	67.3534	3,481.93	71.1122	3,481.93	70.6566	3,481.93	70.9863	3,481.93	70.3975	3,481.93	65.3101	3,481.93	66.8758	3,481.93	58.1433
3,604.98	86.0011	3,604.98	85.7304	3,604.98	86.2462	3,604.98	85.6212	3,604.98	85.2111	3,604.98	85.5633	3,604.98	85.0524	3,604.98	84.5074	3,604.98	84.8482	3,604.98	83.5215	3,604.98	84.6184	3,604.98	83.0615	3,604.98	83.8347	3,604.98	80.9739	3,604.98	82.8691	3,604.98	79.7984	3,604.98	80.335	3,604.98	78.4327	3,604.98	78.0291	3,604.98	76.9728	3,604.98	76.0159	3,604.98	75.3228	3,604.98	73.9786	3,604.98	72.1237	3,604.98	72.2624	3,604.98	72.4756	3,604.98	72.7164	3,604.98	69.8014	3,604.98	69.5338	3,604.98	71.9204	3,604.98	73.4151	3,604.98	70.3108	3,604.98	70.0454	3,604.98	62.0288	3,604.98	66.9526	3,604.98	60.4622
3,732.42	86.7074	3,732.42	86.5045	3,732.42	87.3479	3,732.42	86.0588	3,732.42	85.5096	3,732.42	85.9529	3,732.42	85.2183	3,732.42	84.8184	3,732.42	84.4288	3,732.42	84.5618	3,732.42	84.5558	3,732.42	83.8924	3,732.42	83.2403	3,732.42	82.4176	3,732.42	81.6513	3,732.42	81.2489	3,732.42	80.2715	3,732.42	78.4824	3,732.42	77.3831	3,732.42	77.2945	3,732.42	76.4385	3,732.42	74.517	3,732.42	72.724	3,732.42	71.8776	3,732.42	70.6583	3,732.42	73.5915	3,732.42	70.7652	3,732.42	70.4873	3,732.42	65.095	3,732.42	72.379	3,732.42	72.547	3,732.42	69.7079	3,732.42	70.709	3,732.42	66.1297	3,732.42	67.1409	3,732.42	62.0633
3,864.26	85.96	3,864.26	86.2637	3,864.26	85.9012	3,864.26	85.0507	3,864.26	85.5608	3,864.26	84.8753	3,864.26	84.8061	3,864.26	84.1676	3,864.26	83.9253	3,864.26	84.9479	3,864.26	82.8917	3,864.26	83.3252	3,864.26	81.5954	3,864.26	82.5629	3,864.26	81.043	3,864.26	81.3009	3,864.26	78.9406	3,864.26	79.0122	3,864.26	76.9678	3,864.26	77.2541	3,864.26	76.4323	3,864.26	72.6717	3,864.26	73.513	3,864.26	72.2722	3,864.26	72.4171	3,864.26	73.3833	3,864.26	71.5573	3,864.26	68.8716	3,864.26	67.2232	3,864.26	71.5075	3,864.26	70.5671	3,864.26	68.0421	3,864.26	64.0433	3,864.26	66.7777	3,864.26	63.1919	3,864.26	61.8512
4,000.49	86.1144	4,000.49	86.0582	4,000.49	85.6774	4,000.49	85.756	4,000.49	85.8444	4,000.49	84.5431	4,000.49	84.7069	4,000.49	84.1143	4,000.49	84.2126	4,000.49	84.8526	4,000.49	82.6507	4,000.49	83.6468	4,000.49	82.0322	4,000.49	82.2907	4,000.49	81.4568	4,000.49	80.2678	4,000.49	79.4893	4,000.49	79.2522	4,000.49	78.4972	4,000.49	76.0549	4,000.49	74.8467	4,000.49	74.4212	4,000.49	73.1543	4,000.49	71.7067	4,000.49	72.0111	4,000.49	71.1463	4,000.49	72.2089	4,000.49	68.933	4,000.49	70.5763	4,000.49	72.8801	4,000.49	70.4371	4,000.49	67.8591	4,000.49	65.3432	4,000.49	66.8006	4,000.49	64.8781	4,000.49	67.2483
4,141.11	86.8765	4,141.11	87.3403	4,141.11	85.1874	4,141.11	87.0427	4,141.11	85.7379	4,141.11	85.5685	4,141.11	84.5951	4,141.11	86.6222	4,141.11	83.4566	4,141.11	84.9782	4,141.11	82.4176	4,141.11	84.8944	4,141.11	82.3215	4,141.11	83.6325	4,141.11	81.5816	4,141.11	81.4371	4,141.11	80.2824	4,141.11	79.2631	4,141.11	79.2105	4,141.11	76.6936	4,141.11	76.4034	4,141.11	75.8938	4,141.11	74.4496	4,141.11	72.8039	4,141.11	72.4585	4,141.11	70.3598	4,141.11	70.8026	4,141.11	71.4273	4,141.11	68.2092	4,141.11	72.5618	4,141.11	70.179	4,141.11	69.0495	4,141.11	68.561	4,141.11	69.8154	4,141.11	70.3374	4,141.11	70.5978
4,287.6	86.8299	4,287.6	86.7501	4,287.6	86.7915	4,287.6	85.8961	4,287.6	85.2078	4,287.6	85.7358	4,287.6	84.4427	4,287.6	85.8572	4,287.6	82.8638	4,287.6	84.5442	4,287.6	82.8434	4,287.6	84.1179	4,287.6	83.3716	4,287.6	83.4542	4,287.6	82.6067	4,287.6	82.1427	4,287.6	81.7569	4,287.6	80.7723	4,287.6	79.665	4,287.6	78.1195	4,287.6	78.2731	4,287.6	76.5284	4,287.6	75.6036	4,287.6	73.9538	4,287.6	72.4063	4,287.6	72.3572	4,287.6	68.5521	4,287.6	70.0185	4,287.6	66.9993	4,287.6	70.4718	4,287.6	67.4531	4,287.6	70.5197	4,287.6	67.8954	4,287.6	67.8914	4,287.6	70.175	4,287.6	69.4502
4,438.48	87.3812	4,438.48	85.985	4,438.48	87.8532	4,438.48	86.8262	4,438.48	85.6164	4,438.48	85.6	4,438.48	84.4473	4,438.48	83.2787	4,438.48	84.1568	4,438.48	83.5325	4,438.48	84.3623	4,438.48	84.1681	4,438.48	84.0741	4,438.48	82.8867	4,438.48	82.7651	4,438.48	81.6227	4,438.48	80.2323	4,438.48	78.2719	4,438.48	79.3659	4,438.48	77.7264	4,438.48	75.7231	4,438.48	72.7629	4,438.48	74.4082	4,438.48	73.4136	4,438.48	72.2712	4,438.48	68.1941	4,438.48	68.8397	4,438.48	66.8419	4,438.48	69.2445	4,438.48	72.3097	4,438.48	71.3866	4,438.48	69.1416	4,438.48	66.2188	4,438.48	65.1662	4,438.48	64.6893	4,438.48	64.3562
4,595.21	86.3748	4,595.21	86.0676	4,595.21	85.8531	4,595.21	85.6313	4,595.21	86.2793	4,595.21	84.901	4,595.21	84.707	4,595.21	82.8924	4,595.21	85.3954	4,595.21	83.4624	4,595.21	85.4043	4,595.21	83.2203	4,595.21	83.2369	4,595.21	83.5233	4,595.21	82.1025	4,595.21	82.2732	4,595.21	82.1328	4,595.21	78.0024	4,595.21	78.3117	4,595.21	75.3999	4,595.21	77.2539	4,595.21	75.0075	4,595.21	74.3309	4,595.21	72.9158	4,595.21	72.1056	4,595.21	67.3025	4,595.21	67.5408	4,595.21	64.0655	4,595.21	67.946	4,595.21	71.7593	4,595.21	71.6092	4,595.21	69.043	4,595.21	69.9166	4,595.21	67.4807	4,595.21	66.8363	4,595.21	63.5121
4,756.35	86.363	4,756.35	87.0774	4,756.35	85.6038	4,756.35	85.1269	4,756.35	86.5686	4,756.35	85.2877	4,756.35	86.0556	4,756.35	85.363	4,756.35	85.7101	4,756.35	84.3876	4,756.35	85.0263	4,756.35	83.3204	4,756.35	84.4168	4,756.35	81.3806	4,756.35	82.9383	4,756.35	78.2278	4,756.35	81.0486	4,756.35	77.3635	4,756.35	80.0318	4,756.35	73.09	4,756.35	77.8353	4,756.35	73.3037	4,756.35	74.8904	4,756.35	72.3095	4,756.35	72.8293	4,756.35	70.6572	4,756.35	67.3611	4,756.35	69.5147	4,756.35	67.0552	4,756.35	69.6536	4,756.35	68.233	4,756.35	62.106	4,756.35	69.7976	4,756.35	65.5648	4,756.35	69.3098	4,756.35	68.1164
4,924.8	85.8769	4,924.8	86.2199	4,924.8	86.6818	4,924.8	87.3374	4,924.8	85.2635	4,924.8	87.1049	4,924.8	86.8238	4,924.8	87.8562	4,924.8	84.438	4,924.8	87.2422	4,924.8	83.8574	4,924.8	84.8457	4,924.8	84.2305	4,924.8	82.2574	4,924.8	83.5701	4,924.8	79.1689	4,924.8	81.659	4,924.8	78.2995	4,924.8	79.2521	4,924.8	78.2432	4,924.8	75.3897	4,924.8	72.9109	4,924.8	74.6576	4,924.8	69.2607	4,924.8	71.0026	4,924.8	65.547	4,924.8	72.5403	4,924.8	66.8116	4,924.8	70.1209	4,924.8	64.9087	4,924.8	68.9918	4,924.8	65.0877	4,924.8	70.1318	4,924.8	67.7193	4,924.8	68.2721	4,924.8	66.2636
5,097.66	85.0764	5,097.66	85.324	5,097.66	84.7571	5,097.66	86.8748	5,097.66	85.2706	5,097.66	86.8096	5,097.66	85.4557	5,097.66	85.6858	5,097.66	85.8683	5,097.66	85.3008	5,097.66	85.2474	5,097.66	83.7164	5,097.66	83.6052	5,097.66	81.0461	5,097.66	82.7199	5,097.66	79.9795	5,097.66	80.8361	5,097.66	77.7254	5,097.66	78.5772	5,097.66	78.5446	5,097.66	74.6776	5,097.66	72.0145	5,097.66	73.0307	5,097.66	69.7865	5,097.66	71.2894	5,097.66	64.9109	5,097.66	71.1487	5,097.66	68.973	5,097.66	68.7124	5,097.66	65.5926	5,097.66	66.0057	5,097.66	67.6696	5,097.66	68.958	5,097.66	66.9387	5,097.66	65.8244	5,097.66	67.1224
5,277.83	84.2111	5,277.83	85.499	5,277.83	83.4179	5,277.83	85.0821	5,277.83	85.6271	5,277.83	87.1252	5,277.83	85.5233	5,277.83	85.4404	5,277.83	86.5463	5,277.83	84.2028	5,277.83	86.3893	5,277.83	83.7658	5,277.83	84.7511	5,277.83	82.2056	5,277.83	82.4129	5,277.83	79.6436	5,277.83	81.299	5,277.83	76.2539	5,277.83	77.0923	5,277.83	69.8072	5,277.83	75.9264	5,277.83	71.0141	5,277.83	72.4871	5,277.83	69.5093	5,277.83	70.6432	5,277.83	70.2651	5,277.83	70.8618	5,277.83	58.4438	5,277.83	68.8136	5,277.83	61.2155	5,277.83	58.1764	5,277.83	67.2238	5,277.83	67.7106	5,277.83	60.3564	5,277.83	65.8546	5,277.83	65.8811
5,463.87	84.605	5,463.87	84.3815	5,463.87	85.2291	5,463.87	84.382	5,463.87	85.2804	5,463.87	85.6272	5,463.87	87.1582	5,463.87	85.6851	5,463.87	86.0989	5,463.87	84.639	5,463.87	84.851	5,463.87	83.7314	5,463.87	84.2504	5,463.87	83.2365	5,463.87	83.0896	5,463.87	80.7511	5,463.87	77.0284	5,463.87	80.2457	5,463.87	77.0137	5,463.87	74.6298	5,463.87	75.1546	5,463.87	73.576	5,463.87	72.0992	5,463.87	70.9378	5,463.87	67.3393	5,463.87	71.5206	5,463.87	62.2961	5,463.87	66.767	5,463.87	60.8988	5,463.87	63.9661	5,463.87	64.4532	5,463.87	66.695	5,463.87	67.2789	5,463.87	61.1521	5,463.87	61.0143	5,463.87	63.9958
5,657.23	86.8213	5,657.23	85.9131	5,657.23	86.6077	5,657.23	86.8895	5,657.23	85.622	5,657.23	85.9634	5,657.23	85.8031	5,657.23	86.1669	5,657.23	85.3456	5,657.23	84.1046	5,657.23	83.7793	5,657.23	82.8818	5,657.23	82.5882	5,657.23	80.432	5,657.23	80.6239	5,657.23	79.5196	5,657.23	79.4941	5,657.23	77.0666	5,657.23	77.8237	5,657.23	75.3798	5,657.23	76.4239	5,657.23	69.6287	5,657.23	69.9785	5,657.23	62.6686	5,657.23	71.2231	5,657.23	65.4412	5,657.23	70.3572	5,657.23	70.201	5,657.23	66.5181	5,657.23	60.7179	5,657.23	61.1532	5,657.23	55.5166	5,657.23	64.1828	5,657.23	65.3165	5,657.23	63.9073	5,657.23	65.832
5,856.45	86.8477	5,856.45	85.9901	5,856.45	85.3847	5,856.45	85.5505	5,856.45	85.8709	5,856.45	85.7104	5,856.45	85.11	5,856.45	85.5207	5,856.45	85.9269	5,856.45	84.8494	5,856.45	85.2218	5,856.45	83.4406	5,856.45	83.2393	5,856.45	81.9822	5,856.45	82.0971	5,856.45	80.8511	5,856.45	81.6401	5,856.45	76.6746	5,856.45	77.5314	5,856.45	76.303	5,856.45	74.9031	5,856.45	72.3056	5,856.45	72.2895	5,856.45	69.8898	5,856.45	71.0991	5,856.45	66.4366	5,856.45	67.6333	5,856.45	66.058	5,856.45	64.7442	5,856.45	57.2733	5,856.45	64.6775	5,856.45	64.8932	5,856.45	65.3261	5,856.45	66.0067	5,856.45	66.6846	5,856.45	60.7786
6,062.99	87.2327	6,062.99	87.0014	6,062.99	87.4601	6,062.99	85.91	6,062.99	85.2442	6,062.99	85.7015	6,062.99	86.2128	6,062.99	84.2998	6,062.99	84.9083	6,062.99	84.6472	6,062.99	83.4692	6,062.99	83.1967	6,062.99	83.579	6,062.99	83.3392	6,062.99	83.632	6,062.99	78.3905	6,062.99	80.3445	6,062.99	77.3667	6,062.99	79.0043	6,062.99	73.7074	6,062.99	73.9393	6,062.99	72.0534	6,062.99	73.977	6,062.99	68.6066	6,062.99	69.4664	6,062.99	71.9183	6,062.99	70.5208	6,062.99	65.8352	6,062.99	68.4213	6,062.99	63.4243	6,062.99	63.4993	6,062.99	64.806	6,062.99	65.5524	6,062.99	63.8782	6,062.99	64.2279	6,062.99	63.2415
6,276.86	87.4414	6,276.86	87.2422	6,276.86	87.4887	6,276.86	85.8494	6,276.86	86.2191	6,276.86	85.1687	6,276.86	86.0919	6,276.86	84.9195	6,276.86	85.3584	6,276.86	83.8432	6,276.86	83.6593	6,276.86	83.1275	6,276.86	83.1511	6,276.86	82.6744	6,276.86	81.3422	6,276.86	78.3922	6,276.86	79.0432	6,276.86	76.938	6,276.86	78.453	6,276.86	73.9298	6,276.86	73.5614	6,276.86	72.069	6,276.86	71.9068	6,276.86	71.071	6,276.86	69.5903	6,276.86	70.6702	6,276.86	65.9753	6,276.86	64.581	6,276.86	67.5937	6,276.86	60.5806	6,276.86	66.6328	6,276.86	65.8178	6,276.86	67.6248	6,276.86	59.3011	6,276.86	66.5427	6,276.86	59.3542
6,498.05	88.0614	6,498.05	87.3147	6,498.05	87.2617	6,498.05	86.3507	6,498.05	87.2097	6,498.05	85.5688	6,498.05	85.2548	6,498.05	85.6777	6,498.05	85.9899	6,498.05	84.4948	6,498.05	85.8319	6,498.05	83.4048	6,498.05	83.3871	6,498.05	77.9882	6,498.05	81.2723	6,498.05	80.5281	6,498.05	81.4712	6,498.05	76.2283	6,498.05	78.4052	6,498.05	76.6067	6,498.05	75.9021	6,498.05	72.8887	6,498.05	72.6368	6,498.05	68.1372	6,498.05	67.1849	6,498.05	65.7749	6,498.05	70.1758	6,498.05	60.7692	6,498.05	68.1946	6,498.05	61.6959	6,498.05	62.8766	6,498.05	65.3383	6,498.05	63.0557	6,498.05	60.0912	6,498.05	65.9054	6,498.05	62.3274
6,726.56	87.4726	6,726.56	87.1839	6,726.56	87.6656	6,726.56	85.9798	6,726.56	86.3969	6,726.56	85.302	6,726.56	85.8123	6,726.56	84.8883	6,726.56	84.0414	6,726.56	84.957	6,726.56	84.2702	6,726.56	84.1666	6,726.56	84.0565	6,726.56	83.279	6,726.56	83.5359	6,726.56	80.8098	6,726.56	81.0758	6,726.56	78.3568	6,726.56	76.9702	6,726.56	75.4563	6,726.56	76.7821	6,726.56	72.7501	6,726.56	72.0948	6,726.56	68.4108	6,726.56	66.7995	6,726.56	68.7322	6,726.56	69.0345	6,726.56	68.0221	6,726.56	64.6964	6,726.56	63.1203	6,726.56	63.8931	6,726.56	65.8001	6,726.56	65.8758	6,726.56	61.8843	6,726.56	64.707	6,726.56	60.4234
6,963.87	87.667	6,963.87	87.4088	6,963.87	87.7275	6,963.87	86.3295	6,963.87	86.5171	6,963.87	85.1686	6,963.87	85.4023	6,963.87	84.3213	6,963.87	85.3799	6,963.87	83.8662	6,963.87	84.0487	6,963.87	82.7963	6,963.87	83.7245	6,963.87	82.8551	6,963.87	82.0286	6,963.87	79.5485	6,963.87	79.6387	6,963.87	77.6765	6,963.87	76.8532	6,963.87	72.971	6,963.87	75.4432	6,963.87	71.2478	6,963.87	70.4624	6,963.87	67.6267	6,963.87	71.2374	6,963.87	68.0454	6,963.87	69.8079	6,963.87	63.6919	6,963.87	61.4779	6,963.87	61.6569	6,963.87	62.5073	6,963.87	67.0146	6,963.87	65.8256	6,963.87	62.9524	6,963.87	65.254	6,963.87	62.1995
7,209.96	87.4678	7,209.96	87.595	7,209.96	87.3505	7,209.96	86.2555	7,209.96	87.5294	7,209.96	84.759	7,209.96	84.775	7,209.96	84.7599	7,209.96	85.334	7,209.96	83.5165	7,209.96	85.7393	7,209.96	83.6082	7,209.96	83.7695	7,209.96	82.6287	7,209.96	82.6412	7,209.96	79.6398	7,209.96	79.8399	7,209.96	77.7651	7,209.96	77.9765	7,209.96	73.424	7,209.96	73.402	7,209.96	68.6707	7,209.96	70.8196	7,209.96	66.2743	7,209.96	72.4715	7,209.96	66.5216	7,209.96	67.9617	7,209.96	64.1408	7,209.96	63.9457	7,209.96	62.6887	7,209.96	62.1136	7,209.96	67.7153	7,209.96	66.5656	7,209.96	60.8537	7,209.96	63.8234	7,209.96	60.579
7,464.84	86.6519	7,464.84	87.1161	7,464.84	87.9994	7,464.84	86.1743	7,464.84	85.696	7,464.84	84.9122	7,464.84	85.1799	7,464.84	84.7402	7,464.84	83.8971	7,464.84	84.441	7,464.84	83.1997	7,464.84	83.2215	7,464.84	83.3071	7,464.84	81.1451	7,464.84	82.4461	7,464.84	77.6568	7,464.84	78.1535	7,464.84	74.5266	7,464.84	76.2035	7,464.84	72.9077	7,464.84	71.6194	7,464.84	69.4424	7,464.84	71.687	7,464.84	70.5024	7,464.84	65.0922	7,464.84	65.4283	7,464.84	62.3122	7,464.84	64.0856	7,464.84	61	7,464.84	62.0383	7,464.84	63.8784	7,464.84	61.0496	7,464.84	62.9598	7,464.84	60.2708	7,464.84	61.6394	7,464.84	56.0152
7,727.05	87.7896	7,727.05	87.315	7,727.05	87.9651	7,727.05	86.3679	7,727.05	87.071	7,727.05	84.4637	7,727.05	85.1637	7,727.05	83.8708	7,727.05	85.3944	7,727.05	84.6211	7,727.05	83.7295	7,727.05	81.8514	7,727.05	83.0645	7,727.05	80.0804	7,727.05	81.2179	7,727.05	78.9576	7,727.05	79.6703	7,727.05	76.809	7,727.05	77.168	7,727.05	73.6735	7,727.05	74.1298	7,727.05	72.3122	7,727.05	69.8671	7,727.05	67.6576	7,727.05	68.3837	7,727.05	63.7144	7,727.05	64.1947	7,727.05	57.1473	7,727.05	62.4949	7,727.05	61.4801	7,727.05	64.4264	7,727.05	63.9806	7,727.05	67.5934	7,727.05	62.221	7,727.05	60.5294	7,727.05	52.7577
7,999.51	87.3739	7,999.51	86.7658	7,999.51	87.1544	7,999.51	85.9035	7,999.51	86.2902	7,999.51	84.5717	7,999.51	84.2872	7,999.51	84.5105	7,999.51	84.2055	7,999.51	83.8046	7,999.51	84.2793	7,999.51	82.6341	7,999.51	82.3015	7,999.51	80.5704	7,999.51	80.3618	7,999.51	79.367	7,999.51	79.0872	7,999.51	76.7735	7,999.51	76.4687	7,999.51	73.5079	7,999.51	74.6802	7,999.51	70.8299	7,999.51	69.8336	7,999.51	66.5864	7,999.51	68.297	7,999.51	66.1681	7,999.51	67.1939	7,999.51	65.0292	7,999.51	64.9797	7,999.51	61.2988	7,999.51	63.9114	7,999.51	64.6835	7,999.51	64.6199	7,999.51	54.4577	7,999.51	56.5768	7,999.51	43.8545
8,282.23	86.9462	8,282.23	86.8283	8,282.23	86.9328	8,282.23	86.3985	8,282.23	87.2375	8,282.23	84.9754	8,282.23	86.119	8,282.23	84.0519	8,282.23	84.3631	8,282.23	82.9357	8,282.23	83.5491	8,282.23	82.6231	8,282.23	82.0834	8,282.23	80.9084	8,282.23	80.5549	8,282.23	78.6334	8,282.23	79.7382	8,282.23	75.7946	8,282.23	75.879	8,282.23	73.3386	8,282.23	73.2407	8,282.23	69.1721	8,282.23	70.6855	8,282.23	64.8833	8,282.23	67.2744	8,282.23	63.8848	8,282.23	59.7034	8,282.23	64.8057	8,282.23	64.3407	8,282.23	64.5229	8,282.23	65.0184	8,282.23	64.2975	8,282.23	64.4345	8,282.23	62.1457	8,282.23	59.5205	8,282.23	52.2911
8,573.73	87.5228	8,573.73	86.8856	8,573.73	86.9935	8,573.73	85.9912	8,573.73	86.3373	8,573.73	84.3427	8,573.73	85.2996	8,573.73	83.0168	8,573.73	84.7995	8,573.73	83.2427	8,573.73	84.0718	8,573.73	81.2261	8,573.73	82.516	8,573.73	81.1432	8,573.73	80.1479	8,573.73	78.3653	8,573.73	79.285	8,573.73	75.1745	8,573.73	76.0852	8,573.73	71.9961	8,573.73	73.1905	8,573.73	71.07	8,573.73	69.5547	8,573.73	67.633	8,573.73	69.0099	8,573.73	64.9214	8,573.73	64.2748	8,573.73	60.8138	8,573.73	65.8295	8,573.73	58.3084	8,573.73	61.0584	8,573.73	65.5403	8,573.73	65.4263	8,573.73	63.3765	8,573.73	61.7181	8,573.73	47.7906
8,876.95	88.0422	8,876.95	86.9568	8,876.95	87.4136	8,876.95	86.1591	8,876.95	86.8649	8,876.95	84.8998	8,876.95	85.6282	8,876.95	83.7242	8,876.95	83.9215	8,876.95	82.8881	8,876.95	83.0324	8,876.95	82.1656	8,876.95	82.0382	8,876.95	79.9993	8,876.95	81.7765	8,876.95	78.8432	8,876.95	78.4604	8,876.95	76.7259	8,876.95	76.6242	8,876.95	72.7927	8,876.95	73.5953	8,876.95	69.5626	8,876.95	71.4682	8,876.95	66.7863	8,876.95	68.2425	8,876.95	66.1111	8,876.95	61.959	8,876.95	65.0376	8,876.95	62.1921	8,876.95	62.828	8,876.95	61.4912	8,876.95	62.541	8,876.95	61.3677	8,876.95	54.0068	8,876.95	60.1314	8,876.95	48.4476
9,188.96	88.26	9,188.96	86.7787	9,188.96	87.3639	9,188.96	86.0697	9,188.96	86.3641	9,188.96	85.3139	9,188.96	85.671	9,188.96	83.2022	9,188.96	83.584	9,188.96	82.5436	9,188.96	82.5268	9,188.96	82.2125	9,188.96	82.5152	9,188.96	81.6608	9,188.96	81.716	9,188.96	79.3022	9,188.96	79.7425	9,188.96	76.6935	9,188.96	77.2504	9,188.96	72.5687	9,188.96	73.0463	9,188.96	67.2766	9,188.96	69.6576	9,188.96	65.4663	9,188.96	65.5328	9,188.96	65.2242	9,188.96	66.5971	9,188.96	58.1436	9,188.96	63.5826	9,188.96	61.7677	9,188.96	65.7986	9,188.96	65.3097	9,188.96	65.4893	9,188.96	63.1243	9,188.96	57.9909	9,188.96	33.6343
9,514.16	88.1356	9,514.16	87.2076	9,514.16	87.1572	9,514.16	85.5696	9,514.16	86.4861	9,514.16	85.0693	9,514.16	85.8452	9,514.16	82.3228	9,514.16	83.0284	9,514.16	82.7733	9,514.16	82.3361	9,514.16	82.1002	9,514.16	82.0201	9,514.16	79.9234	9,514.16	81.3345	9,514.16	78.4241	9,514.16	79.0057	9,514.16	75.9881	9,514.16	76.7105	9,514.16	73.0344	9,514.16	74.1139	9,514.16	70.8185	9,514.16	69.868	9,514.16	66.3761	9,514.16	67.7913	9,514.16	62.69	9,514.16	64.4506	9,514.16	63.0124	9,514.16	64.8081	9,514.16	55.9563	9,514.16	58.8143	9,514.16	67.5167	9,514.16	64.6821	9,514.16	62.5861	9,514.16	51.9926	9,514.16	52.3723
9,849.61	88.1781	9,849.61	86.7773	9,849.61	87.2159	9,849.61	85.401	9,849.61	85.9589	9,849.61	84.6202	9,849.61	85.9452	9,849.61	82.4364	9,849.61	83.4716	9,849.61	82.6374	9,849.61	82.5883	9,849.61	82.0928	9,849.61	82.3892	9,849.61	80.2802	9,849.61	79.8685	9,849.61	78.7066	9,849.61	79.2842	9,849.61	75.8272	9,849.61	75.6155	9,849.61	71.6783	9,849.61	72.5763	9,849.61	68.5814	9,849.61	69.4869	9,849.61	64.1566	9,849.61	66.7149	9,849.61	59.4739	9,849.61	63.4049	9,849.61	62.544	9,849.61	60.5469	9,849.61	55.8423	9,849.61	61.7634	9,849.61	64.2332	9,849.61	61.9349	9,849.61	57.8001	9,849.61	41.7188	9,849.61	52.405
10,196.8	87.6271	10,196.8	86.6752	10,196.8	87.0088	10,196.8	85.292	10,196.8	86.3917	10,196.8	85.0219	10,196.8	85.5988	10,196.8	82.5812	10,196.8	82.9863	10,196.8	82.2867	10,196.8	83.0328	10,196.8	81.3511	10,196.8	82.2382	10,196.8	79.6449	10,196.8	80.4637	10,196.8	76.3621	10,196.8	77.7826	10,196.8	72.9568	10,196.8	75.4716	10,196.8	70.0925	10,196.8	71.6587	10,196.8	69.2234	10,196.8	69.2875	10,196.8	63.7524	10,196.8	67.5379	10,196.8	59.0159	10,196.8	65.7103	10,196.8	62.6464	10,196.8	64.6631	10,196.8	57.5301	10,196.8	59.7489	10,196.8	59.7519	10,196.8	63.4696	10,196.8	58.7284	10,196.8	47.7521	10,196.8	55.1837
10,555.7	87.6061	10,555.7	87.0014	10,555.7	87.5452	10,555.7	85.8468	10,555.7	86.9653	10,555.7	84.1168	10,555.7	85.6044	10,555.7	83.2381	10,555.7	83.479	10,555.7	82.4077	10,555.7	83.0206	10,555.7	81.0946	10,555.7	81.8576	10,555.7	77.8484	10,555.7	79.9765	10,555.7	75.6758	10,555.7	77.4937	10,555.7	72.1993	10,555.7	74.8566	10,555.7	69.2049	10,555.7	71.5255	10,555.7	64.9693	10,555.7	68.1065	10,555.7	58.2206	10,555.7	61.1402	10,555.7	62.4601	10,555.7	65.5247	10,555.7	60.405	10,555.7	62.5786	10,555.7	57.652	10,555.7	60.1696	10,555.7	61.7219	10,555.7	64.6131	10,555.7	55.4283	10,555.7	46.5417	10,555.7	56.7647
10,927.7	86.6001	10,927.7	86.9048	10,927.7	87.3385	10,927.7	85.9056	10,927.7	86.2338	10,927.7	84.4515	10,927.7	85.068	10,927.7	83.0526	10,927.7	83.6511	10,927.7	82.0556	10,927.7	82.8375	10,927.7	79.3513	10,927.7	81.4493	10,927.7	77.0244	10,927.7	79.403	10,927.7	74.4893	10,927.7	77.088	10,927.7	71.6592	10,927.7	74.3835	10,927.7	68.9485	10,927.7	71.4316	10,927.7	64.4142	10,927.7	67.9417	10,927.7	60.4906	10,927.7	66.0138	10,927.7	62.3294	10,927.7	63.6815	10,927.7	61.4894	10,927.7	61.9016	10,927.7	56.7377	10,927.7	55.8201	10,927.7	61.9249	10,927.7	60.8963	10,927.7	53.4576	10,927.7	51.9384	10,927.7	57.1811
11,313	86.7318	11,313	87.5152	11,313	87.8579	11,313	85.8148	11,313	86.1367	11,313	84.4981	11,313	85.0173	11,313	83.1929	11,313	84.0184	11,313	81.3917	11,313	82.1273	11,313	79.0189	11,313	80.9415	11,313	76.2486	11,313	78.9807	11,313	73.4519	11,313	76.9362	11,313	71.549	11,313	74.2701	11,313	67.4841	11,313	70.563	11,313	64.6043	11,313	68.2006	11,313	62.1628	11,313	64.4083	11,313	59.9748	11,313	59.9957	11,313	56.6541	11,313	60.252	11,313	51.3872	11,313	56.7714	11,313	57.7609	11,313	60.4847	11,313	56.103	11,313	50.1274	11,313	57.4888
11,712.9	86.3704	11,712.9	87.564	11,712.9	87.6726	11,712.9	85.8781	11,712.9	85.9035	11,712.9	84.6091	11,712.9	84.398	11,712.9	83.3212	11,712.9	83.6976	11,712.9	80.6764	11,712.9	81.1891	11,712.9	77.5286	11,712.9	79.9599	11,712.9	75.4655	11,712.9	78.1586	11,712.9	75.0086	11,712.9	76.5623	11,712.9	70.9022	11,712.9	73.9181	11,712.9	68.6966	11,712.9	72.2255	11,712.9	65.3554	11,712.9	67.4664	11,712.9	63.9103	11,712.9	65.002	11,712.9	58.2352	11,712.9	62.4325	11,712.9	59.2773	11,712.9	59.6799	11,712.9	48.5946	11,712.9	57.5499	11,712.9	57.6561	11,712.9	57.3737	11,712.9	54.6725	11,712.9	50.7716	11,712.9	57.0439
12,126	86.8426	12,126	88.0958	12,126	88.0279	12,126	85.4836	12,126	85.3949	12,126	84.5667	12,126	84.7179	12,126	82.2427	12,126	83.0547	12,126	78.7768	12,126	80.3697	12,126	77.2376	12,126	79.2612	12,126	75.5471	12,126	77.3839	12,126	72.8805	12,126	75.8098	12,126	69.8944	12,126	72.5868	12,126	67.2755	12,126	70.1466	12,126	64.474	12,126	67.0947	12,126	60.9302	12,126	65.0452	12,126	57.6609	12,126	58.5057	12,126	54.4854	12,126	56.4737	12,126	50.6058	12,126	51.4155	12,126	53.1716	12,126	57.0475	12,126	43.0324	12,126	58.0622	12,126	57.4776
12,553.7	87.2405	12,553.7	87.8614	12,553.7	87.6953	12,553.7	85.9021	12,553.7	85.3609	12,553.7	84.1844	12,553.7	84.0685	12,553.7	81.2675	12,553.7	82.5139	12,553.7	77.7233	12,553.7	79.266	12,553.7	76.8833	12,553.7	79.0737	12,553.7	74.1535	12,553.7	77.361	12,553.7	71.7892	12,553.7	74.2106	12,553.7	69.7113	12,553.7	71.5576	12,553.7	68.252	12,553.7	67.9036	12,553.7	63.8092	12,553.7	64.9905	12,553.7	61.0899	12,553.7	63.0085	12,553.7	55.7872	12,553.7	57.4332	12,553.7	57.7505	12,553.7	58.6011	12,553.7	44.1843	12,553.7	56.7065	12,553.7	49.8449	12,553.7	60.0552	12,553.7	51.8765	12,553.7	53.7169	12,553.7	54.5117
12,996.1	87.7219	12,996.1	87.9707	12,996.1	87.5079	12,996.1	85.8997	12,996.1	84.6801	12,996.1	83.7308	12,996.1	83.3256	12,996.1	80.5133	12,996.1	81.5252	12,996.1	77.382	12,996.1	78.6153	12,996.1	75.9199	12,996.1	78.2363	12,996.1	73.2693	12,996.1	75.1784	12,996.1	72.9557	12,996.1	72.2081	12,996.1	70.2989	12,996.1	71.0367	12,996.1	68.0933	12,996.1	68.9818	12,996.1	63.8065	12,996.1	65.2937	12,996.1	62.7587	12,996.1	63.5249	12,996.1	57.1973	12,996.1	53.1325	12,996.1	55.1724	12,996.1	54.392	12,996.1	47.5486	12,996.1	53.5187	12,996.1	47.4157	12,996.1	51.6588	12,996.1	54.8861	12,996.1	52.3332	12,996.1	55.7031
13,454.6	88.0725	13,454.6	87.4409	13,454.6	86.7214	13,454.6	85.6545	13,454.6	83.8813	13,454.6	82.9393	13,454.6	82.5894	13,454.6	78.9181	13,454.6	80.2986	13,454.6	76.1802	13,454.6	78.4192	13,454.6	72.584	13,454.6	76.0079	13,454.6	73.0886	13,454.6	73.3711	13,454.6	74.5512	13,454.6	73.8434	13,454.6	73.2755	13,454.6	72.7168	13,454.6	71.3507	13,454.6	70.5936	13,454.6	67.1947	13,454.6	66.9313	13,454.6	63.4489	13,454.6	65.1122	13,454.6	51.792	13,454.6	58.8084	13,454.6	58.0117	13,454.6	57.1984	13,454.6	51.9275	13,454.6	58.7252	13,454.6	48.5352	13,454.6	55.1376	13,454.6	49.9962	13,454.6	52.392	13,454.6	52.7215
13,929.2	88.1054	13,929.2	85.4436	13,929.2	84.2385	13,929.2	85.5503	13,929.2	83.5196	13,929.2	79.7323	13,929.2	79.4948	13,929.2	77.6349	13,929.2	79.5249	13,929.2	73.1918	13,929.2	76.478	13,929.2	70.953	13,929.2	70.8424	13,929.2	77.513	13,929.2	76.6028	13,929.2	77.9899	13,929.2	77.6084	13,929.2	75.6758	13,929.2	75.8577	13,929.2	72.5183	13,929.2	72.4716	13,929.2	68.3703	13,929.2	67.8948	13,929.2	64.5168	13,929.2	67.4881	13,929.2	59.4449	13,929.2	60.7347	13,929.2	56.1927	13,929.2	56.8691	13,929.2	42.5526	13,929.2	57.9574	13,929.2	52.6477	13,929.2	46.2555	13,929.2	51.1381	13,929.2	52.4911	13,929.2	47.6405
14,419.9	87.5689	14,419.9	82.3207	14,419.9	79.8361	14,419.9	84.7564	14,419.9	83.3389	14,419.9	76.3057	14,419.9	76.831	14,419.9	76.0337	14,419.9	78.7706	14,419.9	65.0557	14,419.9	72.9302	14,419.9	77.2583	14,419.9	74.7864	14,419.9	79.7826	14,419.9	79.4151	14,419.9	78.3739	14,419.9	78.3516	14,419.9	76.555	14,419.9	76.7092	14,419.9	71.5896	14,419.9	73.3538	14,419.9	68.0424	14,419.9	68.5751	14,419.9	65.8464	14,419.9	68.2524	14,419.9	54.9373	14,419.9	60.4816	14,419.9	57.6871	14,419.9	60.0899	14,419.9	48.2704	14,419.9	58.102	14,419.9	51.9353	14,419.9	51.5835	14,419.9	46.0271	14,419.9	45.6979	14,419.9	49.1825
14,928.2	85.9146	14,928.2	81.4905	14,928.2	78.3324	14,928.2	82.8731	14,928.2	81.7166	14,928.2	76.265	14,928.2	77.5475	14,928.2	70.7144	14,928.2	76.3463	14,928.2	73.3234	14,928.2	70.8066	14,928.2	79.9334	14,928.2	78.3715	14,928.2	79.39	14,928.2	80.0803	14,928.2	77.4786	14,928.2	77.3946	14,928.2	75.6386	14,928.2	75.9687	14,928.2	70.2032	14,928.2	71.2597	14,928.2	68.7365	14,928.2	68.5866	14,928.2	63.4375	14,928.2	67.1948	14,928.2	58.2528	14,928.2	60.7802	14,928.2	53.4633	14,928.2	57.1166	14,928.2	49.4652	14,928.2	58.7129	14,928.2	53.9675	14,928.2	52.0127	14,928.2	45.7049	14,928.2	49.0084	14,928.2	56.4732
15,455.6	81.5184	15,455.6	80.4874	15,455.6	79.1441	15,455.6	79.3658	15,455.6	77.884	15,455.6	76.5303	15,455.6	78.3233	15,455.6	70.1581	15,455.6	64.4366	15,455.6	77.3742	15,455.6	74.6734	15,455.6	79.6314	15,455.6	78.5779	15,455.6	77.6542	15,455.6	78.3775	15,455.6	76.4363	15,455.6	77.1231	15,455.6	74.7146	15,455.6	75.8994	15,455.6	69.9764	15,455.6	70.524	15,455.6	68.749	15,455.6	68.9841	15,455.6	62.0721	15,455.6	66.4355	15,455.6	53.157	15,455.6	59.2437	15,455.6	53.7295	15,455.6	57.6844	15,455.6	51.9301	15,455.6	59.8385	15,455.6	51.3938	15,455.6	50.6961	15,455.6	59.8202	15,455.6	60.4535	15,455.6	60.091
16,000.5	59.5264	16,000.5	80.1925	16,000.5	80.7905	16,000.5	76.1845	16,000.5	78.644	16,000.5	73.7864	16,000.5	77.3162	16,000.5	78.157	16,000.5	74.2603	16,000.5	77.6344	16,000.5	75.4826	16,000.5	78.095	16,000.5	77.4642	16,000.5	77.8952	16,000.5	78.1459	16,000.5	76.6489	16,000.5	77.1932	16,000.5	74.5716	16,000.5	75.1008	16,000.5	68.6557	16,000.5	71.152	16,000.5	68.045	16,000.5	68.1208	16,000.5	61.4337	16,000.5	64.7522	16,000.5	54.4822	16,000.5	58.0642	16,000.5	49.6101	16,000.5	57.9081	16,000.5	55.4468	16,000.5	58.8513	16,000.5	50.7238	16,000.5	50.9001	16,000.5	62.015	16,000.5	62.1335	16,000.5	62.3654
16,564.5	76.6874	16,564.5	79.5703	16,564.5	80.9297	16,564.5	77.2038	16,564.5	80.4714	16,564.5	67.9234	16,564.5	73.9462	16,564.5	80.0066	16,564.5	78.303	16,564.5	77.1037	16,564.5	75.543	16,564.5	77.6819	16,564.5	77.4084	16,564.5	77.9304	16,564.5	78.0238	16,564.5	74.9739	16,564.5	75.9723	16,564.5	70.1231	16,564.5	71.8114	16,564.5	67.5105	16,564.5	69.2325	16,564.5	63.2955	16,564.5	64.7289	16,564.5	55.853	16,564.5	59.1511	16,564.5	52.6159	16,564.5	54.0273	16,564.5	46.6674	16,564.5	52.5573	16,564.5	54.1094	16,564.5	58.2541	16,564.5	55.9338	16,564.5	56.0157	16,564.5	60.9834	16,564.5	61.3653	16,564.5	61.3134
17,148.9	78.4011	17,148.9	76.956	17,148.9	79.1628	17,148.9	74.8632	17,148.9	79.4624	17,148.9	71.7682	17,148.9	71.5407	17,148.9	79.7124	17,148.9	78.4952	17,148.9	77.7696	17,148.9	76.6056	17,148.9	78.0122	17,148.9	78.0752	17,148.9	76.0893	17,148.9	77.4734	17,148.9	72.4441	17,148.9	74.0839	17,148.9	67.2326	17,148.9	69.5244	17,148.9	64.9889	17,148.9	67.1618	17,148.9	59.3415	17,148.9	60.9768	17,148.9	50.484	17,148.9	57.2756	17,148.9	47.5173	17,148.9	51.1356	17,148.9	47.106	17,148.9	51.8149	17,148.9	47.0173	17,148.9	55.6091	17,148.9	55.791	17,148.9	54.9943	17,148.9	59.4157	17,148.9	58.2786	17,148.9	58.1594
17,752.4	76.2642	17,752.4	71.8044	17,752.4	74.8744	17,752.4	68.3268	17,752.4	76.1053	17,752.4	76.1028	17,752.4	71.7026	17,752.4	78.5733	17,752.4	78.4076	17,752.4	78.1538	17,752.4	77.6096	17,752.4	76.4714	17,752.4	77.6468	17,752.4	73.5782	17,752.4	75.8427	17,752.4	70.8086	17,752.4	72.5781	17,752.4	67.8114	17,752.4	68.3295	17,752.4	63.4201	17,752.4	66.163	17,752.4	59.1238	17,752.4	59.817	17,752.4	53.5401	17,752.4	55.3492	17,752.4	49.2044	17,752.4	43.6947	17,752.4	40.5963	17,752.4	48.8804	17,752.4	46.7478	17,752.4	52.163	17,752.4	54.4754	17,752.4	54.9115	17,752.4	57.7993	17,752.4	53.3241	17,752.4	54.455
18,379.4	70.953	18,379.4	61.9095	18,379.4	67.6567	18,379.4	62.0201	18,379.4	68.1093	18,379.4	78.2992	18,379.4	75.7694	18,379.4	78.384	18,379.4	78.2091	18,379.4	77.7428	18,379.4	78.1802	18,379.4	73.0328	18,379.4	75.3819	18,379.4	71.9716	18,379.4	73.0706	18,379.4	71.0376	18,379.4	71.518	18,379.4	68.5536	18,379.4	68.412	18,379.4	63.8106	18,379.4	64.8796	18,379.4	60.9471	18,379.4	59.4308	18,379.4	52.5505	18,379.4	56.7498	18,379.4	45.5808	18,379.4	44.6167	18,379.4	42.8942	18,379.4	47.442	18,379.4	30.1294	18,379.4	51.7408	18,379.4	51.008	18,379.4	52.6214	18,379.4	56.9722	18,379.4	47.9882	18,379.4	48.854
19,026.9	62.5801	19,026.9	70.684	19,026.9	69.1849	19,026.9	73.7883	19,026.9	63.1421	19,026.9	78.8771	19,026.9	78.0504	19,026.9	78.5394	19,026.9	79.0471	19,026.9	75.6776	19,026.9	76.7667	19,026.9	72.2443	19,026.9	71.7104	19,026.9	72.7058	19,026.9	72.3096	19,026.9	70.4189	19,026.9	70.8151	19,026.9	67.5395	19,026.9	67.7871	19,026.9	62.0759	19,026.9	62.6348	19,026.9	60.2677	19,026.9	59.0981	19,026.9	51.4819	19,026.9	54.8673	19,026.9	38.1414	19,026.9	48.8345	19,026.9	39.5348	19,026.9	41.9402	19,026.9	45.7704	19,026.9	45.0604	19,026.9	46.3592	19,026.9	47.7013	19,026.9	50.2668	19,026.9	31.573	19,026.9	46.0171
19,697.8	73.0024	19,697.8	75.0356	19,697.8	69.7363	19,697.8	77.3876	19,697.8	73.719	19,697.8	78.1155	19,697.8	78.0985	19,697.8	78.3047	19,697.8	79.0951	19,697.8	74.1317	19,697.8	73.9238	19,697.8	73.8164	19,697.8	73.0379	19,697.8	72.1639	19,697.8	72.214	19,697.8	68.4398	19,697.8	68.3777	19,697.8	65.4024	19,697.8	65.6012	19,697.8	59.8131	19,697.8	60.7249	19,697.8	58.3525	19,697.8	56.3985	19,697.8	49.4846	19,697.8	49.0163	19,697.8	47.1798	19,697.8	51.0763	19,697.8	37.5123	19,697.8	36.3386	19,697.8	46.7551	19,697.8	40.6798	19,697.8	42.3952	19,697.8	42.9604	19,697.8	43.4967	19,697.8	41.8507	19,697.8	49.6897
19,999.5	75.417	19,999.5	76.4216	19,999.5	70.4064	19,999.5	78.163	19,999.5	75.8771	19,999.5	77.4762	19,999.5	78.0987	19,999.5	77.5111	19,999.5	78.8301	19,999.5	74.4517	19,999.5	73.3306	19,999.5	74.0664	19,999.5	73.3544	19,999.5	71.7981	19,999.5	71.2912	19,999.5	67.1646	19,999.5	67.4467	19,999.5	64.3899	19,999.5	65.9995	19,999.5	58.445	19,999.5	61.8733	19,999.5	59.19	19,999.5	55.3089	19,999.5	43.2851	19,999.5	41.3988	19,999.5	56.1223	19,999.5	52.552	19,999.5	48.6473	19,999.5	42.2891	19,999.5	44.384	19,999.5	45.4141	19,999.5	44.5958	19,999.5	26.8519	19,999.5	51.3113	19,999.5	50.2412	19,999.5	52.7404
