"SPL Vertical"
"On-Axis"		"10°"		"-10°"		"20°"		"-20°"		"30°"		"-30°"		"40°"		"-40°"		"50°"		"-50°"		"60°"		"-60°"		"70°"		"-70°"		"80°"		"-80°"		"90°"		"-90°"		"100°"		"-100°"		"110°"		"-110°"		"120°"		"-120°"		"130°"		"-130°"		"140°"		"-140°"		"150°"		"-150°"		"160°"		"-160°"		"170°"		"-170°"		"180°"
"Frequency / Hz"	"Sound Pressure Level / dB (re 20 µPa/V)  [2.83  V @ 1. m]"	"Frequency / Hz"	"Sound Pressure Level / dB (re 20 µPa/V)  [2.83  V @ 1. m]"	"Frequency / Hz"	"Sound Pressure Level / dB (re 20 µPa/V)  [2.83  V @ 1. m]"	"Frequency / Hz"	"Sound Pressure Level / dB (re 20 µPa/V)  [2.83  V @ 1. m]"	"Frequency / Hz"	"Sound Pressure Level / dB (re 20 µPa/V)  [2.83  V @ 1. m]"	"Frequency / Hz"	"Sound Pressure Level / dB (re 20 µPa/V)  [2.83  V @ 1. m]"	"Frequency / Hz"	"Sound Pressure Level / dB (re 20 µPa/V)  [2.83  V @ 1. m]"	"Frequency / Hz"	"Sound Pressure Level / dB (re 20 µPa/V)  [2.83  V @ 1. m]"	"Frequency / Hz"	"Sound Pressure Level / dB (re 20 µPa/V)  [2.83  V @ 1. m]"	"Frequency / Hz"	"Sound Pressure Level / dB (re 20 µPa/V)  [2.83  V @ 1. m]"	"Frequency / Hz"	"Sound Pressure Level / dB (re 20 µPa/V)  [2.83  V @ 1. m]"	"Frequency / Hz"	"Sound Pressure Level / dB (re 20 µPa/V)  [2.83  V @ 1. m]"	"Frequency / Hz"	"Sound Pressure Level / dB (re 20 µPa/V)  [2.83  V @ 1. m]"	"Frequency / Hz"	"Sound Pressure Level / dB (re 20 µPa/V)  [2.83  V @ 1. m]"	"Frequency / Hz"	"Sound Pressure Level / dB (re 20 µPa/V)  [2.83  V @ 1. m]"	"Frequency / Hz"	"Sound Pressure Level / dB (re 20 µPa/V)  [2.83  V @ 1. m]"	"Frequency / Hz"	"Sound Pressure Level / dB (re 20 µPa/V)  [2.83  V @ 1. m]"	"Frequency / Hz"	"Sound Pressure Level / dB (re 20 µPa/V)  [2.83  V @ 1. m]"	"Frequency / Hz"	"Sound Pressure Level / dB (re 20 µPa/V)  [2.83  V @ 1. m]"	"Frequency / Hz"	"Sound Pressure Level / dB (re 20 µPa/V)  [2.83  V @ 1. m]"	"Frequency / Hz"	"Sound Pressure Level / dB (re 20 µPa/V)  [2.83  V @ 1. m]"	"Frequency / Hz"	"Sound Pressure Level / dB (re 20 µPa/V)  [2.83  V @ 1. m]"	"Frequency / Hz"	"Sound Pressure Level / dB (re 20 µPa/V)  [2.83  V @ 1. m]"	"Frequency / Hz"	"Sound Pressure Level / dB (re 20 µPa/V)  [2.83  V @ 1. m]"	"Frequency / Hz"	"Sound Pressure Level / dB (re 20 µPa/V)  [2.83  V @ 1. m]"	"Frequency / Hz"	"Sound Pressure Level / dB (re 20 µPa/V)  [2.83  V @ 1. m]"	"Frequency / Hz"	"Sound Pressure Level / dB (re 20 µPa/V)  [2.83  V @ 1. m]"	"Frequency / Hz"	"Sound Pressure Level / dB (re 20 µPa/V)  [2.83  V @ 1. m]"	"Frequency / Hz"	"Sound Pressure Level / dB (re 20 µPa/V)  [2.83  V @ 1. m]"	"Frequency / Hz"	"Sound Pressure Level / dB (re 20 µPa/V)  [2.83  V @ 1. m]"	"Frequency / Hz"	"Sound Pressure Level / dB (re 20 µPa/V)  [2.83  V @ 1. m]"	"Frequency / Hz"	"Sound Pressure Level / dB (re 20 µPa/V)  [2.83  V @ 1. m]"	"Frequency / Hz"	"Sound Pressure Level / dB (re 20 µPa/V)  [2.83  V @ 1. m]"	"Frequency / Hz"	"Sound Pressure Level / dB (re 20 µPa/V)  [2.83  V @ 1. m]"	"Frequency / Hz"	"Sound Pressure Level / dB (re 20 µPa/V)  [2.83  V @ 1. m]"	"Frequency / Hz"	"Sound Pressure Level / dB (re 20 µPa/V)  [2.83  V @ 1. m]"
20.5078	52.1703	20.5078	52.045	20.5078	52.0897	20.5078	51.7088	20.5078	51.8059	20.5078	51.1567	20.5078	51.3234	20.5078	50.3975	20.5078	50.6628	20.5078	49.4921	20.5078	49.8946	20.5078	48.6436	20.5078	49.206	20.5078	48.2926	20.5078	48.9511	20.5078	48.8955	20.5078	49.4785	20.5078	50.3624	20.5078	50.7502	20.5078	52.1812	20.5078	52.3868	20.5078	53.9666	20.5078	54.0506	20.5078	55.5572	20.5078	55.5708	20.5078	56.9051	20.5078	56.8823	20.5078	58.0016	20.5078	57.964	20.5078	58.8486	20.5078	58.8101	20.5078	59.4489	20.5078	59.4187	20.5078	59.8048	20.5078	59.7883	20.5078	59.9175
21.9727	54.0399	21.9727	53.9494	21.9727	53.9936	21.9727	53.7293	21.9727	53.8156	21.9727	53.4039	21.9727	53.5271	21.9727	53.0277	21.9727	53.176	21.9727	52.7044	21.9727	52.8555	21.9727	52.5954	21.9727	52.7149	21.9727	52.8735	21.9727	52.9265	21.9727	53.6111	21.9727	53.5843	21.9727	54.716	21.9727	54.6251	21.9727	56.0063	21.9727	55.8793	21.9727	57.3191	21.9727	57.18	21.9727	58.549	21.9727	58.4133	21.9727	59.6367	21.9727	59.5139	21.9727	60.5506	21.9727	60.4464	21.9727	61.2722	21.9727	61.1907	21.9727	61.7905	21.9727	61.7344	21.9727	62.0983	21.9727	62.0697	21.9727	62.1916
23.4375	55.9667	23.4375	55.9109	23.4375	55.9048	23.4375	55.7432	23.4375	55.7315	23.4375	55.4841	23.4375	55.4675	23.4375	55.1778	23.4375	55.1574	23.4375	54.906	23.4375	54.8826	23.4375	54.7941	23.4375	54.7677	23.4375	54.9839	23.4375	54.9538	23.4375	55.5589	23.4375	55.5244	23.4375	56.4803	23.4375	56.4417	23.4375	57.614	23.4375	57.5731	23.4375	58.8129	23.4375	58.7717	23.4375	59.9665	23.4375	59.927	23.4375	61.0057	23.4375	60.9697	23.4375	61.89	23.4375	61.8589	23.4375	62.5954	23.4375	62.5706	23.4375	63.107	23.4375	63.0897	23.4375	63.4155	23.4375	63.4066	23.4375	63.5159
24.9023	57.707	24.9023	57.6493	24.9023	57.6786	24.9023	57.5121	24.9023	57.5707	24.9023	57.3182	24.9023	57.4052	24.9023	57.1127	24.9023	57.2245	24.9023	56.9692	24.9023	57.0974	24.9023	56.9875	24.9023	57.1164	24.9023	57.2653	24.9023	57.3749	24.9023	57.8493	24.9023	57.9232	24.9023	58.7026	24.9023	58.7353	24.9023	59.726	24.9023	59.7229	24.9023	60.808	24.9023	60.78	24.9023	61.8582	24.9023	61.816	24.9023	62.8138	24.9023	62.7666	24.9023	63.6341	24.9023	63.5887	24.9023	64.2925	24.9023	64.2541	24.9023	64.7716	24.9023	64.7439	24.9023	65.0602	24.9023	65.0457	24.9023	65.1521
26.3672	60.3855	26.3672	60.3539	26.3672	60.3611	26.3672	60.2718	26.3672	60.2848	26.3672	60.156	26.3672	60.1715	26.3672	60.0365	26.3672	60.0498	26.3672	59.9595	26.3672	59.9641	26.3672	59.9846	26.3672	59.9737	26.3672	60.1738	26.3672	60.142	26.3672	60.5686	26.3672	60.5144	26.3672	61.1688	26.3672	61.0958	26.3672	61.9296	26.3672	61.8449	26.3672	62.7797	26.3672	62.6911	26.3672	63.6446	26.3672	63.5588	26.3672	64.4612	26.3672	64.3833	26.3672	65.1813	26.3672	65.1149	26.3672	65.7702	26.3672	65.718	26.3672	66.2039	26.3672	66.1679	26.3672	66.4663	26.3672	66.448	26.3672	66.5486
27.832	61.9997	27.832	61.9682	27.832	61.9684	27.832	61.8796	27.832	61.8786	27.832	61.7503	27.832	61.7451	27.832	61.6099	27.832	61.5966	27.832	61.5047	27.832	61.4783	27.832	61.4963	27.832	61.4519	27.832	61.6505	27.832	61.585	27.832	62.0144	27.832	61.9285	27.832	62.5928	27.832	62.4912	27.832	63.342	27.832	63.2322	27.832	64.1888	27.832	64.0786	27.832	65.0556	27.832	64.9515	27.832	65.8764	27.832	65.7833	27.832	66.6012	27.832	66.5227	27.832	67.1943	27.832	67.1331	27.832	67.6308	27.832	67.5889	27.832	67.8945	27.832	67.8732	27.832	67.9763
29.2969	63.58	29.2969	63.5588	29.2969	63.5569	29.2969	63.4989	29.2969	63.4939	29.2969	63.416	29.2969	63.4058	29.2969	63.338	29.2969	63.3194	29.2969	63.305	29.2969	63.2749	29.2969	63.3669	29.2969	63.3227	29.2969	63.5729	29.2969	63.5138	29.2969	63.9547	29.2969	63.8826	29.2969	64.5113	29.2969	64.4307	29.2969	65.207	29.2969	65.1239	29.2969	65.984	29.2969	65.9035	29.2969	66.7788	29.2969	66.7052	29.2969	67.5349	29.2969	67.4709	29.2969	68.2069	29.2969	68.1542	29.2969	68.7604	29.2969	68.7201	29.2969	69.1707	29.2969	69.1434	29.2969	69.4206	29.2969	69.4068	29.2969	69.5004
30.7617	65.2778	30.7617	65.2817	30.7617	65.2525	30.7617	65.2688	30.7617	65.21	30.7617	65.2525	30.7617	65.1636	30.7617	65.2551	30.7617	65.1365	30.7617	65.3067	30.7617	65.1609	30.7617	65.442	30.7617	65.2743	30.7617	65.6928	30.7617	65.5112	30.7617	66.0778	30.7617	65.8918	30.7617	66.5943	30.7617	66.4134	30.7617	67.2171	30.7617	67.0485	30.7617	67.9045	30.7617	67.7527	30.7617	68.6083	30.7617	68.4757	30.7617	69.282	30.7617	69.1695	30.7617	69.8849	30.7617	69.7933	30.7617	70.3843	30.7617	70.3143	30.7617	70.755	30.7617	70.7076	30.7617	70.9795	30.7617	70.9556	30.7617	71.0475
32.2266	67.1082	32.2266	67.0994	32.2266	67.1018	32.2266	67.0788	32.2266	67.0838	32.2266	67.0573	32.2266	67.0651	32.2266	67.0532	32.2266	67.064	32.2266	67.0916	32.2266	67.1051	32.2266	67.2015	32.2266	67.217	32.2266	67.4108	32.2266	67.4265	32.2266	67.7377	32.2266	67.7514	32.2266	68.1838	32.2266	68.1934	32.2266	68.7313	32.2266	68.7355	32.2266	69.3465	32.2266	69.3449	32.2266	69.9868	32.2266	69.9802	32.2266	70.6088	32.2266	70.5988	32.2266	71.1728	32.2266	71.1613	32.2266	71.6456	32.2266	71.6345	32.2266	72.001	32.2266	71.9923	32.2266	72.2205	32.2266	72.2158	32.2266	72.2932
33.6914	68.8626	33.6914	68.8589	33.6914	68.8594	33.6914	68.8516	33.6914	68.8522	33.6914	68.8502	33.6914	68.85	33.6914	68.8701	33.6914	68.8676	33.6914	68.9317	33.6914	68.925	33.6914	69.058	33.6914	69.0453	33.6914	69.2703	33.6914	69.2498	33.6914	69.5827	33.6914	69.5532	33.6914	69.9964	33.6914	69.9577	33.6914	70.4974	33.6914	70.4505	33.6914	71.0581	33.6914	71.0053	33.6914	71.6428	33.6914	71.5872	33.6914	72.2129	33.6914	72.1582	33.6914	72.7319	33.6914	72.6819	33.6914	73.1678	33.6914	73.1263	33.6914	73.4952	33.6914	73.4655	33.6914	73.6958	33.6914	73.6802	33.6914	73.7585
35.1562	70.6287	35.1562	70.6275	35.1562	70.6277	35.1562	70.6273	35.1562	70.6268	35.1562	70.6362	35.1562	70.6332	35.1562	70.6671	35.1562	70.6593	35.1562	70.737	35.1562	70.7219	35.1562	70.8647	35.1562	70.8402	35.1562	71.0678	35.1562	71.0327	35.1562	71.3579	35.1562	71.3123	35.1562	71.7366	35.1562	71.682	35.1562	72.1928	35.1562	72.1322	35.1562	72.7039	35.1562	72.641	35.1562	73.2393	35.1562	73.1777	35.1562	73.7646	35.1562	73.7076	35.1562	74.2458	35.1562	74.1964	35.1562	74.6525	35.1562	74.6131	35.1562	74.9595	35.1562	74.9321	35.1562	75.1484	35.1562	75.1343	35.1562	75.2078
36.6211	72.0742	36.6211	72.0793	36.6211	72.074	36.6211	72.0918	36.6211	72.0805	36.6211	72.1183	36.6211	72.1002	36.6211	72.1694	36.6211	72.1435	36.6211	72.2588	36.6211	72.2239	36.6211	72.4011	36.6211	72.3567	36.6211	72.6097	36.6211	72.5562	36.6211	72.8933	36.6211	72.8318	36.6211	73.2525	36.6211	73.1852	36.6211	73.6779	36.6211	73.6078	36.6211	74.1506	36.6211	74.0809	36.6211	74.6445	36.6211	74.5782	36.6211	75.1293	36.6211	75.0693	36.6211	75.5745	36.6211	75.5233	36.6211	75.9518	36.6211	75.9113	36.6211	76.2372	36.6211	76.2093	36.6211	76.4129	36.6211	76.3986	36.6211	76.4679
38.0859	73.6866	38.0859	73.6939	38.0859	73.6882	38.0859	73.7121	38.0859	73.7003	38.0859	73.7463	38.0859	73.7281	38.0859	73.8046	38.0859	73.78	38.0859	73.8976	38.0859	73.867	38.0859	74.0366	38.0859	74.0011	38.0859	74.2323	38.0859	74.1936	38.0859	74.4916	38.0859	74.4519	38.0859	74.8157	38.0859	74.7773	38.0859	75.1981	38.0859	75.1628	38.0859	75.6238	38.0859	75.5928	38.0859	76.0711	38.0859	76.045	38.0859	76.5136	38.0859	76.4925	38.0859	76.9235	38.0859	76.9071	38.0859	77.2741	38.0859	77.262	38.0859	77.542	38.0859	77.5341	38.0859	77.7095	38.0859	77.7056	38.0859	77.7653
39.5508	75.165	39.5508	75.172	39.5508	75.17	39.5508	75.1924	39.5508	75.1882	39.5508	75.2303	39.5508	75.2238	39.5508	75.2924	39.5508	75.2833	39.5508	75.3869	39.5508	75.3753	39.5508	75.5229	39.5508	75.5093	39.5508	75.7089	39.5508	75.6939	39.5508	75.9506	39.5508	75.9352	39.5508	76.2491	39.5508	76.2342	39.5508	76.5989	39.5508	76.5854	39.5508	76.9878	39.5508	76.9762	39.5508	77.3971	39.5508	77.3875	39.5508	77.8035	39.5508	77.7959	39.5508	78.1816	39.5508	78.1757	39.5508	78.5065	39.5508	78.5021	39.5508	78.7559	39.5508	78.753	39.5508	78.9126	39.5508	78.9111	39.5508	78.9656
41.0156	77.097	41.0156	77.1003	41.0156	77.1089	41.0156	77.1198	41.0156	77.1373	41.0156	77.1583	41.0156	77.1853	41.0156	77.2208	41.0156	77.2579	41.0156	77.3133	41.0156	77.3614	41.0156	77.4431	41.0156	77.5028	41.0156	77.617	41.0156	77.6884	41.0156	77.8399	41.0156	77.9222	41.0156	78.1136	41.0156	78.2047	41.0156	78.4343	41.0156	78.5308	41.0156	78.7924	41.0156	78.8899	41.0156	79.1721	41.0156	79.2657	41.0156	79.5528	41.0156	79.6377	41.0156	79.9109	41.0156	79.983	41.0156	80.2225	41.0156	80.2788	41.0156	80.4657	41.0156	80.5041	41.0156	80.6231	41.0156	80.6425	41.0156	80.6833
42.4805	77.6044	42.4805	77.6124	42.4805	77.6126	42.4805	77.6372	42.4805	77.6379	42.4805	77.6813	42.4805	77.683	42.4805	77.7488	42.4805	77.752	42.4805	77.8451	42.4805	77.8501	42.4805	77.9761	42.4805	77.9831	42.4805	78.1475	42.4805	78.156	42.4805	78.3633	42.4805	78.3724	42.4805	78.6241	42.4805	78.6327	42.4805	78.9262	42.4805	78.9329	42.4805	79.2605	42.4805	79.2642	42.4805	79.6125	42.4805	79.6126	42.4805	79.9632	42.4805	79.96	42.4805	80.2911	42.4805	80.2854	42.4805	80.5739	42.4805	80.5674	42.4805	80.7917	42.4805	80.7861	42.4805	80.9284	42.4805	80.9251	42.4805	80.9739
43.9453	78.4474	43.9453	78.4516	43.9453	78.4627	43.9453	78.476	43.9453	78.498	43.9453	78.5225	43.9453	78.555	43.9453	78.5945	43.9453	78.6365	43.9453	78.6956	43.9453	78.746	43.9453	78.8304	43.9453	78.8873	43.9453	79.0026	43.9453	79.0639	43.9453	79.2148	43.9453	79.2778	43.9453	79.4668	43.9453	79.5286	43.9453	79.7548	43.9453	79.8128	43.9453	80.0706	43.9453	80.1224	43.9453	80.4016	43.9453	80.4455	43.9453	80.7309	43.9453	80.766	43.9453	81.039	43.9453	81.0654	43.9453	81.3058	43.9453	81.3241	43.9453	81.5125	43.9453	81.5238	43.9453	81.644	43.9453	81.6493	43.9453	81.6906
45.4102	79.3989	45.4102	79.406	45.4102	79.4101	45.4102	79.4319	45.4102	79.4402	45.4102	79.4776	45.4102	79.4907	45.4102	79.5454	45.4102	79.5637	45.4102	79.638	45.4102	79.6616	45.4102	79.7587	45.4102	79.7874	45.4102	79.9105	45.4102	79.9436	45.4102	80.0956	45.4102	80.1318	45.4102	80.3143	45.4102	80.3521	45.4102	80.5641	45.4102	80.6016	45.4102	80.8388	45.4102	80.8741	45.4102	81.1281	45.4102	81.1595	45.4102	81.4179	45.4102	81.4443	45.4102	81.691	45.4102	81.7118	45.4102	81.9291	45.4102	81.9441	45.4102	82.1146	45.4102	82.1243	45.4102	82.2332	45.4102	82.2378	45.4102	82.2753
46.875	79.922	46.875	79.9279	46.875	79.9345	46.875	79.9526	46.875	79.9658	46.875	79.9973	46.875	80.0169	46.875	80.0639	46.875	80.0896	46.875	80.155	46.875	80.186	46.875	80.2731	46.875	80.3084	46.875	80.4208	46.875	80.4591	46.875	80.5996	46.875	80.6393	46.875	80.8093	46.875	80.8488	46.875	81.0475	46.875	81.085	46.875	81.3083	46.875	81.3423	46.875	81.5822	46.875	81.6115	46.875	81.8562	46.875	81.8801	46.875	82.1143	46.875	82.1326	46.875	82.3395	46.875	82.3524	46.875	82.515	46.875	82.523	46.875	82.6271	46.875	82.6309	46.875	82.6667
48.3398	80.3255	48.3398	80.3321	48.3398	80.3393	48.3398	80.3594	48.3398	80.3738	48.3398	80.4081	48.3398	80.4296	48.3398	80.4793	48.3398	80.5075	48.3398	80.5745	48.3398	80.6086	48.3398	80.6951	48.3398	80.7343	48.3398	80.8426	48.3398	80.8855	48.3398	81.0174	48.3398	81.0624	48.3398	81.2191	48.3398	81.2643	48.3398	81.4449	48.3398	81.4884	48.3398	81.6896	48.3398	81.7297	48.3398	81.945	48.3398	81.9802	48.3398	82.1995	48.3398	82.2288	48.3398	82.4389	48.3398	82.4618	48.3398	82.6477	48.3398	82.6643	48.3398	82.8107	48.3398	82.8214	48.3398	82.9152	48.3398	82.9203	48.3398	82.9527
51.2695	80.9063	51.2695	80.9132	51.2695	80.9214	51.2695	80.9424	51.2695	80.9584	51.2695	80.994	51.2695	81.0169	51.2695	81.0679	51.2695	81.0965	51.2695	81.164	51.2695	81.1971	51.2695	81.2822	51.2695	81.318	51.2695	81.422	51.2695	81.459	51.2695	81.5826	51.2695	81.6192	51.2695	81.7625	51.2695	81.7973	51.2695	81.9593	51.2695	81.991	51.2695	82.1688	51.2695	82.1963	51.2695	82.3847	51.2695	82.4072	51.2695	82.5981	51.2695	82.6155	51.2695	82.7982	51.2695	82.8106	51.2695	82.9723	51.2695	82.9805	51.2695	83.1081	51.2695	83.1129	51.2695	83.1948	51.2695	83.1969	51.2695	83.2252
52.7344	81.135	52.7344	81.1452	52.7344	81.1462	52.7344	81.1768	52.7344	81.1788	52.7344	81.2294	52.7344	81.2323	52.7344	81.3027	52.7344	81.3063	52.7344	81.3961	52.7344	81.4001	52.7344	81.5089	52.7344	81.513	52.7344	81.6404	52.7344	81.6442	52.7344	81.7895	52.7344	81.7925	52.7344	81.9548	52.7344	81.9565	52.7344	82.1339	52.7344	82.134	52.7344	82.3233	52.7344	82.3214	52.7344	82.5176	52.7344	82.5136	52.7344	82.7091	52.7344	82.7035	52.7344	82.8883	52.7344	82.8817	52.7344	83.044	52.7344	83.0374	52.7344	83.1649	52.7344	83.1595	52.7344	83.2411	52.7344	83.2381	52.7344	83.2663
54.1992	81.2431	54.1992	81.2557	54.1992	81.2524	54.1992	81.2898	54.1992	81.2835	54.1992	81.3451	54.1992	81.3358	54.1992	81.4204	54.1992	81.4084	54.1992	81.5149	54.1992	81.5004	54.1992	81.6272	54.1992	81.6105	54.1992	81.756	54.1992	81.7374	54.1992	81.8998	54.1992	81.8794	54.1992	82.0568	54.1992	82.035	54.1992	82.2249	54.1992	82.2018	54.1992	82.4006	54.1992	82.3767	54.1992	82.5792	54.1992	82.5551	54.1992	82.7541	54.1992	82.7308	54.1992	82.917	54.1992	82.8955	54.1992	83.0579	54.1992	83.0397	54.1992	83.1666	54.1992	83.1534	54.1992	83.2344	54.1992	83.2274	54.1992	83.2553
55.6641	81.3718	55.6641	81.3842	55.6641	81.3803	55.6641	81.4173	55.6641	81.4096	55.6641	81.4704	55.6641	81.4588	55.6641	81.5425	55.6641	81.5269	55.6641	81.6321	55.6641	81.6126	55.6641	81.7378	55.6641	81.7143	55.6641	81.8579	55.6641	81.8306	55.6641	81.9906	55.6641	81.9599	55.6641	82.1342	55.6641	82.1005	55.6641	82.2863	55.6641	82.2504	55.6641	82.4441	55.6641	82.407	55.6641	82.6035	55.6641	82.5664	55.6641	82.759	55.6641	82.7234	55.6641	82.9033	55.6641	82.871	55.6641	83.0276	55.6641	83.0009	55.6641	83.1231	55.6641	83.1038	55.6641	83.1818	55.6641	83.1718	55.6641	83.1986
58.5938	81.4647	58.5938	81.4808	58.5938	81.4713	58.5938	81.5189	58.5938	81.5005	58.5938	81.5776	58.5938	81.5517	58.5938	81.6553	58.5938	81.6233	58.5938	81.7496	58.5938	81.7133	58.5938	81.8583	58.5938	81.8193	58.5938	81.9787	58.5938	81.9384	58.5938	82.1084	58.5938	82.068	58.5938	82.2449	58.5938	82.2052	58.5938	82.3857	58.5938	82.3474	58.5938	82.5282	58.5938	82.4917	58.5938	82.6689	58.5938	82.6347	58.5938	82.8035	58.5938	82.7724	58.5938	82.9267	58.5938	82.8995	58.5938	83.0319	58.5938	83.0097	58.5938	83.1122	58.5938	83.0965	58.5938	83.1615	58.5938	83.1533	58.5938	83.1756
60.0586	81.5926	60.0586	81.609	60.0586	81.5982	60.0586	81.6466	60.0586	81.6256	60.0586	81.7039	60.0586	81.6739	60.0586	81.7786	60.0586	81.7412	60.0586	81.8682	60.0586	81.8253	60.0586	81.9696	60.0586	81.9232	60.0586	82.08	60.0586	82.032	60.0586	82.1965	60.0586	82.1487	60.0586	82.3168	60.0586	82.2706	60.0586	82.4387	60.0586	82.3952	60.0586	82.5601	60.0586	82.52	60.0586	82.6785	60.0586	82.6424	60.0586	82.7911	60.0586	82.7594	60.0586	82.8935	60.0586	82.8668	60.0586	82.9809	60.0586	82.9598	60.0586	83.0475	60.0586	83.0329	60.0586	83.0884	60.0586	83.0809	60.0586	83.0999
62.9883	81.7933	62.9883	81.8063	62.9883	81.8015	62.9883	81.84	62.9883	81.8306	62.9883	81.8931	62.9883	81.8791	62.9883	81.9636	62.9883	81.945	62.9883	82.0488	62.9883	82.0256	62.9883	82.1456	62.9883	82.118	62.9883	82.2507	62.9883	82.2189	62.9883	82.361	62.9883	82.3253	62.9883	82.4733	62.9883	82.4342	62.9883	82.5851	62.9883	82.5433	62.9883	82.6938	62.9883	82.6504	62.9883	82.7971	62.9883	82.7537	62.9883	82.8926	62.9883	82.851	62.9883	82.9772	62.9883	82.9397	62.9883	83.0475	62.9883	83.0165	62.9883	83.0996	62.9883	83.0773	62.9883	83.13	62.9883	83.1184	62.9883	83.1364
64.4531	81.8959	64.4531	81.911	64.4531	81.9018	64.4531	81.9464	64.4531	81.9281	64.4531	82.0008	64.4531	81.9736	64.4531	82.0719	64.4531	82.036	64.4531	82.1568	64.4531	82.1127	64.4531	82.2519	64.4531	82.2003	64.4531	82.3538	64.4531	82.2957	64.4531	82.4588	64.4531	82.3955	64.4531	82.5639	64.4531	82.4968	64.4531	82.6662	64.4531	82.5972	64.4531	82.7637	64.4531	82.6947	64.4531	82.8543	64.4531	82.7877	64.4531	82.9363	64.4531	82.8746	64.4531	83.0075	64.4531	82.9535	64.4531	83.0654	64.4531	83.0217	64.4531	83.1071	64.4531	83.0764	64.4531	83.1301	64.4531	83.1142	64.4531	83.1326
67.3828	81.9774	67.3828	81.9954	67.3828	81.9814	67.3828	82.0346	67.3828	82.0069	67.3828	82.0932	67.3828	82.0526	67.3828	82.1685	67.3828	82.1161	67.3828	82.2571	67.3828	82.1942	67.3828	82.3551	67.3828	82.2833	67.3828	82.4586	67.3828	82.3794	67.3828	82.5634	67.3828	82.4788	67.3828	82.666	67.3828	82.5779	67.3828	82.7633	67.3828	82.6739	67.3828	82.8529	67.3828	82.7645	67.3828	82.933	67.3828	82.8483	67.3828	83.0024	67.3828	82.9244	67.3828	83.0598	67.3828	82.9917	67.3828	83.1041	67.3828	83.0492	67.3828	83.134	67.3828	83.0954	67.3828	83.1483	67.3828	83.1283	67.3828	83.1463
68.8477	82.0492	68.8477	82.0686	68.8477	82.052	68.8477	82.1095	68.8477	82.0769	68.8477	82.1698	68.8477	82.1222	68.8477	82.2468	68.8477	82.1857	68.8477	82.337	68.8477	82.264	68.8477	82.4361	68.8477	82.3532	68.8477	82.54	68.8477	82.4491	68.8477	82.6445	68.8477	82.5477	68.8477	82.7456	68.8477	82.645	68.8477	82.8402	68.8477	82.7382	68.8477	82.9256	68.8477	82.825	68.8477	83.0003	68.8477	82.904	68.8477	83.0631	68.8477	82.9745	68.8477	83.1134	68.8477	83.0362	68.8477	83.1506	68.8477	83.0885	68.8477	83.1743	68.8477	83.1307	68.8477	83.184	68.8477	83.1614	68.8477	83.1796
71.7773	82.238	71.7773	82.2584	71.7773	82.2399	71.7773	82.3001	71.7773	82.2637	71.7773	82.3611	71.7773	82.3078	71.7773	82.4386	71.7773	82.3699	71.7773	82.5286	71.7773	82.4462	71.7773	82.6268	71.7773	82.5327	71.7773	82.7285	71.7773	82.6249	71.7773	82.829	71.7773	82.7183	71.7773	82.9239	71.7773	82.8088	71.7773	83.0097	71.7773	82.8931	71.7773	83.0837	71.7773	82.969	71.7773	83.1444	71.7773	83.0353	71.7773	83.1915	71.7773	83.0919	71.7773	83.2254	71.7773	83.1393	71.7773	83.2472	71.7773	83.1784	71.7773	83.2579	71.7773	83.2099	71.7773	83.2587	71.7773	83.234	71.7773	83.2505
74.707	82.5295	74.707	82.5497	74.707	82.5303	74.707	82.5899	74.707	82.5516	74.707	82.6482	74.707	82.592	74.707	82.7216	74.707	82.6489	74.707	82.8061	74.707	82.7187	74.707	82.8973	74.707	82.7972	74.707	82.99	74.707	82.8798	74.707	83.0795	74.707	82.962	74.707	83.1612	74.707	83.0394	74.707	83.2314	74.707	83.1089	74.707	83.2876	74.707	83.168	74.707	83.3289	74.707	83.2161	74.707	83.3556	74.707	83.2537	74.707	83.3695	74.707	83.2823	74.707	83.3733	74.707	83.3043	74.707	83.3696	74.707	83.3218	74.707	83.3611	74.707	83.3367	74.707	83.3498
77.6367	82.721	77.6367	82.7385	77.6367	82.7237	77.6367	82.7756	77.6367	82.746	77.6367	82.8306	77.6367	82.7862	77.6367	82.9006	77.6367	82.8418	77.6367	82.9818	77.6367	82.9091	77.6367	83.0695	77.6367	82.984	77.6367	83.1583	77.6367	83.0619	77.6367	83.243	77.6367	83.138	77.6367	83.3187	77.6367	83.2081	77.6367	83.3814	77.6367	83.2687	77.6367	83.4285	77.6367	83.3175	77.6367	83.4591	77.6367	83.3538	77.6367	83.4741	77.6367	83.3787	77.6367	83.4762	77.6367	83.3944	77.6367	83.469	77.6367	83.4043	77.6367	83.4565	77.6367	83.4117	77.6367	83.4425	77.6367	83.4196	77.6367	83.4298
79.1016	82.7784	79.1016	82.7961	79.1016	82.7811	79.1016	82.8337	79.1016	82.8036	79.1016	82.8894	79.1016	82.844	79.1016	82.9602	79.1016	82.8997	79.1016	83.042	79.1016	82.9669	79.1016	83.1298	79.1016	83.0412	79.1016	83.2181	79.1016	83.1179	79.1016	83.3014	79.1016	83.1921	79.1016	83.3746	79.1016	83.2595	79.1016	83.4336	79.1016	83.3164	79.1016	83.4758	79.1016	83.3607	79.1016	83.5005	79.1016	83.3916	79.1016	83.509	79.1016	83.4105	79.1016	83.5042	79.1016	83.4201	79.1016	83.4905	79.1016	83.4241	79.1016	83.4727	79.1016	83.4268	79.1016	83.4552	79.1016	83.4317	79.1016	83.441
82.0312	82.9912	82.0312	83.0111	82.0312	82.9908	82.0312	83.05	82.0312	83.0093	82.0312	83.1063	82.0312	83.0449	82.0312	83.1769	82.0312	83.0949	82.0312	83.2579	82.0312	83.1556	82.0312	83.3445	82.0312	83.2228	82.0312	83.4314	82.0312	83.2919	82.0312	83.5128	82.0312	83.3583	82.0312	83.5838	82.0312	83.4177	82.0312	83.6399	82.0312	83.4669	82.0312	83.6781	82.0312	83.5039	82.0312	83.6976	82.0312	83.5286	82.0312	83.6992	82.0312	83.5424	82.0312	83.686	82.0312	83.5488	82.0312	83.6626	82.0312	83.552	82.0312	83.6342	82.0312	83.5565	82.0312	83.6061	82.0312	83.566	82.0312	83.5826
84.9609	83.1614	84.9609	83.1919	84.9609	83.1502	84.9609	83.2405	84.9609	83.1585	84.9609	83.3048	84.9609	83.1855	84.9609	83.3815	84.9609	83.2292	84.9609	83.4665	84.9609	83.2865	84.9609	83.555	84.9609	83.3532	84.9609	83.6415	84.9609	83.4246	84.9609	83.7207	84.9609	83.4955	84.9609	83.7871	84.9609	83.5608	84.9609	83.8367	84.9609	83.6163	84.9609	83.8666	84.9609	83.6588	84.9609	83.8763	84.9609	83.6872	84.9609	83.8674	84.9609	83.7024	84.9609	83.8439	84.9609	83.7074	84.9609	83.8117	84.9609	83.7068	84.9609	83.7771	84.9609	83.7062	84.9609	83.7464	84.9609	83.7106	84.9609	83.7236
87.8906	83.4425	87.8906	83.4732	87.8906	83.4279	87.8906	83.518	87.8906	83.4303	87.8906	83.5739	87.8906	83.4492	87.8906	83.6374	87.8906	83.4832	87.8906	83.7042	87.8906	83.5289	87.8906	83.7693	87.8906	83.5822	87.8906	83.8278	87.8906	83.6378	87.8906	83.8746	87.8906	83.6902	87.8906	83.9056	87.8906	83.7338	87.8906	83.9174	87.8906	83.764	87.8906	83.9089	87.8906	83.7778	87.8906	83.8811	87.8906	83.7743	87.8906	83.8375	87.8906	83.7552	87.8906	83.7844	87.8906	83.7248	87.8906	83.7296	87.8906	83.6897	87.8906	83.6816	87.8906	83.6577	87.8906	83.6476	87.8906	83.6366	87.8906	83.6323
90.8203	83.8678	90.8203	83.8938	90.8203	83.8537	90.8203	83.9308	90.8203	83.8521	90.8203	83.9767	90.8203	83.8622	90.8203	84.0289	90.8203	83.8826	90.8203	84.0838	90.8203	83.9107	90.8203	84.1368	90.8203	83.9428	90.8203	84.1829	90.8203	83.9744	90.8203	84.2167	90.8203	84.0006	90.8203	84.2334	90.8203	84.0167	90.8203	84.2293	90.8203	84.0186	90.8203	84.2024	90.8203	84.0042	90.8203	84.1534	90.8203	83.9735	90.8203	84.0861	90.8203	83.9293	90.8203	84.0073	90.8203	83.8776	90.8203	83.9262	90.8203	83.8266	90.8203	83.8531	90.8203	83.7856	90.8203	83.7978	90.8203	83.7637	90.8203	83.7671
95.2148	83.833	95.2148	83.8632	95.2148	83.821	95.2148	83.911	95.2148	83.8271	95.2148	83.9747	95.2148	83.8501	95.2148	84.0511	95.2148	83.8878	95.2148	84.1364	95.2148	83.937	95.2148	84.225	95.2148	83.9933	95.2148	84.3108	95.2148	84.0517	95.2148	84.387	95.2148	84.1067	95.2148	84.4469	95.2148	84.1529	95.2148	84.4848	95.2148	84.1857	95.2148	84.4971	95.2148	84.2023	95.2148	84.4824	95.2148	84.2023	95.2148	84.443	95.2148	84.188	95.2148	84.3845	95.2148	84.1649	95.2148	84.3152	95.2148	84.1407	95.2148	84.2456	95.2148	84.1243	95.2148	84.1858	95.2148	84.1236	95.2148	84.1438
98.1445	84.1099	98.1445	84.1416	98.1445	84.0945	98.1445	84.1886	98.1445	84.0959	98.1445	84.2485	98.1445	84.1131	98.1445	84.3183	98.1445	84.1442	98.1445	84.3938	98.1445	84.186	98.1445	84.4698	98.1445	84.2341	98.1445	84.5405	98.1445	84.2832	98.1445	84.5998	98.1445	84.3275	98.1445	84.6416	98.1445	84.3616	98.1445	84.6608	98.1445	84.3807	98.1445	84.6543	98.1445	84.382	98.1445	84.6215	98.1445	84.3653	98.1445	84.5653	98.1445	84.3337	98.1445	84.4918	98.1445	84.2933	98.1445	84.4104	98.1445	84.2531	98.1445	84.3323	98.1445	84.223	98.1445	84.2683	98.1445	84.2123	98.1445	84.227
101.074	84.1185	101.074	84.1568	101.074	84.098	101.074	84.2119	101.074	84.0956	101.074	84.2818	101.074	84.1107	101.074	84.3635	101.074	84.1417	101.074	84.4531	101.074	84.1857	101.074	84.5454	101.074	84.2388	101.074	84.6343	101.074	84.2959	101.074	84.713	101.074	84.3516	101.074	84.7746	101.074	84.4002	101.074	84.8132	101.074	84.4368	101.074	84.8248	101.074	84.4583	101.074	84.8082	101.074	84.4637	101.074	84.7655	101.074	84.4552	101.074	84.7024	101.074	84.4378	101.074	84.628	101.074	84.4193	101.074	84.5527	101.074	84.4084	101.074	84.487	101.074	84.4133	101.074	84.4392
105.469	84.5207	105.469	84.5627	105.469	84.4934	105.469	84.6194	105.469	84.4799	105.469	84.6896	105.469	84.4788	105.469	84.7705	105.469	84.4879	105.469	84.8578	105.469	84.5047	105.469	84.9455	105.469	84.526	105.469	85.026	105.469	84.5481	105.469	85.0914	105.469	84.5665	105.469	85.1338	105.469	84.5769	105.469	85.1466	105.469	84.5755	105.469	85.1254	105.469	84.5603	105.469	85.0695	105.469	84.5314	105.469	84.9821	105.469	84.4923	105.469	84.8712	105.469	84.4501	105.469	84.7485	105.469	84.4143	105.469	84.628	105.469	84.396	105.469	84.5239	105.469	84.4051	105.469	84.4476
108.398	84.7368	108.398	84.7627	108.398	84.7241	108.398	84.8022	108.398	84.7236	108.398	84.8546	108.398	84.7339	108.398	84.9182	108.398	84.7532	108.398	84.9894	108.398	84.7791	108.398	85.0632	108.398	84.8083	108.398	85.1328	108.398	84.8368	108.398	85.1908	108.398	84.8599	108.398	85.2295	108.398	84.8725	108.398	85.2424	108.398	84.8705	108.398	85.2248	108.398	84.8512	108.398	85.1754	108.398	84.8147	108.398	85.0971	108.398	84.7645	108.398	84.9972	108.398	84.7078	108.398	84.887	108.398	84.6552	108.398	84.7806	108.398	84.6186	108.398	84.6922	108.398	84.6088	108.398	84.633
112.793	84.9268	112.793	84.9494	112.793	84.9141	112.793	84.9816	112.793	84.9111	112.793	85.0229	112.793	84.9176	112.793	85.0718	112.793	84.9329	112.793	85.126	112.793	84.9556	112.793	85.1816	112.793	84.9832	112.793	85.2333	112.793	85.0118	112.793	85.2753	112.793	85.0368	112.793	85.3011	112.793	85.053	112.793	85.3052	112.793	85.0555	112.793	85.2839	112.793	85.041	112.793	85.2361	112.793	85.0086	112.793	85.1649	112.793	84.9609	112.793	85.0772	112.793	84.9041	112.793	84.9834	112.793	84.8476	112.793	84.8962	112.793	84.8028	112.793	84.828	112.793	84.7804	112.793	84.7881
117.188	85.2218	117.188	85.2324	117.188	85.2156	117.188	85.248	117.188	85.213	117.188	85.2695	117.188	85.2136	117.188	85.2968	117.188	85.2168	117.188	85.3289	117.188	85.2217	117.188	85.3633	117.188	85.2268	117.188	85.3959	117.188	85.2295	117.188	85.4215	117.188	85.2268	117.188	85.4342	117.188	85.2149	117.188	85.4285	117.188	85.1908	117.188	85.4003	117.188	85.1527	117.188	85.3482	117.188	85.101	117.188	85.274	117.188	85.0393	117.188	85.1838	117.188	84.9744	117.188	85.087	117.188	84.9158	117.188	84.9952	117.188	84.8737	117.188	84.9207	117.188	84.8576	117.188	84.8731
120.117	85.458	120.117	85.4711	120.117	85.4465	120.117	85.4865	120.117	85.4363	120.117	85.5044	120.117	85.4268	120.117	85.5246	120.117	85.4176	120.117	85.5457	120.117	85.4076	120.117	85.5652	120.117	85.3952	120.117	85.5787	120.117	85.3776	120.117	85.5811	120.117	85.3514	120.117	85.5668	120.117	85.3129	120.117	85.5309	120.117	85.2593	120.117	85.47	120.117	85.1894	120.117	85.384	120.117	85.1046	120.117	85.276	120.117	85.0104	120.117	85.1534	120.117	84.9156	120.117	85.0274	120.117	84.8318	120.117	84.9115	120.117	84.7719	120.117	84.8193	120.117	84.7465	120.117	84.7623
124.512	85.4597	124.512	85.4806	124.512	85.442	124.512	85.5048	124.512	85.4274	124.512	85.5329	124.512	85.4161	124.512	85.5647	124.512	85.4084	124.512	85.5989	124.512	85.4039	124.512	85.6323	124.512	85.4011	124.512	85.6603	124.512	85.3972	124.512	85.6765	124.512	85.388	124.512	85.6741	124.512	85.3684	124.512	85.6468	124.512	85.3339	124.512	85.5905	124.512	85.2812	124.512	85.5045	124.512	85.2102	124.512	85.3924	124.512	85.1246	124.512	85.2632	124.512	85.0329	124.512	85.1298	124.512	84.9471	124.512	85.0082	124.512	84.8813	124.512	84.9139	124.512	84.8489	124.512	84.859
128.906	85.5485	128.906	85.5568	128.906	85.5437	128.906	85.5692	128.906	85.5421	128.906	85.5865	128.906	85.544	128.906	85.6093	128.906	85.5491	128.906	85.6372	128.906	85.5569	128.906	85.6682	128.906	85.5653	128.906	85.698	128.906	85.5709	128.906	85.7209	128.906	85.5688	128.906	85.7298	128.906	85.5539	128.906	85.7179	128.906	85.5212	128.906	85.6798	128.906	85.4678	128.906	85.6133	128.906	85.3942	128.906	85.5205	128.906	85.3051	128.906	85.4085	128.906	85.2099	128.906	85.2888	128.906	85.1218	128.906	85.1765	128.906	85.0552	128.906	85.0872	128.906	85.0233	128.906	85.0337
133.301	85.6449	133.301	85.6527	133.301	85.6409	133.301	85.665	133.301	85.6404	133.301	85.6824	133.301	85.6434	133.301	85.7054	133.301	85.6501	133.301	85.7333	133.301	85.66	133.301	85.7636	133.301	85.6716	133.301	85.7921	133.301	85.6818	133.301	85.8129	133.301	85.686	133.301	85.8189	133.301	85.6785	133.301	85.8034	133.301	85.6539	133.301	85.7613	133.301	85.6082	133.301	85.6911	133.301	85.5403	133.301	85.5954	133.301	85.4536	133.301	85.4823	133.301	85.3566	133.301	85.3645	133.301	85.2619	133.301	85.2577	133.301	85.1848	133.301	85.1775	133.301	85.1396	133.301	85.1363
139.16	85.7292	139.16	85.7325	139.16	85.7262	139.16	85.738	139.16	85.723	139.16	85.7481	139.16	85.7204	139.16	85.7653	139.16	85.7198	139.16	85.7905	139.16	85.7228	139.16	85.8227	139.16	85.7297	139.16	85.8581	139.16	85.739	139.16	85.8904	139.16	85.7471	139.16	85.9116	139.16	85.7488	139.16	85.9139	139.16	85.7382	139.16	85.8909	139.16	85.7106	139.16	85.84	139.16	85.6638	139.16	85.7629	139.16	85.5999	139.16	85.6669	139.16	85.5254	139.16	85.5641	139.16	85.4512	139.16	85.469	139.16	85.3906	139.16	85.3964	139.16	85.3562	139.16	85.3573
143.555	85.8244	143.555	85.8236	143.555	85.8217	143.555	85.8208	143.555	85.8156	143.555	85.8192	143.555	85.8077	143.555	85.822	143.555	85.8009	143.555	85.8319	143.555	85.7976	143.555	85.8497	143.555	85.799	143.555	85.873	143.555	85.8044	143.555	85.8966	143.555	85.8101	143.555	85.9133	143.555	85.811	143.555	85.9149	143.555	85.8007	143.555	85.8948	143.555	85.7741	143.555	85.8496	143.555	85.7287	143.555	85.7805	143.555	85.6661	143.555	85.6938	143.555	85.5926	143.555	85.6007	143.555	85.5187	143.555	85.5149	143.555	85.4572	143.555	85.4503	143.555	85.4205	143.555	85.4174
147.949	85.963	147.949	85.9523	147.949	85.9664	147.949	85.936	147.949	85.9628	147.949	85.9173	147.949	85.9543	147.949	85.9001	147.949	85.9439	147.949	85.8884	147.949	85.9344	147.949	85.8841	147.949	85.9273	147.949	85.8868	147.949	85.9223	147.949	85.8928	147.949	85.9164	147.949	85.896	147.949	85.9046	147.949	85.889	147.949	85.8813	147.949	85.8653	147.949	85.8418	147.949	85.8209	147.949	85.7843	147.949	85.7562	147.949	85.711	147.949	85.6765	147.949	85.6285	147.949	85.5916	147.949	85.5475	147.949	85.5141	147.949	85.4804	147.949	85.4571	147.949	85.4387	147.949	85.4304
153.809	86.0641	153.809	86.0483	153.809	86.0684	153.809	86.0226	153.809	86.0615	153.809	85.991	153.809	86.0465	153.809	85.9585	153.809	86.0272	153.809	85.9304	153.809	86.0079	153.809	85.9101	153.809	85.9916	153.809	85.8985	153.809	85.9787	153.809	85.8929	153.809	85.9668	153.809	85.888	153.809	85.9511	153.809	85.8764	153.809	85.9255	153.809	85.8514	153.809	85.8847	153.809	85.8086	153.809	85.8261	153.809	85.7478	153.809	85.7512	153.809	85.6734	153.809	85.6666	153.809	85.5947	153.809	85.5825	153.809	85.5238	153.809	85.5116	153.809	85.473	153.809	85.4655	153.809	85.452
159.668	86.2112	159.668	86.1941	159.668	86.2147	159.668	86.1649	159.668	86.2055	159.668	86.1274	159.668	86.1871	159.668	86.0868	159.668	86.1643	159.668	86.0483	159.668	86.1422	159.668	86.0155	159.668	86.1247	159.668	85.9897	159.668	86.1129	159.668	85.9691	159.668	86.1048	159.668	85.9494	159.668	86.0956	159.668	85.9252	159.668	86.0787	159.668	85.8917	159.668	86.0481	159.668	85.8465	159.668	86.0002	159.668	85.7909	159.668	85.9351	159.668	85.73	159.668	85.8574	159.668	85.6722	159.668	85.7754	159.668	85.6272	159.668	85.7	159.668	85.604	159.668	85.6416	159.668	85.6083
165.527	86.278	165.527	86.2654	165.527	86.2744	165.527	86.2388	165.527	86.2554	165.527	86.2027	165.527	86.2246	165.527	86.1633	165.527	86.1873	165.527	86.1269	165.527	86.1497	165.527	86.0984	165.527	86.1169	165.527	86.0798	165.527	86.0917	165.527	86.0691	165.527	86.0736	165.527	86.0612	165.527	86.0586	165.527	86.0491	165.527	86.041	165.527	86.0261	165.527	86.0147	165.527	85.9883	165.527	85.976	165.527	85.9358	165.527	85.9246	165.527	85.8732	165.527	85.8644	165.527	85.809	165.527	85.8029	165.527	85.7532	165.527	85.7495	165.527	85.715	165.527	85.7133	165.527	85.701
171.387	86.4424	171.387	86.426	171.387	86.4372	171.387	86.3903	171.387	86.4107	171.387	86.34	171.387	86.3661	171.387	86.2816	171.387	86.3088	171.387	86.2218	171.387	86.2451	171.387	86.1663	171.387	86.1807	171.387	86.1182	171.387	86.1194	171.387	86.0774	171.387	86.0622	171.387	86.0406	171.387	86.0072	171.387	86.0026	171.387	85.9512	171.387	85.9581	171.387	85.8908	171.387	85.9038	171.387	85.8248	171.387	85.8395	171.387	85.7552	171.387	85.7689	171.387	85.687	171.387	85.6982	171.387	85.6271	171.387	85.6354	171.387	85.5829	171.387	85.588	171.387	85.5601	171.387	85.5619
177.246	86.48	177.246	86.4667	177.246	86.4675	177.246	86.428	177.246	86.4314	177.246	86.3677	177.246	86.3764	177.246	86.2915	177.246	86.3092	177.246	86.2064	177.246	86.2365	177.246	86.1187	177.246	86.1634	177.246	86.0334	177.246	86.0926	177.246	85.9523	177.246	86.0232	177.246	85.875	177.246	85.9517	177.246	85.7987	177.246	85.8734	177.246	85.7208	177.246	85.7849	177.246	85.6397	177.246	85.6861	177.246	85.5561	177.246	85.5811	177.246	85.4734	177.246	85.4785	177.246	85.3973	177.246	85.3884	177.246	85.3341	177.246	85.3202	177.246	85.2901	177.246	85.2804	177.246	85.2709
183.105	86.347	183.105	86.3358	183.105	86.333	183.105	86.3003	183.105	86.2961	183.105	86.2451	183.105	86.2424	183.105	86.1766	183.105	86.1802	183.105	86.1022	183.105	86.1188	183.105	86.0284	183.105	86.0659	183.105	85.9591	183.105	86.0253	183.105	85.8944	183.105	85.9953	183.105	85.8314	183.105	85.9691	183.105	85.7655	183.105	85.937	183.105	85.6933	183.105	85.8898	183.105	85.614	183.105	85.8217	183.105	85.5312	183.105	85.7332	183.105	85.4513	183.105	85.631	183.105	85.3831	183.105	85.5268	183.105	85.3347	183.105	85.4337	183.105	85.3129	183.105	85.363	183.105	85.3219
188.965	86.4473	188.965	86.4272	188.965	86.4314	188.965	86.3743	188.965	86.3803	188.965	86.2954	188.965	86.2997	188.965	86.1996	188.965	86.1991	188.965	86.097	188.965	86.0906	188.965	85.9965	188.965	85.9865	188.965	85.9041	188.965	85.8967	188.965	85.8219	188.965	85.826	188.965	85.7478	188.965	85.7736	188.965	85.6773	188.965	85.7335	188.965	85.606	188.965	85.697	188.965	85.5319	188.965	85.6562	188.965	85.4572	188.965	85.606	188.965	85.3882	188.965	85.5456	188.965	85.3333	188.965	85.4787	188.965	85.3	188.965	85.412	188.965	85.2928	188.965	85.3537	188.965	85.3119
196.289	86.5069	196.289	86.4995	196.289	86.4771	196.289	86.458	196.289	86.4116	196.289	86.3888	196.289	86.3162	196.289	86.3007	196.289	86.2005	196.289	86.2029	196.289	86.0762	196.289	86.1028	196.289	85.9542	196.289	86.0045	196.289	85.842	196.289	85.908	196.289	85.7419	196.289	85.8095	196.289	85.6505	196.289	85.7037	196.289	85.5612	196.289	85.587	196.289	85.4674	196.289	85.4595	196.289	85.366	196.289	85.3265	196.289	85.259	196.289	85.1979	196.289	85.1535	196.289	85.0853	196.289	85.0592	196.289	84.9986	196.289	84.9854	196.289	84.9443	196.289	84.9391	196.289	84.9247
203.613	86.4219	203.613	86.4021	203.613	86.3961	203.613	86.341	203.613	86.3257	203.613	86.2466	203.613	86.2163	203.613	86.1298	203.613	86.0789	203.613	86.0024	203.613	85.9276	203.613	85.8752	203.613	85.7773	203.613	85.7561	203.613	85.6408	203.613	85.649	203.613	85.5253	203.613	85.5533	203.613	85.4312	203.613	85.466	203.613	85.3535	203.613	85.3833	203.613	85.2846	203.613	85.303	203.613	85.2185	203.613	85.2252	203.613	85.1531	203.613	85.1525	203.613	85.0915	203.613	85.0888	203.613	85.0391	203.613	85.0377	203.613	85.0016	203.613	85.0019	203.613	84.9827	203.613	84.9831
210.938	86.4152	210.938	86.4046	210.938	86.3766	210.938	86.3471	210.938	86.2914	210.938	86.2495	210.938	86.1672	210.938	86.1217	210.938	86.0164	210.938	85.9753	210.938	85.8542	210.938	85.8214	210.938	85.6967	210.938	85.6691	210.938	85.557	210.938	85.5235	210.938	85.4425	210.938	85.3861	210.938	85.3529	210.938	85.2564	210.938	85.2814	210.938	85.1337	210.938	85.218	210.938	85.02	210.938	85.1536	210.938	84.9199	210.938	85.0834	210.938	84.8395	210.938	85.0083	210.938	84.784	210.938	84.9335	210.938	84.7554	210.938	84.8657	210.938	84.7523	210.938	84.8105	210.938	84.7717
218.262	86.1887	218.262	86.1626	218.262	86.1659	218.262	86.0938	218.262	86.0933	218.262	85.9929	218.262	85.9758	218.262	85.8736	218.262	85.824	218.262	85.7503	218.262	85.6534	218.262	85.6359	218.262	85.4823	218.262	85.5388	218.262	85.3289	218.262	85.4612	218.262	85.2073	218.262	85.3991	218.262	85.1248	218.262	85.3454	218.262	85.0804	218.262	85.2932	218.262	85.0668	218.262	85.2393	218.262	85.0729	218.262	85.1859	218.262	85.0875	218.262	85.139	218.262	85.1016	218.262	85.1051	218.262	85.1099	218.262	85.0879	218.262	85.1102	218.262	85.0858	218.262	85.1034	218.262	85.0933
225.586	86.3801	225.586	86.3484	225.586	86.3501	225.586	86.2613	225.586	86.2575	225.586	86.1295	225.586	86.1074	225.586	85.9674	225.586	85.9111	225.586	85.7919	225.586	85.6852	225.586	85.6199	225.586	85.4501	225.586	85.4658	225.586	85.2267	225.586	85.3392	225.586	85.0332	225.586	85.2431	225.586	84.8823	225.586	85.175	225.586	84.7803	225.586	85.1298	225.586	84.728	225.586	85.1022	225.586	84.7221	225.586	85.0887	225.586	84.7557	225.586	85.0869	225.586	84.8186	225.586	85.0932	225.586	84.8971	225.586	85.101	225.586	84.9757	225.586	85.1007	225.586	85.0404	225.586	85.0824
232.91	86.4753	232.91	86.4475	232.91	86.4353	232.91	86.3565	232.91	86.3279	232.91	86.2119	232.91	86.159	232.91	86.027	232.91	85.9401	232.91	85.8189	232.91	85.6872	232.91	85.6056	232.91	85.4192	232.91	85.4038	232.91	85.155	232.91	85.2264	232.91	84.9103	232.91	85.0797	232.91	84.6963	232.91	84.9644	232.91	84.5198	232.91	84.8773	232.91	84.3856	232.91	84.8135	232.91	84.2983	232.91	84.7687	232.91	84.2621	232.91	84.7381	232.91	84.2771	232.91	84.7153	232.91	84.3358	232.91	84.6907	232.91	84.4217	232.91	84.6532	232.91	84.5141	232.91	84.5945
241.699	86.18	241.699	86.1053	241.699	86.1854	241.699	85.9689	241.699	86.12	241.699	85.7835	241.699	85.9882	241.699	85.5658	241.699	85.8002	241.699	85.3345	241.699	85.5707	241.699	85.1078	241.699	85.3169	241.699	84.8993	241.699	85.0553	241.699	84.7165	241.699	84.7993	241.699	84.5598	241.699	84.5578	241.699	84.4256	241.699	84.3362	241.699	84.3103	241.699	84.1395	241.699	84.213	241.699	83.9754	241.699	84.1353	241.699	83.8547	241.699	84.0783	241.699	83.787	241.699	84.0387	241.699	83.7744	241.699	84.0071	241.699	83.8065	241.699	83.9712	241.699	83.8631	241.699	83.9226
250.488	86.468	250.488	86.3547	250.488	86.5	250.488	86.1642	250.488	86.4524	250.488	85.9066	250.488	86.3322	250.488	85.5979	250.488	86.1515	250.488	85.2601	250.488	85.9263	250.488	84.919	250.488	85.6747	250.488	84.6014	250.488	85.4132	250.488	84.3307	250.488	85.1549	250.488	84.1218	250.488	84.9073	250.488	83.9783	250.488	84.6743	250.488	83.8939	250.488	84.4591	250.488	83.8563	250.488	84.268	250.488	83.8524	250.488	84.1115	250.488	83.8702	250.488	84.0003	250.488	83.8987	250.488	83.9392	250.488	83.926	250.488	83.9214	250.488	83.9419	250.488	83.9291	250.488	83.9412
259.277	86.3987	259.277	86.3449	259.277	86.3764	259.277	86.2176	259.277	86.2806	259.277	86.0239	259.277	86.1194	259.277	85.7754	259.277	85.9062	259.277	85.4877	259.277	85.659	259.277	85.1799	259.277	85.3974	259.277	84.8725	259.277	85.1386	259.277	84.5862	259.277	84.8946	259.277	84.3392	259.277	84.6707	259.277	84.1455	259.277	84.4687	259.277	84.0131	259.277	84.2907	259.277	83.9427	259.277	84.1428	259.277	83.9271	259.277	84.035	259.277	83.952	259.277	83.9759	259.277	83.9976	259.277	83.9654	259.277	84.0419	259.277	83.9914	259.277	84.0665	259.277	84.0314	259.277	84.0619
268.066	86.242	268.066	86.1829	268.066	86.221	268.066	86.0448	268.066	86.1242	268.066	85.8333	268.066	85.9616	268.066	85.5583	268.066	85.7492	268.066	85.2333	268.066	85.5069	268.066	84.8758	268.066	85.2552	268.066	84.5072	268.066	85.0108	268.066	84.1529	268.066	84.7816	268.066	83.8396	268.066	84.5668	268.066	83.5916	268.066	84.3602	268.066	83.4249	268.066	84.1575	268.066	83.3426	268.066	83.9634	268.066	83.3353	268.066	83.7933	268.066	83.3833	268.066	83.668	268.066	83.46	268.066	83.6007	268.066	83.537	268.066	83.5859	268.066	83.5904	268.066	83.5992	268.066	83.6088
276.855	86.2202	276.855	86.1549	276.855	86.2009	276.855	86.0099	276.855	86.0979	276.855	85.7949	276.855	85.9196	276.855	85.5236	276.855	85.682	276.855	85.2104	276.855	85.4082	276.855	84.868	276.855	85.1259	276.855	84.5048	276.855	84.8621	276.855	84.1262	276.855	84.6359	276.855	83.7416	276.855	84.454	276.855	83.3719	276.855	84.31	276.855	83.0532	276.855	84.1893	276.855	82.8296	276.855	84.0774	276.855	82.7326	276.855	83.9661	276.855	82.7627	276.855	83.8545	276.855	82.8876	276.855	83.7453	276.855	83.0595	276.855	83.6378	276.855	83.2363	276.855	83.5244	276.855	83.3931
287.109	85.9366	287.109	85.9219	287.109	85.8646	287.109	85.8218	287.109	85.711	287.109	85.643	287.109	85.4877	287.109	85.3972	287.109	85.2128	287.109	85.1	287.109	84.9095	287.109	84.7697	287.109	84.6031	287.109	84.4244	287.109	84.3183	287.109	84.0798	287.109	84.0767	287.109	83.7489	287.109	83.894	287.109	83.4454	287.109	83.7787	287.109	83.1899	287.109	83.7305	287.109	83.0135	287.109	83.7407	287.109	82.9495	287.109	83.7937	287.109	83.0145	287.109	83.8684	287.109	83.1909	287.109	83.9385	287.109	83.428	287.109	83.9748	287.109	83.6633	287.109	83.95	287.109	83.846
297.363	86.4519	297.363	86.4573	297.363	86.3418	297.363	86.3643	297.363	86.1262	297.363	86.1822	297.363	85.8134	297.363	85.9222	297.363	85.4227	297.363	85.5969	297.363	84.984	297.363	85.2206	297.363	84.5334	297.363	84.8091	297.363	84.1061	297.363	84.3783	297.363	83.7283	297.363	83.9453	297.363	83.4157	297.363	83.5316	297.363	83.1779	297.363	83.1688	297.363	83.0272	297.363	82.9002	297.363	82.9785	297.363	82.771	297.363	83.0376	297.363	82.8028	297.363	83.1852	297.363	82.9715	297.363	83.3722	297.363	83.2101	297.363	83.535	297.363	83.4366	297.363	83.6165	297.363	83.5838
307.617	85.9936	307.617	85.8889	307.617	86.0065	307.617	85.7107	307.617	85.917	307.617	85.4832	307.617	85.7236	307.617	85.2321	307.617	85.4333	307.617	84.9779	307.617	85.0626	307.617	84.7312	307.617	84.6376	307.617	84.4904	307.617	84.1934	307.617	84.2439	307.617	83.7686	307.617	83.9775	307.617	83.3959	307.617	83.6827	307.617	83.0943	307.617	83.3662	307.617	82.8686	307.617	83.0575	307.617	82.719	307.617	82.8077	307.617	82.6494	307.617	82.6718	307.617	82.6639	307.617	82.6724	307.617	82.7503	307.617	82.7744	307.617	82.8684	307.617	82.9003	307.617	82.9595	307.617	82.9743
319.336	86.1812	319.336	86.103	319.336	86.1516	319.336	85.9218	319.336	86.014	319.336	85.6479	319.336	85.7737	319.336	85.2969	319.336	85.4413	319.336	84.8916	319.336	85.0316	319.336	84.4616	319.336	84.5618	319.336	84.0433	319.336	84.0505	319.336	83.6736	319.336	83.5201	319.336	83.3814	319.336	83.0038	319.336	83.177	319.336	82.5523	319.336	83.0503	319.336	82.2291	319.336	82.9797	319.336	82.0853	319.336	82.9472	319.336	82.1267	319.336	82.9457	319.336	82.3047	319.336	82.9717	319.336	82.5421	319.336	83.0127	319.336	82.7675	319.336	83.0411	319.336	82.9342	319.336	83.0234
329.59	85.7211	329.59	85.647	329.59	85.6962	329.59	85.4854	329.59	85.5704	329.59	85.255	329.59	85.3518	329.59	84.9778	329.59	85.0566	329.59	84.6734	329.59	84.7056	329.59	84.3538	329.59	84.3182	329.59	84.0219	329.59	83.9064	329.59	83.676	329.59	83.4729	329.59	83.3197	329.59	83.0168	329.59	82.9717	329.59	82.5484	329.59	82.6697	329.59	82.1082	329.59	82.4613	329.59	81.7749	329.59	82.382	329.59	81.6391	329.59	82.4324	329.59	81.7399	329.59	82.5706	329.59	82.0213	329.59	82.7263	329.59	82.3627	329.59	82.8247	329.59	82.648	329.59	82.8076
341.309	85.791	341.309	85.6809	341.309	85.7753	341.309	85.4537	341.309	85.6371	341.309	85.1298	341.309	85.3919	341.309	84.7393	341.309	85.0651	341.309	84.3166	341.309	84.6876	341.309	83.8935	341.309	84.288	341.309	83.4894	341.309	83.8847	341.309	83.1076	341.309	83.4804	341.309	82.7415	341.309	83.0651	341.309	82.3899	341.309	82.6279	341.309	82.073	341.309	82.1782	341.309	81.8368	341.309	81.7655	341.309	81.7363	341.309	81.4819	341.309	81.7982	341.309	81.418	341.309	81.9869	341.309	81.5864	341.309	82.2099	341.309	81.891	341.309	82.3599	341.309	82.1869	341.309	82.3593
353.027	85.6167	353.027	85.5197	353.027	85.5941	353.027	85.3076	353.027	85.458	353.027	84.9947	353.027	85.2249	353.027	84.6035	353.027	84.9195	353.027	84.1614	353.027	84.5711	353.027	83.6939	353.027	84.2063	353.027	83.2168	353.027	83.8422	353.027	82.7328	353.027	83.4814	353.027	82.239	353.027	83.1141	353.027	81.745	353.027	82.7301	353.027	81.2957	353.027	82.3384	353.027	80.9785	353.027	81.9823	353.027	80.8895	353.027	81.7356	353.027	81.0587	353.027	81.663	353.027	81.4064	353.027	81.7652	353.027	81.788	353.027	81.9626	353.027	82.0739	353.027	82.1383	353.027	82.1929
366.211	85.9633	366.211	85.9186	366.211	85.8807	366.211	85.7495	366.211	85.6727	366.211	85.4625	366.211	85.3485	366.211	85.0669	366.211	84.9276	366.211	84.577	366.211	84.443	366.211	84.0136	366.211	83.9411	366.211	83.4066	366.211	83.4729	366.211	82.7927	366.211	83.0738	366.211	82.2089	366.211	82.7453	366.211	81.685	366.211	82.4565	366.211	81.2433	366.211	82.172	366.211	80.9089	366.211	81.887	366.211	80.7202	366.211	81.6425	366.211	80.7168	366.211	81.5035	366.211	80.8973	366.211	81.5017	366.211	81.1881	366.211	81.5915	366.211	81.4705	366.211	81.671	366.211	81.6437
379.395	86.0062	379.395	85.8906	379.395	86.0114	379.395	85.6786	379.395	85.8982	379.395	85.3901	379.395	85.6648	379.395	85.0477	379.395	85.3163	379.395	84.6721	379.395	84.8658	379.395	84.2752	379.395	84.3358	379.395	83.8574	379.395	83.7576	379.395	83.4116	379.395	83.1697	379.395	82.9326	379.395	82.6138	379.395	82.4288	379.395	82.1314	379.395	81.9329	379.395	81.7632	379.395	81.5063	379.395	81.5483	379.395	81.229	379.395	81.511	379.395	81.1641	379.395	81.6346	379.395	81.3109	379.395	81.8485	379.395	81.5908	379.395	82.0502	379.395	81.886	379.395	82.1478	379.395	82.0916
392.578	85.7008	392.578	85.5673	392.578	85.7048	392.578	85.3179	392.578	85.575	392.578	84.9774	392.578	85.3155	392.578	84.583	392.578	84.9396	392.578	84.1782	392.578	84.4702	392.578	83.7971	392.578	83.937	392.578	83.4467	392.578	83.3711	392.578	83.0994	392.578	82.7961	392.578	82.7095	392.578	82.2236	392.578	82.2465	392.578	81.6603	392.578	81.7357	392.578	81.134	392.578	81.2862	392.578	80.7316	392.578	81.0682	392.578	80.5991	392.578	81.1961	392.578	80.8384	392.578	81.6068	392.578	81.3709	392.578	82.1001	392.578	81.9705	392.578	82.4738	392.578	82.4203	392.578	82.5976
405.762	86.0065	405.762	85.9218	405.762	85.9224	405.762	85.6817	405.762	85.6703	405.762	85.3103	405.762	85.2685	405.762	84.8407	405.762	84.7535	405.762	84.3117	405.762	84.1755	405.762	83.7616	405.762	83.5851	405.762	83.216	405.762	83.018	405.762	82.677	405.762	82.4835	405.762	82.124	405.762	81.9658	405.762	81.5315	405.762	81.4385	405.762	80.9009	405.762	80.8908	405.762	80.2991	405.762	80.3612	405.762	79.8811	405.762	79.9655	405.762	79.8266	405.762	79.8651	405.762	80.1615	405.762	80.1265	405.762	80.6796	405.762	80.6071	405.762	81.1017	405.762	81.048	405.762	81.241
420.41	85.4786	420.41	85.3523	420.41	85.4548	420.41	85.0884	420.41	85.2865	420.41	84.718	420.41	84.9945	420.41	84.2876	420.41	84.6101	420.41	83.8489	420.41	84.1692	420.41	83.4422	420.41	83.7044	420.41	83.0782	420.41	83.2364	420.41	82.7337	420.41	82.7648	420.41	82.3654	420.41	82.2683	420.41	81.9386	420.41	81.7213	420.41	81.4558	420.41	81.128	420.41	80.9815	420.41	80.5623	420.41	80.6467	420.41	80.1784	420.41	80.588	420.41	80.1328	420.41	80.8209	420.41	80.4358	420.41	81.1913	420.41	80.9143	420.41	81.4852	420.41	81.34	420.41	81.5503
435.059	85.5666	435.059	85.4082	435.059	85.5632	435.059	85.0934	435.059	85.4103	435.059	84.646	435.059	85.136	435.059	84.1082	435.059	84.7816	435.059	83.5379	435.059	84.3955	435.059	82.999	435.059	84.0208	435.059	82.5417	435.059	83.6735	435.059	82.1791	435.059	83.3237	435.059	81.8781	435.059	82.8994	435.059	81.5802	435.059	82.3237	435.059	81.2437	435.059	81.5765	435.059	80.8908	435.059	80.7724	435.059	80.6354	435.059	80.2093	435.059	80.6318	435.059	80.1953	435.059	80.9256	435.059	80.6809	435.059	81.3738	435.059	81.3038	435.059	81.7571	435.059	81.7573	435.059	81.911
451.172	86.1872	451.172	86.0199	451.172	86.1862	451.172	85.6874	451.172	86.0182	451.172	85.2019	451.172	85.6879	451.172	84.5917	451.172	85.2102	451.172	83.9029	451.172	84.6184	451.172	83.1897	451.172	83.9715	451.172	82.4927	451.172	83.3491	451.172	81.8169	451.172	82.8192	451.172	81.1268	451.172	82.3812	451.172	80.372	451.172	81.9395	451.172	79.5437	451.172	81.35	451.172	78.7594	451.172	80.5162	451.172	78.3227	451.172	79.52	451.172	78.541	451.172	78.7824	451.172	79.3185	451.172	78.8635	451.172	80.2074	451.172	79.6589	451.172	80.8133	451.172	80.4991	451.172	80.9283
465.82	86.0764	465.82	85.9616	465.82	85.9946	465.82	85.6563	465.82	85.7295	465.82	85.185	465.82	85.314	465.82	84.5899	465.82	84.795	465.82	83.9259	465.82	84.2205	465.82	83.2496	465.82	83.6243	465.82	82.6042	465.82	83.0202	465.82	82.0071	465.82	82.4095	465.82	81.4422	465.82	81.7893	465.82	80.8624	465.82	81.1524	465.82	80.2169	465.82	80.4865	465.82	79.5229	465.82	79.8022	465.82	78.971	465.82	79.2087	465.82	78.9052	465.82	78.9632	465.82	79.4419	465.82	79.2764	465.82	80.2293	465.82	79.9816	465.82	80.823	465.82	80.6574	465.82	80.9805
483.398	85.7336	483.398	85.6276	483.398	85.6083	483.398	85.3023	483.398	85.2713	483.398	84.8082	483.398	84.7704	483.398	84.2361	483.398	84.1783	483.398	83.7001	483.398	83.5872	483.398	83.2895	483.398	83.0913	483.398	83.0112	483.398	82.7504	483.398	82.7757	483.398	82.55	483.398	82.4378	483.398	82.3967	483.398	81.848	483.398	82.1566	483.398	80.8852	483.398	81.7048	483.398	79.5035	483.398	80.968	483.398	77.9083	483.398	79.9937	483.398	76.9141	483.398	79.0779	483.398	77.3853	483.398	78.7491	483.398	78.664	483.398	79.1712	483.398	79.693	483.398	79.8074	483.398	80.0732
499.512	86.2753	499.512	85.9831	499.512	86.2932	499.512	85.4372	499.512	86.0389	499.512	84.6899	499.512	85.5349	499.512	83.837	499.512	84.8288	499.512	83.0242	499.512	84.0048	499.512	82.4203	499.512	83.1935	499.512	82.133	499.512	82.5432	499.512	82.1221	499.512	82.1361	499.512	82.2148	499.512	81.9154	499.512	82.1998	499.512	81.7211	499.512	81.8943	499.512	81.3877	499.512	81.1676	499.512	80.8148	499.512	79.9817	499.512	80.0269	499.512	78.5554	499.512	79.2612	499.512	77.6331	499.512	78.9265	499.512	77.9087	499.512	79.1417	499.512	78.8002	499.512	79.4711	499.512	79.4176
517.09	86.6971	517.09	86.4619	517.09	86.624	517.09	85.9128	517.09	86.2671	517.09	85.0723	517.09	85.6663	517.09	84.0101	517.09	84.8808	517.09	82.8753	517.09	84.0045	517.09	81.9228	517.09	83.1858	517.09	81.4323	517.09	82.5971	517.09	81.4654	517.09	82.3126	517.09	81.7708	517.09	82.2142	517.09	82.0047	517.09	82.0767	517.09	81.9103	517.09	81.711	517.09	81.3393	517.09	81.0304	517.09	80.2675	517.09	80.0801	517.09	78.9426	517.09	79.1036	517.09	78.0948	517.09	78.555	517.09	78.3042	517.09	78.6951	517.09	78.9822	517.09	79.1485	517.09	79.3347
536.133	86.9384	536.133	86.7291	536.133	86.843	536.133	86.1973	536.133	86.4713	536.133	85.3463	536.133	85.8487	536.133	84.2082	536.133	84.9833	536.133	82.8457	536.133	83.8743	536.133	81.3713	536.133	82.5791	536.133	80.036	536.133	81.3419	536.133	79.3055	536.133	80.6113	536.133	79.4791	536.133	80.6123	536.133	80.1865	536.133	80.9739	536.133	80.821	536.133	81.1579	536.133	81.0317	536.133	80.8511	536.133	80.7378	536.133	79.9954	536.133	80.0998	536.133	78.8615	536.133	79.5284	536.133	78.179	536.133	79.4077	536.133	78.4704	536.133	79.5965	536.133	79.1835	536.133	79.6146
555.176	86.7991	555.176	86.6724	555.176	86.6615	555.176	86.27	555.176	86.2843	555.176	85.6082	555.176	85.6847	555.176	84.7271	555.176	84.8605	555.176	83.6684	555.176	83.7969	555.176	82.4589	555.176	82.5024	555.176	81.1344	555.176	81.0936	555.176	79.8081	555.176	79.9198	555.176	78.7569	555.176	79.4832	555.176	78.338	555.176	79.8654	555.176	78.5476	555.176	80.5512	555.176	78.8907	555.176	81.0045	555.176	78.8785	555.176	80.92	555.176	78.3458	555.176	80.1834	555.176	77.5424	555.176	78.9355	555.176	77.0684	555.176	77.7645	555.176	77.1486	555.176	77.3167	555.176	77.2961
574.219	86.8772	574.219	86.5041	574.219	87.0021	574.219	85.8977	574.219	86.8824	574.219	85.0981	574.219	86.5173	574.219	84.1532	574.219	85.8841	574.219	83.1008	574.219	84.943	574.219	81.9804	574.219	83.6639	574.219	80.872	574.219	82.0702	574.219	79.9019	574.219	80.3253	574.219	79.1796	574.219	78.8765	574.219	78.7214	574.219	78.3487	574.219	78.4637	574.219	78.7878	574.219	78.341	574.219	79.5454	574.219	78.3231	574.219	80.0945	574.219	78.4119	574.219	80.276	574.219	78.6446	574.219	80.1773	574.219	79.0326	574.219	80.0037	574.219	79.458	574.219	79.8874	574.219	79.751
594.727	85.8258	594.727	85.5741	594.727	85.8683	594.727	85.1153	594.727	85.7041	594.727	84.4719	594.727	85.3272	594.727	83.6886	594.727	84.7243	594.727	82.8161	594.727	83.891	594.727	81.893	594.727	82.8504	594.727	80.9598	594.727	81.6612	594.727	80.0987	594.727	80.4247	594.727	79.4178	594.727	79.2862	594.727	78.9348	594.727	78.3864	594.727	78.5259	594.727	77.7844	594.727	78.086	594.727	77.5351	594.727	77.7436	594.727	77.8399	594.727	77.8541	594.727	78.7541	594.727	78.5712	594.727	79.8655	594.727	79.5707	594.727	80.705	594.727	80.4421	594.727	81.0756	594.727	80.9714
615.234	85.9163	615.234	85.8595	615.234	85.7154	615.234	85.5401	615.234	85.2882	615.234	84.9789	615.234	84.6823	615.234	84.2032	615.234	83.9498	615.234	83.2365	615.234	83.1362	615.234	82.1216	615.234	82.2681	615.234	80.9621	615.234	81.3419	615.234	79.9247	615.234	80.3323	615.234	79.1704	615.234	79.2775	615.234	78.7663	615.234	78.4287	615.234	78.6539	615.234	78.1236	615.234	78.6738	615.234	78.2153	615.234	78.6557	615.234	78.1334	615.234	78.574	615.234	77.6443	615.234	78.6249	615.234	77.3309	615.234	78.9931	615.234	77.9627	615.234	79.4661	615.234	79.0015	615.234	79.5679
637.207	86.2746	637.207	85.9734	637.207	86.3103	637.207	85.3796	637.207	86.1345	637.207	84.5218	637.207	85.7846	637.207	83.4943	637.207	85.2267	637.207	82.4159	637.207	84.3502	637.207	81.3751	637.207	83.0627	637.207	80.4703	637.207	81.4308	637.207	79.8536	637.207	79.7707	637.207	79.5506	637.207	78.5531	637.207	79.2914	637.207	78.043	637.207	78.7224	637.207	78.0705	637.207	77.7363	637.207	78.2539	637.207	76.7611	637.207	78.2893	637.207	76.7648	637.207	78.1598	637.207	77.9931	637.207	78.2932	637.207	79.5078	637.207	79.1033	637.207	80.5321	637.207	80.1656	637.207	80.755
659.18	85.7959	659.18	85.6675	659.18	85.6607	659.18	85.2715	659.18	85.3177	659.18	84.6705	659.18	84.8039	659.18	83.921	659.18	84.0993	659.18	82.9987	659.18	83.1711	659.18	81.8503	659.18	82.0469	659.18	80.5255	659.18	80.8335	659.18	79.2376	659.18	79.6545	659.18	78.306	659.18	78.5704	659.18	77.9612	659.18	77.6037	659.18	78.0252	659.18	76.8479	659.18	77.9345	659.18	76.4494	659.18	77.2303	659.18	76.4642	659.18	76.0521	659.18	76.9077	659.18	75.6069	659.18	77.7453	659.18	76.7599	659.18	78.6639	659.18	78.2637	659.18	79.2258	659.18	79.1364
682.617	86.3195	682.617	86.2576	682.617	86.1365	682.617	85.9466	682.617	85.7607	682.617	85.4042	682.617	85.2364	682.617	84.6093	682.617	84.5225	682.617	83.5258	682.617	83.5306	682.617	82.2577	682.617	82.2972	682.617	81.1208	682.617	81.1161	682.617	80.3345	682.617	80.3505	682.617	79.7394	682.617	79.9265	682.617	79.1643	682.617	79.3767	682.617	78.7361	682.617	78.5394	682.617	78.4122	682.617	77.87	682.617	77.7683	682.617	77.6022	682.617	76.8314	682.617	77.2276	682.617	76.8777	682.617	77.0201	682.617	78.4386	682.617	78.1007	682.617	79.9283	682.617	79.6669	682.617	80.3942
707.52	86.8549	707.52	86.7073	707.52	86.958	707.52	86.4992	707.52	86.9382	707.52	86.1701	707.52	86.6345	707.52	85.6465	707.52	85.9131	707.52	84.8619	707.52	84.7901	707.52	83.7951	707.52	83.4505	707.52	82.4991	707.52	82.1112	707.52	81.158	707.52	80.8303	707.52	80.1867	707.52	79.5387	707.52	79.9042	707.52	78.3701	707.52	79.8987	707.52	77.7767	707.52	79.4508	707.52	77.8535	707.52	78.2674	707.52	78.0322	707.52	76.74	707.52	77.989	707.52	76.2838	707.52	78.3963	707.52	77.9326	707.52	79.8197	707.52	80.086	707.52	81.1248	707.52	81.2833
732.422	86.559	732.422	86.6215	732.422	86.2896	732.422	86.4774	732.422	85.8399	732.422	86.1172	732.422	85.2612	732.422	85.4724	732.422	84.5892	732.422	84.4335	732.422	83.7895	732.422	82.9913	732.422	82.7453	732.422	81.4143	732.422	81.3233	732.422	80.1822	732.422	79.5799	732.422	79.5165	732.422	78.1668	732.422	79.2203	732.422	77.9072	732.422	79.1115	732.422	78.0333	732.422	79.0968	732.422	77.2556	732.422	78.8572	732.422	75.6746	732.422	78.0125	732.422	75.6207	732.422	76.799	732.422	77.2886	732.422	76.6997	732.422	78.6016	732.422	78.0053	732.422	79.2033	732.422	79.0461
757.324	86.5666	757.324	86.4835	757.324	86.4898	757.324	86.23	757.324	86.2755	757.324	85.8286	757.324	85.8622	757.324	85.229	757.324	85.1041	757.324	84.2935	757.324	83.9001	757.324	82.9932	757.324	82.3262	757.324	81.4652	757.324	80.6736	757.324	79.7818	757.324	79.264	757.324	78.0005	757.324	78.0863	757.324	76.709	757.324	77.1637	757.324	76.508	757.324	77.388	757.324	76.6605	757.324	78.44	757.324	76.4768	757.324	78.526	757.324	76.3293	757.324	76.892	757.324	76.7711	757.324	74.7288	757.324	77.6516	757.324	75.6053	757.324	78.4542	757.324	77.6369	757.324	78.5924
785.156	86.2643	785.156	85.8105	785.156	86.6756	785.156	85.548	785.156	86.7548	785.156	85.4759	785.156	86.2423	785.156	85.3104	785.156	85.0256	785.156	84.7233	785.156	83.35	785.156	83.5756	785.156	81.8274	785.156	81.9495	785.156	80.7975	785.156	80.0792	785.156	79.8944	785.156	78.4418	785.156	78.9819	785.156	77.4881	785.156	78.5617	785.156	76.7603	785.156	78.3069	785.156	76.2568	785.156	77.9176	785.156	76.9439	785.156	78.0273	785.156	77.7815	785.156	78.1391	785.156	76.8988	785.156	77.8859	785.156	74.0499	785.156	78.2174	785.156	74.5386	785.156	78.6051	785.156	77.5293
811.523	86.8652	811.523	87.1392	811.523	86.3859	811.523	87.0134	811.523	85.8674	811.523	86.3581	811.523	85.3533	811.523	85.1587	811.523	84.7698	811.523	83.5255	811.523	83.9597	811.523	81.6935	811.523	82.6714	811.523	80.0251	811.523	80.7053	811.523	79.0321	811.523	78.2265	811.523	79.0507	811.523	76.1157	811.523	79.4439	811.523	75.5658	811.523	79.1739	811.523	76.1007	811.523	77.9498	811.523	76.015	811.523	76.2721	811.523	74.0028	811.523	75.3246	811.523	70.8328	811.523	76.5859	811.523	73.1067	811.523	78.8103	811.523	76.9689	811.523	80.209	811.523	79.3553	811.523	80.3947
840.82	86.8436	840.82	86.403	840.82	86.887	840.82	85.7999	840.82	86.4546	840.82	85.3329	840.82	85.5377	840.82	84.8951	840.82	84.2027	840.82	83.9503	840.82	82.6605	840.82	82.1149	840.82	81.2437	840.82	79.4969	840.82	80.1305	840.82	76.7732	840.82	79.1965	840.82	75.5407	840.82	78.0694	840.82	76.391	840.82	76.9781	840.82	76.6986	840.82	77.1957	840.82	75.868	840.82	78.3473	840.82	76.088	840.82	79.0525	840.82	77.4323	840.82	78.5316	840.82	77.3441	840.82	76.6256	840.82	75.9681	840.82	75.7078	840.82	76.705	840.82	77.4296	840.82	78.0538
870.117	86.889	870.117	87.0541	870.117	86.2706	870.117	86.6536	870.117	85.4248	870.117	85.6958	870.117	84.5408	870.117	84.2729	870.117	83.6133	870.117	82.5623	870.117	82.6364	870.117	80.8596	870.117	81.8421	870.117	79.4079	870.117	81.3627	870.117	78.0557	870.117	80.7955	870.117	76.2572	870.117	79.5723	870.117	74.1064	870.117	77.9934	870.117	73.9155	870.117	76.7791	870.117	75.1548	870.117	75.0132	870.117	75.0335	870.117	71.8541	870.117	75.6356	870.117	71.9624	870.117	77.6947	870.117	74.1512	870.117	78.1085	870.117	74.7495	870.117	76.924	870.117	74.9685	870.117	75.6263
900.879	86.5349	900.879	86.1093	900.879	86.7782	900.879	85.6715	900.879	86.6999	900.879	85.3698	900.879	86.1103	900.879	84.9541	900.879	84.9542	900.879	83.9663	900.879	83.3185	900.879	82.2121	900.879	81.0981	900.879	79.9769	900.879	78.1108	900.879	77.9538	900.879	75.3107	900.879	76.6211	900.879	74.6054	900.879	75.9142	900.879	74.9131	900.879	76.105	900.879	75.6162	900.879	76.6802	900.879	77.6919	900.879	76.1943	900.879	78.5759	900.879	74.4778	900.879	76.5161	900.879	73.3244	900.879	73.3562	900.879	74.3706	900.879	75.6103	900.879	76.1871	900.879	77.5126	900.879	77.4679
933.105	86.0446	933.105	85.9438	933.105	86.209	933.105	85.9195	933.105	86.11	933.105	85.6452	933.105	85.4841	933.105	84.6882	933.105	84.3222	933.105	82.8109	933.105	82.7088	933.105	80.5323	933.105	81.1505	933.105	79.1158	933.105	80.5731	933.105	78.3871	933.105	80.3492	933.105	76.9849	933.105	78.8135	933.105	75.7747	933.105	76.1995	933.105	75.3511	933.105	75.2485	933.105	74.0036	933.105	73.8854	933.105	74.4913	933.105	72.8789	933.105	76.6789	933.105	75.8284	933.105	76.2524	933.105	76.6463	933.105	74.7849	933.105	75.1889	933.105	77.4514	933.105	77.0165	933.105	78.8185
965.332	86.5994	965.332	87.0145	965.332	85.7257	965.332	86.672	965.332	84.9596	965.332	85.5736	965.332	84.5945	965.332	83.8206	965.332	84.2072	965.332	81.6727	965.332	83.2874	965.332	79.7084	965.332	81.7845	965.332	78.0439	965.332	79.4891	965.332	76.1118	965.332	76.1631	965.332	75.08	965.332	74.5451	965.332	75.9835	965.332	74.3925	965.332	75.8544	965.332	72.2934	965.332	75.2269	965.332	73.6698	965.332	75.3267	965.332	75.4726	965.332	74.8792	965.332	71.5961	965.332	75.0852	965.332	63.712	965.332	77.2008	965.332	72.0756	965.332	78.0758	965.332	75.4682	965.332	77.2837
1,000.49	86.6763	1,000.49	86.7097	1,000.49	86.508	1,000.49	86.6525	1,000.49	85.9794	1,000.49	86.229	1,000.49	85.0276	1,000.49	85.0875	1,000.49	83.9301	1,000.49	83.1482	1,000.49	82.7767	1,000.49	80.9271	1,000.49	81.2187	1,000.49	79.0402	1,000.49	79.7884	1,000.49	77.8114	1,000.49	79.2781	1,000.49	76.8965	1,000.49	78.3756	1,000.49	74.7801	1,000.49	75.9378	1,000.49	73.3421	1,000.49	75.3307	1,000.49	74.5763	1,000.49	74.9832	1,000.49	73.4969	1,000.49	71.2621	1,000.49	72.8519	1,000.49	74.0891	1,000.49	75.7405	1,000.49	75.6568	1,000.49	76.6118	1,000.49	75.303	1,000.49	76.5045	1,000.49	76.4435	1,000.49	76.9703
1,035.64	87.0294	1,035.64	87.0215	1,035.64	86.3554	1,035.64	86.3873	1,035.64	85.3618	1,035.64	85.365	1,035.64	84.579	1,035.64	83.9919	1,035.64	84.1209	1,035.64	82.5487	1,035.64	83.4801	1,035.64	81.7368	1,035.64	82.3258	1,035.64	81.2236	1,035.64	80.8799	1,035.64	79.9304	1,035.64	79.2995	1,035.64	77.9306	1,035.64	78.2512	1,035.64	76.4462	1,035.64	77.849	1,035.64	75.0883	1,035.64	76.6976	1,035.64	73.5627	1,035.64	76.6472	1,035.64	72.8652	1,035.64	76.653	1,035.64	71.1516	1,035.64	72.6482	1,035.64	72.4692	1,035.64	64.9897	1,035.64	76.3604	1,035.64	71.7184	1,035.64	77.868	1,035.64	75.5934	1,035.64	77.424
1,072.27	86.369	1,072.27	85.7207	1,072.27	86.8875	1,072.27	85.4168	1,072.27	86.5632	1,072.27	85.0246	1,072.27	85.3054	1,072.27	83.9658	1,072.27	83.8252	1,072.27	82.6018	1,072.27	82.705	1,072.27	81.7335	1,072.27	81.772	1,072.27	81.2791	1,072.27	80.5381	1,072.27	80.535	1,072.27	78.9172	1,072.27	79.4897	1,072.27	77.7517	1,072.27	79.0818	1,072.27	76.5249	1,072.27	78.3075	1,072.27	73.9126	1,072.27	76.6383	1,072.27	70.5128	1,072.27	75.8431	1,072.27	68.9672	1,072.27	74.0483	1,072.27	72.4859	1,072.27	68.9959	1,072.27	74.1133	1,072.27	74.9132	1,072.27	72.8613	1,072.27	78.4753	1,072.27	75.4932	1,072.27	78.5237
1,108.89	85.9763	1,108.89	86.0291	1,108.89	85.8721	1,108.89	86.012	1,108.89	85.6127	1,108.89	85.7609	1,108.89	84.9196	1,108.89	84.9656	1,108.89	83.7644	1,108.89	83.5596	1,108.89	82.2978	1,108.89	81.7498	1,108.89	80.498	1,108.89	79.6087	1,108.89	78.9336	1,108.89	78.1765	1,108.89	78.2083	1,108.89	77.5651	1,108.89	76.9197	1,108.89	77.0903	1,108.89	73.9438	1,108.89	77.7915	1,108.89	73.3214	1,108.89	78.5915	1,108.89	75.6565	1,108.89	77.7321	1,108.89	75.3922	1,108.89	75.5035	1,108.89	71.1631	1,108.89	72.4794	1,108.89	69.5976	1,108.89	72.3641	1,108.89	74.3259	1,108.89	76.3625	1,108.89	76.6207	1,108.89	77.4985
1,148.44	86.3164	1,148.44	85.7131	1,148.44	86.5075	1,148.44	85.3205	1,148.44	85.869	1,148.44	85.0208	1,148.44	84.7132	1,148.44	84.3383	1,148.44	83.5141	1,148.44	83.4753	1,148.44	82.5192	1,148.44	81.841	1,148.44	81.9254	1,148.44	78.7153	1,148.44	81.0918	1,148.44	76.0795	1,148.44	78.8269	1,148.44	73.2616	1,148.44	77.0187	1,148.44	72.763	1,148.44	74.9894	1,148.44	75.3745	1,148.44	70.9392	1,148.44	74.4292	1,148.44	68.9691	1,148.44	75.0549	1,148.44	69.3425	1,148.44	78.0687	1,148.44	64.9616	1,148.44	76.4717	1,148.44	71.7267	1,148.44	69.4469	1,148.44	74.6208	1,148.44	76.3978	1,148.44	76.818	1,148.44	78.8406
1,189.45	85.3607	1,189.45	85.3627	1,189.45	85.9752	1,189.45	85.8111	1,189.45	86.2942	1,189.45	85.7514	1,189.45	85.7094	1,189.45	84.8662	1,189.45	83.9093	1,189.45	83.4515	1,189.45	81.0529	1,189.45	81.1803	1,189.45	78.3343	1,189.45	76.8279	1,189.45	77.2603	1,189.45	72.3174	1,189.45	76.1646	1,189.45	71.7843	1,189.45	74.0262	1,189.45	70.2274	1,189.45	72.2726	1,189.45	73.4349	1,189.45	67.963	1,189.45	76.7507	1,189.45	63.5374	1,189.45	75.5687	1,189.45	69.7719	1,189.45	75.2419	1,189.45	71.0111	1,189.45	75.2381	1,189.45	69.6655	1,189.45	70.1451	1,189.45	75.979	1,189.45	73.8102	1,189.45	78.4367	1,189.45	77.329
1,230.47	86.2647	1,230.47	86.7707	1,230.47	85.8603	1,230.47	86.8032	1,230.47	85.6098	1,230.47	85.6353	1,230.47	85.1804	1,230.47	83.7209	1,230.47	84.1378	1,230.47	82.8885	1,230.47	82.2775	1,230.47	82.3769	1,230.47	80.3462	1,230.47	80.3238	1,230.47	78.8178	1,230.47	77.4416	1,230.47	76.2365	1,230.47	75.6873	1,230.47	73.6104	1,230.47	73.3844	1,230.47	73.7905	1,230.47	70.102	1,230.47	73.3353	1,230.47	71.5382	1,230.47	71.9049	1,230.47	72.8541	1,230.47	73.5451	1,230.47	76.3615	1,230.47	71.5272	1,230.47	77.7442	1,230.47	72.4591	1,230.47	74.0491	1,230.47	75.1043	1,230.47	73.0137	1,230.47	76.1791	1,230.47	76.6481
1,274.41	86.8644	1,274.41	87.5196	1,274.41	85.9379	1,274.41	86.7962	1,274.41	85.654	1,274.41	84.5175	1,274.41	85.6582	1,274.41	82.2069	1,274.41	84.771	1,274.41	82.3892	1,274.41	82.5355	1,274.41	82.8646	1,274.41	80.0521	1,274.41	81.6382	1,274.41	77.7338	1,274.41	79.3776	1,274.41	75.3113	1,274.41	77.7146	1,274.41	73.5038	1,274.41	76.7347	1,274.41	72.3734	1,274.41	73.6136	1,274.41	70.814	1,274.41	69.247	1,274.41	62.9503	1,274.41	72.0851	1,274.41	55.9239	1,274.41	75.9882	1,274.41	71.8293	1,274.41	77.9369	1,274.41	74.354	1,274.41	75.0372	1,274.41	75.6776	1,274.41	70.1525	1,274.41	77.6488	1,274.41	76.3486
1,319.82	87.5117	1,319.82	87.6603	1,319.82	86.8268	1,319.82	86.8026	1,319.82	86.0166	1,319.82	84.902	1,319.82	85.4381	1,319.82	83.7649	1,319.82	85.0698	1,319.82	84.0437	1,319.82	83.7688	1,319.82	83.9475	1,319.82	81.2541	1,319.82	83.0254	1,319.82	79.2216	1,319.82	80.9501	1,319.82	76.339	1,319.82	76.2859	1,319.82	71.6509	1,319.82	72.9231	1,319.82	73.3611	1,319.82	72.2168	1,319.82	72.9733	1,319.82	69.6891	1,319.82	67.1551	1,319.82	74.0249	1,319.82	71.3671	1,319.82	77.8902	1,319.82	74.0526	1,319.82	78.5088	1,319.82	73.0727	1,319.82	74.6265	1,319.82	77.247	1,319.82	72.988	1,319.82	78.5621	1,319.82	77.9919
1,366.7	87.9893	1,366.7	88.2697	1,366.7	86.852	1,366.7	86.7693	1,366.7	86.077	1,366.7	84.5227	1,366.7	86.0788	1,366.7	84.8105	1,366.7	85.8327	1,366.7	84.9505	1,366.7	85.063	1,366.7	83.472	1,366.7	83.8534	1,366.7	82.385	1,366.7	81.3661	1,366.7	80.9255	1,366.7	79.3782	1,366.7	77.1966	1,366.7	77.6024	1,366.7	76.4677	1,366.7	74.939	1,366.7	76.3478	1,366.7	75.0642	1,366.7	74.1064	1,366.7	76.1537	1,366.7	67.2809	1,366.7	71.5797	1,366.7	72.6103	1,366.7	74.317	1,366.7	80.2172	1,366.7	78.1996	1,366.7	78.9682	1,366.7	76.976	1,366.7	71.8839	1,366.7	76.9528	1,366.7	74.5705
1,413.57	87.909	1,413.57	87.0434	1,413.57	87.5294	1,413.57	85.9453	1,413.57	86.2472	1,413.57	86.5475	1,413.57	85.1057	1,413.57	87.128	1,413.57	85.3509	1,413.57	85.5186	1,413.57	85.5043	1,413.57	82.2733	1,413.57	84.3745	1,413.57	80.8529	1,413.57	82.3935	1,413.57	79.7473	1,413.57	79.1102	1,413.57	77.0359	1,413.57	74.4822	1,413.57	78.5329	1,413.57	74.8555	1,413.57	80.0147	1,413.57	77.5812	1,413.57	79.2249	1,413.57	78.3864	1,413.57	76.3287	1,413.57	75.2993	1,413.57	54.7647	1,413.57	76.887	1,413.57	80.0176	1,413.57	78.1077	1,413.57	82.2017	1,413.57	79.1787	1,413.57	75.8641	1,413.57	77.4735	1,413.57	70.857
1,463.38	86.6283	1,463.38	86.0279	1,463.38	86.8736	1,463.38	85.9657	1,463.38	86.502	1,463.38	87.3121	1,463.38	85.83	1,463.38	87.1518	1,463.38	85.4828	1,463.38	83.9557	1,463.38	85.2671	1,463.38	80.4344	1,463.38	84.0993	1,463.38	78.7498	1,463.38	80.7451	1,463.38	78.0104	1,463.38	79.5736	1,463.38	73.5066	1,463.38	77.5243	1,463.38	75.684	1,463.38	69.5684	1,463.38	79.9455	1,463.38	77.2745	1,463.38	76.9298	1,463.38	78.7452	1,463.38	72.4138	1,463.38	75.4993	1,463.38	66.1739	1,463.38	72.0561	1,463.38	78.4244	1,463.38	77.4391	1,463.38	80.2187	1,463.38	79.5444	1,463.38	77.675	1,463.38	78.0841	1,463.38	77.2509
1,516.11	84.2537	1,516.11	83.7489	1,516.11	85.8941	1,516.11	85.4955	1,516.11	86.594	1,516.11	87.4659	1,516.11	85.6897	1,516.11	86.8243	1,516.11	84.1279	1,516.11	83.0632	1,516.11	84.1174	1,516.11	80.118	1,516.11	85.0591	1,516.11	76.614	1,516.11	83.8716	1,516.11	73.7771	1,516.11	81.4075	1,516.11	73.102	1,516.11	78.6816	1,516.11	49.2951	1,516.11	75.6867	1,516.11	72.9146	1,516.11	75.1117	1,516.11	76.9631	1,516.11	79.422	1,516.11	77.5653	1,516.11	76.8247	1,516.11	71.7918	1,516.11	70.9271	1,516.11	74.1201	1,516.11	74.9751	1,516.11	80.0527	1,516.11	76.3241	1,516.11	78.2459	1,516.11	79.8247	1,516.11	77.8119
1,568.85	84.5129	1,568.85	84.0786	1,568.85	85.5577	1,568.85	85.4791	1,568.85	85.6145	1,568.85	86.773	1,568.85	84.9867	1,568.85	86.0171	1,568.85	84.1986	1,568.85	83.6271	1,568.85	84.7635	1,568.85	81.9587	1,568.85	85.0366	1,568.85	80.2102	1,568.85	83.298	1,568.85	78.381	1,568.85	79.9526	1,568.85	78.1895	1,568.85	77.4461	1,568.85	72.7007	1,568.85	74.3403	1,568.85	59.893	1,568.85	72.3206	1,568.85	73.3934	1,568.85	78.0948	1,568.85	77.1722	1,568.85	77.4803	1,568.85	73.8962	1,568.85	72.95	1,568.85	70.9442	1,568.85	73.1882	1,568.85	78.3956	1,568.85	74.4311	1,568.85	77.4841	1,568.85	72.5938	1,568.85	72.9204
1,624.51	85.0231	1,624.51	84.8017	1,624.51	85.6712	1,624.51	85.6508	1,624.51	85.8804	1,624.51	85.5054	1,624.51	85.5232	1,624.51	83.7785	1,624.51	84.2323	1,624.51	83.7327	1,624.51	84.0658	1,624.51	84.454	1,624.51	83.2956	1,624.51	82.4397	1,624.51	81.7857	1,624.51	80.3109	1,624.51	80.8139	1,624.51	77.7336	1,624.51	80.254	1,624.51	74.8338	1,624.51	77.7609	1,624.51	74.2004	1,624.51	77.6189	1,624.51	73.7764	1,624.51	78.2461	1,624.51	71.6284	1,624.51	74.4449	1,624.51	75.4109	1,624.51	69.7973	1,624.51	72.0637	1,624.51	72.2262	1,624.51	71.3998	1,624.51	73.2008	1,624.51	74.5601	1,624.51	74.9138	1,624.51	74.6644
1,681.64	86.7124	1,681.64	86.0152	1,681.64	86.9456	1,681.64	86.0002	1,681.64	86.3561	1,681.64	84.823	1,681.64	85.363	1,681.64	84.1211	1,681.64	84.4023	1,681.64	85.3833	1,681.64	83.195	1,681.64	84.6062	1,681.64	81.2817	1,681.64	81.9547	1,681.64	80.4028	1,681.64	79.0339	1,681.64	77.7694	1,681.64	75.7334	1,681.64	76.1128	1,681.64	76.1165	1,681.64	74.2435	1,681.64	74.2797	1,681.64	71.9723	1,681.64	76.0416	1,681.64	77.9807	1,681.64	74.4763	1,681.64	74.8255	1,681.64	65.481	1,681.64	70.5749	1,681.64	69.1094	1,681.64	66.6753	1,681.64	75.7502	1,681.64	71.4053	1,681.64	75.5645	1,681.64	72.643	1,681.64	75.9313
1,741.7	87.123	1,741.7	86.8034	1,741.7	87.1406	1,741.7	86.1167	1,741.7	86.3044	1,741.7	84.713	1,741.7	85.9234	1,741.7	84.8623	1,741.7	84.5246	1,741.7	85.1994	1,741.7	81.0561	1,741.7	82.6175	1,741.7	80.4619	1,741.7	78.256	1,741.7	81.4058	1,741.7	74.7061	1,741.7	79.442	1,741.7	75.5028	1,741.7	74.9713	1,741.7	72.9157	1,741.7	70.7157	1,741.7	57.41	1,741.7	70.5563	1,741.7	74.8403	1,741.7	71.3907	1,741.7	77.9513	1,741.7	75.9929	1,741.7	72.2577	1,741.7	77.0097	1,741.7	68.7296	1,741.7	58.0647	1,741.7	74.346	1,741.7	72.2899	1,741.7	70.1676	1,741.7	76.8475	1,741.7	73.6346
1,803.22	86.0891	1,803.22	85.4149	1,803.22	86.5861	1,803.22	85.593	1,803.22	86.6768	1,803.22	86.6622	1,803.22	86.222	1,803.22	85.5348	1,803.22	85.6059	1,803.22	83.2003	1,803.22	81.7555	1,803.22	82.0247	1,803.22	77.9622	1,803.22	81.044	1,803.22	78.2462	1,803.22	76.0252	1,803.22	75.8243	1,803.22	76.0589	1,803.22	75.1777	1,803.22	75.3768	1,803.22	71.5352	1,803.22	69.3373	1,803.22	71.6494	1,803.22	75.6321	1,803.22	72.9354	1,803.22	73.0253	1,803.22	78.2414	1,803.22	71.3235	1,803.22	74.4663	1,803.22	73.0583	1,803.22	71.4224	1,803.22	74.4177	1,803.22	73.6704	1,803.22	76.6231	1,803.22	70.5637	1,803.22	72.3122
1,866.21	84.7734	1,866.21	85.7331	1,866.21	85.0545	1,866.21	87.1085	1,866.21	86.6065	1,866.21	86.8784	1,866.21	86.7743	1,866.21	84.9174	1,866.21	84.9906	1,866.21	83.7042	1,866.21	82.4058	1,866.21	82.9568	1,866.21	80.0922	1,866.21	80.4709	1,866.21	76.3699	1,866.21	77.213	1,866.21	75.1448	1,866.21	69.5535	1,866.21	71.5387	1,866.21	72.2377	1,866.21	71.9653	1,866.21	68.8071	1,866.21	75.4456	1,866.21	75.0987	1,866.21	70.7308	1,866.21	78.0623	1,866.21	76.9265	1,866.21	70.6072	1,866.21	71.7047	1,866.21	71.0718	1,866.21	67.3597	1,866.21	73.3073	1,866.21	68.1117	1,866.21	74.0383	1,866.21	69.1673	1,866.21	68.729
1,932.13	84.6058	1,932.13	84.8844	1,932.13	85.5082	1,932.13	86.4574	1,932.13	86.0958	1,932.13	86.6337	1,932.13	85.7478	1,932.13	84.6252	1,932.13	84.1716	1,932.13	83.5892	1,932.13	82.9472	1,932.13	80.3295	1,932.13	80.7881	1,932.13	80.6901	1,932.13	79.146	1,932.13	77.3407	1,932.13	77.0402	1,932.13	74.4268	1,932.13	72.915	1,932.13	74.7882	1,932.13	72.6622	1,932.13	67.1385	1,932.13	70.8984	1,932.13	68.1127	1,932.13	64.1383	1,932.13	75.8437	1,932.13	73.291	1,932.13	74.6306	1,932.13	74.3614	1,932.13	69.4486	1,932.13	68.0445	1,932.13	73.9933	1,932.13	71.5269	1,932.13	73.3706	1,932.13	70.5836	1,932.13	70.6838
1,999.51	84.8144	1,999.51	85.2735	1,999.51	85.2466	1,999.51	85.6892	1,999.51	85.5107	1,999.51	84.897	1,999.51	85.1469	1,999.51	86.0146	1,999.51	84.1894	1,999.51	83.6177	1,999.51	83.4939	1,999.51	82.1722	1,999.51	80.5437	1,999.51	80.6022	1,999.51	78.4448	1,999.51	77.8545	1,999.51	74.7322	1,999.51	74.6927	1,999.51	70.1704	1,999.51	70.1821	1,999.51	67.8184	1,999.51	73.7634	1,999.51	73.0456	1,999.51	64.6048	1,999.51	68.7559	1,999.51	72.9849	1,999.51	73.1071	1,999.51	73.7805	1,999.51	70.5315	1,999.51	70.4407	1,999.51	71.3883	1,999.51	73.5186	1,999.51	73.1016	1,999.51	71.8344	1,999.51	70.6278	1,999.51	70.9519
2,069.82	85.1503	2,069.82	85.1712	2,069.82	85.1828	2,069.82	82.949	2,069.82	85.8897	2,069.82	84.1842	2,069.82	85.0334	2,069.82	85.4806	2,069.82	83.8459	2,069.82	82.905	2,069.82	83.073	2,069.82	80.4242	2,069.82	81.2058	2,069.82	77.3077	2,069.82	79.0762	2,069.82	77.9847	2,069.82	77.4838	2,069.82	74.9234	2,069.82	74.9194	2,069.82	72.2704	2,069.82	74.7027	2,069.82	67.7013	2,069.82	73.4814	2,069.82	71.2352	2,069.82	67.0664	2,069.82	69.9329	2,069.82	70.4237	2,069.82	74.108	2,069.82	68.6321	2,069.82	66.3382	2,069.82	67.0759	2,069.82	73.6634	2,069.82	72.3851	2,069.82	71.6423	2,069.82	69.6964	2,069.82	69.7262
2,143.07	85.2216	2,143.07	84.8715	2,143.07	85.1956	2,143.07	83.6794	2,143.07	85.912	2,143.07	84.3387	2,143.07	85.2684	2,143.07	83.8408	2,143.07	83.4797	2,143.07	82.4549	2,143.07	82.0183	2,143.07	79.6333	2,143.07	80.2542	2,143.07	79.9919	2,143.07	78.877	2,143.07	74.9861	2,143.07	77.6947	2,143.07	71.8535	2,143.07	73.1821	2,143.07	71.3848	2,143.07	72.4093	2,143.07	67.8028	2,143.07	72.6742	2,143.07	70.749	2,143.07	68.6393	2,143.07	68.7597	2,143.07	68.9181	2,143.07	73.3871	2,143.07	66.3218	2,143.07	68.263	2,143.07	64.9426	2,143.07	72.4969	2,143.07	70.7299	2,143.07	71.8662	2,143.07	68.6001	2,143.07	67.5185
2,219.24	84.8662	2,219.24	84.6448	2,219.24	84.2165	2,219.24	85.2194	2,219.24	85.0235	2,219.24	83.448	2,219.24	85.3288	2,219.24	81.6561	2,219.24	83.9505	2,219.24	82.2747	2,219.24	81.3729	2,219.24	81.6037	2,219.24	79.9531	2,219.24	78.7138	2,219.24	76.8349	2,219.24	78.187	2,219.24	68.6569	2,219.24	74.7239	2,219.24	73.2197	2,219.24	71.7875	2,219.24	73.2052	2,219.24	70.4031	2,219.24	73.0153	2,219.24	68.4777	2,219.24	66.6572	2,219.24	71.2503	2,219.24	63.1783	2,219.24	72.0182	2,219.24	65.6375	2,219.24	70.7576	2,219.24	65.3369	2,219.24	71.6832	2,219.24	70.8322	2,219.24	71.7675	2,219.24	68.9102	2,219.24	68.9726
2,296.88	84.3404	2,296.88	84.1033	2,296.88	83.9662	2,296.88	84.6845	2,296.88	84.4155	2,296.88	84.1063	2,296.88	85.4098	2,296.88	83.2706	2,296.88	84.9551	2,296.88	84.0488	2,296.88	82.255	2,296.88	82.719	2,296.88	80.4055	2,296.88	81.2562	2,296.88	78.1716	2,296.88	78.548	2,296.88	75.1141	2,296.88	75.058	2,296.88	74.0336	2,296.88	73.9768	2,296.88	75.8543	2,296.88	69.1747	2,296.88	69.3173	2,296.88	68.9672	2,296.88	68.8209	2,296.88	73.4114	2,296.88	59.062	2,296.88	72.7061	2,296.88	69.3081	2,296.88	72.1913	2,296.88	65.9884	2,296.88	72.5032	2,296.88	71.7676	2,296.88	71.0177	2,296.88	67.8399	2,296.88	65.5752
2,378.91	84.9949	2,378.91	84.6881	2,378.91	84.1041	2,378.91	83.3985	2,378.91	82.7849	2,378.91	83.4382	2,378.91	84.9258	2,378.91	84.0808	2,378.91	85.6273	2,378.91	82.6452	2,378.91	83.588	2,378.91	83.0472	2,378.91	81.8984	2,378.91	77.8523	2,378.91	80.3526	2,378.91	78.6336	2,378.91	76.7298	2,378.91	76.8033	2,378.91	75.3511	2,378.91	69.2627	2,378.91	78.0385	2,378.91	72.2314	2,378.91	76.314	2,378.91	67.9084	2,378.91	70.9903	2,378.91	72.8767	2,378.91	69.7582	2,378.91	71.8265	2,378.91	73.193	2,378.91	73.0486	2,378.91	71.0807	2,378.91	72.3271	2,378.91	72.6147	2,378.91	72.5939	2,378.91	69.6394	2,378.91	65.0422
2,462.4	86.4913	2,462.4	85.7716	2,462.4	85.7234	2,462.4	82.5646	2,462.4	83.7454	2,462.4	84.0885	2,462.4	82.5209	2,462.4	83.8169	2,462.4	85.2852	2,462.4	83.0351	2,462.4	84.379	2,462.4	81.6302	2,462.4	82.634	2,462.4	82.5418	2,462.4	79.9387	2,462.4	79.3632	2,462.4	74.4896	2,462.4	72.4276	2,462.4	72.265	2,462.4	73.2785	2,462.4	76.8065	2,462.4	70.2743	2,462.4	76.6613	2,462.4	69.1697	2,462.4	75.7595	2,462.4	72.5282	2,462.4	71.8435	2,462.4	72.8575	2,462.4	75.3425	2,462.4	74.9864	2,462.4	72.0676	2,462.4	73.2258	2,462.4	72.9548	2,462.4	74.5631	2,462.4	70.5766	2,462.4	68.7583
2,548.83	86.1467	2,548.83	85.4105	2,548.83	85.596	2,548.83	83.8452	2,548.83	84.4017	2,548.83	83.4366	2,548.83	82.7191	2,548.83	84.1348	2,548.83	83.6378	2,548.83	84.2958	2,548.83	84.0039	2,548.83	82.8863	2,548.83	83.2462	2,548.83	83.1514	2,548.83	79.9346	2,548.83	80.3891	2,548.83	79.9414	2,548.83	78.5725	2,548.83	76.56	2,548.83	74.1872	2,548.83	75.4788	2,548.83	71.1622	2,548.83	73.2102	2,548.83	72.4116	2,548.83	75.2229	2,548.83	70.0145	2,548.83	72.3327	2,548.83	74.8389	2,548.83	75.9898	2,548.83	74.3449	2,548.83	73.7824	2,548.83	74.1939	2,548.83	73.7435	2,548.83	73.9138	2,548.83	71.0659	2,548.83	69.863
2,639.65	85.6822	2,639.65	84.726	2,639.65	85.1489	2,639.65	84.271	2,639.65	84.2508	2,639.65	82.5696	2,639.65	83.9984	2,639.65	83.6435	2,639.65	83.4224	2,639.65	85.072	2,639.65	84.1364	2,639.65	84.3399	2,639.65	84.5504	2,639.65	82.7236	2,639.65	78.8435	2,639.65	80.0508	2,639.65	77.7997	2,639.65	75.848	2,639.65	74.0919	2,639.65	74.3032	2,639.65	68.572	2,639.65	72.1855	2,639.65	65.0369	2,639.65	70.2505	2,639.65	67.083	2,639.65	71.6262	2,639.65	71.5698	2,639.65	74.6992	2,639.65	73.8975	2,639.65	75.5504	2,639.65	71.5959	2,639.65	72.4335	2,639.65	74.1373	2,639.65	74.3264	2,639.65	71.5391	2,639.65	62.3109
2,731.93	85.4807	2,731.93	84.7149	2,731.93	84.6332	2,731.93	83.1184	2,731.93	83.1774	2,731.93	82.9462	2,731.93	82.8366	2,731.93	84.1331	2,731.93	82.0674	2,731.93	84.4598	2,731.93	83.1577	2,731.93	84.3789	2,731.93	82.9005	2,731.93	81.3952	2,731.93	78.1259	2,731.93	80.4574	2,731.93	78.7581	2,731.93	76.7704	2,731.93	72.1714	2,731.93	72.5389	2,731.93	59.644	2,731.93	69.8381	2,731.93	57.2509	2,731.93	71.7423	2,731.93	64.4884	2,731.93	70.5327	2,731.93	71.4251	2,731.93	74.3113	2,731.93	71.4321	2,731.93	75.5679	2,731.93	69.9279	2,731.93	71.0417	2,731.93	72.7632	2,731.93	73.507	2,731.93	68.8832	2,731.93	62.9667
2,828.61	85.5677	2,828.61	85.4224	2,828.61	84.8514	2,828.61	82.9551	2,828.61	83.5503	2,828.61	83.2371	2,828.61	81.7339	2,828.61	84.2787	2,828.61	83.1208	2,828.61	84.6934	2,828.61	83.0083	2,828.61	83.846	2,828.61	82.0019	2,828.61	81.5497	2,828.61	80.1134	2,828.61	79.1735	2,828.61	78.5521	2,828.61	78.6003	2,828.61	64.1187	2,828.61	73.0447	2,828.61	62.9041	2,828.61	72.5145	2,828.61	73.7708	2,828.61	69.0996	2,828.61	68.3282	2,828.61	70.6192	2,828.61	69.2336	2,828.61	73.9094	2,828.61	66.7099	2,828.61	74.1197	2,828.61	71.3355	2,828.61	73.7167	2,828.61	72.318	2,828.61	72.1999	2,828.61	68.0338	2,828.61	56.1395
2,928.22	85.9482	2,928.22	85.8505	2,928.22	85.1364	2,928.22	84.8422	2,928.22	84.13	2,928.22	84.1686	2,928.22	82.3107	2,928.22	84.4582	2,928.22	83.6404	2,928.22	84.8107	2,928.22	83.5396	2,928.22	83.6146	2,928.22	82.0568	2,928.22	82.6029	2,928.22	81.4038	2,928.22	80.495	2,928.22	76.119	2,928.22	77.9954	2,928.22	72.9861	2,928.22	73.1029	2,928.22	70.5199	2,928.22	69.078	2,928.22	77.4897	2,928.22	69.6003	2,928.22	67.9225	2,928.22	69.5493	2,928.22	68.6799	2,928.22	74.0089	2,928.22	67.4933	2,928.22	73.939	2,928.22	73.2562	2,928.22	73.3719	2,928.22	72.9764	2,928.22	72.858	2,928.22	69.0011	2,928.22	62.5443
3,030.76	86.0473	3,030.76	85.4308	3,030.76	85.3433	3,030.76	85.4021	3,030.76	84.2287	3,030.76	83.897	3,030.76	82.3191	3,030.76	83.6575	3,030.76	82.309	3,030.76	83.3801	3,030.76	83.5524	3,030.76	82.8619	3,030.76	82.1353	3,030.76	83.7089	3,030.76	81.8006	3,030.76	78.8845	3,030.76	76.6685	3,030.76	74.9853	3,030.76	77.8742	3,030.76	70.8068	3,030.76	72.6577	3,030.76	73.3948	3,030.76	74.3731	3,030.76	70.6679	3,030.76	65.9955	3,030.76	68.6053	3,030.76	67.366	3,030.76	74.7798	3,030.76	68.406	3,030.76	74.5383	3,030.76	74.0405	3,030.76	74.3598	3,030.76	71.0994	3,030.76	73.5607	3,030.76	68.9388	3,030.76	57.9818
3,137.7	85.1583	3,137.7	85.8064	3,137.7	85.3784	3,137.7	85.8596	3,137.7	85.3104	3,137.7	84.2443	3,137.7	83.1367	3,137.7	82.5891	3,137.7	80.0738	3,137.7	83.6314	3,137.7	83.5876	3,137.7	83.097	3,137.7	82.7537	3,137.7	81.995	3,137.7	82.7274	3,137.7	79.4583	3,137.7	79.7188	3,137.7	78.3811	3,137.7	79.0211	3,137.7	73.9634	3,137.7	71.6952	3,137.7	71.4145	3,137.7	71.7772	3,137.7	69.2296	3,137.7	63.0834	3,137.7	70.5761	3,137.7	64.2621	3,137.7	74.9053	3,137.7	69.916	3,137.7	73.8919	3,137.7	71.3488	3,137.7	74.2865	3,137.7	70.7094	3,137.7	73.144	3,137.7	71.2133	3,137.7	51.7847
3,249.02	84.6522	3,249.02	85.2937	3,249.02	85.8577	3,249.02	85.6657	3,249.02	85.488	3,249.02	83.5514	3,249.02	84.2884	3,249.02	82.049	3,249.02	79.2337	3,249.02	82.5227	3,249.02	81.7321	3,249.02	84.4389	3,249.02	83.7025	3,249.02	82.0439	3,249.02	84.2724	3,249.02	82.5164	3,249.02	81.9431	3,249.02	78.5681	3,249.02	79.7244	3,249.02	75.1309	3,249.02	72.5512	3,249.02	70.3393	3,249.02	61.8298	3,249.02	67.9593	3,249.02	68.8876	3,249.02	70.4552	3,249.02	49.9863	3,249.02	74.1507	3,249.02	69.766	3,249.02	73.9769	3,249.02	70.8947	3,249.02	74.6774	3,249.02	71.8891	3,249.02	72.7775	3,249.02	70.7384	3,249.02	62.0574
3,363.28	85.2999	3,363.28	86.8063	3,363.28	85.8752	3,363.28	85.8116	3,363.28	85.951	3,363.28	82.7679	3,363.28	83.1854	3,363.28	81.9626	3,363.28	80.7187	3,363.28	83.4263	3,363.28	80.8084	3,363.28	83.0644	3,363.28	84.518	3,363.28	83.1284	3,363.28	84.7474	3,363.28	81.0624	3,363.28	83.3827	3,363.28	74.2233	3,363.28	80.7943	3,363.28	72.5227	3,363.28	63.2529	3,363.28	70.1626	3,363.28	69.6179	3,363.28	69.7122	3,363.28	68.0649	3,363.28	70.271	3,363.28	59.781	3,363.28	73.2591	3,363.28	70.8084	3,363.28	72.68	3,363.28	73.2279	3,363.28	72.2867	3,363.28	69.8557	3,363.28	71.717	3,363.28	70.0346	3,363.28	63.7466
3,481.93	85.6751	3,481.93	86.9836	3,481.93	85.8281	3,481.93	85.8509	3,481.93	86.6929	3,481.93	82.9626	3,481.93	83.9239	3,481.93	82.0565	3,481.93	80.1145	3,481.93	83.3081	3,481.93	81.9253	3,481.93	84.0511	3,481.93	85.4105	3,481.93	82.8182	3,481.93	83.6319	3,481.93	78.4366	3,481.93	84.4422	3,481.93	77.5443	3,481.93	77.6837	3,481.93	72.9833	3,481.93	66.5331	3,481.93	67.9303	3,481.93	71.9332	3,481.93	69.7497	3,481.93	69.331	3,481.93	70.9103	3,481.93	63.3609	3,481.93	73.748	3,481.93	70.6134	3,481.93	72.6788	3,481.93	70.5999	3,481.93	74.0098	3,481.93	70.964	3,481.93	71.3195	3,481.93	68.0756	3,481.93	58.1433
3,604.98	86.0011	3,604.98	85.6311	3,604.98	85.2872	3,604.98	85.6602	3,604.98	85.3677	3,604.98	84.4539	3,604.98	84.5866	3,604.98	81.6061	3,604.98	81.0918	3,604.98	81.8741	3,604.98	82.9213	3,604.98	83.3997	3,604.98	85.7458	3,604.98	81.1905	3,604.98	83.6511	3,604.98	81.7265	3,604.98	80.7201	3,604.98	76.4241	3,604.98	71.462	3,604.98	73.0665	3,604.98	67.1489	3,604.98	70.362	3,604.98	70.0494	3,604.98	67.6518	3,604.98	63.0312	3,604.98	68.7884	3,604.98	59.5615	3,604.98	72.7656	3,604.98	69.1586	3,604.98	73.36	3,604.98	68.8706	3,604.98	73.7265	3,604.98	69.1337	3,604.98	71.7124	3,604.98	70.4109	3,604.98	60.4622
3,732.42	86.7074	3,732.42	85.2516	3,732.42	86.7171	3,732.42	85.2986	3,732.42	85.7148	3,732.42	84.9576	3,732.42	84.1693	3,732.42	82.5633	3,732.42	82.4931	3,732.42	82.6334	3,732.42	81.5075	3,732.42	82.4045	3,732.42	84.9118	3,732.42	83.1679	3,732.42	82.5972	3,732.42	80.5487	3,732.42	78.8361	3,732.42	77.5691	3,732.42	74.8338	3,732.42	74.0072	3,732.42	70.3367	3,732.42	69.9815	3,732.42	51.1888	3,732.42	68.8061	3,732.42	61.2339	3,732.42	65.9662	3,732.42	59.1903	3,732.42	72.1316	3,732.42	67.9499	3,732.42	74.1642	3,732.42	70.5643	3,732.42	74.7912	3,732.42	69.5178	3,732.42	71.0506	3,732.42	69.6061	3,732.42	62.0633
3,864.26	85.96	3,864.26	85.5883	3,864.26	86.0846	3,864.26	85.8544	3,864.26	86.9431	3,864.26	85.3758	3,864.26	84.6069	3,864.26	81.9599	3,864.26	81.5888	3,864.26	81.8915	3,864.26	83.8227	3,864.26	82.8855	3,864.26	83.5794	3,864.26	83.1191	3,864.26	81.7051	3,864.26	77.9873	3,864.26	74.9926	3,864.26	75.9934	3,864.26	74.9812	3,864.26	71.4132	3,864.26	68.9397	3,864.26	69.8148	3,864.26	69.3962	3,864.26	68.0723	3,864.26	70.5321	3,864.26	67.2327	3,864.26	63.7391	3,864.26	73.3674	3,864.26	67.306	3,864.26	74.3255	3,864.26	68.6263	3,864.26	73.6396	3,864.26	70.0995	3,864.26	69.8269	3,864.26	68.757	3,864.26	61.8512
4,000.49	86.1144	4,000.49	85.8549	4,000.49	84.7774	4,000.49	86.8467	4,000.49	85.6569	4,000.49	85.3083	4,000.49	85.9923	4,000.49	83.487	4,000.49	82.4196	4,000.49	81.702	4,000.49	83.4812	4,000.49	83.567	4,000.49	83.8755	4,000.49	81.559	4,000.49	79.9297	4,000.49	82.4684	4,000.49	77.416	4,000.49	77.0271	4,000.49	78.0129	4,000.49	73.7364	4,000.49	77.4103	4,000.49	67.8392	4,000.49	73.7357	4,000.49	69.6185	4,000.49	70.0025	4,000.49	70.2399	4,000.49	64.397	4,000.49	72.4083	4,000.49	64.7646	4,000.49	72.1579	4,000.49	66.7402	4,000.49	73.0682	4,000.49	70.8352	4,000.49	68.7655	4,000.49	69.9704	4,000.49	67.2483
4,141.11	86.8765	4,141.11	86.3326	4,141.11	86.6148	4,141.11	85.0168	4,141.11	85.968	4,141.11	85.6725	4,141.11	86.7408	4,141.11	82.653	4,141.11	84.1001	4,141.11	81.079	4,141.11	83.4772	4,141.11	81.955	4,141.11	82.5325	4,141.11	83.0684	4,141.11	80.1181	4,141.11	80.057	4,141.11	81.8923	4,141.11	74.9976	4,141.11	81.451	4,141.11	69.5182	4,141.11	75.2264	4,141.11	67.4021	4,141.11	72.1145	4,141.11	69.4889	4,141.11	69.3196	4,141.11	67.9627	4,141.11	51.6518	4,141.11	70.7308	4,141.11	63.5469	4,141.11	73.611	4,141.11	69.9616	4,141.11	74.8057	4,141.11	72.6065	4,141.11	70.1989	4,141.11	70.4004	4,141.11	70.5978
4,287.6	86.8299	4,287.6	85.6786	4,287.6	86.666	4,287.6	85.5614	4,287.6	86.5947	4,287.6	85.8769	4,287.6	87.0315	4,287.6	84.1448	4,287.6	85.2283	4,287.6	82.2171	4,287.6	83.1927	4,287.6	83.3574	4,287.6	78.1723	4,287.6	81.6255	4,287.6	82.9822	4,287.6	80.1199	4,287.6	83.881	4,287.6	79.7674	4,287.6	82.0098	4,287.6	73.9027	4,287.6	67.6787	4,287.6	70.3195	4,287.6	68.6621	4,287.6	64.5374	4,287.6	63.3611	4,287.6	66.6423	4,287.6	67.2068	4,287.6	71.1124	4,287.6	69.7516	4,287.6	72.6998	4,287.6	71.3277	4,287.6	73.6115	4,287.6	71.2072	4,287.6	68.6494	4,287.6	65.668	4,287.6	69.4502
4,438.48	87.3812	4,438.48	85.6934	4,438.48	86.7617	4,438.48	86.4648	4,438.48	87.3038	4,438.48	87.3041	4,438.48	87.4934	4,438.48	84.1852	4,438.48	84.6855	4,438.48	79.8994	4,438.48	80.259	4,438.48	82.0694	4,438.48	78.2527	4,438.48	82.3267	4,438.48	84.6139	4,438.48	81.8944	4,438.48	84.5113	4,438.48	73.1169	4,438.48	78.6251	4,438.48	70.9935	4,438.48	74.7225	4,438.48	66.8779	4,438.48	67.8318	4,438.48	65.0322	4,438.48	66.3569	4,438.48	69.0497	4,438.48	71.6889	4,438.48	71.5393	4,438.48	67.7022	4,438.48	71.9261	4,438.48	69.2861	4,438.48	72.7844	4,438.48	70.3837	4,438.48	67.937	4,438.48	67.8421	4,438.48	64.3562
4,595.21	86.3748	4,595.21	87.5208	4,595.21	86.4883	4,595.21	85.8105	4,595.21	86.8923	4,595.21	85.0885	4,595.21	86.9319	4,595.21	83.9232	4,595.21	84.7047	4,595.21	81.561	4,595.21	78.2704	4,595.21	80.4416	4,595.21	82.4003	4,595.21	82.266	4,595.21	84.0992	4,595.21	75.9597	4,595.21	82.7119	4,595.21	77.6757	4,595.21	75.2636	4,595.21	69.2886	4,595.21	76.6015	4,595.21	69.8187	4,595.21	62.2123	4,595.21	58.9615	4,595.21	67.004	4,595.21	67.1426	4,595.21	71.199	4,595.21	70.2831	4,595.21	48.6218	4,595.21	71.2159	4,595.21	65.4012	4,595.21	72.0813	4,595.21	69.5372	4,595.21	68.3872	4,595.21	68.8671	4,595.21	63.5121
4,756.35	86.363	4,756.35	86.0717	4,756.35	85.8812	4,756.35	85.8285	4,756.35	86.8918	4,756.35	86.3342	4,756.35	86.9395	4,756.35	84.1055	4,756.35	84.4579	4,756.35	80.5704	4,756.35	79.9313	4,756.35	83.0394	4,756.35	85.2351	4,756.35	80.541	4,756.35	82.8916	4,756.35	82.3479	4,756.35	80.3416	4,756.35	74.9159	4,756.35	76.57	4,756.35	72.8961	4,756.35	75.8382	4,756.35	64.8789	4,756.35	65.9994	4,756.35	67.4349	4,756.35	69.8584	4,756.35	67.8459	4,756.35	69.0168	4,756.35	69.4027	4,756.35	68.2751	4,756.35	70.6075	4,756.35	68.8478	4,756.35	70.7694	4,756.35	71.1553	4,756.35	66.7873	4,756.35	66.7974	4,756.35	68.1164
4,924.8	85.8769	4,924.8	84.936	4,924.8	86.5076	4,924.8	85.6466	4,924.8	86.7877	4,924.8	86.6459	4,924.8	86.4761	4,924.8	84.5175	4,924.8	84.6231	4,924.8	82.4702	4,924.8	82.5141	4,924.8	81.8187	4,924.8	85.1175	4,924.8	82.8403	4,924.8	80.7607	4,924.8	76.221	4,924.8	77.5427	4,924.8	77.1783	4,924.8	76.8834	4,924.8	66.957	4,924.8	75.0399	4,924.8	68.0555	4,924.8	69.7139	4,924.8	65.6289	4,924.8	71.9008	4,924.8	62.5113	4,924.8	66.2844	4,924.8	67.4643	4,924.8	71.1688	4,924.8	71.5374	4,924.8	70.3577	4,924.8	73.0176	4,924.8	71.0896	4,924.8	66.7411	4,924.8	65.6584	4,924.8	66.2636
5,097.66	85.0764	5,097.66	85.3619	5,097.66	84.7863	5,097.66	86.2578	5,097.66	86.5908	5,097.66	84.921	5,097.66	86.524	5,097.66	85.3353	5,097.66	83.9926	5,097.66	82.7629	5,097.66	84.0403	5,097.66	82.3306	5,097.66	84.3172	5,097.66	80.3091	5,097.66	81.516	5,097.66	80.7295	5,097.66	77.2478	5,097.66	76.1255	5,097.66	75.691	5,097.66	71.5279	5,097.66	75.014	5,097.66	65.2846	5,097.66	66.6741	5,097.66	56.6106	5,097.66	70.1714	5,097.66	65.9085	5,097.66	65.0312	5,097.66	65.95	5,097.66	70.4941	5,097.66	72.6014	5,097.66	69.0523	5,097.66	73.0769	5,097.66	71.5929	5,097.66	66.0435	5,097.66	64.8938	5,097.66	67.1224
5,277.83	84.2111	5,277.83	86.5794	5,277.83	84.9294	5,277.83	85.3009	5,277.83	85.0993	5,277.83	86.4624	5,277.83	85.8853	5,277.83	85.923	5,277.83	81.7102	5,277.83	82.4834	5,277.83	85.1514	5,277.83	81.3563	5,277.83	81.3102	5,277.83	82.5703	5,277.83	81.3832	5,277.83	79.2551	5,277.83	78.7422	5,277.83	74.6423	5,277.83	76.9348	5,277.83	70.6423	5,277.83	71.8332	5,277.83	65.6964	5,277.83	61.4061	5,277.83	63.7025	5,277.83	64.1092	5,277.83	66.7038	5,277.83	60.0712	5,277.83	68.0899	5,277.83	70.1887	5,277.83	70.6701	5,277.83	70.8124	5,277.83	71.5063	5,277.83	70.0747	5,277.83	63.2226	5,277.83	57.399	5,277.83	65.8811
5,463.87	84.605	5,463.87	85.9779	5,463.87	86.3765	5,463.87	84.827	5,463.87	83.9942	5,463.87	87.116	5,463.87	85.3472	5,463.87	85.4199	5,463.87	84.5317	5,463.87	81.2072	5,463.87	84.8948	5,463.87	82.6048	5,463.87	77.6655	5,463.87	80.5873	5,463.87	79.4229	5,463.87	80.6124	5,463.87	78.3875	5,463.87	77.7975	5,463.87	75.0282	5,463.87	71.8287	5,463.87	66.9746	5,463.87	67.1745	5,463.87	64.3419	5,463.87	63.4516	5,463.87	67.3371	5,463.87	66.174	5,463.87	57.4118	5,463.87	67.644	5,463.87	67.46	5,463.87	69.9747	5,463.87	68.8185	5,463.87	69.972	5,463.87	62.1282	5,463.87	62.0558	5,463.87	60.5008	5,463.87	63.9958
5,657.23	86.8213	5,657.23	86.4227	5,657.23	87.0986	5,657.23	86.6313	5,657.23	85.5791	5,657.23	85.6234	5,657.23	84.5875	5,657.23	85.6115	5,657.23	85.6802	5,657.23	82.407	5,657.23	83.186	5,657.23	82.1482	5,657.23	79.4484	5,657.23	81.8744	5,657.23	79.361	5,657.23	79.0573	5,657.23	80.4007	5,657.23	74.2483	5,657.23	74.5764	5,657.23	71.3437	5,657.23	64.976	5,657.23	62.9706	5,657.23	59.2599	5,657.23	63.9287	5,657.23	62.4846	5,657.23	66.2565	5,657.23	59.3108	5,657.23	69.0026	5,657.23	62.3207	5,657.23	69.4533	5,657.23	62.2992	5,657.23	71.7005	5,657.23	67.8888	5,657.23	48.1859	5,657.23	64.0551	5,657.23	65.832
5,856.45	86.8477	5,856.45	86.6079	5,856.45	86.5189	5,856.45	86.8451	5,856.45	86.2983	5,856.45	86.1895	5,856.45	85.8298	5,856.45	85.445	5,856.45	86.643	5,856.45	82.9276	5,856.45	81.1116	5,856.45	81.1363	5,856.45	81.074	5,856.45	80.9545	5,856.45	80.7262	5,856.45	79.6626	5,856.45	81.1358	5,856.45	75.0066	5,856.45	75.0047	5,856.45	70.7873	5,856.45	69.3283	5,856.45	61.9819	5,856.45	52.9429	5,856.45	64.4114	5,856.45	65.7979	5,856.45	60.5585	5,856.45	61.167	5,856.45	63.7043	5,856.45	69.085	5,856.45	68.3251	5,856.45	67.4896	5,856.45	70.1262	5,856.45	68.7972	5,856.45	63.1614	5,856.45	62.6899	5,856.45	60.7786
6,062.99	87.2327	6,062.99	86.2653	6,062.99	85.7686	6,062.99	86.9725	6,062.99	88.1586	6,062.99	85.7988	6,062.99	87.3119	6,062.99	85.1422	6,062.99	86.79	6,062.99	82.3609	6,062.99	80.8297	6,062.99	80.9718	6,062.99	81.345	6,062.99	80.2898	6,062.99	82.0422	6,062.99	77.8801	6,062.99	80.6979	6,062.99	76.5283	6,062.99	77.1328	6,062.99	68.6819	6,062.99	72.4903	6,062.99	64.818	6,062.99	46.9559	6,062.99	66.3352	6,062.99	65.3843	6,062.99	63.2495	6,062.99	58.9371	6,062.99	66.1693	6,062.99	62.85	6,062.99	71.2865	6,062.99	67.2695	6,062.99	69.4	6,062.99	66.8794	6,062.99	62.5775	6,062.99	62.9939	6,062.99	63.2415
6,276.86	87.4414	6,276.86	86.9188	6,276.86	86.1295	6,276.86	87.2093	6,276.86	89.0954	6,276.86	85.7647	6,276.86	86.7032	6,276.86	86.0764	6,276.86	84.6679	6,276.86	82.132	6,276.86	82.8971	6,276.86	80.7081	6,276.86	79.6095	6,276.86	80.8237	6,276.86	81.9582	6,276.86	79.4631	6,276.86	78.7351	6,276.86	76.2773	6,276.86	76.4118	6,276.86	71.8813	6,276.86	72.5685	6,276.86	61.9048	6,276.86	60.1776	6,276.86	61.2393	6,276.86	57.3305	6,276.86	64.3308	6,276.86	60.2734	6,276.86	65.3793	6,276.86	60.9604	6,276.86	69.8161	6,276.86	65.4735	6,276.86	69.793	6,276.86	62.816	6,276.86	58.9129	6,276.86	63.1113	6,276.86	59.3542
6,498.05	88.0614	6,498.05	87.4038	6,498.05	86.4681	6,498.05	86.3582	6,498.05	86.8436	6,498.05	85.9949	6,498.05	86.3702	6,498.05	84.7313	6,498.05	82.5004	6,498.05	83.5318	6,498.05	83.0177	6,498.05	80.0982	6,498.05	80.1502	6,498.05	80.4048	6,498.05	80.8538	6,498.05	79.2178	6,498.05	71.9572	6,498.05	75.6819	6,498.05	70.6562	6,498.05	70.0311	6,498.05	66.3242	6,498.05	64.0952	6,498.05	63.435	6,498.05	66.0463	6,498.05	55.7011	6,498.05	67.2029	6,498.05	50.4061	6,498.05	61.3695	6,498.05	63.342	6,498.05	70.9763	6,498.05	66.7734	6,498.05	69.3524	6,498.05	61.4514	6,498.05	63.8148	6,498.05	58.079	6,498.05	62.3274
6,726.56	87.4726	6,726.56	87.0638	6,726.56	86.1397	6,726.56	86.0494	6,726.56	82.1178	6,726.56	86.2209	6,726.56	86.4161	6,726.56	84.6413	6,726.56	84.0583	6,726.56	83.1267	6,726.56	83.8227	6,726.56	81.0751	6,726.56	80.9798	6,726.56	79.9051	6,726.56	77.6346	6,726.56	78.1296	6,726.56	77.2482	6,726.56	75.0926	6,726.56	73.0311	6,726.56	66.0592	6,726.56	57.1114	6,726.56	65.06	6,726.56	59.166	6,726.56	61.1266	6,726.56	62.7312	6,726.56	64.5516	6,726.56	58.6378	6,726.56	60.5545	6,726.56	69.3625	6,726.56	69.9715	6,726.56	62.6976	6,726.56	69.5914	6,726.56	65.6165	6,726.56	65.9185	6,726.56	53.5071	6,726.56	60.4234
6,963.87	87.667	6,963.87	86.914	6,963.87	86.8481	6,963.87	85.7675	6,963.87	85.0525	6,963.87	85.7319	6,963.87	85.2423	6,963.87	84.586	6,963.87	85.6648	6,963.87	83.6879	6,963.87	83.586	6,963.87	80.2103	6,963.87	81.5245	6,963.87	79.729	6,963.87	75.8529	6,963.87	78.1283	6,963.87	78.3163	6,963.87	74.9479	6,963.87	76.769	6,963.87	68.1754	6,963.87	69.6057	6,963.87	66.4294	6,963.87	55.0405	6,963.87	63.9499	6,963.87	66.9596	6,963.87	60.9681	6,963.87	45.7092	6,963.87	57.9658	6,963.87	68.1008	6,963.87	69.4627	6,963.87	63.7085	6,963.87	69.0715	6,963.87	70.4333	6,963.87	64.3593	6,963.87	60.8997	6,963.87	62.1995
7,209.96	87.4678	7,209.96	86.8186	7,209.96	87.6923	7,209.96	85.3264	7,209.96	87.105	7,209.96	85.5069	7,209.96	83.8922	7,209.96	84.7403	7,209.96	85.2354	7,209.96	82.9826	7,209.96	84.0308	7,209.96	81.5439	7,209.96	78.0236	7,209.96	78.6155	7,209.96	80.8876	7,209.96	77.2581	7,209.96	79.7057	7,209.96	73.5539	7,209.96	76.2644	7,209.96	66.2872	7,209.96	68.7722	7,209.96	65.4999	7,209.96	66.2579	7,209.96	66.2086	7,209.96	67.3798	7,209.96	54.1655	7,209.96	46.9937	7,209.96	58.4076	7,209.96	65.2221	7,209.96	67.6337	7,209.96	60.2911	7,209.96	68.3683	7,209.96	69.7647	7,209.96	61.7292	7,209.96	63.5037	7,209.96	60.579
7,464.84	86.6519	7,464.84	86.4347	7,464.84	86.684	7,464.84	85.4949	7,464.84	86.5723	7,464.84	85.0912	7,464.84	84.101	7,464.84	84.6591	7,464.84	84.5218	7,464.84	82.9058	7,464.84	84.1693	7,464.84	80.6704	7,464.84	76.7342	7,464.84	78.9963	7,464.84	82.6289	7,464.84	77.8979	7,464.84	78.3978	7,464.84	74.4842	7,464.84	75.7803	7,464.84	69.7447	7,464.84	73.8206	7,464.84	60.7594	7,464.84	63.5364	7,464.84	63.7404	7,464.84	56.3046	7,464.84	53.8342	7,464.84	57.878	7,464.84	55.8212	7,464.84	64.2227	7,464.84	65.0921	7,464.84	60.3987	7,464.84	66.3482	7,464.84	66.5025	7,464.84	63.1547	7,464.84	62.9489	7,464.84	56.0152
7,727.05	87.7896	7,727.05	87.2341	7,727.05	85.3439	7,727.05	85.8133	7,727.05	83.8289	7,727.05	85.1457	7,727.05	85.6407	7,727.05	84.5576	7,727.05	81.668	7,727.05	83.4179	7,727.05	84.0155	7,727.05	80.7409	7,727.05	81.0589	7,727.05	77.9365	7,727.05	80.8255	7,727.05	76.2892	7,727.05	71.3188	7,727.05	73.1871	7,727.05	72.5347	7,727.05	65.2634	7,727.05	69.1024	7,727.05	60.7887	7,727.05	61.1977	7,727.05	63.3373	7,727.05	63.3342	7,727.05	54.5004	7,727.05	58.1519	7,727.05	43.9496	7,727.05	65.9758	7,727.05	60.8519	7,727.05	63.0751	7,727.05	63.7253	7,727.05	62.1013	7,727.05	62.2511	7,727.05	64.9002	7,727.05	52.7577
7,999.51	87.3739	7,999.51	86.4952	7,999.51	87.7228	7,999.51	85.8261	7,999.51	84.1651	7,999.51	84.4668	7,999.51	84.6047	7,999.51	83.6431	7,999.51	82.024	7,999.51	83.0486	7,999.51	81.1566	7,999.51	80.2939	7,999.51	83.1798	7,999.51	78.0646	7,999.51	73.686	7,999.51	76.0723	7,999.51	76.9748	7,999.51	73.355	7,999.51	71.8859	7,999.51	67.0131	7,999.51	62.8275	7,999.51	58.0013	7,999.51	63.3637	7,999.51	63.3377	7,999.51	63.6595	7,999.51	62.3268	7,999.51	64.0065	7,999.51	53.6845	7,999.51	64.7092	7,999.51	64.3581	7,999.51	63.2314	7,999.51	63.8017	7,999.51	60.2699	7,999.51	66.6712	7,999.51	58.8602	7,999.51	43.8545
8,282.23	86.9462	8,282.23	87.9935	8,282.23	87.8401	8,282.23	85.8446	8,282.23	85.856	8,282.23	85.0471	8,282.23	83.0631	8,282.23	83.0211	8,282.23	83.3775	8,282.23	82.8689	8,282.23	81.1471	8,282.23	80.315	8,282.23	81.2213	8,282.23	77.9541	8,282.23	77.1008	8,282.23	75.6011	8,282.23	78.1207	8,282.23	72.4416	8,282.23	73.9023	8,282.23	64.8325	8,282.23	70.8256	8,282.23	63.7578	8,282.23	64.6828	8,282.23	61.8866	8,282.23	63.599	8,282.23	60.7897	8,282.23	64.9923	8,282.23	55.0779	8,282.23	60.2836	8,282.23	65.5362	8,282.23	61.6167	8,282.23	65.2541	8,282.23	63.4446	8,282.23	67.1707	8,282.23	62.1545	8,282.23	52.2911
8,573.73	87.5228	8,573.73	87.3654	8,573.73	87.3548	8,573.73	86.132	8,573.73	86.1854	8,573.73	85.0178	8,573.73	82.5234	8,573.73	83.5521	8,573.73	83.4189	8,573.73	82.1516	8,573.73	83.5049	8,573.73	79.6713	8,573.73	77.7299	8,573.73	76.8488	8,573.73	81.5087	8,573.73	76.0283	8,573.73	77.733	8,573.73	71.8236	8,573.73	72.3671	8,573.73	68.2952	8,573.73	69.451	8,573.73	60.0884	8,573.73	69.9562	8,573.73	61.2023	8,573.73	62.3017	8,573.73	57.4858	8,573.73	57.2559	8,573.73	54.6592	8,573.73	50.2306	8,573.73	65.555	8,573.73	50.7541	8,573.73	63.7879	8,573.73	64.19	8,573.73	64.8343	8,573.73	64.9938	8,573.73	47.7906
8,876.95	88.0422	8,876.95	87.838	8,876.95	87.4849	8,876.95	86.6124	8,876.95	85.7819	8,876.95	84.9561	8,876.95	83.5907	8,876.95	82.7565	8,876.95	83.4401	8,876.95	81.2442	8,876.95	83.4843	8,876.95	79.8719	8,876.95	76.1522	8,876.95	76.8578	8,876.95	80.4234	8,876.95	75.131	8,876.95	74.4801	8,876.95	72.1555	8,876.95	73.163	8,876.95	66.7518	8,876.95	71.7885	8,876.95	59.6209	8,876.95	69.0551	8,876.95	59.6201	8,876.95	64.1415	8,876.95	39.5045	8,876.95	60.7862	8,876.95	50.0934	8,876.95	51.0711	8,876.95	63.5507	8,876.95	59.1459	8,876.95	62.1588	8,876.95	62.6871	8,876.95	63.8052	8,876.95	62.1909	8,876.95	48.4476
9,188.96	88.26	9,188.96	87.5054	9,188.96	87.4572	9,188.96	86.2096	9,188.96	86.1502	9,188.96	85.2045	9,188.96	85.265	9,188.96	82.2119	9,188.96	82.5133	9,188.96	81.0674	9,188.96	81.9691	9,188.96	79.5925	9,188.96	79.8853	9,188.96	76.2255	9,188.96	76.1612	9,188.96	75.4353	9,188.96	75.9183	9,188.96	70.4573	9,188.96	72.6314	9,188.96	67.7667	9,188.96	70.1184	9,188.96	51.2188	9,188.96	67.1508	9,188.96	59.3325	9,188.96	66.4658	9,188.96	57.3185	9,188.96	63.2775	9,188.96	50.4127	9,188.96	47.3972	9,188.96	60.801	9,188.96	61.6693	9,188.96	59.1842	9,188.96	65.1514	9,188.96	65.4955	9,188.96	65.0535	9,188.96	33.6343
9,514.16	88.1356	9,514.16	87.6551	9,514.16	86.5288	9,514.16	86.537	9,514.16	86.5898	9,514.16	85.3438	9,514.16	85.4441	9,514.16	81.9823	9,514.16	79.7621	9,514.16	80.7317	9,514.16	79.5751	9,514.16	79.3443	9,514.16	80.6131	9,514.16	76.6496	9,514.16	75.7267	9,514.16	73.5304	9,514.16	76.1725	9,514.16	70.4782	9,514.16	69.1303	9,514.16	61.6086	9,514.16	70.2591	9,514.16	50.5407	9,514.16	70.5763	9,514.16	59.2352	9,514.16	68.0735	9,514.16	59.0458	9,514.16	65.9585	9,514.16	48.5823	9,514.16	55.779	9,514.16	55.2151	9,514.16	59.7582	9,514.16	59.5601	9,514.16	58.6099	9,514.16	63.7082	9,514.16	61.7281	9,514.16	52.3723
9,849.61	88.1781	9,849.61	87.3797	9,849.61	87.1638	9,849.61	86.3565	9,849.61	85.7664	9,849.61	85.2988	9,849.61	84.6773	9,849.61	82.2	9,849.61	80.2572	9,849.61	80.3519	9,849.61	81.1419	9,849.61	78.7901	9,849.61	80.0799	9,849.61	76.0738	9,849.61	77.5081	9,849.61	73.7035	9,849.61	75.3371	9,849.61	68.441	9,849.61	72.2689	9,849.61	68.7162	9,849.61	72.3384	9,849.61	55.1603	9,849.61	73.8259	9,849.61	56.4832	9,849.61	68.5954	9,849.61	57.846	9,849.61	66.9017	9,849.61	48.6027	9,849.61	43.5839	9,849.61	56.685	9,849.61	49.0101	9,849.61	59.7839	9,849.61	57.6736	9,849.61	62.4125	9,849.61	63.3592	9,849.61	52.405
10,196.8	87.6271	10,196.8	87.6898	10,196.8	86.4567	10,196.8	86.6284	10,196.8	85.5974	10,196.8	85.1104	10,196.8	83.4709	10,196.8	82.0649	10,196.8	81.8662	10,196.8	80.4768	10,196.8	81.9811	10,196.8	78.1851	10,196.8	77.3497	10,196.8	74.9022	10,196.8	78.3307	10,196.8	72.8248	10,196.8	74.8522	10,196.8	68.3535	10,196.8	74.5821	10,196.8	64.2242	10,196.8	72.6164	10,196.8	56.1429	10,196.8	74.2328	10,196.8	53.7808	10,196.8	67.4635	10,196.8	57.0352	10,196.8	65.1014	10,196.8	49.105	10,196.8	58.1554	10,196.8	57.0015	10,196.8	49.3567	10,196.8	59.0721	10,196.8	59.3962	10,196.8	60.4238	10,196.8	61.0051	10,196.8	55.1837
10,555.7	87.6061	10,555.7	87.4001	10,555.7	86.9714	10,555.7	86.4103	10,555.7	86.4786	10,555.7	85.0801	10,555.7	82.856	10,555.7	82.0067	10,555.7	82.0567	10,555.7	80.3812	10,555.7	81.7915	10,555.7	77.9214	10,555.7	77.2304	10,555.7	73.636	10,555.7	77.1575	10,555.7	71.2232	10,555.7	73.687	10,555.7	68.1072	10,555.7	63.865	10,555.7	65.283	10,555.7	72.3336	10,555.7	40.9377	10,555.7	72.8819	10,555.7	55.7007	10,555.7	67.667	10,555.7	56.8498	10,555.7	60.6343	10,555.7	48.169	10,555.7	64.2788	10,555.7	53.518	10,555.7	50.3217	10,555.7	60.8858	10,555.7	56.8368	10,555.7	57.6778	10,555.7	59.944	10,555.7	56.7647
10,927.7	86.6001	10,927.7	87.443	10,927.7	86.3058	10,927.7	86.0634	10,927.7	85.6066	10,927.7	84.9779	10,927.7	84.3152	10,927.7	82.107	10,927.7	82.3464	10,927.7	79.7412	10,927.7	81.1562	10,927.7	77.053	10,927.7	78.5751	10,927.7	73.0401	10,927.7	73.5688	10,927.7	69.9813	10,927.7	70.9741	10,927.7	66.0778	10,927.7	73.0178	10,927.7	64.9139	10,927.7	69.9312	10,927.7	56.6439	10,927.7	75.3505	10,927.7	45.7203	10,927.7	68.9376	10,927.7	51.7806	10,927.7	60.6631	10,927.7	41.7993	10,927.7	63.4824	10,927.7	50.9561	10,927.7	49.3764	10,927.7	54.5664	10,927.7	55.028	10,927.7	55.5592	10,927.7	59.5178	10,927.7	57.1811
11,313	86.7318	11,313	87.6065	11,313	86.9558	11,313	86.0349	11,313	85.8209	11,313	84.9646	11,313	84.7588	11,313	82.0097	11,313	81.4221	11,313	78.7521	11,313	80.0309	11,313	76.0277	11,313	76.2187	11,313	71.6469	11,313	73.4472	11,313	69.1202	11,313	73.9838	11,313	65.9237	11,313	71.4814	11,313	62.0094	11,313	73.0885	11,313	54.5768	11,313	75.4893	11,313	45.3554	11,313	67.2929	11,313	49.8401	11,313	63.732	11,313	38.4542	11,313	57.7898	11,313	44.5324	11,313	48.3954	11,313	51.4706	11,313	54.6579	11,313	56.7378	11,313	58.4131	11,313	57.4888
11,712.9	86.3704	11,712.9	87.7343	11,712.9	87.1604	11,712.9	85.8708	11,712.9	85.3858	11,712.9	84.6976	11,712.9	83.5532	11,712.9	81.7724	11,712.9	80.097	11,712.9	78.0484	11,712.9	79.1724	11,712.9	74.6093	11,712.9	76.3496	11,712.9	71.6324	11,712.9	73.8425	11,712.9	68.9713	11,712.9	71.7644	11,712.9	67.7367	11,712.9	68.7567	11,712.9	63.8947	11,712.9	71.5605	11,712.9	57.0541	11,712.9	75.7184	11,712.9	49.7122	11,712.9	67.2983	11,712.9	56.7547	11,712.9	63.908	11,712.9	45.3569	11,712.9	49.2438	11,712.9	50.9745	11,712.9	54.8667	11,712.9	51.9272	11,712.9	53.9532	11,712.9	57.6137	11,712.9	55.5133	11,712.9	57.0439
12,126	86.8426	12,126	87.3334	12,126	87.2461	12,126	85.7471	12,126	85.3765	12,126	84.6225	12,126	82.8806	12,126	80.5477	12,126	80.7044	12,126	77.1218	12,126	78.0144	12,126	74.6534	12,126	75.6597	12,126	71.2369	12,126	73.4992	12,126	67.4326	12,126	68.673	12,126	65.906	12,126	69.2497	12,126	61.7808	12,126	71.8793	12,126	56.696	12,126	74.9665	12,126	47.4103	12,126	68.3528	12,126	54.0612	12,126	62.3193	12,126	39.0606	12,126	60.8942	12,126	50.802	12,126	45.6766	12,126	43.8161	12,126	57.635	12,126	58.09	12,126	55.0351	12,126	57.4776
12,553.7	87.2405	12,553.7	87.4364	12,553.7	87.5073	12,553.7	85.7065	12,553.7	85.6838	12,553.7	84.1438	12,553.7	83.2032	12,553.7	79.9784	12,553.7	81.3242	12,553.7	76.6451	12,553.7	78.7063	12,553.7	73.2429	12,553.7	74.5671	12,553.7	70.0016	12,553.7	69.9077	12,553.7	66.8331	12,553.7	70.0177	12,553.7	65.9513	12,553.7	68.7673	12,553.7	58.9872	12,553.7	70.4517	12,553.7	58.949	12,553.7	75.0967	12,553.7	47.4118	12,553.7	67.5145	12,553.7	41.0051	12,553.7	61.2761	12,553.7	43.061	12,553.7	55.7113	12,553.7	51.6393	12,553.7	43.5741	12,553.7	47.4233	12,553.7	59.6972	12,553.7	57.2549	12,553.7	58.6644	12,553.7	54.5117
12,996.1	87.7219	12,996.1	87.2334	12,996.1	87.0364	12,996.1	85.8176	12,996.1	84.8205	12,996.1	83.6294	12,996.1	83.5174	12,996.1	78.5833	12,996.1	79.3516	12,996.1	75.8626	12,996.1	76.233	12,996.1	71.3861	12,996.1	74.9776	12,996.1	68.2857	12,996.1	68.514	12,996.1	67.6056	12,996.1	65.6973	12,996.1	67.8499	12,996.1	68.28	12,996.1	62.3476	12,996.1	71.2198	12,996.1	58.179	12,996.1	75.7668	12,996.1	47.0254	12,996.1	67.7462	12,996.1	51.8918	12,996.1	64.4196	12,996.1	51.3275	12,996.1	54.0557	12,996.1	48.7542	12,996.1	52.3698	12,996.1	44.8949	12,996.1	48.2642	12,996.1	50.334	12,996.1	52.9098	12,996.1	55.7031
13,454.6	88.0725	13,454.6	86.5932	13,454.6	86.5762	13,454.6	85.2837	13,454.6	84.1992	13,454.6	82.7953	13,454.6	82.5997	13,454.6	76.6645	13,454.6	76.2085	13,454.6	74.5772	13,454.6	74.2955	13,454.6	69.4572	13,454.6	71.8041	13,454.6	68.3168	13,454.6	65.3039	13,454.6	69.0643	13,454.6	61.8378	13,454.6	69.4587	13,454.6	67.8563	13,454.6	62.5364	13,454.6	71.0759	13,454.6	60.4724	13,454.6	74.9939	13,454.6	48.6505	13,454.6	66.5945	13,454.6	50.9169	13,454.6	63.8957	13,454.6	49.1157	13,454.6	58.5836	13,454.6	44.7684	13,454.6	40.123	13,454.6	50.8237	13,454.6	52.3421	13,454.6	51.9805	13,454.6	49.5899	13,454.6	52.7215
13,929.2	88.1054	13,929.2	85.4651	13,929.2	85.0124	13,929.2	84.4926	13,929.2	82.6545	13,929.2	80.9367	13,929.2	79.0105	13,929.2	73.2734	13,929.2	73.7963	13,929.2	72.1845	13,929.2	73.9842	13,929.2	69.7177	13,929.2	60.7839	13,929.2	71.9086	13,929.2	67.2235	13,929.2	70.9069	13,929.2	68.7482	13,929.2	70.3185	13,929.2	69.9938	13,929.2	61.6876	13,929.2	70.6433	13,929.2	60.8735	13,929.2	74.4904	13,929.2	50.109	13,929.2	68.1236	13,929.2	49.4032	13,929.2	65.1956	13,929.2	52.9313	13,929.2	56.7639	13,929.2	51.6104	13,929.2	54.4682	13,929.2	54.6787	13,929.2	47.5407	13,929.2	40.1025	13,929.2	42.6261	13,929.2	47.6405
14,419.9	87.5689	14,419.9	83.4285	14,419.9	82.6183	14,419.9	83.4339	14,419.9	82.2601	14,419.9	78.1901	14,419.9	74.6014	14,419.9	70.0799	14,419.9	74.9312	14,419.9	65.814	14,419.9	67.9142	14,419.9	74.1697	14,419.9	69.5177	14,419.9	73.6506	14,419.9	70.6492	14,419.9	71.4029	14,419.9	72.1093	14,419.9	71.1659	14,419.9	71.5145	14,419.9	61.7296	14,419.9	71.0994	14,419.9	62.0156	14,419.9	74.9683	14,419.9	49.9118	14,419.9	68.4214	14,419.9	51.2117	14,419.9	66.102	14,419.9	54.2862	14,419.9	58.8516	14,419.9	53.4257	14,419.9	43.6453	14,419.9	56.3204	14,419.9	49.6365	14,419.9	50.5681	14,419.9	47.8222	14,419.9	49.1825
14,928.2	85.9146	14,928.2	81.6314	14,928.2	80.2247	14,928.2	81.8339	14,928.2	80.6718	14,928.2	75.1234	14,928.2	71.9611	14,928.2	63.4302	14,928.2	69.0971	14,928.2	68.2771	14,928.2	62.7138	14,928.2	76.5089	14,928.2	68.6249	14,928.2	74.4088	14,928.2	72.6923	14,928.2	71.5685	14,928.2	66.0296	14,928.2	70.3507	14,928.2	69.3428	14,928.2	60.2144	14,928.2	70.8431	14,928.2	62.3284	14,928.2	75.5578	14,928.2	51.4163	14,928.2	69.8925	14,928.2	50.0761	14,928.2	67.5323	14,928.2	55.1421	14,928.2	52.6471	14,928.2	55.5339	14,928.2	43.7416	14,928.2	54.6484	14,928.2	48.4675	14,928.2	54.3154	14,928.2	44.1533	14,928.2	56.4732
15,455.6	81.5184	15,455.6	79.0892	15,455.6	78.6913	15,455.6	78.1367	15,455.6	77.4896	15,455.6	71.5429	15,455.6	72.7283	15,455.6	66.5755	15,455.6	63.5779	15,455.6	74.3076	15,455.6	69.8454	15,455.6	77.0231	15,455.6	70.3796	15,455.6	74.46	15,455.6	70.1437	15,455.6	71.0769	15,455.6	68.882	15,455.6	70.95	15,455.6	69.6745	15,455.6	57.9934	15,455.6	70.7105	15,455.6	63.5094	15,455.6	75.8557	15,455.6	46.4475	15,455.6	70.0868	15,455.6	53.1053	15,455.6	65.4549	15,455.6	54.0897	15,455.6	57.4347	15,455.6	60.1251	15,455.6	51.444	15,455.6	50.8169	15,455.6	55.3318	15,455.6	57.8371	15,455.6	53.6328	15,455.6	60.091
16,000.5	59.5264	16,000.5	78.1626	16,000.5	78.772	16,000.5	71.1051	16,000.5	74.0872	16,000.5	67.9071	16,000.5	73.4845	16,000.5	76.0662	16,000.5	75.1409	16,000.5	76.9717	16,000.5	73.0434	16,000.5	75.8707	16,000.5	71.417	16,000.5	74.7892	16,000.5	71.2408	16,000.5	70.9217	16,000.5	67.7689	16,000.5	70.3931	16,000.5	70.1677	16,000.5	56.8878	16,000.5	72.337	16,000.5	62.7467	16,000.5	75.6512	16,000.5	51.204	16,000.5	69.6364	16,000.5	48.1484	16,000.5	65.7068	16,000.5	47.561	16,000.5	55.6997	16,000.5	60.2547	16,000.5	53.3753	16,000.5	54.9025	16,000.5	58.9179	16,000.5	59.0186	16,000.5	57.5824	16,000.5	62.3654
16,564.5	76.6874	16,564.5	78.4737	16,564.5	78.7704	16,564.5	72.6304	16,564.5	76.5161	16,564.5	70.0018	16,564.5	70.8765	16,564.5	78.2635	16,564.5	78.1357	16,564.5	77.3946	16,564.5	74.4482	16,564.5	75.227	16,564.5	70.3069	16,564.5	74.0778	16,564.5	71.6625	16,564.5	69.1073	16,564.5	67.3395	16,564.5	66.9863	16,564.5	67.1324	16,564.5	55.6592	16,564.5	72.2638	16,564.5	57.8678	16,564.5	76.1714	16,564.5	53.3518	16,564.5	71.6243	16,564.5	48.3465	16,564.5	65.9985	16,564.5	41.0967	16,564.5	55.5308	16,564.5	56.9865	16,564.5	48.2617	16,564.5	56.1687	16,564.5	51.9991	16,564.5	57.4999	16,564.5	55.9549	16,564.5	61.3134
17,148.9	78.4011	17,148.9	76.5783	17,148.9	76.3538	17,148.9	71.0183	17,148.9	75.8061	17,148.9	75.6447	17,148.9	71.0476	17,148.9	77.584	17,148.9	76.4493	17,148.9	77.3525	17,148.9	73.6956	17,148.9	75.3677	17,148.9	73.5719	17,148.9	71.6473	17,148.9	71.2132	17,148.9	66.6537	17,148.9	64.6821	17,148.9	63.9701	17,148.9	64.6318	17,148.9	57.1598	17,148.9	71.2769	17,148.9	53.1705	17,148.9	75.5873	17,148.9	51.0726	17,148.9	71.3316	17,148.9	36.6428	17,148.9	65.6036	17,148.9	44.6811	17,148.9	56.4057	17,148.9	53.9366	17,148.9	41.9312	17,148.9	54.5515	17,148.9	40.7519	17,148.9	53.5056	17,148.9	53.9608	17,148.9	58.1594
17,752.4	76.2642	17,752.4	68.8457	17,752.4	69.4967	17,752.4	66.2881	17,752.4	72.5311	17,752.4	78.6007	17,752.4	72.003	17,752.4	76.6864	17,752.4	76.6945	17,752.4	77.0294	17,752.4	76.3253	17,752.4	73.5248	17,752.4	71.7624	17,752.4	69.8165	17,752.4	68.2173	17,752.4	66.1218	17,752.4	59.2837	17,752.4	63.3536	17,752.4	59.3013	17,752.4	56.2602	17,752.4	69.5112	17,752.4	50.4251	17,752.4	75.2653	17,752.4	52.0479	17,752.4	70.417	17,752.4	41.5637	17,752.4	65.9053	17,752.4	42.9997	17,752.4	55.0164	17,752.4	45.2279	17,752.4	40.9827	17,752.4	51.7036	17,752.4	46.6764	17,752.4	47.6235	17,752.4	48.5454	17,752.4	54.455
18,379.4	70.953	18,379.4	65.0211	18,379.4	63.8477	18,379.4	69.8786	18,379.4	62.0831	18,379.4	79.2613	18,379.4	76.444	18,379.4	75.9853	18,379.4	75.6175	18,379.4	75.8774	18,379.4	75.3074	18,379.4	72.3035	18,379.4	68.5606	18,379.4	69.5757	18,379.4	62.1425	18,379.4	66.2031	18,379.4	61.2942	18,379.4	63.4713	18,379.4	58.3587	18,379.4	56.3628	18,379.4	67.4651	18,379.4	51.132	18,379.4	73.1786	18,379.4	51.4723	18,379.4	68.7796	18,379.4	42.7616	18,379.4	64.4135	18,379.4	45.1787	18,379.4	52.2754	18,379.4	43.246	18,379.4	37.6551	18,379.4	52.3621	18,379.4	40.0942	18,379.4	44.7058	18,379.4	36.2537	18,379.4	48.854
19,026.9	62.5801	19,026.9	73.2751	19,026.9	72.8936	19,026.9	74.7876	19,026.9	69.3557	19,026.9	79.3428	19,026.9	76.0661	19,026.9	75.9729	19,026.9	76.984	19,026.9	73.7443	19,026.9	72.6975	19,026.9	71.0234	19,026.9	63.4186	19,026.9	69.7099	19,026.9	64.4909	19,026.9	66.0302	19,026.9	60.244	19,026.9	61.8085	19,026.9	54.4468	19,026.9	55.274	19,026.9	65.7971	19,026.9	51.1733	19,026.9	71.1845	19,026.9	49.3085	19,026.9	67.881	19,026.9	43.5726	19,026.9	64.0975	19,026.9	48.1063	19,026.9	48.8618	19,026.9	50.2709	19,026.9	25.6045	19,026.9	47.6959	19,026.9	42.6259	19,026.9	44.6928	19,026.9	48.9621	19,026.9	46.0171
19,697.8	73.0024	19,697.8	74.395	19,697.8	73.7921	19,697.8	76.4877	19,697.8	73.8601	19,697.8	78.8425	19,697.8	76.3812	19,697.8	75.4541	19,697.8	76.8414	19,697.8	72.6738	19,697.8	69.9703	19,697.8	71.0285	19,697.8	66.9969	19,697.8	69.0265	19,697.8	63.9341	19,697.8	64.9138	19,697.8	56.9241	19,697.8	58.681	19,697.8	50.5194	19,697.8	54.5143	19,697.8	63.6688	19,697.8	47.8888	19,697.8	69.5757	19,697.8	47.8638	19,697.8	67.5093	19,697.8	44.6992	19,697.8	63.1015	19,697.8	47.1667	19,697.8	50.1883	19,697.8	51.7108	19,697.8	32.1037	19,697.8	43.6545	19,697.8	47.9102	19,697.8	46.0196	19,697.8	48.7994	19,697.8	49.6897
19,999.5	75.417	19,999.5	74.6533	19,999.5	73.6952	19,999.5	77.3202	19,999.5	75.0561	19,999.5	78.3877	19,999.5	76.4438	19,999.5	74.9509	19,999.5	75.4674	19,999.5	73.0056	19,999.5	69.9725	19,999.5	71.0353	19,999.5	67.5151	19,999.5	69.3702	19,999.5	62.5913	19,999.5	64.9782	19,999.5	60.3157	19,999.5	57.0504	19,999.5	50.1757	19,999.5	54.3726	19,999.5	63.42	19,999.5	47.9967	19,999.5	68.5863	19,999.5	49.0774	19,999.5	66.7597	19,999.5	45.7613	19,999.5	61.3348	19,999.5	35.2697	19,999.5	53.6459	19,999.5	47.3074	19,999.5	47.3531	19,999.5	43.8906	19,999.5	51.5458	19,999.5	49.9443	19,999.5	47.1878	19,999.5	52.7404
