"SPL Horizontal"																																																																							
"On-Axis"		"10°"		"-10°"		"20°"		"-20°"		"30°"		"-30°"		"40°"		"-40°"		"50°"		"-50°"		"60°"		"-60°"		"70°"		"-70°"		"80°"		"-80°"		"90°"		"-90°"		"100°"		"-100°"		"110°"		"-110°"		"120°"		"-120°"		"130°"		"-130°"		"140°"		"-140°"		"150°"		"-150°"		"160°"		"-160°"		"170°"		"-170°"		"180°"	
"Frequency [Hz]"	"Sound Pessure Level [dB]  / [2.83V 1m] "	"Frequency [Hz]"	"Sound Pessure Level [dB]  / [2.83V 1m] "	"Frequency [Hz]"	"Sound Pessure Level [dB]  / [2.83V 1m] "	"Frequency [Hz]"	"Sound Pessure Level [dB]  / [2.83V 1m] "	"Frequency [Hz]"	"Sound Pessure Level [dB]  / [2.83V 1m] "	"Frequency [Hz]"	"Sound Pessure Level [dB]  / [2.83V 1m] "	"Frequency [Hz]"	"Sound Pessure Level [dB]  / [2.83V 1m] "	"Frequency [Hz]"	"Sound Pessure Level [dB]  / [2.83V 1m] "	"Frequency [Hz]"	"Sound Pessure Level [dB]  / [2.83V 1m] "	"Frequency [Hz]"	"Sound Pessure Level [dB]  / [2.83V 1m] "	"Frequency [Hz]"	"Sound Pessure Level [dB]  / [2.83V 1m] "	"Frequency [Hz]"	"Sound Pessure Level [dB]  / [2.83V 1m] "	"Frequency [Hz]"	"Sound Pessure Level [dB]  / [2.83V 1m] "	"Frequency [Hz]"	"Sound Pessure Level [dB]  / [2.83V 1m] "	"Frequency [Hz]"	"Sound Pessure Level [dB]  / [2.83V 1m] "	"Frequency [Hz]"	"Sound Pessure Level [dB]  / [2.83V 1m] "	"Frequency [Hz]"	"Sound Pessure Level [dB]  / [2.83V 1m] "	"Frequency [Hz]"	"Sound Pessure Level [dB]  / [2.83V 1m] "	"Frequency [Hz]"	"Sound Pessure Level [dB]  / [2.83V 1m] "	"Frequency [Hz]"	"Sound Pessure Level [dB]  / [2.83V 1m] "	"Frequency [Hz]"	"Sound Pessure Level [dB]  / [2.83V 1m] "	"Frequency [Hz]"	"Sound Pessure Level [dB]  / [2.83V 1m] "	"Frequency [Hz]"	"Sound Pessure Level [dB]  / [2.83V 1m] "	"Frequency [Hz]"	"Sound Pessure Level [dB]  / [2.83V 1m] "	"Frequency [Hz]"	"Sound Pessure Level [dB]  / [2.83V 1m] "	"Frequency [Hz]"	"Sound Pessure Level [dB]  / [2.83V 1m] "	"Frequency [Hz]"	"Sound Pessure Level [dB]  / [2.83V 1m] "	"Frequency [Hz]"	"Sound Pessure Level [dB]  / [2.83V 1m] "	"Frequency [Hz]"	"Sound Pessure Level [dB]  / [2.83V 1m] "	"Frequency [Hz]"	"Sound Pessure Level [dB]  / [2.83V 1m] "	"Frequency [Hz]"	"Sound Pessure Level [dB]  / [2.83V 1m] "	"Frequency [Hz]"	"Sound Pessure Level [dB]  / [2.83V 1m] "	"Frequency [Hz]"	"Sound Pessure Level [dB]  / [2.83V 1m] "	"Frequency [Hz]"	"Sound Pessure Level [dB]  / [2.83V 1m] "	"Frequency [Hz]"	"Sound Pessure Level [dB]  / [2.83V 1m] "	"Frequency [Hz]"	"Sound Pessure Level [dB]  / [2.83V 1m] "
20.5078	49.429	20.5078	49.3546	20.5078	49.5072	20.5078	49.2853	20.5078	49.5882	20.5078	49.2222	20.5078	49.6707	20.5078	49.1665	20.5078	49.7534	20.5078	49.1199	20.5078	49.8346	20.5078	49.084	20.5078	49.9126	20.5078	49.0606	20.5078	49.9851	20.5078	49.0516	20.5078	50.0497	20.5078	49.0588	20.5078	50.1037	20.5078	49.0835	20.5078	50.1442	20.5078	49.1263	20.5078	50.1684	20.5078	49.1869	20.5078	50.1739	20.5078	49.2643	20.5078	50.159	20.5078	49.3562	20.5078	50.1228	20.5078	49.4594	20.5078	50.0659	20.5078	49.5699	20.5078	49.99	20.5078	49.6831	20.5078	49.898	20.5078	49.7942
21.2402	51.48	21.2402	51.4726	21.2402	51.4901	21.2402	51.4678	21.2402	51.5026	21.2402	51.4661	21.2402	51.5178	21.2402	51.4678	21.2402	51.5356	21.2402	51.4736	21.2402	51.5561	21.2402	51.4842	21.2402	51.5794	21.2402	51.5004	21.2402	51.6055	21.2402	51.5227	21.2402	51.6342	21.2402	51.5512	21.2402	51.6653	21.2402	51.5856	21.2402	51.6981	21.2402	51.625	21.2402	51.7318	21.2402	51.6677	21.2402	51.7651	21.2402	51.7115	21.2402	51.7963	21.2402	51.7539	21.2402	51.8239	21.2402	51.7922	21.2402	51.8458	21.2402	51.8242	21.2402	51.8603	21.2402	51.8478	21.2402	51.866	21.2402	51.8619
21.9727	51.9198	21.9727	51.9428	21.9727	51.8909	21.9727	51.9591	21.9727	51.8567	21.9727	51.9683	21.9727	51.8179	21.9727	51.9699	21.9727	51.7754	21.9727	51.9639	21.9727	51.7302	21.9727	51.9502	21.9727	51.6831	21.9727	51.9292	21.9727	51.6354	21.9727	51.9014	21.9727	51.5884	21.9727	51.8675	21.9727	51.5437	21.9727	51.8283	21.9727	51.5028	21.9727	51.7849	21.9727	51.4675	21.9727	51.7383	21.9727	51.4393	21.9727	51.6896	21.9727	51.4195	21.9727	51.6401	21.9727	51.4092	21.9727	51.5913	21.9727	51.4089	21.9727	51.545	21.9727	51.4187	21.9727	51.5029	21.9727	51.4383	21.9727	51.4668
22.7051	52.2397	22.7051	52.2028	22.7051	52.2726	22.7051	52.1623	22.7051	52.3009	22.7051	52.1191	22.7051	52.3245	22.7051	52.0742	22.7051	52.3433	22.7051	52.029	22.7051	52.357	22.7051	51.9853	22.7051	52.3657	22.7051	51.9453	22.7051	52.3694	22.7051	51.911	22.7051	52.368	22.7051	51.8847	22.7051	52.3618	22.7051	51.8682	22.7051	52.3507	22.7051	51.8629	22.7051	52.3349	22.7051	51.8695	22.7051	52.3141	22.7051	51.8875	22.7051	52.2885	22.7051	51.916	22.7051	52.2579	22.7051	51.9531	22.7051	52.2224	22.7051	51.9964	22.7051	52.1822	22.7051	52.0432	22.7051	52.1381	22.7051	52.0912
23.4375	53.872	23.4375	53.8634	23.4375	53.8725	23.4375	53.8465	23.4375	53.8654	23.4375	53.8213	23.4375	53.8511	23.4375	53.7879	23.4375	53.8298	23.4375	53.7466	23.4375	53.8021	23.4375	53.6983	23.4375	53.7686	23.4375	53.6441	23.4375	53.7297	23.4375	53.5856	23.4375	53.6862	23.4375	53.5249	23.4375	53.639	23.4375	53.4643	23.4375	53.589	23.4375	53.4064	23.4375	53.5374	23.4375	53.3538	23.4375	53.4854	23.4375	53.3089	23.4375	53.4346	23.4375	53.2739	23.4375	53.3863	23.4375	53.2501	23.4375	53.3421	23.4375	53.2384	23.4375	53.3037	23.4375	53.2387	23.4375	53.2726	23.4375	53.2505
24.1699	55.2231	24.1699	55.2092	24.1699	55.2299	24.1699	55.1881	24.1699	55.2293	24.1699	55.1601	24.1699	55.2215	24.1699	55.1255	24.1699	55.2065	24.1699	55.0849	24.1699	55.1843	24.1699	55.0392	24.1699	55.1553	24.1699	54.9893	24.1699	55.1197	24.1699	54.9367	24.1699	55.0781	24.1699	54.8828	24.1699	55.0313	24.1699	54.8296	24.1699	54.9804	24.1699	54.7788	24.1699	54.9269	24.1699	54.7325	24.1699	54.8724	24.1699	54.6924	24.1699	54.8188	24.1699	54.6602	24.1699	54.7682	24.1699	54.6374	24.1699	54.7226	24.1699	54.625	24.1699	54.6839	24.1699	54.6236	24.1699	54.6537	24.1699	54.6333
25.6348	57.228	25.6348	57.2139	25.6348	57.2343	25.6348	57.192	25.6348	57.2327	25.6348	57.1628	25.6348	57.223	25.6348	57.1265	25.6348	57.2055	25.6348	57.0838	25.6348	57.1802	25.6348	57.0355	25.6348	57.1474	25.6348	56.9826	25.6348	57.1077	25.6348	56.9263	25.6348	57.0616	25.6348	56.8684	25.6348	57.01	25.6348	56.8104	25.6348	56.9542	25.6348	56.7545	25.6348	56.8957	25.6348	56.7027	25.6348	56.8363	25.6348	56.657	25.6348	56.778	25.6348	56.6194	25.6348	56.7231	25.6348	56.5918	25.6348	56.6737	25.6348	56.5755	25.6348	56.6322	25.6348	56.5714	25.6348	56.6004	25.6348	56.5798
26.3672	58.3296	26.3672	58.3238	26.3672	58.3291	26.3672	58.3118	26.3672	58.3223	26.3672	58.2939	26.3672	58.3094	26.3672	58.2702	26.3672	58.2904	26.3672	58.2413	26.3672	58.2657	26.3672	58.2076	26.3672	58.2356	26.3672	58.17	26.3672	58.2009	26.3672	58.1292	26.3672	58.1622	26.3672	58.0864	26.3672	58.1204	26.3672	58.0427	26.3672	58.0768	26.3672	57.9997	26.3672	58.0326	26.3672	57.9586	26.3672	57.9894	26.3672	57.921	26.3672	57.9487	26.3672	57.8885	26.3672	57.912	26.3672	57.8624	26.3672	57.8808	26.3672	57.8438	26.3672	57.8565	26.3672	57.8336	26.3672	57.8401	26.3672	57.8324
27.0996	59.2919	27.0996	59.283	27.0996	59.2931	27.0996	59.2665	27.0996	59.2866	27.0996	59.2426	27.0996	59.2726	27.0996	59.2117	27.0996	59.2513	27.0996	59.1744	27.0996	59.2231	27.0996	59.1314	27.0996	59.1883	27.0996	59.0836	27.0996	59.1478	27.0996	59.0324	27.0996	59.1024	27.0996	58.9791	27.0996	59.0531	27.0996	58.9255	27.0996	59.0013	27.0996	58.8734	27.0996	58.9486	27.0996	58.8247	27.0996	58.8964	27.0996	58.7812	27.0996	58.8467	27.0996	58.7446	27.0996	58.8011	27.0996	58.7166	27.0996	58.7615	27.0996	58.6982	27.0996	58.7295	27.0996	58.6903	27.0996	58.7063	27.0996	58.693
27.832	60.1634	27.832	60.1533	27.832	60.1651	27.832	60.1348	27.832	60.1583	27.832	60.1081	27.832	60.1432	27.832	60.0735	27.832	60.1198	27.832	60.0317	27.832	60.0885	27.832	59.9834	27.832	60.0498	27.832	59.9295	27.832	60.0043	27.832	59.8714	27.832	59.9529	27.832	59.8108	27.832	59.8967	27.832	59.7495	27.832	59.8372	27.832	59.6896	27.832	59.7761	27.832	59.6333	27.832	59.7154	27.832	59.5827	27.832	59.6574	27.832	59.5401	27.832	59.6041	27.832	59.5071	27.832	59.5577	27.832	59.4852	27.832	59.5202	27.832	59.4754	27.832	59.4933	27.832	59.4781
29.2969	62.3191	29.2969	62.3088	29.2969	62.3222	29.2969	62.2916	29.2969	62.3182	29.2969	62.2675	29.2969	62.3072	29.2969	62.237	29.2969	62.2892	29.2969	62.2006	29.2969	62.2644	29.2969	62.1587	29.2969	62.2332	29.2969	62.1124	29.2969	62.1959	29.2969	62.0628	29.2969	62.1534	29.2969	62.0111	29.2969	62.1063	29.2969	61.959	29.2969	62.0559	29.2969	61.9081	29.2969	62.0035	29.2969	61.8603	29.2969	61.9507	29.2969	61.8176	29.2969	61.8995	29.2969	61.7816	29.2969	61.8518	29.2969	61.7542	29.2969	61.8096	29.2969	61.7366	29.2969	61.7749	29.2969	61.7297	29.2969	61.7493	29.2969	61.734
30.0293	63.3648	30.0293	63.3581	30.0293	63.3646	30.0293	63.3446	30.0293	63.3577	30.0293	63.3245	30.0293	63.3441	30.0293	63.2982	30.0293	63.3241	30.0293	63.266	30.0293	63.2981	30.0293	63.2287	30.0293	63.2665	30.0293	63.1871	30.0293	63.2301	30.0293	63.1423	30.0293	63.1894	30.0293	63.0956	30.0293	63.1457	30.0293	63.0484	30.0293	63.1	30.0293	63.0024	30.0293	63.0536	30.0293	62.9592	30.0293	63.0081	30.0293	62.9203	30.0293	62.9649	30.0293	62.8874	30.0293	62.9257	30.0293	62.8616	30.0293	62.8921	30.0293	62.8442	30.0293	62.8653	30.0293	62.8357	30.0293	62.8465	30.0293	62.8364
31.4941	65.1267	31.4941	65.1196	31.4941	65.1273	31.4941	65.1059	31.4941	65.1212	31.4941	65.086	31.4941	65.1087	31.4941	65.0602	31.4941	65.0898	31.4941	65.029	31.4941	65.0651	31.4941	64.9931	31.4941	65.035	31.4941	64.9535	31.4941	65.0001	31.4941	64.9112	31.4941	64.9614	31.4941	64.8674	31.4941	64.9198	31.4941	64.8236	31.4941	64.8765	31.4941	64.7811	31.4941	64.8328	31.4941	64.7414	31.4941	64.7901	31.4941	64.7061	31.4941	64.7499	31.4941	64.6763	31.4941	64.7136	31.4941	64.6533	31.4941	64.6826	31.4941	64.6378	31.4941	64.6579	31.4941	64.6304	31.4941	64.6407	31.4941	64.6314
32.2266	65.8651	32.2266	65.855	32.2266	65.8671	32.2266	65.8371	32.2266	65.8612	32.2266	65.8118	32.2266	65.8473	32.2266	65.7794	32.2266	65.8257	32.2266	65.7407	32.2266	65.7968	32.2266	65.6964	32.2266	65.7611	32.2266	65.6476	32.2266	65.7194	32.2266	65.5956	32.2266	65.6726	32.2266	65.5419	32.2266	65.622	32.2266	65.4882	32.2266	65.5689	32.2266	65.4362	32.2266	65.515	32.2266	65.3878	32.2266	65.462	32.2266	65.3449	32.2266	65.4117	32.2266	65.309	32.2266	65.366	32.2266	65.2815	32.2266	65.3264	32.2266	65.2636	32.2266	65.2946	32.2266	65.2559	32.2266	65.2717	32.2266	65.2586
33.6914	67.8851	33.6914	67.8747	33.6914	67.8875	33.6914	67.8563	33.6914	67.8816	33.6914	67.8303	33.6914	67.8675	33.6914	67.7973	33.6914	67.8456	33.6914	67.7577	33.6914	67.8161	33.6914	67.7126	33.6914	67.7795	33.6914	67.6629	33.6914	67.7368	33.6914	67.6099	33.6914	67.6888	33.6914	67.5551	33.6914	67.6368	33.6914	67.5002	33.6914	67.5822	33.6914	67.4469	33.6914	67.5267	33.6914	67.3972	33.6914	67.4722	33.6914	67.3529	33.6914	67.4204	33.6914	67.3158	33.6914	67.3733	33.6914	67.2873	33.6914	67.3326	33.6914	67.2686	33.6914	67.2999	33.6914	67.2604	33.6914	67.2764	33.6914	67.263
34.4238	68.9317	34.4238	68.9247	34.4238	68.9311	34.4238	68.9104	34.4238	68.9229	34.4238	68.8889	34.4238	68.9073	34.4238	68.8608	34.4238	68.8846	34.4238	68.8265	34.4238	68.855	34.4238	68.787	34.4238	68.8193	34.4238	68.7431	34.4238	68.7783	34.4238	68.696	34.4238	68.7329	34.4238	68.6469	34.4238	68.6844	34.4238	68.5974	34.4238	68.6343	34.4238	68.5491	34.4238	68.5841	34.4238	68.5035	34.4238	68.5355	34.4238	68.4623	34.4238	68.4904	34.4238	68.4269	34.4238	68.4502	34.4238	68.3986	34.4238	68.4166	34.4238	68.3786	34.4238	68.3908	34.4238	68.3675	34.4238	68.3737	34.4238	68.3658
35.8887	70.7367	35.8887	70.7259	35.8887	70.739	35.8887	70.7069	35.8887	70.7329	35.8887	70.6801	35.8887	70.7184	35.8887	70.6459	35.8887	70.6957	35.8887	70.605	35.8887	70.6653	35.8887	70.5584	35.8887	70.6276	35.8887	70.5072	35.8887	70.5836	35.8887	70.4527	35.8887	70.5343	35.8887	70.3965	35.8887	70.4809	35.8887	70.3402	35.8887	70.425	35.8887	70.2858	35.8887	70.3682	35.8887	70.2352	35.8887	70.3124	35.8887	70.1902	35.8887	70.2596	35.8887	70.1526	35.8887	70.2115	35.8887	70.1238	35.8887	70.1701	35.8887	70.1049	35.8887	70.1368	35.8887	70.0967	35.8887	70.1129	35.8887	70.0994
37.3535	72.677	37.3535	72.6671	37.3535	72.6789	37.3535	72.6494	37.3535	72.6728	37.3535	72.6241	37.3535	72.6587	37.3535	72.592	37.3535	72.637	37.3535	72.5535	37.3535	72.6081	37.3535	72.5098	37.3535	72.5726	37.3535	72.4617	37.3535	72.5314	37.3535	72.4108	37.3535	72.4855	37.3535	72.3585	37.3535	72.4361	37.3535	72.3064	37.3535	72.3847	37.3535	72.2564	37.3535	72.3328	37.3535	72.2102	37.3535	72.2822	37.3535	72.1695	37.3535	72.2344	37.3535	72.1357	37.3535	72.1911	37.3535	72.1102	37.3535	72.1538	37.3535	72.0937	37.3535	72.1238	37.3535	72.0868	37.3535	72.1021	37.3535	72.0897
38.8184	74.5089	38.8184	74.5002	38.8184	74.5096	38.8184	74.4836	38.8184	74.5021	38.8184	74.4594	38.8184	74.4866	38.8184	74.4281	38.8184	74.4635	38.8184	74.3907	38.8184	74.4332	38.8184	74.3479	38.8184	74.3966	38.8184	74.3009	38.8184	74.3544	38.8184	74.2512	38.8184	74.308	38.8184	74.2001	38.8184	74.2585	38.8184	74.1494	38.8184	74.2076	38.8184	74.1007	38.8184	74.1568	38.8184	74.0556	38.8184	74.1078	38.8184	74.0158	38.8184	74.0623	38.8184	73.9826	38.8184	74.0218	38.8184	73.957	38.8184	73.9876	38.8184	73.9398	38.8184	73.9608	38.8184	73.9315	38.8184	73.9422	38.8184	73.9323
39.5508	75.4242	39.5508	75.4156	39.5508	75.4247	39.5508	75.3991	39.5508	75.4171	39.5508	75.375	39.5508	75.4014	39.5508	75.344	39.5508	75.3782	39.5508	75.3067	39.5508	75.3478	39.5508	75.2643	39.5508	75.3111	39.5508	75.2178	39.5508	75.2691	39.5508	75.1685	39.5508	75.2228	39.5508	75.1181	39.5508	75.1736	39.5508	75.0682	39.5508	75.1231	39.5508	75.0203	39.5508	75.073	39.5508	74.9761	39.5508	75.0248	39.5508	74.9372	39.5508	74.9802	39.5508	74.9046	39.5508	74.9407	39.5508	74.8795	39.5508	74.9075	39.5508	74.8626	39.5508	74.8817	39.5508	74.8542	39.5508	74.8639	39.5508	74.8547
41.0156	77.2318	41.0156	77.2222	41.0156	77.2333	41.0156	77.2049	41.0156	77.2269	41.0156	77.1802	41.0156	77.2128	41.0156	77.1488	41.0156	77.1913	41.0156	77.1114	41.0156	77.1633	41.0156	77.0692	41.0156	77.1294	41.0156	77.0235	41.0156	77.0909	41.0156	76.9758	41.0156	77.0487	41.0156	76.9278	41.0156	77.0044	41.0156	76.8811	41.0156	76.9592	41.0156	76.8375	41.0156	76.9146	41.0156	76.7985	41.0156	76.8719	41.0156	76.7655	41.0156	76.8323	41.0156	76.7395	41.0156	76.7969	41.0156	76.7209	41.0156	76.7666	41.0156	76.7102	41.0156	76.7419	41.0156	76.7073	41.0156	76.7235	41.0156	76.7118
42.4805	78.888	42.4805	78.8816	42.4805	78.8846	42.4805	78.8654	42.4805	78.8714	42.4805	78.84	42.4805	78.8486	42.4805	78.8059	42.4805	78.8166	42.4805	78.764	42.4805	78.7762	42.4805	78.7153	42.4805	78.7283	42.4805	78.661	42.4805	78.6743	42.4805	78.6028	42.4805	78.6156	42.4805	78.5423	42.4805	78.5541	42.4805	78.4815	42.4805	78.4917	42.4805	78.4222	42.4805	78.4306	42.4805	78.3664	42.4805	78.373	42.4805	78.316	42.4805	78.3208	42.4805	78.2726	42.4805	78.2758	42.4805	78.2375	42.4805	78.2394	42.4805	78.2117	42.4805	78.2128	42.4805	78.196	42.4805	78.1965	42.4805	78.1909
43.9453	80.3828	43.9453	80.3787	43.9453	80.3768	43.9453	80.3646	43.9453	80.3607	43.9453	80.3408	43.9453	80.3348	43.9453	80.3079	43.9453	80.2998	43.9453	80.2667	43.9453	80.2564	43.9453	80.2182	43.9453	80.2056	43.9453	80.1637	43.9453	80.1489	43.9453	80.1048	43.9453	80.0879	43.9453	80.0431	43.9453	80.0245	43.9453	79.9806	43.9453	79.9607	43.9453	79.9193	43.9453	79.8987	43.9453	79.8611	43.9453	79.8407	43.9453	79.808	43.9453	79.7888	43.9453	79.7617	43.9453	79.7446	43.9453	79.7235	43.9453	79.7096	43.9453	79.6946	43.9453	79.6849	43.9453	79.6759	43.9453	79.6708	43.9453	79.6679
45.4102	81.514	45.4102	81.5112	45.4102	81.5068	45.4102	81.4988	45.4102	81.4897	45.4102	81.4769	45.4102	81.4631	45.4102	81.4463	45.4102	81.4272	45.4102	81.4076	45.4102	81.3831	45.4102	81.3619	45.4102	81.3316	45.4102	81.3103	45.4102	81.2743	45.4102	81.2541	45.4102	81.2126	45.4102	81.195	45.4102	81.1487	45.4102	81.1346	45.4102	81.0847	45.4102	81.0747	45.4102	81.0228	45.4102	81.017	45.4102	80.9653	45.4102	80.9635	45.4102	80.9144	45.4102	80.9156	45.4102	80.872	45.4102	80.875	45.4102	80.8394	45.4102	80.8428	45.4102	80.8177	45.4102	80.8203	45.4102	80.8073	45.4102	80.8083
47.6074	82.5712	47.6074	82.5637	47.6074	82.5693	47.6074	82.5473	47.6074	82.558	47.6074	82.5223	47.6074	82.5374	47.6074	82.4897	47.6074	82.5079	47.6074	82.4503	47.6074	82.4703	47.6074	82.4052	47.6074	82.4254	47.6074	82.3558	47.6074	82.3746	47.6074	82.3035	47.6074	82.3195	47.6074	82.2499	47.6074	82.2619	47.6074	82.1966	47.6074	82.2039	47.6074	82.1452	47.6074	82.1477	47.6074	82.0972	47.6074	82.0953	47.6074	82.0539	47.6074	82.0487	47.6074	82.0165	47.6074	82.0093	47.6074	81.9859	47.6074	81.9784	47.6074	81.9627	47.6074	81.9567	47.6074	81.9478	47.6074	81.9445	47.6074	81.9416
49.0723	82.9795	49.0723	82.9703	49.0723	82.9791	49.0723	82.9519	49.0723	82.969	49.0723	82.9249	49.0723	82.9494	49.0723	82.89	49.0723	82.9208	49.0723	82.8483	49.0723	82.8838	49.0723	82.8011	49.0723	82.8396	49.0723	82.7499	49.0723	82.7896	49.0723	82.6963	49.0723	82.7353	49.0723	82.6421	49.0723	82.6786	49.0723	82.589	49.0723	82.6216	49.0723	82.5386	49.0723	82.5664	49.0723	82.4925	49.0723	82.5149	49.0723	82.4519	49.0723	82.469	49.0723	82.4178	49.0723	82.43	49.0723	82.3909	49.0723	82.3989	49.0723	82.3715	49.0723	82.3763	49.0723	82.3602	49.0723	82.3623	49.0723	82.357
50.5371	83.1456	50.5371	83.1376	50.5371	83.1437	50.5371	83.1199	50.5371	83.132	50.5371	83.0933	50.5371	83.1105	50.5371	83.0583	50.5371	83.08	50.5371	83.0163	50.5371	83.0411	50.5371	82.9683	50.5371	82.9952	50.5371	82.9161	50.5371	82.9435	50.5371	82.8612	50.5371	82.8879	50.5371	82.8055	50.5371	82.8303	50.5371	82.7509	50.5371	82.7727	50.5371	82.6991	50.5371	82.7173	50.5371	82.6518	50.5371	82.6661	50.5371	82.6101	50.5371	82.6206	50.5371	82.5752	50.5371	82.5823	50.5371	82.5476	50.5371	82.5521	50.5371	82.5277	50.5371	82.5302	50.5371	82.5159	50.5371	82.517	50.5371	82.5123
52.7344	83.1754	52.7344	83.1691	52.7344	83.1717	52.7344	83.1531	52.7344	83.1581	52.7344	83.128	52.7344	83.1348	52.7344	83.0946	52.7344	83.1026	52.7344	83.054	52.7344	83.0622	52.7344	83.0074	52.7344	83.0149	52.7344	82.9566	52.7344	82.9624	52.7344	82.9031	52.7344	82.9064	52.7344	82.8489	52.7344	82.849	52.7344	82.7956	52.7344	82.7924	52.7344	82.745	52.7344	82.7386	52.7344	82.6986	52.7344	82.6897	52.7344	82.6576	52.7344	82.647	52.7344	82.6228	52.7344	82.612	52.7344	82.5949	52.7344	82.5851	52.7344	82.5741	52.7344	82.5667	52.7344	82.5607	52.7344	82.5567	52.7344	82.5548
54.1992	83.0915	54.1992	83.0864	54.1992	83.0864	54.1992	83.0717	54.1992	83.0713	54.1992	83.0477	54.1992	83.0464	54.1992	83.0153	54.1992	83.0124	54.1992	82.9758	54.1992	82.9703	54.1992	82.9304	54.1992	82.9214	54.1992	82.8806	54.1992	82.8674	54.1992	82.8283	54.1992	82.8103	54.1992	82.7751	54.1992	82.7522	54.1992	82.7228	54.1992	82.6953	54.1992	82.673	54.1992	82.642	54.1992	82.6272	54.1992	82.5942	54.1992	82.5863	54.1992	82.5534	54.1992	82.5512	54.1992	82.5207	54.1992	82.5223	54.1992	82.4967	54.1992	82.4999	54.1992	82.4815	54.1992	82.4843	54.1992	82.4746	54.1992	82.4757
56.3965	82.9971	56.3965	82.9898	56.3965	82.9943	56.3965	82.9729	56.3965	82.9814	56.3965	82.947	56.3965	82.9587	56.3965	82.9132	56.3965	82.9268	56.3965	82.8727	56.3965	82.8869	56.3965	82.8272	56.3965	82.8402	56.3965	82.7783	56.3965	82.7885	56.3965	82.7278	56.3965	82.7339	56.3965	82.6777	56.3965	82.6786	56.3965	82.6297	56.3965	82.6249	56.3965	82.5852	56.3965	82.575	56.3965	82.5453	56.3965	82.5307	56.3965	82.5108	56.3965	82.4934	56.3965	82.4821	56.3965	82.464	56.3965	82.459	56.3965	82.4427	56.3965	82.4416	56.3965	82.4293	56.3965	82.4297	56.3965	82.4231	56.3965	82.4234
58.5938	82.9127	58.5938	82.9035	58.5938	82.9114	58.5938	82.8844	58.5938	82.8996	58.5938	82.8561	58.5938	82.8778	58.5938	82.8198	58.5938	82.8466	58.5938	82.7768	58.5938	82.8073	58.5938	82.729	58.5938	82.7612	58.5938	82.6784	58.5938	82.7104	58.5938	82.6269	58.5938	82.6569	58.5938	82.5768	58.5938	82.6031	58.5938	82.5299	58.5938	82.5513	58.5938	82.4877	58.5938	82.5036	58.5938	82.4514	58.5938	82.4617	58.5938	82.4214	58.5938	82.4268	58.5938	82.3978	58.5938	82.3994	58.5938	82.3802	58.5938	82.3795	58.5938	82.3679	58.5938	82.3664	58.5938	82.3604	58.5938	82.3594	58.5938	82.3576
60.0586	82.8445	60.0586	82.8357	60.0586	82.842	60.0586	82.8162	60.0586	82.8282	60.0586	82.7866	60.0586	82.8036	60.0586	82.7482	60.0586	82.7691	60.0586	82.7025	60.0586	82.726	60.0586	82.6516	60.0586	82.6758	60.0586	82.5974	60.0586	82.6208	60.0586	82.5424	60.0586	82.5633	60.0586	82.4887	60.0586	82.5059	60.0586	82.4386	60.0586	82.451	60.0586	82.3936	60.0586	82.4009	60.0586	82.355	60.0586	82.3575	60.0586	82.3234	60.0586	82.3219	60.0586	82.2985	60.0586	82.2944	60.0586	82.28	60.0586	82.2749	60.0586	82.267	60.0586	82.2626	60.0586	82.2589	60.0586	82.2564	60.0586	82.2554
62.2559	82.8752	62.2559	82.8673	62.2559	82.8706	62.2559	82.8474	62.2559	82.8536	62.2559	82.8163	62.2559	82.8246	62.2559	82.7753	62.2559	82.7846	62.2559	82.726	62.2559	82.7351	62.2559	82.6705	62.2559	82.678	62.2559	82.6112	62.2559	82.6155	62.2559	82.5505	62.2559	82.5505	62.2559	82.4909	62.2559	82.4857	62.2559	82.4348	62.2559	82.4241	62.2559	82.3841	62.2559	82.3682	62.2559	82.3402	62.2559	82.3202	62.2559	82.3035	62.2559	82.2814	62.2559	82.2742	62.2559	82.2522	62.2559	82.2517	62.2559	82.2322	62.2559	82.2351	62.2559	82.2206	62.2559	82.2238	62.2559	82.2161	62.2559	82.2174
64.4531	82.9542	64.4531	82.9461	64.4531	82.9489	64.4531	82.925	64.4531	82.9301	64.4531	82.8918	64.4531	82.8982	64.4531	82.8479	64.4531	82.8542	64.4531	82.795	64.4531	82.7995	64.4531	82.7351	64.4531	82.7359	64.4531	82.6706	64.4531	82.6659	64.4531	82.6041	64.4531	82.5924	64.4531	82.5382	64.4531	82.5186	64.4531	82.4752	64.4531	82.4476	64.4531	82.4172	64.4531	82.3826	64.4531	82.3657	64.4531	82.3261	64.4531	82.3216	64.4531	82.28	64.4531	82.285	64.4531	82.245	64.4531	82.2557	64.4531	82.2213	64.4531	82.2331	64.4531	82.2078	64.4531	82.2168	64.4531	82.2034	64.4531	82.2067
66.6504	83.0002	66.6504	82.9868	66.6504	82.9991	66.6504	82.9595	66.6504	82.9834	66.6504	82.9195	66.6504	82.9533	66.6504	82.868	66.6504	82.9095	66.6504	82.807	66.6504	82.8534	66.6504	82.7385	66.6504	82.7867	66.6504	82.6652	66.6504	82.7117	66.6504	82.5897	66.6504	82.6311	66.6504	82.5148	66.6504	82.5483	66.6504	82.4431	66.6504	82.4667	66.6504	82.3767	66.6504	82.3896	66.6504	82.3176	66.6504	82.3202	66.6504	82.2666	66.6504	82.2609	66.6504	82.2245	66.6504	82.2134	66.6504	82.1911	66.6504	82.1783	66.6504	82.1663	66.6504	82.1553	66.6504	82.1499	66.6504	82.1437	66.6504	82.1422
69.5801	83.1741	69.5801	83.1542	69.5801	83.1804	69.5801	83.1211	69.5801	83.1729	69.5801	83.0759	69.5801	83.152	69.5801	83.0198	69.5801	83.1185	69.5801	82.9548	69.5801	83.0735	69.5801	82.8831	69.5801	83.0186	69.5801	82.8075	69.5801	82.9557	69.5801	82.7308	69.5801	82.887	69.5801	82.6562	69.5801	82.8153	69.5801	82.5866	69.5801	82.743	69.5801	82.5245	69.5801	82.6728	69.5801	82.4719	69.5801	82.6072	69.5801	82.43	69.5801	82.5481	69.5801	82.3993	69.5801	82.4967	69.5801	82.3794	69.5801	82.4539	69.5801	82.3696	69.5801	82.4199	69.5801	82.3693	69.5801	82.3946	69.5801	82.3777
71.7773	83.3232	71.7773	83.3096	71.7773	83.3235	71.7773	83.2829	71.7773	83.3105	71.7773	83.2441	71.7773	83.285	71.7773	83.1942	71.7773	83.2479	71.7773	83.1353	71.7773	83.2008	71.7773	83.0694	71.7773	83.1455	71.7773	82.9992	71.7773	83.0842	71.7773	82.9278	71.7773	83.0194	71.7773	82.8582	71.7773	82.9537	71.7773	82.7932	71.7773	82.8896	71.7773	82.7355	71.7773	82.8294	71.7773	82.687	71.7773	82.775	71.7773	82.6487	71.7773	82.7275	71.7773	82.6209	71.7773	82.6875	71.7773	82.6031	71.7773	82.6552	71.7773	82.5942	71.7773	82.6299	71.7773	82.5932	71.7773	82.6114	71.7773	82.5991
73.9746	83.4995	73.9746	83.4872	73.9746	83.4991	73.9746	83.4624	73.9746	83.4862	73.9746	83.4261	73.9746	83.4613	73.9746	83.3796	73.9746	83.4258	73.9746	83.3246	73.9746	83.3811	73.9746	83.2636	73.9746	83.3293	73.9746	83.1993	73.9746	83.2728	73.9746	83.1345	73.9746	83.2142	73.9746	83.0723	73.9746	83.156	73.9746	83.0155	73.9746	83.1006	73.9746	82.9665	73.9746	83.0502	73.9746	82.9269	73.9746	83.0062	73.9746	82.8973	73.9746	82.9692	73.9746	82.8775	73.9746	82.9391	73.9746	82.8667	73.9746	82.9152	73.9746	82.8631	73.9746	82.8967	73.9746	82.8653	73.9746	82.8825	73.9746	82.8721
76.9043	83.6141	76.9043	83.6054	76.9043	83.6097	76.9043	83.5839	76.9043	83.5923	76.9043	83.5505	76.9043	83.5628	76.9043	83.5069	76.9043	83.5226	76.9043	83.455	76.9043	83.4735	76.9043	83.3975	76.9043	83.4181	76.9043	83.3372	76.9043	83.3593	76.9043	83.2772	76.9043	83.3	76.9043	83.2205	76.9043	83.2434	76.9043	83.17	76.9043	83.1922	76.9043	83.1275	76.9043	83.1485	76.9043	83.0944	76.9043	83.1135	76.9043	83.0707	76.9043	83.0875	76.9043	83.0556	76.9043	83.0696	76.9043	83.0474	76.9043	83.0583	76.9043	83.0442	76.9043	83.0516	76.9043	83.0439	76.9043	83.0477	76.9043	83.0453
79.834	83.8567	79.834	83.8518	79.834	83.8467	79.834	83.8324	79.834	83.8221	79.834	83.7995	79.834	83.7841	79.834	83.7546	79.834	83.7344	79.834	83.7002	79.834	83.6755	79.834	83.6392	79.834	83.6102	79.834	83.5747	79.834	83.5423	79.834	83.5105	79.834	83.4753	79.834	83.4499	79.834	83.4131	79.834	83.3962	79.834	83.359	79.834	83.3515	79.834	83.3153	79.834	83.3172	79.834	83.2833	79.834	83.2931	79.834	83.2628	79.834	83.2779	79.834	83.2523	79.834	83.2694	79.834	83.2495	79.834	83.265	79.834	83.2513	79.834	83.262	79.834	83.2551	79.834	83.259
82.7637	84.098	82.7637	84.1047	82.7637	84.0732	82.7637	84.0937	82.7637	84.0305	82.7637	84.066	82.7637	83.9708	82.7637	84.0233	82.7637	83.8957	82.7637	83.9675	82.7637	83.8078	82.7637	83.9013	82.7637	83.7103	82.7637	83.8277	82.7637	83.6076	82.7637	83.7499	82.7637	83.5044	82.7637	83.6712	82.7637	83.4061	82.7637	83.5948	82.7637	83.3179	82.7637	83.5232	82.7637	83.2442	82.7637	83.4583	82.7637	83.1885	82.7637	83.4007	82.7637	83.1521	82.7637	83.3502	82.7637	83.1345	82.7637	83.3057	82.7637	83.1337	82.7637	83.266	82.7637	83.1462	82.7637	83.2299	82.7637	83.1684	82.7637	83.1971
85.6934	84.086	85.6934	84.0699	85.6934	84.0881	85.6934	84.0411	85.6934	84.0759	85.6934	84.001	85.6934	84.0494	85.6934	83.9517	85.6934	84.0097	85.6934	83.8957	85.6934	83.958	85.6934	83.8358	85.6934	83.8967	85.6934	83.775	85.6934	83.8285	85.6934	83.716	85.6934	83.7568	85.6934	83.6615	85.6934	83.6854	85.6934	83.6132	85.6934	83.6181	85.6934	83.5725	85.6934	83.5584	85.6934	83.5394	85.6934	83.5091	85.6934	83.5134	85.6934	83.4718	85.6934	83.493	85.6934	83.4469	85.6934	83.4767	85.6934	83.4334	85.6934	83.4629	85.6934	83.4295	85.6934	83.4509	85.6934	83.4327	85.6934	83.4404
88.623	84.056	88.623	84.037	88.623	84.0608	88.623	84.0048	88.623	84.0512	88.623	83.9613	88.623	84.0277	88.623	83.9088	88.623	83.9915	88.623	83.8504	88.623	83.9448	88.623	83.7896	88.623	83.8901	88.623	83.7303	88.623	83.831	88.623	83.676	88.623	83.7711	88.623	83.6299	88.623	83.7144	88.623	83.5944	88.623	83.6642	88.623	83.5704	88.623	83.6235	88.623	83.5577	88.623	83.5939	88.623	83.5545	88.623	83.5757	88.623	83.558	88.623	83.5675	88.623	83.5649	88.623	83.5668	88.623	83.5719	88.623	83.5703	88.623	83.5765	88.623	83.5748	88.623	83.5774
91.5527	83.9854	91.5527	83.9634	91.5527	83.9912	91.5527	83.9262	91.5527	83.981	91.5527	83.8754	91.5527	83.956	91.5527	83.814	91.5527	83.9182	91.5527	83.7456	91.5527	83.8705	91.5527	83.6749	91.5527	83.8164	91.5527	83.6066	91.5527	83.7601	91.5527	83.5461	91.5527	83.7057	91.5527	83.4976	91.5527	83.6575	91.5527	83.4647	91.5527	83.6187	91.5527	83.4488	91.5527	83.5914	91.5527	83.4495	91.5527	83.5761	91.5527	83.4642	91.5527	83.5715	91.5527	83.4887	91.5527	83.5748	91.5527	83.5176	91.5527	83.5819	91.5527	83.5458	91.5527	83.5883	91.5527	83.5688	91.5527	83.5899	91.5527	83.5838
94.4824	84.1881	94.4824	84.1896	94.4824	84.1653	94.4824	84.1702	94.4824	84.1219	94.4824	84.1315	94.4824	84.0597	94.4824	84.076	94.4824	83.9815	94.4824	84.007	94.4824	83.8915	94.4824	83.9291	94.4824	83.7949	94.4824	83.8474	94.4824	83.6978	94.4824	83.7674	94.4824	83.6068	94.4824	83.6944	94.4824	83.5282	94.4824	83.6331	94.4824	83.4674	94.4824	83.5867	94.4824	83.4277	94.4824	83.5562	94.4824	83.4099	94.4824	83.5404	94.4824	83.412	94.4824	83.5359	94.4824	83.4294	94.4824	83.5376	94.4824	83.4558	94.4824	83.54	94.4824	83.4847	94.4824	83.5382	94.4824	83.5103	94.4824	83.5287
98.1445	84.3099	98.1445	84.2951	98.1445	84.3032	98.1445	84.2598	98.1445	84.2745	98.1445	84.2063	98.1445	84.2243	98.1445	84.1375	98.1445	84.1542	98.1445	84.0569	98.1445	84.0667	98.1445	83.9689	98.1445	83.9656	98.1445	83.8782	98.1445	83.8554	98.1445	83.7894	98.1445	83.742	98.1445	83.7071	98.1445	83.6316	98.1445	83.6345	98.1445	83.5306	98.1445	83.5738	98.1445	83.4449	98.1445	83.5252	98.1445	83.3788	98.1445	83.4875	98.1445	83.3346	98.1445	83.458	98.1445	83.312	98.1445	83.4333	98.1445	83.3081	98.1445	83.4102	98.1445	83.3186	98.1445	83.3866	98.1445	83.3382	98.1445	83.3621
101.807	84.1399	101.807	84.1249	101.807	84.1328	101.807	84.0892	101.807	84.1034	101.807	84.035	101.807	84.0526	101.807	83.9657	101.807	83.9826	101.807	83.8854	101.807	83.8967	101.807	83.7992	101.807	83.7994	101.807	83.7126	101.807	83.6964	101.807	83.6312	101.807	83.5943	101.807	83.56	101.807	83.5001	101.807	83.5029	101.807	83.4201	101.807	83.4618	101.807	83.3594	101.807	83.4363	101.807	83.3209	101.807	83.4241	101.807	83.3047	101.807	83.4208	101.807	83.3077	101.807	83.4209	101.807	83.3248	101.807	83.4195	101.807	83.3496	101.807	83.4124	101.807	83.3756	101.807	83.3976
105.469	84.0775	105.469	84.052	105.469	84.0793	105.469	84.0045	105.469	84.0572	105.469	83.9373	105.469	84.012	105.469	83.8542	105.469	83.9455	105.469	83.7597	105.469	83.861	105.469	83.6596	105.469	83.7629	105.469	83.5599	105.469	83.6569	105.469	83.4672	105.469	83.5494	105.469	83.3872	105.469	83.4476	105.469	83.3245	105.469	83.3585	105.469	83.2813	105.469	83.2876	105.469	83.2573	105.469	83.2385	105.469	83.2496	105.469	83.2119	105.469	83.253	105.469	83.2054	105.469	83.2613	105.469	83.2138	105.469	83.2685	105.469	83.2306	105.469	83.2699	105.469	83.249	105.469	83.2632
109.131	84.0449	109.131	84.0188	109.131	84.0466	109.131	83.9699	109.131	84.0237	109.131	83.9007	109.131	83.9771	109.131	83.815	109.131	83.909	109.131	83.7178	109.131	83.8227	109.131	83.6149	109.131	83.7231	109.131	83.5129	109.131	83.6161	109.131	83.4187	109.131	83.5087	109.131	83.3383	109.131	83.4082	109.131	83.2766	109.131	83.3216	109.131	83.2358	109.131	83.2545	109.131	83.2155	109.131	83.21	109.131	83.2125	109.131	83.1883	109.131	83.2213	109.131	83.1862	109.131	83.235	109.131	83.1982	109.131	83.2472	109.131	83.2171	109.131	83.2527	109.131	83.2358	109.131	83.2488
112.793	83.9823	112.793	83.9525	112.793	83.9864	112.793	83.8987	112.793	83.9644	112.793	83.8238	112.793	83.9173	112.793	83.732	112.793	83.8471	112.793	83.6286	112.793	83.7575	112.793	83.5203	112.793	83.6535	112.793	83.4142	112.793	83.5414	112.793	83.3178	112.793	83.4286	112.793	83.2377	112.793	83.3233	112.793	83.1788	112.793	83.233	112.793	83.1432	112.793	83.1639	112.793	83.1298	112.793	83.1197	112.793	83.1344	112.793	83.1006	112.793	83.1504	112.793	83.1031	112.793	83.17	112.793	83.1209	112.793	83.1858	112.793	83.146	112.793	83.1924	112.793	83.1702	112.793	83.187
116.455	83.8595	116.455	83.8171	116.455	83.8737	116.455	83.7482	116.455	83.8595	116.455	83.6558	116.455	83.8178	116.455	83.5445	116.455	83.7511	116.455	83.4207	116.455	83.6632	116.455	83.2917	116.455	83.5592	116.455	83.1664	116.455	83.4459	116.455	83.0536	116.455	83.3307	116.455	82.9617	116.455	83.222	116.455	82.8967	116.455	83.1275	116.455	82.8614	116.455	83.0535	116.455	82.8545	116.455	83.0035	116.455	82.8709	116.455	82.9777	116.455	82.9025	116.455	82.9724	116.455	82.9398	116.455	82.9811	116.455	82.9741	116.455	82.9954	116.455	82.9984	116.455	83.0071	116.455	83.0094
120.85	83.8433	120.85	83.7985	120.85	83.857	120.85	83.7237	120.85	83.8397	120.85	83.6218	120.85	83.7929	120.85	83.4974	120.85	83.7197	120.85	83.3567	120.85	83.6246	120.85	83.2082	120.85	83.5134	120.85	83.0618	120.85	83.3935	120.85	82.9282	120.85	83.2733	120.85	82.818	120.85	83.1616	120.85	82.7394	120.85	83.0664	120.85	82.6972	120.85	82.994	120.85	82.6911	120.85	82.9473	120.85	82.7155	120.85	82.9253	120.85	82.761	120.85	82.923	120.85	82.8161	120.85	82.9323	120.85	82.8695	120.85	82.9437	120.85	82.9122	120.85	82.9481	120.85	82.9387
125.244	83.8078	125.244	83.776	125.244	83.8067	125.244	83.7122	125.244	83.7733	125.244	83.6185	125.244	83.7094	125.244	83.4987	125.244	83.6182	125.244	83.3583	125.244	83.5045	125.244	83.2046	125.244	83.3746	125.244	83.0469	125.244	83.2364	125.244	82.8959	125.244	83.099	125.244	82.7627	125.244	82.972	125.244	82.6572	125.244	82.8644	125.244	82.5863	125.244	82.7829	125.244	82.5524	125.244	82.7305	125.244	82.5524	125.244	82.7058	125.244	82.5784	125.244	82.7029	125.244	82.6193	125.244	82.713	125.244	82.6634	125.244	82.7257	125.244	82.7006	125.244	82.7315	125.244	82.724
129.639	83.6191	129.639	83.5882	129.639	83.617	129.639	83.5253	129.639	83.5821	129.639	83.4329	129.639	83.516	129.639	83.3146	129.639	83.4212	129.639	83.1759	129.639	83.3024	129.639	83.0237	129.639	83.1655	129.639	82.8669	129.639	83.0182	129.639	82.7154	129.639	82.87	129.639	82.5797	129.639	82.7306	129.639	82.4689	129.639	82.6098	129.639	82.3898	129.639	82.5153	129.639	82.3447	129.639	82.451	129.639	82.3313	129.639	82.4167	129.639	82.3426	129.639	82.4073	129.639	82.3685	129.639	82.4142	129.639	82.3985	129.639	82.4273	129.639	82.4233	129.639	82.437	129.639	82.4367
134.033	83.3871	134.033	83.366	134.033	83.3755	134.033	83.3134	134.033	83.3315	134.033	83.2322	134.033	83.2568	134.033	83.1264	134.033	83.1547	134.033	83.0019	134.033	83.0304	134.033	82.8663	134.033	82.8909	134.033	82.7285	134.033	82.7452	134.033	82.5984	134.033	82.6035	134.033	82.4856	134.033	82.4768	134.033	82.3984	134.033	82.3749	134.033	82.3417	134.033	82.3049	134.033	82.3164	134.033	82.2696	134.033	82.3185	134.033	82.2667	134.033	82.3398	134.033	82.289	134.033	82.3701	134.033	82.326	134.033	82.3985	134.033	82.3661	134.033	82.4158	134.033	82.3987	134.033	82.4163
138.428	83.2547	138.428	83.2233	138.428	83.2507	138.428	83.1588	138.428	83.2111	138.428	83.065	138.428	83.1369	138.428	82.9477	138.428	83.0314	138.428	82.8142	138.428	82.9	138.428	82.674	138.428	82.7504	138.428	82.5375	138.428	82.593	138.428	82.416	138.428	82.4399	138.428	82.3197	138.428	82.3044	138.428	82.2561	138.428	82.1989	138.428	82.2282	138.428	82.1326	138.428	82.2338	138.428	82.1094	138.428	82.2653	138.428	82.1263	138.428	82.3115	138.428	82.1742	138.428	82.359	138.428	82.2398	138.428	82.3957	138.428	82.308	138.428	82.4116	138.428	82.3653	138.428	82.4016
143.555	83.1335	143.555	83.0757	143.555	83.1506	143.555	82.9793	143.555	83.1269	143.555	82.8483	143.555	83.0637	143.555	82.6888	143.555	82.9643	143.555	82.5096	143.555	82.8341	143.555	82.3222	143.555	82.6807	143.555	82.1403	143.555	82.5144	143.555	81.9793	143.555	82.3477	143.555	81.8535	143.555	82.1943	143.555	81.7741	143.555	82.068	143.555	81.7458	143.555	81.9794	143.555	81.7655	143.555	81.934	143.555	81.8226	143.555	81.9303	143.555	81.9013	143.555	81.9597	143.555	81.9837	143.555	82.0084	143.555	82.0539	143.555	82.0601	143.555	82.0997	143.555	82.0995	143.555	82.1148
148.682	83.1052	148.682	83.0518	148.682	83.1143	148.682	82.9552	148.682	83.0795	148.682	82.8185	148.682	83.0029	148.682	82.6473	148.682	82.8886	148.682	82.4498	148.682	82.7429	148.682	82.2372	148.682	82.5744	148.682	82.0243	148.682	82.3944	148.682	81.8282	148.682	82.2165	148.682	81.6666	148.682	82.0555	148.682	81.5547	148.682	81.9253	148.682	81.5014	148.682	81.8364	148.682	81.5067	148.682	81.7933	148.682	81.561	148.682	81.7925	148.682	81.6475	148.682	81.8232	148.682	81.7459	148.682	81.8696	148.682	81.8365	148.682	81.9144	148.682	81.9042	148.682	81.9415	148.682	81.9399
153.809	83.2108	153.809	83.1641	153.809	83.2095	153.809	83.0702	153.809	83.1606	153.809	82.9319	153.809	83.0662	153.809	82.7536	153.809	82.9302	153.809	82.5428	153.809	82.7587	153.809	82.3099	153.809	82.5605	153.809	82.069	153.809	82.3472	153.809	81.8375	153.809	82.1336	153.809	81.6344	153.809	81.9362	153.809	81.4778	153.809	81.7714	153.809	81.3806	153.809	81.6523	153.809	81.3467	153.809	81.585	153.809	81.3695	153.809	81.567	153.809	81.4332	153.809	81.5871	153.809	81.5168	153.809	81.628	153.809	81.5991	153.809	81.6705	153.809	81.6626	153.809	81.6973	153.809	81.6964
159.668	83.5	159.668	83.4659	159.668	83.4873	159.668	83.3861	159.668	83.4282	159.668	83.2631	159.668	83.3246	159.668	83.1013	159.668	83.1804	159.668	82.9076	159.668	83.0015	159.668	82.6918	159.668	82.7968	159.668	82.467	159.668	82.5785	159.668	82.2491	159.668	82.3616	159.668	82.0559	159.668	82.1635	159.668	81.9041	159.668	82.0011	159.668	81.806	159.668	81.8879	159.668	81.7657	159.668	81.8301	159.668	81.7777	159.668	81.8246	159.668	81.8278	159.668	81.8591	159.668	81.8964	159.668	81.9155	159.668	81.9633	159.668	81.9736	159.668	82.0115	159.668	82.0159	159.668	82.0301
164.795	83.6217	164.795	83.5912	164.795	83.6055	164.795	83.5157	164.795	83.5425	164.795	83.3984	164.795	83.4342	164.795	83.2445	164.795	83.2841	164.795	83.0615	164.795	83.098	164.795	82.8595	164.795	82.885	164.795	82.6515	164.795	82.6579	164.795	82.4532	164.795	82.4328	164.795	82.2808	164.795	82.2287	164.795	82.1494	164.795	82.0642	164.795	82.0687	164.795	81.9546	164.795	82.0407	164.795	81.9068	164.795	82.0585	164.795	81.9177	164.795	82.1072	164.795	81.9738	164.795	82.1678	164.795	82.0552	164.795	82.2209	164.795	82.1397	164.795	82.2506	164.795	82.2082	164.795	82.2471
170.654	83.4539	170.654	83.3996	170.654	83.4581	170.654	83.2968	170.654	83.4117	170.654	83.1496	170.654	83.3167	170.654	82.9646	170.654	83.1767	170.654	82.7515	170.654	82.9982	170.654	82.5239	170.654	82.7907	170.654	82.2993	170.654	82.5677	170.654	82.0981	170.654	82.3466	170.654	81.9406	170.654	82.1475	170.654	81.8432	170.654	81.9907	170.654	81.8139	170.654	81.8925	170.654	81.8486	170.654	81.8605	170.654	81.9323	170.654	81.8911	170.654	82.0422	170.654	81.9691	170.654	82.1532	170.654	82.0721	170.654	82.2427	170.654	82.1752	170.654	82.294	170.654	82.2561	170.654	82.2985
176.514	82.976	176.514	82.9347	176.514	82.962	176.514	82.8385	176.514	82.894	176.514	82.6897	176.514	82.7749	176.514	82.4929	176.514	82.6099	176.514	82.2565	176.514	82.407	176.514	81.9932	176.514	82.1777	176.514	81.7211	176.514	81.9378	176.514	81.4635	176.514	81.707	176.514	81.2473	176.514	81.5073	176.514	81.0975	176.514	81.36	176.514	81.0311	176.514	81.2798	176.514	81.0505	176.514	81.2709	176.514	81.1419	176.514	81.3243	176.514	81.279	176.514	81.4195	176.514	81.43	176.514	81.5298	176.514	81.5651	176.514	81.6281	176.514	81.6612	176.514	81.6914	176.514	81.7045
183.105	82.313	183.105	82.2946	183.105	82.272	183.105	82.2179	183.105	82.1715	183.105	82.0859	183.105	82.0133	183.105	81.9033	183.105	81.8014	183.105	81.6777	183.105	81.5433	183.105	81.4206	183.105	81.2515	183.105	81.1482	183.105	80.9443	183.105	80.8819	183.105	80.6467	183.105	80.647	183.105	80.3886	183.105	80.4687	183.105	80.2003	183.105	80.3662	183.105	80.1039	183.105	80.3461	183.105	80.1058	183.105	80.3989	183.105	80.1931	183.105	80.5014	183.105	80.337	183.105	80.6223	183.105	80.5013	183.105	80.73	183.105	80.6512	183.105	80.7984	183.105	80.7597	183.105	80.8105
189.697	81.8756	189.697	81.8351	189.697	81.855	189.697	81.7368	189.697	81.7714	189.697	81.5848	189.697	81.624	189.697	81.3856	189.697	81.4141	189.697	81.1478	189.697	81.1456	189.697	80.8838	189.697	80.8273	189.697	80.61	189.697	80.4742	189.697	80.3471	189.697	80.1097	189.697	80.1182	189.697	79.7659	189.697	79.9451	189.697	79.4809	189.697	79.8425	189.697	79.2904	189.697	79.8133	189.697	79.2163	189.697	79.8458	189.697	79.2576	189.697	79.9164	189.697	79.3888	189.697	79.9955	189.697	79.5696	189.697	80.0538	189.697	79.7571	189.697	80.0676	189.697	79.9158	189.697	80.0226
196.289	81.3564	196.289	81.2864	196.289	81.3629	196.289	81.1558	196.289	81.3044	196.289	80.9691	196.289	81.1805	196.289	80.7333	196.289	80.9929	196.289	80.4591	196.289	80.7459	196.289	80.1618	196.289	80.448	196.289	79.8626	196.289	80.1137	196.289	79.5877	196.289	79.7655	196.289	79.3654	196.289	79.4342	196.289	79.2208	196.289	79.1565	196.289	79.1671	196.289	78.9681	196.289	79.2009	196.289	78.8922	196.289	79.3012	196.289	78.9296	196.289	79.4352	196.289	79.0573	196.289	79.5671	196.289	79.2357	196.289	79.6647	196.289	79.4214	196.289	79.705	196.289	79.5768	196.289	79.6756
202.881	81.0814	202.881	80.9971	202.881	81.0982	202.881	80.8469	202.881	81.0467	202.881	80.6338	202.881	80.927	202.881	80.3634	202.881	80.7403	202.881	80.0454	202.881	80.49	202.881	79.6953	202.881	80.1829	202.881	79.3362	202.881	79.8317	202.881	78.9997	202.881	79.4572	202.881	78.7222	202.881	79.0898	202.881	78.5383	202.881	78.7683	202.881	78.4684	202.881	78.5337	202.881	78.5106	202.881	78.4167	202.881	78.6385	202.881	78.4251	202.881	78.8103	202.881	78.5381	202.881	78.9807	202.881	78.7138	202.881	79.1108	202.881	78.9026	202.881	79.1739	202.881	79.0607	202.881	79.1566
210.205	80.9881	210.205	80.9184	210.205	80.9907	210.205	80.7813	210.205	80.9269	210.205	80.5772	210.205	80.7981	210.205	80.3082	210.205	80.6062	210.205	79.9797	210.205	80.3551	210.205	79.6022	210.205	80.0514	210.205	79.1945	210.205	79.7067	210.205	78.7851	210.205	79.3395	210.205	78.4136	210.205	78.9765	210.205	78.1245	210.205	78.6516	210.205	77.9556	210.205	78.4014	210.205	77.9228	210.205	78.2541	210.205	78.0105	210.205	78.2191	210.205	78.1767	210.205	78.2801	210.205	78.3683	210.205	78.4003	210.205	78.5367	210.205	78.5336	210.205	78.6468	210.205	78.6375	210.205	78.6805
217.529	81.0863	217.529	81.0376	217.529	81.0678	217.529	80.9208	217.529	80.9841	217.529	80.7359	217.529	80.8381	217.529	80.4849	217.529	80.634	217.529	80.1732	217.529	80.3784	217.529	79.8113	217.529	80.0815	217.529	79.4176	217.529	79.7583	217.529	79.0206	217.529	79.4302	217.529	78.6589	217.529	79.1247	217.529	78.3768	217.529	78.8725	217.529	78.2127	217.529	78.7012	217.529	78.1837	217.529	78.6267	217.529	78.2771	217.529	78.6456	217.529	78.4535	217.529	78.7347	217.529	78.6614	217.529	78.8574	217.529	78.8528	217.529	78.9737	217.529	78.9917	217.529	79.0488	217.529	79.0584
225.586	81.8229	225.586	81.8219	225.586	81.7455	225.586	81.7436	225.586	81.5883	225.586	81.5898	225.586	81.3509	225.586	81.3629	225.586	81.0344	225.586	81.0672	225.586	80.6436	225.586	80.7111	225.586	80.1896	225.586	80.3096	225.586	79.6937	225.586	79.8873	225.586	79.192	225.586	79.4805	225.586	78.7374	225.586	79.1356	225.586	78.3936	225.586	78.8995	225.586	78.2168	225.586	78.8029	225.586	78.2295	225.586	78.8451	225.586	78.4062	225.586	78.9911	225.586	78.6835	225.586	79.1845	225.586	78.9867	225.586	79.3661	225.586	79.252	225.586	79.487	225.586	79.4357	225.586	79.5151
232.91	82.6711	232.91	82.6217	232.91	82.6496	232.91	82.5065	232.91	82.5517	232.91	82.3304	232.91	82.3717	232.91	82.0985	232.91	82.1043	232.91	81.8169	232.91	81.7457	232.91	81.4942	232.91	81.2954	232.91	81.1424	232.91	80.76	232.91	80.7795	232.91	80.1585	232.91	80.4297	232.91	79.5299	232.91	80.1219	232.91	78.9389	232.91	79.8846	232.91	78.473	232.91	79.7368	232.91	78.2163	232.91	79.6789	232.91	78.2062	232.91	79.6891	232.91	78.4068	232.91	79.7286	232.91	78.7298	232.91	79.7523	232.91	79.0791	232.91	79.7188	232.91	79.3823	232.91	79.5993
241.699	82.8988	241.699	82.7787	241.699	82.9456	241.699	82.5859	241.699	82.9189	241.699	82.3219	241.699	82.8181	241.699	81.9903	241.699	82.6421	241.699	81.5994	241.699	82.3903	241.699	81.1639	241.699	82.063	241.699	80.7089	241.699	81.6642	241.699	80.2712	241.699	81.2043	241.699	79.8982	241.699	80.705	241.699	79.6381	241.699	80.2041	241.699	79.5229	241.699	79.7566	241.699	79.5523	241.699	79.4271	241.699	79.6899	241.699	79.2673	241.699	79.8773	241.699	79.2889	241.699	80.0531	241.699	79.4541	241.699	80.1673	241.699	79.692	241.699	80.1884	241.699	79.9284	241.699	80.1053
249.756	83.5191	249.756	83.4674	249.756	83.4956	249.756	83.3398	249.756	83.3977	249.756	83.136	249.756	83.2264	249.756	82.8568	249.756	82.9833	249.756	82.505	249.756	82.6709	249.756	82.0874	249.756	82.2942	249.756	81.618	249.756	81.8623	249.756	81.1214	249.756	81.3914	249.756	80.6362	249.756	80.9082	249.756	80.2137	249.756	80.4521	249.756	79.9085	249.756	80.0723	249.756	79.7579	249.756	79.8169	249.756	79.7624	249.756	79.7139	249.756	79.8818	249.756	79.7546	249.756	80.0518	249.756	79.8946	249.756	80.208	249.756	80.071	249.756	80.3018	249.756	80.2233	249.756	80.3075
258.545	84.0217	258.545	83.9438	258.545	84.0241	258.545	83.7908	258.545	83.9512	258.545	83.5637	258.545	83.8038	258.545	83.2655	258.545	83.5826	258.545	82.9022	258.545	83.2893	258.545	82.4846	258.545	82.9275	258.545	82.0311	258.545	82.5041	258.545	81.5694	258.545	82.0325	258.545	81.138	258.545	81.536	258.545	80.7813	258.545	81.0509	258.545	80.5387	258.545	80.6258	258.545	80.4296	258.545	80.3133	258.545	80.4415	258.545	80.1516	258.545	80.534	258.545	80.1449	258.545	80.6527	258.545	80.2585	258.545	80.7463	258.545	80.4328	258.545	80.7778	258.545	80.6057	258.545	80.7296
268.066	83.9774	268.066	83.9026	268.066	83.9676	268.066	83.7424	268.066	83.8744	268.066	83.4969	268.066	83.6995	268.066	83.168	268.066	83.4454	268.066	82.7614	268.066	83.1166	268.066	82.2898	268.066	82.721	268.066	81.777	268.066	82.2721	268.066	81.2629	268.066	81.7928	268.066	80.8046	268.066	81.3183	268.066	80.4689	268.066	80.8966	268.066	80.3093	268.066	80.5821	268.066	80.339	268.066	80.4197	268.066	80.5203	268.066	80.4241	268.066	80.7813	268.066	80.5692	268.066	81.045	268.066	80.7974	268.066	81.2504	268.066	81.0412	268.066	81.3591	268.066	81.241	268.066	81.3547
277.588	84.2884	277.588	84.2481	277.588	84.2481	277.588	84.1272	277.588	84.1264	277.588	83.9251	277.588	83.9222	277.588	83.641	277.588	83.6344	277.588	83.275	277.588	83.2639	277.588	82.8309	277.588	82.815	277.588	82.3195	277.588	82.2994	277.588	81.7644	277.588	81.7408	277.588	81.2083	277.588	81.1808	277.588	80.7151	277.588	80.681	277.588	80.3603	277.588	80.3147	277.588	80.2032	277.588	80.1417	277.588	80.2518	277.588	80.1753	277.588	80.454	277.588	80.3705	277.588	80.723	277.588	80.6449	277.588	80.9727	277.588	80.9126	277.588	81.1395	277.588	81.1069	277.588	81.1875
287.109	84.2711	287.109	84.2042	287.109	84.2543	287.109	84.0542	287.109	84.1525	287.109	83.8221	287.109	83.9643	287.109	83.5095	287.109	83.6885	287.109	83.1207	287.109	83.3244	287.109	82.6646	287.109	82.8747	287.109	82.159	287.109	82.3479	287.109	81.6353	287.109	81.765	287.109	81.1424	287.109	81.1659	287.109	80.744	287.109	80.6162	287.109	80.5024	287.109	80.2012	287.109	80.4511	287.109	79.9992	287.109	80.5725	287.109	80.0381	287.109	80.8034	287.109	80.2734	287.109	81.0618	287.109	80.6111	287.109	81.2738	287.109	80.9519	287.109	81.3865	287.109	81.2201	287.109	81.3708
297.363	84.9366	297.363	84.8633	297.363	84.9157	297.363	84.6967	297.363	84.7986	297.363	84.4372	297.363	84.5825	297.363	84.0847	297.363	84.2639	297.363	83.6398	297.363	83.8389	297.363	83.1066	297.363	83.3044	297.363	82.4974	297.363	82.6614	297.363	81.8403	297.363	81.9203	297.363	81.1884	297.363	81.1133	297.363	80.6244	297.363	80.3101	297.363	80.2455	297.363	79.6304	297.363	80.1198	297.363	79.223	297.363	80.2383	297.363	79.185	297.363	80.5134	297.363	79.4799	297.363	80.8259	297.363	79.96	297.363	81.0718	297.363	80.4619	297.363	81.1808	297.363	80.8684	297.363	81.1157
307.617	85.2229	307.617	85.0976	307.617	85.2631	307.617	84.8888	307.617	85.2161	307.617	84.5976	307.617	85.0785	307.617	84.2248	307.617	84.8462	307.617	83.7726	307.617	84.5142	307.617	83.2465	307.617	84.0776	307.617	82.6598	307.617	83.5334	307.617	82.0394	307.617	82.8854	307.617	81.4335	307.617	82.1511	307.617	80.914	307.617	81.3757	307.617	80.563	307.617	80.6455	307.617	80.4371	307.617	80.0883	307.617	80.5291	307.617	79.8283	307.617	80.7642	307.617	79.9024	307.617	81.0362	307.617	80.2229	307.617	81.2482	307.617	80.6371	307.617	81.332	307.617	81.0088	307.617	81.2527
318.604	85.4427	318.604	85.3427	318.604	85.4586	318.604	85.1539	318.604	85.3929	318.604	84.8704	318.604	85.2457	318.604	84.4851	318.604	85.0143	318.604	83.9921	318.604	84.6933	318.604	83.3884	318.604	84.2757	318.604	82.68	318.604	83.7541	318.604	81.8907	318.604	83.1254	318.604	81.0766	318.604	82.3974	318.604	80.3395	318.604	81.6011	318.604	79.8173	318.604	80.8073	318.604	79.6219	318.604	80.1358	318.604	79.7538	318.604	79.7287	318.604	80.0922	318.604	79.6664	318.604	80.4752	318.604	79.8968	318.604	80.7734	318.604	80.2688	318.604	80.9106	318.604	80.6253	318.604	80.8576
329.59	85.4817	329.59	85.42	329.59	85.4731	329.59	85.2828	329.59	85.3981	329.59	85.0638	329.59	85.2599	329.59	84.7559	329.59	85.0593	329.59	84.3509	329.59	84.7951	329.59	83.842	329.59	84.4631	329.59	83.2268	329.59	84.0576	329.59	82.5156	329.59	83.574	329.59	81.7433	329.59	83.0138	329.59	80.9862	329.59	82.3936	329.59	80.3674	329.59	81.755	329.59	80.0218	329.59	81.1732	329.59	80.0097	329.59	80.7463	329.59	80.2596	329.59	80.5527	329.59	80.6167	329.59	80.5948	329.59	80.9337	329.59	80.7868	329.59	81.1182	329.59	81.0034	329.59	81.1357
341.309	85.341	341.309	85.348	341.309	85.2435	341.309	85.2657	341.309	85.0538	341.309	85.0932	341.309	84.7712	341.309	84.8276	341.309	84.397	341.309	84.4635	341.309	83.9358	341.309	83.995	341.309	83.3986	341.309	83.4195	341.309	82.8054	341.309	82.7458	341.309	82.1908	341.309	82.007	341.309	81.6093	341.309	81.2788	341.309	81.1351	341.309	80.6892	341.309	80.8477	341.309	80.3855	341.309	80.7973	341.309	80.4432	341.309	80.9722	341.309	80.7953	341.309	81.2982	341.309	81.28	341.309	81.6712	341.309	81.7399	341.309	81.9944	341.309	82.072	341.309	82.1948	341.309	82.227
353.76	84.8755	353.76	84.7787	353.76	84.9114	353.76	84.6255	353.76	84.8779	353.76	84.4158	353.76	84.7634	353.76	84.1443	353.76	84.5526	353.76	83.8008	353.76	84.2272	353.76	83.3719	353.76	83.7663	353.76	82.8453	353.76	83.1476	353.76	82.2171	353.76	82.3524	353.76	81.5056	353.76	81.3771	353.76	80.7706	353.76	80.2607	353.76	80.1319	353.76	79.1413	353.76	79.7508	353.76	78.3116	353.76	79.7384	353.76	78.1114	353.76	80.0507	353.76	78.5838	353.76	80.5113	353.76	79.4031	353.76	80.9278	353.76	80.2142	353.76	81.1623	353.76	80.8174	353.76	81.1366
366.211	84.733	366.211	84.5976	366.211	84.789	366.211	84.3804	366.211	84.7672	366.211	84.0775	366.211	84.667	366.211	83.6841	366.211	84.484	366.211	83.1935	366.211	84.2091	366.211	82.5984	366.211	83.8272	366.211	81.8948	366.211	83.3181	366.211	81.0907	366.211	82.659	366.211	80.2234	366.211	81.8308	366.211	79.3851	366.211	80.8321	366.211	78.7376	366.211	79.7112	366.211	78.46	366.211	78.6225	366.211	78.611	366.211	77.8632	366.211	79.0552	366.211	77.726	366.211	79.5664	366.211	78.1822	366.211	79.9563	366.211	78.898	366.211	80.1113	366.211	79.5537	366.211	79.9783
378.662	85.1802	378.662	85.1188	378.662	85.1747	378.662	84.984	378.662	85.1081	378.662	84.7683	378.662	84.9854	378.662	84.4621	378.662	84.8083	378.662	84.0516	378.662	84.5726	378.662	83.5195	378.662	84.2672	378.662	82.8477	378.662	83.8745	378.662	82.024	378.662	83.3738	378.662	81.0587	378.662	82.7483	378.662	80.0175	378.662	81.9957	378.662	79.0671	378.662	81.1486	378.662	78.4768	378.662	80.3014	378.662	78.4497	378.662	79.6256	378.662	78.8979	378.662	79.3092	378.662	79.5212	378.662	79.4051	378.662	80.0541	378.662	79.7621	378.662	80.3542	378.662	80.1467	378.662	80.3766
392.578	84.9253	392.578	84.9226	392.578	84.8685	392.578	84.8625	392.578	84.7504	392.578	84.7448	392.578	84.5708	392.578	84.5623	392.578	84.3293	392.578	84.2992	392.578	84.0226	392.578	83.9304	392.578	83.641	392.578	83.4239	392.578	83.1678	392.578	82.7468	392.578	82.5815	392.578	81.874	392.578	81.8632	392.578	80.8103	392.578	81.0119	392.578	79.6361	392.578	80.0739	392.578	78.5807	392.578	79.1857	392.578	78.0166	392.578	78.5874	392.578	78.1594	392.578	78.4929	392.578	78.7794	392.578	78.8627	392.578	79.4625	392.578	79.4198	392.578	79.9322	392.578	79.881	392.578	80.0752
405.762	85.3346	405.762	85.2498	405.762	85.3214	405.762	85.0795	405.762	85.2033	405.762	84.8397	405.762	84.9805	405.762	84.5444	405.762	84.6582	405.762	84.1997	405.762	84.2443	405.762	83.7999	405.762	83.7459	405.762	83.3277	405.762	83.1668	405.762	82.7604	405.762	82.5093	405.762	82.082	405.762	81.7805	405.762	81.3054	405.762	81.0095	405.762	80.5045	405.762	80.2721	405.762	79.8442	405.762	79.7096	405.762	79.5412	405.762	79.4881	405.762	79.6975	405.762	79.6721	405.762	80.1749	405.762	80.1407	405.762	80.7122	405.762	80.6715	405.762	81.0997	405.762	81.0721	405.762	81.2285
420.41	85.4749	420.41	85.3289	420.41	85.5631	420.41	85.1241	420.41	85.5939	420.41	84.8588	420.41	85.5643	420.41	84.5289	420.41	85.4653	420.41	84.1254	420.41	85.2794	420.41	83.6318	420.41	84.9794	420.41	83.0249	420.41	84.5294	420.41	82.2779	420.41	83.885	420.41	81.3705	420.41	82.9934	420.41	80.3111	420.41	81.7944	420.41	79.1815	420.41	80.2311	420.41	78.1984	420.41	78.3045	420.41	77.6845	420.41	76.2802	420.41	77.7934	420.41	75.0682	420.41	78.2903	420.41	75.5096	420.41	78.785	420.41	76.837	420.41	78.9953	420.41	78.0392	420.41	78.7697
435.059	84.7365	435.059	84.7609	435.059	84.6292	435.059	84.7015	435.059	84.4494	435.059	84.5614	435.059	84.2183	435.059	84.3416	435.059	83.963	435.059	84.0351	435.059	83.7065	435.059	83.6238	435.059	83.4558	435.059	83.0804	435.059	83.1947	435.059	82.3733	435.059	82.8869	435.059	81.4792	435.059	82.4875	435.059	80.4093	435.059	81.9585	435.059	79.2639	435.059	81.289	435.059	78.3076	435.059	80.5225	435.059	77.9181	435.059	79.7904	435.059	78.2261	435.059	79.3049	435.059	78.9181	435.059	79.2274	435.059	79.5861	435.059	79.4946	435.059	79.9948	435.059	79.8575	435.059	80.0721
450.439	84.8867	450.439	84.8191	450.439	84.8738	450.439	84.6905	450.439	84.7733	450.439	84.525	450.439	84.592	450.439	84.3385	450.439	84.3448	450.439	84.1261	450.439	84.0445	450.439	83.8578	450.439	83.6908	450.439	83.4831	450.439	83.2631	450.439	82.9413	450.439	82.7216	450.439	82.1721	450.439	82.015	450.439	81.1333	450.439	81.0966	450.439	79.8447	450.439	79.958	450.439	78.5	450.439	78.7078	450.439	77.6094	450.439	77.7037	450.439	77.7001	450.439	77.4809	450.439	78.5542	450.439	78.128	450.439	79.5021	450.439	79.1045	450.439	80.1203	450.439	79.8946	450.439	80.2578
466.553	85.0375	466.553	84.8585	466.553	85.1024	466.553	84.5907	466.553	85.0499	466.553	84.2771	466.553	84.8954	466.553	83.9644	466.553	84.665	466.553	83.682	466.553	84.3826	466.553	83.4221	466.553	84.0567	466.553	83.138	466.553	83.6713	466.553	82.7585	466.553	83.1852	466.553	82.2099	466.553	82.5392	466.553	81.4375	466.553	81.6683	466.553	80.437	466.553	80.5243	466.553	79.3188	466.553	79.1307	466.553	78.3969	466.553	77.7236	466.553	78.0925	466.553	76.8999	466.553	78.4658	466.553	77.1566	466.553	79.0865	466.553	78.0951	466.553	79.5087	466.553	78.9995	466.553	79.501
482.666	85.2645	482.666	85.1341	482.666	85.2217	482.666	84.8382	482.666	85.0164	482.666	84.4023	482.666	84.6774	482.666	83.8668	482.666	84.2494	482.666	83.2783	482.666	83.785	482.666	82.6749	482.666	83.3282	482.666	82.0673	482.666	82.8945	482.666	81.429	482.666	82.4578	482.666	80.7053	482.666	81.9548	482.666	79.8416	482.666	81.3041	482.666	78.8356	482.666	80.4316	482.666	77.8247	482.666	79.3112	482.666	77.1603	482.666	78.0556	482.666	77.1987	482.666	77.0609	482.666	77.8208	482.666	76.8805	482.666	78.5333	482.666	77.5121	482.666	78.9449	482.666	78.3441	482.666	78.8839
500.244	85.6413	500.244	85.5363	500.244	85.624	500.244	85.3142	500.244	85.4872	500.244	84.9855	500.244	85.2417	500.244	84.5617	500.244	84.9034	500.244	84.0493	500.244	84.4875	500.244	83.4439	500.244	84.0009	500.244	82.7281	500.244	83.4347	500.244	81.8727	500.244	82.7613	500.244	80.848	500.244	81.9371	500.244	79.6521	500.244	80.9139	500.244	78.3803	500.244	79.6681	500.244	77.3385	500.244	78.275	500.244	77.0036	500.244	77.0594	500.244	77.5161	500.244	76.6175	500.244	78.4283	500.244	77.1828	500.244	79.2353	500.244	78.2177	500.244	79.6718	500.244	79.1287	500.244	79.64
517.822	85.8693	517.822	85.679	517.822	85.8439	517.822	85.3115	517.822	85.6016	517.822	84.8426	517.822	85.1807	517.822	84.3757	517.822	84.6645	517.822	84.0067	517.822	84.1733	517.822	83.7658	517.822	83.8196	517.822	83.586	517.822	83.633	517.822	83.3306	517.822	83.5246	517.822	82.8424	517.822	83.3323	517.822	81.9717	517.822	82.8847	517.822	80.5818	517.822	82.0271	517.822	78.5978	517.822	80.6215	517.822	76.3254	517.822	78.5937	517.822	75.2549	517.822	76.2788	517.822	76.4101	517.822	75.2698	517.822	78.0548	517.822	76.5131	517.822	79.0132	517.822	78.1474	517.822	79.0476
536.133	86.5815	536.133	86.336	536.133	86.5565	536.133	85.8396	536.133	86.2599	536.133	85.1429	536.133	85.7099	536.133	84.349	536.133	84.9578	536.133	83.623	536.133	84.1111	536.133	83.133	536.133	83.3401	536.133	82.9147	536.133	82.8117	536.133	82.8083	536.133	82.5498	536.133	82.5565	536.133	82.3824	536.133	81.9124	536.133	82.0499	536.133	80.6577	536.133	81.3148	536.133	78.5936	536.133	79.9918	536.133	75.7727	536.133	78.0116	536.133	73.9769	536.133	75.888	536.133	75.6242	536.133	75.5038	536.133	77.9584	536.133	77.1723	536.133	79.3214	536.133	78.8244	536.133	79.591
554.443	86.1003	554.443	85.8934	554.443	86.0445	554.443	85.4202	554.443	85.7279	554.443	84.6831	554.443	85.1545	554.443	83.7159	554.443	84.3497	554.443	82.6319	554.443	83.3957	554.443	81.6715	554.443	82.4737	554.443	81.1272	554.443	81.8382	554.443	81.0624	554.443	81.6258	554.443	81.1932	554.443	81.6774	554.443	81.1424	554.443	81.6592	554.443	80.6347	554.443	81.266	554.443	79.507	554.443	80.2648	554.443	77.7501	554.443	78.4657	554.443	75.8827	554.443	75.8603	554.443	75.3594	554.443	73.6666	554.443	76.3943	554.443	74.41	554.443	77.3759	554.443	76.3475	554.443	77.431
574.219	86.7094	574.219	86.4716	574.219	86.7192	574.219	86.0044	574.219	86.4942	574.219	85.3078	574.219	86.0184	574.219	84.4046	574.219	85.2744	574.219	83.3741	574.219	84.2655	574.219	82.3842	574.219	83.0598	574.219	81.6493	574.219	81.8576	574.219	81.2519	574.219	80.9883	574.219	81.0054	574.219	80.6444	574.219	80.5714	574.219	80.5944	574.219	79.6304	574.219	80.3836	574.219	77.9506	574.219	79.6378	574.219	75.6244	574.219	78.1297	574.219	74.2085	574.219	75.965	574.219	75.6057	574.219	74.5726	574.219	77.6675	574.219	75.7821	574.219	78.8224	574.219	77.7319	574.219	78.8392
594.727	86.6203	594.727	86.3975	594.727	86.6119	594.727	85.9294	594.727	86.3735	594.727	85.1992	594.727	85.8956	594.727	84.2129	594.727	85.1722	594.727	83.0514	594.727	84.2301	594.727	81.9374	594.727	83.1761	594.727	81.1958	594.727	82.2309	594.727	80.9436	594.727	81.633	594.727	80.8763	594.727	81.3801	594.727	80.5407	594.727	81.1575	594.727	79.6009	594.727	80.5656	594.727	77.9117	594.727	79.2765	594.727	75.8897	594.727	77.0961	594.727	75.4078	594.727	74.5894	594.727	77.1438	594.727	74.5864	594.727	79.0017	594.727	77.0342	594.727	80.0197	594.727	79.07	594.727	80.0569
615.234	86.472	615.234	86.3334	615.234	86.4251	615.234	85.9833	615.234	86.1907	615.234	85.3734	615.234	85.7436	615.234	84.4562	615.234	85.0495	615.234	83.2436	615.234	84.0945	615.234	81.9333	615.234	82.9464	615.234	81.0185	615.234	81.8489	615.234	80.8992	615.234	81.1999	615.234	81.2152	615.234	81.1475	615.234	81.2406	615.234	81.2963	615.234	80.4317	615.234	81.0844	615.234	78.3099	615.234	80.0682	615.234	74.1155	615.234	77.8199	615.234	68.8857	615.234	73.7905	615.234	73.2388	615.234	70.0811	615.234	77.1517	615.234	73.8083	615.234	78.8018	615.234	77.2516	615.234	78.8081
637.207	86.4385	637.207	86.3194	637.207	86.4129	637.207	86.0107	637.207	86.2357	637.207	85.4219	637.207	85.8508	637.207	84.428	637.207	85.1629	637.207	82.8943	637.207	84.059	637.207	80.778	637.207	82.4625	637.207	78.5874	637.207	80.5293	637.207	77.9784	637.207	79.1293	637.207	79.1597	637.207	79.3568	637.207	80.2404	637.207	80.4274	637.207	80.2633	637.207	81.0301	637.207	78.8118	637.207	80.5885	637.207	75.1397	637.207	78.7357	637.207	67.4976	637.207	74.846	637.207	70.8846	637.207	69.5493	637.207	76.3958	637.207	73.1529	637.207	78.6087	637.207	77.1552	637.207	78.8069
659.912	84.7926	659.912	84.6779	659.912	84.8158	659.912	84.4689	659.912	84.7415	659.912	84.1385	659.912	84.5515	659.912	83.6176	659.912	84.1965	659.912	82.7994	659.912	83.5861	659.912	81.5765	659.912	82.6049	659.912	79.9444	659.912	81.1772	659.912	78.2623	659.912	79.4498	659.912	77.4157	659.912	78.1384	659.912	77.6489	659.912	78.0631	659.912	77.9097	659.912	78.607	659.912	77.2591	659.912	78.6122	659.912	75.1018	659.912	77.4139	659.912	70.768	659.912	74.4586	659.912	66.986	659.912	69.1969	659.912	71.1195	659.912	68.2943	659.912	73.9332	659.912	72.5558	659.912	74.3803
683.35	84.8824	683.35	84.7888	683.35	84.8754	683.35	84.5853	683.35	84.7665	683.35	84.2335	683.35	84.5412	683.35	83.6446	683.35	84.149	683.35	82.6833	683.35	83.4859	683.35	81.2147	683.35	82.4077	683.35	79.2853	683.35	80.8024	683.35	77.6829	683.35	78.856	683.35	77.8107	683.35	77.648	683.35	79.0142	683.35	78.1993	683.35	79.7193	683.35	79.2771	683.35	79.2648	683.35	79.5798	683.35	77.2952	683.35	78.6055	683.35	73.3173	683.35	75.9832	683.35	68.8989	683.35	71.5017	683.35	71.813	683.35	70.0085	683.35	74.6419	683.35	73.4341	683.35	75.1396
706.787	84.9384	706.787	84.8664	706.787	84.9303	706.787	84.7411	706.787	84.8295	706.787	84.5546	706.787	84.64	706.787	84.2139	706.787	84.3419	706.787	83.5355	706.787	83.8447	706.787	82.2843	706.787	82.9792	706.787	80.2431	706.787	81.5365	706.787	77.5554	706.787	79.3967	706.787	75.9978	706.787	77.0811	706.787	77.0641	706.787	76.4989	706.787	78.2333	706.787	77.6515	706.787	78.0171	706.787	78.3428	706.787	75.9376	706.787	77.621	706.787	71.3751	706.787	75.036	706.787	67.9438	706.787	70.4759	706.787	72.537	706.787	70.18	706.787	75.2564	706.787	73.954	706.787	75.6651
731.689	84.4085	731.689	84.1855	731.689	84.4933	731.689	83.8869	731.689	84.4249	731.689	83.593	731.689	84.212	731.689	83.3106	731.689	83.8441	731.689	82.9017	731.689	83.2577	731.689	82.1249	731.689	82.3403	731.689	80.7581	731.689	80.9839	731.689	78.8176	731.689	79.2327	731.689	77.1188	731.689	77.615	731.689	77.0064	731.689	77.0746	731.689	77.6943	731.689	77.4142	731.689	77.6166	731.689	77.4116	731.689	76.0927	731.689	76.2284	731.689	72.862	731.689	73.2925	731.689	69.7944	731.689	68.8956	731.689	71.771	731.689	69.8595	731.689	74.1357	731.689	73.2963	731.689	74.6881
758.057	83.1417	758.057	82.965	758.057	83.205	758.057	82.7375	758.057	83.2019	758.057	82.5771	758.057	83.2347	758.057	82.4964	758.057	83.3232	758.057	82.279	758.057	83.297	758.057	81.535	758.057	82.8328	758.057	79.7897	758.057	81.5269	758.057	76.5219	758.057	78.8445	758.057	72.8091	758.057	74.1593	758.057	74.7819	758.057	72.1166	758.057	77.6391	758.057	76.4036	758.057	78.3645	758.057	78.7403	758.057	76.8717	758.057	78.82	758.057	72.7838	758.057	76.6276	758.057	68.9517	758.057	71.0052	758.057	72.8804	758.057	63.979	758.057	75.294	758.057	71.9815	758.057	75.106
784.424	83.856	784.424	83.5338	784.424	83.7849	784.424	82.938	784.424	83.3453	784.424	82.3713	784.424	82.7545	784.424	82.2345	784.424	82.4557	784.424	82.5686	784.424	82.7359	784.424	82.8718	784.424	83.2342	784.424	82.5377	784.424	83.2967	784.424	81.0484	784.424	82.3913	784.424	77.7678	784.424	79.9848	784.424	71.9686	784.424	75.1833	784.424	70.8935	784.424	69.7947	784.424	74.4267	784.424	74.0356	784.424	74.7214	784.424	76.318	784.424	71.7189	784.424	75.4296	784.424	68.6765	784.424	70.9532	784.424	73.1218	784.424	65.9023	784.424	75.7986	784.424	72.6206	784.424	75.7028
812.256	84.6603	812.256	84.3633	812.256	84.5421	812.256	83.6646	812.256	84.0081	812.256	82.6329	812.256	83.087	812.256	81.4863	812.256	81.9448	812.256	80.6272	812.256	81.048	812.256	80.295	812.256	80.892	812.256	80.138	812.256	81.1831	812.256	79.5356	812.256	81.0896	812.256	78.0637	812.256	79.959	812.256	75.8436	812.256	77.3596	812.256	74.4281	812.256	73.7003	812.256	74.8472	812.256	73.1353	812.256	74.8857	812.256	74.9504	812.256	73.0628	812.256	75.211	812.256	69.5163	812.256	73.5364	812.256	68.9137	812.256	70.6779	812.256	70.8962	812.256	69.8032	812.256	71.0298
840.82	84.4205	840.82	84.0097	840.82	84.4189	840.82	83.1908	840.82	83.9936	840.82	82.0078	840.82	83.1274	840.82	80.6671	840.82	81.8597	840.82	79.6661	840.82	80.4771	840.82	79.4335	840.82	79.6845	840.82	79.612	840.82	79.8691	840.82	79.4359	840.82	80.2918	840.82	78.3784	840.82	80.0814	840.82	76.2667	840.82	78.8109	840.82	73.7766	840.82	76.4262	840.82	72.7382	840.82	73.633	840.82	72.4645	840.82	71.9367	840.82	70.8172	840.82	70.7787	840.82	68.1769	840.82	68.9039	840.82	69.1553	840.82	68.5453	840.82	71.5026	840.82	70.7174	840.82	72.0547
870.85	84.2225	870.85	83.9028	870.85	84.1988	870.85	83.2182	870.85	83.8468	870.85	82.1636	870.85	83.1677	870.85	80.8106	870.85	82.1565	870.85	79.4302	870.85	80.855	870.85	78.5012	870.85	79.5015	870.85	78.1915	870.85	78.6208	870.85	78.0104	870.85	78.4467	870.85	77.4527	870.85	78.3879	870.85	76.4873	870.85	77.8055	870.85	75.483	870.85	76.6594	870.85	74.608	870.85	75.5941	870.85	73.3594	870.85	75.1002	870.85	71.091	870.85	74.387	870.85	68.3513	870.85	72.3502	870.85	68.7397	870.85	69.0168	870.85	70.6067	870.85	68.6725	870.85	70.6069
901.611	84.6057	901.611	84.3198	901.611	84.5937	901.611	83.7249	901.611	84.2834	901.611	82.8215	901.611	83.6584	901.611	81.6564	901.611	82.714	901.611	80.3686	901.611	81.5249	901.611	79.2166	901.611	80.3181	901.611	78.4171	901.611	79.3825	901.611	77.801	901.611	78.7177	901.611	76.9098	901.611	77.963	901.611	75.5597	901.611	76.8618	901.611	74.1995	901.611	75.6783	901.611	73.2741	901.611	74.9373	901.611	72.2608	901.611	74.3073	901.611	70.9274	901.611	72.8838	901.611	70.7367	901.611	70.9918	901.611	72.28	901.611	71.4438	901.611	73.8009	901.611	73.3946	901.611	74.2853
933.105	84.8596	933.105	84.6056	933.105	84.794	933.105	84.0246	933.105	84.3978	933.105	83.0746	933.105	83.6606	933.105	81.7077	933.105	82.5921	933.105	80.0184	933.105	81.2665	933.105	78.4858	933.105	79.9008	933.105	77.6854	933.105	78.8363	933.105	77.3148	933.105	78.211	933.105	76.7071	933.105	77.7382	933.105	75.8508	933.105	77.0696	933.105	75.1591	933.105	76.179	933.105	74.4321	933.105	75.33	933.105	72.6432	933.105	74.4411	933.105	68.7624	933.105	72.7265	933.105	67.4047	933.105	70.0059	933.105	71.9435	933.105	70.2278	933.105	74.4062	933.105	73.1476	933.105	74.7079
966.064	85.2745	966.064	84.9942	966.064	85.2665	966.064	84.4202	966.064	84.938	966.064	83.504	966.064	84.2344	966.064	82.1927	966.064	83.0985	966.064	80.5475	966.064	81.5352	966.064	78.9237	966.064	79.7717	966.064	77.8059	966.064	78.3344	966.064	77.0439	966.064	77.493	966.064	76.0759	966.064	76.8818	966.064	75.1298	966.064	76.3411	966.064	75.0921	966.064	76.1641	966.064	75.2451	966.064	76.1505	966.064	73.9582	966.064	75.5266	966.064	70.6504	966.064	73.7242	966.064	70.2847	966.064	71.1302	966.064	73.9902	966.064	71.409	966.064	75.9705	966.064	74.2734	966.064	76.0009
999.756	85.172	999.756	84.7916	999.756	85.1738	999.756	84.0716	999.756	84.7871	999.756	83.0565	999.756	84.0289	999.756	81.7608	999.756	82.9173	999.756	80.1851	999.756	81.4447	999.756	78.491	999.756	79.6122	999.756	77.1731	999.756	77.6494	999.756	76.4033	999.756	76.258	999.756	75.56	999.756	75.7101	999.756	74.8328	999.756	75.3075	999.756	75.6663	999.756	75.2972	999.756	76.9749	999.756	76.051	999.756	76.5411	999.756	76.0283	999.756	72.6945	999.756	73.7557	999.756	63.4422	999.756	68.2158	999.756	71.4748	999.756	67.6704	999.756	75.0653	999.756	72.8749	999.756	75.2079
1,034.91	85.0361	1,034.91	84.8214	1,034.91	84.9398	1,034.91	84.3002	1,034.91	84.5588	1,034.91	83.4804	1,034.91	83.9381	1,034.91	82.3198	1,034.91	83.092	1,034.91	80.7109	1,034.91	81.9484	1,034.91	78.6283	1,034.91	80.399	1,034.91	76.5333	1,034.91	78.5864	1,034.91	75.3179	1,034.91	77.0586	1,034.91	74.7288	1,034.91	75.7722	1,034.91	73.7924	1,034.91	73.8342	1,034.91	73.0126	1,034.91	71.5549	1,034.91	73.7705	1,034.91	71.7123	1,034.91	74.2774	1,034.91	73.2781	1,034.91	72.4691	1,034.91	73.3041	1,034.91	69.3734	1,034.91	70.6636	1,034.91	72.1545	1,034.91	68.6749	1,034.91	75.1648	1,034.91	73.1798	1,034.91	75.5858
1,071.53	84.4825	1,071.53	84.3577	1,071.53	84.3269	1,071.53	83.913	1,071.53	83.9802	1,071.53	83.1475	1,071.53	83.5196	1,071.53	82.0458	1,071.53	82.9218	1,071.53	80.5545	1,071.53	82.0508	1,071.53	78.6819	1,071.53	80.7446	1,071.53	76.6796	1,071.53	78.93	1,071.53	74.8449	1,071.53	76.7462	1,071.53	72.9029	1,071.53	74.5208	1,071.53	71.1053	1,071.53	72.2672	1,071.53	72.208	1,071.53	70.0025	1,071.53	74.3207	1,071.53	70.0604	1,071.53	74.3913	1,071.53	71.9929	1,071.53	71.4721	1,071.53	72.4098	1,071.53	64.7071	1,071.53	70.4548	1,071.53	67.7577	1,071.53	68.0443	1,071.53	72.0255	1,071.53	70.4838	1,071.53	72.648
1,109.62	84.051	1,109.62	83.9127	1,109.62	83.9562	1,109.62	83.5083	1,109.62	83.6902	1,109.62	82.8356	1,109.62	83.2725	1,109.62	81.8402	1,109.62	82.6306	1,109.62	80.3659	1,109.62	81.6398	1,109.62	78.3174	1,109.62	80.2449	1,109.62	76.1069	1,109.62	78.5901	1,109.62	74.7566	1,109.62	76.9919	1,109.62	74.1279	1,109.62	75.6157	1,109.62	72.704	1,109.62	74.1492	1,109.62	70.474	1,109.62	72.0751	1,109.62	70.8366	1,109.62	70.2828	1,109.62	72.2593	1,109.62	71.0956	1,109.62	71.6648	1,109.62	71.828	1,109.62	69.3945	1,109.62	70.053	1,109.62	69.7835	1,109.62	67.8563	1,109.62	72.2219	1,109.62	70.8812	1,109.62	72.8436
1,148.44	84.728	1,148.44	84.4393	1,148.44	84.7093	1,148.44	83.8554	1,148.44	84.3962	1,148.44	83.0153	1,148.44	83.8082	1,148.44	81.934	1,148.44	82.9331	1,148.44	80.5267	1,148.44	81.7049	1,148.44	78.7007	1,148.44	80.088	1,148.44	76.7829	1,148.44	78.282	1,148.44	75.5663	1,148.44	76.8054	1,148.44	74.4754	1,148.44	75.9418	1,148.44	71.9034	1,148.44	75.0665	1,148.44	68.9632	1,148.44	73.4143	1,148.44	70.7853	1,148.44	71.5404	1,148.44	72.2181	1,148.44	71.3168	1,148.44	70.8404	1,148.44	71.5942	1,148.44	68.0073	1,148.44	69.9749	1,148.44	70.0111	1,148.44	67.2352	1,148.44	72.8251	1,148.44	70.3344	1,148.44	73.0424
1,189.45	84.7896	1,189.45	84.4181	1,189.45	84.7872	1,189.45	83.7403	1,189.45	84.3916	1,189.45	82.8207	1,189.45	83.6526	1,189.45	81.6922	1,189.45	82.6672	1,189.45	80.3247	1,189.45	81.5365	1,189.45	78.6212	1,189.45	80.3254	1,189.45	76.6521	1,189.45	79.0558	1,189.45	75.0517	1,189.45	77.723	1,189.45	74.5324	1,189.45	76.4037	1,189.45	73.5552	1,189.45	75.1932	1,189.45	70.2985	1,189.45	73.6569	1,189.45	68.3098	1,189.45	71.5421	1,189.45	70.4652	1,189.45	70.4077	1,189.45	70.0939	1,189.45	70.112	1,189.45	66.6612	1,189.45	68.6516	1,189.45	66.831	1,189.45	68.173	1,189.45	70.2359	1,189.45	70.3148	1,189.45	71.3563
1,231.2	84.997	1,231.2	84.7519	1,231.2	84.8656	1,231.2	84.1095	1,231.2	84.3833	1,231.2	83.1079	1,231.2	83.5734	1,231.2	81.8643	1,231.2	82.5166	1,231.2	80.5041	1,231.2	81.3735	1,231.2	79.0406	1,231.2	80.2153	1,231.2	77.3184	1,231.2	78.8413	1,231.2	75.2111	1,231.2	77.0889	1,231.2	73.2513	1,231.2	75.4023	1,231.2	72.1062	1,231.2	74.1187	1,231.2	70.9273	1,231.2	72.5579	1,231.2	69.9455	1,231.2	70.8168	1,231.2	70.4363	1,231.2	70.6183	1,231.2	69.9316	1,231.2	71.0637	1,231.2	67.3675	1,231.2	69.3952	1,231.2	68.1774	1,231.2	65.5219	1,231.2	71.0871	1,231.2	68.6275	1,231.2	71.5105
1,274.41	84.6206	1,274.41	84.3961	1,274.41	84.5541	1,274.41	83.8598	1,274.41	84.2027	1,274.41	82.9997	1,274.41	83.5571	1,274.41	81.8415	1,274.41	82.622	1,274.41	80.4491	1,274.41	81.4308	1,274.41	78.8804	1,274.41	80.0114	1,274.41	77.1474	1,274.41	78.3515	1,274.41	75.438	1,274.41	76.4693	1,274.41	74.2305	1,274.41	74.659	1,274.41	72.8727	1,274.41	73.3332	1,274.41	70.0726	1,274.41	71.9611	1,274.41	68.1919	1,274.41	69.6024	1,274.41	69.8801	1,274.41	69.1466	1,274.41	70.0854	1,274.41	71.7308	1,274.41	67.9069	1,274.41	71.4906	1,274.41	67.633	1,274.41	69.1661	1,274.41	70.701	1,274.41	70.8359	1,274.41	72.1158
1,319.82	84.3929	1,319.82	84.1128	1,319.82	84.2471	1,319.82	83.3654	1,319.82	83.7156	1,319.82	82.1989	1,319.82	82.8496	1,319.82	80.8824	1,319.82	81.7248	1,319.82	79.7189	1,319.82	80.4126	1,319.82	78.5962	1,319.82	78.927	1,319.82	77.2148	1,319.82	77.21	1,319.82	75.5974	1,319.82	75.2169	1,319.82	73.6662	1,319.82	73.0882	1,319.82	71.684	1,319.82	71.607	1,319.82	70.2569	1,319.82	71.5497	1,319.82	68.723	1,319.82	71.3787	1,319.82	68.6011	1,319.82	70.3825	1,319.82	69.5212	1,319.82	70.5731	1,319.82	67.7781	1,319.82	69.8125	1,319.82	68.0031	1,319.82	65.7956	1,319.82	70.8218	1,319.82	67.2097	1,319.82	70.7541
1,365.97	84.0748	1,365.97	83.7023	1,365.97	84.0204	1,365.97	82.9198	1,365.97	83.536	1,365.97	81.787	1,365.97	82.6415	1,365.97	80.4522	1,365.97	81.3884	1,365.97	79.0852	1,365.97	79.869	1,365.97	77.6556	1,365.97	78.2126	1,365.97	75.9449	1,365.97	76.5339	1,365.97	74.0756	1,365.97	74.9109	1,365.97	72.6692	1,365.97	73.4274	1,365.97	71.7319	1,365.97	72.3158	1,365.97	70.5182	1,365.97	71.8903	1,365.97	69.9536	1,365.97	71.2415	1,365.97	70.6509	1,365.97	69.5609	1,365.97	70.1713	1,365.97	68.6392	1,365.97	66.9576	1,365.97	67.4112	1,365.97	66.2953	1,365.97	62.959	1,365.97	69.6283	1,365.97	64.0723	1,365.97	69.1221
1,414.31	83.4359	1,414.31	83.0507	1,414.31	83.4389	1,414.31	82.2678	1,414.31	83.04	1,414.31	81.1104	1,414.31	82.246	1,414.31	79.7417	1,414.31	81.1408	1,414.31	78.3629	1,414.31	79.7885	1,414.31	77.0088	1,414.31	78.1529	1,414.31	75.5419	1,414.31	76.297	1,414.31	73.9034	1,414.31	74.5472	1,414.31	72.2989	1,414.31	72.8822	1,414.31	70.9566	1,414.31	70.8092	1,414.31	69.2793	1,414.31	68.8502	1,414.31	67.0899	1,414.31	67.2323	1,414.31	68.1358	1,414.31	66.0664	1,414.31	69.2009	1,414.31	68.6453	1,414.31	66.6677	1,414.31	69.6921	1,414.31	64.33	1,414.31	66.7826	1,414.31	68.2758	1,414.31	65.3387	1,414.31	68.8266
1,464.11	83.4771	1,464.11	82.9475	1,464.11	83.4969	1,464.11	82.008	1,464.11	83.0351	1,464.11	80.8206	1,464.11	82.2006	1,464.11	79.4471	1,464.11	81.1071	1,464.11	77.8746	1,464.11	79.8364	1,464.11	76.206	1,464.11	78.4444	1,464.11	74.5319	1,464.11	77.0171	1,464.11	72.7464	1,464.11	75.5941	1,464.11	71.2211	1,464.11	74.0797	1,464.11	70.7284	1,464.11	72.254	1,464.11	69.9782	1,464.11	70.2768	1,464.11	67.6056	1,464.11	68.3294	1,464.11	66.6977	1,464.11	66.0299	1,464.11	68.2776	1,464.11	67.9747	1,464.11	66.8372	1,464.11	69.8415	1,464.11	63.2505	1,464.11	67.1276	1,464.11	67.0992	1,464.11	64.7482	1,464.11	68.2363
1,515.38	83.6243	1,515.38	83.1982	1,515.38	83.5093	1,515.38	82.3023	1,515.38	82.9696	1,515.38	81.149	1,515.38	82.1874	1,515.38	79.9053	1,515.38	81.1552	1,515.38	78.529	1,515.38	79.7614	1,515.38	76.8984	1,515.38	78.189	1,515.38	75.1216	1,515.38	76.8685	1,515.38	73.4637	1,515.38	76.0328	1,515.38	71.7844	1,515.38	75.2715	1,515.38	70.0446	1,515.38	73.6361	1,515.38	69.3134	1,515.38	71.147	1,515.38	68.2189	1,515.38	69.6323	1,515.38	66.9697	1,515.38	67.915	1,515.38	68.3004	1,515.38	67.191	1,515.38	65.9672	1,515.38	68.9727	1,515.38	63.8805	1,515.38	67.9892	1,515.38	68.6728	1,515.38	66.5469	1,515.38	68.9846
1,568.85	83.2999	1,568.85	82.9232	1,568.85	83.2519	1,568.85	82.2469	1,568.85	82.8526	1,568.85	81.4398	1,568.85	82.1553	1,568.85	80.4624	1,568.85	81.0161	1,568.85	79.0797	1,568.85	79.4791	1,568.85	77.0603	1,568.85	77.9795	1,568.85	74.8023	1,568.85	76.5214	1,568.85	73.7731	1,568.85	75.2276	1,568.85	73.4166	1,568.85	74.3889	1,568.85	71.7515	1,568.85	72.4497	1,568.85	69.3238	1,568.85	70.2212	1,568.85	67.8035	1,568.85	69.7866	1,568.85	68.0213	1,568.85	68.3483	1,568.85	69.0594	1,568.85	67.1526	1,568.85	67.6181	1,568.85	67.9701	1,568.85	60.5519	1,568.85	64.143	1,568.85	65.6609	1,568.85	65.1402	1,568.85	68.5033
1,624.51	83.0704	1,624.51	82.6805	1,624.51	82.8902	1,624.51	81.7696	1,624.51	82.3371	1,624.51	80.5701	1,624.51	81.5961	1,624.51	79.3355	1,624.51	80.58	1,624.51	78.2735	1,624.51	79.2774	1,624.51	77.1332	1,624.51	77.9835	1,624.51	75.0385	1,624.51	76.3573	1,624.51	72.5087	1,624.51	73.656	1,624.51	72.0521	1,624.51	71.6876	1,624.51	71.7531	1,624.51	70.5641	1,624.51	70.878	1,624.51	68.9124	1,624.51	69.6811	1,624.51	70.068	1,624.51	69.6269	1,624.51	70.0312	1,624.51	71.3572	1,624.51	69.527	1,624.51	69.5798	1,624.51	71.0913	1,624.51	62.4626	1,624.51	66.7992	1,624.51	65.496	1,624.51	61.559	1,624.51	67.8956
1,681.64	82.8944	1,681.64	82.4309	1,681.64	82.871	1,681.64	81.5101	1,681.64	82.4742	1,681.64	80.3536	1,681.64	81.813	1,681.64	79.3162	1,681.64	80.7831	1,681.64	78.5311	1,681.64	79.4401	1,681.64	77.3806	1,681.64	78.3759	1,681.64	74.8366	1,681.64	77.1952	1,681.64	71.8122	1,681.64	74.133	1,681.64	71.3185	1,681.64	69.97	1,681.64	71.1147	1,681.64	68.6739	1,681.64	71.5859	1,681.64	68.0517	1,681.64	71.3197	1,681.64	70.1705	1,681.64	69.0122	1,681.64	70.0389	1,681.64	71.1337	1,681.64	68.4198	1,681.64	70.5576	1,681.64	71.0347	1,681.64	65.3594	1,681.64	67.7346	1,681.64	68.4419	1,681.64	61.7997	1,681.64	69.4374
1,740.97	83.2979	1,740.97	83.0364	1,740.97	83.1953	1,740.97	82.456	1,740.97	82.8631	1,740.97	81.5343	1,740.97	82.498	1,740.97	80.2098	1,740.97	81.8193	1,740.97	78.9424	1,740.97	80.3838	1,740.97	78.0618	1,740.97	78.6707	1,740.97	76.1263	1,740.97	77.5465	1,740.97	72.4265	1,740.97	76.0821	1,740.97	71.4533	1,740.97	73.5002	1,740.97	70.8703	1,740.97	71.4253	1,740.97	68.5029	1,740.97	67.8365	1,740.97	69.4715	1,740.97	64.8126	1,740.97	66.4663	1,740.97	67.8667	1,740.97	67.9661	1,740.97	67.6698	1,740.97	68.9084	1,740.97	70.213	1,740.97	60.2676	1,740.97	68.5798	1,740.97	65.1816	1,740.97	57.8696	1,740.97	67.0891
1,802.49	84.216	1,802.49	84.1074	1,802.49	84.1091	1,802.49	83.6878	1,802.49	83.862	1,802.49	82.8632	1,802.49	83.2627	1,802.49	81.5092	1,802.49	82.0903	1,802.49	79.8146	1,802.49	80.5019	1,802.49	78.7284	1,802.49	79.1037	1,802.49	77.4544	1,802.49	78.4071	1,802.49	73.9816	1,802.49	77.191	1,802.49	71.1732	1,802.49	73.9373	1,802.49	71.7096	1,802.49	71.6907	1,802.49	69.7811	1,802.49	71.073	1,802.49	71.3761	1,802.49	69.4335	1,802.49	70.5574	1,802.49	69.4142	1,802.49	70.7385	1,802.49	68.4586	1,802.49	70.8828	1,802.49	71.1624	1,802.49	63.8107	1,802.49	69.2842	1,802.49	64.9202	1,802.49	60.9136	1,802.49	67.2254
1,866.21	84.5843	1,866.21	84.5147	1,866.21	84.3264	1,866.21	84.1594	1,866.21	83.9873	1,866.21	83.5817	1,866.21	83.4739	1,866.21	82.4394	1,866.21	82.3056	1,866.21	80.4328	1,866.21	80.5811	1,866.21	78.4677	1,866.21	78.7559	1,866.21	77.4784	1,866.21	77.1774	1,866.21	75.7791	1,866.21	75.5262	1,866.21	73.3056	1,866.21	72.746	1,866.21	72.227	1,866.21	71.6802	1,866.21	69.0036	1,866.21	70.8478	1,866.21	69.9043	1,866.21	67.0572	1,866.21	69.5538	1,866.21	67.9826	1,866.21	69.5696	1,866.21	64.5504	1,866.21	71.4967	1,866.21	67.4495	1,866.21	66.9915	1,866.21	67.4531	1,866.21	66.8761	1,866.21	60.3248	1,866.21	68.0392
1,932.13	83.9121	1,932.13	83.8088	1,932.13	83.9485	1,932.13	83.4083	1,932.13	83.8737	1,932.13	82.7935	1,932.13	83.2072	1,932.13	82.0646	1,932.13	82.0033	1,932.13	80.4381	1,932.13	80.9098	1,932.13	77.3177	1,932.13	79.2584	1,932.13	75.6579	1,932.13	76.3017	1,932.13	75.3906	1,932.13	74.6322	1,932.13	73.4432	1,932.13	73.1577	1,932.13	72.6457	1,932.13	70.1371	1,932.13	68.7108	1,932.13	70.8111	1,932.13	64.4895	1,932.13	67.3592	1,932.13	68.3576	1,932.13	67.3434	1,932.13	71.9192	1,932.13	69.5442	1,932.13	73.5593	1,932.13	71.9814	1,932.13	69.9688	1,932.13	71.9274	1,932.13	68.0286	1,932.13	62.5716	1,932.13	67.3369
2,000.24	84.9526	2,000.24	84.6855	2,000.24	85.1568	2,000.24	84.4735	2,000.24	84.7565	2,000.24	83.9778	2,000.24	83.7856	2,000.24	82.7488	2,000.24	83.0169	2,000.24	80.7432	2,000.24	82.324	2,000.24	78.4126	2,000.24	80.5805	2,000.24	76.4325	2,000.24	77.6654	2,000.24	75.7357	2,000.24	76.6832	2,000.24	72.1721	2,000.24	77.2123	2,000.24	68.511	2,000.24	74.4458	2,000.24	69.9326	2,000.24	72.8474	2,000.24	70.7556	2,000.24	70.7509	2,000.24	69.4025	2,000.24	66.9148	2,000.24	71.2252	2,000.24	68.2171	2,000.24	73.5541	2,000.24	71.6121	2,000.24	70.5018	2,000.24	73.9779	2,000.24	69.4988	2,000.24	67.82	2,000.24	67.565
2,070.56	85.8129	2,070.56	85.641	2,070.56	85.6626	2,070.56	85.2785	2,070.56	85.3229	2,070.56	84.5614	2,070.56	85.0838	2,070.56	83.4326	2,070.56	84.4228	2,070.56	82.2926	2,070.56	82.8034	2,070.56	80.667	2,070.56	81.209	2,070.56	77.9386	2,070.56	80.1967	2,070.56	76.2603	2,070.56	78.8181	2,070.56	74.3644	2,070.56	77.1432	2,070.56	69.4042	2,070.56	73.4096	2,070.56	70.6328	2,070.56	71.7556	2,070.56	70.2351	2,070.56	73.2629	2,070.56	68.8139	2,070.56	72.6945	2,070.56	67.6151	2,070.56	70.8924	2,070.56	70.6171	2,070.56	67.7431	2,070.56	67.4884	2,070.56	71.9319	2,070.56	69.0982	2,070.56	68.2067	2,070.56	68.6408
2,143.8	84.4957	2,143.8	84.6671	2,143.8	84.4554	2,143.8	84.6713	2,143.8	85.1311	2,143.8	84.7949	2,143.8	85.3187	2,143.8	84.1848	2,143.8	84.1398	2,143.8	82.3932	2,143.8	82.3895	2,143.8	80.2518	2,143.8	81.3453	2,143.8	78.0299	2,143.8	79.4664	2,143.8	76.5401	2,143.8	75.6532	2,143.8	75.074	2,143.8	74.2771	2,143.8	70.6304	2,143.8	73.484	2,143.8	67.7839	2,143.8	72.6466	2,143.8	66.2074	2,143.8	73.0346	2,143.8	67.7782	2,143.8	72.1798	2,143.8	69.4089	2,143.8	73.8344	2,143.8	70.4693	2,143.8	72.1858	2,143.8	68.1922	2,143.8	72.8194	2,143.8	69.9646	2,143.8	67.175	2,143.8	70.0968
2,219.24	83.3898	2,219.24	83.7529	2,219.24	84.3161	2,219.24	84.3951	2,219.24	84.456	2,219.24	83.9219	2,219.24	83.3184	2,219.24	82.7681	2,219.24	82.9608	2,219.24	81.0445	2,219.24	83.1233	2,219.24	79.7522	2,219.24	81.0382	2,219.24	78.5825	2,219.24	78.5467	2,219.24	76.7888	2,219.24	77.8724	2,219.24	75.6144	2,219.24	77.4554	2,219.24	71.8276	2,219.24	75.234	2,219.24	71.2915	2,219.24	64.8758	2,219.24	73.27	2,219.24	67.1196	2,219.24	71.0127	2,219.24	63.4442	2,219.24	68.4239	2,219.24	61.2397	2,219.24	71.528	2,219.24	61.59	2,219.24	70.3473	2,219.24	69.6154	2,219.24	71.845	2,219.24	68.37	2,219.24	71.2956
2,297.61	85.5551	2,297.61	85.485	2,297.61	85.8377	2,297.61	85.4681	2,297.61	86.015	2,297.61	84.6215	2,297.61	85.7194	2,297.61	83.3189	2,297.61	84.9104	2,297.61	82.2673	2,297.61	84.2288	2,297.61	80.1041	2,297.61	82.8853	2,297.61	76.3347	2,297.61	80.5923	2,297.61	72.8863	2,297.61	78.0382	2,297.61	74.5496	2,297.61	74.9693	2,297.61	73.0649	2,297.61	73.8403	2,297.61	67.4997	2,297.61	71.5895	2,297.61	65.3702	2,297.61	68.3615	2,297.61	68.5409	2,297.61	66.7845	2,297.61	67.9175	2,297.61	65.118	2,297.61	70.7769	2,297.61	67.9472	2,297.61	67.0964	2,297.61	68.612	2,297.61	67.113	2,297.61	64.0839	2,297.61	69.538
2,378.17	85.7028	2,378.17	85.9341	2,378.17	85.6329	2,378.17	85.5948	2,378.17	85.8063	2,378.17	84.8055	2,378.17	85.5925	2,378.17	84.5215	2,378.17	84.8719	2,378.17	83.2455	2,378.17	83.4502	2,378.17	79.7957	2,378.17	81.4433	2,378.17	78.0655	2,378.17	79.5906	2,378.17	76.3286	2,378.17	77.6526	2,378.17	71.4366	2,378.17	75.56	2,378.17	69.0848	2,378.17	75.301	2,378.17	68.2704	2,378.17	72.1706	2,378.17	69.8576	2,378.17	71.7935	2,378.17	68.0455	2,378.17	71.7443	2,378.17	63.3857	2,378.17	69.9316	2,378.17	64.1784	2,378.17	66.9034	2,378.17	64.8976	2,378.17	70.431	2,378.17	68.5727	2,378.17	64.0016	2,378.17	70.9465
2,462.4	84.3618	2,462.4	84.5924	2,462.4	84.4296	2,462.4	84.7975	2,462.4	84.6788	2,462.4	84.3129	2,462.4	84.5443	2,462.4	83.324	2,462.4	83.5586	2,462.4	82.1354	2,462.4	82.3242	2,462.4	79.9561	2,462.4	80.8316	2,462.4	77.6777	2,462.4	78.3833	2,462.4	75.717	2,462.4	76.1815	2,462.4	73.6849	2,462.4	74.0202	2,462.4	71.8688	2,462.4	71.9853	2,462.4	68.6926	2,462.4	69.8433	2,462.4	68.6711	2,462.4	68.6394	2,462.4	67.6319	2,462.4	67.9898	2,462.4	66.9863	2,462.4	68.8632	2,462.4	68.1818	2,462.4	66.0126	2,462.4	65.7749	2,462.4	68.9471	2,462.4	68.1921	2,462.4	62.7	2,462.4	68.9616
2,548.83	84.2711	2,548.83	84.4392	2,548.83	84.272	2,548.83	84.4952	2,548.83	84.3832	2,548.83	83.9588	2,548.83	84.4211	2,548.83	82.5754	2,548.83	83.7651	2,548.83	81.0379	2,548.83	82.1997	2,548.83	79.1206	2,548.83	80.548	2,548.83	76.66	2,548.83	78.4996	2,548.83	74.3667	2,548.83	76.1128	2,548.83	71.8741	2,548.83	74.0031	2,548.83	71.3468	2,548.83	72.1756	2,548.83	69.0047	2,548.83	70.1744	2,548.83	67.8044	2,548.83	67.8185	2,548.83	66.4184	2,548.83	67.8494	2,548.83	65.899	2,548.83	67.5125	2,548.83	67.2134	2,548.83	67.1396	2,548.83	65.6323	2,548.83	68.0156	2,548.83	67.4549	2,548.83	64.4547	2,548.83	67.1391
2,638.92	84.5517	2,638.92	84.7123	2,638.92	84.5866	2,638.92	84.7063	2,638.92	84.7307	2,638.92	84.2014	2,638.92	84.6089	2,638.92	82.7795	2,638.92	83.8576	2,638.92	80.8594	2,638.92	82.1417	2,638.92	79.017	2,638.92	80.2909	2,638.92	76.7905	2,638.92	78.5672	2,638.92	74.3163	2,638.92	76.3564	2,638.92	71.4266	2,638.92	74.0966	2,638.92	70.1321	2,638.92	71.816	2,638.92	67.9858	2,638.92	70.0969	2,638.92	68.0575	2,638.92	68.1757	2,638.92	65.8994	2,638.92	68.4191	2,638.92	65.5949	2,638.92	66.6074	2,638.92	65.2051	2,638.92	66.1134	2,638.92	64.5623	2,638.92	68.2978	2,638.92	68.1909	2,638.92	65.9505	2,638.92	68.8797
2,731.93	84.3118	2,731.93	84.523	2,731.93	84.3927	2,731.93	84.4192	2,731.93	84.658	2,731.93	83.7863	2,731.93	84.3721	2,731.93	82.493	2,731.93	83.4398	2,731.93	80.568	2,731.93	81.8913	2,731.93	78.5662	2,731.93	79.9913	2,731.93	76.5006	2,731.93	78.0843	2,731.93	74.6413	2,731.93	76.0798	2,731.93	72.2013	2,731.93	73.7863	2,731.93	70.3897	2,731.93	71.5356	2,731.93	68.1497	2,731.93	70.626	2,731.93	66.9686	2,731.93	67.297	2,731.93	64.1544	2,731.93	67.851	2,731.93	65.8396	2,731.93	64.6923	2,731.93	65.9816	2,731.93	65.2696	2,731.93	66.0526	2,731.93	66.4691	2,731.93	66.2245	2,731.93	65.5096	2,731.93	68.2676
2,828.61	84.592	2,828.61	84.7753	2,828.61	84.7446	2,828.61	84.7297	2,828.61	85.0278	2,828.61	83.8766	2,828.61	84.69	2,828.61	82.3279	2,828.61	83.684	2,828.61	80.3634	2,828.61	82.3114	2,828.61	78.5376	2,828.61	80.5612	2,828.61	76.4361	2,828.61	78.7182	2,828.61	74.214	2,828.61	76.7603	2,828.61	71.8642	2,828.61	74.9881	2,828.61	70.2814	2,828.61	72.3828	2,828.61	67.9953	2,828.61	71.0601	2,828.61	67.3999	2,828.61	68.4758	2,828.61	65.4595	2,828.61	67.9481	2,828.61	64.4359	2,828.61	65.9672	2,828.61	65.4407	2,828.61	65.2205	2,828.61	64.9587	2,828.61	67.0467	2,828.61	66.9283	2,828.61	65.5319	2,828.61	67.7247
2,928.22	84.4127	2,928.22	84.4651	2,928.22	84.435	2,928.22	84.2815	2,928.22	84.4858	2,928.22	83.5222	2,928.22	84.0198	2,928.22	82.1372	2,928.22	82.9208	2,928.22	80.701	2,928.22	81.6773	2,928.22	79.2507	2,928.22	80.3137	2,928.22	76.9947	2,928.22	78.5912	2,928.22	74.8517	2,928.22	76.4278	2,928.22	72.9445	2,928.22	74.576	2,928.22	70.959	2,928.22	72.3172	2,928.22	68.984	2,928.22	71.341	2,928.22	66.903	2,928.22	69.0051	2,928.22	64.8216	2,928.22	67.8274	2,928.22	64.7938	2,928.22	66.1374	2,928.22	64.6417	2,928.22	66.2341	2,928.22	65.6184	2,928.22	66.6927	2,928.22	64.8968	2,928.22	64.6574	2,928.22	68.55
3,031.49	83.6708	3,031.49	83.7235	3,031.49	83.7186	3,031.49	83.5436	3,031.49	83.8369	3,031.49	82.8559	3,031.49	83.5737	3,031.49	81.6247	3,031.49	82.7395	3,031.49	80.1489	3,031.49	81.6141	3,031.49	78.5702	3,031.49	80.3124	3,031.49	76.4409	3,031.49	78.8694	3,031.49	74.3381	3,031.49	76.7723	3,031.49	72.5701	3,031.49	74.4633	3,031.49	70.9507	3,031.49	71.9791	3,031.49	69.425	3,031.49	70.2281	3,031.49	67.0468	3,031.49	69.1627	3,031.49	62.9453	3,031.49	67.0332	3,031.49	64.573	3,031.49	64.1801	3,031.49	65.3824	3,031.49	65.339	3,031.49	65.9372	3,031.49	66.044	3,031.49	66.7183	3,031.49	65.0545	3,031.49	67.3279
3,138.43	84.1692	3,138.43	84.1189	3,138.43	84.1834	3,138.43	83.7776	3,138.43	84.1373	3,138.43	82.9436	3,138.43	83.6708	3,138.43	81.8619	3,138.43	82.9883	3,138.43	80.3062	3,138.43	82.06	3,138.43	78.6974	3,138.43	80.6209	3,138.43	76.8764	3,138.43	79.3611	3,138.43	74.0314	3,138.43	77.4495	3,138.43	71.6396	3,138.43	74.9405	3,138.43	68.8436	3,138.43	72.5419	3,138.43	68.0565	3,138.43	70.3576	3,138.43	67.7843	3,138.43	69.4309	3,138.43	65.2524	3,138.43	67.5889	3,138.43	61.0037	3,138.43	64.6383	3,138.43	64.8291	3,138.43	65.8851	3,138.43	65.44	3,138.43	66.8228	3,138.43	65.1242	3,138.43	65.1989	3,138.43	66.3155
3,249.02	84.2292	3,249.02	83.9931	3,249.02	84.2583	3,249.02	83.5793	3,249.02	84.0905	3,249.02	82.7773	3,249.02	83.5574	3,249.02	82.0017	3,249.02	82.9017	3,249.02	81.1273	3,249.02	82.4582	3,249.02	79.0205	3,249.02	81.0726	3,249.02	77.1657	3,249.02	79.2193	3,249.02	74.9988	3,249.02	77.485	3,249.02	72.3798	3,249.02	74.9317	3,249.02	69.6637	3,249.02	72.6164	3,249.02	68.1126	3,249.02	70.8853	3,249.02	66.7078	3,249.02	69.3892	3,249.02	65.505	3,249.02	67.8129	3,249.02	61.3429	3,249.02	63.9679	3,249.02	63.2049	3,249.02	63.7396	3,249.02	65.3123	3,249.02	67.0733	3,249.02	62.3293	3,249.02	66.0742	3,249.02	66.51
3,363.28	83.8879	3,363.28	83.4837	3,363.28	83.9203	3,363.28	82.7849	3,363.28	83.3431	3,363.28	82.2852	3,363.28	82.9493	3,363.28	81.9114	3,363.28	82.5514	3,363.28	81.1587	3,363.28	81.6834	3,363.28	78.8137	3,363.28	80.6364	3,363.28	76.5471	3,363.28	78.6185	3,363.28	74.5871	3,363.28	76.3024	3,363.28	72.362	3,363.28	73.6986	3,363.28	69.4462	3,363.28	72.0226	3,363.28	68.6634	3,363.28	69.1856	3,363.28	65.7338	3,363.28	68.588	3,363.28	66.8169	3,363.28	65.8694	3,363.28	57.7586	3,363.28	64.4606	3,363.28	62.3588	3,363.28	61.8338	3,363.28	65.8472	3,363.28	63.8988	3,363.28	64.141	3,363.28	65.7357	3,363.28	66.3458
3,481.93	83.9722	3,481.93	83.1917	3,481.93	84.1046	3,481.93	82.5365	3,481.93	83.5393	3,481.93	82.225	3,481.93	83.0961	3,481.93	81.3875	3,481.93	82.9035	3,481.93	80.1286	3,481.93	82.2985	3,481.93	78.2529	3,481.93	81.2087	3,481.93	75.5959	3,481.93	78.9029	3,481.93	73.1381	3,481.93	76.76	3,481.93	71.0674	3,481.93	74.1934	3,481.93	68.5315	3,481.93	71.4156	3,481.93	66.5143	3,481.93	69.6669	3,481.93	64.8504	3,481.93	68.9805	3,481.93	64.3028	3,481.93	66.2526	3,481.93	59.0667	3,481.93	65.6888	3,481.93	62.1056	3,481.93	61.1306	3,481.93	64.1141	3,481.93	62.3947	3,481.93	62.0129	3,481.93	65.1547	3,481.93	64.2651
3,604.98	84.1187	3,604.98	83.6179	3,604.98	83.9781	3,604.98	82.7911	3,604.98	83.211	3,604.98	82.4668	3,604.98	82.9551	3,604.98	81.947	3,604.98	82.7295	3,604.98	80.8045	3,604.98	81.898	3,604.98	78.7263	3,604.98	80.4628	3,604.98	75.8768	3,604.98	78.6178	3,604.98	73.8414	3,604.98	76.2521	3,604.98	71.0576	3,604.98	73.2042	3,604.98	68.6094	3,604.98	70.9825	3,604.98	65.9922	3,604.98	68.7772	3,604.98	63.7948	3,604.98	67.8949	3,604.98	63.1067	3,604.98	64.7606	3,604.98	58.575	3,604.98	64.498	3,604.98	60.6581	3,604.98	60.3955	3,604.98	62.9105	3,604.98	61.0917	3,604.98	54.5409	3,604.98	64.0497	3,604.98	61.7941
3,732.42	83.9258	3,732.42	83.3507	3,732.42	83.9136	3,732.42	82.3639	3,732.42	83.3157	3,732.42	82.1495	3,732.42	82.8291	3,732.42	81.9019	3,732.42	82.4959	3,732.42	80.1742	3,732.42	81.7842	3,732.42	78.2371	3,732.42	80.5994	3,732.42	75.457	3,732.42	78.4019	3,732.42	73.17	3,732.42	75.6575	3,732.42	70.2244	3,732.42	73.1227	3,732.42	68.4701	3,732.42	70.3959	3,732.42	66.4462	3,732.42	68.3016	3,732.42	63.2327	3,732.42	66.7244	3,732.42	63.9356	3,732.42	65.1716	3,732.42	56.8074	3,732.42	64.2198	3,732.42	58.0847	3,732.42	61.0276	3,732.42	64.557	3,732.42	59.939	3,732.42	61.1926	3,732.42	64.0682	3,732.42	63.8572
3,863.53	84.2349	3,863.53	83.0544	3,863.53	84.178	3,863.53	82.2284	3,863.53	83.1785	3,863.53	82.1887	3,863.53	82.5704	3,863.53	81.6109	3,863.53	82.4801	3,863.53	80.0776	3,863.53	81.8126	3,863.53	77.8417	3,863.53	80.384	3,863.53	75.1577	3,863.53	77.8344	3,863.53	72.8947	3,863.53	75.3385	3,863.53	70.1239	3,863.53	72.4473	3,863.53	68.1089	3,863.53	69.9723	3,863.53	65.3887	3,863.53	68.2164	3,863.53	64.7156	3,863.53	65.9865	3,863.53	62.2248	3,863.53	64.2912	3,863.53	59.6791	3,863.53	62.8066	3,863.53	55.3191	3,863.53	60.176	3,863.53	61.7236	3,863.53	58.0674	3,863.53	60.351	3,863.53	62.7814	3,863.53	60.6413
3,999.76	84.202	3,999.76	83.2264	3,999.76	84.1608	3,999.76	82.5286	3,999.76	83.3773	3,999.76	82.5984	3,999.76	83.1749	3,999.76	81.9422	3,999.76	83.3008	3,999.76	80.2116	3,999.76	82.4765	3,999.76	77.5006	3,999.76	80.545	3,999.76	74.2669	3,999.76	78.2563	3,999.76	72.1524	3,999.76	75.9497	3,999.76	69.3881	3,999.76	73.1878	3,999.76	67.548	3,999.76	70.2614	3,999.76	64.9573	3,999.76	69.081	3,999.76	62.0566	3,999.76	66.5279	3,999.76	60.4522	3,999.76	64.6597	3,999.76	58.0335	3,999.76	63.8488	3,999.76	57.6384	3,999.76	57.2005	3,999.76	60.4797	3,999.76	59.179	3,999.76	56.6036	3,999.76	62.6761	3,999.76	62.9576
4,141.11	83.9564	4,141.11	83.0407	4,141.11	83.7102	4,141.11	82.7586	4,141.11	82.965	4,141.11	82.8814	4,141.11	82.861	4,141.11	82.4217	4,141.11	82.7688	4,141.11	80.4617	4,141.11	81.7599	4,141.11	78.4782	4,141.11	80.1196	4,141.11	76.5766	4,141.11	77.8084	4,141.11	73.6412	4,141.11	75.0565	4,141.11	71.1196	4,141.11	72.6371	4,141.11	67.9369	4,141.11	69.9667	4,141.11	65.8563	4,141.11	67.4494	4,141.11	62.7212	4,141.11	65.6637	4,141.11	60.9544	4,141.11	62.9106	4,141.11	55.9069	4,141.11	63.7423	4,141.11	58.5574	4,141.11	60.4048	4,141.11	60.4357	4,141.11	57.5011	4,141.11	57.1819	4,141.11	58.6839	4,141.11	62.5145
4,286.87	84.5843	4,286.87	83.8126	4,286.87	84.467	4,286.87	83.3847	4,286.87	83.9263	4,286.87	83.1603	4,286.87	83.732	4,286.87	82.0926	4,286.87	83.8231	4,286.87	80.137	4,286.87	83.0304	4,286.87	77.3118	4,286.87	80.9461	4,286.87	74.3328	4,286.87	78.806	4,286.87	72.2733	4,286.87	76.5604	4,286.87	69.9446	4,286.87	73.3892	4,286.87	68.3322	4,286.87	71.0242	4,286.87	66.4662	4,286.87	69.1798	4,286.87	66.4157	4,286.87	66.9154	4,286.87	62.5205	4,286.87	63.9361	4,286.87	61.737	4,286.87	60.9437	4,286.87	55.8885	4,286.87	57.0642	4,286.87	61.3371	4,286.87	59.3538	4,286.87	55.0993	4,286.87	60.8907	4,286.87	58.9103
4,438.48	84.2391	4,438.48	83.3619	4,438.48	84.2096	4,438.48	83.4939	4,438.48	83.7091	4,438.48	83.6015	4,438.48	83.763	4,438.48	82.8652	4,438.48	83.6662	4,438.48	81.0463	4,438.48	82.4066	4,438.48	79.0824	4,438.48	80.8728	4,438.48	77.2516	4,438.48	79.0383	4,438.48	74.1848	4,438.48	76.2196	4,438.48	71.7613	4,438.48	73.3391	4,438.48	68.0611	4,438.48	71.0683	4,438.48	65.6438	4,438.48	69.2113	4,438.48	61.8794	4,438.48	66.7824	4,438.48	60.0784	4,438.48	64.4438	4,438.48	58.4158	4,438.48	64.1271	4,438.48	60.8691	4,438.48	60.041	4,438.48	59.2113	4,438.48	60.0433	4,438.48	56.1908	4,438.48	61.1267	4,438.48	62.7059
4,594.48	84.8287	4,594.48	84.0673	4,594.48	84.6183	4,594.48	84.0745	4,594.48	84.2659	4,594.48	83.9249	4,594.48	84.4927	4,594.48	82.8252	4,594.48	84.3075	4,594.48	81.2971	4,594.48	83.2123	4,594.48	79.0543	4,594.48	81.8163	4,594.48	75.5013	4,594.48	79.3892	4,594.48	73.1049	4,594.48	76.5662	4,594.48	70.94	4,594.48	73.6719	4,594.48	69.2167	4,594.48	70.9205	4,594.48	68.1314	4,594.48	69.0783	4,594.48	65.8595	4,594.48	66.7286	4,594.48	62.59	4,594.48	64.2205	4,594.48	61.7879	4,594.48	62.4179	4,594.48	60.2243	4,594.48	57.5785	4,594.48	59.7533	4,594.48	61.7643	4,594.48	57.3745	4,594.48	60.128	4,594.48	59.5351
4,757.08	84.0949	4,757.08	83.9926	4,757.08	84.1719	4,757.08	84.2039	4,757.08	84.49	4,757.08	83.6362	4,757.08	84.6639	4,757.08	82.7355	4,757.08	84.1326	4,757.08	81.414	4,757.08	83.1699	4,757.08	79.3429	4,757.08	81.7161	4,757.08	77.583	4,757.08	79.8711	4,757.08	75.271	4,757.08	77.0874	4,757.08	72.1099	4,757.08	74.2651	4,757.08	68.4286	4,757.08	71.9635	4,757.08	66.5834	4,757.08	69.1715	4,757.08	64.4133	4,757.08	67.4066	4,757.08	61.0842	4,757.08	64.9396	4,757.08	60.8751	4,757.08	63.6443	4,757.08	57.5125	4,757.08	61.6925	4,757.08	57.4774	4,757.08	60.5141	4,757.08	55.2936	4,757.08	60.2958	4,757.08	61.2991
4,924.8	84.0973	4,924.8	84.2138	4,924.8	84.0463	4,924.8	84.3491	4,924.8	84.2085	4,924.8	83.8999	4,924.8	84.3527	4,924.8	82.9078	4,924.8	83.9953	4,924.8	81.8421	4,924.8	83.1344	4,924.8	79.6336	4,924.8	82.003	4,924.8	76.2969	4,924.8	79.4654	4,924.8	72.5228	4,924.8	76.0423	4,924.8	71.0808	4,924.8	73.6571	4,924.8	68.4226	4,924.8	70.7169	4,924.8	66.024	4,924.8	68.6349	4,924.8	64.8323	4,924.8	66.2731	4,924.8	62.0358	4,924.8	65.3762	4,924.8	62.1807	4,924.8	60.8981	4,924.8	58.9131	4,924.8	61.1693	4,924.8	58.4355	4,924.8	61.1901	4,924.8	59.2676	4,924.8	58.6812	4,924.8	59.8906
5,098.39	83.9862	5,098.39	84.2605	5,098.39	84.1058	5,098.39	84.223	5,098.39	84.7012	5,098.39	83.5471	5,098.39	84.7436	5,098.39	82.4769	5,098.39	84.5099	5,098.39	81.2981	5,098.39	83.8011	5,098.39	78.9343	5,098.39	82.1667	5,098.39	76.8239	5,098.39	79.8463	5,098.39	74.5658	5,098.39	77.3373	5,098.39	71.6093	5,098.39	74.3545	5,098.39	68.4857	5,098.39	71.6462	5,098.39	67.0465	5,098.39	68.6659	5,098.39	64.0953	5,098.39	68.0033	5,098.39	62.2627	5,098.39	64.4712	5,098.39	62.9963	5,098.39	62.411	5,098.39	53.9838	5,098.39	62.3552	5,098.39	54.6447	5,098.39	59.5155	5,098.39	56.4762	5,098.39	60.1759	5,098.39	59.5129
5,277.83	83.0866	5,277.83	83.4014	5,277.83	83.1944	5,277.83	83.494	5,277.83	83.6252	5,277.83	83.0464	5,277.83	83.569	5,277.83	82.6724	5,277.83	83.3334	5,277.83	81.8187	5,277.83	82.6106	5,277.83	79.6182	5,277.83	81.2277	5,277.83	76.4186	5,277.83	78.9375	5,277.83	72.9449	5,277.83	75.6185	5,277.83	69.5563	5,277.83	73.1347	5,277.83	66.4144	5,277.83	70.103	5,277.83	65.1673	5,277.83	67.2846	5,277.83	62.2873	5,277.83	66.2384	5,277.83	59.4067	5,277.83	64.415	5,277.83	61.3848	5,277.83	60.6931	5,277.83	57.5247	5,277.83	61.8405	5,277.83	54.8731	5,277.83	57.4269	5,277.83	55.6844	5,277.83	57.8585	5,277.83	57.7664
5,463.87	82.926	5,463.87	83.6245	5,463.87	83.0643	5,463.87	83.3359	5,463.87	83.7268	5,463.87	82.6775	5,463.87	83.7065	5,463.87	82.0052	5,463.87	83.2978	5,463.87	80.4836	5,463.87	82.7195	5,463.87	77.1856	5,463.87	81.039	5,463.87	74.5859	5,463.87	78.3112	5,463.87	71.2158	5,463.87	75.425	5,463.87	69.3126	5,463.87	72.5485	5,463.87	66.8886	5,463.87	70.1093	5,463.87	66.2912	5,463.87	68.5737	5,463.87	62.7636	5,463.87	66.215	5,463.87	63.2752	5,463.87	63.1247	5,463.87	62.9147	5,463.87	61.5653	5,463.87	57.457	5,463.87	63.0074	5,463.87	52.3621	5,463.87	58.3767	5,463.87	56.1444	5,463.87	58.1906	5,463.87	57.6145
5,656.49	81.6844	5,656.49	82.4825	5,656.49	82.0547	5,656.49	82.2968	5,656.49	82.9306	5,656.49	81.7277	5,656.49	82.8523	5,656.49	81.3464	5,656.49	82.9332	5,656.49	79.8777	5,656.49	82.1307	5,656.49	77.7557	5,656.49	80.359	5,656.49	74.9743	5,656.49	77.9264	5,656.49	73.0065	5,656.49	74.8951	5,656.49	69.3968	5,656.49	72.4877	5,656.49	66.5142	5,656.49	69.2735	5,656.49	62.5304	5,656.49	67.0663	5,656.49	61.1026	5,656.49	66.4637	5,656.49	60.8123	5,656.49	63.8298	5,656.49	61.3314	5,656.49	62.2731	5,656.49	55.7277	5,656.49	62.3602	5,656.49	49.1657	5,656.49	57.2544	5,656.49	52.119	5,656.49	56.3718	5,656.49	55.3676
5,856.45	80.8493	5,856.45	81.5276	5,856.45	81.0176	5,856.45	81.787	5,856.45	81.9576	5,856.45	81.8023	5,856.45	82.1511	5,856.45	81.4945	5,856.45	82.2111	5,856.45	80.134	5,856.45	81.6035	5,856.45	77.8654	5,856.45	80.1295	5,856.45	75.1939	5,856.45	77.6188	5,856.45	71.3161	5,856.45	74.5844	5,856.45	67.6536	5,856.45	71.9266	5,856.45	65.6159	5,856.45	68.9349	5,856.45	63.849	5,856.45	66.8508	5,856.45	63.2134	5,856.45	64.9536	5,856.45	62.7627	5,856.45	63.6726	5,856.45	61.9818	5,856.45	61.9829	5,856.45	58.1455	5,856.45	62.1716	5,856.45	48.5006	5,856.45	56.6426	5,856.45	54.1104	5,856.45	57.1124	5,856.45	53.5237
6,062.99	80.0815	6,062.99	81.4359	6,062.99	80.3465	6,062.99	81.7394	6,062.99	81.392	6,062.99	81.9659	6,062.99	81.6268	6,062.99	81.5943	6,062.99	81.6655	6,062.99	79.7037	6,062.99	80.9175	6,062.99	77.064	6,062.99	79.0738	6,062.99	73.7674	6,062.99	76.4916	6,062.99	69.9956	6,062.99	73.0924	6,062.99	67.4659	6,062.99	70.16	6,062.99	65.6778	6,062.99	66.783	6,062.99	64.0448	6,062.99	64.4375	6,062.99	62.301	6,062.99	63.5604	6,062.99	61.7016	6,062.99	61.6063	6,062.99	60.0601	6,062.99	60.889	6,062.99	57.1286	6,062.99	60.2305	6,062.99	49.2143	6,062.99	56.547	6,062.99	52.2798	6,062.99	53.326	6,062.99	52.9691
6,276.86	81.5603	6,276.86	81.9852	6,276.86	81.7433	6,276.86	82.0529	6,276.86	82.1475	6,276.86	81.7955	6,276.86	82.2404	6,276.86	80.9049	6,276.86	82.0763	6,276.86	78.8135	6,276.86	81.0307	6,276.86	76.5235	6,276.86	79.2175	6,276.86	73.944	6,276.86	76.8243	6,276.86	71.6763	6,276.86	73.8084	6,276.86	68.7361	6,276.86	70.9939	6,276.86	66.2494	6,276.86	67.7325	6,276.86	62.3161	6,276.86	65.3655	6,276.86	61.0388	6,276.86	63.0873	6,276.86	61.362	6,276.86	61.5407	6,276.86	59.8168	6,276.86	61.4427	6,276.86	56.6784	6,276.86	61.574	6,276.86	50.6463	6,276.86	55.711	6,276.86	53.4354	6,276.86	53.6135	6,276.86	50.9802
6,498.05	81.5654	6,498.05	81.7708	6,498.05	81.877	6,498.05	81.8077	6,498.05	82.0399	6,498.05	81.6125	6,498.05	82.1551	6,498.05	81.0971	6,498.05	81.8623	6,498.05	80.1095	6,498.05	81.2842	6,498.05	78.5334	6,498.05	80.2993	6,498.05	76.0717	6,498.05	78.0139	6,498.05	72.9224	6,498.05	75.131	6,498.05	69.2369	6,498.05	72.094	6,498.05	66.5576	6,498.05	68.8666	6,498.05	62.1178	6,498.05	66.2766	6,498.05	62.1313	6,498.05	62.019	6,498.05	61.9688	6,498.05	64.0204	6,498.05	61.7244	6,498.05	62.4104	6,498.05	57.7557	6,498.05	61.2524	6,498.05	46.8084	6,498.05	56.2372	6,498.05	50.7375	6,498.05	52.0978	6,498.05	50.8699
6,727.29	80.3315	6,727.29	80.9335	6,727.29	80.3749	6,727.29	81.4179	6,727.29	81.0813	6,727.29	81.7469	6,727.29	81.5798	6,727.29	81.8986	6,727.29	81.9586	6,727.29	81.2182	6,727.29	81.8368	6,727.29	79.8434	6,727.29	81.274	6,727.29	76.4267	6,727.29	79.4755	6,727.29	72.3028	6,727.29	76.7277	6,727.29	69.6335	6,727.29	73.2859	6,727.29	67.0257	6,727.29	70.0088	6,727.29	64.3484	6,727.29	67.4056	6,727.29	64.7223	6,727.29	63.5826	6,727.29	63.4804	6,727.29	63.0813	6,727.29	61.8419	6,727.29	62.6002	6,727.29	57.7572	6,727.29	61.8322	6,727.29	50.8191	6,727.29	58.7601	6,727.29	55.4043	6,727.29	55.053	6,727.29	52.626
6,964.6	79.6194	6,964.6	79.1998	6,964.6	79.7637	6,964.6	81.0601	6,964.6	79.6608	6,964.6	81.4968	6,964.6	81.6266	6,964.6	81.8635	6,964.6	82.1472	6,964.6	81.8592	6,964.6	82.6392	6,964.6	80.236	6,964.6	82.4494	6,964.6	77.3128	6,964.6	80.674	6,964.6	74.114	6,964.6	77.6552	6,964.6	70.9133	6,964.6	74.0018	6,964.6	68.0687	6,964.6	70.5322	6,964.6	64.3312	6,964.6	68.5312	6,964.6	62.5627	6,964.6	66.0934	6,964.6	62.1995	6,964.6	64.4996	6,964.6	61.4824	6,964.6	63.6837	6,964.6	59.6644	6,964.6	62.091	6,964.6	47.8457	6,964.6	59.2937	6,964.6	53.642	6,964.6	54.9609	6,964.6	53.7073
7,209.96	81.1406	7,209.96	80.9371	7,209.96	81.2764	7,209.96	81.3341	7,209.96	81.5005	7,209.96	81.0764	7,209.96	82.1924	7,209.96	81.5923	7,209.96	82.5738	7,209.96	81.4313	7,209.96	83.1792	7,209.96	79.7896	7,209.96	82.7894	7,209.96	76.5897	7,209.96	80.7481	7,209.96	73.4159	7,209.96	77.6781	7,209.96	69.7406	7,209.96	74.0085	7,209.96	66.843	7,209.96	70.9454	7,209.96	62.5403	7,209.96	68.2408	7,209.96	62.2768	7,209.96	63.4455	7,209.96	62.1871	7,209.96	65.9489	7,209.96	61.4186	7,209.96	64.024	7,209.96	58.1517	7,209.96	61.01	7,209.96	46.2355	7,209.96	57.4772	7,209.96	51.7455	7,209.96	55.9554	7,209.96	51.8094
7,464.11	82.3055	7,464.11	81.644	7,464.11	82.727	7,464.11	81.0211	7,464.11	82.0561	7,464.11	80.1598	7,464.11	82.693	7,464.11	79.8415	7,464.11	82.5723	7,464.11	79.5626	7,464.11	82.5819	7,464.11	78.0856	7,464.11	81.8469	7,464.11	75.016	7,464.11	79.5961	7,464.11	70.9256	7,464.11	76.5415	7,464.11	67.917	7,464.11	72.9995	7,464.11	63.7623	7,464.11	70.196	7,464.11	60.7981	7,464.11	66.7314	7,464.11	60.6659	7,464.11	63.9103	7,464.11	58.5641	7,464.11	63.6717	7,464.11	56.2796	7,464.11	62.1437	7,464.11	56.1709	7,464.11	59.9601	7,464.11	45.1261	7,464.11	56.9374	7,464.11	52.5344	7,464.11	53.3261	7,464.11	54.4718
7,727.78	82.4167	7,727.78	82.0805	7,727.78	82.8449	7,727.78	80.5523	7,727.78	82.501	7,727.78	79.4963	7,727.78	82.0783	7,727.78	78.5691	7,727.78	81.8957	7,727.78	77.7644	7,727.78	81.3067	7,727.78	75.7657	7,727.78	80.2039	7,727.78	72.3301	7,727.78	77.696	7,727.78	68.3526	7,727.78	74.0765	7,727.78	64.3303	7,727.78	70.4704	7,727.78	60.9192	7,727.78	67.3504	7,727.78	59.5501	7,727.78	64.9822	7,727.78	58.2561	7,727.78	61.1537	7,727.78	56.0159	7,727.78	61.8459	7,727.78	56.5618	7,727.78	60.1946	7,727.78	51.3817	7,727.78	57.7765	7,727.78	44.2859	7,727.78	53.4351	7,727.78	47.8013	7,727.78	52.6569	7,727.78	50.6188
8,000.24	83.3494	8,000.24	82.5023	8,000.24	83.7264	8,000.24	80.7914	8,000.24	82.8323	8,000.24	79.1805	8,000.24	82.1448	8,000.24	77.9669	8,000.24	81.1285	8,000.24	76.3179	8,000.24	80.1546	8,000.24	73.6702	8,000.24	78.4417	8,000.24	69.4246	8,000.24	75.6596	8,000.24	64.4739	8,000.24	72.0136	8,000.24	61.9691	8,000.24	68.063	8,000.24	58.2925	8,000.24	64.3321	8,000.24	55.5975	8,000.24	61.6223	8,000.24	54.6464	8,000.24	58.2051	8,000.24	53.4433	8,000.24	59.9586	8,000.24	53.4546	8,000.24	57.2749	8,000.24	51.0342	8,000.24	53.9324	8,000.24	28.8613	8,000.24	50.035	8,000.24	50.1348	8,000.24	48.5716	8,000.24	47.744
8,282.23	84.5902	8,282.23	83.9831	8,282.23	85.2011	8,282.23	81.7949	8,282.23	84.5194	8,282.23	79.8649	8,282.23	83.4537	8,282.23	78.016	8,282.23	82.3671	8,282.23	75.4542	8,282.23	80.8373	8,282.23	72.4557	8,282.23	78.9308	8,282.23	67.0049	8,282.23	75.5932	8,282.23	62.5647	8,282.23	71.4228	8,282.23	59.7085	8,282.23	66.5231	8,282.23	55.2608	8,282.23	63.302	8,282.23	53.7832	8,282.23	59.7053	8,282.23	53.3077	8,282.23	57.591	8,282.23	49.2575	8,282.23	56.2035	8,282.23	43.3069	8,282.23	53.6648	8,282.23	49.1041	8,282.23	51.8539	8,282.23	42.9443	8,282.23	50.767	8,282.23	45.3142	8,282.23	47.3382	8,282.23	48.4841
8,574.46	85.8852	8,574.46	84.9284	8,574.46	86.2996	8,574.46	82.9315	8,574.46	85.6234	8,574.46	81.1712	8,574.46	84.5845	8,574.46	78.6964	8,574.46	83.3198	8,574.46	76.0211	8,574.46	81.5217	8,574.46	72.2272	8,574.46	79.364	8,574.46	68.0761	8,574.46	76.2556	8,574.46	62.9587	8,574.46	71.5783	8,574.46	57.9284	8,574.46	66.7609	8,574.46	53.4167	8,574.46	63.1924	8,574.46	50.3901	8,574.46	59.6924	8,574.46	52.6181	8,574.46	58.1457	8,574.46	41.5437	8,574.46	56.4118	8,574.46	47.4054	8,574.46	52.0967	8,574.46	48.0838	8,574.46	51.3938	8,574.46	42.6603	8,574.46	52.343	8,574.46	49.9042	8,574.46	44.6249	8,574.46	50.4103
8,876.22	85.8293	8,876.22	85.0103	8,876.22	86.2929	8,876.22	83.2781	8,876.22	85.5754	8,876.22	81.0883	8,876.22	84.5375	8,876.22	78.8853	8,876.22	83.1307	8,876.22	75.5476	8,876.22	80.9587	8,876.22	71.7519	8,876.22	78.5635	8,876.22	67.01	8,876.22	75.1498	8,876.22	60.9825	8,876.22	71.2243	8,876.22	58.2976	8,876.22	66.1308	8,876.22	53.7842	8,876.22	62.0596	8,876.22	49.824	8,876.22	58.7874	8,876.22	48.7003	8,876.22	54.3159	8,876.22	46.052	8,876.22	55.7183	8,876.22	50.5085	8,876.22	52.9651	8,876.22	49.7315	8,876.22	51.8716	8,876.22	45.9274	8,876.22	51.7299	8,876.22	50.5264	8,876.22	46.6371	8,876.22	49.6811
9,189.7	84.786	9,189.7	83.8465	9,189.7	85.1224	9,189.7	82.2263	9,189.7	84.2961	9,189.7	80.2654	9,189.7	83.1458	9,189.7	77.4269	9,189.7	81.2838	9,189.7	74.5209	9,189.7	79.1652	9,189.7	70.1063	9,189.7	76.6226	9,189.7	65.1608	9,189.7	72.7552	9,189.7	60.9742	9,189.7	68.0582	9,189.7	57.605	9,189.7	63.6479	9,189.7	54.8855	9,189.7	60.8388	9,189.7	53.786	9,189.7	57.9414	9,189.7	45.2614	9,189.7	54.8896	9,189.7	46.8413	9,189.7	49.4622	9,189.7	41.3211	9,189.7	49.2416	9,189.7	50.0334	9,189.7	49.2069	9,189.7	46.7216	9,189.7	51.5992	9,189.7	45.3174	9,189.7	37.9812	9,189.7	46.2778
9,513.43	82.9903	9,513.43	82.3106	9,513.43	83.0891	9,513.43	80.488	9,513.43	82.3438	9,513.43	78.7092	9,513.43	80.9824	9,513.43	76.26	9,513.43	79.5162	9,513.43	72.9457	9,513.43	77.175	9,513.43	68.5126	9,513.43	74.1137	9,513.43	64.8696	9,513.43	70.4552	9,513.43	60.4338	9,513.43	66.5896	9,513.43	57.9297	9,513.43	62.9819	9,513.43	54.6065	9,513.43	59.3245	9,513.43	53.0771	9,513.43	56.4498	9,513.43	48.7832	9,513.43	55.0917	9,513.43	47.5372	9,513.43	50.6267	9,513.43	44.2896	9,513.43	48.3827	9,513.43	49.8052	9,513.43	43.3022	9,513.43	47.1039	9,513.43	44.8378	9,513.43	46.7413	9,513.43	43.9512	9,513.43	40.7173
9,848.88	83.2576	9,848.88	82.0764	9,848.88	83.2269	9,848.88	80.4266	9,848.88	81.9245	9,848.88	78.0094	9,848.88	80.4464	9,848.88	74.9224	9,848.88	78.862	9,848.88	71.1058	9,848.88	75.6673	9,848.88	66.5023	9,848.88	72.1356	9,848.88	62.488	9,848.88	68.1317	9,848.88	59.346	9,848.88	64.0408	9,848.88	56.0335	9,848.88	59.6919	9,848.88	54.7476	9,848.88	56.7854	9,848.88	50.7625	9,848.88	54.6098	9,848.88	45.4004	9,848.88	50.5989	9,848.88	48.1441	9,848.88	48.2119	9,848.88	43.4498	9,848.88	43.9988	9,848.88	47.5098	9,848.88	42.698	9,848.88	45.4042	9,848.88	40.9107	9,848.88	42.4928	9,848.88	42.7483	9,848.88	37.5488
10,196.8	84.1202	10,196.8	83.0292	10,196.8	83.9153	10,196.8	81.2756	10,196.8	82.8405	10,196.8	78.4603	10,196.8	81.2543	10,196.8	75.2912	10,196.8	79.0094	10,196.8	70.5863	10,196.8	75.4841	10,196.8	66.6009	10,196.8	70.973	10,196.8	63.0052	10,196.8	67.8009	10,196.8	58.476	10,196.8	62.9649	10,196.8	55.0781	10,196.8	58.9718	10,196.8	52.2194	10,196.8	54.7404	10,196.8	49.5021	10,196.8	53.2321	10,196.8	47.2684	10,196.8	47.6671	10,196.8	46.3902	10,196.8	37.0025	10,196.8	44.4186	10,196.8	35.3909	10,196.8	44.1674	10,196.8	41.8525	10,196.8	39.5208	10,196.8	41.4256	10,196.8	46.0623	10,196.8	42.5729	10,196.8	34.093
10,556.4	84.7683	10,556.4	83.818	10,556.4	84.876	10,556.4	81.701	10,556.4	83.8443	10,556.4	78.8255	10,556.4	82.3783	10,556.4	75.6237	10,556.4	79.7771	10,556.4	70.7576	10,556.4	75.8778	10,556.4	68.0449	10,556.4	71.9641	10,556.4	64.3013	10,556.4	68.371	10,556.4	58.6252	10,556.4	64.1227	10,556.4	54.2093	10,556.4	60.1257	10,556.4	50.8431	10,556.4	57.7565	10,556.4	48.529	10,556.4	51.8777	10,556.4	54.5283	10,556.4	48.6524	10,556.4	43.773	10,556.4	43.2572	10,556.4	47.0769	10,556.4	43.4809	10,556.4	45.7796	10,556.4	41.9057	10,556.4	33.924	10,556.4	41.5642	10,556.4	47.3871	10,556.4	42.1423	10,556.4	36.9217
10,928.5	85.2597	10,928.5	83.9406	10,928.5	85.3276	10,928.5	82.032	10,928.5	84.4012	10,928.5	79.227	10,928.5	82.9869	10,928.5	75.5507	10,928.5	80.3262	10,928.5	71.707	10,928.5	76.604	10,928.5	67.8946	10,928.5	73.0489	10,928.5	64.1006	10,928.5	69.8306	10,928.5	59.7692	10,928.5	65.5188	10,928.5	53.9394	10,928.5	60.4079	10,928.5	52.7167	10,928.5	58.1085	10,928.5	45.6678	10,928.5	52.8012	10,928.5	51.691	10,928.5	49.619	10,928.5	47.2156	10,928.5	46.8242	10,928.5	46.7672	10,928.5	46.9608	10,928.5	45.9179	10,928.5	47.6013	10,928.5	26.0212	10,928.5	41.7698	10,928.5	43.9597	10,928.5	45.3974	10,928.5	38.9151
11,313.7	84.9807	11,313.7	83.7867	11,313.7	84.9785	11,313.7	81.8815	11,313.7	84.0371	11,313.7	78.7278	11,313.7	82.5937	11,313.7	74.6857	11,313.7	79.631	11,313.7	71.1672	11,313.7	76.1514	11,313.7	66.2944	11,313.7	72.4057	11,313.7	62.8793	11,313.7	68.8821	11,313.7	58.7006	11,313.7	64.568	11,313.7	52.5282	11,313.7	60.209	11,313.7	51.6582	11,313.7	58.2263	11,313.7	47.9969	11,313.7	52.2472	11,313.7	50.4583	11,313.7	50.4233	11,313.7	47.4309	11,313.7	45.7379	11,313.7	40.6971	11,313.7	42.538	11,313.7	43.3041	11,313.7	43.0814	11,313.7	40.5802	11,313.7	31.2952	11,313.7	38.8223	11,313.7	46.3718	11,313.7	40.2892
11,712.9	83.6146	11,712.9	82.3476	11,712.9	83.7506	11,712.9	80.4696	11,712.9	82.6837	11,712.9	77.6643	11,712.9	81.2887	11,712.9	73.0292	11,712.9	78.1433	11,712.9	70.0174	11,712.9	74.561	11,712.9	64.6713	11,712.9	70.5068	11,712.9	61.8699	11,712.9	67.3775	11,712.9	57.1421	11,712.9	63.2799	11,712.9	53.0643	11,712.9	58.9775	11,712.9	51.7546	11,712.9	56.4426	11,712.9	49.5113	11,712.9	50.3582	11,712.9	52.8907	11,712.9	48.3258	11,712.9	48.3501	11,712.9	46.0275	11,712.9	42.5019	11,712.9	44.304	11,712.9	36.2988	11,712.9	40.0026	11,712.9	38.3955	11,712.9	29.4714	11,712.9	37.3361	11,712.9	43.1617	11,712.9	41.8934
12,126	83.0805	12,126	81.9788	12,126	83.0091	12,126	79.9124	12,126	82.1053	12,126	76.2418	12,126	80.2405	12,126	72.4596	12,126	76.6752	12,126	68.2375	12,126	72.2092	12,126	63.4054	12,126	67.9206	12,126	61.215	12,126	62.4522	12,126	57.2795	12,126	57.6383	12,126	53.1623	12,126	52.5652	12,126	51.8384	12,126	51.7889	12,126	48.2052	12,126	46.4656	12,126	49.8232	12,126	45.3631	12,126	43.7702	12,126	43.6632	12,126	46.9212	12,126	42.3352	12,126	37.7075	12,126	45.4031	12,126	9.56385	12,126	42.9202	12,126	36.7704	12,126	33.8848	12,126	41.9035
12,553.7	83.4471	12,553.7	82.4423	12,553.7	83.4158	12,553.7	80.7351	12,553.7	82.8019	12,553.7	76.8928	12,553.7	80.3109	12,553.7	72.8234	12,553.7	76.8963	12,553.7	69.653	12,553.7	72.7586	12,553.7	64.0898	12,553.7	68.6591	12,553.7	62.5612	12,553.7	62.4464	12,553.7	60.5292	12,553.7	59.2211	12,553.7	54.9739	12,553.7	54.7054	12,553.7	52.8994	12,553.7	52.6732	12,553.7	49.6269	12,553.7	51.5922	12,553.7	49.3063	12,553.7	53.1325	12,553.7	37.5314	12,553.7	27.1802	12,553.7	43.7346	12,553.7	41.9062	12,553.7	40.9385	12,553.7	44.9906	12,553.7	30.6403	12,553.7	42.3586	12,553.7	43.8084	12,553.7	37.4339	12,553.7	38.6972
12,996.1	83.1915	12,996.1	82.3242	12,996.1	83.2332	12,996.1	80.5627	12,996.1	82.5053	12,996.1	76.6348	12,996.1	80.3314	12,996.1	72.6753	12,996.1	77.4675	12,996.1	69.8086	12,996.1	74.2069	12,996.1	66.5837	12,996.1	68.8689	12,996.1	65.6428	12,996.1	66.0316	12,996.1	61.8787	12,996.1	64.0396	12,996.1	54.327	12,996.1	58.5671	12,996.1	55.1632	12,996.1	56.4817	12,996.1	52.7918	12,996.1	50.4331	12,996.1	45.5507	12,996.1	52.4067	12,996.1	29.6306	12,996.1	48.0704	12,996.1	42.5404	12,996.1	46.0414	12,996.1	41.7022	12,996.1	41.756	12,996.1	40.6495	12,996.1	32.7291	12,996.1	47.5379	12,996.1	40.8769	12,996.1	40.971
13,454.6	82.3664	13,454.6	81.8103	13,454.6	82.3718	13,454.6	79.952	13,454.6	81.962	13,454.6	76.6164	13,454.6	79.9741	13,454.6	72.6281	13,454.6	77.2246	13,454.6	68.9666	13,454.6	74.1021	13,454.6	67.3377	13,454.6	68.6907	13,454.6	65.2856	13,454.6	66.5347	13,454.6	62.3057	13,454.6	64.8485	13,454.6	57.136	13,454.6	60.4039	13,454.6	52.364	13,454.6	56.131	13,454.6	50.2508	13,454.6	53.9725	13,454.6	49.1458	13,454.6	52.3016	13,454.6	43.0624	13,454.6	44.6999	13,454.6	37.9553	13,454.6	44.799	13,454.6	39.369	13,454.6	39.3325	13,454.6	38.5141	13,454.6	36.6025	13,454.6	39.527	13,454.6	39.691	13,454.6	43.5325
13,928.5	80.2083	13,928.5	80.3161	13,928.5	80.2819	13,928.5	78.2827	13,928.5	80.494	13,928.5	74.4013	13,928.5	78.5247	13,928.5	70.4104	13,928.5	75.1377	13,928.5	67.4879	13,928.5	71.0424	13,928.5	67.055	13,928.5	65.3027	13,928.5	64.9592	13,928.5	65.2916	13,928.5	61.4517	13,928.5	63.6545	13,928.5	56.2107	13,928.5	58.7866	13,928.5	51.4358	13,928.5	53.9773	13,928.5	50.2034	13,928.5	51.2619	13,928.5	46.384	13,928.5	46.9525	13,928.5	39.7047	13,928.5	39.4506	13,928.5	32.3886	13,928.5	43.4582	13,928.5	33.1377	13,928.5	42.0582	13,928.5	26.9562	13,928.5	40.672	13,928.5	43.298	13,928.5	36.8885	13,928.5	43.5271
14,419.9	80.3497	14,419.9	79.5933	14,419.9	80.5886	14,419.9	76.7067	14,419.9	80.2901	14,419.9	71.9945	14,419.9	77.256	14,419.9	68.0149	14,419.9	72.7262	14,419.9	65.5027	14,419.9	67.8846	14,419.9	63.8849	14,419.9	64.847	14,419.9	60.8047	14,419.9	64.0238	14,419.9	56.4931	14,419.9	60.7322	14,419.9	50.8583	14,419.9	53.91	14,419.9	47.3067	14,419.9	50.5719	14,419.9	46.0651	14,419.9	48.0276	14,419.9	38.9778	14,419.9	40.2042	14,419.9	33.3755	14,419.9	37.0448	14,419.9	36.2606	14,419.9	38.5405	14,419.9	38.9645	14,419.9	39.4257	14,419.9	12.7366	14,419.9	40.7866	14,419.9	33.8484	14,419.9	14.6705	14,419.9	41.2352
14,928.2	80.5277	14,928.2	79.8212	14,928.2	80.9974	14,928.2	76.9384	14,928.2	80.7058	14,928.2	72.6425	14,928.2	77.4453	14,928.2	67.5889	14,928.2	72.8031	14,928.2	67.3422	14,928.2	67.404	14,928.2	65.1444	14,928.2	66.5766	14,928.2	60.6072	14,928.2	64.4113	14,928.2	56.8469	14,928.2	58.1177	14,928.2	54.509	14,928.2	51.7375	14,928.2	48.4965	14,928.2	50.0796	14,928.2	48.7851	14,928.2	43.8714	14,928.2	43.948	14,928.2	40.9671	14,928.2	22.5604	14,928.2	44.9153	14,928.2	28.4581	14,928.2	41.0253	14,928.2	37.6048	14,928.2	42.42	14,928.2	38.5178	14,928.2	39.3602	14,928.2	35.8917	14,928.2	24.263	14,928.2	38.1634
15,454.8	80.4768	15,454.8	79.9448	15,454.8	80.8964	15,454.8	76.9916	15,454.8	80.4307	15,454.8	73.3691	15,454.8	76.9234	15,454.8	68.5736	15,454.8	73.5615	15,454.8	69.0885	15,454.8	68.8682	15,454.8	67.0225	15,454.8	68.0107	15,454.8	63.4626	15,454.8	62.3755	15,454.8	59.1275	15,454.8	58.3566	15,454.8	54.8424	15,454.8	54.1692	15,454.8	50.5165	15,454.8	51.9635	15,454.8	49.0563	15,454.8	44.7597	15,454.8	43.6963	15,454.8	42.3608	15,454.8	35.4352	15,454.8	38.3004	15,454.8	33.7088	15,454.8	39.1031	15,454.8	32.7928	15,454.8	42.0773	15,454.8	37.0122	15,454.8	35.9726	15,454.8	34.267	15,454.8	29.4639	15,454.8	40.7152
15,999.8	79.407	15,999.8	79.4575	15,999.8	80.1468	15,999.8	76.4149	15,999.8	79.7084	15,999.8	73.6373	15,999.8	76.6172	15,999.8	69.1182	15,999.8	73.4771	15,999.8	69.758	15,999.8	68.8499	15,999.8	67.4522	15,999.8	67.1187	15,999.8	64.8175	15,999.8	61.8101	15,999.8	60.5273	15,999.8	61.556	15,999.8	54.8059	15,999.8	55.8556	15,999.8	52.11	15,999.8	53.0333	15,999.8	46.9663	15,999.8	46.4322	15,999.8	40.1451	15,999.8	43.8984	15,999.8	35.4736	15,999.8	46.3596	15,999.8	33.6551	15,999.8	37.4248	15,999.8	23.0003	15,999.8	40.6349	15,999.8	31.1729	15,999.8	37.1611	15,999.8	39.1174	15,999.8	29.1316	15,999.8	40.6808
16,564.5	78.754	16,564.5	78.6799	16,564.5	79.6238	16,564.5	75.6278	16,564.5	78.9656	16,564.5	72.5743	16,564.5	76.0501	16,564.5	67.949	16,564.5	71.8737	16,564.5	68.1525	16,564.5	66.7015	16,564.5	65.6431	16,564.5	63.1855	16,564.5	62.7649	16,564.5	61.4655	16,564.5	59.5587	16,564.5	60.4016	16,564.5	53.4528	16,564.5	54.4502	16,564.5	51.0872	16,564.5	50.9139	16,564.5	41.3097	16,564.5	45.7733	16,564.5	39.4058	16,564.5	43.9567	16,564.5	36.7749	16,564.5	47.1337	16,564.5	30.0438	16,564.5	38.3791	16,564.5	30.9397	16,564.5	42.8438	16,564.5	27.4756	16,564.5	40.2011	16,564.5	37.6357	16,564.5	25.4559	16,564.5	41.4795
17,148.2	79.8357	17,148.2	79.3069	17,148.2	80.5639	17,148.2	76.0643	17,148.2	79.5791	17,148.2	71.048	17,148.2	76.5517	17,148.2	67.258	17,148.2	70.0822	17,148.2	65.8708	17,148.2	64.5166	17,148.2	63.5219	17,148.2	58.7014	17,148.2	60.7	17,148.2	61.3388	17,148.2	56.0615	17,148.2	58.8498	17,148.2	50.6277	17,148.2	51.0384	17,148.2	47.2241	17,148.2	47.1931	17,148.2	39.8505	17,148.2	41.1376	17,148.2	41.345	17,148.2	42.4413	17,148.2	42.993	17,148.2	41.4941	17,148.2	24.9398	17,148.2	32.1301	17,148.2	22.9588	17,148.2	40.273	17,148.2	37.8708	17,148.2	37.8677	17,148.2	43.9898	17,148.2	33.9429	17,148.2	42.4516
17,753.2	80.7773	17,753.2	79.6293	17,753.2	81.5423	17,753.2	76.331	17,753.2	80.1037	17,753.2	70.797	17,753.2	77.1438	17,753.2	65.926	17,753.2	69.7855	17,753.2	62.7277	17,753.2	64.2027	17,753.2	62.8273	17,753.2	62.0888	17,753.2	59.9787	17,753.2	63.4041	17,753.2	53.1027	17,753.2	59.7586	17,753.2	47.952	17,753.2	53.7125	17,753.2	44.7058	17,753.2	46.9795	17,753.2	40.9518	17,753.2	42.1403	17,753.2	39.0588	17,753.2	46.2536	17,753.2	42.1935	17,753.2	44.6118	17,753.2	33.3426	17,753.2	30.3307	17,753.2	37.8175	17,753.2	40.8434	17,753.2	31.7118	17,753.2	35.3011	17,753.2	45.1327	17,753.2	40.3015	17,753.2	45.3555
18,379.4	80.4932	18,379.4	78.5096	18,379.4	80.7965	18,379.4	75.3391	18,379.4	78.6743	18,379.4	68.7112	18,379.4	75.7201	18,379.4	62.9671	18,379.4	67.3737	18,379.4	62.7292	18,379.4	62.3204	18,379.4	64.1034	18,379.4	65.6255	18,379.4	59.4216	18,379.4	65.0717	18,379.4	54.4971	18,379.4	62.1428	18,379.4	45.9674	18,379.4	57.7128	18,379.4	45.6235	18,379.4	47.9891	18,379.4	42.7477	18,379.4	47.7158	18,379.4	39.7791	18,379.4	48.1288	18,379.4	45.619	18,379.4	46.7586	18,379.4	36.5401	18,379.4	32.5496	18,379.4	40.6005	18,379.4	42.9099	18,379.4	34.9012	18,379.4	41.7287	18,379.4	44.6742	18,379.4	37.8072	18,379.4	45.3337
19,027.6	80.0018	19,027.6	76.3739	19,027.6	79.8139	19,027.6	72.2438	19,027.6	76.3758	19,027.6	61.269	19,027.6	72.3091	19,027.6	59.1112	19,027.6	64.1411	19,027.6	63.1043	19,027.6	62.2096	19,027.6	60.2377	19,027.6	65.7075	19,027.6	56.924	19,027.6	63.0356	19,027.6	53.3797	19,027.6	61.2212	19,027.6	43.9973	19,027.6	56.5561	19,027.6	44.4938	19,027.6	47.1069	19,027.6	39.1137	19,027.6	46.332	19,027.6	41.2726	19,027.6	46.3737	19,027.6	46.2059	19,027.6	47.3435	19,027.6	31.5377	19,027.6	32.2708	19,027.6	39.6256	19,027.6	41.8391	19,027.6	38.2806	19,027.6	45.049	19,027.6	43.1658	19,027.6	37.0045	19,027.6	42.5958
19,698.5	80.6831	19,698.5	76.1429	19,698.5	80.4394	19,698.5	70.2644	19,698.5	76.817	19,698.5	61.2523	19,698.5	70.6233	19,698.5	60.4165	19,698.5	64.5514	19,698.5	62.703	19,698.5	63.7743	19,698.5	59.3264	19,698.5	64.4717	19,698.5	57.913	19,698.5	61.8814	19,698.5	54.1843	19,698.5	60.8138	19,698.5	42.9246	19,698.5	55.4581	19,698.5	44.169	19,698.5	46.5757	19,698.5	41.109	19,698.5	44.3659	19,698.5	39.4251	19,698.5	45.2471	19,698.5	44.4137	19,698.5	47.7638	19,698.5	32.6686	19,698.5	31.8369	19,698.5	38.0592	19,698.5	40.4986	19,698.5	35.4024	19,698.5	44.3977	19,698.5	43.2559	19,698.5	35.5583	19,698.5	37.3043
19,999.5	80.7634	19,999.5	76.0847	19,999.5	80.3036	19,999.5	69.0713	19,999.5	77.1887	19,999.5	62.917	19,999.5	69.9372	19,999.5	62.8612	19,999.5	64.967	19,999.5	63.4105	19,999.5	63.9641	19,999.5	61.5404	19,999.5	63.8054	19,999.5	59.7739	19,999.5	62.4406	19,999.5	55.3106	19,999.5	61.2357	19,999.5	43.4508	19,999.5	56.2543	19,999.5	42.5757	19,999.5	44.1838	19,999.5	41.7311	19,999.5	44.8789	19,999.5	41.4346	19,999.5	46.6799	19,999.5	46.817	19,999.5	49.3714	19,999.5	38.7614	19,999.5	32.8014	19,999.5	38.5151	19,999.5	38.2517	19,999.5	40.4809	19,999.5	42.1181	19,999.5	46.1843	19,999.5	34.4565	19,999.5	34.6765
