"SPL Vertical"																																																																							
"On-Axis"		"10°"		"-10°"		"20°"		"-20°"		"30°"		"-30°"		"40°"		"-40°"		"50°"		"-50°"		"60°"		"-60°"		"70°"		"-70°"		"80°"		"-80°"		"90°"		"-90°"		"100°"		"-100°"		"110°"		"-110°"		"120°"		"-120°"		"130°"		"-130°"		"140°"		"-140°"		"150°"		"-150°"		"160°"		"-160°"		"170°"		"-170°"		"180°"	
"Frequency [Hz]"	"Sound Pessure Level [dB]  / [2.83V 1m] "	"Frequency [Hz]"	"Sound Pessure Level [dB]  / [2.83V 1m] "	"Frequency [Hz]"	"Sound Pessure Level [dB]  / [2.83V 1m] "	"Frequency [Hz]"	"Sound Pessure Level [dB]  / [2.83V 1m] "	"Frequency [Hz]"	"Sound Pessure Level [dB]  / [2.83V 1m] "	"Frequency [Hz]"	"Sound Pessure Level [dB]  / [2.83V 1m] "	"Frequency [Hz]"	"Sound Pessure Level [dB]  / [2.83V 1m] "	"Frequency [Hz]"	"Sound Pessure Level [dB]  / [2.83V 1m] "	"Frequency [Hz]"	"Sound Pessure Level [dB]  / [2.83V 1m] "	"Frequency [Hz]"	"Sound Pessure Level [dB]  / [2.83V 1m] "	"Frequency [Hz]"	"Sound Pessure Level [dB]  / [2.83V 1m] "	"Frequency [Hz]"	"Sound Pessure Level [dB]  / [2.83V 1m] "	"Frequency [Hz]"	"Sound Pessure Level [dB]  / [2.83V 1m] "	"Frequency [Hz]"	"Sound Pessure Level [dB]  / [2.83V 1m] "	"Frequency [Hz]"	"Sound Pessure Level [dB]  / [2.83V 1m] "	"Frequency [Hz]"	"Sound Pessure Level [dB]  / [2.83V 1m] "	"Frequency [Hz]"	"Sound Pessure Level [dB]  / [2.83V 1m] "	"Frequency [Hz]"	"Sound Pessure Level [dB]  / [2.83V 1m] "	"Frequency [Hz]"	"Sound Pessure Level [dB]  / [2.83V 1m] "	"Frequency [Hz]"	"Sound Pessure Level [dB]  / [2.83V 1m] "	"Frequency [Hz]"	"Sound Pessure Level [dB]  / [2.83V 1m] "	"Frequency [Hz]"	"Sound Pessure Level [dB]  / [2.83V 1m] "	"Frequency [Hz]"	"Sound Pessure Level [dB]  / [2.83V 1m] "	"Frequency [Hz]"	"Sound Pessure Level [dB]  / [2.83V 1m] "	"Frequency [Hz]"	"Sound Pessure Level [dB]  / [2.83V 1m] "	"Frequency [Hz]"	"Sound Pessure Level [dB]  / [2.83V 1m] "	"Frequency [Hz]"	"Sound Pessure Level [dB]  / [2.83V 1m] "	"Frequency [Hz]"	"Sound Pessure Level [dB]  / [2.83V 1m] "	"Frequency [Hz]"	"Sound Pessure Level [dB]  / [2.83V 1m] "	"Frequency [Hz]"	"Sound Pessure Level [dB]  / [2.83V 1m] "	"Frequency [Hz]"	"Sound Pessure Level [dB]  / [2.83V 1m] "	"Frequency [Hz]"	"Sound Pessure Level [dB]  / [2.83V 1m] "	"Frequency [Hz]"	"Sound Pessure Level [dB]  / [2.83V 1m] "	"Frequency [Hz]"	"Sound Pessure Level [dB]  / [2.83V 1m] "	"Frequency [Hz]"	"Sound Pessure Level [dB]  / [2.83V 1m] "	"Frequency [Hz]"	"Sound Pessure Level [dB]  / [2.83V 1m] "
20.5078	49.429	20.5078	49.2884	20.5078	49.5789	20.5078	49.1614	20.5078	49.7333	20.5078	49.0517	20.5078	49.8868	20.5078	48.9622	20.5078	50.034	20.5078	48.8949	20.5078	50.1696	20.5078	48.8512	20.5078	50.2883	20.5078	48.8313	20.5078	50.3855	20.5078	48.835	20.5078	50.4575	20.5078	48.8614	20.5078	50.5016	20.5078	48.909	20.5078	50.5163	20.5078	48.9759	20.5078	50.5013	20.5078	49.06	20.5078	50.4579	20.5078	49.1589	20.5078	50.3885	20.5078	49.2704	20.5078	50.2967	20.5078	49.3921	20.5078	50.1868	20.5078	49.5217	20.5078	50.0633	20.5078	49.6567	20.5078	49.931	20.5078	49.7942
21.2402	51.48	21.2402	51.3424	21.2402	51.6276	21.2402	51.2189	21.2402	51.7802	21.2402	51.113	21.2402	51.9327	21.2402	51.0273	21.2402	52.0793	21.2402	50.9638	21.2402	52.2143	21.2402	50.9237	21.2402	52.3324	21.2402	50.9073	21.2402	52.4285	21.2402	50.9144	21.2402	52.4988	21.2402	50.944	21.2402	52.5405	21.2402	50.9946	21.2402	52.5525	21.2402	51.0641	21.2402	52.5353	21.2402	51.1501	21.2402	52.4907	21.2402	51.2499	21.2402	52.4221	21.2402	51.3607	21.2402	52.3333	21.2402	51.4798	21.2402	52.2289	21.2402	51.6046	21.2402	52.113	21.2402	51.7328	21.2402	51.9896	21.2402	51.8619
21.9727	51.9198	21.9727	51.7341	21.9727	52.1059	21.9727	51.5539	21.9727	52.2866	21.9727	51.3838	21.9727	52.4557	21.9727	51.2277	21.9727	52.6071	21.9727	51.0891	21.9727	52.7342	21.9727	50.9707	21.9727	52.8312	21.9727	50.8747	21.9727	52.8929	21.9727	50.8028	21.9727	52.9152	21.9727	50.756	21.9727	52.896	21.9727	50.7351	21.9727	52.835	21.9727	50.7403	21.9727	52.7343	21.9727	50.7716	21.9727	52.5983	21.9727	50.8285	21.9727	52.4334	21.9727	50.9104	21.9727	52.2478	21.9727	51.0166	21.9727	52.0501	21.9727	51.1459	21.9727	51.8491	21.9727	51.2968	21.9727	51.6525	21.9727	51.4668
22.7051	52.2397	22.7051	52.0673	22.7051	52.4147	22.7051	51.9026	22.7051	52.5868	22.7051	51.75	22.7051	52.7502	22.7051	51.6136	22.7051	52.899	22.7051	51.4967	22.7051	53.0275	22.7051	51.4018	22.7051	53.1302	22.7051	51.3309	22.7051	53.2025	22.7051	51.2852	22.7051	53.2408	22.7051	51.2653	22.7051	53.2431	22.7051	51.2712	22.7051	53.209	22.7051	51.3021	22.7051	53.1399	22.7051	51.357	22.7051	53.0391	22.7051	51.4344	22.7051	52.9116	22.7051	51.5326	22.7051	52.7632	22.7051	51.6496	22.7051	52.6006	22.7051	51.7834	22.7051	52.4305	22.7051	51.9315	22.7051	52.259	22.7051	52.0912
23.4375	53.872	23.4375	53.6898	23.4375	54.052	23.4375	53.511	23.4375	54.2242	23.4375	53.3401	23.4375	54.3825	23.4375	53.1813	23.4375	54.5206	23.4375	53.0384	23.4375	54.6322	23.4375	52.9142	23.4375	54.7118	23.4375	52.8111	23.4375	54.7544	23.4375	52.731	23.4375	54.7566	23.4375	52.675	23.4375	54.717	23.4375	52.6437	23.4375	54.6363	23.4375	52.6372	23.4375	54.5177	23.4375	52.6555	23.4375	54.3669	23.4375	52.6979	23.4375	54.1916	23.4375	52.7639	23.4375	54.0006	23.4375	52.8529	23.4375	53.8032	23.4375	52.9643	23.4375	53.6079	23.4375	53.0972	23.4375	53.4219	23.4375	53.2505
24.1699	55.2231	24.1699	55.0457	24.1699	55.3994	24.1699	54.8721	24.1699	55.5691	24.1699	54.7065	24.1699	55.7264	24.1699	54.553	24.1699	55.8651	24.1699	54.4145	24.1699	55.9793	24.1699	54.2939	24.1699	56.0631	24.1699	54.1932	24.1699	56.1116	24.1699	54.1141	24.1699	56.1211	24.1699	54.0578	24.1699	56.0894	24.1699	54.0252	24.1699	56.0167	24.1699	54.0166	24.1699	55.9055	24.1699	54.0324	24.1699	55.7604	24.1699	54.0726	24.1699	55.5887	24.1699	54.1373	24.1699	55.3987	24.1699	54.2263	24.1699	55.1997	24.1699	54.3392	24.1699	55.0008	24.1699	54.4754	24.1699	54.8099	24.1699	54.6333
25.6348	57.228	25.6348	57.0474	25.6348	57.4073	25.6348	56.8703	25.6348	57.5797	25.6348	56.7011	25.6348	57.7392	25.6348	56.5437	25.6348	57.8796	25.6348	56.4011	25.6348	57.9947	25.6348	56.276	25.6348	58.0785	25.6348	56.1705	25.6348	58.1259	25.6348	56.0863	25.6348	58.133	25.6348	56.0248	25.6348	58.0977	25.6348	55.9868	25.6348	58.02	25.6348	55.9729	25.6348	57.9026	25.6348	55.9838	25.6348	57.7505	25.6348	56.0198	25.6348	57.5709	25.6348	56.0812	25.6348	57.3727	25.6348	56.1683	25.6348	57.1656	25.6348	56.2809	25.6348	56.959	25.6348	56.4186	25.6348	56.7615	25.6348	56.5798
26.3672	58.3296	26.3672	58.1474	26.3672	58.5117	26.3672	57.9702	26.3672	58.6883	26.3672	57.8025	26.3672	58.8533	26.3672	57.6481	26.3672	59.0005	26.3672	57.5104	26.3672	59.1234	26.3672	57.3919	26.3672	59.2163	26.3672	57.2947	26.3672	59.2739	26.3672	57.2206	26.3672	59.2923	26.3672	57.1706	26.3672	59.2693	26.3672	57.1454	26.3672	59.2047	26.3672	57.1455	26.3672	59.1008	26.3672	57.1709	26.3672	58.9621	26.3672	57.2215	26.3672	58.7952	26.3672	57.297	26.3672	58.6084	26.3672	57.3969	26.3672	58.4104	26.3672	57.5205	26.3672	58.2101	26.3672	57.6664	26.3672	58.0152	26.3672	57.8324
27.0996	59.2919	27.0996	59.1075	27.0996	59.475	27.0996	58.9269	27.0996	59.6511	27.0996	58.7547	27.0996	59.8141	27.0996	58.5948	27.0996	59.9579	27.0996	58.4508	27.0996	60.076	27.0996	58.3253	27.0996	60.1626	27.0996	58.2208	27.0996	60.2126	27.0996	58.1391	27.0996	60.2223	27.0996	58.0814	27.0996	60.1896	27.0996	58.0487	27.0996	60.1148	27.0996	58.0413	27.0996	60.0005	27.0996	58.0597	27.0996	59.8517	27.0996	58.1036	27.0996	59.6757	27.0996	58.173	27.0996	59.4809	27.0996	58.2675	27.0996	59.2768	27.0996	58.3865	27.0996	59.0725	27.0996	58.5289	27.0996	58.8757	27.0996	58.693
27.832	60.1634	27.832	59.9806	27.832	60.3442	27.832	59.8007	27.832	60.5171	27.832	59.6283	27.832	60.6761	27.832	59.4674	27.832	60.815	27.832	59.3213	27.832	60.9274	27.832	59.1927	27.832	61.0075	27.832	59.0841	27.832	61.0502	27.832	58.9972	27.832	61.0519	27.832	58.9334	27.832	61.0108	27.832	58.8936	27.832	60.9274	27.832	58.8786	27.832	60.8047	27.832	58.8888	27.832	60.6481	27.832	58.9243	27.832	60.4654	27.832	58.9852	27.832	60.2656	27.832	59.0716	27.832	60.0584	27.832	59.1831	27.832	59.8531	27.832	59.3191	27.832	59.6576	27.832	59.4781
29.2969	62.3191	29.2969	62.1392	29.2969	62.4979	29.2969	61.9634	29.2969	62.6703	29.2969	61.796	29.2969	62.8301	29.2969	61.641	29.2969	62.9711	29.2969	61.5015	29.2969	63.0872	29.2969	61.3802	29.2969	63.1724	29.2969	61.2792	29.2969	63.2217	29.2969	61.2002	29.2969	63.2313	29.2969	61.1443	29.2969	63.1994	29.2969	61.1124	29.2969	63.126	29.2969	61.1048	29.2969	63.0138	29.2969	61.1219	29.2969	62.8678	29.2969	61.1637	29.2969	62.6951	29.2969	61.2302	29.2969	62.5042	29.2969	61.3211	29.2969	62.3043	29.2969	61.4362	29.2969	62.1044	29.2969	61.5744	29.2969	61.9122	29.2969	61.734
30.0293	63.3648	30.0293	63.1832	30.0293	63.5457	30.0293	63.0061	30.0293	63.7205	30.0293	62.8379	30.0293	63.883	30.0293	62.6825	30.0293	64.0272	30.0293	62.5434	30.0293	64.1467	30.0293	62.4233	30.0293	64.2357	30.0293	62.3244	30.0293	64.2891	30.0293	62.2485	30.0293	64.3031	30.0293	62.1967	30.0293	64.2758	30.0293	62.1699	30.0293	64.2072	30.0293	62.1683	30.0293	64.0997	30.0293	62.1919	30.0293	63.9583	30.0293	62.2406	30.0293	63.7899	30.0293	62.3139	30.0293	63.6027	30.0293	62.4112	30.0293	63.4057	30.0293	62.5317	30.0293	63.2076	30.0293	62.6741	30.0293	63.0158	30.0293	62.8364
31.4941	65.1267	31.4941	64.9477	31.4941	65.3055	31.4941	64.7734	31.4941	65.4783	31.4941	64.6085	31.4941	65.6392	31.4941	64.4568	31.4941	65.7817	31.4941	64.3217	31.4941	65.8996	31.4941	64.2059	31.4941	65.9871	31.4941	64.1116	31.4941	66.0391	31.4941	64.0404	31.4941	66.0521	31.4941	63.9932	31.4941	66.0242	31.4941	63.9707	31.4941	65.9559	31.4941	63.9729	31.4941	65.8499	31.4941	63.9997	31.4941	65.7113	31.4941	64.0504	31.4941	65.5473	31.4941	64.1243	31.4941	65.3661	31.4941	64.2205	31.4941	65.1765	31.4941	64.338	31.4941	64.9864	31.4941	64.4755	31.4941	64.8029	31.4941	64.6314
32.2266	65.8651	32.2266	65.6829	32.2266	66.0459	32.2266	65.5045	32.2266	66.2195	32.2266	65.3348	32.2266	66.3797	32.2266	65.1776	32.2266	66.5201	32.2266	65.0365	32.2266	66.6343	32.2266	64.9143	32.2266	66.7164	32.2266	64.8132	32.2266	66.7613	32.2266	64.7348	32.2266	66.7654	32.2266	64.6803	32.2266	66.7271	32.2266	64.6502	32.2266	66.6471	32.2266	64.6447	32.2266	66.5286	32.2266	64.6635	32.2266	66.3775	32.2266	64.7064	32.2266	66.2015	32.2266	64.7726	32.2266	66.0098	32.2266	64.8616	32.2266	65.8118	32.2266	64.9728	32.2266	65.6161	32.2266	65.1055	32.2266	65.43	32.2266	65.2586
33.6914	67.8851	33.6914	67.6957	33.6914	68.073	33.6914	67.51	33.6914	68.2534	33.6914	67.3328	33.6914	68.4201	33.6914	67.1682	33.6914	68.5666	33.6914	67.0198	33.6914	68.6865	33.6914	66.8906	33.6914	68.7737	33.6914	66.783	33.6914	68.8229	33.6914	66.6989	33.6914	68.8305	33.6914	66.6396	33.6914	68.7945	33.6914	66.6062	33.6914	68.7153	33.6914	66.5991	33.6914	68.5959	33.6914	66.6184	33.6914	68.4418	33.6914	66.6638	33.6914	68.2606	33.6914	66.7352	33.6914	68.0614	33.6914	66.8317	33.6914	67.8537	33.6914	66.9528	33.6914	67.6465	33.6914	67.0971	33.6914	67.4476	33.6914	67.263
34.4238	68.9317	34.4238	68.7439	34.4238	69.1186	34.4238	68.5606	34.4238	69.2987	34.4238	68.3865	34.4238	69.4659	34.4238	68.2257	34.4238	69.6135	34.4238	68.0818	34.4238	69.7351	34.4238	67.9575	34.4238	69.8245	34.4238	67.8553	34.4238	69.8766	34.4238	67.7769	34.4238	69.8874	34.4238	67.7234	34.4238	69.8551	34.4238	67.6956	34.4238	69.78	34.4238	67.6937	34.4238	69.6652	34.4238	67.7175	34.4238	69.5159	34.4238	67.7666	34.4238	69.3399	34.4238	67.8405	34.4238	69.1459	34.4238	67.9384	34.4238	68.9434	34.4238	68.0595	34.4238	68.7412	34.4238	68.2025	34.4238	68.5467	34.4238	68.3658
35.8887	70.7367	35.8887	70.543	35.8887	70.9285	35.8887	70.3529	35.8887	71.1124	35.8887	70.1712	35.8887	71.2821	35.8887	70.0023	35.8887	71.4309	35.8887	69.8499	35.8887	71.5525	35.8887	69.7172	35.8887	71.6405	35.8887	69.6068	35.8887	71.6899	35.8887	69.5205	35.8887	71.6969	35.8887	69.46	35.8887	71.6595	35.8887	69.426	35.8887	71.5782	35.8887	69.4192	35.8887	71.4561	35.8887	69.4395	35.8887	71.2989	35.8887	69.4866	35.8887	71.1143	35.8887	69.5601	35.8887	70.9115	35.8887	69.6592	35.8887	70.7001	35.8887	69.783	35.8887	70.4894	35.8887	69.9304	35.8887	70.2871	35.8887	70.0994
37.3535	72.677	37.3535	72.4859	37.3535	72.8666	37.3535	72.2986	37.3535	73.0488	37.3535	72.1202	37.3535	73.2171	37.3535	71.9547	37.3535	73.3652	37.3535	71.806	37.3535	73.4866	37.3535	71.6772	37.3535	73.5752	37.3535	71.5708	37.3535	73.6258	37.3535	71.4888	37.3535	73.6349	37.3535	71.4324	37.3535	73.6005	37.3535	71.4027	37.3535	73.5233	37.3535	71.3999	37.3535	73.4062	37.3535	71.424	37.3535	73.2548	37.3535	71.4745	37.3535	73.0766	37.3535	71.5507	37.3535	72.8805	37.3535	71.6516	37.3535	72.6758	37.3535	71.7762	37.3535	72.4711	37.3535	71.9228	37.3535	72.2738	37.3535	72.0897
38.8184	74.5089	38.8184	74.3187	38.8184	74.6978	38.8184	74.1325	38.8184	74.8793	38.8184	73.9553	38.8184	75.0469	38.8184	73.7915	38.8184	75.1942	38.8184	73.6449	38.8184	75.3145	38.8184	73.5184	38.8184	75.4018	38.8184	73.4147	38.8184	75.4511	38.8184	73.3355	38.8184	75.4587	38.8184	73.2821	38.8184	75.423	38.8184	73.2551	38.8184	75.3446	38.8184	73.2547	38.8184	75.2269	38.8184	73.2804	38.8184	75.0756	38.8184	73.3316	38.8184	74.8986	38.8184	73.4074	38.8184	74.7048	38.8184	73.5065	38.8184	74.5036	38.8184	73.628	38.8184	74.3034	38.8184	73.7705	38.8184	74.1112	38.8184	73.9323
39.5508	75.4242	39.5508	75.231	39.5508	75.616	39.5508	75.0419	39.5508	75.8003	39.5508	74.8621	39.5508	75.9706	39.5508	74.6961	39.5508	76.1202	39.5508	74.5476	39.5508	76.2427	39.5508	74.4199	39.5508	76.3317	39.5508	74.3156	39.5508	76.3824	39.5508	74.2364	39.5508	76.391	39.5508	74.1837	39.5508	76.3558	39.5508	74.1581	39.5508	76.2775	39.5508	74.1595	39.5508	76.1595	39.5508	74.1875	39.5508	76.0076	39.5508	74.2412	39.5508	75.8296	39.5508	74.3196	39.5508	75.6345	39.5508	74.4215	39.5508	75.4318	39.5508	74.5456	39.5508	75.2298	39.5508	74.6905	39.5508	75.0357	39.5508	74.8547
41.0156	77.2318	41.0156	77.0385	41.0156	77.4238	41.0156	76.8497	41.0156	77.6084	41.0156	76.6706	41.0156	77.779	41.0156	76.5058	41.0156	77.9291	41.0156	76.3592	41.0156	78.052	41.0156	76.2342	41.0156	78.1417	41.0156	76.1334	41.0156	78.1933	41.0156	76.0587	41.0156	78.2031	41.0156	76.0112	41.0156	78.1698	41.0156	75.9913	41.0156	78.094	41.0156	75.9987	41.0156	77.9794	41.0156	76.0327	41.0156	77.8318	41.0156	76.0919	41.0156	77.659	41.0156	76.1749	41.0156	77.4698	41.0156	76.2799	41.0156	77.2733	41.0156	76.4055	41.0156	77.0775	41.0156	76.55	41.0156	76.8887	41.0156	76.7118
42.4805	78.888	42.4805	78.6897	42.4805	79.0832	42.4805	78.4941	42.4805	79.2691	42.4805	78.3063	42.4805	79.4393	42.4805	78.131	42.4805	79.5869	42.4805	77.9724	42.4805	79.7055	42.4805	77.8338	42.4805	79.789	42.4805	77.7182	42.4805	79.8322	42.4805	77.6277	42.4805	79.8317	42.4805	77.564	42.4805	79.7858	42.4805	77.5279	42.4805	79.6956	42.4805	77.5198	42.4805	79.5647	42.4805	77.5394	42.4805	79.3996	42.4805	77.5862	42.4805	79.2085	42.4805	77.6592	42.4805	79.0013	42.4805	77.7573	42.4805	78.7878	42.4805	77.8795	42.4805	78.577	42.4805	78.0245	42.4805	78.3762	42.4805	78.1909
43.9453	80.3828	43.9453	80.1853	43.9453	80.5771	43.9453	79.99	43.9453	80.7619	43.9453	79.8023	43.9453	80.9309	43.9453	79.6267	43.9453	81.0774	43.9453	79.4672	43.9453	81.195	43.9453	79.3273	43.9453	81.2775	43.9453	79.21	43.9453	81.3198	43.9453	79.1175	43.9453	81.3184	43.9453	79.0515	43.9453	81.2717	43.9453	79.013	43.9453	81.1807	43.9453	79.0026	43.9453	81.049	43.9453	79.0201	43.9453	80.883	43.9453	79.065	43.9453	80.6909	43.9453	79.1366	43.9453	80.4826	43.9453	79.2339	43.9453	80.268	43.9453	79.3557	43.9453	80.056	43.9453	79.5009	43.9453	79.8541	43.9453	79.6679
45.4102	81.514	45.4102	81.3173	45.4102	81.7077	45.4102	81.1234	45.4102	81.8924	45.4102	80.9372	45.4102	82.0615	45.4102	80.7635	45.4102	82.2082	45.4102	80.6059	45.4102	82.3261	45.4102	80.4681	45.4102	82.409	45.4102	80.3526	45.4102	82.4517	45.4102	80.2616	45.4102	82.4507	45.4102	80.1967	45.4102	82.4043	45.4102	80.159	45.4102	82.3137	45.4102	80.1487	45.4102	82.1824	45.4102	80.166	45.4102	82.017	45.4102	80.2104	45.4102	81.8257	45.4102	80.2812	45.4102	81.6184	45.4102	80.3775	45.4102	81.4048	45.4102	80.4983	45.4102	81.194	45.4102	80.6425	45.4102	80.9934	45.4102	80.8083
47.6074	82.5712	47.6074	82.3735	47.6074	82.7665	47.6074	82.1795	47.6074	82.9533	47.6074	81.9943	47.6074	83.1248	47.6074	81.8227	47.6074	83.2742	47.6074	81.6688	47.6074	83.3948	47.6074	81.536	47.6074	83.4805	47.6074	81.4269	47.6074	83.5261	47.6074	81.3435	47.6074	83.5282	47.6074	81.2871	47.6074	83.4854	47.6074	81.2584	47.6074	83.3987	47.6074	81.2572	47.6074	83.2722	47.6074	81.2831	47.6074	83.1122	47.6074	81.3351	47.6074	82.9272	47.6074	81.4119	47.6074	82.7267	47.6074	81.5124	47.6074	82.5203	47.6074	81.635	47.6074	82.3165	47.6074	81.7786	47.6074	82.1219	47.6074	81.9416
49.0723	82.9795	49.0723	82.7797	49.0723	83.1768	49.0723	82.5833	49.0723	83.3651	49.0723	82.3959	49.0723	83.5378	49.0723	82.2224	49.0723	83.6879	49.0723	82.0669	49.0723	83.8087	49.0723	81.933	49.0723	83.8941	49.0723	81.8237	49.0723	83.9392	49.0723	81.7408	49.0723	83.9405	49.0723	81.6859	49.0723	83.8967	49.0723	81.6592	49.0723	83.8092	49.0723	81.6608	49.0723	83.6819	49.0723	81.6896	49.0723	83.5216	49.0723	81.7446	49.0723	83.3367	49.0723	81.8242	49.0723	83.1369	49.0723	81.9266	49.0723	82.9317	49.0723	82.0506	49.0723	82.7293	49.0723	82.1945	49.0723	82.5363	49.0723	82.357
50.5371	83.1456	50.5371	82.9438	50.5371	83.3445	50.5371	82.7453	50.5371	83.5342	50.5371	82.5555	50.5371	83.7078	50.5371	82.3795	50.5371	83.8584	50.5371	82.2216	50.5371	83.9795	50.5371	82.0855	50.5371	84.0649	50.5371	81.9742	50.5371	84.1096	50.5371	81.8898	50.5371	84.1101	50.5371	81.8338	50.5371	84.0653	50.5371	81.8066	50.5371	83.9765	50.5371	81.8081	50.5371	83.8477	50.5371	81.8375	50.5371	83.6858	50.5371	81.8933	50.5371	83.4992	50.5371	81.974	50.5371	83.2978	50.5371	82.0778	50.5371	83.0911	50.5371	82.2031	50.5371	82.8873	50.5371	82.3484	50.5371	82.6928	50.5371	82.5123
52.7344	83.1754	52.7344	82.9777	52.7344	83.3702	52.7344	82.7832	52.7344	83.5558	52.7344	82.5973	52.7344	83.7254	52.7344	82.425	52.7344	83.8722	52.7344	82.2707	52.7344	83.9896	52.7344	82.1378	52.7344	84.0716	52.7344	82.0295	52.7344	84.1133	52.7344	81.9476	52.7344	84.1115	52.7344	81.8936	52.7344	84.0653	52.7344	81.868	52.7344	83.9762	52.7344	81.8704	52.7344	83.8485	52.7344	81.9	52.7344	83.6892	52.7344	81.9552	52.7344	83.5069	52.7344	82.0343	52.7344	83.3113	52.7344	82.1354	52.7344	83.1114	52.7344	82.2569	52.7344	82.9151	52.7344	82.3971	52.7344	82.7282	52.7344	82.5548
54.1992	83.0915	54.1992	82.8957	54.1992	83.2846	54.1992	82.7034	54.1992	83.4686	54.1992	82.5201	54.1992	83.6367	54.1992	82.3508	54.1992	83.7819	54.1992	82.1996	54.1992	83.8976	54.1992	82.0701	54.1992	83.9778	54.1992	81.9651	54.1992	84.0176	54.1992	81.8865	54.1992	84.0138	54.1992	81.8353	54.1992	83.9657	54.1992	81.8118	54.1992	83.8748	54.1992	81.8155	54.1992	83.746	54.1992	81.8453	54.1992	83.5864	54.1992	81.8994	54.1992	83.405	54.1992	81.9761	54.1992	83.2115	54.1992	82.0735	54.1992	83.0152	54.1992	82.19	54.1992	82.8238	54.1992	82.3244	54.1992	82.6429	54.1992	82.4757
56.3965	82.9971	56.3965	82.7972	56.3965	83.1946	56.3965	82.6014	56.3965	83.3831	56.3965	82.4154	56.3965	83.5555	56.3965	82.2444	56.3965	83.7048	56.3965	82.0928	56.3965	83.8242	56.3965	81.9643	56.3965	83.9077	56.3965	81.8618	56.3965	83.9502	56.3965	81.787	56.3965	83.9487	56.3965	81.7408	56.3965	83.9023	56.3965	81.7233	56.3965	83.813	56.3965	81.7335	56.3965	83.6854	56.3965	81.7699	56.3965	83.527	56.3965	81.8304	56.3965	83.3469	56.3965	81.9128	56.3965	83.1549	56.3965	82.0149	56.3965	82.9601	56.3965	82.1348	56.3965	82.7702	56.3965	82.2713	56.3965	82.5902	56.3965	82.4234
58.5938	82.9127	58.5938	82.7109	58.5938	83.1117	58.5938	82.5131	58.5938	83.3013	58.5938	82.3251	58.5938	83.4742	58.5938	82.1523	58.5938	83.6234	58.5938	81.9995	58.5938	83.7422	58.5938	81.8706	58.5938	83.8245	58.5938	81.7685	58.5938	83.8654	58.5938	81.6951	58.5938	83.8622	58.5938	81.6515	58.5938	83.8143	58.5938	81.6373	58.5938	83.7239	58.5938	81.6517	58.5938	83.5962	58.5938	81.6926	58.5938	83.4388	58.5938	81.7576	58.5938	83.2609	58.5938	81.844	58.5938	83.0724	58.5938	81.9491	58.5938	82.8821	58.5938	82.0707	58.5938	82.6968	58.5938	82.2072	58.5938	82.5212	58.5938	82.3576
60.0586	82.8445	60.0586	82.6416	60.0586	83.0442	60.0586	82.4422	60.0586	83.2336	60.0586	82.2524	60.0586	83.4057	60.0586	82.0779	60.0586	83.5531	60.0586	81.9235	60.0586	83.6691	60.0586	81.7933	60.0586	83.7476	60.0586	81.6902	60.0586	83.7839	60.0586	81.6162	60.0586	83.7752	60.0586	81.5722	60.0586	83.7212	60.0586	81.5579	60.0586	83.6245	60.0586	81.572	60.0586	83.4909	60.0586	81.6122	60.0586	83.3284	60.0586	81.6759	60.0586	83.1471	60.0586	81.7601	60.0586	82.9572	60.0586	81.8619	60.0586	82.7675	60.0586	81.9791	60.0586	82.585	60.0586	82.1105	60.0586	82.4137	60.0586	82.2554
62.2559	82.8752	62.2559	82.6662	62.2559	83.08	62.2559	82.4597	62.2559	83.2735	62.2559	82.2623	62.2559	83.4483	62.2559	82.0797	62.2559	83.5972	62.2559	81.9171	62.2559	83.7133	62.2559	81.7789	62.2559	83.7906	62.2559	81.6685	62.2559	83.8241	62.2559	81.5882	62.2559	83.8111	62.2559	81.539	62.2559	83.7512	62.2559	81.5207	62.2559	83.6472	62.2559	81.532	62.2559	83.5049	62.2559	81.5705	62.2559	83.3331	62.2559	81.6334	62.2559	83.1421	62.2559	81.7173	62.2559	82.9429	62.2559	81.8194	62.2559	82.745	62.2559	81.9374	62.2559	82.5557	62.2559	82.0702	62.2559	82.3793	62.2559	82.2174
64.4531	82.9542	64.4531	82.7475	64.4531	83.1556	64.4531	82.5422	64.4531	83.3448	64.4531	82.3443	64.4531	83.5148	64.4531	82.1597	64.4531	83.6583	64.4531	81.9933	64.4531	83.7686	64.4531	81.8497	64.4531	83.8397	64.4531	81.7322	64.4531	83.8669	64.4531	81.6436	64.4531	83.8473	64.4531	81.5851	64.4531	83.7807	64.4531	81.5571	64.4531	83.67	64.4531	81.5587	64.4531	83.5211	64.4531	81.588	64.4531	83.343	64.4531	81.6426	64.4531	83.1463	64.4531	81.7195	64.4531	82.942	64.4531	81.816	64.4531	82.74	64.4531	81.9301	64.4531	82.5476	64.4531	82.0604	64.4531	82.3692	64.4531	82.2067
66.6504	83.0002	66.6504	82.7944	66.6504	83.2001	66.6504	82.5893	66.6504	83.387	66.6504	82.391	66.6504	83.5538	66.6504	82.2052	66.6504	83.6932	66.6504	82.0368	66.6504	83.7981	66.6504	81.89	66.6504	83.8624	66.6504	81.7681	66.6504	83.8813	66.6504	81.6735	66.6504	83.8521	66.6504	81.6077	66.6504	83.7746	66.6504	81.571	66.6504	83.652	66.6504	81.5627	66.6504	83.491	66.6504	81.5812	66.6504	83.3011	66.6504	81.6245	66.6504	83.0938	66.6504	81.6901	66.6504	82.8811	66.6504	81.7758	66.6504	82.6734	66.6504	81.8801	66.6504	82.4786	66.6504	82.0021	66.6504	82.301	66.6504	82.1422
69.5801	83.1741	69.5801	82.9625	69.5801	83.3807	69.5801	82.7527	69.5801	83.575	69.5801	82.5512	69.5801	83.7495	69.5801	82.3637	69.5801	83.8968	69.5801	82.1953	69.5801	84.0096	69.5801	82.05	69.5801	84.0815	69.5801	81.9314	69.5801	84.1076	69.5801	81.8414	69.5801	84.0848	69.5801	81.7814	69.5801	84.013	69.5801	81.7512	69.5801	83.8952	69.5801	81.75	69.5801	83.7378	69.5801	81.776	69.5801	83.5502	69.5801	81.8267	69.5801	83.3439	69.5801	81.8997	69.5801	83.1307	69.5801	81.9925	69.5801	82.9213	69.5801	82.1035	69.5801	82.7233	69.5801	82.2319	69.5801	82.5415	69.5801	82.3777
71.7773	83.3232	71.7773	83.1137	71.7773	83.5283	71.7773	82.9068	71.7773	83.7216	71.7773	82.7089	71.7773	83.8956	71.7773	82.5259	71.7773	84.0427	71.7773	82.3629	71.7773	84.1557	71.7773	82.224	71.7773	84.2282	71.7773	82.1124	71.7773	84.2553	71.7773	82.0302	71.7773	84.2343	71.7773	81.9782	71.7773	84.1651	71.7773	81.9561	71.7773	84.0509	71.7773	81.9626	71.7773	83.8985	71.7773	81.9953	71.7773	83.7174	71.7773	82.0516	71.7773	83.5192	71.7773	82.1284	71.7773	83.3153	71.7773	82.223	71.7773	83.1158	71.7773	82.3334	71.7773	82.9279	71.7773	82.4587	71.7773	82.7553	71.7773	82.5991
73.9746	83.4995	73.9746	83.2922	73.9746	83.7034	73.9746	83.0887	73.9746	83.8963	73.9746	82.8956	73.9746	84.0706	73.9746	82.7189	73.9746	84.2185	73.9746	82.5636	73.9746	84.3328	73.9746	82.434	73.9746	84.4072	73.9746	82.3328	73.9746	84.4366	73.9746	82.2619	73.9746	84.4186	73.9746	82.2216	73.9746	84.3532	73.9746	82.211	73.9746	84.2439	73.9746	82.2281	73.9746	84.0978	73.9746	82.27	73.9746	83.9245	73.9746	82.3333	73.9746	83.7357	73.9746	82.4145	73.9746	83.5427	73.9746	82.5105	73.9746	83.3551	73.9746	82.6191	73.9746	83.1793	73.9746	82.7395	73.9746	83.0182	73.9746	82.8721
76.9043	83.6141	76.9043	83.4036	76.9043	83.8212	76.9043	83.197	76.9043	84.0169	76.9043	83.0016	76.9043	84.1934	76.9043	82.8236	76.9043	84.3428	76.9043	82.6686	76.9043	84.4579	76.9043	82.541	76.9043	84.5325	76.9043	82.444	76.9043	84.5619	76.9043	82.3793	76.9043	84.5436	76.9043	82.3468	76.9043	84.4783	76.9043	82.3454	76.9043	84.3698	76.9043	82.3723	76.9043	84.2257	76.9043	82.4239	76.9043	84.056	76.9043	82.496	76.9043	83.8725	76.9043	82.5844	76.9043	83.6864	76.9043	82.6853	76.9043	83.5068	76.9043	82.7962	76.9043	83.3393	76.9043	82.916	76.9043	83.1857	76.9043	83.0453
79.834	83.8567	79.834	83.6468	79.834	84.0619	79.834	83.4398	79.834	84.2545	79.834	83.2431	79.834	84.4265	79.834	83.0633	79.834	84.5701	79.834	82.9061	79.834	84.678	79.834	82.7765	79.834	84.7443	79.834	82.6778	79.834	84.7644	79.834	82.6121	79.834	84.7364	79.834	82.5794	79.834	84.6615	79.834	82.5786	79.834	84.5447	79.834	82.6066	79.834	84.3944	79.834	82.6595	79.834	84.2217	79.834	82.7324	79.834	84.0391	79.834	82.8204	79.834	83.858	79.834	82.9193	79.834	83.6869	79.834	83.026	79.834	83.5302	79.834	83.139	79.834	83.3883	79.834	83.259
82.7637	84.098	82.7637	83.8804	82.7637	84.3077	82.7637	83.6628	82.7637	84.5013	82.7637	83.4528	82.7637	84.6707	82.7637	83.2572	82.7637	84.8078	82.7637	83.0824	82.7637	84.9051	82.7637	82.9333	82.7637	84.9561	82.7637	82.8141	82.7637	84.9564	82.7637	82.727	82.7637	84.9036	82.7637	82.6728	82.7637	84.7995	82.7637	82.6506	82.7637	84.6495	82.7637	82.6577	82.7637	84.4634	82.7637	82.6903	82.7637	84.2548	82.7637	82.7438	82.7637	84.0386	82.7637	82.8134	82.7637	83.8292	82.7637	82.8951	82.7637	83.6373	82.7637	82.9862	82.7637	83.4685	82.7637	83.0862	82.7637	83.3229	82.7637	83.1971
85.6934	84.086	85.6934	83.8734	85.6934	84.2951	85.6934	83.6653	85.6934	84.4926	85.6934	83.4687	85.6934	84.6702	85.6934	83.2901	85.6934	84.8198	85.6934	83.135	85.6934	84.9336	85.6934	83.0077	85.6934	85.0049	85.6934	82.911	85.6934	85.0286	85.6934	82.8463	85.6934	85.0022	85.6934	82.8132	85.6934	84.9262	85.6934	82.8099	85.6934	84.8049	85.6934	82.8334	85.6934	84.6468	85.6934	82.8799	85.6934	84.4632	85.6934	82.9448	85.6934	84.2674	85.6934	83.0242	85.6934	84.0724	85.6934	83.1145	85.6934	83.8883	85.6934	83.2139	85.6934	83.7211	85.6934	83.3219	85.6934	83.5724	85.6934	83.4404
88.623	84.056	88.623	83.839	88.623	84.2701	88.623	83.6277	88.623	84.4725	88.623	83.4301	88.623	84.6543	88.623	83.2533	88.623	84.8072	88.623	83.1036	88.623	84.9233	88.623	82.9855	88.623	84.9961	88.623	82.902	88.623	85.0209	88.623	82.8541	88.623	84.9958	88.623	82.8409	88.623	84.9223	88.623	82.8594	88.623	84.8058	88.623	82.9055	88.623	84.6559	88.623	82.9736	88.623	84.4848	88.623	83.0582	88.623	84.3059	88.623	83.1536	88.623	84.1315	88.623	83.2552	88.623	83.9699	88.623	83.3599	88.623	83.8247	88.623	83.4668	88.623	83.6952	88.623	83.5774
91.5527	83.9854	91.5527	83.7592	91.5527	84.2071	91.5527	83.5381	91.5527	84.415	91.5527	83.3313	91.5527	84.5998	91.5527	83.1472	91.5527	84.7528	91.5527	82.9932	91.5527	84.8666	91.5527	82.8749	91.5527	84.9347	91.5527	82.796	91.5527	84.9534	91.5527	82.7574	91.5527	84.9215	91.5527	82.7577	91.5527	84.8417	91.5527	82.793	91.5527	84.721	91.5527	82.8575	91.5527	84.5701	91.5527	82.9443	91.5527	84.4027	91.5527	83.046	91.5527	84.2329	91.5527	83.1554	91.5527	84.0724	91.5527	83.2667	91.5527	83.9281	91.5527	83.3757	91.5527	83.8013	91.5527	83.4809	91.5527	83.6885	91.5527	83.5838
94.4824	84.1881	94.4824	83.9512	94.4824	84.4148	94.4824	83.7139	94.4824	84.622	94.4824	83.486	94.4824	84.8006	94.4824	83.2771	94.4824	84.9423	94.4824	83.096	94.4824	85.0398	94.4824	82.9503	94.4824	85.0872	94.4824	82.8455	94.4824	85.0808	94.4824	82.7841	94.4824	85.0202	94.4824	82.766	94.4824	84.9088	94.4824	82.7877	94.4824	84.7552	94.4824	82.8429	94.4824	84.5721	94.4824	82.9239	94.4824	84.3758	94.4824	83.0218	94.4824	84.183	94.4824	83.1279	94.4824	84.0073	94.4824	83.2349	94.4824	83.8565	94.4824	83.3379	94.4824	83.7307	94.4824	83.4351	94.4824	83.6244	94.4824	83.5287
98.1445	84.3099	98.1445	84.0803	98.1445	84.5296	98.1445	83.8496	98.1445	84.7304	98.1445	83.6262	98.1445	84.9036	98.1445	83.4183	98.1445	85.0407	98.1445	83.2333	98.1445	85.1339	98.1445	83.0775	98.1445	85.1765	98.1445	82.9557	98.1445	85.1639	98.1445	82.8706	98.1445	85.0945	98.1445	82.8227	98.1445	84.9707	98.1445	82.8099	98.1445	84.7998	98.1445	82.8283	98.1445	84.594	98.1445	82.8722	98.1445	84.3696	98.1445	82.9349	98.1445	84.1444	98.1445	83.0101	98.1445	83.9345	98.1445	83.0922	98.1445	83.7506	98.1445	83.178	98.1445	83.5965	98.1445	83.267	98.1445	83.4693	98.1445	83.3621
101.807	84.1399	101.807	83.909	101.807	84.3612	101.807	83.6779	101.807	84.5634	101.807	83.4563	101.807	84.7374	101.807	83.2532	101.807	84.8744	101.807	83.0768	101.807	84.9668	101.807	82.934	101.807	85.0082	101.807	82.8297	101.807	84.9946	101.807	82.7662	101.807	84.9252	101.807	82.743	101.807	84.8037	101.807	82.7567	101.807	84.6389	101.807	82.8018	101.807	84.4445	101.807	82.8706	101.807	84.2379	101.807	82.9551	101.807	84.0372	101.807	83.0474	101.807	83.8572	101.807	83.1406	101.807	83.706	101.807	83.2302	101.807	83.5837	101.807	83.3151	101.807	83.484	101.807	83.3976
105.469	84.0775	105.469	83.8381	105.469	84.3061	105.469	83.5982	105.469	84.514	105.469	83.3677	105.469	84.6918	105.469	83.1564	105.469	84.8303	105.469	82.9732	105.469	84.9215	105.469	82.8255	105.469	84.9587	105.469	82.7184	105.469	84.9376	105.469	82.6545	105.469	84.8574	105.469	82.6327	105.469	84.722	105.469	82.6493	105.469	84.5406	105.469	82.6975	105.469	84.3285	105.469	82.769	105.469	84.1049	105.469	82.8546	105.469	83.8903	105.469	82.9455	105.469	83.7016	105.469	83.0345	105.469	83.5481	105.469	83.1169	105.469	83.4297	105.469	83.192	105.469	83.3387	105.469	83.2632
109.131	84.0449	109.131	83.796	109.131	84.2816	109.131	83.5456	109.131	84.4963	109.131	83.3042	109.131	84.6794	109.131	83.0823	109.131	84.8219	109.131	82.8897	109.131	84.9159	109.131	82.7348	109.131	84.955	109.131	82.6236	109.131	84.9349	109.131	82.5588	109.131	84.8551	109.131	82.5399	109.131	84.7194	109.131	82.5624	109.131	84.5375	109.131	82.6192	109.131	84.3247	109.131	82.7008	109.131	84.1005	109.131	82.7973	109.131	83.8855	109.131	82.8989	109.131	83.6963	109.131	82.998	109.131	83.542	109.131	83.0893	109.131	83.4222	109.131	83.1718	109.131	83.3284	109.131	83.2488
112.793	83.9823	112.793	83.734	112.793	84.2168	112.793	83.4826	112.793	84.4277	112.793	83.2387	112.793	84.6054	112.793	83.0134	112.793	84.7414	112.793	82.817	112.793	84.8278	112.793	82.6584	112.793	84.8585	112.793	82.5445	112.793	84.8295	112.793	82.4788	112.793	84.7408	112.793	82.4608	112.793	84.597	112.793	82.4864	112.793	84.4089	112.793	82.5477	112.793	84.1929	112.793	82.635	112.793	83.9697	112.793	82.7372	112.793	83.7606	112.793	82.8438	112.793	83.5819	112.793	82.9459	112.793	83.4413	112.793	83.0375	112.793	83.3362	112.793	83.1169	112.793	83.256	112.793	83.187
116.455	83.8595	116.455	83.6102	116.455	84.0932	116.455	83.3562	116.455	84.3012	116.455	83.1086	116.455	84.4737	116.455	82.8789	116.455	84.6021	116.455	82.6778	116.455	84.6784	116.455	82.5151	116.455	84.6965	116.455	82.3979	116.455	84.6528	116.455	82.33	116.455	84.5477	116.455	82.3112	116.455	84.3868	116.455	82.337	116.455	84.1823	116.455	82.3995	116.455	83.953	116.455	82.488	116.455	83.7218	116.455	82.5909	116.455	83.5119	116.455	82.6968	116.455	83.34	116.455	82.7961	116.455	83.2127	116.455	82.8821	116.455	83.1246	116.455	82.9522	116.455	83.0622	116.455	83.0094
120.85	83.8433	120.85	83.5881	120.85	84.0809	120.85	83.3267	120.85	84.2901	120.85	83.0713	120.85	84.461	120.85	82.8345	120.85	84.5845	120.85	82.6284	120.85	84.6525	120.85	82.4637	120.85	84.6585	120.85	82.3485	120.85	84.5989	120.85	82.2865	120.85	84.474	120.85	82.2768	120.85	84.29	120.85	82.3137	120.85	84.0607	120.85	82.3873	120.85	83.8074	120.85	82.4848	120.85	83.5571	120.85	82.5928	120.85	83.3371	120.85	82.6982	120.85	83.1674	120.85	82.7902	120.85	83.055	120.85	82.8614	120.85	82.9919	120.85	82.9095	120.85	82.9602	120.85	82.9387
125.244	83.8078	125.244	83.5483	125.244	84.0468	125.244	83.2793	125.244	84.255	125.244	83.0131	125.244	84.4231	125.244	82.7624	125.244	84.5422	125.244	82.5401	125.244	84.6046	125.244	82.3582	125.244	84.6036	125.244	82.2261	125.244	84.5352	125.244	82.149	125.244	84.3991	125.244	82.1271	125.244	84.2009	125.244	82.1547	125.244	83.9536	125.244	82.2215	125.244	83.6787	125.244	82.3139	125.244	83.4043	125.244	82.417	125.244	83.1601	125.244	82.5167	125.244	82.9695	125.244	82.6016	125.244	82.8422	125.244	82.6643	125.244	82.7719	125.244	82.7032	125.244	82.7402	125.244	82.724
129.639	83.6191	129.639	83.3637	129.639	83.8533	129.639	83.0979	129.639	84.0566	129.639	82.8334	129.639	84.2196	129.639	82.5826	129.639	84.3339	129.639	82.3581	129.639	84.3916	129.639	82.1718	129.639	84.3861	129.639	82.0331	129.639	84.3132	129.639	81.9476	129.639	84.1724	129.639	81.9159	129.639	83.9691	129.639	81.9328	129.639	83.7159	129.639	81.9885	129.639	83.4341	129.639	82.07	129.639	83.1518	129.639	82.1625	129.639	82.899	129.639	82.2525	129.639	82.6996	129.639	82.3287	129.639	82.5645	129.639	82.3844	129.639	82.4883	129.639	82.4183	129.639	82.4533	129.639	82.4367
134.033	83.3871	134.033	83.1254	134.033	83.6282	134.033	82.855	134.033	83.8384	134.033	82.5884	134.033	84.0081	134.033	82.3393	134.033	84.1284	134.033	82.1214	134.033	84.1916	134.033	81.9471	134.033	84.1915	134.033	81.8258	134.033	84.1241	134.033	81.7622	134.033	83.9898	134.033	81.7553	134.033	83.7947	134.033	81.7983	134.033	83.5528	134.033	81.8794	134.033	83.2863	134.033	81.9842	134.033	83.0238	134.033	82.097	134.033	82.7943	134.033	82.2039	134.033	82.6198	134.033	82.2934	134.033	82.5078	134.033	82.3585	134.033	82.4501	134.033	82.3977	134.033	82.4272	134.033	82.4163
138.428	83.2547	138.428	82.9794	138.428	83.5055	138.428	82.6923	138.428	83.7209	138.428	82.4075	138.428	83.8913	138.428	82.1409	138.428	84.0083	138.428	81.9087	138.428	84.0646	138.428	81.7259	138.428	84.0545	138.428	81.6044	138.428	83.9752	138.428	81.55	138.428	83.8284	138.428	81.5614	138.428	83.6221	138.428	81.6302	138.428	83.3728	138.428	81.7419	138.428	83.1059	138.428	81.8788	138.428	82.8524	138.428	82.0226	138.428	82.6428	138.428	82.1566	138.428	82.4971	138.428	82.2672	138.428	82.4185	138.428	82.3456	138.428	82.393	138.428	82.389	138.428	82.396	138.428	82.4016
143.555	83.1335	143.555	82.8446	143.555	83.3914	143.555	82.5376	143.555	83.6078	143.555	82.2275	143.555	83.7735	143.555	81.9315	143.555	83.8804	143.555	81.6685	143.555	83.9217	143.555	81.4568	143.555	83.8918	143.555	81.3117	143.555	83.7882	143.555	81.2417	143.555	83.6128	143.555	81.247	143.555	83.3744	143.555	81.3184	143.555	83.0913	143.555	81.4392	143.555	82.7921	143.555	81.5887	143.555	82.5123	143.555	81.7452	143.555	82.287	143.555	81.8891	143.555	82.1391	143.555	82.0048	143.555	82.0709	143.555	82.082	143.555	82.0643	143.555	82.1172	143.555	82.0892	143.555	82.1148
148.682	83.1052	148.682	82.8052	148.682	83.3677	148.682	82.4799	148.682	83.5827	148.682	82.1445	148.682	83.7417	148.682	81.8172	148.682	83.8374	148.682	81.5189	148.682	83.8638	148.682	81.2712	148.682	83.816	148.682	81.0932	148.682	83.6919	148.682	80.9974	148.682	83.4941	148.682	80.9868	148.682	83.2324	148.682	81.053	148.682	82.9269	148.682	81.1784	148.682	82.6082	148.682	81.3396	148.682	82.3148	148.682	81.5121	148.682	82.0836	148.682	81.6733	148.682	81.9378	148.682	81.8052	148.682	81.8772	148.682	81.8954	148.682	81.8798	148.682	81.9391	148.682	81.9118	148.682	81.9399
153.809	83.2108	153.809	82.9066	153.809	83.4709	153.809	82.5693	153.809	83.678	153.809	82.2131	153.809	83.8246	153.809	81.8557	153.809	83.9044	153.809	81.5184	153.809	83.9116	153.809	81.2246	153.809	83.8414	153.809	80.9971	153.809	83.6918	153.809	80.8533	153.809	83.4648	153.809	80.801	153.809	83.1701	153.809	80.8354	153.809	82.828	153.809	80.9402	153.809	82.4708	153.809	81.091	153.809	82.14	153.809	81.2606	153.809	81.8769	153.809	81.4235	153.809	81.7082	153.809	81.5587	153.809	81.6351	153.809	81.6518	153.809	81.6335	153.809	81.6966	153.809	81.6662	153.809	81.6964
159.668	83.5	159.668	83.2023	159.668	83.7515	159.668	82.8687	159.668	83.9488	159.668	82.5129	159.668	84.0852	159.668	82.1522	159.668	84.1553	159.668	81.808	159.668	84.154	159.668	81.5045	159.668	84.0777	159.668	81.2659	159.668	83.9249	159.668	81.1115	159.668	83.6988	159.668	81.0512	159.668	83.41	159.668	81.082	159.668	83.0792	159.668	81.1882	159.668	82.7387	159.668	81.3452	159.668	82.4287	159.668	81.525	159.668	82.1874	159.668	81.7008	159.668	82.0376	159.668	81.8505	159.668	81.9767	159.668	81.9586	159.668	81.9793	159.668	82.0178	159.668	82.0088	159.668	82.0301
164.795	83.6217	164.795	83.332	164.795	83.8638	164.795	83.005	164.795	84.0505	164.795	82.6538	164.795	84.1753	164.795	82.2956	164.795	84.2327	164.795	81.9514	164.795	84.218	164.795	81.6455	164.795	84.1282	164.795	81.4026	164.795	83.9626	164.795	81.2436	164.795	83.7259	164.795	81.1801	164.795	83.4309	164.795	81.2108	164.795	83.1013	164.795	81.3213	164.795	82.7725	164.795	81.4872	164.795	82.4863	164.795	81.6798	164.795	82.2794	164.795	81.871	164.795	82.1689	164.795	82.0369	164.795	82.1449	164.795	82.1599	164.795	82.1755	164.795	82.2302	164.795	82.2212	164.795	82.2471
170.654	83.4539	170.654	83.1447	170.654	83.7108	170.654	82.7946	170.654	83.9064	170.654	82.4189	170.654	84.0337	170.654	82.0375	170.654	84.0872	170.654	81.6749	170.654	84.0624	170.654	81.3591	170.654	83.9569	170.654	81.1185	170.654	83.7714	170.654	80.9762	170.654	83.5125	170.654	80.9438	170.654	83.1967	170.654	81.0173	170.654	82.8532	170.654	81.1773	170.654	82.5239	170.654	81.3946	170.654	82.2569	170.654	81.6355	170.654	82.0907	170.654	81.8686	170.654	82.0368	170.654	82.0671	170.654	82.0745	170.654	82.2113	170.654	82.1607	170.654	82.2893	170.654	82.2479	170.654	82.2985
176.514	82.976	176.514	82.6367	176.514	83.2544	176.514	82.2483	176.514	83.4631	176.514	81.8266	176.514	83.5955	176.514	81.393	176.514	83.6462	176.514	80.9749	176.514	83.6111	176.514	80.6052	176.514	83.488	176.514	80.3186	176.514	83.2779	176.514	80.1451	176.514	82.9884	176.514	80.1014	176.514	82.637	176.514	80.1846	176.514	82.2561	176.514	80.3722	176.514	81.8928	176.514	80.6286	176.514	81.6019	176.514	80.9134	176.514	81.4272	176.514	81.1889	176.514	81.381	176.514	81.424	176.514	81.437	176.514	81.5958	176.514	81.5439	176.514	81.6904	176.514	81.6473	176.514	81.7045
183.105	82.313	183.105	81.939	183.105	82.614	183.105	81.5022	183.105	82.8348	183.105	81.0172	183.105	82.97	183.105	80.5046	183.105	83.0158	183.105	79.9932	183.105	82.9698	183.105	79.5205	183.105	82.8313	183.105	79.1308	183.105	82.6031	183.105	78.868	183.105	82.2945	183.105	78.7633	183.105	81.9252	183.105	78.8233	183.105	81.529	183.105	79.026	183.105	81.1543	183.105	79.328	183.105	80.8555	183.105	79.678	183.105	80.6737	183.105	80.0275	183.105	80.617	183.105	80.3378	183.105	80.6551	183.105	80.5809	183.105	80.7347	183.105	80.7401	183.105	80.8005	183.105	80.8105
189.697	81.8756	189.697	81.5105	189.697	82.1622	189.697	81.0767	189.697	82.3629	189.697	80.5876	189.697	82.4724	189.697	80.0612	189.697	82.4868	189.697	79.5224	189.697	82.404	189.697	79.0042	189.697	82.2242	189.697	78.5477	189.697	81.9517	189.697	78.1985	189.697	81.5986	189.697	77.997	189.697	81.1884	189.697	77.9656	189.697	80.7603	189.697	78.0983	189.697	80.3683	189.697	78.3613	189.697	80.0696	189.697	78.7039	189.697	79.9022	189.697	79.0719	189.697	79.8648	189.697	79.418	189.697	79.916	189.697	79.7057	189.697	79.9947	189.697	79.911	189.697	80.0436	189.697	80.0226
196.289	81.3564	196.289	80.9768	196.289	81.6504	196.289	80.5226	196.289	81.8508	196.289	80.0088	196.289	81.9521	196.289	79.4561	196.289	81.9511	196.289	78.8921	196.289	81.8469	196.289	78.3535	196.289	81.6416	196.289	77.8852	196.289	81.3426	196.289	77.5366	196.289	80.9657	196.289	77.3505	196.289	80.5398	196.289	77.3492	196.289	80.1105	196.289	77.5234	196.289	79.7376	196.289	77.8341	196.289	79.4797	196.289	78.2249	196.289	79.369	196.289	78.6373	196.289	79.3927	196.289	79.0207	196.289	79.4976	196.289	79.3364	196.289	79.6158	196.289	79.5589	196.289	79.6883	196.289	79.6756
202.881	81.0814	202.881	80.6827	202.881	81.3831	202.881	80.1966	202.881	81.581	202.881	79.6367	202.881	81.6708	202.881	79.0222	202.881	81.6504	202.881	78.3801	202.881	81.5202	202.881	77.7479	202.881	81.284	202.881	77.1765	202.881	80.951	202.881	76.7273	202.881	80.5397	202.881	76.4611	202.881	80.0822	202.881	76.4175	202.881	79.6281	202.881	76.5948	202.881	79.2406	202.881	76.9479	202.881	78.9801	202.881	77.4054	202.881	78.8761	202.881	77.8932	202.881	78.9095	202.881	78.3491	202.881	79.0204	202.881	78.728	202.881	79.136	202.881	79.0016	202.881	79.1949	202.881	79.1566
210.205	80.9881	210.205	80.6478	210.205	81.2305	210.205	80.2184	210.205	81.3686	210.205	79.7109	210.205	81.398	210.205	79.1397	210.205	81.3168	210.205	78.5236	210.205	81.1262	210.205	77.8885	210.205	80.8317	210.205	77.2708	210.205	80.4455	210.205	76.7206	210.205	79.9907	210.205	76.3002	210.205	79.5063	210.205	76.0727	210.205	79.0488	210.205	76.0772	210.205	78.6852	210.205	76.307	210.205	78.4708	210.205	76.7067	210.205	78.4203	210.205	77.1945	210.205	78.4963	210.205	77.6897	210.205	78.6269	210.205	78.1279	210.205	78.7365	210.205	78.466	210.205	78.7661	210.205	78.6805
217.529	81.0863	217.529	80.7939	217.529	81.2818	217.529	80.4152	217.529	81.3727	217.529	79.9633	217.529	81.3541	217.529	79.4544	217.529	81.2245	217.529	78.9086	217.529	80.9866	217.529	78.3513	217.529	80.6491	217.529	77.8156	217.529	80.2295	217.529	77.3442	217.529	79.7584	217.529	76.9875	217.529	79.2836	217.529	76.7953	217.529	78.8689	217.529	76.7991	217.529	78.5815	217.529	76.9951	217.529	78.4653	217.529	77.3403	217.529	78.5154	217.529	77.767	217.529	78.678	217.529	78.2037	217.529	78.8754	217.529	78.5902	217.529	79.0354	217.529	78.8836	217.529	79.1061	217.529	79.0584
225.586	81.8229	225.586	81.6044	225.586	81.9321	225.586	81.2863	225.586	81.9245	225.586	80.8801	225.586	81.7948	225.586	80.3997	225.586	81.5413	225.586	79.8619	225.586	81.1669	225.586	79.2883	225.586	80.6818	225.586	78.709	225.586	80.1088	225.586	78.1666	225.586	79.4904	225.586	77.7178	225.586	78.896	225.586	77.4276	225.586	78.4205	225.586	77.3485	225.586	78.1584	225.586	77.4928	225.586	78.1549	225.586	77.8198	225.586	78.3729	225.586	78.2505	225.586	78.7135	225.586	78.6979	225.586	79.067	225.586	79.0888	225.586	79.3485	225.586	79.3716	225.586	79.5061	225.586	79.5151
232.91	82.6711	232.91	82.4772	232.91	82.7605	232.91	82.1897	232.91	82.736	232.91	81.8208	232.91	82.5902	232.91	81.3832	232.91	82.3186	232.91	80.891	232.91	81.9207	232.91	80.36	232.91	81.4026	232.91	79.8106	232.91	80.7813	232.91	79.2712	232.91	80.0922	232.91	78.7825	232.91	79.3986	232.91	78.3974	232.91	78.7965	232.91	78.1713	232.91	78.3967	232.91	78.1398	232.91	78.2744	232.91	78.2959	232.91	78.4164	232.91	78.5865	232.91	78.726	232.91	78.9324	232.91	79.0804	232.91	79.2544	232.91	79.3794	232.91	79.4903	232.91	79.5617	232.91	79.5993
241.699	82.8988	241.699	82.7318	241.699	82.9625	241.699	82.472	241.699	82.9142	241.699	82.1309	241.699	82.748	241.699	81.7204	241.699	82.4612	241.699	81.2534	241.699	82.0565	241.699	80.7443	241.699	81.5446	241.699	80.2119	241.699	80.9484	241.699	79.683	241.699	80.3099	241.699	79.198	241.699	79.6963	241.699	78.8112	241.699	79.1976	241.699	78.5818	241.699	78.9035	241.699	78.5505	241.699	78.8596	241.699	78.7134	241.699	79.0355	241.699	79.0171	241.699	79.3406	241.699	79.3799	241.699	79.6696	241.699	79.7204	241.699	79.938	241.699	79.9754	241.699	80.0918	241.699	80.1053
249.756	83.5191	249.756	83.4242	249.756	83.5106	249.756	83.2373	249.756	83.3888	249.756	82.97	249.756	83.1463	249.756	82.6333	249.756	82.78	249.756	82.2372	249.756	82.2928	249.756	81.7904	249.756	81.6976	249.756	81.3027	249.756	81.0232	249.756	80.788	249.756	80.3229	249.756	80.2705	249.756	79.68	249.756	79.7902	249.756	79.2	249.756	79.4041	249.756	78.9731	249.756	79.1743	249.756	79.021	249.756	79.14	249.756	79.2782	249.756	79.2907	249.756	79.6308	249.756	79.5647	249.756	79.9701	249.756	79.8755	249.756	80.2193	249.756	80.1427	249.756	80.3364	249.756	80.3075
258.545	84.0217	258.545	83.9473	258.545	83.9972	258.545	83.7887	258.545	83.8608	258.545	83.5613	258.545	83.6024	258.545	83.2797	258.545	83.2155	258.545	82.9569	258.545	82.7001	258.545	82.6036	258.545	82.0651	258.545	82.2288	258.545	81.3361	258.545	81.8414	258.545	80.564	258.545	81.454	258.545	79.8362	258.545	81.0863	258.545	79.2724	258.545	80.7668	258.545	78.9868	258.545	80.5295	258.545	79.0193	258.545	80.4019	258.545	79.3034	258.545	80.3904	258.545	79.7107	258.545	80.4706	258.545	80.1187	258.545	80.5927	258.545	80.4458	258.545	80.697	258.545	80.6518	258.545	80.7296
268.066	83.9774	268.066	83.9181	268.066	83.9325	268.066	83.7665	268.066	83.7737	268.066	83.536	268.066	83.494	268.066	83.2402	268.066	83.0913	268.066	82.8929	268.066	82.5698	268.066	82.508	268.066	81.9449	268.066	82.1007	268.066	81.2493	268.066	81.6893	268.066	80.542	268.066	81.2988	268.066	79.914	268.066	80.9622	268.066	79.4771	268.066	80.7179	268.066	79.3211	268.066	80.5992	268.066	79.4582	268.066	80.6177	268.066	79.8114	268.066	80.7528	268.066	80.2608	268.066	80.9547	268.066	80.6974	268.066	81.1598	268.066	81.0473	268.066	81.3085	268.066	81.2706	268.066	81.3547
277.588	84.2884	277.588	84.271	277.588	84.1969	277.588	84.1587	277.588	83.9847	277.588	83.9663	277.588	83.6434	277.588	83.7074	277.588	83.1703	277.588	83.3938	277.588	82.5714	277.588	83.0346	277.588	81.8663	277.588	82.6372	277.588	81.0971	277.588	82.2103	277.588	80.3376	277.588	81.7684	277.588	79.6972	277.588	81.3371	277.588	79.2974	277.588	80.9571	277.588	79.214	277.588	80.6786	277.588	79.4247	277.588	80.5446	277.588	79.8224	277.588	80.5662	277.588	80.2784	277.588	80.7101	277.588	80.6905	277.588	80.9095	277.588	80.9953	277.588	81.0895	277.588	81.1623	277.588	81.1875
287.109	84.2711	287.109	84.2723	287.109	84.1543	287.109	84.1733	287.109	83.9094	287.109	83.9914	287.109	83.5284	287.109	83.7442	287.109	83.0095	287.109	83.4476	287.109	82.3604	287.109	83.115	287.109	81.6045	287.109	82.7567	287.109	80.791	287.109	82.3817	287.109	80.0062	287.109	82.0013	287.109	79.3761	287.109	81.6339	287.109	79.0325	287.109	81.3082	287.109	79.0409	287.109	81.0616	287.109	79.3508	287.109	80.9282	287.109	79.8311	287.109	80.921	287.109	80.3458	287.109	81.0186	287.109	80.797	287.109	81.1687	287.109	81.1291	287.109	81.306	287.109	81.3197	287.109	81.3708
297.363	84.9366	297.363	84.9398	297.363	84.7976	297.363	84.8236	297.363	84.509	297.363	84.6069	297.363	84.0606	297.363	84.3095	297.363	83.4468	297.363	83.9511	297.363	82.6706	297.363	83.55	297.363	81.7501	297.363	83.1216	297.363	80.7331	297.363	82.6793	297.363	79.7188	297.363	82.2367	297.363	78.8735	297.363	81.8111	297.363	78.3941	297.363	81.4278	297.363	78.3855	297.363	81.12	297.363	78.7678	297.363	80.9202	297.363	79.3473	297.363	80.8448	297.363	79.9468	297.363	80.8795	297.363	80.4569	297.363	80.9783	297.363	80.8267	297.363	81.0779	297.363	81.0425	297.363	81.1157
307.617	85.2229	307.617	85.1933	307.617	85.1224	307.617	85.0518	307.617	84.876	307.617	84.8176	307.617	84.4712	307.617	84.5096	307.617	83.9005	307.617	84.1445	307.617	83.1646	307.617	83.7363	307.617	82.279	307.617	83.2959	307.617	81.2863	307.617	82.833	307.617	80.2763	307.617	82.3605	307.617	79.4021	307.617	81.8992	307.617	78.8536	307.617	81.4823	307.617	78.751	307.617	81.1528	307.617	79.0451	307.617	80.9509	307.617	79.5611	307.617	80.8929	307.617	80.1224	307.617	80.956	307.617	80.6127	307.617	81.083	307.617	80.9736	307.617	81.2032	307.617	81.185	307.617	81.2527
318.604	85.4427	318.604	85.3966	318.604	85.3511	318.604	85.233	318.604	85.1035	318.604	84.9732	318.604	84.6841	318.604	84.6376	318.604	84.0805	318.604	84.2446	318.604	83.2867	318.604	83.8088	318.604	82.3088	318.604	83.3405	318.604	81.18	318.604	82.8469	318.604	79.9885	318.604	82.3364	318.604	78.9139	318.604	81.8244	318.604	78.2159	318.604	81.34	318.604	78.0836	318.604	80.9281	318.604	78.4527	318.604	80.6397	318.604	79.0739	318.604	80.509	318.604	79.7169	318.604	80.5285	318.604	80.2504	318.604	80.645	318.604	80.6203	318.604	80.7803	318.604	80.8171	318.604	80.8576
329.59	85.4817	329.59	85.406	329.59	85.4411	329.59	85.2342	329.59	85.2657	329.59	84.9876	329.59	84.9399	329.59	84.6863	329.59	84.4516	329.59	84.3475	329.59	83.7938	329.59	83.9831	329.59	82.9691	329.59	83.5988	329.59	81.9986	329.59	83.195	329.59	80.9414	329.59	82.7711	329.59	79.9216	329.59	82.3314	329.59	79.1398	329.59	81.8928	329.59	78.799	329.59	81.4893	329.59	78.9458	329.59	81.1688	329.59	79.4202	329.59	80.9758	329.59	79.9968	329.59	80.9243	329.59	80.5113	329.59	80.9817	329.59	80.8818	329.59	81.0787	329.59	81.0848	329.59	81.1357
341.309	85.341	341.309	85.2968	341.309	85.2591	341.309	85.148	341.309	85.0311	341.309	84.9156	341.309	84.6399	341.309	84.6183	341.309	84.0728	341.309	84.2693	341.309	83.3257	341.309	83.8761	341.309	82.4102	341.309	83.44	341.309	81.3722	341.309	82.9607	341.309	80.3228	341.309	82.4436	341.309	79.4678	341.309	81.9107	341.309	79.0621	341.309	81.4125	341.309	79.225	341.309	81.031	341.309	79.8155	341.309	80.8559	341.309	80.5697	341.309	80.9317	341.309	81.2795	341.309	81.2175	341.309	81.8317	341.309	81.605	341.309	82.1779	341.309	81.9731	341.309	82.3061	341.309	82.227
353.76	84.8755	353.76	84.7345	353.76	84.9162	353.76	84.5213	353.76	84.8305	353.76	84.264	353.76	84.5941	353.76	83.9878	353.76	84.1846	353.76	83.7098	353.76	83.5813	353.76	83.4348	353.76	82.7667	353.76	83.1532	353.76	81.7345	353.76	82.8432	353.76	80.512	353.76	82.4784	353.76	79.2168	353.76	82.0388	353.76	78.1454	353.76	81.5256	353.76	77.733	353.76	80.9797	353.76	78.1453	353.76	80.4949	353.76	79.0402	353.76	80.202	353.76	79.9762	353.76	80.1954	353.76	80.7056	353.76	80.4482	353.76	81.1397	353.76	80.8185	353.76	81.2707	353.76	81.1366
366.211	84.733	366.211	84.627	366.211	84.7205	366.211	84.4245	366.211	84.5723	366.211	84.1516	366.211	84.2751	366.211	83.8364	366.211	83.8181	366.211	83.5036	366.211	83.1922	366.211	83.1685	366.211	82.3916	366.211	82.831	366.211	81.4189	366.211	82.4754	366.211	80.3022	366.211	82.0747	366.211	79.131	366.211	81.6022	366.211	78.1101	366.211	81.0463	366.211	77.5493	366.211	80.4307	366.211	77.6431	366.211	79.8341	366.211	78.236	366.211	79.3905	366.211	78.982	366.211	79.2291	366.211	79.6143	366.211	79.3674	366.211	80.0038	366.211	79.6788	366.211	80.1157	366.211	79.9783
378.662	85.1802	378.662	84.9708	378.662	85.2688	378.662	84.6693	378.662	85.214	378.662	84.3109	378.662	84.9986	378.662	83.9345	378.662	84.6088	378.662	83.5759	378.662	84.0335	378.662	83.258	378.662	83.2651	378.662	82.9828	378.662	82.3039	378.662	82.729	378.662	81.1734	378.662	82.4595	378.662	79.9542	378.662	82.1346	378.662	78.8404	378.662	81.7282	378.662	78.148	378.662	81.244	378.662	78.1135	378.662	80.7316	378.662	78.6207	378.662	80.2901	378.662	79.3215	378.662	80.0351	378.662	79.9334	378.662	80.0205	378.662	80.3214	378.662	80.1828	378.662	80.4558	378.662	80.3766
392.578	84.9253	392.578	84.7233	392.578	84.9958	392.578	84.4041	392.578	84.9279	392.578	83.9929	392.578	84.7198	392.578	83.527	392.578	84.3713	392.578	83.0541	392.578	83.8826	392.578	82.6233	392.578	83.2531	392.578	82.2696	392.578	82.4845	392.578	81.998	392.578	81.59	392.578	81.7798	392.578	80.6147	392.578	81.5643	392.578	79.67	392.578	81.3014	392.578	78.9534	392.578	80.9637	392.578	78.6722	392.578	80.566	392.578	78.8573	392.578	80.1751	392.578	79.3093	392.578	79.896	392.578	79.7713	392.578	79.8116	392.578	80.0757	392.578	79.9092	392.578	80.1658	392.578	80.0752
405.762	85.3346	405.762	85.1784	405.762	85.3312	405.762	84.8806	405.762	85.1553	405.762	84.4653	405.762	84.7998	405.762	83.9617	405.762	84.2635	405.762	83.4026	405.762	83.5527	405.762	82.8211	405.762	82.6864	405.762	82.2456	405.762	81.707	405.762	81.6959	405.762	80.6998	405.762	81.1818	405.762	79.813	405.762	80.7092	405.762	79.2433	405.762	80.2929	405.762	79.1335	405.762	79.9701	405.762	79.4491	405.762	79.8011	405.762	80.0013	405.762	79.8414	405.762	80.5831	405.762	80.094	405.762	81.0509	405.762	80.4869	405.762	81.3275	405.762	80.9026	405.762	81.3842	405.762	81.2285
420.41	85.4749	420.41	85.2212	420.41	85.6027	420.41	84.8718	420.41	85.5795	420.41	84.462	420.41	85.383	420.41	84.0297	420.41	84.9925	420.41	83.6095	420.41	84.3861	420.41	83.2231	420.41	83.5392	420.41	82.8698	420.41	82.4261	420.41	82.5215	420.41	81.032	420.41	82.1269	420.41	79.3968	420.41	81.6229	420.41	77.7401	420.41	80.9499	420.41	76.6274	420.41	80.0744	420.41	76.6326	420.41	79.0312	420.41	77.4884	420.41	77.9999	420.41	78.4766	420.41	77.3493	420.41	79.1784	420.41	77.4013	420.41	79.4583	420.41	78.0219	420.41	79.3029	420.41	78.7697
435.059	84.7365	435.059	84.4612	435.059	84.8736	435.059	84.0739	435.059	84.8532	435.059	83.61	435.059	84.6612	435.059	83.1141	435.059	84.2866	435.059	82.636	435.059	83.7203	435.059	82.2199	435.059	82.9561	435.059	81.8887	435.059	81.9949	435.059	81.6317	435.059	80.8597	435.059	81.4064	435.059	79.6323	435.059	81.1562	435.059	78.5158	435.059	80.8337	435.059	77.8476	435.059	80.4259	435.059	77.8749	435.059	79.9746	435.059	78.4539	435.059	79.5858	435.059	79.202	435.059	79.3961	435.059	79.8236	435.059	79.4769	435.059	80.1822	435.059	79.7586	435.059	80.25	435.059	80.0721
450.439	84.8867	450.439	84.5906	450.439	85.074	450.439	84.1993	450.439	85.1408	450.439	83.735	450.439	85.0736	450.439	83.2342	450.439	84.854	450.439	82.7472	450.439	84.4584	450.439	82.3273	450.439	83.8567	450.439	82.0052	450.439	83.0141	450.439	81.7653	450.439	81.8968	450.439	81.5435	450.439	80.5005	450.439	81.2504	450.439	78.9443	450.439	80.8034	450.439	77.6734	450.439	80.1602	450.439	77.4154	450.439	79.3668	450.439	78.2468	450.439	78.6306	450.439	79.4131	450.439	78.3224	450.439	80.3289	450.439	78.6768	450.439	80.784	450.439	79.4674	450.439	80.7442	450.439	80.2578
466.553	85.0375	466.553	84.718	466.553	85.2233	466.553	84.275	466.553	85.271	466.553	83.7305	466.553	85.1766	466.553	83.1262	466.553	84.9332	466.553	82.5276	466.553	84.5283	466.553	82.0154	466.553	83.9425	466.553	81.6545	466.553	83.1495	466.553	81.452	466.553	82.1217	466.553	81.3405	466.553	80.8524	466.553	81.206	466.553	79.4244	466.553	80.9329	466.553	78.1541	466.553	80.4407	466.553	77.6209	466.553	79.7178	466.553	78.0685	466.553	78.8828	466.553	78.9806	466.553	78.2524	466.553	79.7623	466.553	78.2082	466.553	80.1334	466.553	78.7614	466.553	80.0268	466.553	79.501
482.666	85.2645	482.666	85.0802	482.666	85.2966	482.666	84.7239	482.666	85.2049	482.666	84.1934	482.666	85.0181	482.666	83.5136	482.666	84.7547	482.666	82.7497	482.666	84.4134	482.666	82.0167	482.666	83.9688	482.666	81.4606	482.666	83.3732	482.666	81.1841	482.666	82.5641	482.666	81.1611	482.666	81.4812	482.666	81.2419	482.666	80.1116	482.666	81.2422	482.666	78.6171	482.666	81.0162	482.666	77.5366	482.666	80.4848	482.666	77.5092	482.666	79.6681	482.666	78.2997	482.666	78.7633	482.666	79.1229	482.666	78.1943	482.666	79.526	482.666	78.3063	482.666	79.4074	482.666	78.8839
500.244	85.6413	500.244	85.4785	500.244	85.598	500.244	85.1144	500.244	85.3522	500.244	84.5611	500.244	84.9174	500.244	83.8385	500.244	84.3179	500.244	82.9773	500.244	83.5873	500.244	82.028	500.244	82.7649	500.244	81.075	500.244	81.8877	500.244	80.2419	500.244	80.984	500.244	79.658	500.244	80.081	500.244	79.3753	500.244	79.2368	500.244	79.3161	500.244	78.5874	500.244	79.3303	500.244	78.3262	500.244	79.2999	500.244	78.5329	500.244	79.2001	500.244	79.0343	500.244	79.1055	500.244	79.5386	500.244	79.1359	500.244	79.835	500.244	79.3439	500.244	79.8518	500.244	79.64
517.822	85.8693	517.822	85.6279	517.822	85.9209	517.822	85.216	517.822	85.7714	517.822	84.6589	517.822	85.4184	517.822	83.9867	517.822	84.8699	517.822	83.2344	517.822	84.1435	517.822	82.4426	517.822	83.2651	517.822	81.6586	517.822	82.2652	517.822	80.9292	517.822	81.1805	517.822	80.28	517.822	80.0723	517.822	79.6879	517.822	79.0771	517.822	79.0703	517.822	78.4561	517.822	78.3132	517.822	78.4701	517.822	77.3445	517.822	79.0551	517.822	76.2873	517.822	79.8156	517.822	75.6898	517.822	80.3644	517.822	76.2257	517.822	80.474	517.822	77.6223	517.822	80.0403	517.822	79.0476
536.133	86.5815	536.133	86.2802	536.133	86.6928	536.133	85.8239	536.133	86.584	536.133	85.246	536.133	86.2347	536.133	84.5743	536.133	85.637	536.133	83.8321	536.133	84.7942	536.133	83.0465	536.133	83.7163	536.133	82.2607	536.133	82.4115	536.133	81.5383	536.133	80.8834	536.133	80.9393	536.133	79.172	536.133	80.465	536.133	77.5435	536.133	80.0144	536.133	76.8133	536.133	79.4025	536.133	77.6557	536.133	78.4326	536.133	79.298	536.133	77.0268	536.133	80.7389	536.133	75.6322	536.133	81.5718	536.133	75.6909	536.133	81.6807	536.133	77.5345	536.133	81.0236	536.133	79.591
554.443	86.1003	554.443	85.8135	554.443	86.166	554.443	85.3309	554.443	86.0104	554.443	84.6947	554.443	85.6637	554.443	83.9578	554.443	85.1841	554.443	83.1795	554.443	84.6388	554.443	82.4252	554.443	84.0634	554.443	81.766	554.443	83.4181	554.443	81.2664	554.443	82.5745	554.443	80.9516	554.443	81.337	554.443	80.7723	554.443	79.4868	554.443	80.5998	554.443	76.9869	554.443	80.2564	554.443	75.0441	554.443	79.552	554.443	76.0339	554.443	78.3197	554.443	78.1991	554.443	76.5522	554.443	79.5788	554.443	75.0003	554.443	79.8729	554.443	75.4481	554.443	79.1159	554.443	77.431
574.219	86.7094	574.219	86.039	574.219	87.1024	574.219	85.1976	574.219	87.1335	574.219	84.2939	574.219	86.7511	574.219	83.4147	574.219	85.9487	574.219	82.622	574.219	84.7964	574.219	81.9723	574.219	83.496	574.219	81.5216	574.219	82.3726	574.219	81.287	574.219	81.6154	574.219	81.2078	574.219	80.9828	574.219	81.1625	574.219	79.9871	574.219	81.0171	574.219	78.3008	574.219	80.6491	574.219	76.4456	574.219	79.943	574.219	76.6527	574.219	78.8055	574.219	78.7362	574.219	77.3234	574.219	80.3705	574.219	76.2854	574.219	80.9002	574.219	76.9998	574.219	80.3339	574.219	78.8392
594.727	86.6203	594.727	86.148	594.727	86.9697	594.727	85.6071	594.727	87.0906	594.727	84.9768	594.727	86.8714	594.727	84.1869	594.727	86.2293	594.727	83.1743	594.727	85.1392	594.727	81.9464	594.727	83.6875	594.727	80.6522	594.727	82.1646	594.727	79.611	594.727	81.0146	594.727	79.1139	594.727	80.3537	594.727	79.0926	594.727	79.7292	594.727	79.2274	594.727	78.7268	594.727	79.3021	594.727	77.7	594.727	79.2819	594.727	77.9316	594.727	79.2047	594.727	79.3826	594.727	79.11	594.727	80.6359	594.727	79.1012	594.727	81.0865	594.727	79.3911	594.727	80.782	594.727	80.0569
615.234	86.472	615.234	86.2549	615.234	86.7634	615.234	86.041	615.234	87.054	615.234	85.6953	615.234	87.1579	615.234	85.1114	615.234	86.884	615.234	84.2513	615.234	86.1076	615.234	83.1617	615.234	84.8171	615.234	81.9952	615.234	83.2099	615.234	80.9782	615.234	81.7832	615.234	80.2327	615.234	80.9214	615.234	79.619	615.234	80.1772	615.234	78.9167	615.234	78.7343	615.234	78.1693	615.234	76.6595	615.234	77.7645	615.234	76.8701	615.234	77.8679	615.234	79.5106	615.234	78.0089	615.234	81.2802	615.234	77.8032	615.234	81.5404	615.234	77.7366	615.234	80.5047	615.234	78.8081
637.207	86.4385	637.207	86.2944	637.207	86.406	637.207	85.948	637.207	86.2057	637.207	85.3744	637.207	85.8029	637.207	84.5514	637.207	85.1128	637.207	83.4573	637.207	84.0333	637.207	82.0912	637.207	82.5255	637.207	80.5556	637.207	80.7846	637.207	79.1998	637.207	79.4368	637.207	78.5051	637.207	78.9706	637.207	78.41	637.207	78.7085	637.207	78.2518	637.207	77.5675	637.207	77.4743	637.207	75.0933	637.207	75.922	637.207	73.9352	637.207	74.1931	637.207	76.8963	637.207	73.9692	637.207	79.3803	637.207	75.4508	637.207	80.2843	637.207	77.2361	637.207	79.9479	637.207	78.8069
659.912	84.7926	659.912	84.3557	659.912	85.0074	659.912	83.7602	659.912	84.9982	659.912	83.1062	659.912	84.7968	659.912	82.4671	659.912	84.4037	659.912	81.8318	659.912	83.7389	659.912	81.1071	659.912	82.662	659.912	80.1895	659.912	81.0663	659.912	79.0648	659.912	79.1041	659.912	77.8848	659.912	77.5668	659.912	76.9007	659.912	77.1863	659.912	76.1818	659.912	77.0039	659.912	75.5458	659.912	75.7252	659.912	74.9262	659.912	73.2881	659.912	74.5053	659.912	73.0083	659.912	74.2545	659.912	75.3062	659.912	73.8413	659.912	76.4227	659.912	73.533	659.912	75.8649	659.912	74.3803
683.35	84.8824	683.35	84.1297	683.35	85.4689	683.35	83.3872	683.35	85.7728	683.35	82.7904	683.35	85.7574	683.35	82.3266	683.35	85.4259	683.35	81.8459	683.35	84.7624	683.35	81.1658	683.35	83.6999	683.35	80.1779	683.35	82.1593	683.35	78.9563	683.35	80.2284	683.35	77.8326	683.35	78.5511	683.35	77.1139	683.35	78.0251	683.35	76.54	683.35	78.0883	683.35	75.5674	683.35	77.624	683.35	74.2468	683.35	76.8473	683.35	73.7709	683.35	77.188	683.35	74.5254	683.35	78.1848	683.35	75.0138	683.35	78.2128	683.35	74.7576	683.35	76.8797	683.35	75.1396
706.787	84.9384	706.787	84.162	706.787	85.5093	706.787	83.401	706.787	85.7381	706.787	82.8141	706.787	85.6109	706.787	82.3758	706.787	85.1873	706.787	81.9338	706.787	84.5004	706.787	81.3394	706.787	83.4803	706.787	80.5193	706.787	81.9981	706.787	79.5179	706.787	80.0993	706.787	78.5158	706.787	78.4408	706.787	77.6837	706.787	77.8576	706.787	76.8796	706.787	77.5345	706.787	75.6844	706.787	76.1422	706.787	73.9461	706.787	74.3856	706.787	72.6824	706.787	75.8506	706.787	73.1782	706.787	78.1006	706.787	74.1012	706.787	78.6286	706.787	74.5986	706.787	77.4998	706.787	75.6651
731.689	84.4085	731.689	83.579	731.689	85.2316	731.689	83.0229	731.689	85.7705	731.689	82.763	731.689	85.9086	731.689	82.5858	731.689	85.6647	731.689	82.2624	731.689	85.0872	731.689	81.6472	731.689	84.1402	731.689	80.701	731.689	82.6687	731.689	79.5599	731.689	80.527	731.689	78.5561	731.689	78.0936	731.689	77.859	731.689	77.0014	731.689	77.0195	731.689	77.4361	731.689	75.2485	731.689	77.3291	731.689	72.1076	731.689	76.206	731.689	70.4917	731.689	76.0002	731.689	73.0868	731.689	77.308	731.689	74.7188	731.689	77.7044	731.689	74.6167	731.689	76.4303	731.689	74.6881
758.057	83.1417	758.057	82.4364	758.057	84.1201	758.057	82.261	758.057	84.9252	758.057	82.3709	758.057	85.3513	758.057	82.4424	758.057	85.4173	758.057	82.3455	758.057	85.1817	758.057	82.0096	758.057	84.5901	758.057	81.3131	758.057	83.4589	758.057	80.1683	758.057	81.605	758.057	78.7924	758.057	79.204	758.057	77.926	758.057	77.4902	758.057	77.8608	758.057	77.2748	758.057	77.5055	758.057	77.0479	758.057	75.54	758.057	76.8552	758.057	70.7247	758.057	78.2837	758.057	68.1346	758.057	79.7121	758.057	72.7543	758.057	79.4367	758.057	74.4361	758.057	77.3651	758.057	75.106
784.424	83.856	784.424	83.7609	784.424	84.1818	784.424	83.8575	784.424	84.4339	784.424	83.8182	784.424	84.4027	784.424	83.4144	784.424	84.1982	784.424	82.6502	784.424	84.0229	784.424	81.7274	784.424	83.7589	784.424	80.9278	784.424	82.9895	784.424	80.3728	784.424	81.395	784.424	79.9306	784.424	79.2144	784.424	79.4804	784.424	77.7111	784.424	79.0897	784.424	77.0479	784.424	78.6915	784.424	75.1128	784.424	77.6868	784.424	72.4737	784.424	74.9964	784.424	75.6212	784.424	68.6614	784.424	78.4144	784.424	66.3948	784.424	78.7507	784.424	72.8734	784.424	77.5163	784.424	75.7028
812.256	84.6603	812.256	84.524	812.256	85.0888	812.256	84.6654	812.256	85.3115	812.256	84.6636	812.256	84.9447	812.256	84.2235	812.256	84.111	812.256	83.2647	812.256	83.4332	812.256	81.8431	812.256	83.2258	812.256	80.1859	812.256	82.8399	812.256	78.8067	812.256	81.5415	812.256	78.2426	812.256	79.2355	812.256	78.3574	812.256	77.3334	812.256	78.5667	812.256	77.261	812.256	78.4213	812.256	76.6547	812.256	77.5837	812.256	73.9105	812.256	75.8546	812.256	72.9397	812.256	73.8229	812.256	75.5692	812.256	72.907	812.256	75.8631	812.256	72.1443	812.256	73.3643	812.256	71.0298
840.82	84.4205	840.82	84.6055	840.82	84.7292	840.82	84.8716	840.82	85.2364	840.82	84.7952	840.82	85.2924	840.82	84.2439	840.82	84.6126	840.82	83.2139	840.82	83.4862	840.82	81.7052	840.82	82.6679	840.82	79.7448	840.82	82.3441	840.82	77.6301	840.82	81.7289	840.82	76.2776	840.82	80.2838	840.82	76.2776	840.82	78.4053	840.82	76.7556	840.82	76.9894	840.82	76.9254	840.82	75.1263	840.82	76.5579	840.82	71.816	840.82	75.4632	840.82	73.3048	840.82	73.6856	840.82	76.0641	840.82	72.4184	840.82	75.8377	840.82	72.2466	840.82	73.4955	840.82	72.0547
870.85	84.2225	870.85	84.2698	870.85	84.5878	870.85	84.3188	870.85	85.2018	870.85	84.0862	870.85	85.4543	870.85	83.572	870.85	84.9908	870.85	82.7969	870.85	83.8959	870.85	81.6281	870.85	82.627	870.85	79.7892	870.85	81.5774	870.85	76.9923	870.85	80.5434	870.85	73.8716	870.85	79.4331	870.85	73.9204	870.85	79.177	870.85	76.0227	870.85	79.7749	870.85	77.0536	870.85	79.3576	870.85	76.6893	870.85	76.4558	870.85	75.381	870.85	71.9098	870.85	74.1998	870.85	73.7623	870.85	73.6194	870.85	74.946	870.85	72.3027	870.85	72.8593	870.85	70.6069
901.611	84.6057	901.611	85.084	901.611	84.6281	901.611	85.1839	901.611	85.2542	901.611	84.5764	901.611	85.5318	901.611	83.4752	901.611	84.9569	901.611	82.3063	901.611	83.8316	901.611	81.3194	901.611	82.8979	901.611	80.3293	901.611	82.1904	901.611	78.8642	901.611	80.8619	901.611	76.3697	901.611	78.4686	901.611	72.5542	901.611	76.8343	901.611	71.2806	901.611	78.2597	901.611	74.6281	901.611	79.2196	901.611	76.3032	901.611	77.939	901.611	75.2439	901.611	75.9745	901.611	72.7577	901.611	76.5134	901.611	74.6463	901.611	75.5946	901.611	76.3214	901.611	71.9051	901.611	74.2853
933.105	84.8596	933.105	85.0812	933.105	84.793	933.105	84.898	933.105	85.2449	933.105	84.1989	933.105	85.5955	933.105	83.1573	933.105	85.1182	933.105	82.0029	933.105	83.7326	933.105	80.8562	933.105	82.1912	933.105	79.6546	933.105	81.3298	933.105	78.2662	933.105	80.3781	933.105	76.7673	933.105	78.1632	933.105	75.4457	933.105	75.0882	933.105	74.1777	933.105	74.6329	933.105	73.1961	933.105	75.1941	933.105	74.1447	933.105	74.1088	933.105	75.2209	933.105	74.0723	933.105	74.0714	933.105	74.9764	933.105	72.4586	933.105	73.4586	933.105	74.3357	933.105	72.5915	933.105	74.7079
966.064	85.2745	966.064	85.7281	966.064	84.9879	966.064	85.5499	966.064	85.3782	966.064	84.56	966.064	85.7177	966.064	83.0576	966.064	85.2628	966.064	81.5968	966.064	83.9137	966.064	80.5215	966.064	82.2424	966.064	79.492	966.064	81.2683	966.064	77.8215	966.064	80.8322	966.064	75.3444	966.064	79.5573	966.064	73.7967	966.064	76.4143	966.064	74.2573	966.064	73.3314	966.064	74.3013	966.064	74.644	966.064	73.6403	966.064	74.3244	966.064	73.4111	966.064	72.9627	966.064	73.4353	966.064	74.7097	966.064	74.5896	966.064	74.657	966.064	76.2972	966.064	74.0807	966.064	76.0009
999.756	85.172	999.756	85.599	999.756	84.717	999.756	85.3051	999.756	84.9793	999.756	84.2473	999.756	85.4166	999.756	82.7815	999.756	85.0591	999.756	81.3985	999.756	83.4834	999.756	80.5035	999.756	80.9738	999.756	80.1315	999.756	79.1543	999.756	79.8022	999.756	79.1003	999.756	78.8197	999.756	79.2184	999.756	76.4159	999.756	78.4998	999.756	71.806	999.756	76.6906	999.756	68.3556	999.756	73.6908	999.756	71.0331	999.756	68.9725	999.756	72.1997	999.756	67.6589	999.756	71.8107	999.756	71.7048	999.756	72.2801	999.756	72.6979	999.756	74.3989	999.756	73.8803	999.756	75.2079
1,034.91	85.0361	1,034.91	85.5969	1,034.91	84.4364	1,034.91	85.3879	1,034.91	84.6343	1,034.91	84.365	1,034.91	85.0304	1,034.91	82.7471	1,034.91	84.7323	1,034.91	80.8315	1,034.91	83.5614	1,034.91	79.1978	1,034.91	81.6837	1,034.91	78.4991	1,034.91	79.3731	1,034.91	78.385	1,034.91	77.539	1,034.91	77.973	1,034.91	77.178	1,034.91	76.8308	1,034.91	77.1389	1,034.91	74.8392	1,034.91	76.7167	1,034.91	72.359	1,034.91	76.4423	1,034.91	71.5322	1,034.91	75.2995	1,034.91	71.5468	1,034.91	72.0414	1,034.91	69.6722	1,034.91	71.051	1,034.91	71.6835	1,034.91	72.6238	1,034.91	75.2771	1,034.91	73.7519	1,034.91	75.5858
1,071.53	84.4825	1,071.53	84.9791	1,071.53	83.4038	1,071.53	84.594	1,071.53	83.3651	1,071.53	83.707	1,071.53	84.4557	1,071.53	82.5929	1,071.53	84.8332	1,071.53	81.1356	1,071.53	83.8545	1,071.53	79.2181	1,071.53	81.6711	1,071.53	77.3343	1,071.53	78.6596	1,071.53	76.5291	1,071.53	75.7914	1,071.53	76.7458	1,071.53	75.7718	1,071.53	76.9722	1,071.53	77.3903	1,071.53	76.5022	1,071.53	77.6831	1,071.53	74.6201	1,071.53	76.4412	1,071.53	70.6832	1,071.53	75.035	1,071.53	68.3167	1,071.53	74.515	1,071.53	69.5718	1,071.53	73.9355	1,071.53	69.0828	1,071.53	72.0848	1,071.53	71.0889	1,071.53	71.4286	1,071.53	72.648
1,109.62	84.051	1,109.62	84.7539	1,109.62	82.9639	1,109.62	84.6246	1,109.62	82.7948	1,109.62	83.7557	1,109.62	83.7287	1,109.62	82.4038	1,109.62	84.2385	1,109.62	80.8224	1,109.62	83.5501	1,109.62	79.1665	1,109.62	81.9371	1,109.62	77.3722	1,109.62	80.0754	1,109.62	75.0305	1,109.62	77.4722	1,109.62	72.125	1,109.62	72.8634	1,109.62	71.6331	1,109.62	71.7556	1,109.62	73.5046	1,109.62	75.0134	1,109.62	74.1253	1,109.62	75.7004	1,109.62	73.7857	1,109.62	74.0593	1,109.62	74.0752	1,109.62	70.8069	1,109.62	73.2112	1,109.62	69.9595	1,109.62	70.3994	1,109.62	69.0707	1,109.62	72.4533	1,109.62	68.5087	1,109.62	72.8436
1,148.44	84.728	1,148.44	84.7399	1,148.44	83.6123	1,148.44	83.9376	1,148.44	82.4947	1,148.44	82.8283	1,148.44	83.3943	1,148.44	81.6978	1,148.44	84.4478	1,148.44	80.5054	1,148.44	83.8671	1,148.44	79.1035	1,148.44	81.614	1,148.44	77.544	1,148.44	78.996	1,148.44	75.9089	1,148.44	77.3023	1,148.44	73.7477	1,148.44	74.5759	1,148.44	71.1516	1,148.44	70.5742	1,148.44	71.8655	1,148.44	73.165	1,148.44	73.536	1,148.44	74.4115	1,148.44	71.8568	1,148.44	72.1174	1,148.44	68.9364	1,148.44	71.9732	1,148.44	70.7409	1,148.44	71.7198	1,148.44	68.6688	1,148.44	68.6367	1,148.44	69.2527	1,148.44	71.8026	1,148.44	73.0424
1,189.45	84.7896	1,189.45	84.7519	1,189.45	83.8977	1,189.45	83.8957	1,189.45	82.591	1,189.45	82.5284	1,189.45	82.4095	1,189.45	80.9889	1,189.45	83.2415	1,189.45	79.4699	1,189.45	83.21	1,189.45	78.0971	1,189.45	81.4749	1,189.45	77.2144	1,189.45	78.2973	1,189.45	76.8874	1,189.45	75.497	1,189.45	76.0691	1,189.45	73.8444	1,189.45	73.2792	1,189.45	71.4489	1,189.45	66.8506	1,189.45	69.783	1,189.45	66.4446	1,189.45	72.3034	1,189.45	70.8127	1,189.45	73.1478	1,189.45	72.0479	1,189.45	69.6468	1,189.45	72.4974	1,189.45	65.1129	1,189.45	71.5082	1,189.45	62.369	1,189.45	70.6072	1,189.45	68.1089	1,189.45	71.3563
1,231.2	84.997	1,231.2	84.7703	1,231.2	84.3726	1,231.2	83.6995	1,231.2	83.1837	1,231.2	82.16	1,231.2	82.3495	1,231.2	80.7731	1,231.2	82.5439	1,231.2	79.7687	1,231.2	82.5136	1,231.2	78.7271	1,231.2	81.2204	1,231.2	77.0659	1,231.2	78.9393	1,231.2	74.9729	1,231.2	76.7365	1,231.2	74.3195	1,231.2	74.4463	1,231.2	74.6328	1,231.2	71.3582	1,231.2	73.1791	1,231.2	70.5081	1,231.2	69.837	1,231.2	70.498	1,231.2	68.3928	1,231.2	68.9415	1,231.2	68.0108	1,231.2	69.2214	1,231.2	69.2893	1,231.2	68.5024	1,231.2	69.4083	1,231.2	67.6303	1,231.2	68.3629	1,231.2	71.4707	1,231.2	71.5105
1,274.41	84.6206	1,274.41	84.3771	1,274.41	83.6191	1,274.41	83.2523	1,274.41	82.1845	1,274.41	82.1087	1,274.41	82.0526	1,274.41	81.0551	1,274.41	82.6313	1,274.41	79.5361	1,274.41	82.1926	1,274.41	77.7375	1,274.41	80.226	1,274.41	76.4841	1,274.41	77.1411	1,274.41	75.5575	1,274.41	74.1934	1,274.41	74.1125	1,274.41	72.6411	1,274.41	72.4001	1,274.41	72.8298	1,274.41	71.2521	1,274.41	72.8229	1,274.41	70.4884	1,274.41	72.2711	1,274.41	70.3629	1,274.41	73.3141	1,274.41	69.7146	1,274.41	71.7528	1,274.41	70.3739	1,274.41	67.4379	1,274.41	71.9409	1,274.41	65.9932	1,274.41	71.7172	1,274.41	70.5835	1,274.41	72.1158
1,319.82	84.3929	1,319.82	84.0209	1,319.82	83.9802	1,319.82	83.1408	1,319.82	82.8568	1,319.82	81.9966	1,319.82	81.8354	1,319.82	80.6276	1,319.82	81.5512	1,319.82	79.0431	1,319.82	81.0196	1,319.82	77.3477	1,319.82	79.4487	1,319.82	75.7237	1,319.82	77.3234	1,319.82	74.5205	1,319.82	75.4158	1,319.82	74.0393	1,319.82	72.385	1,319.82	73.896	1,319.82	66.7784	1,319.82	73.1353	1,319.82	68.9127	1,319.82	71.2683	1,319.82	71.3193	1,319.82	68.9817	1,319.82	71.0785	1,319.82	66.2152	1,319.82	69.1536	1,319.82	67.2881	1,319.82	66.337	1,319.82	69.3709	1,319.82	66.3763	1,319.82	67.9413	1,319.82	71.0626	1,319.82	70.7541
1,365.97	84.0748	1,365.97	83.5989	1,365.97	83.6064	1,365.97	82.6533	1,365.97	82.3677	1,365.97	81.5224	1,365.97	81.4523	1,365.97	80.0957	1,365.97	81.3696	1,365.97	78.4518	1,365.97	81.229	1,365.97	76.9288	1,365.97	80.0798	1,365.97	75.5693	1,365.97	77.364	1,365.97	73.5831	1,365.97	74.5311	1,365.97	70.5378	1,365.97	74.3476	1,365.97	70.9861	1,365.97	72.922	1,365.97	72.9566	1,365.97	67.8031	1,365.97	71.9086	1,365.97	64.7662	1,365.97	69.4987	1,365.97	71.4611	1,365.97	68.5984	1,365.97	72.4874	1,365.97	65.8914	1,365.97	68.4481	1,365.97	68.0963	1,365.97	65.4713	1,365.97	69.3498	1,365.97	68.2482	1,365.97	69.1221
1,414.31	83.4359	1,414.31	83.1064	1,414.31	82.8784	1,414.31	82.1083	1,414.31	81.7494	1,414.31	81.1557	1,414.31	80.9607	1,414.31	80.6441	1,414.31	81.1052	1,414.31	79.8228	1,414.31	81.1415	1,414.31	78.0344	1,414.31	80.0138	1,414.31	76.1268	1,414.31	77.5724	1,414.31	75.2138	1,414.31	74.3654	1,414.31	73.5958	1,414.31	71.3382	1,414.31	69.3538	1,414.31	70.7469	1,414.31	68.689	1,414.31	71.2665	1,414.31	71.4432	1,414.31	67.7823	1,414.31	70.4539	1,414.31	67.4454	1,414.31	69.912	1,414.31	69.8875	1,414.31	69.8008	1,414.31	66.0983	1,414.31	68.5439	1,414.31	60.5408	1,414.31	68.6419	1,414.31	65.6621	1,414.31	68.8266
1,464.11	83.4771	1,464.11	82.7721	1,464.11	82.8688	1,464.11	81.5459	1,464.11	81.2564	1,464.11	80.82	1,464.11	80.7824	1,464.11	80.2745	1,464.11	81.3091	1,464.11	78.8885	1,464.11	80.5281	1,464.11	76.3318	1,464.11	78.7837	1,464.11	73.4439	1,464.11	77.3395	1,464.11	72.9172	1,464.11	75.4876	1,464.11	73.9109	1,464.11	72.8999	1,464.11	71.9776	1,464.11	71.1769	1,464.11	65.6263	1,464.11	70.8508	1,464.11	67.8712	1,464.11	70.057	1,464.11	69.8427	1,464.11	61.2233	1,464.11	66.9777	1,464.11	65.4474	1,464.11	65.3854	1,464.11	65.7764	1,464.11	69.0886	1,464.11	64.6706	1,464.11	67.0698	1,464.11	69.6594	1,464.11	68.2363
1,515.38	83.6243	1,515.38	82.1684	1,515.38	83.5641	1,515.38	81.0379	1,515.38	81.8305	1,515.38	80.8962	1,515.38	80.0361	1,515.38	80.1798	1,515.38	80.2113	1,515.38	78.8289	1,515.38	80.7731	1,515.38	77.4107	1,515.38	79.9377	1,515.38	75.018	1,515.38	77.2043	1,515.38	71.5899	1,515.38	74.0139	1,515.38	71.8707	1,515.38	71.188	1,515.38	72.4288	1,515.38	67.2669	1,515.38	71.3348	1,515.38	71.147	1,515.38	69.7081	1,515.38	71.454	1,515.38	70.2388	1,515.38	68.177	1,515.38	71.9356	1,515.38	69.0571	1,515.38	69.3935	1,515.38	64.4627	1,515.38	69.2065	1,515.38	63.5583	1,515.38	70.4859	1,515.38	68.34	1,515.38	68.9846
1,568.85	83.2999	1,568.85	82.3008	1,568.85	83.5475	1,568.85	82.0011	1,568.85	82.1362	1,568.85	81.7709	1,568.85	80.1059	1,568.85	80.7055	1,568.85	80.032	1,568.85	79.2534	1,568.85	80.5823	1,568.85	78.0255	1,568.85	79.8898	1,568.85	76.3479	1,568.85	77.3551	1,568.85	73.3637	1,568.85	73.5212	1,568.85	70.8215	1,568.85	70.9125	1,568.85	69.4223	1,568.85	68.3281	1,568.85	68.9069	1,568.85	69.74	1,568.85	70.9302	1,568.85	72.1077	1,568.85	67.737	1,568.85	71.4169	1,568.85	68.6659	1,568.85	70.5665	1,568.85	70.7414	1,568.85	65.3918	1,568.85	67.9944	1,568.85	63.8337	1,568.85	69.4103	1,568.85	67.8339	1,568.85	68.5033
1,624.51	83.0704	1,624.51	82.5898	1,624.51	83.4155	1,624.51	82.3991	1,624.51	82.454	1,624.51	81.7291	1,624.51	80.2558	1,624.51	80.2137	1,624.51	79.937	1,624.51	78.5185	1,624.51	80.8168	1,624.51	77.5363	1,624.51	79.8589	1,624.51	76.7688	1,624.51	76.9999	1,624.51	74.1553	1,624.51	73.8653	1,624.51	70.9782	1,624.51	71.3146	1,624.51	71.7796	1,624.51	67.4798	1,624.51	70.265	1,624.51	69.2626	1,624.51	68.191	1,624.51	72.9258	1,624.51	69.591	1,624.51	69.8579	1,624.51	64.4578	1,624.51	68.9481	1,624.51	67.4362	1,624.51	63.8933	1,624.51	69.8274	1,624.51	58.2373	1,624.51	67.6296	1,624.51	66.7147	1,624.51	67.8956
1,681.64	82.8944	1,681.64	82.3845	1,681.64	83.2536	1,681.64	82.5495	1,681.64	82.6374	1,681.64	82.333	1,681.64	81.0195	1,681.64	81.3085	1,681.64	79.6219	1,681.64	80.0407	1,681.64	80.1469	1,681.64	78.0719	1,681.64	80.2908	1,681.64	75.5827	1,681.64	77.891	1,681.64	73.081	1,681.64	72.712	1,681.64	69.9999	1,681.64	70.6919	1,681.64	66.3659	1,681.64	69.9842	1,681.64	65.4611	1,681.64	69.901	1,681.64	67.0557	1,681.64	72.4785	1,681.64	68.2695	1,681.64	68.2405	1,681.64	66.2842	1,681.64	71.0574	1,681.64	68.7731	1,681.64	64.9728	1,681.64	69.6919	1,681.64	59.4425	1,681.64	68.2017	1,681.64	67.4167	1,681.64	69.4374
1,740.97	83.2979	1,740.97	83.1846	1,740.97	83.9728	1,740.97	83.1539	1,740.97	83.0314	1,740.97	82.1441	1,740.97	81.2946	1,740.97	81.0956	1,740.97	80.6515	1,740.97	79.559	1,740.97	79.8677	1,740.97	76.7902	1,740.97	79.8144	1,740.97	74.2619	1,740.97	79.2233	1,740.97	72.8165	1,740.97	75.2239	1,740.97	72.3081	1,740.97	71.3867	1,740.97	72.0577	1,740.97	67.5571	1,740.97	70.5695	1,740.97	67.429	1,740.97	66.8404	1,740.97	71.2793	1,740.97	67.4975	1,740.97	68.2527	1,740.97	68.1986	1,740.97	71.9386	1,740.97	65.4244	1,740.97	65.8513	1,740.97	70.3095	1,740.97	56.8413	1,740.97	67.0991	1,740.97	66.5137	1,740.97	67.0891
1,802.49	84.216	1,802.49	84.2459	1,802.49	84.7458	1,802.49	83.7243	1,802.49	83.9209	1,802.49	82.4015	1,802.49	81.2058	1,802.49	81.2847	1,802.49	80.3594	1,802.49	80.4426	1,802.49	80.3314	1,802.49	79.6227	1,802.49	79.8701	1,802.49	78.1367	1,802.49	79.4743	1,802.49	75.5589	1,802.49	76.2123	1,802.49	72.6008	1,802.49	69.7723	1,802.49	70.9096	1,802.49	68.1176	1,802.49	70.9516	1,802.49	66.4365	1,802.49	70.1368	1,802.49	72.8564	1,802.49	63.8238	1,802.49	69.7557	1,802.49	63.8749	1,802.49	70.9247	1,802.49	63.9867	1,802.49	61.393	1,802.49	65.5448	1,802.49	60.1712	1,802.49	69.6154	1,802.49	68.1179	1,802.49	67.2254
1,866.21	84.5843	1,866.21	84.9714	1,866.21	85.1948	1,866.21	84.658	1,866.21	84.6659	1,866.21	83.6603	1,866.21	81.6623	1,866.21	82.2497	1,866.21	80.8473	1,866.21	80.5415	1,866.21	82.0388	1,866.21	79.1258	1,866.21	81.723	1,866.21	77.349	1,866.21	80.4192	1,866.21	75.3797	1,866.21	76.8062	1,866.21	72.9568	1,866.21	70.8502	1,866.21	69.2906	1,866.21	71.8694	1,866.21	68.9918	1,866.21	68.8534	1,866.21	71.3626	1,866.21	73.7569	1,866.21	70.7021	1,866.21	72.9757	1,866.21	59.5137	1,866.21	69.1515	1,866.21	65.5378	1,866.21	64.4471	1,866.21	62.355	1,866.21	63.5709	1,866.21	69.5394	1,866.21	67.2063	1,866.21	68.0392
1,932.13	83.9121	1,932.13	84.6007	1,932.13	83.8899	1,932.13	84.7507	1,932.13	84.4076	1,932.13	84.6007	1,932.13	82.4215	1,932.13	83.0034	1,932.13	80.799	1,932.13	80.9255	1,932.13	82.7051	1,932.13	79.4026	1,932.13	82.6143	1,932.13	76.8089	1,932.13	80.4753	1,932.13	73.3663	1,932.13	77.541	1,932.13	72.1543	1,932.13	73.8442	1,932.13	71.4488	1,932.13	72.5655	1,932.13	69.7438	1,932.13	70.3537	1,932.13	68.5457	1,932.13	74.8122	1,932.13	72.761	1,932.13	74.3531	1,932.13	71.9066	1,932.13	67.2772	1,932.13	62.6699	1,932.13	62.9551	1,932.13	68.1948	1,932.13	50.5813	1,932.13	64.4116	1,932.13	64.3012	1,932.13	67.3369
2,000.24	84.9526	2,000.24	85.4723	2,000.24	83.7397	2,000.24	85.1965	2,000.24	83.2619	2,000.24	84.3512	2,000.24	82.5165	2,000.24	82.6839	2,000.24	81.6218	2,000.24	80.3713	2,000.24	83.0667	2,000.24	77.8446	2,000.24	83.0346	2,000.24	77.0592	2,000.24	80.2668	2,000.24	77.7134	2,000.24	77.3024	2,000.24	77.7274	2,000.24	75.1238	2,000.24	75.9196	2,000.24	73.3557	2,000.24	71.7979	2,000.24	75.8424	2,000.24	68.5303	2,000.24	73.3654	2,000.24	71.2556	2,000.24	72.7753	2,000.24	73.6338	2,000.24	68.6639	2,000.24	66.4851	2,000.24	68.5708	2,000.24	70.4614	2,000.24	61.3412	2,000.24	70.0553	2,000.24	68.0515	2,000.24	67.565
2,070.56	85.8129	2,070.56	85.8943	2,070.56	85.4222	2,070.56	85.2309	2,070.56	84.5756	2,070.56	83.9172	2,070.56	82.9262	2,070.56	82.7594	2,070.56	81.8604	2,070.56	81.8375	2,070.56	82.8239	2,070.56	80.4661	2,070.56	83.3898	2,070.56	78.3862	2,070.56	81.9559	2,070.56	75.2891	2,070.56	78.2841	2,070.56	73.6001	2,070.56	73.9205	2,070.56	76.2501	2,070.56	72.1809	2,070.56	75.0587	2,070.56	74.4249	2,070.56	71.0368	2,070.56	72.8614	2,070.56	66.4745	2,070.56	68.7994	2,070.56	70.0777	2,070.56	60.9163	2,070.56	69.0377	2,070.56	70.3641	2,070.56	63.1464	2,070.56	68.9673	2,070.56	72.2229	2,070.56	72.0196	2,070.56	68.6408
2,143.8	84.4957	2,143.8	85.4317	2,143.8	83.999	2,143.8	85.2193	2,143.8	84.5657	2,143.8	85.1016	2,143.8	83.2714	2,143.8	83.8567	2,143.8	81.88	2,143.8	81.436	2,143.8	82.8903	2,143.8	78.8292	2,143.8	82.9673	2,143.8	77.6598	2,143.8	81.4594	2,143.8	77.0749	2,143.8	78.4599	2,143.8	73.8709	2,143.8	77.3642	2,143.8	68.7717	2,143.8	73.9764	2,143.8	68.6903	2,143.8	74.6629	2,143.8	72.3461	2,143.8	74.9832	2,143.8	71.0309	2,143.8	69.0325	2,143.8	73.2133	2,143.8	52.289	2,143.8	72.2705	2,143.8	67.3968	2,143.8	67.2442	2,143.8	61.9687	2,143.8	70.2	2,143.8	68.0308	2,143.8	70.0968
2,219.24	83.3898	2,219.24	84.226	2,219.24	83.1382	2,219.24	85.3622	2,219.24	84.5003	2,219.24	85.0749	2,219.24	84.6097	2,219.24	83.7187	2,219.24	82.2626	2,219.24	81.2384	2,219.24	82.6644	2,219.24	77.6332	2,219.24	82.4615	2,219.24	76.9254	2,219.24	80.3149	2,219.24	76.9141	2,219.24	76.8885	2,219.24	73.8777	2,219.24	75.8632	2,219.24	70.9725	2,219.24	71.8261	2,219.24	70.2819	2,219.24	71.5383	2,219.24	63.2107	2,219.24	73.6948	2,219.24	66.3108	2,219.24	65.6026	2,219.24	71.2457	2,219.24	65.2192	2,219.24	70.1951	2,219.24	69.078	2,219.24	70.2959	2,219.24	64.4724	2,219.24	70.2708	2,219.24	68.6194	2,219.24	71.2956
2,297.61	85.5551	2,297.61	85.6872	2,297.61	84.6665	2,297.61	85.4064	2,297.61	83.8554	2,297.61	84.4017	2,297.61	84.5556	2,297.61	83.5542	2,297.61	82.4907	2,297.61	81.7271	2,297.61	80.0995	2,297.61	79.6397	2,297.61	82.3873	2,297.61	77.8314	2,297.61	82.8289	2,297.61	75.9125	2,297.61	79.2652	2,297.61	72.3485	2,297.61	75.6171	2,297.61	72.9705	2,297.61	71.3516	2,297.61	72.559	2,297.61	71.5003	2,297.61	66.6168	2,297.61	75.2689	2,297.61	64.915	2,297.61	73.56	2,297.61	66.9229	2,297.61	69.398	2,297.61	69.5656	2,297.61	68.894	2,297.61	60.8188	2,297.61	66.9374	2,297.61	69.5091	2,297.61	67.9255	2,297.61	69.538
2,378.17	85.7028	2,378.17	85.2385	2,378.17	83.8162	2,378.17	84.6646	2,378.17	83.39	2,378.17	84.3801	2,378.17	83.335	2,378.17	82.9838	2,378.17	80.6555	2,378.17	81.3084	2,378.17	81.2741	2,378.17	78.5447	2,378.17	83.1301	2,378.17	75.0709	2,378.17	83.0253	2,378.17	73.9028	2,378.17	79.7381	2,378.17	73.4155	2,378.17	74.7908	2,378.17	69.2345	2,378.17	72.4749	2,378.17	64.0774	2,378.17	61.6638	2,378.17	68.6225	2,378.17	70.4836	2,378.17	68.572	2,378.17	71.2047	2,378.17	68.6649	2,378.17	60.6821	2,378.17	67.5044	2,378.17	64.9915	2,378.17	66.7765	2,378.17	65.9408	2,378.17	66.3954	2,378.17	66.0343	2,378.17	70.9465
2,462.4	84.3618	2,462.4	84.4294	2,462.4	83.5981	2,462.4	84.7903	2,462.4	83.8347	2,462.4	83.8324	2,462.4	83.579	2,462.4	82.058	2,462.4	80.0463	2,462.4	81.4814	2,462.4	79.543	2,462.4	79.1092	2,462.4	82.2086	2,462.4	76.2637	2,462.4	81.4991	2,462.4	75.6319	2,462.4	77.9519	2,462.4	74.1913	2,462.4	73.5024	2,462.4	70.7531	2,462.4	70.4815	2,462.4	69.7441	2,462.4	69.388	2,462.4	68.6318	2,462.4	71.5066	2,462.4	68.2645	2,462.4	70.1815	2,462.4	66.633	2,462.4	63.5452	2,462.4	67.0056	2,462.4	64.0507	2,462.4	66.5249	2,462.4	62.7327	2,462.4	67.1993	2,462.4	66.4576	2,462.4	68.9616
2,548.83	84.2711	2,548.83	84.0741	2,548.83	83.5784	2,548.83	84.299	2,548.83	83.1212	2,548.83	83.6717	2,548.83	84.0769	2,548.83	82.3216	2,548.83	80.9022	2,548.83	79.6414	2,548.83	78.3411	2,548.83	78.6124	2,548.83	81.2582	2,548.83	77.5729	2,548.83	80.9287	2,548.83	75.0981	2,548.83	78.111	2,548.83	73.315	2,548.83	72.9381	2,548.83	71.402	2,548.83	71.1692	2,548.83	70.6115	2,548.83	63.2506	2,548.83	68.7802	2,548.83	69.7917	2,548.83	67.7904	2,548.83	70.5389	2,548.83	66.8013	2,548.83	63.3604	2,548.83	65.8433	2,548.83	60.9327	2,548.83	67.2278	2,548.83	62.0404	2,548.83	67.2103	2,548.83	62.3324	2,548.83	67.1391
2,638.92	84.5517	2,638.92	84.0559	2,638.92	84.2232	2,638.92	83.8092	2,638.92	82.872	2,638.92	83.479	2,638.92	83.9279	2,638.92	82.5736	2,638.92	81.7547	2,638.92	80.8227	2,638.92	77.7802	2,638.92	79.7271	2,638.92	81.2778	2,638.92	77.6398	2,638.92	81.0919	2,638.92	74.0817	2,638.92	77.4709	2,638.92	71.9391	2,638.92	67.2197	2,638.92	70.2354	2,638.92	67.6749	2,638.92	68.9879	2,638.92	67.2565	2,638.92	67.661	2,638.92	67.8623	2,638.92	66.4727	2,638.92	68.0442	2,638.92	66.6674	2,638.92	57.5219	2,638.92	65.2868	2,638.92	62.7044	2,638.92	66.4034	2,638.92	65.4966	2,638.92	66.6845	2,638.92	65.3435	2,638.92	68.8797
2,731.93	84.3118	2,731.93	84.2085	2,731.93	84.6133	2,731.93	84.1192	2,731.93	83.5396	2,731.93	83.0944	2,731.93	83.6176	2,731.93	82.1749	2,731.93	82.1131	2,731.93	81.2826	2,731.93	77.8156	2,731.93	78.2914	2,731.93	80.3498	2,731.93	75.9648	2,731.93	80.5986	2,731.93	74.3646	2,731.93	78.1844	2,731.93	71.7555	2,731.93	72.024	2,731.93	69.2297	2,731.93	64.4126	2,731.93	68.4952	2,731.93	60.146	2,731.93	67.8358	2,731.93	71.0868	2,731.93	67.1773	2,731.93	68.7895	2,731.93	64.3807	2,731.93	58.7097	2,731.93	65.259	2,731.93	63.8021	2,731.93	65.6089	2,731.93	64.1438	2,731.93	67.0676	2,731.93	62.5724	2,731.93	68.2676
2,828.61	84.592	2,828.61	84.4905	2,828.61	84.9162	2,828.61	84.3507	2,828.61	84.012	2,828.61	83.1142	2,828.61	83.9598	2,828.61	82.2099	2,828.61	81.9183	2,828.61	80.6244	2,828.61	78.2823	2,828.61	78.5998	2,828.61	80.6446	2,828.61	76.64	2,828.61	79.8913	2,828.61	75.0557	2,828.61	76.1334	2,828.61	73.8976	2,828.61	71.4357	2,828.61	71.9065	2,828.61	70.2537	2,828.61	69.1118	2,828.61	64.8501	2,828.61	67.3763	2,828.61	66.1644	2,828.61	66.211	2,828.61	69.4223	2,828.61	64.2053	2,828.61	56.3841	2,828.61	66.3843	2,828.61	61.9948	2,828.61	64.8252	2,828.61	63.6927	2,828.61	66.3045	2,828.61	60.6434	2,828.61	67.7247
2,928.22	84.4127	2,928.22	84.1984	2,928.22	85.1826	2,928.22	83.9395	2,928.22	84.1419	2,928.22	83.3713	2,928.22	84.1776	2,928.22	81.9929	2,928.22	82.5332	2,928.22	80.2194	2,928.22	76.9727	2,928.22	78.2187	2,928.22	80.8432	2,928.22	76.5392	2,928.22	80.3028	2,928.22	74.482	2,928.22	76.8918	2,928.22	71.2544	2,928.22	73.7776	2,928.22	70.2889	2,928.22	72.366	2,928.22	69.046	2,928.22	66.6746	2,928.22	67.3336	2,928.22	69.3597	2,928.22	66.0675	2,928.22	69.2458	2,928.22	60.8363	2,928.22	52.1704	2,928.22	64.3996	2,928.22	62.3191	2,928.22	64.9204	2,928.22	65.3511	2,928.22	67.1937	2,928.22	57.3158	2,928.22	68.55
3,031.49	83.6708	3,031.49	84.0067	3,031.49	84.7057	3,031.49	83.6525	3,031.49	84.1968	3,031.49	83.1864	3,031.49	84.2192	3,031.49	82.404	3,031.49	83.3077	3,031.49	80.2742	3,031.49	76.6025	3,031.49	78.9564	3,031.49	80.0951	3,031.49	76.7819	3,031.49	80.971	3,031.49	74.4853	3,031.49	77.8656	3,031.49	73.6514	3,031.49	75.0847	3,031.49	71.8051	3,031.49	74.2127	3,031.49	70.1609	3,031.49	66.8417	3,031.49	69.0797	3,031.49	70.9505	3,031.49	68.2162	3,031.49	66.7663	3,031.49	61.2682	3,031.49	60.4311	3,031.49	63.9158	3,031.49	64.7158	3,031.49	64.6946	3,031.49	64.3398	3,031.49	66.0576	3,031.49	59.2938	3,031.49	67.3279
3,138.43	84.1692	3,138.43	84.1142	3,138.43	84.6024	3,138.43	83.035	3,138.43	84.0459	3,138.43	82.9995	3,138.43	83.7645	3,138.43	81.9679	3,138.43	83.4338	3,138.43	80.5372	3,138.43	77.3764	3,138.43	78.0552	3,138.43	79.3766	3,138.43	76.8734	3,138.43	81.4373	3,138.43	75.1144	3,138.43	79.002	3,138.43	70.7449	3,138.43	75.8305	3,138.43	68.1352	3,138.43	72.7415	3,138.43	67.5067	3,138.43	66.5389	3,138.43	66.8203	3,138.43	69.4643	3,138.43	66.2164	3,138.43	65.3131	3,138.43	60.6503	3,138.43	57.6098	3,138.43	61.0155	3,138.43	63.5367	3,138.43	63.9662	3,138.43	63.7773	3,138.43	65.4504	3,138.43	57.422	3,138.43	66.3155
3,249.02	84.2292	3,249.02	83.9245	3,249.02	84.8337	3,249.02	83.592	3,249.02	84.4595	3,249.02	83.2351	3,249.02	83.687	3,249.02	81.7419	3,249.02	83.5124	3,249.02	80.5062	3,249.02	78.5346	3,249.02	78.8751	3,249.02	78.0898	3,249.02	75.5262	3,249.02	81.0302	3,249.02	73.0453	3,249.02	79.4154	3,249.02	72.2805	3,249.02	76.4671	3,249.02	70.2566	3,249.02	73.28	3,249.02	68.3412	3,249.02	65.7561	3,249.02	67.5173	3,249.02	69.02	3,249.02	66.449	3,249.02	64.619	3,249.02	61.4983	3,249.02	58.1439	3,249.02	60.0187	3,249.02	61.5147	3,249.02	61.4945	3,249.02	63.3314	3,249.02	66.1847	3,249.02	55.5437	3,249.02	66.51
3,363.28	83.8879	3,363.28	83.7818	3,363.28	84.649	3,363.28	83.3301	3,363.28	84.5585	3,363.28	83.0867	3,363.28	84.1297	3,363.28	81.8589	3,363.28	84.2103	3,363.28	80.7159	3,363.28	80.0248	3,363.28	78.6865	3,363.28	77.9382	3,363.28	76.0884	3,363.28	80.3673	3,363.28	75.0022	3,363.28	78.4187	3,363.28	71.3603	3,363.28	74.9558	3,363.28	68.3114	3,363.28	73.4802	3,363.28	66.742	3,363.28	69.8494	3,363.28	65.0578	3,363.28	67.7233	3,363.28	65.0471	3,363.28	60.7002	3,363.28	61.5085	3,363.28	49.585	3,363.28	58.9061	3,363.28	63.0382	3,363.28	61.0052	3,363.28	63.0913	3,363.28	62.7362	3,363.28	57.3352	3,363.28	66.3458
3,481.93	83.9722	3,481.93	83.55	3,481.93	84.1928	3,481.93	83.3189	3,481.93	84.0936	3,481.93	83.1123	3,481.93	83.1125	3,481.93	82.1654	3,481.93	84.1143	3,481.93	80.3136	3,481.93	80.1321	3,481.93	77.8281	3,481.93	77.3957	3,481.93	76.4588	3,481.93	79.4825	3,481.93	73.0998	3,481.93	76.6054	3,481.93	72.1435	3,481.93	71.4384	3,481.93	70.2546	3,481.93	69.7098	3,481.93	68.6181	3,481.93	63.6047	3,481.93	65.9939	3,481.93	67.7533	3,481.93	65.1493	3,481.93	63.6486	3,481.93	61.4052	3,481.93	55.364	3,481.93	60.36	3,481.93	61.975	3,481.93	60.1751	3,481.93	60.3977	3,481.93	62.1318	3,481.93	50.2803	3,481.93	64.2651
3,604.98	84.1187	3,604.98	83.67	3,604.98	84.1782	3,604.98	83.5621	3,604.98	84.7516	3,604.98	82.873	3,604.98	82.9203	3,604.98	82.2287	3,604.98	84.1258	3,604.98	80.3888	3,604.98	81.4491	3,604.98	78.9697	3,604.98	77.3011	3,604.98	76.219	3,604.98	79.9538	3,604.98	74.823	3,604.98	74.8245	3,604.98	71.2531	3,604.98	67.0254	3,604.98	68.2447	3,604.98	61.6306	3,604.98	67.4683	3,604.98	56.5564	3,604.98	65.0485	3,604.98	65.313	3,604.98	62.5841	3,604.98	61.8132	3,604.98	58.5962	3,604.98	47.4527	3,604.98	59.9469	3,604.98	60.1518	3,604.98	56.6306	3,604.98	61.3363	3,604.98	63.9186	3,604.98	52.9898	3,604.98	61.7941
3,732.42	83.9258	3,732.42	83.3404	3,732.42	83.1612	3,732.42	83.8698	3,732.42	84.613	3,732.42	83.0076	3,732.42	83.5339	3,732.42	82.3781	3,732.42	83.4849	3,732.42	80.6287	3,732.42	82.221	3,732.42	78.3058	3,732.42	77.651	3,732.42	76.6782	3,732.42	80.18	3,732.42	71.5353	3,732.42	74.6169	3,732.42	70.07	3,732.42	71.2513	3,732.42	68.3159	3,732.42	68.0416	3,732.42	67.0454	3,732.42	65.257	3,732.42	64.79	3,732.42	62.7243	3,732.42	63.4375	3,732.42	64.9345	3,732.42	58.9934	3,732.42	59.9708	3,732.42	60.5341	3,732.42	61.2864	3,732.42	56.1371	3,732.42	61.6	3,732.42	61.216	3,732.42	48.4271	3,732.42	63.8572
3,863.53	84.2349	3,863.53	83.5855	3,863.53	83.7214	3,863.53	83.4774	3,863.53	83.4742	3,863.53	83.4842	3,863.53	83.2645	3,863.53	82.6028	3,863.53	83.7238	3,863.53	81.0276	3,863.53	82.1464	3,863.53	78.8745	3,863.53	77.4417	3,863.53	75.4875	3,863.53	79.6861	3,863.53	75.2668	3,863.53	75.519	3,863.53	72.268	3,863.53	71.0783	3,863.53	69.5399	3,863.53	70.3568	3,863.53	67.2834	3,863.53	71.3317	3,863.53	65.5391	3,863.53	56.5345	3,863.53	63.7987	3,863.53	65.4995	3,863.53	60.1807	3,863.53	58.2533	3,863.53	58.8313	3,863.53	59.4883	3,863.53	54.8572	3,863.53	59.3842	3,863.53	61.5513	3,863.53	43.8377	3,863.53	60.6413
3,999.76	84.202	3,999.76	83.9891	3,999.76	83.9928	3,999.76	83.9005	3,999.76	84.0414	3,999.76	83.3494	3,999.76	82.8109	3,999.76	82.5845	3,999.76	82.8261	3,999.76	81.3964	3,999.76	81.9788	3,999.76	78.1065	3,999.76	76.2847	3,999.76	76.6413	3,999.76	79.4106	3,999.76	70.8244	3,999.76	76.6045	3,999.76	69.7829	3,999.76	71.9509	3,999.76	68.7375	3,999.76	59.0794	3,999.76	67.0084	3,999.76	67.6031	3,999.76	64.5457	3,999.76	58.5014	3,999.76	62.8246	3,999.76	64.1164	3,999.76	56.905	3,999.76	60.4333	3,999.76	58.6185	3,999.76	60.2036	3,999.76	54.4498	3,999.76	59.3971	3,999.76	62.7446	3,999.76	50.1634	3,999.76	62.9576
4,141.11	83.9564	4,141.11	83.5428	4,141.11	83.409	4,141.11	83.9044	4,141.11	83.9322	4,141.11	83.6232	4,141.11	83.8065	4,141.11	82.836	4,141.11	83.4553	4,141.11	80.882	4,141.11	82.4242	4,141.11	79.1963	4,141.11	76.344	4,141.11	75.4124	4,141.11	77.8987	4,141.11	75.0312	4,141.11	76.5147	4,141.11	70.2494	4,141.11	73.2474	4,141.11	68.1253	4,141.11	66.9255	4,141.11	67.0349	4,141.11	65.9553	4,141.11	64.7093	4,141.11	61.802	4,141.11	63.8752	4,141.11	64.197	4,141.11	59.4046	4,141.11	55.0275	4,141.11	57.7132	4,141.11	50.1266	4,141.11	53.5444	4,141.11	58.0078	4,141.11	59.3389	4,141.11	50.8536	4,141.11	62.5145
4,286.87	84.5843	4,286.87	83.9197	4,286.87	83.9642	4,286.87	83.7016	4,286.87	83.3672	4,286.87	83.8541	4,286.87	82.6574	4,286.87	83.134	4,286.87	82.6189	4,286.87	81.1352	4,286.87	82.9029	4,286.87	78.0797	4,286.87	77.4879	4,286.87	75.9199	4,286.87	78.0657	4,286.87	71.2313	4,286.87	78.0287	4,286.87	71.7116	4,286.87	76.093	4,286.87	69.3641	4,286.87	73.0766	4,286.87	67.164	4,286.87	61.1072	4,286.87	66.5753	4,286.87	60.9973	4,286.87	63.907	4,286.87	63.0838	4,286.87	60.489	4,286.87	47.774	4,286.87	59.0249	4,286.87	57.107	4,286.87	52.7273	4,286.87	51.5274	4,286.87	60.7277	4,286.87	55.6985	4,286.87	58.9103
4,438.48	84.2391	4,438.48	84.2503	4,438.48	84.387	4,438.48	84.3698	4,438.48	84.0788	4,438.48	84.0135	4,438.48	83.5246	4,438.48	82.8997	4,438.48	81.9267	4,438.48	81.0336	4,438.48	81.9496	4,438.48	78.5315	4,438.48	77.0257	4,438.48	75.8181	4,438.48	77.9933	4,438.48	73.5682	4,438.48	79.7941	4,438.48	66.9222	4,438.48	76.0479	4,438.48	66.722	4,438.48	64.8362	4,438.48	65.8361	4,438.48	63.2823	4,438.48	64.4051	4,438.48	59.2479	4,438.48	62.0342	4,438.48	63.9565	4,438.48	60.5032	4,438.48	58.3241	4,438.48	58.2256	4,438.48	57.0936	4,438.48	56.6334	4,438.48	58.4716	4,438.48	58.2449	4,438.48	54.1785	4,438.48	62.7059
4,594.48	84.8287	4,594.48	84.0934	4,594.48	84.642	4,594.48	84.3857	4,594.48	83.969	4,594.48	84.1621	4,594.48	84.1609	4,594.48	83.1013	4,594.48	82.2113	4,594.48	81.2387	4,594.48	81.2065	4,594.48	78.6868	4,594.48	77.8454	4,594.48	75.4895	4,594.48	78.717	4,594.48	73.4608	4,594.48	79.8274	4,594.48	72.318	4,594.48	76.342	4,594.48	66.9718	4,594.48	71.3355	4,594.48	67.1136	4,594.48	49.9006	4,594.48	65.4601	4,594.48	60.5246	4,594.48	63.0611	4,594.48	63.6974	4,594.48	61.8456	4,594.48	62.5594	4,594.48	58.4044	4,594.48	56.1945	4,594.48	55.3789	4,594.48	58.7751	4,594.48	57.0325	4,594.48	50.5414	4,594.48	59.5351
4,757.08	84.0949	4,757.08	84.3452	4,757.08	84.9611	4,757.08	84.2405	4,757.08	84.156	4,757.08	83.991	4,757.08	83.4605	4,757.08	83.4472	4,757.08	82.732	4,757.08	80.8107	4,757.08	81.2588	4,757.08	78.734	4,757.08	75.8178	4,757.08	76.5129	4,757.08	78.9908	4,757.08	71.893	4,757.08	80.15	4,757.08	70.2102	4,757.08	75.563	4,757.08	69.1525	4,757.08	71.6078	4,757.08	65.3546	4,757.08	62.4377	4,757.08	64.4513	4,757.08	59.7124	4,757.08	62.668	4,757.08	59.9121	4,757.08	61.9392	4,757.08	48.3643	4,757.08	56.7813	4,757.08	58.9186	4,757.08	56.9118	4,757.08	54.1125	4,757.08	56.2929	4,757.08	54.7059	4,757.08	61.2991
4,924.8	84.0973	4,924.8	84.1319	4,924.8	84.6811	4,924.8	84.145	4,924.8	85.1199	4,924.8	84.1542	4,924.8	84.5202	4,924.8	82.8567	4,924.8	82.2808	4,924.8	80.951	4,924.8	81.1192	4,924.8	78.0711	4,924.8	76.8155	4,924.8	75.944	4,924.8	78.8475	4,924.8	73.9444	4,924.8	79.2488	4,924.8	70.072	4,924.8	69.869	4,924.8	66.5259	4,924.8	69.7068	4,924.8	67.6038	4,924.8	65.13	4,924.8	65.1498	4,924.8	64.6084	4,924.8	64.0915	4,924.8	52.9373	4,924.8	62.2314	4,924.8	52.993	4,924.8	56.7406	4,924.8	53.6675	4,924.8	58.1439	4,924.8	56.7368	4,924.8	55.9364	4,924.8	53.7075	4,924.8	59.8906
5,098.39	83.9862	5,098.39	83.846	5,098.39	84.375	5,098.39	83.4758	5,098.39	84.2799	5,098.39	84.0353	5,098.39	84.2489	5,098.39	82.6794	5,098.39	83.3572	5,098.39	80.449	5,098.39	81.4501	5,098.39	78.1654	5,098.39	74.2879	5,098.39	76.4958	5,098.39	77.4655	5,098.39	72.1493	5,098.39	77.8855	5,098.39	70.2779	5,098.39	66.9276	5,098.39	67.3356	5,098.39	67.1606	5,098.39	65.0504	5,098.39	60.2119	5,098.39	63.3353	5,098.39	66.2551	5,098.39	61.7991	5,098.39	58.6651	5,098.39	61.7747	5,098.39	47.37	5,098.39	57.2905	5,098.39	56.8217	5,098.39	57.8612	5,098.39	57.8652	5,098.39	55.5922	5,098.39	48.6585	5,098.39	59.5129
5,277.83	83.0866	5,277.83	83.2758	5,277.83	84.1329	5,277.83	83.5356	5,277.83	84.8217	5,277.83	83.61	5,277.83	84.3933	5,277.83	82.4438	5,277.83	83.0484	5,277.83	80.0842	5,277.83	81.4571	5,277.83	78.0044	5,277.83	76.3584	5,277.83	75.5873	5,277.83	72.8778	5,277.83	72.4292	5,277.83	74.3476	5,277.83	69.8623	5,277.83	65.4516	5,277.83	66.7476	5,277.83	68.1698	5,277.83	65.0186	5,277.83	62.3951	5,277.83	64.9413	5,277.83	65.1261	5,277.83	61.6444	5,277.83	60.5517	5,277.83	62.5934	5,277.83	53.5443	5,277.83	57.7909	5,277.83	56.0036	5,277.83	56.9213	5,277.83	54.4928	5,277.83	52.7849	5,277.83	51.8448	5,277.83	57.7664
5,463.87	82.926	5,463.87	82.501	5,463.87	83.0121	5,463.87	82.5101	5,463.87	84.078	5,463.87	83.4971	5,463.87	84.5347	5,463.87	81.9817	5,463.87	82.9791	5,463.87	80.22	5,463.87	82.078	5,463.87	77.1752	5,463.87	76.7294	5,463.87	75.0536	5,463.87	75.2001	5,463.87	73.1517	5,463.87	76.6407	5,463.87	68.4605	5,463.87	64.5068	5,463.87	66.4958	5,463.87	68.8579	5,463.87	63.905	5,463.87	65.1876	5,463.87	61.5321	5,463.87	60.0906	5,463.87	60.069	5,463.87	60.1231	5,463.87	61.3762	5,463.87	58.3545	5,463.87	57.1382	5,463.87	58.3122	5,463.87	59.798	5,463.87	56.373	5,463.87	51.2045	5,463.87	51.3619	5,463.87	57.6145
5,656.49	81.6844	5,656.49	81.7321	5,656.49	82.3356	5,656.49	82.6332	5,656.49	83.1464	5,656.49	82.972	5,656.49	83.9985	5,656.49	82.2285	5,656.49	82.8158	5,656.49	80.4869	5,656.49	81.6962	5,656.49	77.0004	5,656.49	77.5512	5,656.49	74.0704	5,656.49	71.3231	5,656.49	69.7518	5,656.49	74.0856	5,656.49	68.7005	5,656.49	68.0149	5,656.49	64.8753	5,656.49	67.3605	5,656.49	62.9562	5,656.49	56.8005	5,656.49	62.4275	5,656.49	58.3851	5,656.49	60.3626	5,656.49	62.388	5,656.49	61.2098	5,656.49	55.8658	5,656.49	58.6123	5,656.49	52.9838	5,656.49	55.4178	5,656.49	53.157	5,656.49	51.509	5,656.49	52.2866	5,656.49	55.3676
5,856.45	80.8493	5,856.45	81.3579	5,856.45	81.0054	5,856.45	82.0413	5,856.45	82.2189	5,856.45	82.9925	5,856.45	83.2008	5,856.45	82.8819	5,856.45	81.792	5,856.45	80.9821	5,856.45	81.8315	5,856.45	77.5033	5,856.45	78.7424	5,856.45	73.0728	5,856.45	71.8935	5,856.45	71.1324	5,856.45	74.6154	5,856.45	69.9033	5,856.45	68.6101	5,856.45	66.0438	5,856.45	68.5887	5,856.45	63.7124	5,856.45	56.4465	5,856.45	61.6603	5,856.45	56.6699	5,856.45	60.1726	5,856.45	59.2604	5,856.45	62.0723	5,856.45	54.5459	5,856.45	58.8161	5,856.45	44.167	5,856.45	59.7615	5,856.45	44.0707	5,856.45	51.9686	5,856.45	48.3674	5,856.45	53.5237
6,062.99	80.0815	6,062.99	81.2075	6,062.99	80.548	6,062.99	82.0089	6,062.99	81.3627	6,062.99	82.358	6,062.99	82.4148	6,062.99	82.7927	6,062.99	81.587	6,062.99	81.0418	6,062.99	80.8406	6,062.99	77.3006	6,062.99	78.2503	6,062.99	74.4041	6,062.99	73.7979	6,062.99	69.9447	6,062.99	72.8643	6,062.99	68.2727	6,062.99	67.3925	6,062.99	67.2781	6,062.99	65.6905	6,062.99	63.6516	6,062.99	59.1719	6,062.99	60.9465	6,062.99	58.3844	6,062.99	60.6584	6,062.99	50.7895	6,062.99	62.0037	6,062.99	54.3154	6,062.99	59.0449	6,062.99	50.4446	6,062.99	60.1735	6,062.99	49.5766	6,062.99	52.8529	6,062.99	49.1403	6,062.99	52.9691
6,276.86	81.5603	6,276.86	82.4359	6,276.86	81.2751	6,276.86	81.5479	6,276.86	80.7614	6,276.86	82.5009	6,276.86	81.6047	6,276.86	81.7424	6,276.86	80.529	6,276.86	80.1787	6,276.86	80.2974	6,276.86	77.5341	6,276.86	77.9729	6,276.86	73.9634	6,276.86	72.6895	6,276.86	70.3167	6,276.86	72.4995	6,276.86	67.5572	6,276.86	70.3255	6,276.86	65.9045	6,276.86	65.557	6,276.86	64.0557	6,276.86	56.0833	6,276.86	62.7631	6,276.86	58.1806	6,276.86	61.24	6,276.86	56.2013	6,276.86	60.6112	6,276.86	52.4254	6,276.86	58.9576	6,276.86	47.6221	6,276.86	59.9331	6,276.86	47.7332	6,276.86	54.7021	6,276.86	44.6864	6,276.86	50.9802
6,498.05	81.5654	6,498.05	82.0241	6,498.05	81.1839	6,498.05	81.8235	6,498.05	80.9649	6,498.05	81.3594	6,498.05	80.6334	6,498.05	81.5078	6,498.05	79.6137	6,498.05	79.3652	6,498.05	79.8578	6,498.05	77.4909	6,498.05	78.4255	6,498.05	75.7657	6,498.05	74.4587	6,498.05	72.7715	6,498.05	72.6047	6,498.05	69.1211	6,498.05	71.6003	6,498.05	66.4118	6,498.05	67.0666	6,498.05	65.7419	6,498.05	67.0768	6,498.05	62.9618	6,498.05	56.1937	6,498.05	62.1499	6,498.05	57.7667	6,498.05	61.9598	6,498.05	46.2593	6,498.05	59.2264	6,498.05	55.4745	6,498.05	59.3908	6,498.05	42.2578	6,498.05	55.6546	6,498.05	42.6229	6,498.05	50.8699
6,727.29	80.3315	6,727.29	81.3382	6,727.29	80.5911	6,727.29	80.2062	6,727.29	80.2832	6,727.29	80.4665	6,727.29	79.8357	6,727.29	80.7095	6,727.29	79.7497	6,727.29	78.8296	6,727.29	80.6397	6,727.29	77.4808	6,727.29	79.6717	6,727.29	76.2932	6,727.29	74.8534	6,727.29	72.5221	6,727.29	74.6977	6,727.29	67.5874	6,727.29	72.1239	6,727.29	64.4042	6,727.29	65.4977	6,727.29	63.1105	6,727.29	66.8651	6,727.29	63.5179	6,727.29	49.2238	6,727.29	60.8722	6,727.29	48.9935	6,727.29	60.1417	6,727.29	55.6839	6,727.29	58.6622	6,727.29	46.7813	6,727.29	58.5371	6,727.29	47.4788	6,727.29	54.4732	6,727.29	43.3755	6,727.29	52.626
6,964.6	79.6194	6,964.6	80.1388	6,964.6	80.1017	6,964.6	78.4035	6,964.6	79.5242	6,964.6	80.283	6,964.6	80.2201	6,964.6	79.8175	6,964.6	80.6508	6,964.6	78.612	6,964.6	80.7412	6,964.6	77.7131	6,964.6	81.0643	6,964.6	74.6033	6,964.6	78.7664	6,964.6	71.911	6,964.6	77.6878	6,964.6	68.6147	6,964.6	72.0236	6,964.6	63.8372	6,964.6	61.2322	6,964.6	61.3146	6,964.6	55.7767	6,964.6	61.0639	6,964.6	56.5866	6,964.6	59.0898	6,964.6	53.7014	6,964.6	59.6192	6,964.6	50.8193	6,964.6	58.7719	6,964.6	53.6678	6,964.6	59.4906	6,964.6	54.9	6,964.6	54.8045	6,964.6	38.2435	6,964.6	53.7073
7,209.96	81.1406	7,209.96	80.5776	7,209.96	81.5105	7,209.96	79.8914	7,209.96	81.4783	7,209.96	79.8446	7,209.96	81.3809	7,209.96	79.8754	7,209.96	81.267	7,209.96	79.0502	7,209.96	81.1583	7,209.96	77.0246	7,209.96	80.6233	7,209.96	74.3043	7,209.96	77.9886	7,209.96	70.3549	7,209.96	75.8215	7,209.96	66.6881	7,209.96	70.2563	7,209.96	61.6732	7,209.96	67.5608	7,209.96	60.9196	7,209.96	60.4749	7,209.96	59.1286	7,209.96	61.8822	7,209.96	56.5404	7,209.96	51.1208	7,209.96	57.5048	7,209.96	48.6146	7,209.96	57.6321	7,209.96	51.5761	7,209.96	56.7105	7,209.96	47.5868	7,209.96	52.7693	7,209.96	42.7007	7,209.96	51.8094
7,464.11	82.3055	7,464.11	81.2743	7,464.11	82.5923	7,464.11	80.1971	7,464.11	82.5453	7,464.11	80.3093	7,464.11	82.097	7,464.11	79.344	7,464.11	81.4803	7,464.11	78.9778	7,464.11	80.9	7,464.11	76.3972	7,464.11	79.1918	7,464.11	71.9593	7,464.11	75.1494	7,464.11	69.7346	7,464.11	69.838	7,464.11	65.9605	7,464.11	63.3969	7,464.11	62.6834	7,464.11	67.9096	7,464.11	59.0274	7,464.11	62.0967	7,464.11	58.2547	7,464.11	59.6366	7,464.11	57.857	7,464.11	57.4114	7,464.11	56.2066	7,464.11	49.4094	7,464.11	55.4963	7,464.11	40.1568	7,464.11	55.0863	7,464.11	47.5977	7,464.11	50.1039	7,464.11	31.4466	7,464.11	54.4718
7,727.78	82.4167	7,727.78	81.4256	7,727.78	83.0144	7,727.78	80.95	7,727.78	83.1489	7,727.78	79.6476	7,727.78	82.6234	7,727.78	79.5369	7,727.78	81.2605	7,727.78	77.6869	7,727.78	80.8607	7,727.78	74.4994	7,727.78	79.0824	7,727.78	71.1015	7,727.78	72.3129	7,727.78	67.003	7,727.78	63.6819	7,727.78	64.4306	7,727.78	64.9745	7,727.78	60.6017	7,727.78	65.7979	7,727.78	58.9174	7,727.78	62.2271	7,727.78	56.3681	7,727.78	55.9777	7,727.78	54.911	7,727.78	54.1092	7,727.78	54.4758	7,727.78	55.0827	7,727.78	55.6282	7,727.78	50.3827	7,727.78	53.9843	7,727.78	48.77	7,727.78	44.4394	7,727.78	30.5514	7,727.78	50.6188
8,000.24	83.3494	8,000.24	82.5473	8,000.24	83.1839	8,000.24	81.9085	8,000.24	83.1722	8,000.24	79.9135	8,000.24	82.4694	8,000.24	79.5401	8,000.24	80.9317	8,000.24	77.3416	8,000.24	80.215	8,000.24	73.9624	8,000.24	78.3186	8,000.24	69.4788	8,000.24	71.2799	8,000.24	66.3141	8,000.24	62.4476	8,000.24	61.8247	8,000.24	67.6785	8,000.24	55.9798	8,000.24	60.7834	8,000.24	57.1828	8,000.24	52.2488	8,000.24	55.2332	8,000.24	50.1276	8,000.24	53.742	8,000.24	52.9346	8,000.24	51.5236	8,000.24	43.4206	8,000.24	54.2212	8,000.24	43.5094	8,000.24	51.8348	8,000.24	49.5377	8,000.24	43.2208	8,000.24	33.4927	8,000.24	47.744
8,282.23	84.5902	8,282.23	84.3283	8,282.23	83.5794	8,282.23	83.0027	8,282.23	83.1242	8,282.23	80.5299	8,282.23	82.0056	8,282.23	80.0753	8,282.23	80.099	8,282.23	76.687	8,282.23	79.4644	8,282.23	73.737	8,282.23	77.0959	8,282.23	69.2494	8,282.23	70.8029	8,282.23	65.0325	8,282.23	67.2729	8,282.23	60.6934	8,282.23	68.4869	8,282.23	59.2174	8,282.23	58.0692	8,282.23	52.2458	8,282.23	57.874	8,282.23	53.4633	8,282.23	54.5515	8,282.23	55.3461	8,282.23	51.0865	8,282.23	50.2163	8,282.23	51.5606	8,282.23	48.9233	8,282.23	45.4633	8,282.23	47.96	8,282.23	44.0791	8,282.23	35.1784	8,282.23	43.0485	8,282.23	48.4841
8,574.46	85.8852	8,574.46	85.2	8,574.46	84.8294	8,574.46	83.4592	8,574.46	83.1133	8,574.46	81.2932	8,574.46	82.0967	8,574.46	79.4207	8,574.46	80.3174	8,574.46	77.0678	8,574.46	78.1138	8,574.46	73.3225	8,574.46	75.9691	8,574.46	66.8613	8,574.46	70.4382	8,574.46	64.6823	8,574.46	65.3611	8,574.46	59.429	8,574.46	65.9166	8,574.46	58.341	8,574.46	61.4097	8,574.46	49.8428	8,574.46	63.8035	8,574.46	53.1155	8,574.46	56.382	8,574.46	53.2316	8,574.46	52.7046	8,574.46	50.3071	8,574.46	48.1087	8,574.46	50.8307	8,574.46	49.124	8,574.46	50.5831	8,574.46	46.6648	8,574.46	41.532	8,574.46	38.9503	8,574.46	50.4103
8,876.22	85.8293	8,876.22	85.3459	8,876.22	85.5816	8,876.22	83.5985	8,876.22	83.908	8,876.22	81.364	8,876.22	81.7508	8,876.22	79.1115	8,876.22	79.9685	8,876.22	76.0231	8,876.22	77.3697	8,876.22	72.42	8,876.22	73.6355	8,876.22	66.7516	8,876.22	68.9189	8,876.22	61.5032	8,876.22	57.9792	8,876.22	57.2062	8,876.22	63.6679	8,876.22	51.1819	8,876.22	57.6885	8,876.22	49.8182	8,876.22	60.7452	8,876.22	50.2198	8,876.22	55.7748	8,876.22	50.9651	8,876.22	51.3173	8,876.22	46.1766	8,876.22	49.9735	8,876.22	46.9755	8,876.22	48.3451	8,876.22	47.1436	8,876.22	38.3244	8,876.22	28.6402	8,876.22	43.3662	8,876.22	49.6811
9,189.7	84.786	9,189.7	83.9831	9,189.7	84.8903	9,189.7	82.4799	9,189.7	83.476	9,189.7	80.9721	9,189.7	81.2249	9,189.7	78.4353	9,189.7	79.8091	9,189.7	74.3904	9,189.7	76.8673	9,189.7	70.7216	9,189.7	72.2369	9,189.7	65.5015	9,189.7	65.6284	9,189.7	62.4817	9,189.7	57.4703	9,189.7	57.0499	9,189.7	60.3588	9,189.7	53.8856	9,189.7	50.5205	9,189.7	50.9473	9,189.7	58.2422	9,189.7	52.1726	9,189.7	47.3796	9,189.7	48.2464	9,189.7	42.8496	9,189.7	40.7116	9,189.7	49.2456	9,189.7	47.1773	9,189.7	45.003	9,189.7	45.3274	9,189.7	39.1974	9,189.7	41.0465	9,189.7	36.9493	9,189.7	46.2778
9,513.43	82.9903	9,513.43	82.4224	9,513.43	83.4881	9,513.43	81.084	9,513.43	82.5141	9,513.43	80.5486	9,513.43	80.701	9,513.43	78.353	9,513.43	78.9658	9,513.43	73.1399	9,513.43	75.823	9,513.43	69.4572	9,513.43	71.7341	9,513.43	64.7407	9,513.43	65.1406	9,513.43	60.9616	9,513.43	59.7362	9,513.43	57.5173	9,513.43	57.9691	9,513.43	51.1995	9,513.43	56.2937	9,513.43	51.3102	9,513.43	47.9435	9,513.43	52.1506	9,513.43	44.3662	9,513.43	42.4369	9,513.43	46.8965	9,513.43	39.6172	9,513.43	46.5956	9,513.43	45.2988	9,513.43	44.7372	9,513.43	41.3794	9,513.43	40.502	9,513.43	42.4407	9,513.43	26.5457	9,513.43	40.7173
9,848.88	83.2576	9,848.88	82.7141	9,848.88	82.9337	9,848.88	81.6491	9,848.88	81.995	9,848.88	80.4493	9,848.88	80.1664	9,848.88	78.5984	9,848.88	78.5316	9,848.88	73.7345	9,848.88	75.5256	9,848.88	68.5445	9,848.88	70.6469	9,848.88	63.9252	9,848.88	64.3523	9,848.88	61.548	9,848.88	58.2604	9,848.88	55.7886	9,848.88	59.1054	9,848.88	51.4685	9,848.88	56.49	9,848.88	49.882	9,848.88	51.2246	9,848.88	50.408	9,848.88	43.304	9,848.88	39.3033	9,848.88	25.046	9,848.88	42.9746	9,848.88	41.0604	9,848.88	47.579	9,848.88	44.3176	9,848.88	40.2247	9,848.88	38.1156	9,848.88	42.3276	9,848.88	36.5152	9,848.88	37.5488
10,196.8	84.1202	10,196.8	84.0083	10,196.8	83.184	10,196.8	82.4309	10,196.8	81.7087	10,196.8	80.1114	10,196.8	79.665	10,196.8	78.1262	10,196.8	77.7449	10,196.8	73.3476	10,196.8	74.7362	10,196.8	68.6052	10,196.8	68.6559	10,196.8	62.9814	10,196.8	63.1431	10,196.8	59.4381	10,196.8	57.7451	10,196.8	52.6992	10,196.8	54.784	10,196.8	52.2767	10,196.8	57.0106	10,196.8	45.5359	10,196.8	56.3179	10,196.8	43.3999	10,196.8	45.8807	10,196.8	46.9689	10,196.8	33.4148	10,196.8	46.0207	10,196.8	46.276	10,196.8	47.3998	10,196.8	37.806	10,196.8	40.0245	10,196.8	41.3104	10,196.8	45.0507	10,196.8	42.0308	10,196.8	34.093
10,556.4	84.7683	10,556.4	84.4989	10,556.4	83.6616	10,556.4	82.7221	10,556.4	82.1304	10,556.4	79.7655	10,556.4	79.411	10,556.4	76.6634	10,556.4	76.653	10,556.4	71.7844	10,556.4	73.5105	10,556.4	67.5275	10,556.4	67.4337	10,556.4	59.3741	10,556.4	62.8262	10,556.4	55.4361	10,556.4	58.6498	10,556.4	52.6318	10,556.4	48.6423	10,556.4	51.2602	10,556.4	53.5947	10,556.4	37.4823	10,556.4	55.0705	10,556.4	36.0473	10,556.4	37.6627	10,556.4	45.3111	10,556.4	31.472	10,556.4	38.2394	10,556.4	41.1686	10,556.4	46.356	10,556.4	38.0031	10,556.4	27.0511	10,556.4	39.4911	10,556.4	41.2421	10,556.4	36.8553	10,556.4	36.9217
10,928.5	85.2597	10,928.5	83.8663	10,928.5	84.1555	10,928.5	81.8705	10,928.5	82.3252	10,928.5	78.9217	10,928.5	79.3324	10,928.5	74.9395	10,928.5	75.203	10,928.5	69.2095	10,928.5	71.6058	10,928.5	64.94	10,928.5	66.7133	10,928.5	58.8503	10,928.5	59.4128	10,928.5	54.5584	10,928.5	57.7085	10,928.5	52.6124	10,928.5	43.8715	10,928.5	45.9639	10,928.5	45.7078	10,928.5	39.969	10,928.5	54.9191	10,928.5	44.471	10,928.5	40.8872	10,928.5	46.4802	10,928.5	41.3903	10,928.5	39.3281	10,928.5	40.5212	10,928.5	45.5649	10,928.5	35.9441	10,928.5	38.8158	10,928.5	38.2422	10,928.5	39.0246	10,928.5	35.978	10,928.5	38.9151
11,313.7	84.9807	11,313.7	83.4617	11,313.7	84.4484	11,313.7	81.6564	11,313.7	82.3791	11,313.7	79.1734	11,313.7	79.7933	11,313.7	74.5561	11,313.7	75.458	11,313.7	69.0389	11,313.7	69.895	11,313.7	64.9345	11,313.7	67.7838	11,313.7	59.6279	11,313.7	60.4313	11,313.7	53.8708	11,313.7	56.333	11,313.7	51.3169	11,313.7	46.2098	11,313.7	47.2703	11,313.7	36.7522	11,313.7	41.8538	11,313.7	50.3026	11,313.7	44.1436	11,313.7	41.5729	11,313.7	44.4111	11,313.7	41.9087	11,313.7	40.5589	11,313.7	45.2238	11,313.7	40.9671	11,313.7	27.6798	11,313.7	36.9543	11,313.7	37.5248	11,313.7	39.3376	11,313.7	36.9858	11,313.7	40.2892
11,712.9	83.6146	11,712.9	83.1343	11,712.9	83.7208	11,712.9	82.156	11,712.9	81.9642	11,712.9	79.3664	11,712.9	79.2394	11,712.9	74.4884	11,712.9	75.4775	11,712.9	69.4338	11,712.9	69.4327	11,712.9	64.7782	11,712.9	66.0452	11,712.9	59.439	11,712.9	59.9851	11,712.9	52.3333	11,712.9	51.9204	11,712.9	51.3593	11,712.9	35.3189	11,712.9	48.7848	11,712.9	51.2572	11,712.9	38.3223	11,712.9	52.1382	11,712.9	42.4055	11,712.9	47.1261	11,712.9	41.5845	11,712.9	49.0582	11,712.9	39.5608	11,712.9	40.6641	11,712.9	40.5677	11,712.9	32.2236	11,712.9	22.0305	11,712.9	35.4662	11,712.9	32.7609	11,712.9	39.4342	11,712.9	41.8934
12,126	83.0805	12,126	83.2214	12,126	82.6768	12,126	81.5948	12,126	81.5555	12,126	78.7396	12,126	78.2235	12,126	73.8204	12,126	74.4812	12,126	67.5309	12,126	69.5834	12,126	63.9883	12,126	59.9826	12,126	59.3295	12,126	59.3733	12,126	53.4657	12,126	54.1681	12,126	50.4614	12,126	37.5795	12,126	49.5245	12,126	49.5782	12,126	43.281	12,126	59.3296	12,126	47.1655	12,126	51.8869	12,126	36.4396	12,126	49.7846	12,126	38.3187	12,126	39.0097	12,126	31.7724	12,126	42.5312	12,126	37.0154	12,126	42.4232	12,126	40.0145	12,126	42.1803	12,126	41.9035
12,553.7	83.4471	12,553.7	82.5819	12,553.7	82.0178	12,553.7	80.1967	12,553.7	81.3313	12,553.7	77.5253	12,553.7	77.7109	12,553.7	71.8459	12,553.7	72.9036	12,553.7	65.9245	12,553.7	68.437	12,553.7	63.1128	12,553.7	61.3851	12,553.7	60.2557	12,553.7	55.1306	12,553.7	55.253	12,553.7	55.2144	12,553.7	53.5381	12,553.7	44.6796	12,553.7	46.9117	12,553.7	39.2264	12,553.7	43.1732	12,553.7	60.4383	12,553.7	48.4089	12,553.7	50.9452	12,553.7	15.9761	12,553.7	50.2605	12,553.7	47.562	12,553.7	46.7686	12,553.7	44.9762	12,553.7	38.6845	12,553.7	42.8496	12,553.7	45.0655	12,553.7	47.1894	12,553.7	38.5931	12,553.7	38.6972
12,996.1	83.1915	12,996.1	82.104	12,996.1	82.0983	12,996.1	79.7006	12,996.1	80.9026	12,996.1	77.2017	12,996.1	78.0335	12,996.1	72.6615	12,996.1	71.7154	12,996.1	68.8423	12,996.1	66.3394	12,996.1	63.2067	12,996.1	65.0918	12,996.1	60.6118	12,996.1	54.7555	12,996.1	55.7764	12,996.1	50.6316	12,996.1	54.8252	12,996.1	48.8049	12,996.1	46.4083	12,996.1	43.8691	12,996.1	43.4489	12,996.1	57.5266	12,996.1	44.605	12,996.1	47.0854	12,996.1	43.9978	12,996.1	45.4008	12,996.1	49.7384	12,996.1	48.8894	12,996.1	46.9476	12,996.1	37.0233	12,996.1	45.3488	12,996.1	46.3785	12,996.1	47.8461	12,996.1	36.8699	12,996.1	40.971
13,454.6	82.3664	13,454.6	81.7064	13,454.6	82.1377	13,454.6	80.2274	13,454.6	80.2366	13,454.6	76.2869	13,454.6	76.6182	13,454.6	72.6966	13,454.6	71.5187	13,454.6	69.4265	13,454.6	66.2308	13,454.6	65.0766	13,454.6	62.7455	13,454.6	61.8141	13,454.6	59.8236	13,454.6	53.9173	13,454.6	54.4671	13,454.6	54.2715	13,454.6	43.7739	13,454.6	45.4047	13,454.6	55.4573	13,454.6	48.3704	13,454.6	48.7491	13,454.6	47.8699	13,454.6	46.4849	13,454.6	45.4222	13,454.6	46.1005	13,454.6	45.6632	13,454.6	45.5464	13,454.6	41.7015	13,454.6	37.4702	13,454.6	47.0059	13,454.6	42.5677	13,454.6	44.7162	13,454.6	39.0493	13,454.6	43.5325
13,928.5	80.2083	13,928.5	80.5656	13,928.5	81.3103	13,928.5	79.3543	13,928.5	80.3864	13,928.5	75.3852	13,928.5	75.7461	13,928.5	71.7524	13,928.5	70.9954	13,928.5	67.8363	13,928.5	66.693	13,928.5	66.7673	13,928.5	63.2075	13,928.5	62.7374	13,928.5	60.3292	13,928.5	55.8526	13,928.5	60.36	13,928.5	54.6732	13,928.5	44.5074	13,928.5	45.1918	13,928.5	46.9569	13,928.5	47.1516	13,928.5	55.4889	13,928.5	47.8586	13,928.5	48.1495	13,928.5	36.7309	13,928.5	45.5772	13,928.5	35.6132	13,928.5	36.7609	13,928.5	37.8812	13,928.5	35.4465	13,928.5	44.6701	13,928.5	41.8693	13,928.5	35.4126	13,928.5	38.8238	13,928.5	43.5271
14,419.9	80.3497	14,419.9	80.4703	14,419.9	80.7272	14,419.9	78.9027	14,419.9	80.2271	14,419.9	75.2465	14,419.9	75.5436	14,419.9	70.9931	14,419.9	71.1797	14,419.9	65.268	14,419.9	67.7626	14,419.9	64.5045	14,419.9	65.0856	14,419.9	60.9168	14,419.9	57.746	14,419.9	55.7249	14,419.9	59.9733	14,419.9	51.2531	14,419.9	27.9083	14,419.9	39.5626	14,419.9	48.6303	14,419.9	43.8964	14,419.9	50.2288	14,419.9	42.9045	14,419.9	37.26	14,419.9	31.9388	14,419.9	42.8365	14,419.9	43.3733	14,419.9	41.9657	14,419.9	45.049	14,419.9	38.1579	14,419.9	47.7541	14,419.9	40.7872	14,419.9	42.6557	14,419.9	40.5532	14,419.9	41.2352
14,928.2	80.5277	14,928.2	80.5459	14,928.2	80.3746	14,928.2	78.418	14,928.2	78.7043	14,928.2	75.4534	14,928.2	75.0816	14,928.2	71.3032	14,928.2	71.6954	14,928.2	68.4366	14,928.2	66.0624	14,928.2	65.5961	14,928.2	64.6884	14,928.2	61.6393	14,928.2	56.7752	14,928.2	52.0064	14,928.2	54.2557	14,928.2	52.951	14,928.2	43.1094	14,928.2	43.1133	14,928.2	53.7047	14,928.2	46.8084	14,928.2	45.7749	14,928.2	43.3869	14,928.2	37.3274	14,928.2	41.4181	14,928.2	39.7497	14,928.2	45.8921	14,928.2	41.7328	14,928.2	48.9129	14,928.2	27.4875	14,928.2	49.5348	14,928.2	35.9361	14,928.2	42.8953	14,928.2	38.2834	14,928.2	38.1634
15,454.8	80.4768	15,454.8	80.8797	15,454.8	80.921	15,454.8	78.2336	15,454.8	78.2155	15,454.8	75.2671	15,454.8	74.5534	15,454.8	71.7376	15,454.8	71.3493	15,454.8	69.6274	15,454.8	66.2873	15,454.8	65.7641	15,454.8	63.2637	15,454.8	60.6987	15,454.8	53.7523	15,454.8	51.8165	15,454.8	55.2976	15,454.8	52.2427	15,454.8	44.3457	15,454.8	41.2327	15,454.8	52.9881	15,454.8	47.8789	15,454.8	47.337	15,454.8	44.5634	15,454.8	44.6538	15,454.8	43.1551	15,454.8	42.7039	15,454.8	46.2624	15,454.8	39.3664	15,454.8	49.8415	15,454.8	28.4837	15,454.8	48.9681	15,454.8	30.9187	15,454.8	43.3396	15,454.8	32.6462	15,454.8	40.7152
15,999.8	79.407	15,999.8	80.4392	15,999.8	80.9076	15,999.8	78.2043	15,999.8	78.2198	15,999.8	75.4564	15,999.8	74.7347	15,999.8	71.341	15,999.8	71.1645	15,999.8	68.7305	15,999.8	67.1985	15,999.8	65.4837	15,999.8	64.5879	15,999.8	61.8419	15,999.8	60.0748	15,999.8	56.936	15,999.8	59.1919	15,999.8	53.8079	15,999.8	44.4321	15,999.8	31.1007	15,999.8	49.9005	15,999.8	49.1611	15,999.8	50.9099	15,999.8	45.0122	15,999.8	49.663	15,999.8	39.71	15,999.8	45.456	15,999.8	45.4934	15,999.8	34.5296	15,999.8	49.0519	15,999.8	29.694	15,999.8	48.4217	15,999.8	33.8713	15,999.8	43.4299	15,999.8	42.9957	15,999.8	40.6808
16,564.5	78.754	16,564.5	79.8557	16,564.5	80.0371	16,564.5	78.2811	16,564.5	78.3635	16,564.5	76.2949	16,564.5	75.4729	16,564.5	70.5119	16,564.5	70.257	16,564.5	66.0528	16,564.5	67.1829	16,564.5	60.7045	16,564.5	64.9994	16,564.5	62.4786	16,564.5	63.6178	16,564.5	53.7429	16,564.5	52.2096	16,564.5	49.1198	16,564.5	51.8232	16,564.5	41.9302	16,564.5	54.9528	16,564.5	45.2595	16,564.5	50.9574	16,564.5	44.3686	16,564.5	47.3195	16,564.5	38.2742	16,564.5	40.8901	16,564.5	46.417	16,564.5	40.7179	16,564.5	47.4289	16,564.5	34.1106	16,564.5	44.6036	16,564.5	19.0751	16,564.5	46.7103	16,564.5	41.2304	16,564.5	41.4795
17,148.2	79.8357	17,148.2	79.9972	17,148.2	79.8844	17,148.2	77.8818	17,148.2	78.3018	17,148.2	75.8771	17,148.2	75.6147	17,148.2	70.2047	17,148.2	69.8925	17,148.2	66.686	17,148.2	67.1126	17,148.2	63.4005	17,148.2	66.9957	17,148.2	61.233	17,148.2	62.0682	17,148.2	55.3686	17,148.2	50.8761	17,148.2	50.1668	17,148.2	50.4146	17,148.2	44.1388	17,148.2	56.6415	17,148.2	46.0954	17,148.2	53.4993	17,148.2	44.5338	17,148.2	46.1546	17,148.2	44.4407	17,148.2	42.16	17,148.2	48.336	17,148.2	45.422	17,148.2	48.2653	17,148.2	40.2741	17,148.2	42.7518	17,148.2	40.7409	17,148.2	48.1651	17,148.2	27.4005	17,148.2	42.4516
17,753.2	80.7773	17,753.2	80.3025	17,753.2	80.3487	17,753.2	77.4113	17,753.2	78.2256	17,753.2	73.7123	17,753.2	74.4387	17,753.2	67.7271	17,753.2	69.1443	17,753.2	63.185	17,753.2	65.5273	17,753.2	63.6554	17,753.2	66.2947	17,753.2	61.3955	17,753.2	57.294	17,753.2	54.5671	17,753.2	53.7911	17,753.2	49.2035	17,753.2	49.0293	17,753.2	41.8603	17,753.2	56.1024	17,753.2	44.7005	17,753.2	49.5769	17,753.2	42.2121	17,753.2	49.143	17,753.2	42.9859	17,753.2	45.4886	17,753.2	46.7402	17,753.2	42.8564	17,753.2	46.7089	17,753.2	36.4908	17,753.2	41.6081	17,753.2	37.3309	17,753.2	47.5751	17,753.2	31.9346	17,753.2	45.3555
18,379.4	80.4932	18,379.4	79.0804	18,379.4	79.3067	18,379.4	76.5849	18,379.4	77.0863	18,379.4	71.1497	18,379.4	72.094	18,379.4	65.7219	18,379.4	66.2614	18,379.4	61.8569	18,379.4	62.8526	18,379.4	59.3324	18,379.4	63.9437	18,379.4	58.8592	18,379.4	57.4362	18,379.4	53.3018	18,379.4	45.8437	18,379.4	43.5319	18,379.4	47.8675	18,379.4	43.9745	18,379.4	53.7583	18,379.4	40.3703	18,379.4	42.1394	18,379.4	37.5815	18,379.4	44.3184	18,379.4	39.4133	18,379.4	36.3968	18,379.4	45.3619	18,379.4	37.1913	18,379.4	45.2333	18,379.4	26.5616	18,379.4	39.6644	18,379.4	36.5453	18,379.4	46.5619	18,379.4	21.2462	18,379.4	45.3337
19,027.6	80.0018	19,027.6	77.8793	19,027.6	77.3643	19,027.6	74.5751	19,027.6	74.6507	19,027.6	67.6949	19,027.6	68.2542	19,027.6	63.4463	19,027.6	61.9758	19,027.6	63.8076	19,027.6	60.704	19,027.6	59.4323	19,027.6	60.1548	19,027.6	53.8192	19,027.6	51.9524	19,027.6	54.1733	19,027.6	50.6078	19,027.6	44.4445	19,027.6	43.4065	19,027.6	40.7818	19,027.6	48.9342	19,027.6	41.1756	19,027.6	48.9178	19,027.6	34.473	19,027.6	44.5897	19,027.6	38.7001	19,027.6	41.0289	19,027.6	43.7636	19,027.6	39.2317	19,027.6	41.3508	19,027.6	33.7591	19,027.6	31.4614	19,027.6	37.4449	19,027.6	44.9913	19,027.6	32.5869	19,027.6	42.5958
19,698.5	80.6831	19,698.5	77.908	19,698.5	77.4347	19,698.5	72.8804	19,698.5	72.4738	19,698.5	64.8149	19,698.5	63.3462	19,698.5	62.4889	19,698.5	57.314	19,698.5	61.733	19,698.5	59.524	19,698.5	56.1146	19,698.5	56.8111	19,698.5	54.9432	19,698.5	50.4883	19,698.5	50.6558	19,698.5	49.9001	19,698.5	40.3628	19,698.5	44.8919	19,698.5	39.7555	19,698.5	44.0502	19,698.5	38.7538	19,698.5	47.9107	19,698.5	33.5252	19,698.5	44.0361	19,698.5	35.0209	19,698.5	41.1411	19,698.5	37.3982	19,698.5	39.1441	19,698.5	30.7197	19,698.5	30.2129	19,698.5	34.2021	19,698.5	31.345	19,698.5	39.578	19,698.5	31.8834	19,698.5	37.3043
19,999.5	80.7634	19,999.5	77.3703	19,999.5	77.8755	19,999.5	71.9003	19,999.5	71.9478	19,999.5	64.9348	19,999.5	62.4391	19,999.5	62.9947	19,999.5	57.7646	19,999.5	61.4191	19,999.5	57.6451	19,999.5	56.3843	19,999.5	59.2785	19,999.5	54.1407	19,999.5	51.9237	19,999.5	50.9893	19,999.5	47.4133	19,999.5	37.0715	19,999.5	39.6612	19,999.5	34.991	19,999.5	20.7096	19,999.5	40.16	19,999.5	48.8633	19,999.5	28.5061	19,999.5	44.7617	19,999.5	33.3651	19,999.5	44.0726	19,999.5	41.0812	19,999.5	33.3877	19,999.5	33.0283	19,999.5	34.2863	19,999.5	41.0728	19,999.5	38.3831	19,999.5	38.1809	19,999.5	37.3085	19,999.5	34.6765
