"SPL Horizontal"																																																																							
"On-Axis"		"10°"		"-10°"		"20°"		"-20°"		"30°"		"-30°"		"40°"		"-40°"		"50°"		"-50°"		"60°"		"-60°"		"70°"		"-70°"		"80°"		"-80°"		"90°"		"-90°"		"100°"		"-100°"		"110°"		"-110°"		"120°"		"-120°"		"130°"		"-130°"		"140°"		"-140°"		"150°"		"-150°"		"160°"		"-160°"		"170°"		"-170°"		"180°"	
"Frequency [Hz]"	"Sound Pessure Level [dB]  / [2.83V 1m] "	"Frequency [Hz]"	"Sound Pessure Level [dB]  / [2.83V 1m] "	"Frequency [Hz]"	"Sound Pessure Level [dB]  / [2.83V 1m] "	"Frequency [Hz]"	"Sound Pessure Level [dB]  / [2.83V 1m] "	"Frequency [Hz]"	"Sound Pessure Level [dB]  / [2.83V 1m] "	"Frequency [Hz]"	"Sound Pessure Level [dB]  / [2.83V 1m] "	"Frequency [Hz]"	"Sound Pessure Level [dB]  / [2.83V 1m] "	"Frequency [Hz]"	"Sound Pessure Level [dB]  / [2.83V 1m] "	"Frequency [Hz]"	"Sound Pessure Level [dB]  / [2.83V 1m] "	"Frequency [Hz]"	"Sound Pessure Level [dB]  / [2.83V 1m] "	"Frequency [Hz]"	"Sound Pessure Level [dB]  / [2.83V 1m] "	"Frequency [Hz]"	"Sound Pessure Level [dB]  / [2.83V 1m] "	"Frequency [Hz]"	"Sound Pessure Level [dB]  / [2.83V 1m] "	"Frequency [Hz]"	"Sound Pessure Level [dB]  / [2.83V 1m] "	"Frequency [Hz]"	"Sound Pessure Level [dB]  / [2.83V 1m] "	"Frequency [Hz]"	"Sound Pessure Level [dB]  / [2.83V 1m] "	"Frequency [Hz]"	"Sound Pessure Level [dB]  / [2.83V 1m] "	"Frequency [Hz]"	"Sound Pessure Level [dB]  / [2.83V 1m] "	"Frequency [Hz]"	"Sound Pessure Level [dB]  / [2.83V 1m] "	"Frequency [Hz]"	"Sound Pessure Level [dB]  / [2.83V 1m] "	"Frequency [Hz]"	"Sound Pessure Level [dB]  / [2.83V 1m] "	"Frequency [Hz]"	"Sound Pessure Level [dB]  / [2.83V 1m] "	"Frequency [Hz]"	"Sound Pessure Level [dB]  / [2.83V 1m] "	"Frequency [Hz]"	"Sound Pessure Level [dB]  / [2.83V 1m] "	"Frequency [Hz]"	"Sound Pessure Level [dB]  / [2.83V 1m] "	"Frequency [Hz]"	"Sound Pessure Level [dB]  / [2.83V 1m] "	"Frequency [Hz]"	"Sound Pessure Level [dB]  / [2.83V 1m] "	"Frequency [Hz]"	"Sound Pessure Level [dB]  / [2.83V 1m] "	"Frequency [Hz]"	"Sound Pessure Level [dB]  / [2.83V 1m] "	"Frequency [Hz]"	"Sound Pessure Level [dB]  / [2.83V 1m] "	"Frequency [Hz]"	"Sound Pessure Level [dB]  / [2.83V 1m] "	"Frequency [Hz]"	"Sound Pessure Level [dB]  / [2.83V 1m] "	"Frequency [Hz]"	"Sound Pessure Level [dB]  / [2.83V 1m] "	"Frequency [Hz]"	"Sound Pessure Level [dB]  / [2.83V 1m] "	"Frequency [Hz]"	"Sound Pessure Level [dB]  / [2.83V 1m] "	"Frequency [Hz]"	"Sound Pessure Level [dB]  / [2.83V 1m] "
20.5078	51.2843	20.5078	51.1648	20.5078	51.424	20.5078	51.0642	20.5078	51.5846	20.5078	50.9815	20.5078	51.7663	20.5078	50.9164	20.5078	51.9676	20.5078	50.8694	20.5078	52.1855	20.5078	50.8423	20.5078	52.4148	20.5078	50.838	20.5078	52.6483	20.5078	50.8611	20.5078	52.877	20.5078	50.9167	20.5078	53.0907	20.5078	51.0106	20.5078	53.2788	20.5078	51.1475	20.5078	53.4309	20.5078	51.3297	20.5078	53.5374	20.5078	51.5555	20.5078	53.5907	20.5078	51.8186	20.5078	53.5852	20.5078	52.1075	20.5078	53.5182	20.5078	52.4073	20.5078	53.3903	20.5078	52.7009	20.5078	53.2056	20.5078	52.9719
21.2402	53.0402	21.2402	53.1138	21.2402	52.9635	21.2402	53.1847	21.2402	52.883	21.2402	53.2522	21.2402	52.7979	21.2402	53.3153	21.2402	52.708	21.2402	53.3716	21.2402	52.6136	21.2402	53.4184	21.2402	52.516	21.2402	53.4518	21.2402	52.4179	21.2402	53.4682	21.2402	52.3234	21.2402	53.4639	21.2402	52.2376	21.2402	53.4362	21.2402	52.1661	21.2402	53.3834	21.2402	52.1148	21.2402	53.3055	21.2402	52.0885	21.2402	53.2044	21.2402	52.0907	21.2402	53.0834	21.2402	52.123	21.2402	52.9476	21.2402	52.1847	21.2402	52.8031	21.2402	52.2735	21.2402	52.6566	21.2402	52.3854	21.2402	52.5152
21.9727	60.5718	21.9727	60.5922	21.9727	60.5624	21.9727	60.6234	21.9727	60.564	21.9727	60.6651	21.9727	60.5763	21.9727	60.7164	21.9727	60.5992	21.9727	60.7765	21.9727	60.6322	21.9727	60.8438	21.9727	60.6749	21.9727	60.9167	21.9727	60.7266	21.9727	60.9929	21.9727	60.7864	21.9727	61.07	21.9727	60.8531	21.9727	61.1454	21.9727	60.9253	21.9727	61.2163	21.9727	61.0008	21.9727	61.2803	21.9727	61.0775	21.9727	61.335	21.9727	61.1527	21.9727	61.3782	21.9727	61.2235	21.9727	61.4085	21.9727	61.2871	21.9727	61.4245	21.9727	61.3411	21.9727	61.4256	21.9727	61.3832	21.9727	61.4117
22.7051	57.9219	22.7051	57.9111	22.7051	57.9466	22.7051	57.9141	22.7051	57.9848	22.7051	57.9307	22.7051	58.0359	22.7051	57.9601	22.7051	58.099	22.7051	58.0015	22.7051	58.1727	22.7051	58.0534	22.7051	58.2554	22.7051	58.1146	22.7051	58.3452	22.7051	58.1836	22.7051	58.4396	22.7051	58.2589	22.7051	58.5361	22.7051	58.3392	22.7051	58.6313	22.7051	58.4233	22.7051	58.7218	22.7051	58.5099	22.7051	58.8039	22.7051	58.5972	22.7051	58.8739	22.7051	58.683	22.7051	58.9281	22.7051	58.7644	22.7051	58.9637	22.7051	58.8377	22.7051	58.9786	22.7051	58.8992	22.7051	58.9722	22.7051	58.945
23.4375	58.767	23.4375	58.7731	23.4375	58.7731	23.4375	58.7904	23.4375	58.7919	23.4375	58.8175	23.4375	58.8238	23.4375	58.853	23.4375	58.8683	23.4375	58.8949	23.4375	58.9246	23.4375	58.9416	23.4375	58.9914	23.4375	58.9913	23.4375	59.0667	23.4375	59.0427	23.4375	59.1479	23.4375	59.0946	23.4375	59.2318	23.4375	59.1467	23.4375	59.3146	23.4375	59.1989	23.4375	59.3925	23.4375	59.2515	23.4375	59.4613	23.4375	59.3045	23.4375	59.5173	23.4375	59.3581	23.4375	59.5577	23.4375	59.4112	23.4375	59.5806	23.4375	59.4623	23.4375	59.5855	23.4375	59.5086	23.4375	59.5735	23.4375	59.5468
24.1699	60.2939	24.1699	60.3179	24.1699	60.2733	24.1699	60.3444	24.1699	60.2567	24.1699	60.3724	24.1699	60.2447	24.1699	60.4007	24.1699	60.2374	24.1699	60.4279	24.1699	60.235	24.1699	60.4525	24.1699	60.2372	24.1699	60.4734	24.1699	60.2437	24.1699	60.4892	24.1699	60.2542	24.1699	60.4992	24.1699	60.268	24.1699	60.5029	24.1699	60.2842	24.1699	60.5007	24.1699	60.3021	24.1699	60.4933	24.1699	60.3206	24.1699	60.482	24.1699	60.3389	24.1699	60.4683	24.1699	60.3562	24.1699	60.4537	24.1699	60.3721	24.1699	60.4393	24.1699	60.3866	24.1699	60.4256	24.1699	60.3999	24.1699	60.4127
25.6348	65.0861	25.6348	65.0758	25.6348	65.1054	25.6348	65.0742	25.6348	65.1339	25.6348	65.0807	25.6348	65.1714	25.6348	65.0945	25.6348	65.2176	25.6348	65.1149	25.6348	65.2715	25.6348	65.1411	25.6348	65.3317	25.6348	65.1723	25.6348	65.3966	25.6348	65.2079	25.6348	65.4637	25.6348	65.2473	25.6348	65.5304	25.6348	65.2901	25.6348	65.5937	25.6348	65.3363	25.6348	65.6505	25.6348	65.3855	25.6348	65.6977	25.6348	65.4374	25.6348	65.7328	25.6348	65.4913	25.6348	65.7539	25.6348	65.546	25.6348	65.7599	25.6348	65.5996	25.6348	65.7509	25.6348	65.6497	25.6348	65.7281	25.6348	65.6935
26.3672	66.5287	26.3672	66.5314	26.3672	66.5328	26.3672	66.5406	26.3672	66.5439	26.3672	66.5558	26.3672	66.5618	26.3672	66.5761	26.3672	66.5861	26.3672	66.6006	26.3672	66.6162	26.3672	66.6283	26.3672	66.6511	26.3672	66.6581	26.3672	66.6895	26.3672	66.6889	26.3672	66.7301	26.3672	66.7197	26.3672	66.7711	26.3672	66.7499	26.3672	66.8109	26.3672	66.7789	26.3672	66.8477	26.3672	66.8063	26.3672	66.8798	26.3672	66.8322	26.3672	66.9059	26.3672	66.8564	26.3672	66.925	26.3672	66.8787	26.3672	66.9367	26.3672	66.8988	26.3672	66.9409	26.3672	66.9161	26.3672	66.9383	26.3672	66.9296
27.0996	67.0991	27.0996	67.0948	27.0996	67.11	27.0996	67.0966	27.0996	67.1277	27.0996	67.104	27.0996	67.1523	27.0996	67.1163	27.0996	67.1833	27.0996	67.1326	27.0996	67.2203	27.0996	67.1522	27.0996	67.262	27.0996	67.1744	27.0996	67.3072	27.0996	67.1985	27.0996	67.354	27.0996	67.224	27.0996	67.4003	27.0996	67.2507	27.0996	67.4437	27.0996	67.2785	27.0996	67.482	27.0996	67.3076	27.0996	67.5129	27.0996	67.3381	27.0996	67.5349	27.0996	67.3699	27.0996	67.5467	27.0996	67.4028	27.0996	67.5481	27.0996	67.436	27.0996	67.5394	27.0996	67.4682	27.0996	67.522	27.0996	67.4976
27.832	68.504	27.832	68.4969	27.832	68.5153	27.832	68.4938	27.832	68.531	27.832	68.4944	27.832	68.5508	27.832	68.4981	27.832	68.5746	27.832	68.5044	27.832	68.6017	27.832	68.5129	27.832	68.6312	27.832	68.523	27.832	68.6621	27.832	68.5345	27.832	68.6929	27.832	68.5471	27.832	68.7222	27.832	68.5609	27.832	68.7485	27.832	68.576	27.832	68.77	27.832	68.593	27.832	68.7856	27.832	68.612	27.832	68.7942	27.832	68.6333	27.832	68.7952	27.832	68.6568	27.832	68.7887	27.832	68.6821	27.832	68.7755	27.832	68.7081	27.832	68.7565	27.832	68.7335
29.2969	70.9669	29.2969	70.9641	29.2969	70.9712	29.2969	70.9627	29.2969	70.9768	29.2969	70.9625	29.2969	70.9837	29.2969	70.9632	29.2969	70.9914	29.2969	70.9645	29.2969	70.9998	29.2969	70.9661	29.2969	71.0081	29.2969	70.9675	29.2969	71.0161	29.2969	70.9685	29.2969	71.0231	29.2969	70.969	29.2969	71.0286	29.2969	70.9688	29.2969	71.0323	29.2969	70.9683	29.2969	71.0337	29.2969	70.9679	29.2969	71.0328	29.2969	70.968	29.2969	71.0296	29.2969	70.9692	29.2969	71.0241	29.2969	70.972	29.2969	71.0169	29.2969	70.9765	29.2969	71.0084	29.2969	70.9829	29.2969	70.9994	29.2969	70.9907
30.0293	72.1151	30.0293	72.1158	30.0293	72.1142	30.0293	72.1164	30.0293	72.1132	30.0293	72.1164	30.0293	72.1122	30.0293	72.1157	30.0293	72.1109	30.0293	72.1139	30.0293	72.1091	30.0293	72.1106	30.0293	72.1065	30.0293	72.1056	30.0293	72.1029	30.0293	72.0987	30.0293	72.098	30.0293	72.0898	30.0293	72.0915	30.0293	72.0791	30.0293	72.0834	30.0293	72.0671	30.0293	72.0738	30.0293	72.0543	30.0293	72.0629	30.0293	72.0416	30.0293	72.0514	30.0293	72.0299	30.0293	72.0399	30.0293	72.0203	30.0293	72.0292	30.0293	72.0134	30.0293	72.0201	30.0293	72.0098	30.0293	72.0134	30.0293	72.0099
31.4941	74.8228	31.4941	74.8187	31.4941	74.8263	31.4941	74.8139	31.4941	74.829	31.4941	74.808	31.4941	74.831	31.4941	74.8011	31.4941	74.8321	31.4941	74.7928	31.4941	74.8319	31.4941	74.7829	31.4941	74.8303	31.4941	74.7715	31.4941	74.8267	31.4941	74.7584	31.4941	74.8208	31.4941	74.7439	31.4941	74.8123	31.4941	74.7284	31.4941	74.8011	31.4941	74.7125	31.4941	74.7872	31.4941	74.6973	31.4941	74.7708	31.4941	74.6836	31.4941	74.7527	31.4941	74.6725	31.4941	74.7336	31.4941	74.6652	31.4941	74.7146	31.4941	74.6622	31.4941	74.6971	31.4941	74.6641	31.4941	74.6821	31.4941	74.6709
32.2266	76.1184	32.2266	76.1071	32.2266	76.13	32.2266	76.096	32.2266	76.1415	32.2266	76.0852	32.2266	76.1526	32.2266	76.0748	32.2266	76.163	32.2266	76.0647	32.2266	76.1722	32.2266	76.0549	32.2266	76.1796	32.2266	76.0455	32.2266	76.1848	32.2266	76.0364	32.2266	76.1871	32.2266	76.0279	32.2266	76.1862	32.2266	76.0204	32.2266	76.1818	32.2266	76.0143	32.2266	76.1737	32.2266	76.0102	32.2266	76.1621	32.2266	76.0087	32.2266	76.1472	32.2266	76.0103	32.2266	76.1297	32.2266	76.0155	32.2266	76.1105	32.2266	76.0245	32.2266	76.0905	32.2266	76.037	32.2266	76.0709	32.2266	76.0528
33.6914	77.9314	33.6914	77.9296	33.6914	77.9314	33.6914	77.926	33.6914	77.9297	33.6914	77.9204	33.6914	77.9263	33.6914	77.9127	33.6914	77.9213	33.6914	77.9028	33.6914	77.9146	33.6914	77.8905	33.6914	77.9062	33.6914	77.876	33.6914	77.8959	33.6914	77.8594	33.6914	77.8837	33.6914	77.8412	33.6914	77.8697	33.6914	77.8218	33.6914	77.854	33.6914	77.802	33.6914	77.8369	33.6914	77.7828	33.6914	77.8189	33.6914	77.7653	33.6914	77.8004	33.6914	77.7504	33.6914	77.7824	33.6914	77.7391	33.6914	77.7657	33.6914	77.7322	33.6914	77.7512	33.6914	77.73	33.6914	77.74	33.6914	77.7327
34.4238	79.0657	34.4238	79.0636	34.4238	79.0657	34.4238	79.0592	34.4238	79.0635	34.4238	79.0526	34.4238	79.0593	34.4238	79.0437	34.4238	79.0531	34.4238	79.0324	34.4238	79.0447	34.4238	79.0188	34.4238	79.0343	34.4238	79.0031	34.4238	79.0217	34.4238	78.9854	34.4238	79.0072	34.4238	78.9663	34.4238	78.9908	34.4238	78.9462	34.4238	78.9728	34.4238	78.9258	34.4238	78.9536	34.4238	78.9061	34.4238	78.9338	34.4238	78.888	34.4238	78.9142	34.4238	78.8723	34.4238	78.8956	34.4238	78.86	34.4238	78.879	34.4238	78.8519	34.4238	78.8653	34.4238	78.8482	34.4238	78.8552	34.4238	78.8494
35.8887	81.1419	35.8887	81.1372	35.8887	81.143	35.8887	81.1289	35.8887	81.1404	35.8887	81.117	35.8887	81.1341	35.8887	81.1015	35.8887	81.1243	35.8887	81.0827	35.8887	81.1109	35.8887	81.0608	35.8887	81.0942	35.8887	81.0362	35.8887	81.0743	35.8887	81.0093	35.8887	81.0514	35.8887	80.981	35.8887	81.0261	35.8887	80.9519	35.8887	80.9989	35.8887	80.9232	35.8887	80.9704	35.8887	80.8959	35.8887	80.9417	35.8887	80.8713	35.8887	80.9137	35.8887	80.8506	35.8887	80.8876	35.8887	80.8347	35.8887	80.8644	35.8887	80.8245	35.8887	80.8452	35.8887	80.8204	35.8887	80.8311	35.8887	80.8226
37.3535	83.2553	37.3535	83.2483	37.3535	83.2584	37.3535	83.2372	37.3535	83.2573	37.3535	83.2223	37.3535	83.2521	37.3535	83.2037	37.3535	83.2428	37.3535	83.1817	37.3535	83.2296	37.3535	83.1568	37.3535	83.2126	37.3535	83.1294	37.3535	83.1921	37.3535	83.1002	37.3535	83.1684	37.3535	83.07	37.3535	83.142	37.3535	83.0397	37.3535	83.1135	37.3535	83.0105	37.3535	83.0838	37.3535	82.9835	37.3535	83.0536	37.3535	82.9598	37.3535	83.024	37.3535	82.9406	37.3535	82.9961	37.3535	82.9267	37.3535	82.971	37.3535	82.9188	37.3535	82.9497	37.3535	82.9173	37.3535	82.9331	37.3535	82.9222
38.8184	85.2348	38.8184	85.2277	38.8184	85.2372	38.8184	85.216	38.8184	85.2347	38.8184	85.1997	38.8184	85.2275	38.8184	85.1792	38.8184	85.2157	38.8184	85.1549	38.8184	85.1994	38.8184	85.1271	38.8184	85.1789	38.8184	85.0966	38.8184	85.1547	38.8184	85.0642	38.8184	85.1272	38.8184	85.0307	38.8184	85.097	38.8184	84.9972	38.8184	85.065	38.8184	84.965	38.8184	85.032	38.8184	84.9352	38.8184	84.9991	38.8184	84.9091	38.8184	84.9673	38.8184	84.8877	38.8184	84.9379	38.8184	84.872	38.8184	84.9119	38.8184	84.8626	38.8184	84.8903	38.8184	84.8598	38.8184	84.874	38.8184	84.8636
39.5508	86.1432	39.5508	86.1368	39.5508	86.1446	39.5508	86.1256	39.5508	86.1411	39.5508	86.1097	39.5508	86.1327	39.5508	86.0895	39.5508	86.1196	39.5508	86.0653	39.5508	86.102	39.5508	86.0376	39.5508	86.0803	39.5508	86.0072	39.5508	86.0549	39.5508	85.9748	39.5508	86.0265	39.5508	85.9415	39.5508	85.9958	39.5508	85.9083	39.5508	85.9636	39.5508	85.8764	39.5508	85.9309	39.5508	85.847	39.5508	85.8988	39.5508	85.8212	39.5508	85.8683	39.5508	85.7999	39.5508	85.8404	39.5508	85.7841	39.5508	85.8162	39.5508	85.7742	39.5508	85.7964	39.5508	85.7705	39.5508	85.7819	39.5508	85.7731
41.0156	87.8494	41.0156	87.8409	41.0156	87.8519	41.0156	87.8267	41.0156	87.8485	41.0156	87.8071	41.0156	87.8393	41.0156	87.7824	41.0156	87.8245	41.0156	87.7531	41.0156	87.8044	41.0156	87.7202	41.0156	87.7795	41.0156	87.6843	41.0156	87.7506	41.0156	87.6467	41.0156	87.7182	41.0156	87.6086	41.0156	87.6834	41.0156	87.5712	41.0156	87.6471	41.0156	87.5359	41.0156	87.6105	41.0156	87.504	41.0156	87.5746	41.0156	87.4767	41.0156	87.5407	41.0156	87.4549	41.0156	87.5098	41.0156	87.4394	41.0156	87.4828	41.0156	87.4305	41.0156	87.4606	41.0156	87.4283	41.0156	87.4437	41.0156	87.4328
42.4805	89.4274	42.4805	89.4194	42.4805	89.4278	42.4805	89.4038	42.4805	89.4206	42.4805	89.381	42.4805	89.4059	42.4805	89.3513	42.4805	89.384	42.4805	89.3154	42.4805	89.3554	42.4805	89.2739	42.4805	89.3207	42.4805	89.2281	42.4805	89.2807	42.4805	89.1789	42.4805	89.2363	42.4805	89.128	42.4805	89.1887	42.4805	89.077	42.4805	89.1393	42.4805	89.0276	42.4805	89.0895	42.4805	88.9816	42.4805	89.0409	42.4805	88.9409	42.4805	88.9952	42.4805	88.9069	42.4805	88.9539	42.4805	88.8809	42.4805	88.9184	42.4805	88.8639	42.4805	88.89	42.4805	88.8563	42.4805	88.8697	42.4805	88.8583
43.9453	90.8585	43.9453	90.8532	43.9453	90.8561	43.9453	90.8403	43.9453	90.846	43.9453	90.8199	43.9453	90.8284	43.9453	90.7926	43.9453	90.8036	43.9453	90.7589	43.9453	90.7724	43.9453	90.7196	43.9453	90.7352	43.9453	90.6757	43.9453	90.6932	43.9453	90.6284	43.9453	90.6473	43.9453	90.5791	43.9453	90.599	43.9453	90.5294	43.9453	90.5497	43.9453	90.4808	43.9453	90.501	43.9453	90.4352	43.9453	90.4544	43.9453	90.394	43.9453	90.4116	43.9453	90.3589	43.9453	90.374	43.9453	90.3308	43.9453	90.3429	43.9453	90.3109	43.9453	90.3193	43.9453	90.2996	43.9453	90.3039	43.9453	90.2972
45.4102	91.9552	45.4102	91.9514	45.4102	91.951	45.4102	91.9395	45.4102	91.9387	45.4102	91.9199	45.4102	91.9185	45.4102	91.893	45.4102	91.891	45.4102	91.8596	45.4102	91.8567	45.4102	91.8204	45.4102	91.8165	45.4102	91.7765	45.4102	91.7715	45.4102	91.7292	45.4102	91.723	45.4102	91.6798	45.4102	91.6724	45.4102	91.6299	45.4102	91.6215	45.4102	91.5811	45.4102	91.572	45.4102	91.5349	45.4102	91.5256	45.4102	91.493	45.4102	91.4839	45.4102	91.4565	45.4102	91.4483	45.4102	91.4267	45.4102	91.4199	45.4102	91.4043	45.4102	91.3995	45.4102	91.3901	45.4102	91.3876	45.4102	91.3845
47.6074	93.129	47.6074	93.1227	47.6074	93.1266	47.6074	93.1079	47.6074	93.1155	47.6074	93.0851	47.6074	93.0959	47.6074	93.0547	47.6074	93.0683	47.6074	93.0177	47.6074	93.0334	47.6074	92.9751	47.6074	92.992	47.6074	92.928	47.6074	92.9454	47.6074	92.8778	47.6074	92.8949	47.6074	92.8262	47.6074	92.8422	47.6074	92.7748	47.6074	92.789	47.6074	92.7253	47.6074	92.7373	47.6074	92.6791	47.6074	92.6887	47.6074	92.6378	47.6074	92.645	47.6074	92.6026	47.6074	92.6075	47.6074	92.5743	47.6074	92.5774	47.6074	92.5537	47.6074	92.5555	47.6074	92.5412	47.6074	92.542	47.6074	92.5373
49.0723	93.6665	49.0723	93.6584	49.0723	93.6657	49.0723	93.6416	49.0723	93.656	49.0723	93.6166	49.0723	93.6375	49.0723	93.5841	49.0723	93.6107	49.0723	93.5451	49.0723	93.5763	49.0723	93.5006	49.0723	93.5353	49.0723	93.4521	49.0723	93.4889	49.0723	93.4011	49.0723	93.4385	49.0723	93.3492	49.0723	93.3859	49.0723	93.2982	49.0723	93.3328	49.0723	93.2497	49.0723	93.2812	49.0723	93.2053	49.0723	93.2328	49.0723	93.1663	49.0723	93.1892	49.0723	93.1336	49.0723	93.1518	49.0723	93.1081	49.0723	93.1216	49.0723	93.0902	49.0723	93.099	49.0723	93.0802	49.0723	93.0846	49.0723	93.0783
50.5371	94.0942	50.5371	94.0851	50.5371	94.0941	50.5371	94.0669	50.5371	94.0848	50.5371	94.0404	50.5371	94.0663	50.5371	94.0061	50.5371	94.0393	50.5371	93.9653	50.5371	94.0045	50.5371	93.9191	50.5371	93.963	50.5371	93.869	50.5371	93.9159	50.5371	93.8167	50.5371	93.865	50.5371	93.7641	50.5371	93.812	50.5371	93.7128	50.5371	93.7587	50.5371	93.6647	50.5371	93.7071	50.5371	93.6211	50.5371	93.6588	50.5371	93.5834	50.5371	93.6155	50.5371	93.5525	50.5371	93.5784	50.5371	93.5288	50.5371	93.5482	50.5371	93.5127	50.5371	93.5256	50.5371	93.5043	50.5371	93.5108	50.5371	93.5037
52.7344	94.5407	52.7344	94.531	52.7344	94.5405	52.7344	94.5115	52.7344	94.5303	52.7344	94.4829	52.7344	94.5105	52.7344	94.4461	52.7344	94.4815	52.7344	94.4021	52.7344	94.4443	52.7344	94.3524	52.7344	94.4001	52.7344	94.2987	52.7344	94.3503	52.7344	94.2428	52.7344	94.2965	52.7344	94.1866	52.7344	94.2408	52.7344	94.1322	52.7344	94.1851	52.7344	94.0815	52.7344	94.1313	52.7344	94.036	52.7344	94.0812	52.7344	93.9971	52.7344	94.0364	52.7344	93.9655	52.7344	93.998	52.7344	93.9419	52.7344	93.9667	52.7344	93.9263	52.7344	93.9431	52.7344	93.9187	52.7344	93.9272	52.7344	93.919
54.1992	94.7552	54.1992	94.7465	54.1992	94.7537	54.1992	94.7279	54.1992	94.7419	54.1992	94.6999	54.1992	94.7203	54.1992	94.6634	54.1992	94.6896	54.1992	94.6197	54.1992	94.6506	54.1992	94.5701	54.1992	94.6047	54.1992	94.5166	54.1992	94.5535	54.1992	94.4609	54.1992	94.4988	54.1992	94.405	54.1992	94.4426	54.1992	94.3511	54.1992	94.387	54.1992	94.3009	54.1992	94.334	54.1992	94.256	54.1992	94.2854	54.1992	94.2175	54.1992	94.2425	54.1992	94.1863	54.1992	94.2064	54.1992	94.1626	54.1992	94.1777	54.1992	94.1465	54.1992	94.1566	54.1992	94.138	54.1992	94.143	54.1992	94.1368
56.3965	94.9982	56.3965	94.9884	56.3965	94.9974	56.3965	94.9685	56.3965	94.986	56.3965	94.939	56.3965	94.9645	56.3965	94.9011	56.3965	94.9335	56.3965	94.856	56.3965	94.8941	56.3965	94.8054	56.3965	94.8476	56.3965	94.7512	56.3965	94.7958	56.3965	94.6954	56.3965	94.7407	56.3965	94.6401	56.3965	94.6844	56.3965	94.5873	56.3965	94.629	56.3965	94.5388	56.3965	94.5767	56.3965	94.4962	56.3965	94.5291	56.3965	94.4603	56.3965	94.4877	56.3965	94.4317	56.3965	94.4533	56.3965	94.4103	56.3965	94.4263	56.3965	94.3962	56.3965	94.4066	56.3965	94.3888	56.3965	94.394	56.3965	94.3881
58.5938	95.1571	58.5938	95.1474	58.5938	95.156	58.5938	95.1273	58.5938	95.1439	58.5938	95.0976	58.5938	95.1214	58.5938	95.0595	58.5938	95.0892	58.5938	95.0144	58.5938	95.0484	58.5938	94.9643	58.5938	95.0007	58.5938	94.9111	58.5938	94.948	58.5938	94.8571	58.5938	94.8924	58.5938	94.8044	58.5938	94.8364	58.5938	94.755	58.5938	94.7823	58.5938	94.7105	58.5938	94.7322	58.5938	94.6721	58.5938	94.688	58.5938	94.6403	58.5938	94.6508	58.5938	94.6153	58.5938	94.6214	58.5938	94.5966	58.5938	94.5995	58.5938	94.5838	58.5938	94.5848	58.5938	94.5762	58.5938	94.5764	58.5938	94.5738
60.0586	95.2299	60.0586	95.2178	60.0586	95.2301	60.0586	95.1944	60.0586	95.2185	60.0586	95.1606	60.0586	95.1955	60.0586	95.1176	60.0586	95.1619	60.0586	95.0672	60.0586	95.1189	60.0586	95.0114	60.0586	95.0683	60.0586	94.9525	60.0586	95.0121	60.0586	94.8929	60.0586	94.9525	60.0586	94.8351	60.0586	94.8923	60.0586	94.7813	60.0586	94.8337	60.0586	94.7334	60.0586	94.7793	60.0586	94.6925	60.0586	94.7308	60.0586	94.6594	60.0586	94.6897	60.0586	94.6339	60.0586	94.6565	60.0586	94.6157	60.0586	94.6314	60.0586	94.6039	60.0586	94.6137	60.0586	94.5981	60.0586	94.6027	60.0586	94.5976
62.2559	95.3648	62.2559	95.3513	62.2559	95.3655	62.2559	95.3256	62.2559	95.3536	62.2559	95.2887	62.2559	95.3295	62.2559	95.2418	62.2559	95.294	62.2559	95.1868	62.2559	95.2487	62.2559	95.1259	62.2559	95.1952	62.2559	95.0617	62.2559	95.1358	62.2559	94.9967	62.2559	95.0729	62.2559	94.9339	62.2559	95.0092	62.2559	94.8755	62.2559	94.9473	62.2559	94.8238	62.2559	94.8897	62.2559	94.7801	62.2559	94.8382	62.2559	94.7453	62.2559	94.7943	62.2559	94.7192	62.2559	94.7584	62.2559	94.7014	62.2559	94.7305	62.2559	94.691	62.2559	94.7102	62.2559	94.687	62.2559	94.6965	62.2559	94.6889
64.4531	95.4271	64.4531	95.4128	64.4531	95.4277	64.4531	95.3855	64.4531	95.4147	64.4531	95.346	64.4531	95.3886	64.4531	95.2959	64.4531	95.3503	64.4531	95.2371	64.4531	95.3015	64.4531	95.172	64.4531	95.2439	64.4531	95.1034	64.4531	95.1801	64.4531	95.0341	64.4531	95.1126	64.4531	94.967	64.4531	95.0444	64.4531	94.905	64.4531	94.9784	64.4531	94.8502	64.4531	94.9171	64.4531	94.8041	64.4531	94.8627	64.4531	94.7674	64.4531	94.8164	64.4531	94.7401	64.4531	94.779	64.4531	94.7216	64.4531	94.7502	64.4531	94.7107	64.4531	94.7294	64.4531	94.7064	64.4531	94.7157	64.4531	94.7081
66.6504	95.4946	66.6504	95.4788	66.6504	95.4959	66.6504	95.4492	66.6504	95.4828	66.6504	95.4069	66.6504	95.4556	66.6504	95.3533	66.6504	95.4155	66.6504	95.2907	66.6504	95.364	66.6504	95.2215	66.6504	95.303	66.6504	95.1487	66.6504	95.2351	66.6504	95.0753	66.6504	95.1631	66.6504	95.0044	66.6504	95.0901	66.6504	94.9389	66.6504	95.0193	66.6504	94.881	66.6504	94.9534	66.6504	94.8324	66.6504	94.8947	66.6504	94.7937	66.6504	94.8449	66.6504	94.7648	66.6504	94.8046	66.6504	94.7449	66.6504	94.7737	66.6504	94.733	66.6504	94.7516	66.6504	94.7281	66.6504	94.7372	66.6504	94.7295
69.5801	95.4752	69.5801	95.4546	69.5801	95.4807	69.5801	95.4195	69.5801	95.4712	69.5801	95.371	69.5801	95.4471	69.5801	95.3108	69.5801	95.4096	69.5801	95.2413	69.5801	95.36	69.5801	95.1651	69.5801	95.3006	69.5801	95.0856	69.5801	95.2337	69.5801	95.0061	69.5801	95.1622	69.5801	94.9303	69.5801	95.089	69.5801	94.8612	69.5801	95.0172	69.5801	94.8015	69.5801	94.9494	69.5801	94.7531	69.5801	94.8879	69.5801	94.7165	69.5801	94.8341	69.5801	94.6917	69.5801	94.7887	69.5801	94.6775	69.5801	94.7518	69.5801	94.6725	69.5801	94.7226	69.5801	94.6753	69.5801	94.7005	69.5801	94.6848
71.7773	95.5169	71.7773	95.4983	71.7773	95.5202	71.7773	95.4649	71.7773	95.5084	71.7773	95.4176	71.7773	95.4821	71.7773	95.3581	71.7773	95.4427	71.7773	95.2887	71.7773	95.3918	71.7773	95.2123	71.7773	95.3318	71.7773	95.132	71.7773	95.2652	71.7773	95.0517	71.7773	95.195	71.7773	94.9749	71.7773	95.124	71.7773	94.9051	71.7773	95.0553	71.7773	94.8451	71.7773	94.9911	71.7773	94.7969	71.7773	94.9334	71.7773	94.7613	71.7773	94.8834	71.7773	94.738	71.7773	94.8411	71.7773	94.7259	71.7773	94.8064	71.7773	94.7232	71.7773	94.7785	71.7773	94.7283	71.7773	94.7563	71.7773	94.7396
73.9746	95.5765	73.9746	95.5597	73.9746	95.5778	73.9746	95.5278	73.9746	95.5639	73.9746	95.482	73.9746	95.5355	73.9746	95.4239	73.9746	95.494	73.9746	95.3559	73.9746	95.4415	73.9746	95.281	73.9746	95.3804	73.9746	95.2025	73.9746	95.3136	73.9746	95.1242	73.9746	95.2441	73.9746	95.0498	73.9746	95.1752	73.9746	94.9827	73.9746	95.1098	73.9746	94.9259	73.9746	95.0503	73.9746	94.8811	73.9746	94.9983	73.9746	94.849	73.9746	94.9545	73.9746	94.829	73.9746	94.9188	73.9746	94.8196	73.9746	94.8902	73.9746	94.8188	73.9746	94.8675	73.9746	94.8245	73.9746	94.8493	73.9746	94.835
76.9043	95.5691	76.9043	95.5549	76.9043	95.5676	76.9043	95.5255	76.9043	95.5506	76.9043	95.4819	76.9043	95.5191	76.9043	95.4261	76.9043	95.4744	76.9043	95.3604	76.9043	95.4189	76.9043	95.2879	76.9043	95.3552	76.9043	95.212	76.9043	95.2864	76.9043	95.1367	76.9043	95.216	76.9043	95.0654	76.9043	95.1473	76.9043	95.0016	76.9043	95.0835	76.9043	94.948	76.9043	95.027	76.9043	94.9059	76.9043	94.9794	76.9043	94.8759	76.9043	94.9413	76.9043	94.8569	76.9043	94.912	76.9043	94.8474	76.9043	94.8904	76.9043	94.8451	76.9043	94.8745	76.9043	94.8478	76.9043	94.8627	76.9043	94.8539
79.834	95.6046	79.834	95.5921	79.834	95.5999	79.834	95.5629	79.834	95.5783	79.834	95.5182	79.834	95.5408	79.834	95.4601	79.834	95.4894	79.834	95.3915	79.834	95.4265	79.834	95.3158	79.834	95.3555	79.834	95.2369	79.834	95.2801	79.834	95.1592	79.834	95.2044	79.834	95.0867	79.834	95.1325	79.834	95.0232	79.834	95.0678	79.834	94.9711	79.834	95.0131	79.834	94.9319	79.834	94.97	79.834	94.9055	79.834	94.9386	79.834	94.8904	79.834	94.9175	79.834	94.8839	79.834	94.9046	79.834	94.8832	79.834	94.8971	79.834	94.8854	79.834	94.8924	79.834	94.8887
82.7637	95.7295	82.7637	95.724	82.7637	95.7152	82.7637	95.699	82.7637	95.6813	82.7637	95.656	82.7637	95.6291	82.7637	95.5968	82.7637	95.5604	82.7637	95.5242	82.7637	95.4781	82.7637	95.4418	82.7637	95.3859	82.7637	95.3534	82.7637	95.2882	82.7637	95.2635	82.7637	95.1898	82.7637	95.1764	82.7637	95.0959	82.7637	95.0961	82.7637	95.0111	82.7637	95.0258	82.7637	94.9394	82.7637	94.9674	82.7637	94.8832	82.7637	94.9214	82.7637	94.8433	82.7637	94.8867	82.7637	94.8187	82.7637	94.8615	82.7637	94.8069	82.7637	94.843	82.7637	94.8049	82.7637	94.8289	82.7637	94.8094	82.7637	94.8178
85.6934	95.6271	85.6934	95.611	85.6934	95.6255	85.6934	95.578	85.6934	95.606	85.6934	95.5297	85.6934	95.5691	85.6934	95.4682	85.6934	95.5163	85.6934	95.3965	85.6934	95.4497	85.6934	95.3178	85.6934	95.3721	85.6934	95.2359	85.6934	95.2871	85.6934	95.1546	85.6934	95.1988	85.6934	95.0775	85.6934	95.1114	85.6934	95.0079	85.6934	95.0294	85.6934	94.9478	85.6934	94.9564	85.6934	94.8986	85.6934	94.8953	85.6934	94.8601	85.6934	94.8476	85.6934	94.8313	85.6934	94.8135	85.6934	94.8105	85.6934	94.7918	85.6934	94.7957	85.6934	94.7805	85.6934	94.7855	85.6934	94.7769	85.6934	94.7791
88.623	95.6135	88.623	95.5944	88.623	95.6151	88.623	95.5586	88.623	95.5992	88.623	95.5078	88.623	95.5667	88.623	95.4447	88.623	95.5193	88.623	95.3727	88.623	95.4599	88.623	95.2959	88.623	95.3916	88.623	95.2186	88.623	95.3186	88.623	95.1455	88.623	95.2452	88.623	95.0806	88.623	95.1756	88.623	95.0273	88.623	95.1139	88.623	94.9875	88.623	95.0628	88.623	94.9616	88.623	95.024	88.623	94.9484	88.623	94.9974	88.623	94.9452	88.623	94.9816	88.623	94.9487	88.623	94.9738	88.623	94.9552	88.623	94.9707	88.623	94.9618	88.623	94.9691	88.623	94.9666
91.5527	95.5457	91.5527	95.5247	91.5527	95.5472	91.5527	95.4853	91.5527	95.5296	91.5527	95.4295	91.5527	95.494	91.5527	95.3602	91.5527	95.4427	91.5527	95.2816	91.5527	95.379	91.5527	95.1984	91.5527	95.3069	91.5527	95.1159	91.5527	95.2311	91.5527	95.0396	91.5527	95.1567	91.5527	94.9743	91.5527	95.0885	91.5527	94.9237	91.5527	95.0306	91.5527	94.89	91.5527	94.9859	91.5527	94.8731	91.5527	94.9553	91.5527	94.8709	91.5527	94.9382	91.5527	94.8796	91.5527	94.9318	91.5527	94.8947	91.5527	94.9323	91.5527	94.9111	91.5527	94.9354	91.5527	94.9251	91.5527	94.9369	91.5527	94.9339
94.4824	95.6769	94.4824	95.6605	94.4824	95.6697	94.4824	95.6213	94.4824	95.6394	94.4824	95.5613	94.4824	95.5875	94.4824	95.4836	94.4824	95.5168	94.4824	95.3926	94.4824	95.4313	94.4824	95.2936	94.4824	95.3362	94.4824	95.1929	94.4824	95.2373	94.4824	95.0969	94.4824	95.141	94.4824	95.012	94.4824	95.0537	94.4824	94.9432	94.4824	94.9808	94.4824	94.8939	94.4824	94.926	94.4824	94.8647	94.4824	94.8906	94.4824	94.8537	94.4824	94.8735	94.4824	94.8568	94.4824	94.8709	94.4824	94.8683	94.4824	94.8776	94.4824	94.8822	94.4824	94.8877	94.4824	94.8933	94.4824	94.8958	94.4824	94.8982
98.1445	95.8098	98.1445	95.7924	98.1445	95.8033	98.1445	95.7521	98.1445	95.7729	98.1445	95.6907	98.1445	95.7199	98.1445	95.6114	98.1445	95.6463	98.1445	95.5181	98.1445	95.5555	98.1445	95.4157	98.1445	95.4519	98.1445	95.3097	98.1445	95.3407	98.1445	95.2061	98.1445	95.228	98.1445	95.1104	98.1445	95.1203	98.1445	95.0274	98.1445	95.0234	98.1445	94.9602	98.1445	94.9423	98.1445	94.9099	98.1445	94.8803	98.1445	94.8756	98.1445	94.8381	98.1445	94.8544	98.1445	94.8143	98.1445	94.8422	98.1445	94.8053	98.1445	94.8347	98.1445	94.8065	98.1445	94.8283	98.1445	94.813	98.1445	94.821
101.807	95.792	101.807	95.7774	101.807	95.7818	101.807	95.7387	101.807	95.747	101.807	95.6779	101.807	95.6892	101.807	95.5983	101.807	95.611	101.807	95.5042	101.807	95.5165	101.807	95.4009	101.807	95.4107	101.807	95.2946	101.807	95.2997	101.807	95.1917	101.807	95.1902	101.807	95.0987	101.807	95.0889	101.807	95.0205	101.807	95.0019	101.807	94.9605	101.807	94.9337	101.807	94.9196	101.807	94.8863	101.807	94.8963	101.807	94.8595	101.807	94.8867	101.807	94.8502	101.807	94.8856	101.807	94.8535	101.807	94.8875	101.807	94.8636	101.807	94.8879	101.807	94.8752	101.807	94.8839
105.469	95.8646	105.469	95.8446	105.469	95.8587	105.469	95.7998	105.469	95.8271	105.469	95.7325	105.469	95.7711	105.469	95.6462	105.469	95.6933	105.469	95.5455	105.469	95.5978	105.469	95.4362	105.469	95.4898	105.469	95.3248	105.469	95.3756	105.469	95.2183	105.469	95.2623	105.469	95.123	105.469	95.157	105.469	95.0445	105.469	95.0664	105.469	94.986	105.469	94.9954	105.469	94.9483	105.469	94.9462	105.469	94.9294	105.469	94.9185	105.469	94.9249	105.469	94.9091	105.469	94.9292	105.469	94.9125	105.469	94.9361	105.469	94.9225	105.469	94.9408	105.469	94.9332	105.469	94.94
109.131	95.9156	109.131	95.897	109.131	95.9076	109.131	95.853	109.131	95.8731	109.131	95.7862	109.131	95.8136	109.131	95.7003	109.131	95.7318	109.131	95.6004	109.131	95.632	109.131	95.4926	109.131	95.5199	109.131	95.3836	109.131	95.4023	109.131	95.2808	109.131	95.2871	109.131	95.1906	109.131	95.1821	109.131	95.1183	109.131	95.0942	109.131	95.067	109.131	95.0287	109.131	95.0368	109.131	94.9878	109.131	95.0249	109.131	94.9705	109.131	95.0264	109.131	94.9726	109.131	95.0348	109.131	94.9879	109.131	95.0434	109.131	95.0088	109.131	95.047	109.131	95.0286	109.131	95.0422
112.793	95.997	112.793	95.9747	112.793	95.9914	112.793	95.9262	112.793	95.9579	112.793	95.8543	112.793	95.8976	112.793	95.7632	112.793	95.8135	112.793	95.6586	112.793	95.7096	112.793	95.547	112.793	95.5919	112.793	95.4359	112.793	95.4676	112.793	95.3328	112.793	95.3451	112.793	95.2447	112.793	95.2329	112.793	95.1765	112.793	95.139	112.793	95.1308	112.793	95.0694	112.793	95.1069	112.793	95.0271	112.793	95.1012	112.793	95.0113	112.793	95.1074	112.793	95.0178	112.793	95.1183	112.793	95.0396	112.793	95.1268	112.793	95.0685	112.793	95.1274	112.793	95.0964	112.793	95.1172
116.455	96.0121	116.455	95.9782	116.455	96.0166	116.455	95.9165	116.455	95.9914	116.455	95.8302	116.455	95.9379	116.455	95.7241	116.455	95.859	116.455	95.6045	116.455	95.7592	116.455	95.4793	116.455	95.6446	116.455	95.3572	116.455	95.5226	116.455	95.247	116.455	95.4018	116.455	95.1566	116.455	95.2909	116.455	95.092	116.455	95.1981	116.455	95.0554	116.455	95.1294	116.455	95.0455	116.455	95.0877	116.455	95.0571	116.455	95.0721	116.455	95.0824	116.455	95.0779	116.455	95.1123	116.455	95.0977	116.455	95.1383	116.455	95.1226	116.455	95.154	116.455	95.1442	116.455	95.1559
120.85	96.114	120.85	96.0779	120.85	96.1171	120.85	96.0099	120.85	96.0874	120.85	95.9131	120.85	96.0266	120.85	95.7923	120.85	95.9384	120.85	95.6542	120.85	95.8277	120.85	95.5072	120.85	95.7015	120.85	95.3613	120.85	95.5682	120.85	95.2274	120.85	95.4371	120.85	95.1156	120.85	95.318	120.85	95.0341	120.85	95.2197	120.85	94.9871	120.85	95.1482	120.85	94.9744	120.85	95.1062	120.85	94.9904	120.85	95.0919	120.85	95.026	120.85	95.0991	120.85	95.0703	120.85	95.119	120.85	95.1124	120.85	95.1414	120.85	95.1436	120.85	95.157	120.85	95.1588
125.244	96.1992	125.244	96.1657	125.244	96.1987	125.244	96.0994	125.244	96.1644	125.244	96.0029	125.244	96.0978	125.244	95.8807	125.244	96.0023	125.244	95.7389	125.244	95.8826	125.244	95.5853	125.244	95.7456	125.244	95.4296	125.244	95.5994	125.244	95.2823	125.244	95.4538	125.244	95.1538	125.244	95.319	125.244	95.0531	125.244	95.2043	125.244	94.9858	125.244	95.1171	125.244	94.953	125.244	95.0608	125.244	94.9508	125.244	95.0342	125.244	94.9713	125.244	95.0317	125.244	95.0039	125.244	95.0445	125.244	95.0379	125.244	95.0622	125.244	95.0641	125.244	95.0754	125.244	95.0771
129.639	96.1145	129.639	96.085	129.639	96.1105	129.639	96.023	129.639	96.0733	129.639	95.9312	129.639	96.0046	129.639	95.8139	129.639	95.9078	129.639	95.6771	129.639	95.7879	129.639	95.5285	129.639	95.6518	129.639	95.3775	129.639	95.5079	129.639	95.2342	129.639	95.3657	129.639	95.1088	129.639	95.2353	129.639	95.0099	129.639	95.1258	129.639	94.9431	129.639	95.0439	129.639	94.9096	129.639	94.9926	129.639	94.9057	129.639	94.9703	129.639	94.9239	129.639	94.9712	129.639	94.9541	129.639	94.9863	129.639	94.9859	129.639	95.0054	129.639	95.0104	129.639	95.0196	129.639	95.0222
134.033	96.0864	134.033	96.0668	134.033	96.0712	134.033	96.014	134.033	96.0217	134.033	95.931	134.033	95.9397	134.033	95.8225	134.033	95.8289	134.033	95.695	134.033	95.695	134.033	95.5566	134.033	95.5458	134.033	95.4169	134.033	95.3909	134.033	95.286	134.033	95.2413	134.033	95.1734	134.033	95.1083	134.033	95.0869	134.033	95.0023	134.033	95.0307	134.033	94.9303	134.033	95.0048	134.033	94.895	134.033	95.0045	134.033	94.8936	134.033	95.0215	134.033	94.9188	134.033	95.0455	134.033	94.9597	134.033	95.0664	134.033	95.0048	134.033	95.0756	134.033	95.0435	134.033	95.0683
138.428	96.056	138.428	96.0258	138.428	96.05	138.428	95.9615	138.428	96.0074	138.428	95.8672	138.428	95.93	138.428	95.7487	138.428	95.8216	138.428	95.6142	138.428	95.6881	138.428	95.4734	138.428	95.5378	138.428	95.3374	138.428	95.3812	138.428	95.2175	138.428	95.2308	138.428	95.1237	138.428	95.0992	138.428	95.0628	138.428	94.9981	138.428	95.0371	138.428	94.9356	138.428	95.0435	138.428	94.9145	138.428	95.0741	138.428	94.9315	138.428	95.1176	138.428	94.9776	138.428	95.1616	138.428	95.0401	138.428	95.1944	138.428	95.1052	138.428	95.2074	138.428	95.1603	138.428	95.196
143.555	96.0915	143.555	96.0452	143.555	96.0965	143.555	95.9596	143.555	96.0603	143.555	95.8388	143.555	95.9848	143.555	95.6892	143.555	95.8741	143.555	95.52	143.555	95.7343	143.555	95.3427	143.555	95.5742	143.555	95.1711	143.555	95.4052	143.555	95.02	143.555	95.2402	143.555	94.9028	143.555	95.0934	143.555	94.8295	143.555	94.9778	143.555	94.8038	143.555	94.9028	143.555	94.8219	143.555	94.8722	143.555	94.8734	143.555	94.8826	143.555	94.9433	143.555	94.9245	143.555	95.0152	143.555	94.9835	143.555	95.0743	143.555	95.0439	143.555	95.1096	143.555	95.0915	143.555	95.1153
148.682	96.1087	148.682	96.062	148.682	96.1106	148.682	95.9723	148.682	96.068	148.682	95.8434	148.682	95.9832	148.682	95.6814	148.682	95.8603	148.682	95.4954	148.682	95.7059	148.682	95.2971	148.682	95.5295	148.682	95.1014	148.682	95.3428	148.682	94.9244	148.682	95.1601	148.682	94.7821	148.682	94.9968	148.682	94.6868	148.682	94.8672	148.682	94.6445	148.682	94.7818	148.682	94.6531	148.682	94.7446	148.682	94.7019	148.682	94.7522	148.682	94.7749	148.682	94.7935	148.682	94.8537	148.682	94.8528	148.682	94.9214	148.682	94.913	148.682	94.9652	148.682	94.9585	148.682	94.9777
153.809	96.2043	153.809	96.1576	153.809	96.2039	153.809	96.0652	153.809	96.1569	153.809	95.9305	153.809	96.0654	153.809	95.7588	153.809	95.9335	153.809	95.5585	153.809	95.7676	153.809	95.3409	153.809	95.5768	153.809	95.1203	153.809	95.3729	153.809	94.9135	153.809	95.1702	153.809	94.7378	153.809	94.9847	153.809	94.6081	153.809	94.8315	153.809	94.5334	153.809	94.7223	153.809	94.5143	153.809	94.6625	153.809	94.5424	153.809	94.6494	153.809	94.6021	153.809	94.6727	153.809	94.6746	153.809	94.7167	153.809	94.7417	153.809	94.7638	153.809	94.7891	153.809	94.7982	153.809	94.8084
159.668	96.2729	159.668	96.2346	159.668	96.2641	159.668	96.1508	159.668	96.2088	159.668	96.0245	159.668	96.1092	159.668	95.8613	159.668	95.9693	159.668	95.6692	159.668	95.7959	159.668	95.4593	159.668	95.5984	159.668	95.2458	159.668	95.3894	159.668	95.0452	159.668	95.1839	159.668	94.8745	159.668	94.9987	159.668	94.7484	159.668	94.8497	159.668	94.6757	159.668	94.7488	159.668	94.6572	159.668	94.701	159.668	94.6844	159.668	94.7024	159.668	94.7419	159.668	94.7411	159.668	94.8111	159.668	94.8001	159.668	94.8737	159.668	94.8609	159.668	94.9151	159.668	94.907	159.668	94.9268
164.795	96.2628	164.795	96.2278	164.795	96.2509	164.795	96.1476	164.795	96.1923	164.795	96.0259	164.795	96.0889	164.795	95.8683	164.795	95.9448	164.795	95.6834	164.795	95.7665	164.795	95.4821	164.795	95.5636	164.795	95.2785	164.795	95.3489	164.795	95.0885	164.795	95.1381	164.795	94.928	164.795	94.9488	164.795	94.8106	164.795	94.7976	164.795	94.7439	164.795	94.6974	164.795	94.7278	164.795	94.6536	164.795	94.7537	164.795	94.6623	164.795	94.8064	164.795	94.7112	164.795	94.8679	164.795	94.7824	164.795	94.9205	164.795	94.8565	164.795	94.9503	164.795	94.9162	164.795	94.9494
170.654	96.1146	170.654	96.0655	170.654	96.1145	170.654	95.9694	170.654	96.0651	170.654	95.8307	170.654	95.9684	170.654	95.6564	170.654	95.8285	170.654	95.4566	170.654	95.6524	170.654	95.245	170.654	95.4501	170.654	95.0383	170.654	95.2353	170.654	94.8551	170.654	95.0252	170.654	94.7134	170.654	94.8387	170.654	94.6264	170.654	94.6945	170.654	94.5998	170.654	94.6063	170.654	94.6287	170.654	94.5801	170.654	94.6994	170.654	94.6109	170.654	94.7918	170.654	94.6844	170.654	94.8842	170.654	94.7803	170.654	94.9573	170.654	94.8762	170.654	94.9969	170.654	94.9526	170.654	94.9953
176.514	95.9831	176.514	95.9314	176.514	95.9811	176.514	95.8275	176.514	95.9262	176.514	95.6751	176.514	95.8211	176.514	95.4808	176.514	95.6709	176.514	95.255	176.514	95.4836	176.514	95.012	176.514	95.2705	176.514	94.7708	176.514	95.0468	176.514	94.5535	176.514	94.8309	176.514	94.3825	176.514	94.6431	176.514	94.276	176.514	94.5021	176.514	94.2429	176.514	94.4215	176.514	94.2794	176.514	94.4051	176.514	94.3695	176.514	94.4457	176.514	94.4897	176.514	94.5265	176.514	94.6137	176.514	94.6247	176.514	94.7183	176.514	94.7169	176.514	94.7863	176.514	94.7828	176.514	94.8083
183.105	95.9547	183.105	95.9186	183.105	95.9338	183.105	95.827	183.105	95.8566	183.105	95.6832	183.105	95.7254	183.105	95.4934	183.105	95.5455	183.105	95.267	183.105	95.325	183.105	95.0178	183.105	95.0764	183.105	94.764	183.105	94.8165	183.105	94.5281	183.105	94.5669	183.105	94.3337	183.105	94.3517	183.105	94.2018	183.105	94.1938	183.105	94.1445	183.105	94.1093	183.105	94.161	183.105	94.1023	183.105	94.2369	183.105	94.1631	183.105	94.348	183.105	94.2703	183.105	94.4666	183.105	94.3963	183.105	94.5667	183.105	94.5139	183.105	94.6287	183.105	94.6004	183.105	94.6408
189.697	95.8797	189.697	95.8355	189.697	95.8653	189.697	95.7352	189.697	95.7914	189.697	95.5838	189.697	95.6591	189.697	95.3885	189.697	95.4721	189.697	95.1599	189.697	95.2374	189.697	94.9128	189.697	94.9662	189.697	94.666	189.697	94.6756	189.697	94.4416	189.697	94.3884	189.697	94.262	189.697	94.1324	189.697	94.1457	189.697	93.9362	189.697	94.1016	189.697	93.8226	189.697	94.126	189.697	93.8012	189.697	94.2024	189.697	93.8646	189.697	94.306	189.697	93.9898	189.697	94.4092	189.697	94.1452	189.697	94.487	189.697	94.2985	189.697	94.5206	189.697	94.4227	189.697	94.4996
196.289	95.8604	196.289	95.7899	196.289	95.8669	196.289	95.6578	196.289	95.8085	196.289	95.469	196.289	95.6867	196.289	95.2318	196.289	95.5051	196.289	94.9585	196.289	95.2704	196.289	94.6667	196.289	94.9939	196.289	94.38	196.289	94.6923	196.289	94.1261	196.289	94.3888	196.289	93.9334	196.289	94.1122	196.289	93.8238	196.289	93.8936	196.289	93.8058	196.289	93.7591	196.289	93.8706	196.289	93.7222	196.289	93.9942	196.289	93.7774	196.289	94.1435	196.289	93.902	196.289	94.2854	196.289	94.0622	196.289	94.3916	196.289	94.2224	196.289	94.4426	196.289	94.3519	196.289	94.4291
202.881	95.8883	202.881	95.8049	202.881	95.904	202.881	95.6555	202.881	95.8521	202.881	95.4437	202.881	95.7344	202.881	95.1763	202.881	95.5544	202.881	94.8648	202.881	95.3184	202.881	94.5267	202.881	95.0366	202.881	94.1871	202.881	94.7247	202.881	93.8778	202.881	94.4045	202.881	93.6333	202.881	94.1045	202.881	93.4832	202.881	93.8561	202.881	93.4421	202.881	93.688	202.881	93.5028	202.881	93.6169	202.881	93.6385	202.881	93.6412	202.881	93.8106	202.881	93.7401	202.881	93.9797	202.881	93.8797	202.881	94.113	202.881	94.0227	202.881	94.1885	202.881	94.1361	202.881	94.1957
210.205	95.8329	210.205	95.7619	210.205	95.836	210.205	95.6231	210.205	95.7726	210.205	95.4181	210.205	95.6451	210.205	95.1514	210.205	95.4581	210.205	94.8314	210.205	95.2185	210.205	94.4725	210.205	94.9369	210.205	94.0974	210.205	94.6292	210.205	93.7374	210.205	94.3167	210.205	93.4311	210.205	94.0262	210.205	93.2164	210.205	93.7868	210.205	93.1192	210.205	93.6236	210.205	93.1427	210.205	93.5504	210.205	93.2643	210.205	93.5636	210.205	93.4438	210.205	93.6425	210.205	93.6362	210.205	93.7547	210.205	93.8027	210.205	93.8649	210.205	93.916	210.205	93.9417	210.205	93.9626
217.529	95.6627	217.529	95.6052	217.529	95.6507	217.529	95.4782	217.529	95.5705	217.529	95.2838	217.529	95.4253	217.529	95.0268	217.529	95.2203	217.529	94.7161	217.529	94.9642	217.529	94.367	217.529	94.67	217.529	94.0026	217.529	94.3566	217.529	93.6547	217.529	94.0493	217.529	93.3618	217.529	93.7779	217.529	93.1614	217.529	93.5729	217.529	93.0787	217.529	93.457	217.529	93.1161	217.529	93.4379	217.529	93.2509	217.529	93.5039	217.529	93.443	217.529	93.6269	217.529	93.6476	217.529	93.7707	217.529	93.8256	217.529	93.8992	217.529	93.9491	217.529	93.9831	217.529	94.0026
225.586	95.7951	225.586	95.7615	225.586	95.7509	225.586	95.6506	225.586	95.6289	225.586	95.4647	225.586	95.4308	225.586	95.2076	225.586	95.1604	225.586	94.8873	225.586	94.8251	225.586	94.5173	225.586	94.4389	225.586	94.1196	225.586	94.0243	225.586	93.7267	225.586	93.6152	225.586	93.3807	225.586	93.2556	225.586	93.1267	225.586	92.9935	225.586	92.9999	225.586	92.8661	225.586	93.0104	225.586	92.8844	225.586	93.1374	225.586	93.0263	225.586	93.336	225.586	93.2447	225.586	93.5531	225.586	93.484	225.586	93.7404	225.586	93.6944	225.586	93.8624	225.586	93.8395	225.586	93.8978
232.91	95.9691	232.91	95.9198	232.91	95.9437	232.91	95.799	232.91	95.841	232.91	95.6104	232.91	95.6592	232.91	95.3592	232.91	95.3975	232.91	95.0534	232.91	95.0583	232.91	94.7057	232.91	94.6491	232.91	94.3353	232.91	94.1859	232.91	93.9694	232.91	93.6976	232.91	93.6424	232.91	93.2285	232.91	93.3906	232.91	92.8364	232.91	93.2427	232.91	92.5802	232.91	93.2084	232.91	92.4975	232.91	93.2724	232.91	92.5844	232.91	93.3982	232.91	92.7958	232.91	93.5396	232.91	93.0653	232.91	93.6524	232.91	93.3289	232.91	93.7017	232.91	93.5385	232.91	93.666
241.699	95.5738	241.699	95.4607	241.699	95.6106	241.699	95.2723	241.699	95.5709	241.699	95.0108	241.699	95.4545	241.699	94.6811	241.699	95.2618	241.699	94.2932	241.699	94.9945	241.699	93.8652	241.699	94.6578	241.699	93.4259	241.699	94.2622	241.699	93.0164	241.699	93.8274	241.699	92.6861	241.699	93.3853	241.699	92.4809	241.699	92.9807	241.699	92.4259	241.699	92.6663	241.699	92.5114	241.699	92.4877	241.699	92.6959	241.699	92.4639	241.699	92.9215	241.699	92.5761	241.699	93.132	241.699	92.7747	241.699	93.2835	241.699	92.9985	241.699	93.3487	241.699	93.1924	241.699	93.3165
249.756	95.8474	249.756	95.7809	249.756	95.8346	249.756	95.6337	249.756	95.7433	249.756	95.4051	249.756	95.5743	249.756	95.0957	249.756	95.329	249.756	94.7093	249.756	95.01	249.756	94.2555	249.756	94.6231	249.756	93.7541	249.756	94.1802	249.756	93.2388	249.756	93.7026	249.756	92.7594	249.756	93.2237	249.756	92.3767	249.756	92.7903	249.756	92.1454	249.756	92.4553	249.756	92.0897	249.756	92.2626	249.756	92.1887	249.756	92.2269	249.756	92.3847	249.756	92.3244	249.756	92.6075	249.756	92.5014	249.756	92.7964	249.756	92.6948	249.756	92.9099	249.756	92.8496	249.756	92.9277
258.545	95.6958	258.545	95.6187	258.545	95.7	258.545	95.4688	258.545	95.6314	258.545	95.2465	258.545	95.4904	258.545	94.954	258.545	95.2779	258.545	94.5967	258.545	94.9966	258.545	94.1859	258.545	94.6525	258.545	93.7421	258.545	94.2572	258.545	93.2981	258.545	93.8306	258.545	92.8993	258.545	93.4033	258.545	92.5969	258.545	93.0167	258.545	92.4325	258.545	92.7173	258.545	92.4193	258.545	92.5436	258.545	92.5333	258.545	92.5099	258.545	92.7222	258.545	92.5976	258.545	92.9253	258.545	92.7615	258.545	93.0904	258.545	92.9455	258.545	93.1822	258.545	93.0988	258.545	93.1843
268.066	95.3829	268.066	95.2882	268.066	95.396	268.066	95.111	268.066	95.3285	268.066	94.8506	268.066	95.1808	268.066	94.5079	268.066	94.9541	268.066	94.0881	268.066	94.6507	268.066	93.6034	268.066	94.2764	268.066	93.0792	268.066	93.8432	268.066	92.5583	268.066	93.3729	268.066	92.1026	268.066	92.9005	268.066	91.783	268.066	92.4755	268.066	91.6534	268.066	92.1549	268.066	91.7216	268.066	91.986	268.066	91.9417	268.066	91.9849	268.066	92.2355	268.066	92.125	268.066	92.5247	268.066	92.3476	268.066	92.749	268.066	92.5845	268.066	92.8721	268.066	92.7758	268.066	92.8795
277.588	95.6424	277.588	95.5968	277.588	95.6087	277.588	95.4701	277.588	95.497	277.588	95.26	277.588	95.3086	277.588	94.9645	277.588	95.0458	277.588	94.5828	277.588	94.7131	277.588	94.1188	277.588	94.3195	277.588	93.5847	277.588	93.8809	277.588	93.0078	277.588	93.4232	277.588	92.437	277.588	92.9837	277.588	91.9445	277.588	92.6094	277.588	91.6127	277.588	92.3473	277.588	91.5002	277.588	92.2279	277.588	91.606	277.588	92.25	277.588	91.8666	277.588	92.3782	277.588	92.1894	277.588	92.555	277.588	92.4901	277.588	92.7193	277.588	92.7109	277.588	92.82	277.588	92.8225
287.109	95.6284	287.109	95.5713	287.109	95.6074	287.109	95.4383	287.109	95.5054	287.109	95.2301	287.109	95.3186	287.109	94.9475	287.109	95.0441	287.109	94.5925	287.109	94.6814	287.109	94.1715	287.109	94.2362	287.109	93.6991	287.109	93.724	287.109	93.2033	287.109	93.1767	287.109	92.7288	287.109	92.647	287.109	92.3357	287.109	92.2067	287.109	92.0857	287.109	91.9302	287.109	92.0167	287.109	91.8615	287.109	92.1204	287.109	91.988	287.109	92.3436	287.109	92.2447	287.109	92.6114	287.109	92.5456	287.109	92.8531	287.109	92.8146	287.109	93.0158	287.109	92.9984	287.109	93.0681
297.363	95.6738	297.363	95.5872	297.363	95.6837	297.363	95.4242	297.363	95.6143	297.363	95.1837	297.363	95.4608	297.363	94.8645	297.363	95.2166	297.363	94.4672	297.363	94.8743	297.363	93.9979	297.363	94.4288	297.363	93.4727	297.363	93.8805	297.363	92.9242	297.363	93.2428	297.363	92.4065	297.363	92.5517	297.363	91.9914	297.363	91.8782	297.363	91.7493	297.363	91.3301	297.363	91.7149	297.363	91.0236	297.363	91.8624	297.363	91.0192	297.363	92.1164	297.363	91.2751	297.363	92.3858	297.363	91.6732	297.363	92.5924	297.363	92.0866	297.363	92.6826	297.363	92.4224	297.363	92.6277
307.617	95.4132	307.617	95.297	307.617	95.4589	307.617	95.1096	307.617	95.4336	307.617	94.8498	307.617	95.3355	307.617	94.5166	307.617	95.1613	307.617	94.1117	307.617	94.9067	307.617	93.6422	307.617	94.5681	307.617	93.1258	307.617	94.1454	307.617	92.5972	307.617	93.6465	307.617	92.1126	307.617	93.0943	307.617	91.7457	307.617	92.5352	307.617	91.5653	307.617	92.0429	307.617	91.5994	307.617	91.7068	307.617	91.8134	307.617	91.595	307.617	92.1244	307.617	91.7105	307.617	92.4384	307.617	91.9834	307.617	92.6782	307.617	92.3088	307.617	92.794	307.617	92.5906	307.617	92.7634
318.604	95.5339	318.604	95.4578	318.604	95.5317	318.604	95.2995	318.604	95.4535	318.604	95.0541	318.604	95.3	318.604	94.7162	318.604	95.0703	318.604	94.282	318.604	94.7627	318.604	93.7515	318.604	94.3762	318.604	93.1339	318.604	93.9129	318.604	92.4559	318.604	93.3828	318.604	91.7722	318.604	92.8099	318.604	91.1727	318.604	92.2392	318.604	90.7686	318.604	91.7395	318.604	90.643	318.604	91.391	318.604	90.7924	318.604	91.252	318.604	91.1227	318.604	91.3216	318.604	91.5054	318.604	91.5337	318.604	91.8328	318.604	91.7896	318.604	92.0376	318.604	91.9971	318.604	92.0911
329.59	95.3347	329.59	95.2709	329.59	95.3302	329.59	95.1337	329.59	95.261	329.59	94.917	329.59	95.1289	329.59	94.6143	329.59	94.9339	329.59	94.2208	329.59	94.6745	329.59	93.736	329.59	94.3491	329.59	93.1694	329.59	93.9577	329.59	92.5476	329.59	93.506	329.59	91.9244	329.59	93.0105	329.59	91.3847	329.59	92.5045	329.59	91.028	329.59	92.0416	329.59	90.9234	329.59	91.6888	329.59	91.0608	329.59	91.5042	329.59	91.3533	329.59	91.5043	329.59	91.6858	329.59	91.6492	329.59	91.9626	329.59	91.8592	329.59	92.125	329.59	92.0488	329.59	92.1505
341.309	95.0335	341.309	95.0279	341.309	94.9507	341.309	94.9336	341.309	94.7791	341.309	94.7484	341.309	94.5181	341.309	94.4687	341.309	94.1688	341.309	94.0909	341.309	93.7363	341.309	93.6138	341.309	93.2327	341.309	93.045	341.309	92.6824	341.309	92.4091	341.309	92.1278	341.309	91.7606	341.309	91.6328	341.309	91.1931	341.309	91.2756	341.309	90.8264	341.309	91.1245	341.309	90.7534	341.309	91.2018	341.309	90.9742	341.309	91.4664	341.309	91.3897	341.309	91.8329	341.309	91.8643	341.309	92.2072	341.309	92.2856	341.309	92.5121	341.309	92.5828	341.309	92.6941	341.309	92.7217
353.76	95.4685	353.76	95.3807	353.76	95.4841	353.76	95.2244	353.76	95.4204	353.76	94.9995	353.76	95.2678	353.76	94.702	353.76	95.0148	353.76	94.3251	353.76	94.6495	353.76	93.8617	353.76	94.161	353.76	93.3094	353.76	93.5432	353.76	92.6789	353.76	92.8014	353.76	92.0062	353.76	91.9659	353.76	91.3663	353.76	91.1126	353.76	90.8738	353.76	90.382	353.76	90.6451	353.76	89.9559	353.76	90.7222	353.76	89.9512	353.76	91.0318	353.76	90.3124	353.76	91.43	353.76	90.8535	353.76	91.7788	353.76	91.386	353.76	91.9829	353.76	91.7856	353.76	91.9905
366.211	95.7055	366.211	95.5909	366.211	95.7504	366.211	95.4025	366.211	95.7262	366.211	95.1334	366.211	95.6292	366.211	94.7745	366.211	95.4517	366.211	94.3164	366.211	95.1817	366.211	93.7521	366.211	94.805	366.211	93.0826	366.211	94.3072	366.211	92.3268	366.211	93.6788	366.211	91.5377	366.211	92.9236	366.211	90.8191	366.211	92.0749	366.211	90.3195	366.211	91.2185	366.211	90.1654	366.211	90.5094	366.211	90.3622	366.211	90.1322	366.211	90.7782	366.211	90.176	366.211	91.2359	366.211	90.5447	366.211	91.5941	366.211	91.0343	366.211	91.7692	366.211	91.464	366.211	91.7248
378.662	95.7213	378.662	95.6391	378.662	95.7406	378.662	95.4905	378.662	95.6987	378.662	95.2697	378.662	95.5944	378.662	94.9689	378.662	95.4241	378.662	94.5788	378.662	95.1813	378.662	94.0904	378.662	94.8574	378.662	93.5002	378.662	94.4439	378.662	92.8187	378.662	93.9371	378.662	92.0844	378.662	93.345	378.662	91.3815	378.662	92.6984	378.662	90.843	378.662	92.0631	378.662	90.6062	378.662	91.5427	378.662	90.7167	378.662	91.249	378.662	91.0803	378.662	91.2358	378.662	91.5295	378.662	91.4507	378.662	91.9155	378.662	91.7647	378.662	92.1471	378.662	92.0425	378.662	92.1869
392.578	95.2055	392.578	95.1671	392.578	95.1892	392.578	95.0721	392.578	95.118	392.578	94.9156	392.578	94.9898	392.578	94.6892	392.578	94.8004	392.578	94.3813	392.578	94.5433	392.578	93.9786	392.578	94.2103	392.578	93.4703	392.578	93.7937	392.578	92.8561	392.578	93.2911	392.578	92.1594	392.578	92.7142	392.578	91.4461	392.578	92.1004	392.578	90.8392	392.578	91.525	392.578	90.494	392.578	91.0984	392.578	90.5065	392.578	90.9246	392.578	90.8254	392.578	91.0303	392.578	91.2855	392.578	91.3327	392.578	91.7155	392.578	91.6897	392.578	92.0006	392.578	91.9702	392.578	92.087
405.762	95.2683	405.762	95.2155	405.762	95.2447	405.762	95.0882	405.762	95.1432	405.762	94.8869	405.762	94.9625	405.762	94.6089	405.762	94.7022	405.762	94.2476	405.762	94.3613	405.762	93.7934	405.762	93.9388	405.762	93.2388	405.762	93.4353	405.762	92.5876	405.762	92.8589	405.762	91.872	405.762	92.2361	405.762	91.1756	405.762	91.6263	405.762	90.6458	405.762	91.1317	405.762	90.45	405.762	90.8772	405.762	90.6557	405.762	90.9407	405.762	91.1567	405.762	91.2844	405.762	91.7535	405.762	91.7707	405.762	92.2723	405.762	92.2424	405.762	92.6073	405.762	92.5798	405.762	92.7116
420.41	95.7093	420.41	95.6008	420.41	95.7643	420.41	95.4398	420.41	95.7614	420.41	95.223	420.41	95.6924	420.41	94.9424	420.41	95.5442	420.41	94.5844	420.41	95.2991	420.41	94.1308	420.41	94.9348	420.41	93.5633	420.41	94.4268	420.41	92.8706	420.41	93.7517	420.41	92.0655	420.41	92.8966	420.41	91.2115	420.41	91.8778	420.41	90.4554	420.41	90.7819	420.41	90.0145	420.41	89.8234	420.41	90.042	420.41	89.3284	420.41	90.4663	420.41	89.4873	420.41	91.0446	420.41	90.1197	420.41	91.5431	420.41	90.867	420.41	91.8165	420.41	91.4673	420.41	91.7964
435.059	95.5317	435.059	95.4928	435.059	95.5097	435.059	95.3888	435.059	95.4314	435.059	95.2145	435.059	95.3015	435.059	94.962	435.059	95.1213	435.059	94.6184	435.059	94.8859	435.059	94.1671	435.059	94.5821	435.059	93.5917	435.059	94.1904	435.059	92.8851	435.059	93.6901	435.059	92.0673	435.059	93.0695	435.059	91.2156	435.059	92.3436	435.059	90.4965	435.059	91.58	435.059	90.1389	435.059	90.9251	435.059	90.276	435.059	90.5788	435.059	90.7974	435.059	90.6637	435.059	91.4437	435.059	91.0951	435.059	91.9901	435.059	91.6464	435.059	92.3081	435.059	92.1064	435.059	92.3459
450.439	95.7723	450.439	95.7128	450.439	95.7737	450.439	95.5954	450.439	95.7196	450.439	95.4208	450.439	95.6149	450.439	95.1841	450.439	95.4614	450.439	94.8703	450.439	95.2527	450.439	94.4525	450.439	94.9697	450.439	93.8953	450.439	94.5816	450.439	93.163	450.439	94.0509	450.439	92.2376	450.439	93.3426	450.439	91.1582	450.439	92.4427	450.439	90.0998	450.439	91.3958	450.439	89.4366	450.439	90.3778	450.439	89.5298	450.439	89.7438	450.439	90.2773	450.439	89.8206	450.439	91.2202	450.439	90.5074	450.439	91.9921	450.439	91.3775	450.439	92.4213	450.439	92.082	450.439	92.4504
466.553	95.1267	466.553	95.0643	466.553	95.1302	466.553	94.9498	466.553	95.0789	466.553	94.7959	466.553	94.9853	466.553	94.6124	466.553	94.8626	466.553	94.3959	466.553	94.7144	466.553	94.1249	466.553	94.5277	466.553	93.7626	466.553	94.2724	466.553	93.2665	466.553	93.9071	466.553	92.6025	466.553	93.3897	466.553	91.7685	466.553	92.6898	466.553	90.8338	466.553	91.8115	466.553	89.993	466.553	90.8349	466.553	89.5459	466.553	89.9705	466.553	89.6651	466.553	89.5311	466.553	90.1749	466.553	89.6765	466.553	90.7279	466.553	90.2031	466.553	91.067	466.553	90.7536	466.553	91.077
482.666	94.8459	482.666	94.7738	482.666	94.8107	482.666	94.6061	482.666	94.6735	482.666	94.3654	482.666	94.4562	482.666	94.0756	482.666	94.1913	482.666	93.7485	482.666	93.909	482.666	93.3744	482.666	93.622	482.666	92.92	482.666	93.316	482.666	92.3372	482.666	92.952	482.666	91.5792	482.666	92.48	482.666	90.6294	482.666	91.8592	482.666	89.5576	482.666	91.0858	482.666	88.6116	482.666	90.2354	482.666	88.212	482.666	89.512	482.666	88.5753	482.666	89.2049	482.666	89.3914	482.666	89.4389	482.666	90.1914	482.666	89.9984	482.666	90.6959	482.666	90.5361	482.666	90.8065
500.244	95.2506	500.244	95.1168	500.244	95.2436	500.244	94.8608	500.244	95.0976	500.244	94.5168	500.244	94.8346	500.244	94.1245	500.244	94.4925	500.244	93.7141	500.244	94.1131	500.244	93.291	500.244	93.7258	500.244	92.8309	500.244	93.3319	500.244	92.2879	500.244	92.9004	500.244	91.6134	500.244	92.3786	500.244	90.785	500.244	91.7145	500.244	89.8494	500.244	90.8871	500.244	88.9841	500.244	89.9527	500.244	88.4993	500.244	89.106	500.244	88.6098	500.244	88.6636	500.244	89.1585	500.244	88.8085	500.244	89.7725	500.244	89.3449	500.244	90.1666	500.244	89.901	500.244	90.2118
517.822	95.9103	517.822	95.7678	517.822	95.8211	517.822	95.4084	517.822	95.5094	517.822	94.8746	517.822	95.0126	517.822	94.2415	517.822	94.4047	517.822	93.6106	517.822	93.799	517.822	93.0753	517.822	93.3197	517.822	92.6617	517.822	93.0329	517.822	92.298	517.822	92.8889	517.822	91.8501	517.822	92.7479	517.822	91.1874	517.822	92.4561	517.822	90.2486	517.822	91.9026	517.822	89.1392	517.822	91.0559	517.822	88.2811	517.822	90.0317	517.822	88.2624	517.822	89.1962	517.822	89.0545	517.822	89.0388	517.822	90.0037	517.822	89.5784	517.822	90.6127	517.822	90.2889	517.822	90.7022
536.133	97.5353	536.133	97.3606	536.133	97.4952	536.133	96.9795	536.133	97.2339	536.133	96.4061	536.133	96.746	536.133	95.6675	536.133	96.0327	536.133	94.8107	536.133	95.1111	536.133	93.9011	536.133	94.0315	536.133	93.0003	536.133	92.8933	536.133	92.1236	536.133	91.8365	536.133	91.2095	536.133	90.9744	536.133	90.1425	536.133	90.3042	536.133	88.8501	536.133	89.7191	536.133	87.5221	536.133	89.1498	536.133	86.9076	536.133	88.7205	536.133	87.6835	536.133	88.7488	536.133	89.2079	536.133	89.3918	536.133	90.5581	536.133	90.3488	536.133	91.3618	536.133	91.1666	536.133	91.5501
554.443	97.1158	554.443	96.9489	554.443	97.083	554.443	96.5913	554.443	96.8563	554.443	96.0696	554.443	96.4573	554.443	95.4353	554.443	95.9285	554.443	94.7655	554.443	95.3347	554.443	94.1449	554.443	94.75	554.443	93.6189	554.443	94.2236	554.443	93.1468	554.443	93.7399	554.443	92.6026	554.443	93.2098	554.443	91.8239	554.443	92.5021	554.443	90.6707	554.443	91.4896	554.443	89.1161	554.443	90.1096	554.443	87.5104	554.443	88.5161	554.443	86.8882	554.443	87.3855	554.443	87.7686	554.443	87.5805	554.443	89.105	554.443	88.7106	554.443	90.0172	554.443	89.7628	554.443	90.2427
574.219	97.9582	574.219	97.73	574.219	97.9341	574.219	97.2592	574.219	97.6473	574.219	96.5652	574.219	97.0865	574.219	95.7004	574.219	96.2525	574.219	94.78	574.219	95.1889	574.219	93.9817	574.219	94.0344	574.219	93.4482	574.219	93.0576	574.219	93.1346	574.219	92.5236	574.219	92.7992	574.219	92.399	574.219	92.1463	574.219	92.3403	574.219	90.9224	574.219	91.9855	574.219	88.9781	574.219	91.1101	574.219	86.6902	574.219	89.6887	574.219	86.1002	574.219	88.1919	574.219	88	574.219	87.8961	574.219	90.0029	574.219	89.1252	574.219	91.1204	574.219	90.5307	574.219	91.2729
594.727	98.601	594.727	98.3531	594.727	98.6029	594.727	97.8447	594.727	98.3529	594.727	97.0434	594.727	97.8266	594.727	95.9088	594.727	96.9858	594.727	94.4223	594.727	95.7912	594.727	92.679	594.727	94.2347	594.727	91.0826	594.727	92.428	594.727	90.3371	594.727	90.7599	594.727	90.5572	594.727	89.8207	594.727	90.9822	594.727	89.6583	594.727	90.9539	594.727	89.6208	594.727	90.1973	594.727	89.164	594.727	88.752	594.727	88.196	594.727	87.3339	594.727	87.2673	594.727	87.4392	594.727	87.4761	594.727	88.8583	594.727	88.7693	594.727	90.0783	594.727	89.9859	594.727	90.4788
615.234	97.4576	615.234	97.2743	615.234	97.5212	615.234	96.9641	615.234	97.4582	615.234	96.5063	615.234	97.2469	615.234	95.8678	615.234	96.8496	615.234	95.0067	615.234	96.2158	615.234	93.8824	615.234	95.2872	615.234	92.4779	615.234	94.0096	615.234	90.8419	615.234	92.3565	615.234	89.1479	615.234	90.3857	615.234	87.6829	615.234	88.3415	615.234	86.6225	615.234	86.6669	615.234	85.8412	615.234	85.6136	615.234	85.1945	615.234	84.9534	615.234	84.8924	615.234	84.532	615.234	85.2665	615.234	84.6465	615.234	86.0861	615.234	85.4242	615.234	86.7466	615.234	86.3464	615.234	86.8596
637.207	97.801	637.207	97.6428	637.207	97.7981	637.207	97.3055	637.207	97.6403	637.207	96.7649	637.207	97.3202	637.207	96.0012	637.207	96.8215	637.207	95.0205	637.207	96.131	637.207	93.8862	637.207	95.2587	637.207	92.7447	637.207	94.259	637.207	91.769	637.207	93.2294	637.207	90.9781	637.207	92.2469	637.207	90.123	637.207	91.2567	637.207	88.815	637.207	90.031	637.207	86.7533	637.207	88.2551	637.207	84.4059	637.207	85.7837	637.207	84.4939	637.207	83.8214	637.207	87.0519	637.207	85.1415	637.207	89.2379	637.207	87.7972	637.207	90.3888	637.207	89.6755	637.207	90.5278
659.912	97.3708	659.912	97.2637	659.912	97.3352	659.912	97.0011	659.912	97.1654	659.912	96.565	659.912	96.8661	659.912	95.9339	659.912	96.4372	659.912	95.0928	659.912	95.8738	659.912	94.0534	659.912	95.1736	659.912	92.882	659.912	94.3518	659.912	91.7074	659.912	93.4541	659.912	90.6496	659.912	92.5373	659.912	89.6686	659.912	91.6	659.912	88.5173	659.912	90.5051	659.912	86.9124	659.912	88.9819	659.912	84.9581	659.912	86.7403	659.912	84.0624	659.912	84.0057	659.912	85.4624	659.912	83.2745	659.912	87.3762	659.912	85.519	659.912	88.517	659.912	87.6209	659.912	88.6221
683.35	97.4185	683.35	97.3292	683.35	97.3843	683.35	97.1182	683.35	97.2225	683.35	96.7745	683.35	96.9288	683.35	96.2645	683.35	96.4931	683.35	95.536	683.35	95.8927	683.35	94.5424	683.35	95.0978	683.35	93.293	683.35	94.0983	683.35	91.9215	683.35	92.9535	683.35	90.6889	683.35	91.8296	683.35	89.7379	683.35	90.9059	683.35	88.7984	683.35	90.1215	683.35	87.382	683.35	89.1109	683.35	85.3686	683.35	87.4925	683.35	84.2863	683.35	85.4583	683.35	86.014	683.35	84.9656	683.35	88.304	683.35	86.9106	683.35	89.6383	683.35	88.8785	683.35	89.8274
706.787	97.8322	706.787	97.6797	706.787	97.8459	706.787	97.3808	706.787	97.7262	706.787	96.9253	706.787	97.4709	706.787	96.298	706.787	97.0645	706.787	95.4822	706.787	96.4783	706.787	94.4796	706.787	95.6849	706.787	93.346	706.787	94.6873	706.787	92.2116	706.787	93.5487	706.787	91.2011	706.787	92.381	706.787	90.2417	706.787	91.2304	706.787	88.9909	706.787	89.9211	706.787	86.9957	706.787	88.0387	706.787	84.1233	706.787	85.1081	706.787	82.7333	706.787	81.979	706.787	85.3639	706.787	83.6195	706.787	88.1229	706.787	87.075	706.787	89.666	706.787	89.2086	706.787	90.0237
731.689	97.3234	731.689	97.2951	731.689	97.2121	731.689	97.1475	731.689	96.9641	731.689	96.906	731.689	96.6117	731.689	96.576	731.689	96.2031	731.689	96.1314	731.689	95.7744	731.689	95.5239	731.689	95.3243	731.689	94.7109	731.689	94.8194	731.689	93.6787	731.689	94.2224	731.689	92.4349	731.689	93.5086	731.689	90.9407	731.689	92.6348	731.689	88.9923	731.689	91.4663	731.689	86.1025	731.689	89.7025	731.689	81.5155	731.689	86.7713	731.689	78.657	731.689	81.5134	731.689	83.3602	731.689	76.8232	731.689	86.7421	731.689	83.1055	731.689	88.2642	731.689	86.7983	731.689	88.303
758.057	97.5242	758.057	97.3094	758.057	97.5248	758.057	96.8983	758.057	97.3013	758.057	96.315	758.057	96.8491	758.057	95.5867	758.057	96.1671	758.057	94.7548	758.057	95.271	758.057	93.9168	758.057	94.242	758.057	93.2598	758.057	93.2995	758.057	92.9471	758.057	92.7569	758.057	92.8624	758.057	92.684	758.057	92.5932	758.057	92.7109	758.057	91.6582	758.057	92.336	758.057	89.5633	758.057	91.1484	758.057	85.6432	758.057	88.743	758.057	80.6337	758.057	84.6331	758.057	83.6058	758.057	80.9746	758.057	87.3547	758.057	84.346	758.057	88.9976	758.057	87.5852	758.057	89.043
784.424	97.7817	784.424	97.579	784.424	97.7614	784.424	97.1652	784.424	97.5203	784.424	96.5571	784.424	97.0728	784.424	95.7615	784.424	96.4313	784.424	94.7691	784.424	95.5811	784.424	93.5885	784.424	94.4702	784.424	92.3535	784.424	93.0669	784.424	91.4317	784.424	91.558	784.424	91.1419	784.424	90.5819	784.424	91.163	784.424	90.6091	784.424	90.7523	784.424	90.9451	784.424	89.2287	784.424	90.5921	784.424	85.8412	784.424	88.8484	784.424	80.1653	784.424	84.8038	784.424	81.9301	784.424	77.4327	784.424	86.3813	784.424	81.8185	784.424	88.3115	784.424	86.5244	784.424	88.359
812.256	97.4653	812.256	97.2777	812.256	97.4359	812.256	96.8992	812.256	97.1929	812.256	96.3655	812.256	96.7698	812.256	95.6853	812.256	96.2096	812.256	94.806	812.256	95.5233	812.256	93.6298	812.256	94.6559	812.256	92.1387	812.256	93.5157	812.256	90.6936	812.256	92.1087	812.256	90.1245	812.256	90.7771	812.256	90.4808	812.256	90.1393	812.256	90.6455	812.256	90.1288	812.256	89.6707	812.256	89.839	812.256	86.8321	812.256	88.4492	812.256	81.6839	812.256	85.3153	812.256	82.2122	812.256	80.8854	812.256	86.562	812.256	82.7257	812.256	88.4679	812.256	86.5708	812.256	88.42
840.82	97.4323	840.82	97.1613	840.82	97.4486	840.82	96.678	840.82	97.2054	840.82	96.0449	840.82	96.7375	840.82	95.3031	840.82	96.1047	840.82	94.4187	840.82	95.3494	840.82	93.2749	840.82	94.4422	840.82	91.762	840.82	93.2843	840.82	90.0336	840.82	91.8334	840.82	88.8698	840.82	90.3993	840.82	88.9019	840.82	89.7632	840.82	89.1902	840.82	90.0276	840.82	88.5046	840.82	90.1183	840.82	85.9772	840.82	89.0587	840.82	80.6997	840.82	86.0581	840.82	80.1706	840.82	80.3222	840.82	85.3401	840.82	81.0219	840.82	87.7026	840.82	85.8495	840.82	87.8552
870.85	97.5938	870.85	97.2767	870.85	97.6368	870.85	96.7071	870.85	97.41	870.85	95.9415	870.85	96.9392	870.85	95.0609	870.85	96.2732	870.85	94.1087	870.85	95.4718	870.85	93.0022	870.85	94.5556	870.85	91.539	870.85	93.4569	870.85	89.6236	870.85	92.0812	870.85	87.8899	870.85	90.5736	870.85	87.7142	870.85	89.6311	870.85	88.4346	870.85	89.7128	870.85	88.2615	870.85	89.9212	870.85	86.1719	870.85	89.1588	870.85	81.2094	870.85	86.7284	870.85	79.8284	870.85	82.6736	870.85	85.2295	870.85	82.8554	870.85	87.796	870.85	86.411	870.85	88.1084
901.611	97.6193	901.611	97.2185	901.611	97.6857	901.611	96.5286	901.611	97.4124	901.611	95.6466	901.611	96.8422	901.611	94.7244	901.611	96.0794	901.611	93.891	901.611	95.2651	901.611	93.0888	901.611	94.4714	901.611	92.0144	901.611	93.5816	901.611	90.2999	901.611	92.3298	901.611	88.0105	901.611	90.5687	901.611	86.7735	901.611	88.8585	901.611	87.6047	901.611	88.5168	901.611	88.047	901.611	89.0356	901.611	86.4052	901.611	88.6783	901.611	81.0513	901.611	86.4001	901.611	77.5096	901.611	81.8495	901.611	85.1519	901.611	82.6924	901.611	88.3098	901.611	87.0233	901.611	88.816
933.105	98.1115	933.105	97.7622	933.105	98.1679	933.105	97.1354	933.105	97.914	933.105	96.262	933.105	97.3423	933.105	95.2203	933.105	96.4886	933.105	94.1334	933.105	95.4551	933.105	93.0616	933.105	94.352	933.105	91.8605	933.105	93.1608	933.105	90.2767	933.105	91.7257	933.105	88.438	933.105	90.0459	933.105	87.4171	933.105	88.7373	933.105	87.6398	933.105	88.5854	933.105	87.5613	933.105	88.9036	933.105	85.8274	933.105	88.3725	933.105	81.0763	933.105	86.0443	933.105	76.1112	933.105	81.4224	933.105	83.184	933.105	81.6032	933.105	86.6741	933.105	85.7877	933.105	87.4198
966.064	97.9974	966.064	97.7073	966.064	97.9733	966.064	97.1218	966.064	97.6404	966.064	96.301	966.064	97.0184	966.064	95.3438	966.064	96.1465	966.064	94.3376	966.064	95.0972	966.064	93.2777	966.064	93.9729	966.064	92.0479	966.064	92.843	966.064	90.4988	966.064	91.6275	966.064	88.6753	966.064	90.1131	966.064	87.3812	966.064	88.4338	966.064	87.6294	966.064	87.7243	966.064	88.2135	966.064	88.1779	966.064	87.368	966.064	87.9501	966.064	83.767	966.064	85.5943	966.064	77.5118	966.064	79.9084	966.064	82.8799	966.064	80.15	966.064	86.6135	966.064	85.3628	966.064	87.2783
999.756	97.9946	999.756	97.7635	999.756	97.9527	999.756	97.256	999.756	97.6216	999.756	96.4647	999.756	96.9623	999.756	95.4136	999.756	95.9455	999.756	94.2352	999.756	94.6382	999.756	93.1816	999.756	93.2856	999.756	92.2797	999.756	92.1601	999.756	91.0328	999.756	91.137	999.756	88.9244	999.756	89.6988	999.756	86.6567	999.756	87.6062	999.756	86.737	999.756	86.0967	999.756	87.6976	999.756	86.5802	999.756	86.8345	999.756	86.8141	999.756	82.897	999.756	85.0104	999.756	78.8449	999.756	81.7211	999.756	84.6929	999.756	83.5437	999.756	87.9535	999.756	87.0999	999.756	88.5964
1,034.91	97.1847	1,034.91	97.0505	1,034.91	97.1368	1,034.91	96.6431	1,034.91	96.9285	1,034.91	95.8609	1,034.91	96.5045	1,034.91	94.6998	1,034.91	95.7787	1,034.91	93.4193	1,034.91	94.6898	1,034.91	92.5299	1,034.91	93.2531	1,034.91	92.1857	1,034.91	91.6693	1,034.91	91.7737	1,034.91	90.2989	1,034.91	90.4129	1,034.91	89.0927	1,034.91	87.8482	1,034.91	87.2627	1,034.91	86.7281	1,034.91	84.3753	1,034.91	87.8542	1,034.91	83.6078	1,034.91	87.2688	1,034.91	85.033	1,034.91	83.2606	1,034.91	84.0942	1,034.91	75.5873	1,034.91	78.8389	1,034.91	82.0522	1,034.91	76.1174	1,034.91	85.6461	1,034.91	83.2782	1,034.91	85.9299
1,071.53	97.697	1,071.53	97.5889	1,071.53	97.5039	1,071.53	97.139	1,071.53	97.0168	1,071.53	96.316	1,071.53	96.2079	1,071.53	95.147	1,071.53	95.0764	1,071.53	93.7728	1,071.53	93.7433	1,071.53	92.482	1,071.53	92.4765	1,071.53	91.5048	1,071.53	91.508	1,071.53	90.6001	1,071.53	90.774	1,071.53	89.2271	1,071.53	89.9531	1,071.53	87.5256	1,071.53	88.7662	1,071.53	86.7625	1,071.53	87.3436	1,071.53	86.6313	1,071.53	86.3791	1,071.53	85.3077	1,071.53	85.6777	1,071.53	81.644	1,071.53	83.4603	1,071.53	78.3433	1,071.53	76.7975	1,071.53	82.9875	1,071.53	77.7986	1,071.53	86.2521	1,071.53	84.749	1,071.53	86.9209
1,109.62	97.5475	1,109.62	97.4372	1,109.62	97.4427	1,109.62	97.0299	1,109.62	97.098	1,109.62	96.1724	1,109.62	96.4035	1,109.62	94.764	1,109.62	95.2547	1,109.62	92.978	1,109.62	93.732	1,109.62	91.4437	1,109.62	92.2161	1,109.62	90.772	1,109.62	91.095	1,109.62	90.4776	1,109.62	90.2507	1,109.62	89.4215	1,109.62	89.2663	1,109.62	87.4307	1,109.62	87.9118	1,109.62	86.6909	1,109.62	86.194	1,109.62	87.1516	1,109.62	84.9103	1,109.62	85.9158	1,109.62	84.6645	1,109.62	80.9867	1,109.62	83.5344	1,109.62	67.1992	1,109.62	78.7332	1,109.62	81.7935	1,109.62	72.4686	1,109.62	85.6631	1,109.62	82.392	1,109.62	85.7577
1,148.44	97.893	1,148.44	97.3794	1,148.44	98.0403	1,148.44	96.5623	1,148.44	97.8023	1,148.44	95.5451	1,148.44	97.1433	1,148.44	94.393	1,148.44	95.9884	1,148.44	93.1086	1,148.44	94.3361	1,148.44	91.7606	1,148.44	92.4634	1,148.44	90.6676	1,148.44	90.9628	1,148.44	89.8945	1,148.44	90.1303	1,148.44	88.4262	1,148.44	89.3432	1,148.44	85.5066	1,148.44	87.7976	1,148.44	83.6402	1,148.44	85.6521	1,148.44	84.7072	1,148.44	84.9177	1,148.44	84.7005	1,148.44	85.6363	1,148.44	81.2742	1,148.44	84.9151	1,148.44	74.1983	1,148.44	80.4454	1,148.44	82.7018	1,148.44	75.8707	1,148.44	86.4049	1,148.44	83.6799	1,148.44	86.6363
1,189.45	98.2553	1,189.45	98.0384	1,189.45	98.078	1,189.45	97.3764	1,189.45	97.5614	1,189.45	96.2326	1,189.45	96.7679	1,189.45	94.6495	1,189.45	95.7806	1,189.45	92.8195	1,189.45	94.7356	1,189.45	91.0542	1,189.45	93.7392	1,189.45	89.6384	1,189.45	92.7829	1,189.45	88.5453	1,189.45	91.6252	1,189.45	87.065	1,189.45	89.8014	1,189.45	84.3763	1,189.45	87.3626	1,189.45	82.6747	1,189.45	85.2394	1,189.45	84.829	1,189.45	84.0968	1,189.45	85.5695	1,189.45	83.6494	1,189.45	82.2717	1,189.45	82.6102	1,189.45	68.0555	1,189.45	78.536	1,189.45	82.2196	1,189.45	71.2086	1,189.45	86.4286	1,189.45	82.2396	1,189.45	86.3067
1,231.2	97.9761	1,231.2	97.6623	1,231.2	97.9238	1,231.2	97.0673	1,231.2	97.5468	1,231.2	96.2749	1,231.2	97.0064	1,231.2	95.2485	1,231.2	96.3966	1,231.2	93.8579	1,231.2	95.5328	1,231.2	92.0137	1,231.2	94.0647	1,231.2	89.9808	1,231.2	91.9472	1,231.2	88.4094	1,231.2	89.853	1,231.2	87.085	1,231.2	88.4811	1,231.2	85.0359	1,231.2	87.3986	1,231.2	82.6421	1,231.2	85.9447	1,231.2	82.7179	1,231.2	84.5926	1,231.2	83.5768	1,231.2	84.1212	1,231.2	81.43	1,231.2	82.8477	1,231.2	70.0589	1,231.2	77.4895	1,231.2	80.2095	1,231.2	70.1579	1,231.2	85.4804	1,231.2	82.5858	1,231.2	85.9751
1,274.41	97.6415	1,274.41	97.1494	1,274.41	97.6828	1,274.41	96.3298	1,274.41	97.2571	1,274.41	95.3743	1,274.41	96.4755	1,274.41	94.4769	1,274.41	95.5387	1,274.41	93.6586	1,274.41	94.5763	1,274.41	92.6551	1,274.41	93.5292	1,274.41	91.1023	1,274.41	92.336	1,274.41	88.9732	1,274.41	91.0754	1,274.41	86.9917	1,274.41	89.7118	1,274.41	84.822	1,274.41	87.6933	1,274.41	81.5209	1,274.41	85.4582	1,274.41	81.2453	1,274.41	85.55	1,274.41	83.3437	1,274.41	86.0785	1,274.41	83.02	1,274.41	84.9459	1,274.41	77.3979	1,274.41	80.1701	1,274.41	69.3257	1,274.41	62.2989	1,274.41	81.5106	1,274.41	81.2013	1,274.41	83.7958
1,319.82	97.6847	1,319.82	97.4681	1,319.82	97.4558	1,319.82	96.7662	1,319.82	96.8139	1,319.82	95.5631	1,319.82	95.8711	1,319.82	94.113	1,319.82	94.8015	1,319.82	93.0548	1,319.82	93.7812	1,319.82	92.7529	1,319.82	93.0438	1,319.82	92.4767	1,319.82	92.603	1,319.82	90.999	1,319.82	91.775	1,319.82	87.6681	1,319.82	89.6868	1,319.82	82.9128	1,319.82	85.9725	1,319.82	79.0622	1,319.82	81.9364	1,319.82	81.0991	1,319.82	82.2051	1,319.82	84.8876	1,319.82	85.3155	1,319.82	84.974	1,319.82	86.8685	1,319.82	79.0007	1,319.82	84.6994	1,319.82	74.261	1,319.82	74.3269	1,319.82	83.2151	1,319.82	80.7407	1,319.82	84.66
1,365.97	98.3638	1,365.97	98.1152	1,365.97	98.2085	1,365.97	97.465	1,365.97	97.6696	1,365.97	96.4503	1,365.97	96.8185	1,365.97	95.1515	1,365.97	95.7735	1,365.97	93.6686	1,365.97	94.5431	1,365.97	92.1504	1,365.97	92.9256	1,365.97	90.6599	1,365.97	90.8501	1,365.97	88.7789	1,365.97	88.7858	1,365.97	86.3446	1,365.97	87.0742	1,365.97	83.9195	1,365.97	85.2584	1,365.97	81.5705	1,365.97	82.5285	1,365.97	82.4939	1,365.97	80.5048	1,365.97	86.0586	1,365.97	84.7157	1,365.97	86.2818	1,365.97	87.0124	1,365.97	80.821	1,365.97	85.3757	1,365.97	70.4697	1,365.97	76.8218	1,365.97	82.7918	1,365.97	76.1912	1,365.97	83.4391
1,414.31	97.9075	1,414.31	97.5883	1,414.31	97.7345	1,414.31	96.8463	1,414.31	97.1228	1,414.31	95.8436	1,414.31	96.2405	1,414.31	94.7154	1,414.31	95.2112	1,414.31	93.3691	1,414.31	93.9326	1,414.31	91.6263	1,414.31	92.2039	1,414.31	89.8014	1,414.31	89.9831	1,414.31	88.1315	1,414.31	87.6637	1,414.31	86.2473	1,414.31	86.2708	1,414.31	84.5205	1,414.31	85.781	1,414.31	82.455	1,414.31	84.0441	1,414.31	81.105	1,414.31	79.4719	1,414.31	84.467	1,414.31	81.284	1,414.31	85.2544	1,414.31	84.8476	1,414.31	80.4287	1,414.31	84.2285	1,414.31	74.7426	1,414.31	77.9607	1,414.31	82.4016	1,414.31	72.2237	1,414.31	82.0335
1,464.11	97.5144	1,464.11	97.1585	1,464.11	97.5169	1,464.11	96.4674	1,464.11	97.1736	1,464.11	95.5208	1,464.11	96.4463	1,464.11	94.3617	1,464.11	95.3018	1,464.11	92.8451	1,464.11	93.821	1,464.11	90.7217	1,464.11	92.1734	1,464.11	88.0585	1,464.11	90.5551	1,464.11	85.5747	1,464.11	89.1312	1,464.11	84.4604	1,464.11	87.8638	1,464.11	84.7168	1,464.11	86.4722	1,464.11	84.1396	1,464.11	84.3419	1,464.11	82.5627	1,464.11	80.77	1,464.11	84.2523	1,464.11	79.9635	1,464.11	84.449	1,464.11	83.3013	1,464.11	78.9905	1,464.11	83.527	1,464.11	71.8824	1,464.11	78.0809	1,464.11	80.3845	1,464.11	68.0232	1,464.11	80.0706
1,515.38	98.0477	1,515.38	97.6119	1,515.38	98.0592	1,515.38	96.6817	1,515.38	97.6391	1,515.38	95.2382	1,515.38	96.8359	1,515.38	93.5547	1,515.38	95.8165	1,515.38	91.8774	1,515.38	94.6426	1,515.38	89.8698	1,515.38	93.1752	1,515.38	87.4033	1,515.38	91.5048	1,515.38	85.7443	1,515.38	89.9004	1,515.38	85.441	1,515.38	87.9142	1,515.38	85.0143	1,515.38	85.5516	1,515.38	82.8256	1,515.38	84.6986	1,515.38	79.0433	1,515.38	84.4809	1,515.38	81.0612	1,515.38	83.1092	1,515.38	81.3643	1,515.38	84.0403	1,515.38	74.9992	1,515.38	83.9237	1,515.38	74.2634	1,515.38	77.1869	1,515.38	80.6606	1,515.38	72.7566	1,515.38	81.0142
1,568.85	97.77	1,568.85	97.3042	1,568.85	97.6567	1,568.85	96.3404	1,568.85	97.0862	1,568.85	95.0117	1,568.85	96.3131	1,568.85	93.4102	1,568.85	95.4575	1,568.85	91.6084	1,568.85	94.3611	1,568.85	89.6003	1,568.85	92.6588	1,568.85	87.4105	1,568.85	90.2181	1,568.85	85.3101	1,568.85	88.1175	1,568.85	83.8621	1,568.85	87.3659	1,568.85	83.8457	1,568.85	86.1459	1,568.85	82.9723	1,568.85	83.9754	1,568.85	78.6018	1,568.85	83.1257	1,568.85	80.3071	1,568.85	82.4409	1,568.85	82.8811	1,568.85	82.9167	1,568.85	80.0402	1,568.85	83.2341	1,568.85	73.4843	1,568.85	78.4615	1,568.85	80.289	1,568.85	67.9991	1,568.85	80.4913
1,624.51	96.7081	1,624.51	96.4038	1,624.51	96.5402	1,624.51	95.6149	1,624.51	95.9361	1,624.51	94.416	1,624.51	95.0071	1,624.51	93.0794	1,624.51	93.9388	1,624.51	91.7983	1,624.51	92.825	1,624.51	90.2863	1,624.51	91.3883	1,624.51	88.2868	1,624.51	89.3384	1,624.51	86.2014	1,624.51	87.1982	1,624.51	84.5668	1,624.51	85.9434	1,624.51	83.9731	1,624.51	84.7504	1,624.51	83.6824	1,624.51	82.4117	1,624.51	81.2066	1,624.51	80.1654	1,624.51	81.9546	1,624.51	81.4258	1,624.51	84.7536	1,624.51	83.4443	1,624.51	83.5175	1,624.51	83.1382	1,624.51	77.0893	1,624.51	78.8202	1,624.51	72.0879	1,624.51	51.0752	1,624.51	74.3201
1,681.64	96.6438	1,681.64	96.3493	1,681.64	96.305	1,681.64	95.43	1,681.64	95.5539	1,681.64	94.0854	1,681.64	94.658	1,681.64	92.7097	1,681.64	93.5669	1,681.64	91.5712	1,681.64	92.1203	1,681.64	90.2556	1,681.64	90.5129	1,681.64	88.4793	1,681.64	88.8703	1,681.64	86.9184	1,681.64	87.1354	1,681.64	85.4119	1,681.64	85.7721	1,681.64	84.0118	1,681.64	84.735	1,681.64	83.6419	1,681.64	82.872	1,681.64	81.3638	1,681.64	80.4226	1,681.64	80.3621	1,681.64	79.5574	1,681.64	83.8224	1,681.64	82.4784	1,681.64	82.7367	1,681.64	83.4295	1,681.64	75.133	1,681.64	78.7708	1,681.64	69.5329	1,681.64	69.7233	1,681.64	75.8557
1,740.97	97.3206	1,740.97	96.9861	1,740.97	97.0555	1,740.97	95.9079	1,740.97	96.4224	1,740.97	94.3152	1,740.97	95.4952	1,740.97	92.7552	1,740.97	94.2644	1,740.97	91.4706	1,740.97	92.9014	1,740.97	89.865	1,740.97	91.6259	1,740.97	87.2453	1,740.97	89.62	1,740.97	84.6153	1,740.97	86.3932	1,740.97	83.2357	1,740.97	84.8006	1,740.97	82.8496	1,740.97	86.2402	1,740.97	83.5338	1,740.97	86.1103	1,740.97	81.9581	1,740.97	83.8055	1,740.97	79.5816	1,740.97	82.7913	1,740.97	83.4333	1,740.97	83.6412	1,740.97	82.8592	1,740.97	83.6397	1,740.97	73.4432	1,740.97	80.2679	1,740.97	72.7692	1,740.97	66.7692	1,740.97	74.2019
1,802.49	98.0056	1,802.49	97.6204	1,802.49	97.8349	1,802.49	96.5724	1,802.49	97.3411	1,802.49	95.0795	1,802.49	96.6792	1,802.49	93.626	1,802.49	95.4396	1,802.49	92.2951	1,802.49	93.117	1,802.49	90.4571	1,802.49	90.6418	1,802.49	87.4613	1,802.49	89.691	1,802.49	84.7979	1,802.49	89.0439	1,802.49	84.8766	1,802.49	87.4914	1,802.49	84.4277	1,802.49	86.377	1,802.49	83.2018	1,802.49	84.414	1,802.49	81.7665	1,802.49	81.2119	1,802.49	78.9047	1,802.49	79.2793	1,802.49	82.1279	1,802.49	80.6669	1,802.49	81.6912	1,802.49	83.5423	1,802.49	75.3862	1,802.49	82.1617	1,802.49	68.0014	1,802.49	73.39	1,802.49	73.0184
1,866.21	97.4802	1,866.21	97.2137	1,866.21	97.1764	1,866.21	96.4001	1,866.21	96.5442	1,866.21	95.2809	1,866.21	95.8887	1,866.21	93.9258	1,866.21	94.9474	1,866.21	92.4698	1,866.21	93.0417	1,866.21	91.0175	1,866.21	90.5699	1,866.21	88.771	1,866.21	88.9872	1,866.21	86.6721	1,866.21	87.5623	1,866.21	87.1665	1,866.21	85.86	1,866.21	86.7699	1,866.21	85.8561	1,866.21	84.4327	1,866.21	84.715	1,866.21	82.9226	1,866.21	81.6165	1,866.21	78.4356	1,866.21	80.2162	1,866.21	81.5455	1,866.21	82.247	1,866.21	83.3246	1,866.21	84.5143	1,866.21	77.3404	1,866.21	81.4806	1,866.21	72.9061	1,866.21	66.461	1,866.21	76.186
1,932.13	96.0368	1,932.13	95.7371	1,932.13	95.9681	1,932.13	95.0698	1,932.13	95.5543	1,932.13	94.2912	1,932.13	94.8983	1,932.13	93.4804	1,932.13	94.2411	1,932.13	92.2046	1,932.13	93.2536	1,932.13	90.5034	1,932.13	91.6058	1,932.13	87.9994	1,932.13	90.3274	1,932.13	85.32	1,932.13	88.9322	1,932.13	85.9235	1,932.13	85.3182	1,932.13	87.2712	1,932.13	83.4934	1,932.13	85.0555	1,932.13	84.7515	1,932.13	82.5769	1,932.13	82.6915	1,932.13	78.2875	1,932.13	79.3283	1,932.13	80.107	1,932.13	78.5054	1,932.13	81.1547	1,932.13	81.2886	1,932.13	73.8271	1,932.13	80.3944	1,932.13	71.5671	1,932.13	70.3387	1,932.13	71.8846
2,000.24	97.0246	2,000.24	96.6918	2,000.24	96.8388	2,000.24	95.7314	2,000.24	96.5718	2,000.24	94.8114	2,000.24	96.1649	2,000.24	93.808	2,000.24	95.5491	2,000.24	91.6481	2,000.24	94.7371	2,000.24	88.8758	2,000.24	93.1111	2,000.24	88.0093	2,000.24	90.5937	2,000.24	87.1886	2,000.24	88.4075	2,000.24	85.1759	2,000.24	86.4741	2,000.24	84.6645	2,000.24	85.3184	2,000.24	81.5172	2,000.24	85.8779	2,000.24	80.9072	2,000.24	83.8299	2,000.24	78.6332	2,000.24	80.7082	2,000.24	79.7926	2,000.24	78.4984	2,000.24	82.0378	2,000.24	80.4582	2,000.24	73.8124	2,000.24	81.6855	2,000.24	74.8069	2,000.24	74.2162	2,000.24	75.2958
2,070.56	97.8677	2,070.56	97.4348	2,070.56	97.8475	2,070.56	96.7105	2,070.56	97.541	2,070.56	95.8541	2,070.56	97.055	2,070.56	94.4528	2,070.56	96.2645	2,070.56	92.0398	2,070.56	95.1244	2,070.56	89.4212	2,070.56	93.2972	2,070.56	88.3385	2,070.56	90.9	2,070.56	86.9447	2,070.56	89.2851	2,070.56	83.691	2,070.56	87.7238	2,070.56	83.1676	2,070.56	86.103	2,070.56	80.5136	2,070.56	85.8854	2,070.56	78.338	2,070.56	83.2245	2,070.56	78.3591	2,070.56	81.929	2,070.56	79.3333	2,070.56	81.3294	2,070.56	81.8047	2,070.56	82.9564	2,070.56	73.2651	2,070.56	83.4696	2,070.56	77.3505	2,070.56	72.147	2,070.56	77.4756
2,143.8	97.1147	2,143.8	96.7731	2,143.8	97.1121	2,143.8	96.5296	2,143.8	96.7815	2,143.8	95.9864	2,143.8	96.2958	2,143.8	94.5772	2,143.8	95.0607	2,143.8	92.6255	2,143.8	93.037	2,143.8	90.5561	2,143.8	91.2615	2,143.8	89.1537	2,143.8	89.7414	2,143.8	88.4175	2,143.8	88.4727	2,143.8	85.9539	2,143.8	87.0353	2,143.8	84.339	2,143.8	84.4521	2,143.8	82.4622	2,143.8	83.0052	2,143.8	79.0684	2,143.8	80.1793	2,143.8	79.1923	2,143.8	81.2278	2,143.8	78.8638	2,143.8	81.9348	2,143.8	82.258	2,143.8	81.6501	2,143.8	76.994	2,143.8	81.6144	2,143.8	72.9754	2,143.8	73.6236	2,143.8	72.7072
2,219.24	95.3926	2,219.24	95.3008	2,219.24	95.8839	2,219.24	95.2766	2,219.24	96.1314	2,219.24	94.7503	2,219.24	95.4177	2,219.24	93.3369	2,219.24	94.1418	2,219.24	91.0823	2,219.24	93.4308	2,219.24	89.2853	2,219.24	92.4907	2,219.24	89.0042	2,219.24	89.6866	2,219.24	88.9855	2,219.24	86.9162	2,219.24	85.831	2,219.24	86.8278	2,219.24	82.3161	2,219.24	84.8386	2,219.24	83.2651	2,219.24	83.3958	2,219.24	84.8928	2,219.24	80.5164	2,219.24	85.0462	2,219.24	80.9123	2,219.24	83.5479	2,219.24	83.3719	2,219.24	84.6013	2,219.24	83.7476	2,219.24	82.2546	2,219.24	84.9291	2,219.24	76.51	2,219.24	81.7117	2,219.24	74.9959
2,297.61	98.1839	2,297.61	97.9174	2,297.61	98.2878	2,297.61	97.0516	2,297.61	98.1275	2,297.61	95.6096	2,297.61	97.4022	2,297.61	93.9329	2,297.61	96.1486	2,297.61	92.336	2,297.61	94.4028	2,297.61	90.5681	2,297.61	92.625	2,297.61	87.7449	2,297.61	91.3035	2,297.61	84.7566	2,297.61	89.9043	2,297.61	82.2991	2,297.61	87.2283	2,297.61	82.2627	2,297.61	82.2428	2,297.61	82.0912	2,297.61	81.8097	2,297.61	82.1668	2,297.61	81.8827	2,297.61	82.3437	2,297.61	80.2424	2,297.61	77.6333	2,297.61	79.7724	2,297.61	78.4102	2,297.61	81.5001	2,297.61	73.6431	2,297.61	83.0047	2,297.61	76.1395	2,297.61	77.8701	2,297.61	76.3471
2,378.17	98.8322	2,378.17	98.3797	2,378.17	98.6821	2,378.17	97.3687	2,378.17	98.1122	2,378.17	96.1906	2,378.17	97.2815	2,378.17	95.0221	2,378.17	96.1154	2,378.17	93.4934	2,378.17	94.0885	2,378.17	91.3631	2,378.17	91.978	2,378.17	88.1953	2,378.17	91.2507	2,378.17	86.2134	2,378.17	89.4863	2,378.17	84.7205	2,378.17	86.9257	2,378.17	81.3172	2,378.17	84.6388	2,378.17	80.9658	2,378.17	84.1647	2,378.17	77.9596	2,378.17	85.0286	2,378.17	78.9619	2,378.17	82.4664	2,378.17	76.4843	2,378.17	82.7143	2,378.17	80.5656	2,378.17	79.8117	2,378.17	77.8396	2,378.17	82.2276	2,378.17	69.5354	2,378.17	79.4494	2,378.17	71.986
2,462.4	97.5208	2,462.4	97.3647	2,462.4	97.4581	2,462.4	96.8091	2,462.4	97.2104	2,462.4	96.0135	2,462.4	96.6085	2,462.4	95.1261	2,462.4	95.6582	2,462.4	93.6719	2,462.4	94.3573	2,462.4	91.8158	2,462.4	92.5153	2,462.4	89.6498	2,462.4	90.6463	2,462.4	87.4652	2,462.4	88.7559	2,462.4	86.3216	2,462.4	86.8628	2,462.4	84.0019	2,462.4	84.1665	2,462.4	82.8931	2,462.4	82.2098	2,462.4	81.3319	2,462.4	82.6196	2,462.4	81.564	2,462.4	80.5852	2,462.4	79.9986	2,462.4	80.9642	2,462.4	80.8403	2,462.4	79.1865	2,462.4	79.344	2,462.4	81.9758	2,462.4	70.7625	2,462.4	76.4833	2,462.4	72.2511
2,548.83	97.4049	2,548.83	97.2032	2,548.83	97.4009	2,548.83	96.666	2,548.83	97.2604	2,548.83	95.8196	2,548.83	96.8048	2,548.83	94.7859	2,548.83	95.9131	2,548.83	93.2016	2,548.83	94.8405	2,548.83	91.0928	2,548.83	93.4011	2,548.83	89.0839	2,548.83	91.3739	2,548.83	86.8048	2,548.83	89.2306	2,548.83	85.2891	2,548.83	87.2333	2,548.83	83.6792	2,548.83	85.4584	2,548.83	83.0103	2,548.83	82.3194	2,548.83	81.6716	2,548.83	82.0619	2,548.83	81.6502	2,548.83	80.635	2,548.83	80.3672	2,548.83	81.4803	2,548.83	80.6902	2,548.83	80.1424	2,548.83	78.9997	2,548.83	81.2609	2,548.83	69.9968	2,548.83	77.4711	2,548.83	68.5528
2,638.92	97.9519	2,638.92	97.6928	2,638.92	97.9604	2,638.92	97.2789	2,638.92	97.7864	2,638.92	96.4181	2,638.92	97.3584	2,638.92	95.0673	2,638.92	96.3979	2,638.92	93.524	2,638.92	94.9872	2,638.92	91.5072	2,638.92	93.3984	2,638.92	89.3242	2,638.92	91.4022	2,638.92	86.7531	2,638.92	89.1555	2,638.92	84.6247	2,638.92	87.2341	2,638.92	82.5795	2,638.92	85.6347	2,638.92	81.9406	2,638.92	83.6614	2,638.92	81.4456	2,638.92	82.8806	2,638.92	81.9673	2,638.92	81.8789	2,638.92	80.912	2,638.92	81.278	2,638.92	80.3391	2,638.92	80.3908	2,638.92	78.5055	2,638.92	81.2897	2,638.92	71.9586	2,638.92	77.1669	2,638.92	73.0088
2,731.93	97.435	2,731.93	97.3768	2,731.93	97.4436	2,731.93	97.2527	2,731.93	97.4426	2,731.93	96.7446	2,731.93	97.2526	2,731.93	95.433	2,731.93	96.498	2,731.93	93.8254	2,731.93	94.9765	2,731.93	92.0282	2,731.93	93.2146	2,731.93	90.0028	2,731.93	91.3044	2,731.93	87.7381	2,731.93	88.9766	2,731.93	85.5672	2,731.93	86.5355	2,731.93	83.9535	2,731.93	84.7571	2,731.93	82.3943	2,731.93	82.9223	2,731.93	81.6216	2,731.93	82.5003	2,731.93	81.1562	2,731.93	81.863	2,731.93	81.6749	2,731.93	81.8553	2,731.93	80.5984	2,731.93	80.5793	2,731.93	80.4952	2,731.93	81.3946	2,731.93	70.069	2,731.93	78.6776	2,731.93	70.155
2,828.61	98.0302	2,828.61	98.0171	2,828.61	98.0746	2,828.61	97.722	2,828.61	98.1703	2,828.61	97.1529	2,828.61	97.9625	2,828.61	95.94	2,828.61	97.3033	2,828.61	94.1639	2,828.61	95.9178	2,828.61	92.156	2,828.61	93.9607	2,828.61	89.9591	2,828.61	91.8848	2,828.61	87.7357	2,828.61	89.749	2,828.61	85.1469	2,828.61	87.46	2,828.61	83.7701	2,828.61	85.4428	2,828.61	82.4436	2,828.61	83.7562	2,828.61	82.6688	2,828.61	82.4911	2,828.61	80.7841	2,828.61	82.3452	2,828.61	81.7978	2,828.61	82.0177	2,828.61	81.2465	2,828.61	82.2257	2,828.61	80.8565	2,828.61	83.03	2,828.61	72.2564	2,828.61	80.5485	2,828.61	72.1776
2,928.22	98.0787	2,928.22	98.069	2,928.22	98.1069	2,928.22	97.9523	2,928.22	98.1121	2,928.22	97.45	2,928.22	97.7874	2,928.22	96.4535	2,928.22	97.0886	2,928.22	94.9532	2,928.22	95.9053	2,928.22	93.1313	2,928.22	94.1951	2,928.22	90.9876	2,928.22	92.1524	2,928.22	88.9096	2,928.22	89.9691	2,928.22	86.0317	2,928.22	87.8603	2,928.22	84.0787	2,928.22	85.9733	2,928.22	81.8596	2,928.22	84.1531	2,928.22	82.6996	2,928.22	82.5695	2,928.22	81.4948	2,928.22	82.5689	2,928.22	83.0004	2,928.22	82.3268	2,928.22	81.1661	2,928.22	82.799	2,928.22	81.8493	2,928.22	83.0754	2,928.22	73.1556	2,928.22	81.3805	2,928.22	73.8474
3,031.49	97.496	3,031.49	97.5508	3,031.49	97.6119	3,031.49	97.4952	3,031.49	97.8126	3,031.49	97.0868	3,031.49	97.6515	3,031.49	96.1553	3,031.49	96.9974	3,031.49	94.6096	3,031.49	95.9277	3,031.49	92.7299	3,031.49	94.2248	3,031.49	90.523	3,031.49	92.0019	3,031.49	88.6012	3,031.49	89.542	3,031.49	86.5476	3,031.49	87.4839	3,031.49	85.2898	3,031.49	85.07	3,031.49	83.2214	3,031.49	84.2116	3,031.49	82.8862	3,031.49	82.4553	3,031.49	82.4872	3,031.49	82.5236	3,031.49	83.6109	3,031.49	81.5938	3,031.49	82.5992	3,031.49	82.1382	3,031.49	81.5672	3,031.49	82.2997	3,031.49	76.2327	3,031.49	80.3244	3,031.49	74.9589
3,138.43	97.7762	3,138.43	97.794	3,138.43	97.887	3,138.43	97.7156	3,138.43	98.0655	3,138.43	97.2314	3,138.43	97.9173	3,138.43	96.3231	3,138.43	97.2589	3,138.43	94.574	3,138.43	96.1638	3,138.43	92.4175	3,138.43	94.3559	3,138.43	90.1791	3,138.43	92.3545	3,138.43	87.9787	3,138.43	90.0117	3,138.43	85.293	3,138.43	88.0085	3,138.43	83.7167	3,138.43	85.5202	3,138.43	82.2193	3,138.43	83.8825	3,138.43	81.3395	3,138.43	82.1395	3,138.43	80.2192	3,138.43	82.2946	3,138.43	83.0671	3,138.43	81.3192	3,138.43	82.1452	3,138.43	82.8729	3,138.43	81.6482	3,138.43	82.4215	3,138.43	72.1325	3,138.43	81.2944	3,138.43	74.6747
3,249.02	97.6654	3,249.02	97.5565	3,249.02	97.8125	3,249.02	97.4763	3,249.02	97.8878	3,249.02	96.8797	3,249.02	97.7409	3,249.02	95.7869	3,249.02	96.9951	3,249.02	94.1862	3,249.02	95.846	3,249.02	92.3643	3,249.02	94.0019	3,249.02	90.2601	3,249.02	92.165	3,249.02	87.7629	3,249.02	89.9907	3,249.02	85.6617	3,249.02	87.6362	3,249.02	83.3965	3,249.02	85.3191	3,249.02	82.0319	3,249.02	83.2659	3,249.02	80.8423	3,249.02	82.5095	3,249.02	79.6145	3,249.02	82.0587	3,249.02	81.4983	3,249.02	80.6127	3,249.02	80.8839	3,249.02	82.8592	3,249.02	81.5563	3,249.02	82.4709	3,249.02	73.0175	3,249.02	80.8016	3,249.02	71.4763
3,363.28	97.201	3,363.28	97.2647	3,363.28	97.2231	3,363.28	97.1472	3,363.28	97.2627	3,363.28	96.5684	3,363.28	97.0522	3,363.28	95.4711	3,363.28	96.1569	3,363.28	94.1334	3,363.28	94.9207	3,363.28	92.0873	3,363.28	93.23	3,363.28	89.7629	3,363.28	91.0286	3,363.28	87.6636	3,363.28	88.8825	3,363.28	85.7178	3,363.28	86.57	3,363.28	83.2341	3,363.28	84.4088	3,363.28	82.0769	3,363.28	82.509	3,363.28	81.2106	3,363.28	80.3356	3,363.28	79.3596	3,363.28	80.7607	3,363.28	82.3361	3,363.28	79.1079	3,363.28	81.1027	3,363.28	81.7672	3,363.28	80.6376	3,363.28	80.9303	3,363.28	72.1895	3,363.28	80.1971	3,363.28	72.4624
3,481.93	97.3923	3,481.93	97.0808	3,481.93	97.5778	3,481.93	96.5524	3,481.93	97.4809	3,481.93	95.8542	3,481.93	97.2148	3,481.93	94.8276	3,481.93	96.5816	3,481.93	93.3129	3,481.93	95.2623	3,481.93	90.7407	3,481.93	93.5959	3,481.93	88.5604	3,481.93	91.6332	3,481.93	86.6412	3,481.93	89.2903	3,481.93	84.5849	3,481.93	87.012	3,481.93	81.9069	3,481.93	84.9086	3,481.93	81.3361	3,481.93	82.6862	3,481.93	80.7057	3,481.93	80.9741	3,481.93	79.991	3,481.93	80.4201	3,481.93	81.3465	3,481.93	79.5415	3,481.93	80.0925	3,481.93	81.6718	3,481.93	80.6152	3,481.93	80.7646	3,481.93	69.1656	3,481.93	80.6028	3,481.93	72.6334
3,604.98	97.4514	3,604.98	97.1463	3,604.98	97.4563	3,604.98	96.6167	3,604.98	97.1809	3,604.98	95.918	3,604.98	96.5031	3,604.98	94.7552	3,604.98	95.6793	3,604.98	93.1785	3,604.98	94.4664	3,604.98	91.1805	3,604.98	92.8607	3,604.98	88.8218	3,604.98	90.8265	3,604.98	86.2431	3,604.98	88.6987	3,604.98	84.0602	3,604.98	86.4194	3,604.98	81.4291	3,604.98	84.4463	3,604.98	80.036	3,604.98	81.7228	3,604.98	78.3224	3,604.98	81.0608	3,604.98	78.4685	3,604.98	79.9318	3,604.98	79.4843	3,604.98	79.3444	3,604.98	79.4192	3,604.98	80.6979	3,604.98	79.8511	3,604.98	79.2608	3,604.98	72.0358	3,604.98	78.8558	3,604.98	70.5061
3,732.42	96.9675	3,732.42	96.5876	3,732.42	96.9377	3,732.42	96.0082	3,732.42	96.598	3,732.42	95.2705	3,732.42	96.159	3,732.42	94.0315	3,732.42	95.4225	3,732.42	92.7721	3,732.42	94.1616	3,732.42	91.1584	3,732.42	92.6048	3,732.42	88.9067	3,732.42	90.6627	3,732.42	86.3491	3,732.42	88.5069	3,732.42	84.6322	3,732.42	86.0284	3,732.42	81.9768	3,732.42	83.9331	3,732.42	79.806	3,732.42	81.6966	3,732.42	79.4562	3,732.42	80.0479	3,732.42	78.5638	3,732.42	79.1422	3,732.42	80.7681	3,732.42	78.2136	3,732.42	79.5148	3,732.42	80.0586	3,732.42	78.7165	3,732.42	78.4671	3,732.42	66.256	3,732.42	78.4834	3,732.42	65.6689
3,863.53	96.9302	3,863.53	96.6338	3,863.53	96.9048	3,863.53	95.9125	3,863.53	96.5428	3,863.53	95.1764	3,863.53	96.0623	3,863.53	94.246	3,863.53	95.2948	3,863.53	92.8764	3,863.53	93.8671	3,863.53	90.966	3,863.53	92.2464	3,863.53	88.7049	3,863.53	90.4054	3,863.53	86.7968	3,863.53	88.254	3,863.53	84.483	3,863.53	85.4839	3,863.53	82.1409	3,863.53	83.2065	3,863.53	79.7365	3,863.53	81.2438	3,863.53	78.961	3,863.53	79.1929	3,863.53	77.7337	3,863.53	77.8389	3,863.53	79.3422	3,863.53	78.1981	3,863.53	78.5559	3,863.53	79.7369	3,863.53	78.6022	3,863.53	78.4438	3,863.53	64.0265	3,863.53	77.7684	3,863.53	67.1489
3,999.76	97.3863	3,999.76	96.8585	3,999.76	97.3986	3,999.76	96.2347	3,999.76	96.9388	3,999.76	95.5425	3,999.76	96.3469	3,999.76	94.482	3,999.76	95.4517	3,999.76	92.3927	3,999.76	94.1891	3,999.76	90.4565	3,999.76	92.9231	3,999.76	88.3217	3,999.76	90.9266	3,999.76	85.7836	3,999.76	88.2509	3,999.76	83.5008	3,999.76	86.0753	3,999.76	81.9834	3,999.76	83.6916	3,999.76	80.928	3,999.76	81.0941	3,999.76	77.8375	3,999.76	79.9686	3,999.76	79.3143	3,999.76	78.4184	3,999.76	78.5732	3,999.76	78.5225	3,999.76	78.9701	3,999.76	80.0218	3,999.76	78.4293	3,999.76	77.5092	3,999.76	63.9093	3,999.76	77.0865	3,999.76	65.0027
4,141.11	97.1287	4,141.11	96.6644	4,141.11	97.0068	4,141.11	96.1461	4,141.11	96.4557	4,141.11	95.474	4,141.11	95.5596	4,141.11	94.6426	4,141.11	94.6656	4,141.11	93.6413	4,141.11	93.8428	4,141.11	91.7898	4,141.11	92.2894	4,141.11	89.2684	4,141.11	90.0849	4,141.11	86.6444	4,141.11	88.1169	4,141.11	84.316	4,141.11	85.1733	4,141.11	80.8449	4,141.11	82.8037	4,141.11	78.2373	4,141.11	80.8907	4,141.11	78.6163	4,141.11	78.9646	4,141.11	78.8595	4,141.11	77.8025	4,141.11	77.8257	4,141.11	77.4048	4,141.11	77.5859	4,141.11	80.2479	4,141.11	76.6937	4,141.11	77.5432	4,141.11	52.44	4,141.11	76.0773	4,141.11	44.1765
4,286.87	97.9047	4,286.87	97.1337	4,286.87	97.8304	4,286.87	95.9086	4,286.87	96.9287	4,286.87	94.907	4,286.87	96.1553	4,286.87	94.2521	4,286.87	95.4763	4,286.87	92.6957	4,286.87	94.2773	4,286.87	90.342	4,286.87	92.684	4,286.87	87.8165	4,286.87	90.5916	4,286.87	86.5725	4,286.87	88.5313	4,286.87	84.2297	4,286.87	85.5857	4,286.87	82.4982	4,286.87	83.3349	4,286.87	79.9954	4,286.87	81.2233	4,286.87	78.887	4,286.87	79.4285	4,286.87	78.1301	4,286.87	76.8175	4,286.87	79.4968	4,286.87	77.1959	4,286.87	78.6932	4,286.87	78.5781	4,286.87	77.385	4,286.87	79.0722	4,286.87	62.7721	4,286.87	77.1542	4,286.87	50.6063
4,438.48	98.0143	4,438.48	97.3	4,438.48	97.8816	4,438.48	96.6155	4,438.48	97.0155	4,438.48	95.7011	4,438.48	96.1532	4,438.48	94.8705	4,438.48	95.163	4,438.48	93.221	4,438.48	93.7329	4,438.48	91.5307	4,438.48	92.3882	4,438.48	89.3857	4,438.48	90.2069	4,438.48	85.8466	4,438.48	87.6455	4,438.48	82.8006	4,438.48	85.1787	4,438.48	79.6137	4,438.48	82.2829	4,438.48	77.4631	4,438.48	80.1116	4,438.48	74.0825	4,438.48	78.5523	4,438.48	76.5378	4,438.48	77.8705	4,438.48	76.6599	4,438.48	77.895	4,438.48	77.9127	4,438.48	78.9449	4,438.48	76.8697	4,438.48	77.8156	4,438.48	62.4276	4,438.48	74.8033	4,438.48	57.5974
4,594.48	98.3176	4,594.48	97.6908	4,594.48	98.1292	4,594.48	96.7085	4,594.48	97.3081	4,594.48	95.6419	4,594.48	96.2377	4,594.48	94.2439	4,594.48	95.2986	4,594.48	92.8137	4,594.48	94.2511	4,594.48	90.7085	4,594.48	92.8914	4,594.48	88.0229	4,594.48	90.4343	4,594.48	85.7475	4,594.48	88.2813	4,594.48	83.9388	4,594.48	84.979	4,594.48	82.3692	4,594.48	82.7129	4,594.48	80.0098	4,594.48	80.4312	4,594.48	79.5234	4,594.48	78.6761	4,594.48	79.3772	4,594.48	75.677	4,594.48	78.3819	4,594.48	77.1886	4,594.48	77.7035	4,594.48	78.612	4,594.48	76.7246	4,594.48	78.3289	4,594.48	64.7507	4,594.48	76.8013	4,594.48	62.7439
4,757.08	98.7213	4,757.08	97.708	4,757.08	98.5645	4,757.08	96.5946	4,757.08	97.615	4,757.08	95.8968	4,757.08	96.6723	4,757.08	95.1007	4,757.08	95.8245	4,757.08	93.4403	4,757.08	94.4936	4,757.08	91.5756	4,757.08	92.5889	4,757.08	89.2086	4,757.08	90.8399	4,757.08	86.988	4,757.08	88.2828	4,757.08	83.197	4,757.08	85.2341	4,757.08	79.2663	4,757.08	82.5037	4,757.08	77.3347	4,757.08	80.8162	4,757.08	76.3748	4,757.08	78.8538	4,757.08	76.6186	4,757.08	77.7604	4,757.08	78.5644	4,757.08	78.3253	4,757.08	79.2295	4,757.08	79.3068	4,757.08	76.6986	4,757.08	78.7666	4,757.08	67.6318	4,757.08	76.243	4,757.08	60.9807
4,924.8	98.9404	4,924.8	98.1287	4,924.8	98.639	4,924.8	97.1253	4,924.8	97.4455	4,924.8	96.4885	4,924.8	96.6322	4,924.8	95.5969	4,924.8	96.0179	4,924.8	94.0923	4,924.8	94.8431	4,924.8	91.8054	4,924.8	93.6663	4,924.8	88.993	4,924.8	90.7894	4,924.8	85.6384	4,924.8	88.4652	4,924.8	84.3912	4,924.8	85.8115	4,924.8	81.9913	4,924.8	83.2424	4,924.8	80.0791	4,924.8	80.8605	4,924.8	79.1273	4,924.8	79.1226	4,924.8	78.6695	4,924.8	76.9093	4,924.8	78.3273	4,924.8	77.6708	4,924.8	80.7793	4,924.8	79.2677	4,924.8	77.9965	4,924.8	80.389	4,924.8	57.1	4,924.8	76.6346	4,924.8	60.5311
5,098.39	98.8036	5,098.39	97.8895	5,098.39	98.8108	5,098.39	96.7105	5,098.39	97.8826	5,098.39	95.7543	5,098.39	97.0647	5,098.39	94.874	5,098.39	96.4438	5,098.39	93.5306	5,098.39	95.3569	5,098.39	91.4734	5,098.39	93.4616	5,098.39	89.3836	5,098.39	91.5373	5,098.39	87.7303	5,098.39	89.054	5,098.39	84.7604	5,098.39	86.1488	5,098.39	82.3472	5,098.39	83.6222	5,098.39	79.777	5,098.39	81.4387	5,098.39	77.103	5,098.39	79.561	5,098.39	77.7562	5,098.39	78.6964	5,098.39	78.3301	5,098.39	77.8078	5,098.39	78.8536	5,098.39	78.4529	5,098.39	77.1821	5,098.39	80.6858	5,098.39	67.7277	5,098.39	77.3019	5,098.39	63.673
5,277.83	98.134	5,277.83	97.3086	5,277.83	97.9619	5,277.83	96.4829	5,277.83	96.9976	5,277.83	95.9639	5,277.83	96.3738	5,277.83	95.463	5,277.83	95.7892	5,277.83	94.2797	5,277.83	94.4501	5,277.83	91.8135	5,277.83	92.9825	5,277.83	89.5373	5,277.83	90.7504	5,277.83	86.2855	5,277.83	88.3638	5,277.83	82.7404	5,277.83	85.6811	5,277.83	80.0704	5,277.83	83.8333	5,277.83	79.2843	5,277.83	81.0361	5,277.83	78.4045	5,277.83	79.0441	5,277.83	78.4903	5,277.83	77.2322	5,277.83	78.1654	5,277.83	78.2786	5,277.83	78.9334	5,277.83	78.3479	5,277.83	77.0728	5,277.83	79.2301	5,277.83	65.8215	5,277.83	75.914	5,277.83	65.408
5,463.87	98.0783	5,463.87	97.2376	5,463.87	97.9539	5,463.87	96.1168	5,463.87	96.8984	5,463.87	95.3583	5,463.87	96.231	5,463.87	94.2047	5,463.87	95.476	5,463.87	92.367	5,463.87	94.542	5,463.87	90.3886	5,463.87	92.6066	5,463.87	88.1077	5,463.87	90.6343	5,463.87	86.4718	5,463.87	88.2699	5,463.87	85.3865	5,463.87	85.8897	5,463.87	82.8192	5,463.87	83.2587	5,463.87	80.0591	5,463.87	80.6386	5,463.87	77.16	5,463.87	79.0669	5,463.87	76.3787	5,463.87	76.7595	5,463.87	78.1946	5,463.87	77.2423	5,463.87	79.8521	5,463.87	77.6684	5,463.87	76.6767	5,463.87	79.2998	5,463.87	58.0739	5,463.87	75.5876	5,463.87	68.6334
5,656.49	97.7067	5,656.49	96.6089	5,656.49	97.6634	5,656.49	95.5629	5,656.49	96.5607	5,656.49	94.6825	5,656.49	95.3778	5,656.49	93.7755	5,656.49	94.8379	5,656.49	92.7235	5,656.49	93.4029	5,656.49	90.9706	5,656.49	91.7266	5,656.49	89.4541	5,656.49	90.1372	5,656.49	87.0911	5,656.49	88.3183	5,656.49	83.3287	5,656.49	85.5772	5,656.49	79.5812	5,656.49	83.3384	5,656.49	77.8733	5,656.49	81.3471	5,656.49	76.442	5,656.49	78.8648	5,656.49	76.6227	5,656.49	77.3419	5,656.49	77.6742	5,656.49	77.9426	5,656.49	77.7498	5,656.49	77.7202	5,656.49	73.359	5,656.49	78.1857	5,656.49	62.4481	5,656.49	74.1123	5,656.49	66.27
5,856.45	97.1937	5,856.45	96.1559	5,856.45	97.199	5,856.45	94.994	5,856.45	96.0358	5,856.45	94.2673	5,856.45	95.0583	5,856.45	93.5479	5,856.45	94.2319	5,856.45	92.4976	5,856.45	93.308	5,856.45	90.7374	5,856.45	91.8339	5,856.45	88.298	5,856.45	90.3874	5,856.45	85.2853	5,856.45	87.7124	5,856.45	82.557	5,856.45	85.3138	5,856.45	80.5951	5,856.45	82.6401	5,856.45	79.0835	5,856.45	79.9769	5,856.45	77.9435	5,856.45	78.3429	5,856.45	77.039	5,856.45	75.2771	5,856.45	77.5178	5,856.45	76.9673	5,856.45	78.3776	5,856.45	78.216	5,856.45	74.6753	5,856.45	76.7455	5,856.45	56.8921	5,856.45	73.5396	5,856.45	65.1246
6,062.99	97.5565	6,062.99	96.9942	6,062.99	97.2933	6,062.99	95.8825	6,062.99	96.2657	6,062.99	94.6816	6,062.99	94.9538	6,062.99	93.4136	6,062.99	94.0143	6,062.99	92.1599	6,062.99	92.8829	6,062.99	90.2409	6,062.99	91.4833	6,062.99	88.1678	6,062.99	89.9082	6,062.99	86.1777	6,062.99	87.1011	6,062.99	83.7444	6,062.99	84.8375	6,062.99	81.4263	6,062.99	81.9951	6,062.99	79.1856	6,062.99	79.7706	6,062.99	75.9699	6,062.99	77.1776	6,062.99	76.8291	6,062.99	75.3597	6,062.99	76.8831	6,062.99	76.2543	6,062.99	77.898	6,062.99	76.8439	6,062.99	73.4508	6,062.99	77.2766	6,062.99	53.1439	6,062.99	70.9485	6,062.99	69.1904
6,276.86	98.8015	6,276.86	98.0099	6,276.86	98.8182	6,276.86	96.3813	6,276.86	97.552	6,276.86	94.4426	6,276.86	95.9385	6,276.86	93.3231	6,276.86	94.8564	6,276.86	92.7317	6,276.86	93.9547	6,276.86	91.1535	6,276.86	92.8063	6,276.86	89.363	6,276.86	91.1779	6,276.86	86.9064	6,276.86	88.6559	6,276.86	84.0505	6,276.86	86.3488	6,276.86	81.1112	6,276.86	83.2323	6,276.86	78.3367	6,276.86	80.1396	6,276.86	75.3991	6,276.86	78.5763	6,276.86	76.294	6,276.86	76.337	6,276.86	76.6236	6,276.86	77.2165	6,276.86	78.0472	6,276.86	77.4593	6,276.86	70.6539	6,276.86	78.1221	6,276.86	50.4163	6,276.86	71.7928	6,276.86	68.8114
6,498.05	98.664	6,498.05	98.0919	6,498.05	98.892	6,498.05	96.6697	6,498.05	98.1252	6,498.05	95.1282	6,498.05	96.6482	6,498.05	94.3886	6,498.05	95.3023	6,498.05	93.7915	6,498.05	94.5032	6,498.05	92.1573	6,498.05	93.2719	6,498.05	89.929	6,498.05	91.5079	6,498.05	86.5817	6,498.05	88.6592	6,498.05	83.0308	6,498.05	86.0096	6,498.05	80.5881	6,498.05	83.0451	6,498.05	78.5359	6,498.05	80.3433	6,498.05	76.2635	6,498.05	77.6422	6,498.05	77.7068	6,498.05	76.4234	6,498.05	77.493	6,498.05	76.5958	6,498.05	77.77	6,498.05	77.0153	6,498.05	72.3779	6,498.05	77.8642	6,498.05	58.8784	6,498.05	71.6545	6,498.05	66.7155
6,727.29	98.8695	6,727.29	98.9883	6,727.29	99.0247	6,727.29	97.4501	6,727.29	98.7877	6,727.29	95.8629	6,727.29	96.9725	6,727.29	95.022	6,727.29	95.8935	6,727.29	93.9321	6,727.29	95.2531	6,727.29	91.5702	6,727.29	93.7643	6,727.29	88.952	6,727.29	91.909	6,727.29	85.4921	6,727.29	89.1717	6,727.29	83.4763	6,727.29	86.5562	6,727.29	81.147	6,727.29	83.1778	6,727.29	78.4523	6,727.29	80.5618	6,727.29	75.8472	6,727.29	78.6175	6,727.29	76.0744	6,727.29	76.5851	6,727.29	76.3462	6,727.29	76.9487	6,727.29	77.6905	6,727.29	77.9023	6,727.29	70.68	6,727.29	77.8039	6,727.29	59.9695	6,727.29	71.4907	6,727.29	67.866
6,964.6	99.345	6,964.6	99.0182	6,964.6	99.726	6,964.6	97.5275	6,964.6	99.0202	6,964.6	95.8918	6,964.6	97.1617	6,964.6	94.9568	6,964.6	96.1349	6,964.6	93.6777	6,964.6	95.3474	6,964.6	91.6511	6,964.6	93.7701	6,964.6	89.3528	6,964.6	91.8379	6,964.6	86.4369	6,964.6	89.0141	6,964.6	84.0714	6,964.6	86.2832	6,964.6	80.5658	6,964.6	83.3659	6,964.6	77.1685	6,964.6	80.5535	6,964.6	75.0444	6,964.6	78.1944	6,964.6	75.3673	6,964.6	76.3551	6,964.6	76.5313	6,964.6	76.8656	6,964.6	77.1014	6,964.6	77.4659	6,964.6	69.8413	6,964.6	77.3613	6,964.6	61.5348	6,964.6	70.3991	6,964.6	67.7587
7,209.96	99.1873	7,209.96	99.2043	7,209.96	99.3391	7,209.96	97.4306	7,209.96	99.0392	7,209.96	95.6827	7,209.96	97.1045	7,209.96	95.2	7,209.96	96.0634	7,209.96	94.2083	7,209.96	95.4124	7,209.96	92.2254	7,209.96	93.8577	7,209.96	90.1169	7,209.96	91.9564	7,209.96	86.9552	7,209.96	89.2575	7,209.96	83.7109	7,209.96	87.0281	7,209.96	80.8743	7,209.96	83.6111	7,209.96	78.0257	7,209.96	81.2323	7,209.96	76.4834	7,209.96	77.4937	7,209.96	75.3929	7,209.96	76.3519	7,209.96	77.6098	7,209.96	76.7545	7,209.96	76.7627	7,209.96	78.9818	7,209.96	69.3815	7,209.96	77.0293	7,209.96	63.5836	7,209.96	71.2594	7,209.96	65.6193
7,464.11	98.4753	7,464.11	98.4711	7,464.11	98.7708	7,464.11	96.6656	7,464.11	98.1575	7,464.11	95.3354	7,464.11	96.3124	7,464.11	94.9653	7,464.11	95.5698	7,464.11	93.8057	7,464.11	94.7645	7,464.11	92.036	7,464.11	93.2149	7,464.11	89.7494	7,464.11	91.5161	7,464.11	86.6582	7,464.11	89.1604	7,464.11	83.9851	7,464.11	86.5435	7,464.11	80.9996	7,464.11	83.4892	7,464.11	77.9759	7,464.11	81.1702	7,464.11	76.3081	7,464.11	78.1572	7,464.11	75.4752	7,464.11	76.7818	7,464.11	77.7201	7,464.11	76.8708	7,464.11	76.4345	7,464.11	78.1783	7,464.11	70.2869	7,464.11	76.561	7,464.11	63.9315	7,464.11	68.0545	7,464.11	65.9239
7,727.78	97.7403	7,727.78	97.3936	7,727.78	97.9741	7,727.78	95.8968	7,727.78	97.1565	7,727.78	94.7551	7,727.78	95.6342	7,727.78	94.0777	7,727.78	94.6082	7,727.78	93.0191	7,727.78	93.6929	7,727.78	91.4444	7,727.78	92.3609	7,727.78	89.2914	7,727.78	90.6012	7,727.78	86.0166	7,727.78	88.1345	7,727.78	82.9487	7,727.78	85.3676	7,727.78	80.7733	7,727.78	82.6258	7,727.78	77.8447	7,727.78	79.9988	7,727.78	76.3188	7,727.78	76.3346	7,727.78	74.6381	7,727.78	76.3071	7,727.78	76.9454	7,727.78	75.6805	7,727.78	75.7876	7,727.78	76.692	7,727.78	69.6994	7,727.78	73.8171	7,727.78	64.8348	7,727.78	67.6124	7,727.78	64.4081
8,000.24	97.5172	8,000.24	97.132	8,000.24	97.5265	8,000.24	95.9766	8,000.24	96.8085	8,000.24	94.3679	8,000.24	95.3306	8,000.24	93.4923	8,000.24	93.8279	8,000.24	92.1605	8,000.24	92.7455	8,000.24	90.48	8,000.24	91.4205	8,000.24	87.9795	8,000.24	89.3098	8,000.24	84.3836	8,000.24	86.3834	8,000.24	81.8591	8,000.24	83.673	8,000.24	79.3506	8,000.24	80.4113	8,000.24	77.0831	8,000.24	77.4345	8,000.24	74.6922	8,000.24	75.2709	8,000.24	73.8687	8,000.24	73.5067	8,000.24	75.581	8,000.24	74.2801	8,000.24	74.7074	8,000.24	75.3519	8,000.24	69.5688	8,000.24	72.1631	8,000.24	62.6723	8,000.24	63.6946	8,000.24	64.2024
8,282.23	98.838	8,282.23	98.0899	8,282.23	98.9618	8,282.23	97.0112	8,282.23	97.974	8,282.23	95.1155	8,282.23	96.6999	8,282.23	93.7468	8,282.23	94.7081	8,282.23	92.3731	8,282.23	93.5937	8,282.23	90.3587	8,282.23	92.3195	8,282.23	87.4586	8,282.23	89.6652	8,282.23	83.6979	8,282.23	86.3661	8,282.23	81.3649	8,282.23	82.9997	8,282.23	77.951	8,282.23	79.1735	8,282.23	75.338	8,282.23	76.5144	8,282.23	73.3228	8,282.23	74.108	8,282.23	71.6221	8,282.23	72.3183	8,282.23	74.2162	8,282.23	72.4368	8,282.23	72.526	8,282.23	74.2164	8,282.23	67.5642	8,282.23	71.7489	8,282.23	61.5922	8,282.23	64.8318	8,282.23	64.6053
8,574.46	99.8459	8,574.46	99.2206	8,574.46	99.687	8,574.46	98.1647	8,574.46	98.9748	8,574.46	96.2763	8,574.46	97.7857	8,574.46	95.1326	8,574.46	95.848	8,574.46	93.7742	8,574.46	94.7757	8,574.46	91.7136	8,574.46	93.4474	8,574.46	88.3269	8,574.46	90.9239	8,574.46	84.7565	8,574.46	87.5708	8,574.46	81.1028	8,574.46	84.3468	8,574.46	77.4619	8,574.46	80.6905	8,574.46	74.5146	8,574.46	78.111	8,574.46	71.573	8,574.46	74.339	8,574.46	70.8251	8,574.46	72.2063	8,574.46	73.978	8,574.46	73.1789	8,574.46	71.8928	8,574.46	75.0239	8,574.46	66.8017	8,574.46	71.7588	8,574.46	64.1517	8,574.46	66.4814	8,574.46	66.0576
8,876.22	99.9985	8,876.22	99.0266	8,876.22	99.9485	8,876.22	98.4569	8,876.22	98.9241	8,876.22	96.5629	8,876.22	97.9708	8,876.22	95.3819	8,876.22	96.0051	8,876.22	94.0869	8,876.22	95.0398	8,876.22	91.9	8,876.22	93.6739	8,876.22	88.3502	8,876.22	91.0803	8,876.22	84.8074	8,876.22	88.1251	8,876.22	81.6831	8,876.22	84.5959	8,876.22	78.7191	8,876.22	81.3608	8,876.22	75.1787	8,876.22	78.2163	8,876.22	72.001	8,876.22	74.9186	8,876.22	71.525	8,876.22	73.3802	8,876.22	74.6778	8,876.22	73.9426	8,876.22	71.6865	8,876.22	75.51	8,876.22	67.5347	8,876.22	71.4851	8,876.22	67.2453	8,876.22	65.3947	8,876.22	66.0539
9,189.7	98.9791	9,189.7	98.28	9,189.7	98.649	9,189.7	97.7196	9,189.7	97.94	9,189.7	95.9899	9,189.7	96.9368	9,189.7	94.8965	9,189.7	95.2081	9,189.7	93.4049	9,189.7	94.1645	9,189.7	91.3074	9,189.7	92.7172	9,189.7	88.3425	9,189.7	89.9733	9,189.7	85.2845	9,189.7	87.1507	9,189.7	82.0259	9,189.7	83.7475	9,189.7	79.0363	9,189.7	80.8603	9,189.7	75.9378	9,189.7	78.0304	9,189.7	72.757	9,189.7	74.3332	9,189.7	72.383	9,189.7	73.7369	9,189.7	73.9975	9,189.7	73.5058	9,189.7	71.6485	9,189.7	74.3357	9,189.7	66.8693	9,189.7	71.104	9,189.7	66.9411	9,189.7	64.532	9,189.7	62.6303
9,513.43	98.037	9,513.43	97.0508	9,513.43	97.8587	9,513.43	96.4044	9,513.43	96.7117	9,513.43	94.8021	9,513.43	95.7691	9,513.43	93.3411	9,513.43	94.0388	9,513.43	91.8202	9,513.43	92.6972	9,513.43	90.0578	9,513.43	91.0738	9,513.43	87.0348	9,513.43	88.1274	9,513.43	84.121	9,513.43	85.5346	9,513.43	81.0492	9,513.43	81.9697	9,513.43	78.1347	9,513.43	79.1869	9,513.43	75.0812	9,513.43	76.5425	9,513.43	72.2428	9,513.43	73.2015	9,513.43	71.0903	9,513.43	72.247	9,513.43	73.4356	9,513.43	71.6724	9,513.43	69.4518	9,513.43	71.1372	9,513.43	65.6115	9,513.43	66.6231	9,513.43	65.1508	9,513.43	63.2651	9,513.43	57.3843
9,848.88	97.9167	9,848.88	97.3121	9,848.88	97.5829	9,848.88	96.1016	9,848.88	96.8466	9,848.88	94.3665	9,848.88	95.5807	9,848.88	92.2965	9,848.88	93.6931	9,848.88	90.5006	9,848.88	91.6471	9,848.88	88.4323	9,848.88	89.7992	9,848.88	85.3229	9,848.88	86.5959	9,848.88	82.5904	9,848.88	83.2773	9,848.88	78.8276	9,848.88	79.7083	9,848.88	76.6615	9,848.88	77.2992	9,848.88	73.4912	9,848.88	74.9575	9,848.88	70.6072	9,848.88	70.7456	9,848.88	70.6472	9,848.88	69.5526	9,848.88	72.0323	9,848.88	69.091	9,848.88	66.9171	9,848.88	70.2932	9,848.88	63.5983	9,848.88	65.6356	9,848.88	60.2315	9,848.88	63.6032	9,848.88	50.5302
10,196.8	98.958	10,196.8	98.3096	10,196.8	98.7633	10,196.8	97.2198	10,196.8	97.7053	10,196.8	95.415	10,196.8	96.4868	10,196.8	92.7367	10,196.8	94.3853	10,196.8	90.7696	10,196.8	91.5938	10,196.8	88.4497	10,196.8	89.5743	10,196.8	84.8612	10,196.8	86.0668	10,196.8	81.584	10,196.8	82.3869	10,196.8	77.5542	10,196.8	78.6633	10,196.8	75.3636	10,196.8	75.8981	10,196.8	72.2364	10,196.8	73.4072	10,196.8	69.4233	10,196.8	68.2877	10,196.8	69.9763	10,196.8	68.6684	10,196.8	70.9143	10,196.8	67.5165	10,196.8	64.2895	10,196.8	68.3733	10,196.8	63.8159	10,196.8	62.2207	10,196.8	55.6877	10,196.8	64.2407	10,196.8	46.4477
10,556.4	99.9762	10,556.4	99.1942	10,556.4	99.683	10,556.4	97.9167	10,556.4	98.6319	10,556.4	96.1646	10,556.4	97.2152	10,556.4	93.3047	10,556.4	95.0976	10,556.4	91.2858	10,556.4	92.0301	10,556.4	89.0073	10,556.4	89.6897	10,556.4	85.0686	10,556.4	85.9937	10,556.4	81.8204	10,556.4	83.1203	10,556.4	77.9935	10,556.4	78.9272	10,556.4	74.3912	10,556.4	76.2568	10,556.4	71.0736	10,556.4	72.3259	10,556.4	70.0214	10,556.4	68.666	10,556.4	69.1175	10,556.4	68.5352	10,556.4	70.33	10,556.4	67.9738	10,556.4	59.8149	10,556.4	67.2181	10,556.4	63.0807	10,556.4	58.6477	10,556.4	56.6849	10,556.4	63.8255	10,556.4	54.2549
10,928.5	100.118	10,928.5	99.4022	10,928.5	99.9557	10,928.5	98.0908	10,928.5	98.8285	10,928.5	96.2143	10,928.5	97.5112	10,928.5	93.4482	10,928.5	95.2887	10,928.5	91.206	10,928.5	91.9356	10,928.5	88.7238	10,928.5	89.4502	10,928.5	84.6354	10,928.5	86.1047	10,928.5	81.4494	10,928.5	82.9263	10,928.5	77.9227	10,928.5	79.0887	10,928.5	74.8989	10,928.5	76.7244	10,928.5	71.3337	10,928.5	73.0847	10,928.5	69.0507	10,928.5	70.8481	10,928.5	67.7133	10,928.5	68.7896	10,928.5	69.9868	10,928.5	67.2704	10,928.5	56.2008	10,928.5	67.5522	10,928.5	64.1643	10,928.5	56.1956	10,928.5	62.063	10,928.5	61.9128	10,928.5	53.4356
11,313.7	99.7487	11,313.7	99.2471	11,313.7	99.3409	11,313.7	97.9133	11,313.7	98.5363	11,313.7	95.8971	11,313.7	97.2142	11,313.7	92.8088	11,313.7	94.9071	11,313.7	90.5564	11,313.7	91.4341	11,313.7	88.3049	11,313.7	89.0532	11,313.7	84.8685	11,313.7	86.3402	11,313.7	81.5555	11,313.7	83.5951	11,313.7	77.6473	11,313.7	80.1949	11,313.7	74.5711	11,313.7	76.4905	11,313.7	70.6553	11,313.7	72.8597	11,313.7	69.3638	11,313.7	71.5422	11,313.7	66.7613	11,313.7	69.6059	11,313.7	69.7297	11,313.7	67.6763	11,313.7	55.5334	11,313.7	68.595	11,313.7	61.6994	11,313.7	58.417	11,313.7	61.4526	11,313.7	61.2199	11,313.7	57.7416
11,712.9	98.7796	11,712.9	98.1637	11,712.9	98.5391	11,712.9	97.0691	11,712.9	97.6347	11,712.9	94.8382	11,712.9	96.2335	11,712.9	91.7607	11,712.9	93.8609	11,712.9	89.0737	11,712.9	89.9042	11,712.9	87.4522	11,712.9	87.3129	11,712.9	83.7576	11,712.9	85.4606	11,712.9	80.4151	11,712.9	82.8806	11,712.9	76.6838	11,712.9	79.0036	11,712.9	74.7994	11,712.9	76.1054	11,712.9	70.4606	11,712.9	72.2268	11,712.9	69.4986	11,712.9	71.0878	11,712.9	64.6618	11,712.9	65.8901	11,712.9	67.5537	11,712.9	66.2275	11,712.9	57.0559	11,712.9	66.7992	11,712.9	57.7787	11,712.9	41.6374	11,712.9	61.139	11,712.9	59.7026	11,712.9	54.9582
12,126	98.6635	12,126	98.211	12,126	98.1029	12,126	96.8844	12,126	97.5146	12,126	94.2883	12,126	95.7321	12,126	90.7413	12,126	92.9988	12,126	87.6707	12,126	88.4299	12,126	85.7289	12,126	86.0583	12,126	80.9692	12,126	83.4623	12,126	78.8967	12,126	80.1623	12,126	74.6875	12,126	75.344	12,126	72.7001	12,126	73.965	12,126	68.5469	12,126	70.179	12,126	66.3269	12,126	67.8598	12,126	62.8726	12,126	65.4905	12,126	66.3829	12,126	63.6019	12,126	56.7571	12,126	64.9566	12,126	56.4931	12,126	52.3656	12,126	56.6284	12,126	55.9578	12,126	57.1878
12,553.7	99.3796	12,553.7	98.9048	12,553.7	98.9048	12,553.7	97.6245	12,553.7	98.4734	12,553.7	94.8246	12,553.7	96.66	12,553.7	90.5698	12,553.7	93.4685	12,553.7	87.2168	12,553.7	88.9882	12,553.7	85.0832	12,553.7	86.1434	12,553.7	80.2048	12,553.7	83.384	12,553.7	76.9375	12,553.7	79.4956	12,553.7	73.1795	12,553.7	74.8059	12,553.7	70.1786	12,553.7	71.2618	12,553.7	65.9983	12,553.7	67.9226	12,553.7	64.8852	12,553.7	66.5596	12,553.7	61.2322	12,553.7	64.0703	12,553.7	64.0869	12,553.7	60.6018	12,553.7	54.9818	12,553.7	62.8638	12,553.7	53.1318	12,553.7	48.88	12,553.7	55.2775	12,553.7	53.428	12,553.7	55.8255
12,996.1	99.7085	12,996.1	99.2305	12,996.1	99.4141	12,996.1	97.7655	12,996.1	98.9316	12,996.1	94.5801	12,996.1	96.9526	12,996.1	90.4434	12,996.1	93.4858	12,996.1	86.4741	12,996.1	88.8247	12,996.1	83.238	12,996.1	85.3822	12,996.1	78.4523	12,996.1	82.1558	12,996.1	73.9728	12,996.1	77.6837	12,996.1	71.2838	12,996.1	72.0355	12,996.1	67.5737	12,996.1	67.4252	12,996.1	62.6589	12,996.1	64.1661	12,996.1	59.8109	12,996.1	63.6799	12,996.1	55.5572	12,996.1	57.2715	12,996.1	61.007	12,996.1	51.7941	12,996.1	55.6312	12,996.1	56.8828	12,996.1	53.0366	12,996.1	41.4519	12,996.1	56.7715	12,996.1	56.7286	12,996.1	54.5691
13,454.6	99.4762	13,454.6	98.9566	13,454.6	99.1457	13,454.6	97.3688	13,454.6	98.7517	13,454.6	94.0798	13,454.6	96.4162	13,454.6	89.1987	13,454.6	92.4458	13,454.6	84.6706	13,454.6	87.8527	13,454.6	80.8656	13,454.6	83.9917	13,454.6	74.6742	13,454.6	78.8929	13,454.6	70.7408	13,454.6	69.4607	13,454.6	68.2267	13,454.6	65.1839	13,454.6	65.1401	13,454.6	64.0033	13,454.6	62.4106	13,454.6	62.1195	13,454.6	55.6062	13,454.6	59.0441	13,454.6	53.7672	13,454.6	54.9018	13,454.6	60.9808	13,454.6	48.9674	13,454.6	59.1536	13,454.6	54.8354	13,454.6	54.4342	13,454.6	57.0491	13,454.6	59.9455	13,454.6	60.4076	13,454.6	52.1895
13,928.5	98.6627	13,928.5	98.2054	13,928.5	98.3531	13,928.5	96.5468	13,928.5	97.8799	13,928.5	92.8027	13,928.5	94.8368	13,928.5	88.0045	13,928.5	90.6069	13,928.5	83.065	13,928.5	86.52	13,928.5	77.7218	13,928.5	80.7914	13,928.5	72.7699	13,928.5	72.481	13,928.5	67.8248	13,928.5	70.846	13,928.5	66.715	13,928.5	69.4853	13,928.5	61.8232	13,928.5	66.4716	13,928.5	61.6058	13,928.5	65.7677	13,928.5	56.7718	13,928.5	61.835	13,928.5	53.6192	13,928.5	56.9775	13,928.5	57.9412	13,928.5	54.5869	13,928.5	59.1396	13,928.5	58.789	13,928.5	57.7252	13,928.5	50.7504	13,928.5	59.3033	13,928.5	58.3417	13,928.5	59.5267
14,419.9	98.3353	14,419.9	97.4647	14,419.9	98.2816	14,419.9	95.6561	14,419.9	97.2599	14,419.9	91.7186	14,419.9	94.0064	14,419.9	86.8643	14,419.9	90.162	14,419.9	80.7654	14,419.9	85.316	14,419.9	75.5042	14,419.9	77.4749	14,419.9	71.9106	14,419.9	73.9527	14,419.9	67.027	14,419.9	75.1977	14,419.9	66.6013	14,419.9	70.7941	14,419.9	61.5686	14,419.9	68.5652	14,419.9	60.7875	14,419.9	66.2998	14,419.9	52.6851	14,419.9	63.4846	14,419.9	58.5212	14,419.9	53.6586	14,419.9	54.7182	14,419.9	53.8974	14,419.9	57.1652	14,419.9	51.9831	14,419.9	56.101	14,419.9	51.3025	14,419.9	52.774	14,419.9	53.6706	14,419.9	55.8975
14,928.2	98.8201	14,928.2	97.6847	14,928.2	98.7969	14,928.2	95.5086	14,928.2	97.5739	14,928.2	91.5362	14,928.2	94.4994	14,928.2	85.923	14,928.2	90.6853	14,928.2	78.9893	14,928.2	84.738	14,928.2	73.8465	14,928.2	75.6922	14,928.2	73.7308	14,928.2	76.6299	14,928.2	67.7637	14,928.2	75.9001	14,928.2	67.2742	14,928.2	71.281	14,928.2	61.266	14,928.2	67.1969	14,928.2	59.7788	14,928.2	65.5814	14,928.2	50.8918	14,928.2	60.638	14,928.2	58.0402	14,928.2	49.6022	14,928.2	47.0115	14,928.2	51.2939	14,928.2	55.0738	14,928.2	49.8181	14,928.2	54.7612	14,928.2	53.2143	14,928.2	52.0165	14,928.2	53.9357	14,928.2	56.5682
15,454.8	99.109	15,454.8	97.9202	15,454.8	98.9016	15,454.8	95.5697	15,454.8	97.5111	15,454.8	91.3646	15,454.8	94.5826	15,454.8	85.1209	15,454.8	90.1333	15,454.8	77.5347	15,454.8	82.9632	15,454.8	73.5404	15,454.8	74.0159	15,454.8	72.7581	15,454.8	76.5736	15,454.8	67.0378	15,454.8	74.791	15,454.8	65.3896	15,454.8	68.9571	15,454.8	62.0182	15,454.8	67.8315	15,454.8	58.7861	15,454.8	63.5339	15,454.8	46.5551	15,454.8	58.7274	15,454.8	56.1356	15,454.8	56.5179	15,454.8	47.9277	15,454.8	34.9703	15,454.8	56.6835	15,454.8	37.2472	15,454.8	53.3612	15,454.8	51.4771	15,454.8	54.4506	15,454.8	52.0365	15,454.8	54.0409
15,999.8	98.71	15,999.8	97.6649	15,999.8	98.3903	15,999.8	95.2878	15,999.8	97.0884	15,999.8	90.7283	15,999.8	93.9653	15,999.8	83.4653	15,999.8	88.682	15,999.8	74.1762	15,999.8	80.4048	15,999.8	71.1031	15,999.8	74.3182	15,999.8	72.3571	15,999.8	76.279	15,999.8	69.8505	15,999.8	75.3699	15,999.8	65.4098	15,999.8	70.1742	15,999.8	63.3471	15,999.8	69.5056	15,999.8	57.4044	15,999.8	64.4543	15,999.8	50.7777	15,999.8	58.7632	15,999.8	56.6769	15,999.8	56.9383	15,999.8	49.2954	15,999.8	34.0403	15,999.8	58.1397	15,999.8	48.516	15,999.8	58.2692	15,999.8	41.452	15,999.8	55.5365	15,999.8	54.0564	15,999.8	55.5568
16,564.5	98.257	16,564.5	97.118	16,564.5	98.0238	16,564.5	94.6258	16,564.5	96.724	16,564.5	89.9515	16,564.5	93.5117	16,564.5	81.6943	16,564.5	87.5414	16,564.5	73.0488	16,564.5	79.2148	16,564.5	72.3326	16,564.5	76.0528	16,564.5	74.0307	16,564.5	76.8504	16,564.5	71.4941	16,564.5	75.9611	16,564.5	66.0322	16,564.5	71.1151	16,564.5	64.9837	16,564.5	70.7653	16,564.5	56.9529	16,564.5	65.0079	16,564.5	55.4443	16,564.5	61.3131	16,564.5	58.3097	16,564.5	57.5866	16,564.5	51.4991	16,564.5	44.0679	16,564.5	57.6186	16,564.5	42.2851	16,564.5	58.8127	16,564.5	47.4923	16,564.5	55.7547	16,564.5	49.2827	16,564.5	55.1502
17,148.2	98.9966	17,148.2	97.5881	17,148.2	98.7682	17,148.2	94.898	17,148.2	97.0535	17,148.2	89.9408	17,148.2	93.6693	17,148.2	80.3414	17,148.2	87.516	17,148.2	74.0882	17,148.2	79.2713	17,148.2	74.3754	17,148.2	76.6406	17,148.2	75.2051	17,148.2	77.8903	17,148.2	72.4402	17,148.2	77.0073	17,148.2	66.8814	17,148.2	71.7587	17,148.2	65.5973	17,148.2	70.6007	17,148.2	59.6803	17,148.2	65.9325	17,148.2	57.017	17,148.2	60.8256	17,148.2	59.8967	17,148.2	60.6842	17,148.2	55.3839	17,148.2	44.54	17,148.2	54.98	17,148.2	44.288	17,148.2	57.3442	17,148.2	48.6089	17,148.2	56.5457	17,148.2	45.7013	17,148.2	53.4904
17,753.2	99.713	17,753.2	98.0882	17,753.2	99.4609	17,753.2	95.3231	17,753.2	97.6109	17,753.2	90.1508	17,753.2	94.3113	17,753.2	79.6583	17,753.2	87.8115	17,753.2	75.4717	17,753.2	79.2107	17,753.2	75.6532	17,753.2	77.9738	17,753.2	75.9871	17,753.2	79.5004	17,753.2	72.7551	17,753.2	78.5126	17,753.2	67.2549	17,753.2	72.8036	17,753.2	65.0125	17,753.2	70.7296	17,753.2	59.5403	17,753.2	65.6941	17,753.2	56.1819	17,753.2	58.3976	17,753.2	60.0163	17,753.2	64.4665	17,753.2	53.875	17,753.2	28.8679	17,753.2	55.7375	17,753.2	39.6002	17,753.2	54.5693	17,753.2	51.9828	17,753.2	58.7622	17,753.2	53.716	17,753.2	53.1337
18,379.4	99.0737	18,379.4	97.5022	18,379.4	98.6891	18,379.4	94.7111	18,379.4	96.635	18,379.4	89.2192	18,379.4	93.1852	18,379.4	77.6734	18,379.4	86.0862	18,379.4	74.9542	18,379.4	77.3664	18,379.4	76.0159	18,379.4	78.0291	18,379.4	76.5309	18,379.4	79.6691	18,379.4	73.3602	18,379.4	78.6964	18,379.4	67.0233	18,379.4	73.6419	18,379.4	64.1144	18,379.4	70.7678	18,379.4	60.1174	18,379.4	66.1487	18,379.4	57.337	18,379.4	60.2491	18,379.4	59.8093	18,379.4	65.4744	18,379.4	50.1019	18,379.4	45.4139	18,379.4	55.6082	18,379.4	42.809	18,379.4	53.8101	18,379.4	50.4636	18,379.4	55.2315	18,379.4	51.6399	18,379.4	51.4666
19,027.6	97.9458	19,027.6	96.1157	19,027.6	97.5835	19,027.6	92.9144	19,027.6	95.3664	19,027.6	86.646	19,027.6	91.4928	19,027.6	71.4357	19,027.6	83.0119	19,027.6	74.7471	19,027.6	74.6602	19,027.6	76.6022	19,027.6	76.9622	19,027.6	76.9615	19,027.6	78.8651	19,027.6	73.8901	19,027.6	77.5934	19,027.6	68.3292	19,027.6	72.5769	19,027.6	64.6533	19,027.6	69.3975	19,027.6	61.2505	19,027.6	64.4751	19,027.6	57.605	19,027.6	59.8674	19,027.6	59.5684	19,027.6	65.3947	19,027.6	51.2097	19,027.6	47.8998	19,027.6	54.0143	19,027.6	51.7322	19,027.6	52.3218	19,027.6	54.6321	19,027.6	55.8036	19,027.6	49.2535	19,027.6	50.017
19,698.5	98.3081	19,698.5	96.4313	19,698.5	97.9461	19,698.5	92.9513	19,698.5	95.6974	19,698.5	85.2848	19,698.5	91.3921	19,698.5	70.8452	19,698.5	81.5436	19,698.5	76.2362	19,698.5	74.9634	19,698.5	77.2281	19,698.5	78.0474	19,698.5	76.8012	19,698.5	79.3121	19,698.5	72.7852	19,698.5	77.3959	19,698.5	67.5206	19,698.5	71.8071	19,698.5	64.4774	19,698.5	67.542	19,698.5	61.2425	19,698.5	63.0553	19,698.5	56.7883	19,698.5	59.9103	19,698.5	58.9586	19,698.5	63.5219	19,698.5	49.0368	19,698.5	44.2352	19,698.5	49.1642	19,698.5	42.546	19,698.5	50.8664	19,698.5	48.5645	19,698.5	54.7089	19,698.5	53.3764	19,698.5	46.8258
19,999.5	98.3031	19,999.5	96.4163	19,999.5	97.8383	19,999.5	92.8922	19,999.5	95.9889	19,999.5	85.0881	19,999.5	91.1244	19,999.5	72.0915	19,999.5	81.1351	19,999.5	76.1904	19,999.5	75.8566	19,999.5	77.9394	19,999.5	78.7371	19,999.5	76.768	19,999.5	79.4929	19,999.5	72.9373	19,999.5	77.8478	19,999.5	67.3504	19,999.5	71.9947	19,999.5	63.4034	19,999.5	67.3822	19,999.5	58.6142	19,999.5	62.0666	19,999.5	55.8126	19,999.5	60.0179	19,999.5	60.6004	19,999.5	66.5759	19,999.5	54.0757	19,999.5	51.3296	19,999.5	48.0367	19,999.5	51.6566	19,999.5	43.5045	19,999.5	57.5665	19,999.5	58.5565	19,999.5	52.387	19,999.5	53.4962
