"SPL Vertical"																																																																							
"On-Axis"		"10°"		"-10°"		"20°"		"-20°"		"30°"		"-30°"		"40°"		"-40°"		"50°"		"-50°"		"60°"		"-60°"		"70°"		"-70°"		"80°"		"-80°"		"90°"		"-90°"		"100°"		"-100°"		"110°"		"-110°"		"120°"		"-120°"		"130°"		"-130°"		"140°"		"-140°"		"150°"		"-150°"		"160°"		"-160°"		"170°"		"-170°"		"180°"	
"Frequency [Hz]"	"Sound Pessure Level [dB]  / [2.83V 1m] "	"Frequency [Hz]"	"Sound Pessure Level [dB]  / [2.83V 1m] "	"Frequency [Hz]"	"Sound Pessure Level [dB]  / [2.83V 1m] "	"Frequency [Hz]"	"Sound Pessure Level [dB]  / [2.83V 1m] "	"Frequency [Hz]"	"Sound Pessure Level [dB]  / [2.83V 1m] "	"Frequency [Hz]"	"Sound Pessure Level [dB]  / [2.83V 1m] "	"Frequency [Hz]"	"Sound Pessure Level [dB]  / [2.83V 1m] "	"Frequency [Hz]"	"Sound Pessure Level [dB]  / [2.83V 1m] "	"Frequency [Hz]"	"Sound Pessure Level [dB]  / [2.83V 1m] "	"Frequency [Hz]"	"Sound Pessure Level [dB]  / [2.83V 1m] "	"Frequency [Hz]"	"Sound Pessure Level [dB]  / [2.83V 1m] "	"Frequency [Hz]"	"Sound Pessure Level [dB]  / [2.83V 1m] "	"Frequency [Hz]"	"Sound Pessure Level [dB]  / [2.83V 1m] "	"Frequency [Hz]"	"Sound Pessure Level [dB]  / [2.83V 1m] "	"Frequency [Hz]"	"Sound Pessure Level [dB]  / [2.83V 1m] "	"Frequency [Hz]"	"Sound Pessure Level [dB]  / [2.83V 1m] "	"Frequency [Hz]"	"Sound Pessure Level [dB]  / [2.83V 1m] "	"Frequency [Hz]"	"Sound Pessure Level [dB]  / [2.83V 1m] "	"Frequency [Hz]"	"Sound Pessure Level [dB]  / [2.83V 1m] "	"Frequency [Hz]"	"Sound Pessure Level [dB]  / [2.83V 1m] "	"Frequency [Hz]"	"Sound Pessure Level [dB]  / [2.83V 1m] "	"Frequency [Hz]"	"Sound Pessure Level [dB]  / [2.83V 1m] "	"Frequency [Hz]"	"Sound Pessure Level [dB]  / [2.83V 1m] "	"Frequency [Hz]"	"Sound Pessure Level [dB]  / [2.83V 1m] "	"Frequency [Hz]"	"Sound Pessure Level [dB]  / [2.83V 1m] "	"Frequency [Hz]"	"Sound Pessure Level [dB]  / [2.83V 1m] "	"Frequency [Hz]"	"Sound Pessure Level [dB]  / [2.83V 1m] "	"Frequency [Hz]"	"Sound Pessure Level [dB]  / [2.83V 1m] "	"Frequency [Hz]"	"Sound Pessure Level [dB]  / [2.83V 1m] "	"Frequency [Hz]"	"Sound Pessure Level [dB]  / [2.83V 1m] "	"Frequency [Hz]"	"Sound Pessure Level [dB]  / [2.83V 1m] "	"Frequency [Hz]"	"Sound Pessure Level [dB]  / [2.83V 1m] "	"Frequency [Hz]"	"Sound Pessure Level [dB]  / [2.83V 1m] "	"Frequency [Hz]"	"Sound Pessure Level [dB]  / [2.83V 1m] "	"Frequency [Hz]"	"Sound Pessure Level [dB]  / [2.83V 1m] "	"Frequency [Hz]"	"Sound Pessure Level [dB]  / [2.83V 1m] "
20.5078	51.2843	20.5078	51.1822	20.5078	51.4865	20.5078	51.1748	20.5078	51.7802	20.5078	51.2464	20.5078	52.1431	20.5078	51.376	20.5078	52.5432	20.5078	51.5422	20.5078	52.9449	20.5078	51.7268	20.5078	53.3139	20.5078	51.9153	20.5078	53.6213	20.5078	52.0977	20.5078	53.8459	20.5078	52.2671	20.5078	53.9749	20.5078	52.4194	20.5078	54.0058	20.5078	52.5521	20.5078	53.9461	20.5078	52.6638	20.5078	53.8139	20.5078	52.754	20.5078	53.6359	20.5078	52.8228	20.5078	53.4439	20.5078	52.8722	20.5078	53.2676	20.5078	52.9069	20.5078	53.1277	20.5078	52.9358	20.5078	53.0312	20.5078	52.9719
21.2402	53.0402	21.2402	52.3426	21.2402	53.7375	21.2402	51.6609	21.2402	54.4175	21.2402	51.0106	21.2402	55.0628	21.2402	50.4055	21.2402	55.6562	21.2402	49.8579	21.2402	56.1807	21.2402	49.3787	21.2402	56.6201	21.2402	48.9779	21.2402	56.9594	21.2402	48.6661	21.2402	57.1849	21.2402	48.4552	21.2402	57.2853	21.2402	48.3594	21.2402	57.2519	21.2402	48.3945	21.2402	57.0793	21.2402	48.5752	21.2402	56.7663	21.2402	48.9113	21.2402	56.3161	21.2402	49.4031	21.2402	55.7372	21.2402	50.0385	21.2402	55.0439	21.2402	50.7928	21.2402	54.2568	21.2402	51.6316	21.2402	53.4029	21.2402	52.5152
21.9727	60.5718	21.9727	60.2632	21.9727	60.9043	21.9727	59.9851	21.9727	61.2524	21.9727	59.7424	21.9727	61.6057	21.9727	59.5389	21.9727	61.9526	21.9727	59.3773	21.9727	62.2803	21.9727	59.2601	21.9727	62.5754	21.9727	59.1894	21.9727	62.8252	21.9727	59.167	21.9727	63.0184	21.9727	59.1947	21.9727	63.1458	21.9727	59.2733	21.9727	63.2012	21.9727	59.4027	21.9727	63.1817	21.9727	59.5815	21.9727	63.0884	21.9727	59.8066	21.9727	62.9255	21.9727	60.0732	21.9727	62.701	21.9727	60.3752	21.9727	62.425	21.9727	60.705	21.9727	62.1097	21.9727	61.0538	21.9727	61.7677	21.9727	61.4117
22.7051	57.9219	22.7051	57.71	22.7051	58.1917	22.7051	57.5576	22.7051	58.5114	22.7051	57.4612	22.7051	58.8668	22.7051	57.4137	22.7051	59.2391	22.7051	57.4066	22.7051	59.6061	22.7051	57.4312	22.7051	59.9453	22.7051	57.4799	22.7051	60.2356	22.7051	57.5466	22.7051	60.4588	22.7051	57.627	22.7051	60.6016	22.7051	57.7183	22.7051	60.6561	22.7051	57.8194	22.7051	60.6207	22.7051	57.9302	22.7051	60.5009	22.7051	58.0519	22.7051	60.3083	22.7051	58.1869	22.7051	60.061	22.7051	58.339	22.7051	59.7803	22.7051	58.513	22.7051	59.4886	22.7051	58.7139	22.7051	59.2056	22.7051	58.945
23.4375	58.767	23.4375	58.4425	23.4375	59.1355	23.4375	58.1689	23.4375	59.5367	23.4375	57.9487	23.4375	59.9551	23.4375	57.7808	23.4375	60.3722	23.4375	57.6619	23.4375	60.7682	23.4375	57.5875	23.4375	61.1231	23.4375	57.5535	23.4375	61.4187	23.4375	57.5563	23.4375	61.6394	23.4375	57.5938	23.4375	61.7732	23.4375	57.665	23.4375	61.8128	23.4375	57.77	23.4375	61.7562	23.4375	57.91	23.4375	61.6067	23.4375	58.0866	23.4375	61.3732	23.4375	58.3014	23.4375	61.07	23.4375	58.5558	23.4375	60.7154	23.4375	58.8501	23.4375	60.3298	23.4375	59.1822	23.4375	59.9342	23.4375	59.5468
24.1699	60.2939	24.1699	59.8747	24.1699	60.7434	24.1699	59.4977	24.1699	61.208	24.1699	59.1712	24.1699	61.6705	24.1699	58.8999	24.1699	62.1123	24.1699	58.6852	24.1699	62.5144	24.1699	58.5258	24.1699	62.8588	24.1699	58.4192	24.1699	63.1291	24.1699	58.3624	24.1699	63.3117	24.1699	58.3526	24.1699	63.3959	24.1699	58.3879	24.1699	63.3755	24.1699	58.4679	24.1699	63.2491	24.1699	58.5931	24.1699	63.0207	24.1699	58.7656	24.1699	62.7003	24.1699	58.9881	24.1699	62.3038	24.1699	59.2638	24.1699	61.8521	24.1699	59.5946	24.1699	61.3698	24.1699	59.9794	24.1699	60.8823	24.1699	60.4127
25.6348	65.0861	25.6348	64.7837	25.6348	65.4177	25.6348	64.5171	25.6348	65.7693	25.6348	64.2904	25.6348	66.129	25.6348	64.1054	25.6348	66.4833	25.6348	63.9624	25.6348	66.8172	25.6348	63.8607	25.6348	67.1156	25.6348	63.7993	25.6348	67.3644	25.6348	63.7774	25.6348	67.5509	25.6348	63.7942	25.6348	67.6653	25.6348	63.85	25.6348	67.701	25.6348	63.945	25.6348	67.6555	25.6348	64.08	25.6348	67.5305	25.6348	64.2555	25.6348	67.3323	25.6348	64.4716	25.6348	67.071	25.6348	64.7273	25.6348	66.7604	25.6348	65.02	25.6348	66.4163	25.6348	65.3447	25.6348	66.0553	25.6348	65.6935
26.3672	66.5287	26.3672	66.2373	26.3672	66.8459	26.3672	65.978	26.3672	67.1801	26.3672	65.7549	26.3672	67.5202	26.3672	65.57	26.3672	67.8533	26.3672	65.4241	26.3672	68.1655	26.3672	65.3167	26.3672	68.4424	26.3672	65.2472	26.3672	68.6702	26.3672	65.2148	26.3672	68.837	26.3672	65.219	26.3672	68.9331	26.3672	65.2596	26.3672	68.9524	26.3672	65.3371	26.3672	68.8925	26.3672	65.452	26.3672	68.7557	26.3672	65.6051	26.3672	68.5485	26.3672	65.7972	26.3672	68.2818	26.3672	66.0283	26.3672	67.97	26.3672	66.2968	26.3672	67.6295	26.3672	66.5995	26.3672	67.2774	26.3672	66.9296
27.0996	67.0991	27.0996	66.8101	27.0996	67.4156	27.0996	66.5553	27.0996	67.7502	27.0996	66.3389	27.0996	68.091	27.0996	66.1629	27.0996	68.4245	27.0996	66.0274	27.0996	68.7359	27.0996	65.9315	27.0996	69.0105	27.0996	65.8736	27.0996	69.2343	27.0996	65.8519	27.0996	69.3953	27.0996	65.8652	27.0996	69.4843	27.0996	65.9123	27.0996	69.4955	27.0996	65.9928	27.0996	69.4278	27.0996	66.1067	27.0996	69.2842	27.0996	66.2543	27.0996	69.0728	27.0996	66.4363	27.0996	68.8055	27.0996	66.6529	27.0996	68.4977	27.0996	66.9038	27.0996	68.1662	27.0996	67.1869	27.0996	67.8279	27.0996	67.4976
27.832	68.504	27.832	68.1999	27.832	68.8315	27.832	67.9267	27.832	69.1727	27.832	67.6894	27.832	69.516	27.832	67.491	27.832	69.8481	27.832	67.3329	27.832	70.1548	27.832	67.215	27.832	70.422	27.832	67.1366	27.832	70.6364	27.832	67.0967	27.832	70.7865	27.832	67.0942	27.832	70.8634	27.832	67.1285	27.832	70.8617	27.832	67.1993	27.832	70.7801	27.832	67.3068	27.832	70.6218	27.832	67.4515	27.832	70.3946	27.832	67.6341	27.832	70.1106	27.832	67.8551	27.832	69.7853	27.832	68.114	27.832	69.436	27.832	68.4085	27.832	69.0801	27.832	68.7335
29.2969	70.9669	29.2969	70.6718	29.2969	71.2802	29.2969	70.4018	29.2969	71.6028	29.2969	70.1619	29.2969	71.9243	29.2969	69.9554	29.2969	72.2327	29.2969	69.7845	29.2969	72.5152	29.2969	69.65	29.2969	72.7589	29.2969	69.5523	29.2969	72.9515	29.2969	69.4917	29.2969	73.0822	29.2969	69.4681	29.2969	73.1427	29.2969	69.4818	29.2969	73.128	29.2969	69.5332	29.2969	73.0367	29.2969	69.6231	29.2969	72.872	29.2969	69.7525	29.2969	72.6413	29.2969	69.9223	29.2969	72.3564	29.2969	70.1328	29.2969	72.0321	29.2969	70.3833	29.2969	71.6852	29.2969	70.6711	29.2969	71.3329	29.2969	70.9907
30.0293	72.1151	30.0293	71.8195	30.0293	72.4268	30.0293	71.5473	30.0293	72.7462	30.0293	71.3035	30.0293	73.0626	30.0293	71.0917	30.0293	73.3644	30.0293	70.9141	30.0293	73.6389	30.0293	70.772	30.0293	73.8734	30.0293	70.666	30.0293	74.056	30.0293	70.5964	30.0293	74.1761	30.0293	70.5634	30.0293	74.2255	30.0293	70.5673	30.0293	74.1995	30.0293	70.6087	30.0293	74.0971	30.0293	70.6885	30.0293	73.9217	30.0293	70.8078	30.0293	73.6811	30.0293	70.9678	30.0293	73.3876	30.0293	71.1694	30.0293	73.0566	30.0293	71.4121	30.0293	72.7053	30.0293	71.694	30.0293	72.3512	30.0293	72.0099
31.4941	74.8228	31.4941	74.5506	31.4941	75.1086	31.4941	74.2982	31.4941	75.4	31.4941	74.0707	31.4941	75.6876	31.4941	73.8715	31.4941	75.9608	31.4941	73.7032	31.4941	76.2083	31.4941	73.5673	31.4941	76.4185	31.4941	73.4649	31.4941	76.5805	31.4941	73.3965	31.4941	76.6847	31.4941	73.3626	31.4941	76.7238	31.4941	73.3635	31.4941	76.6935	31.4941	73.3997	31.4941	76.5932	31.4941	73.4717	31.4941	76.4266	31.4941	73.5802	31.4941	76.2014	31.4941	73.7259	31.4941	75.9293	31.4941	73.909	31.4941	75.6245	31.4941	74.1292	31.4941	75.3031	31.4941	74.3846	31.4941	74.9806	31.4941	74.6709
32.2266	76.1184	32.2266	75.8692	32.2266	76.3819	32.2266	75.64	32.2266	76.6523	32.2266	75.435	32.2266	76.921	32.2266	75.2572	32.2266	77.178	32.2266	75.1086	32.2266	77.4123	32.2266	74.9903	32.2266	77.6129	32.2266	74.9031	32.2266	77.7691	32.2266	74.8473	32.2266	77.8717	32.2266	74.823	32.2266	77.9135	32.2266	74.8305	32.2266	77.8904	32.2266	74.87	32.2266	77.802	32.2266	74.9417	32.2266	77.6518	32.2266	75.0461	32.2266	77.4472	32.2266	75.1835	32.2266	77.1992	32.2266	75.354	32.2266	76.9215	32.2266	75.5572	32.2266	76.6287	32.2266	75.7914	32.2266	76.335	32.2266	76.0528
33.6914	77.9314	33.6914	77.6832	33.6914	78.1922	33.6914	77.4536	33.6914	78.4584	33.6914	77.2469	33.6914	78.7211	33.6914	77.0664	33.6914	78.9702	33.6914	76.914	33.6914	79.1951	33.6914	76.7912	33.6914	79.3846	33.6914	76.6984	33.6914	79.5286	33.6914	76.6361	33.6914	79.6179	33.6914	76.6045	33.6914	79.6459	33.6914	76.6035	33.6914	79.609	33.6914	76.6333	33.6914	79.5071	33.6914	76.6942	33.6914	79.3446	33.6914	76.7867	33.6914	79.1296	33.6914	76.9113	33.6914	78.8739	33.6914	77.0686	33.6914	78.5918	33.6914	77.2589	33.6914	78.2985	33.6914	77.4811	33.6914	78.0081	33.6914	77.7327
34.4238	79.0657	34.4238	78.82	34.4238	79.3232	34.4238	78.5922	34.4238	79.5852	34.4238	78.3867	34.4238	79.8431	34.4238	78.2068	34.4238	80.0869	34.4238	78.0549	34.4238	80.3061	34.4238	77.9321	34.4238	80.4902	34.4238	77.8395	34.4238	80.6288	34.4238	77.7772	34.4238	80.7135	34.4238	77.7455	34.4238	80.7378	34.4238	77.7443	34.4238	80.6982	34.4238	77.7737	34.4238	80.5951	34.4238	77.8338	34.4238	80.4327	34.4238	77.9248	34.4238	80.2196	34.4238	78.047	34.4238	79.9672	34.4238	78.2011	34.4238	79.6899	34.4238	78.387	34.4238	79.4023	34.4238	78.6039	34.4238	79.1183	34.4238	78.8494
35.8887	81.1419	35.8887	80.9003	35.8887	81.3933	35.8887	80.6742	35.8887	81.647	35.8887	80.4684	35.8887	81.8946	35.8887	80.2864	35.8887	82.1268	35.8887	80.1306	35.8887	82.3333	35.8887	80.0029	35.8887	82.504	35.8887	79.9042	35.8887	82.6293	35.8887	79.8353	35.8887	82.7012	35.8887	79.7964	35.8887	82.7138	35.8887	79.7876	35.8887	82.6642	35.8887	79.8091	35.8887	82.5531	35.8887	79.861	35.8887	82.3853	35.8887	79.9435	35.8887	82.1693	35.8887	80.0571	35.8887	81.917	35.8887	80.2021	35.8887	81.6424	35.8887	80.3787	35.8887	81.36	35.8887	80.5863	35.8887	81.0831	35.8887	80.8226
37.3535	83.2553	37.3535	83.0221	37.3535	83.4971	37.3535	82.8031	37.3535	83.7402	37.3535	82.6032	37.3535	83.9765	37.3535	82.4259	37.3535	84.197	37.3535	82.2739	37.3535	84.3921	37.3535	82.1489	37.3535	84.5521	37.3535	82.0523	37.3535	84.6681	37.3535	81.9848	37.3535	84.7325	37.3535	81.9465	37.3535	84.7398	37.3535	81.9377	37.3535	84.6877	37.3535	81.9584	37.3535	84.5772	37.3535	82.0083	37.3535	84.4133	37.3535	82.0875	37.3535	84.2043	37.3535	82.1961	37.3535	83.9621	37.3535	82.3343	37.3535	83.6998	37.3535	82.5019	37.3535	83.4312	37.3535	82.6985	37.3535	83.1687	37.3535	82.9222
38.8184	85.2348	38.8184	85.0074	38.8184	85.4691	38.8184	84.7926	38.8184	85.7032	38.8184	84.5953	38.8184	85.9295	38.8184	84.4191	38.8184	86.1393	38.8184	84.2669	38.8184	86.3233	38.8184	84.141	38.8184	86.4726	38.8184	84.0427	38.8184	86.5788	38.8184	83.9731	38.8184	86.6347	38.8184	83.9326	38.8184	86.6355	38.8184	83.9214	38.8184	86.5792	38.8184	83.9394	38.8184	86.4671	38.8184	83.9864	38.8184	86.3045	38.8184	84.0623	38.8184	86.0996	38.8184	84.1667	38.8184	85.864	38.8184	84.2996	38.8184	85.6104	38.8184	84.4607	38.8184	85.3519	38.8184	84.6493	38.8184	85.0999	38.8184	84.8636
39.5508	86.1432	39.5508	85.9218	39.5508	86.3712	39.5508	85.7128	39.5508	86.599	39.5508	85.5208	39.5508	86.8189	39.5508	85.3496	39.5508	87.0223	39.5508	85.2021	39.5508	87.2003	39.5508	85.0803	39.5508	87.344	39.5508	84.9857	39.5508	87.4452	39.5508	84.919	39.5508	87.4971	39.5508	84.8806	39.5508	87.495	39.5508	84.8707	39.5508	87.4373	39.5508	84.8889	39.5508	87.3255	39.5508	84.9348	39.5508	87.165	39.5508	85.0081	39.5508	86.9644	39.5508	85.1084	39.5508	86.7351	39.5508	85.2355	39.5508	86.4896	39.5508	85.3891	39.5508	86.2405	39.5508	85.5688	39.5508	85.9989	39.5508	85.7731
41.0156	87.8494	41.0156	87.6249	41.0156	88.0789	41.0156	87.4117	41.0156	88.3067	41.0156	87.2146	41.0156	88.5249	41.0156	87.038	41.0156	88.725	41.0156	86.8849	41.0156	88.8983	41.0156	86.7578	41.0156	89.0362	41.0156	86.6585	41.0156	89.1309	41.0156	86.5881	41.0156	89.1759	41.0156	86.5469	41.0156	89.167	41.0156	86.5352	41.0156	89.103	41.0156	86.5525	41.0156	88.9859	41.0156	86.5982	41.0156	88.8214	41.0156	86.6716	41.0156	88.6183	41.0156	86.7721	41.0156	88.388	41.0156	86.8991	41.0156	88.1431	41.0156	87.0521	41.0156	87.8957	41.0156	87.2305	41.0156	87.6563	41.0156	87.4328
42.4805	89.4274	42.4805	89.2073	42.4805	89.6501	42.4805	88.9957	42.4805	89.8688	42.4805	88.7978	42.4805	90.0757	42.4805	88.6177	42.4805	90.2629	42.4805	88.459	42.4805	90.4221	42.4805	88.3243	42.4805	90.545	42.4805	88.2157	42.4805	90.6243	42.4805	88.1346	42.4805	90.654	42.4805	88.0818	42.4805	90.6304	42.4805	88.0577	42.4805	90.5526	42.4805	88.0621	42.4805	90.4233	42.4805	88.0947	42.4805	90.2485	42.4805	88.155	42.4805	90.0376	42.4805	88.2424	42.4805	89.8024	42.4805	88.3567	42.4805	89.5556	42.4805	88.4977	42.4805	89.3096	42.4805	88.6652	42.4805	89.0746	42.4805	88.8583
43.9453	90.8585	43.9453	90.6457	43.9453	91.0735	43.9453	90.4406	43.9453	91.2839	43.9453	90.2483	43.9453	91.4827	43.9453	90.073	43.9453	91.662	43.9453	89.9181	43.9453	91.8139	43.9453	89.7864	43.9453	91.9305	43.9453	89.6798	43.9453	92.0048	43.9453	89.5999	43.9453	92.0313	43.9453	89.5475	43.9453	92.0066	43.9453	89.5232	43.9453	91.93	43.9453	89.5267	43.9453	91.8041	43.9453	89.5579	43.9453	91.635	43.9453	89.6161	43.9453	91.4316	43.9453	89.701	43.9453	91.2053	43.9453	89.8119	43.9453	90.9681	43.9453	89.9487	43.9453	90.7317	43.9453	90.1108	43.9453	90.5057	43.9453	90.2972
45.4102	91.9552	45.4102	91.7487	45.4102	92.1632	45.4102	91.5493	45.4102	92.3662	45.4102	91.3619	45.4102	92.5571	45.4102	91.1908	45.4102	92.7283	45.4102	91.0394	45.4102	92.8721	45.4102	90.9105	45.4102	92.9811	45.4102	90.8061	45.4102	93.0484	45.4102	90.7276	45.4102	93.0691	45.4102	90.6761	45.4102	93.04	45.4102	90.6518	45.4102	92.9609	45.4102	90.6545	45.4102	92.8349	45.4102	90.6839	45.4102	92.668	45.4102	90.7393	45.4102	92.4696	45.4102	90.8199	45.4102	92.2505	45.4102	90.9252	45.4102	92.0227	45.4102	91.0547	45.4102	91.7968	45.4102	91.2081	45.4102	91.582	45.4102	91.3845
47.6074	93.129	47.6074	92.9277	47.6074	93.3306	47.6074	92.7327	47.6074	93.5263	47.6074	92.5488	47.6074	93.709	47.6074	92.3805	47.6074	93.8713	47.6074	92.2314	47.6074	94.0059	47.6074	92.1041	47.6074	94.1056	47.6074	92.0011	47.6074	94.1643	47.6074	91.9236	47.6074	94.1772	47.6074	91.8726	47.6074	94.142	47.6074	91.8482	47.6074	94.0588	47.6074	91.8502	47.6074	93.9311	47.6074	91.8779	47.6074	93.7655	47.6074	91.9303	47.6074	93.5713	47.6074	92.0066	47.6074	93.3593	47.6074	92.1059	47.6074	93.1408	47.6074	92.2278	47.6074	92.9261	47.6074	92.3717	47.6074	92.7231	47.6074	92.5373
49.0723	93.6665	49.0723	93.4662	49.0723	93.8667	49.0723	93.2716	49.0723	94.0602	49.0723	93.0878	49.0723	94.2402	49.0723	92.9193	49.0723	94.3995	49.0723	92.7699	49.0723	94.5307	49.0723	92.6426	49.0723	94.627	49.0723	92.5397	49.0723	94.6824	49.0723	92.4628	49.0723	94.6927	49.0723	92.4126	49.0723	94.6555	49.0723	92.3894	49.0723	94.5715	49.0723	92.3929	49.0723	94.4442	49.0723	92.4221	49.0723	94.2804	49.0723	92.4759	49.0723	94.0892	49.0723	92.5531	49.0723	93.8814	49.0723	92.6526	49.0723	93.6678	49.0723	92.7737	49.0723	93.4582	49.0723	92.9158	49.0723	93.26	49.0723	93.0783
50.5371	94.0942	50.5371	93.8949	50.5371	94.2927	50.5371	93.7005	50.5371	94.4838	50.5371	93.5164	50.5371	94.6608	50.5371	93.3472	50.5371	94.8164	50.5371	93.1968	50.5371	94.9437	50.5371	93.0686	50.5371	95.036	50.5371	92.9648	50.5371	95.0877	50.5371	92.8874	50.5371	95.0947	50.5371	92.8372	50.5371	95.0553	50.5371	92.8145	50.5371	94.9701	50.5371	92.8188	50.5371	94.8431	50.5371	92.8491	50.5371	94.6809	50.5371	92.904	50.5371	94.4927	50.5371	92.9822	50.5371	94.289	50.5371	93.0822	50.5371	94.0802	50.5371	93.2029	50.5371	93.8755	50.5371	93.3437	50.5371	93.6818	50.5371	93.5037
52.7344	94.5407	52.7344	94.3462	52.7344	94.7331	52.7344	94.1554	52.7344	94.9169	52.7344	93.9735	52.7344	95.0856	52.7344	93.8054	52.7344	95.2322	52.7344	93.6552	52.7344	95.3501	52.7344	93.5262	52.7344	95.433	52.7344	93.4212	52.7344	95.4759	52.7344	93.3421	52.7344	95.4752	52.7344	93.29	52.7344	95.4295	52.7344	93.2651	52.7344	95.3402	52.7344	93.2671	52.7344	95.2115	52.7344	93.2949	52.7344	95.0505	52.7344	93.3471	52.7344	94.8661	52.7344	93.4218	52.7344	94.6687	52.7344	93.5175	52.7344	94.468	52.7344	93.6329	52.7344	94.2724	52.7344	93.7669	52.7344	94.0882	52.7344	93.919
54.1992	94.7552	54.1992	94.5653	54.1992	94.9425	54.1992	94.3787	54.1992	95.1209	54.1992	94.2007	54.1992	95.2839	54.1992	94.036	54.1992	95.4247	54.1992	93.8889	54.1992	95.5369	54.1992	93.7626	54.1992	95.6144	54.1992	93.66	54.1992	95.6525	54.1992	93.5829	54.1992	95.6478	54.1992	93.5324	54.1992	95.5994	54.1992	93.5086	54.1992	95.509	54.1992	93.5111	54.1992	95.381	54.1992	93.5386	54.1992	95.2227	54.1992	93.5895	54.1992	95.0432	54.1992	93.6619	54.1992	94.8523	54.1992	93.7541	54.1992	94.6596	54.1992	93.8645	54.1992	94.4728	54.1992	93.9922	54.1992	94.2975	54.1992	94.1368
56.3965	94.9982	56.3965	94.8114	56.3965	95.1818	56.3965	94.6273	56.3965	95.3561	56.3965	94.4515	56.3965	95.5144	56.3965	94.2888	56.3965	95.6502	56.3965	94.1435	56.3965	95.7571	56.3965	94.0191	56.3965	95.8296	56.3965	93.9184	56.3965	95.863	56.3965	93.8432	56.3965	95.8546	56.3965	93.7947	56.3965	95.8036	56.3965	93.7728	56.3965	95.7122	56.3965	93.777	56.3965	95.5852	56.3965	93.8058	56.3965	95.4299	56.3965	93.8572	56.3965	95.2554	56.3965	93.9292	56.3965	95.0712	56.3965	94.0196	56.3965	94.8865	56.3965	94.1268	56.3965	94.7083	56.3965	94.2498	56.3965	94.5413	56.3965	94.3881
58.5938	95.1571	58.5938	94.9745	58.5938	95.336	58.5938	94.7943	58.5938	95.5049	58.5938	94.6218	58.5938	95.6574	58.5938	94.4623	58.5938	95.7871	58.5938	94.32	58.5938	95.8878	58.5938	94.1986	58.5938	95.9543	58.5938	94.1012	58.5938	95.9825	58.5938	94.0294	58.5938	95.9699	58.5938	93.9845	58.5938	95.9166	58.5938	93.9663	58.5938	95.8251	58.5938	93.974	58.5938	95.7006	58.5938	94.0058	58.5938	95.5506	58.5938	94.0594	58.5938	95.3843	58.5938	94.1321	58.5938	95.2107	58.5938	94.2216	58.5938	95.0379	58.5938	94.3258	58.5938	94.8721	58.5938	94.4434	58.5938	94.7168	58.5938	94.5738
60.0586	95.2299	60.0586	95.0474	60.0586	95.4077	60.0586	94.8663	60.0586	95.5744	60.0586	94.6923	60.0586	95.7236	60.0586	94.5306	60.0586	95.8488	60.0586	94.3858	60.0586	95.9442	60.0586	94.2618	60.0586	96.0044	60.0586	94.1616	60.0586	96.0257	60.0586	94.0872	60.0586	96.0059	60.0586	94.0397	60.0586	95.9455	60.0586	94.0191	60.0586	95.8473	60.0586	94.0244	60.0586	95.7172	60.0586	94.0536	60.0586	95.5631	60.0586	94.1044	60.0586	95.3944	60.0586	94.174	60.0586	95.2204	60.0586	94.2598	60.0586	95.0492	60.0586	94.3596	60.0586	94.8866	60.0586	94.4723	60.0586	94.7357	60.0586	94.5976
62.2559	95.3648	62.2559	95.1806	62.2559	95.543	62.2559	94.9969	62.2559	95.7091	62.2559	94.8193	62.2559	95.8564	62.2559	94.6535	62.2559	95.9787	62.2559	94.5042	62.2559	96.0702	62.2559	94.3755	62.2559	96.1258	62.2559	94.2709	62.2559	96.142	62.2559	94.1925	62.2559	96.1169	62.2559	94.1416	62.2559	96.0512	62.2559	94.1183	62.2559	95.9482	62.2559	94.1215	62.2559	95.8138	62.2559	94.1494	62.2559	95.6564	62.2559	94.1992	62.2559	95.4853	62.2559	94.2682	62.2559	95.31	62.2559	94.3534	62.2559	95.1384	62.2559	94.4526	62.2559	94.9761	62.2559	94.5646	62.2559	94.826	62.2559	94.6889
64.4531	95.4271	64.4531	95.2429	64.4531	95.6041	64.4531	95.058	64.4531	95.7678	64.4531	94.8781	64.4531	95.9117	64.4531	94.7091	64.4531	96.0296	64.4531	94.5558	64.4531	96.116	64.4531	94.4228	64.4531	96.1661	64.4531	94.3136	64.4531	96.1765	64.4531	94.2309	64.4531	96.1459	64.4531	94.176	64.4531	96.075	64.4531	94.1493	64.4531	95.9676	64.4531	94.1499	64.4531	95.8298	64.4531	94.1757	64.4531	95.6701	64.4531	94.224	64.4531	95.4981	64.4531	94.2919	64.4531	95.323	64.4531	94.3761	64.4531	95.1525	64.4531	94.4744	64.4531	94.9918	64.4531	94.5852	64.4531	94.8435	64.4531	94.7081
66.6504	95.4946	66.6504	95.312	66.6504	95.6691	66.6504	95.1274	66.6504	95.8291	66.6504	94.9469	66.6504	95.9686	66.6504	94.776	66.6504	96.0815	66.6504	94.6199	66.6504	96.1623	66.6504	94.4833	66.6504	96.2066	66.6504	94.3698	66.6504	96.2113	66.6504	94.2824	66.6504	96.1752	66.6504	94.2227	66.6504	96.0995	66.6504	94.1913	66.6504	95.9881	66.6504	94.1875	66.6504	95.8475	66.6504	94.2095	66.6504	95.6862	66.6504	94.2546	66.6504	95.5136	66.6504	94.3198	66.6504	95.3389	66.6504	94.402	66.6504	95.1695	66.6504	94.4986	66.6504	95.0103	66.6504	94.608	66.6504	94.8635	66.6504	94.7295
69.5801	95.4752	69.5801	95.2939	69.5801	95.6473	69.5801	95.1096	69.5801	95.804	69.5801	94.9284	69.5801	95.9392	69.5801	94.7559	69.5801	96.047	69.5801	94.5974	69.5801	96.1224	69.5801	94.4577	69.5801	96.161	69.5801	94.3408	69.5801	96.1602	69.5801	94.2498	69.5801	96.1192	69.5801	94.1867	69.5801	96.0396	69.5801	94.1522	69.5801	95.9258	69.5801	94.1459	69.5801	95.7844	69.5801	94.1661	69.5801	95.624	69.5801	94.2102	69.5801	95.4539	69.5801	94.2751	69.5801	95.2826	69.5801	94.3575	69.5801	95.117	69.5801	94.4545	69.5801	94.9613	69.5801	94.5639	69.5801	94.8171	69.5801	94.6848
71.7773	95.5169	71.7773	95.3396	71.7773	95.6848	71.7773	95.159	71.7773	95.8368	71.7773	94.9812	71.7773	95.967	71.7773	94.812	71.7773	96.0695	71.7773	94.6568	71.7773	96.1393	71.7773	94.5203	71.7773	96.1724	71.7773	94.4066	71.7773	96.1665	71.7773	94.3187	71.7773	96.1212	71.7773	94.2584	71.7773	96.0386	71.7773	94.2263	71.7773	95.9234	71.7773	94.2218	71.7773	95.7829	71.7773	94.243	71.7773	95.6259	71.7773	94.2872	71.7773	95.4617	71.7773	94.3509	71.7773	95.2985	71.7773	94.4305	71.7773	95.1424	71.7773	94.5231	71.7773	94.9968	71.7773	94.6265	71.7773	94.8628	71.7773	94.7396
73.9746	95.5765	73.9746	95.4029	73.9746	95.7403	73.9746	95.2259	73.9746	95.8882	73.9746	95.0518	73.9746	96.014	73.9746	94.8865	73.9746	96.1119	73.9746	94.7354	73.9746	96.1772	73.9746	94.6035	73.9746	96.2061	73.9746	94.4947	73.9746	96.1964	73.9746	94.412	73.9746	96.1482	73.9746	94.3571	73.9746	96.064	73.9746	94.3303	73.9746	95.9492	73.9746	94.3306	73.9746	95.8113	73.9746	94.3556	73.9746	95.6593	73.9746	94.4022	73.9746	95.5025	73.9746	94.4666	73.9746	95.3489	73.9746	94.5447	73.9746	95.204	73.9746	94.6334	73.9746	95.0703	73.9746	94.7304	73.9746	94.9477	73.9746	94.835
76.9043	95.5691	76.9043	95.396	76.9043	95.7322	76.9043	95.2193	76.9043	95.8789	76.9043	95.0455	76.9043	96.0031	76.9043	94.8807	76.9043	96.0991	76.9043	94.7306	76.9043	96.1623	76.9043	94.6001	76.9043	96.1889	76.9043	94.4934	76.9043	96.1772	76.9043	94.4135	76.9043	96.1276	76.9043	94.3619	76.9043	96.043	76.9043	94.3389	76.9043	95.9289	76.9043	94.3432	76.9043	95.793	76.9043	94.372	76.9043	95.6447	76.9043	94.4219	76.9043	95.4929	76.9043	94.4887	76.9043	95.3453	76.9043	94.5682	76.9043	95.2068	76.9043	94.6568	76.9043	95.0793	76.9043	94.7523	76.9043	94.9623	76.9043	94.8539
79.834	95.6046	79.834	95.4284	79.834	95.7691	79.834	95.2471	79.834	95.9151	79.834	95.0676	79.834	96.0368	79.834	94.8966	79.834	96.1285	79.834	94.7402	79.834	96.1859	79.834	94.6044	79.834	96.2059	79.834	94.4938	79.834	96.1871	79.834	94.4118	79.834	96.1307	79.834	94.3604	79.834	96.0405	79.834	94.3399	79.834	95.9228	79.834	94.3486	79.834	95.786	79.834	94.3835	79.834	95.6396	79.834	94.4402	79.834	95.4928	79.834	94.5137	79.834	95.3525	79.834	94.599	79.834	95.2224	79.834	94.6916	79.834	95.1031	79.834	94.7886	79.834	94.9928	79.834	94.8887
82.7637	95.7295	82.7637	95.5574	82.7637	95.887	82.7637	95.3773	82.7637	96.0237	82.7637	95.1958	82.7637	96.1335	82.7637	95.0196	82.7637	96.2113	82.7637	94.8551	82.7637	96.2527	82.7637	94.7082	82.7637	96.2549	82.7637	94.584	82.7637	96.2168	82.7637	94.4867	82.7637	96.14	82.7637	94.4188	82.7637	96.0288	82.7637	94.3812	82.7637	95.8906	82.7637	94.3731	82.7637	95.7349	82.7637	94.3917	82.7637	95.5727	82.7637	94.4329	82.7637	95.4139	82.7637	94.4919	82.7637	95.2665	82.7637	94.5634	82.7637	95.1342	82.7637	94.6432	82.7637	95.0173	82.7637	94.7283	82.7637	94.9131	82.7637	94.8178
85.6934	95.6271	85.6934	95.4545	85.6934	95.7874	85.6934	95.276	85.6934	95.9289	85.6934	95.0983	85.6934	96.0455	85.6934	94.9276	85.6934	96.1316	85.6934	94.7699	85.6934	96.1828	85.6934	94.6305	85.6934	96.1957	85.6934	94.5139	85.6934	96.169	85.6934	94.4235	85.6934	96.1036	85.6934	94.3613	85.6934	96.0033	85.6934	94.3279	85.6934	95.8745	85.6934	94.3221	85.6934	95.7259	85.6934	94.3415	85.6934	95.5675	85.6934	94.3827	85.6934	95.409	85.6934	94.4414	85.6934	95.2582	85.6934	94.5133	85.6934	95.1196	85.6934	94.5949	85.6934	94.9946	85.6934	94.6837	85.6934	94.882	85.6934	94.7791
88.623	95.6135	88.623	95.4385	88.623	95.7763	88.623	95.258	88.623	95.9199	88.623	95.0793	88.623	96.0383	88.623	94.9094	88.623	96.1263	88.623	94.7549	88.623	96.1795	88.623	94.6219	88.623	96.1954	88.623	94.5153	88.623	96.1734	88.623	94.4387	88.623	96.1154	88.623	94.3939	88.623	96.0259	88.623	94.3808	88.623	95.9119	88.623	94.3977	88.623	95.7824	88.623	94.4409	88.623	95.6467	88.623	94.5055	88.623	95.5131	88.623	94.5858	88.623	95.3873	88.623	94.6764	88.623	95.2714	88.623	94.772	88.623	95.1647	88.623	94.8693	88.623	95.0642	88.623	94.9666
91.5527	95.5457	91.5527	95.3703	91.5527	95.707	91.5527	95.1881	91.5527	95.8473	91.5527	95.0068	91.5527	95.9605	91.5527	94.8341	91.5527	96.0414	91.5527	94.6772	91.5527	96.0862	91.5527	94.543	91.5527	96.0929	91.5527	94.4368	91.5527	96.0618	91.5527	94.3628	91.5527	95.9957	91.5527	94.3229	91.5527	95.9003	91.5527	94.3167	91.5527	95.7841	91.5527	94.342	91.5527	95.6567	91.5527	94.3943	91.5527	95.5282	91.5527	94.4676	91.5527	95.4063	91.5527	94.5554	91.5527	95.2958	91.5527	94.6509	91.5527	95.1969	91.5527	94.7483	91.5527	95.1068	91.5527	94.8433	91.5527	95.0207	91.5527	94.9339
94.4824	95.6769	94.4824	95.4966	94.4824	95.8385	94.4824	95.3053	94.4824	95.9747	94.4824	95.1108	94.4824	96.0794	94.4824	94.9217	94.4824	96.1478	94.4824	94.7463	94.4824	96.1764	94.4824	94.5925	94.4824	96.1636	94.4824	94.4672	94.4824	96.1105	94.4824	94.376	94.4824	96.0209	94.4824	94.3218	94.4824	95.9019	94.4824	94.3051	94.4824	95.7634	94.4824	94.3236	94.4824	95.6172	94.4824	94.3724	94.4824	95.4748	94.4824	94.4446	94.4824	95.3452	94.4824	94.5322	94.4824	95.2331	94.4824	94.6273	94.4824	95.1378	94.4824	94.7228	94.4824	95.0547	94.4824	94.8139	94.4824	94.977	94.4824	94.8982
98.1445	95.8098	98.1445	95.6351	98.1445	95.9655	98.1445	95.4483	98.1445	96.0957	98.1445	95.2568	98.1445	96.1945	98.1445	95.0679	98.1445	96.257	98.1445	94.8892	98.1445	96.2794	98.1445	94.7277	98.1445	96.2599	98.1445	94.5899	98.1445	96.199	98.1445	94.4811	98.1445	96.1001	98.1445	94.4049	98.1445	95.9698	98.1445	94.3629	98.1445	95.8175	98.1445	94.3542	98.1445	95.655	98.1445	94.3757	98.1445	95.4938	98.1445	94.4224	98.1445	95.344	98.1445	94.4881	98.1445	95.2112	98.1445	94.566	98.1445	95.0965	98.1445	94.65	98.1445	94.9969	98.1445	94.7357	98.1445	94.9068	98.1445	94.821
101.807	95.792	101.807	95.6183	101.807	95.9461	101.807	95.432	101.807	96.0736	101.807	95.241	101.807	96.1686	101.807	95.0533	101.807	96.2263	101.807	94.8767	101.807	96.2432	101.807	94.7189	101.807	96.218	101.807	94.5866	101.807	96.1518	101.807	94.4852	101.807	96.049	101.807	94.4183	101.807	95.9171	101.807	94.3869	101.807	95.767	101.807	94.3896	101.807	95.6109	101.807	94.4223	101.807	95.4609	101.807	94.4791	101.807	95.3263	101.807	94.5529	101.807	95.2115	101.807	94.6361	101.807	95.1157	101.807	94.7219	101.807	95.0338	101.807	94.8053	101.807	94.9587	101.807	94.8839
105.469	95.8646	105.469	95.6909	105.469	96.0178	105.469	95.5043	105.469	96.1434	105.469	95.3127	105.469	96.2352	105.469	95.1245	105.469	96.2883	105.469	94.9479	105.469	96.2992	105.469	94.7906	105.469	96.2664	105.469	94.6595	105.469	96.1915	105.469	94.5601	105.469	96.0791	105.469	94.4957	105.469	95.9379	105.469	94.4669	105.469	95.7794	105.469	94.472	105.469	95.6174	105.469	94.5064	105.469	95.465	105.469	94.5637	105.469	95.3321	105.469	94.6362	105.469	95.2232	105.469	94.716	105.469	95.1367	105.469	94.7961	105.469	95.0661	105.469	94.8714	105.469	95.0032	105.469	94.94
109.131	95.9156	109.131	95.7355	109.131	96.0745	109.131	95.5423	109.131	96.2052	109.131	95.3443	109.131	96.3011	109.131	95.1504	109.131	96.3574	109.131	94.9693	109.131	96.3704	109.131	94.8092	109.131	96.339	109.131	94.6777	109.131	96.2649	109.131	94.5804	109.131	96.1533	109.131	94.5207	109.131	96.013	109.131	94.4992	109.131	95.8562	109.131	94.5136	109.131	95.6969	109.131	94.5587	109.131	95.5483	109.131	94.6272	109.131	95.4203	109.131	94.7106	109.131	95.3167	109.131	94.8003	109.131	95.2349	109.131	94.8886	109.131	95.1679	109.131	94.9701	109.131	95.1064	109.131	95.0422
112.793	95.997	112.793	95.815	112.793	96.1564	112.793	95.6186	112.793	96.2861	112.793	95.4165	112.793	96.3798	112.793	95.2176	112.793	96.4323	112.793	95.0313	112.793	96.4406	112.793	94.8664	112.793	96.4035	112.793	94.7309	112.793	96.3233	112.793	94.6309	112.793	96.2057	112.793	94.5702	112.793	96.0603	112.793	94.5497	112.793	95.9	112.793	94.5668	112.793	95.7395	112.793	94.616	112.793	95.5925	112.793	94.6893	112.793	95.4686	112.793	94.7777	112.793	95.3708	112.793	94.8717	112.793	95.2958	112.793	94.9631	112.793	95.235	112.793	95.0458	112.793	95.1784	112.793	95.1172
116.455	96.0121	116.455	95.8272	116.455	96.1732	116.455	95.6269	116.455	96.3028	116.455	95.4202	116.455	96.3946	116.455	95.2166	116.455	96.4434	116.455	95.026	116.455	96.4464	116.455	94.8578	116.455	96.4027	116.455	94.7203	116.455	96.3153	116.455	94.6203	116.455	96.1908	116.455	94.5617	116.455	96.0399	116.455	94.5452	116.455	95.8769	116.455	94.5682	116.455	95.7175	116.455	94.6246	116.455	95.5759	116.455	94.7059	116.455	95.4611	116.455	94.8021	116.455	95.3749	116.455	94.9031	116.455	95.3119	116.455	94.9997	116.455	95.2618	116.455	95.0851	116.455	95.213	116.455	95.1559
120.85	96.114	120.85	95.9273	120.85	96.2734	120.85	95.722	120.85	96.3975	120.85	95.5079	120.85	96.4797	120.85	95.2953	120.85	96.515	120.85	95.0952	120.85	96.5001	120.85	94.9179	120.85	96.435	120.85	94.773	120.85	96.3227	120.85	94.668	120.85	96.1713	120.85	94.6071	120.85	95.9933	120.85	94.5911	120.85	95.8056	120.85	94.6163	120.85	95.6273	120.85	94.6754	120.85	95.4754	120.85	94.7584	120.85	95.3609	120.85	94.8539	120.85	95.2855	120.85	94.9502	120.85	95.2416	120.85	95.0373	120.85	95.2155	120.85	95.1079	120.85	95.1921	120.85	95.1588
125.244	96.1992	125.244	96.0076	125.244	96.3624	125.244	95.7961	125.244	96.4894	125.244	95.5742	125.244	96.5736	125.244	95.352	125.244	96.6099	125.244	95.1405	125.244	96.5948	125.244	94.9504	125.244	96.5273	125.244	94.7918	125.244	96.41	125.244	94.6729	125.244	96.2496	125.244	94.5989	125.244	96.058	125.244	94.5708	125.244	95.8518	125.244	94.5854	125.244	95.6506	125.244	94.6352	125.244	95.4731	125.244	94.7099	125.244	95.3331	125.244	94.7975	125.244	95.2351	125.244	94.8862	125.244	95.1741	125.244	94.966	125.244	95.1374	125.244	95.0303	125.244	95.1097	125.244	95.0771
129.639	96.1145	129.639	95.9222	129.639	96.2788	129.639	95.7104	129.639	96.4076	129.639	95.4884	129.639	96.4943	129.639	95.2662	129.639	96.5339	129.639	95.0546	129.639	96.5231	129.639	94.8642	129.639	96.4609	129.639	94.7053	129.639	96.35	129.639	94.5861	129.639	96.1971	129.639	94.5119	129.639	96.0138	129.639	94.4841	129.639	95.816	129.639	94.4996	129.639	95.622	129.639	94.5509	129.639	95.4497	129.639	94.6279	129.639	95.3114	129.639	94.7186	129.639	95.2115	129.639	94.8114	129.639	95.145	129.639	94.8966	129.639	95.1005	129.639	94.9675	129.639	95.0637	129.639	95.0222
134.033	96.0864	134.033	95.8858	134.033	96.258	134.033	95.6652	134.033	96.3927	134.033	95.4348	134.033	96.4838	134.033	95.2052	134.033	96.526	134.033	94.988	134.033	96.5161	134.033	94.7947	134.033	96.4539	134.033	94.6357	134.033	96.3424	134.033	94.5198	134.033	96.1894	134.033	94.4522	134.033	96.0076	134.033	94.4338	134.033	95.8138	134.033	94.4608	134.033	95.627	134.033	94.5252	134.033	95.4646	134.033	94.6159	134.033	95.3379	134.033	94.7205	134.033	95.249	134.033	94.8268	134.033	95.191	134.033	94.9243	134.033	95.151	134.033	95.0058	134.033	95.1142	134.033	95.0683
138.428	96.056	138.428	95.8472	138.428	96.2343	138.428	95.6174	138.428	96.3736	138.428	95.3777	138.428	96.467	138.428	95.1401	138.428	96.5096	138.428	94.9173	138.428	96.4985	138.428	94.7223	138.428	96.434	138.428	94.5669	138.428	96.3205	138.428	94.4605	138.428	96.167	138.428	94.4084	138.428	95.9878	138.428	94.4107	138.428	95.8017	138.428	94.4622	138.428	95.6286	138.428	94.5529	138.428	95.4858	138.428	94.6698	138.428	95.383	138.428	94.7986	138.428	95.3194	138.428	94.9255	138.428	95.2846	138.428	95.0388	138.428	95.2629	138.428	95.1302	138.428	95.2377	138.428	95.196
143.555	96.0915	143.555	95.8717	143.555	96.2759	143.555	95.6263	143.555	96.4166	143.555	95.367	143.555	96.5066	143.555	95.1067	143.555	96.5409	143.555	94.8597	143.555	96.5169	143.555	94.6412	143.555	96.435	143.555	94.4652	143.555	96.2998	143.555	94.3435	143.555	96.1215	143.555	94.283	143.555	95.9159	143.555	94.2845	143.555	95.7044	143.555	94.3417	143.555	95.5101	143.555	94.4428	143.555	95.3536	143.555	94.5721	143.555	95.2462	143.555	94.7126	143.555	95.1871	143.555	94.8483	143.555	95.1636	143.555	94.9659	143.555	95.1564	143.555	95.0562	143.555	95.1456	143.555	95.1153
148.682	96.1087	148.682	95.8853	148.682	96.2926	148.682	95.6319	148.682	96.4292	148.682	95.3597	148.682	96.5118	148.682	95.0818	148.682	96.5359	148.682	94.8131	148.682	96.499	148.682	94.5699	148.682	96.4018	148.682	94.3683	148.682	96.2495	148.682	94.2226	148.682	96.0527	148.682	94.1422	148.682	95.8284	148.682	94.1294	148.682	95.5991	148.682	94.1789	148.682	95.3899	148.682	94.2782	148.682	95.2223	148.682	94.4102	148.682	95.1086	148.682	94.5561	148.682	95.0471	148.682	94.6981	148.682	95.0241	148.682	94.8215	148.682	95.0184	148.682	94.9162	148.682	95.0085	148.682	94.9777
153.809	96.2043	153.809	95.9804	153.809	96.3861	153.809	95.7235	153.809	96.5181	153.809	95.4443	153.809	96.5938	153.809	95.1552	153.809	96.6085	153.809	94.8707	153.809	96.5591	153.809	94.6069	153.809	96.4461	153.809	94.3805	153.809	96.274	153.809	94.207	153.809	96.0533	153.809	94.0977	153.809	95.8013	153.809	94.0573	153.809	95.5415	153.809	94.0823	153.809	95.3011	153.809	94.1614	153.809	95.1047	153.809	94.2777	153.809	94.9672	153.809	94.4118	153.809	94.8889	153.809	94.545	153.809	94.856	153.809	94.6617	153.809	94.8463	153.809	94.751	153.809	94.8365	153.809	94.8084
159.668	96.2729	159.668	96.0399	159.668	96.4631	159.668	95.773	159.668	96.6032	159.668	95.4829	159.668	96.6869	159.668	95.182	159.668	96.7097	159.668	94.8854	159.668	96.669	159.668	94.6102	159.668	96.565	159.668	94.3745	159.668	96.4027	159.668	94.1954	159.668	96.1921	159.668	94.0855	159.668	95.9503	159.668	94.05	159.668	95.7	159.668	94.0851	159.668	95.4673	159.668	94.1783	159.668	95.2756	159.668	94.3111	159.668	95.1386	159.668	94.4628	159.668	95.0562	159.668	94.6137	159.668	95.0149	159.668	94.7476	159.668	94.9936	159.668	94.8535	159.668	94.9701	159.668	94.9268
164.795	96.2628	164.795	96.0359	164.795	96.447	164.795	95.7753	164.795	96.5813	164.795	95.491	164.795	96.6594	164.795	95.195	164.795	96.6767	164.795	94.9016	164.795	96.6307	164.795	94.627	164.795	96.5223	164.795	94.3889	164.795	96.3569	164.795	94.2043	164.795	96.1458	164.795	94.0865	164.795	95.907	164.795	94.0425	164.795	95.6643	164.795	94.0701	164.795	95.4439	164.795	94.1586	164.795	95.2678	164.795	94.2908	164.795	95.1472	164.795	94.446	164.795	95.0788	164.795	94.6043	164.795	95.0464	164.795	94.7482	164.795	95.0276	164.795	94.8654	164.795	95.0006	164.795	94.9494
170.654	96.1146	170.654	95.888	170.654	96.2972	170.654	95.6269	170.654	96.4278	170.654	95.3425	170.654	96.4998	170.654	95.048	170.654	96.5084	170.654	94.7591	170.654	96.4511	170.654	94.4936	170.654	96.3293	170.654	94.2704	170.654	96.1493	170.654	94.107	170.654	95.9243	170.654	94.0163	170.654	95.6755	170.654	94.0032	170.654	95.4306	170.654	94.063	170.654	95.2197	170.654	94.1817	170.654	95.0672	170.654	94.339	170.654	94.9835	170.654	94.5123	170.654	94.9608	170.654	94.68	170.654	94.9772	170.654	94.824	170.654	95.0044	170.654	94.9314	170.654	95.0166	170.654	94.9953
176.514	95.9831	176.514	95.7416	176.514	96.1768	176.514	95.4623	176.514	96.3146	176.514	95.1571	176.514	96.3895	176.514	94.8404	176.514	96.3965	176.514	94.5296	176.514	96.333	176.514	94.245	176.514	96.1999	176.514	94.0078	176.514	96.0035	176.514	93.8381	176.514	95.7575	176.514	93.75	176.514	95.4844	176.514	93.7479	176.514	95.2144	176.514	93.8248	176.514	94.9816	176.514	93.9632	176.514	94.8145	176.514	94.1394	176.514	94.7263	176.514	94.3277	176.514	94.7095	176.514	94.5047	176.514	94.7395	176.514	94.6513	176.514	94.7844	176.514	94.7545	176.514	94.8144	176.514	94.8083
183.105	95.9547	183.105	95.6979	183.105	96.1586	183.105	95.3965	183.105	96.3026	183.105	95.0612	183.105	96.3811	183.105	94.706	183.105	96.3902	183.105	94.3491	183.105	96.328	183.105	94.0132	183.105	96.1958	183.105	93.7247	183.105	96.0001	183.105	93.5101	183.105	95.7542	183.105	93.3904	183.105	95.4797	183.105	93.3745	183.105	95.2057	183.105	93.4559	183.105	94.9648	183.105	93.614	183.105	94.7845	183.105	93.8194	183.105	94.6782	183.105	94.041	183.105	94.6396	183.105	94.2513	183.105	94.6458	183.105	94.4292	183.105	94.6663	183.105	94.5609	183.105	94.6718	183.105	94.6408
189.697	95.8797	189.697	95.6457	189.697	96.0588	189.697	95.3643	189.697	96.1766	189.697	95.0448	189.697	96.2278	189.697	94.6989	189.697	96.2084	189.697	94.3422	189.697	96.1173	189.697	93.9948	189.697	95.9568	189.697	93.6817	189.697	95.7355	189.697	93.4306	189.697	95.47	189.697	93.2666	189.697	95.186	189.697	93.2061	189.697	94.9168	189.697	93.2503	189.697	94.6967	189.697	93.3845	189.697	94.5508	189.697	93.5816	189.697	94.485	189.697	93.8094	189.697	94.4833	189.697	94.0369	189.697	94.515	189.697	94.2386	189.697	94.5457	189.697	94.3963	189.697	94.5467	189.697	94.4996
196.289	95.8604	196.289	95.6345	196.289	96.0286	196.289	95.359	196.289	96.1315	196.289	95.0441	196.289	96.1629	196.289	94.7022	196.289	96.1178	196.289	94.3495	196.289	95.9942	196.289	94.0069	196.289	95.794	196.289	93.6996	196.289	95.5264	196.289	93.4553	196.289	95.2102	196.289	93.2986	196.289	94.8764	196.289	93.2447	196.289	94.5664	196.289	93.2935	196.289	94.324	196.289	93.4288	196.289	94.1816	196.289	93.6225	196.289	94.1455	196.289	93.8415	196.289	94.1933	196.289	94.0543	196.289	94.2842	196.289	94.2346	196.289	94.3747	196.289	94.3632	196.289	94.4301	196.289	94.4291
202.881	95.8883	202.881	95.6494	202.881	96.0648	202.881	95.3571	202.881	96.171	202.881	95.0223	202.881	96.1998	202.881	94.6585	202.881	96.1457	202.881	94.2835	202.881	96.0051	202.881	93.9201	202.881	95.7787	202.881	93.5961	202.881	95.474	202.881	93.3412	202.881	95.1086	202.881	93.181	202.881	94.7141	202.881	93.1297	202.881	94.336	202.881	93.1839	202.881	94.0276	202.881	93.3233	202.881	93.8332	202.881	93.5159	202.881	93.7692	202.881	93.7261	202.881	93.8163	202.881	93.9211	202.881	93.9289	202.881	94.075	202.881	94.0554	202.881	94.1697	202.881	94.1534	202.881	94.1957
210.205	95.8329	210.205	95.5992	210.205	96.0037	210.205	95.3093	210.205	96.1052	210.205	94.971	210.205	96.1313	210.205	94.5946	210.205	96.0766	210.205	94.195	210.205	95.9375	210.205	93.7933	210.205	95.7138	210.205	93.4181	210.205	95.4119	210.205	93.1038	210.205	95.0482	210.205	92.8845	210.205	94.6527	210.205	92.7845	210.205	94.2698	210.205	92.8085	210.205	93.9517	210.205	92.9388	210.205	93.7427	210.205	93.1406	210.205	93.6603	210.205	93.3725	210.205	93.686	210.205	93.5962	210.205	93.7753	210.205	93.7812	210.205	93.8769	210.205	93.9069	210.205	93.9485	210.205	93.9626
217.529	95.6627	217.529	95.418	217.529	95.8463	217.529	95.1208	217.529	95.9607	217.529	94.7805	217.529	95.9982	217.529	94.4089	217.529	95.952	217.529	94.0216	217.529	95.8177	217.529	93.64	217.529	95.5948	217.529	93.292	217.529	95.2904	217.529	93.01	217.529	94.9225	217.529	92.8249	217.529	94.5243	217.529	92.7571	217.529	94.1441	217.529	92.8078	217.529	93.8383	217.529	92.9578	217.529	93.6523	217.529	93.1724	217.529	93.6002	217.529	93.4119	217.529	93.6576	217.529	93.6394	217.529	93.7743	217.529	93.8257	217.529	93.8962	217.529	93.9504	217.529	93.9809	217.529	94.0026
225.586	95.7951	225.586	95.5456	225.586	95.9735	225.586	95.2334	225.586	96.0726	225.586	94.8674	225.586	96.084	225.586	94.4592	225.586	95.9999	225.586	94.0248	225.586	95.8143	225.586	93.5877	225.586	95.5253	225.586	93.1803	225.586	95.139	225.586	92.8425	225.586	94.6754	225.586	92.6146	225.586	94.1751	225.586	92.5248	225.586	93.7025	225.586	92.5773	225.586	93.3365	225.586	92.7487	225.586	93.1427	225.586	92.9963	225.586	93.1375	225.586	93.271	225.586	93.2781	225.586	93.5283	225.586	93.4879	225.586	93.7332	225.586	93.6923	225.586	93.8613	225.586	93.8383	225.586	93.8978
232.91	95.9691	232.91	95.712	232.91	96.1603	232.91	95.3974	232.91	96.2768	232.91	95.0334	232.91	96.3088	232.91	94.6294	232.91	96.2463	232.91	94.1989	232.91	96.0802	232.91	93.7618	232.91	95.8038	232.91	93.347	232.91	95.4169	232.91	92.992	232.91	94.9301	232.91	92.7367	232.91	94.3736	232.91	92.6121	232.91	93.8039	232.91	92.6267	232.91	93.305	232.91	92.7611	232.91	92.9669	232.91	92.9739	232.91	92.8441	232.91	93.2147	232.91	92.9207	232.91	93.4363	232.91	93.1214	232.91	93.6009	232.91	93.3556	232.91	93.6823	232.91	93.5513	232.91	93.666
241.699	95.5738	241.699	95.2852	241.699	95.7993	241.699	94.9436	241.699	95.9512	241.699	94.559	241.699	96.0183	241.699	94.1423	241.699	95.9899	241.699	93.7079	241.699	95.8563	241.699	93.2761	241.699	95.6105	241.699	92.8754	241.699	95.2512	241.699	92.5424	241.699	94.7875	241.699	92.3147	241.699	94.2458	241.699	92.2199	241.699	93.6777	241.699	92.2624	241.699	93.1615	241.699	92.4188	241.699	92.7858	241.699	92.6455	241.699	92.612	241.699	92.8917	241.699	92.6378	241.699	93.1113	241.699	92.7998	241.699	93.2687	241.699	93.0116	241.699	93.3408	241.699	93.1994	241.699	93.3165
249.756	95.8474	249.756	95.5129	249.756	96.105	249.756	95.1089	249.756	96.2779	249.756	94.6441	249.756	96.3583	249.756	94.1294	249.756	96.3384	249.756	93.5816	249.756	96.2107	249.756	93.0266	249.756	95.9694	249.756	92.5031	249.756	95.6127	249.756	92.0617	249.756	95.1467	249.756	91.7564	249.756	94.5914	249.756	91.6251	249.756	93.9884	249.756	91.6712	249.756	93.4045	249.756	91.8586	249.756	92.9238	249.756	92.1271	249.756	92.6188	249.756	92.4129	249.756	92.5123	249.756	92.6636	249.756	92.5648	249.756	92.8436	249.756	92.6995	249.756	92.9331	249.756	92.8392	249.756	92.9277
258.545	95.6958	258.545	95.4065	258.545	95.9187	258.545	95.0581	258.545	96.0673	258.545	94.6574	258.545	96.133	258.545	94.2129	258.545	96.1072	258.545	93.7369	258.545	95.9816	258.545	93.2496	258.545	95.7503	258.545	92.782	258.545	95.412	258.545	92.3765	258.545	94.9748	258.545	92.0812	258.545	94.4618	258.545	91.9348	258.545	93.9178	258.545	91.9492	258.545	93.4107	258.545	92.1016	258.545	93.0187	258.545	92.3427	258.545	92.7994	258.545	92.6143	258.545	92.7583	258.545	92.8651	258.545	92.8464	258.545	93.0568	258.545	92.9888	258.545	93.1662	258.545	93.1171	258.545	93.1843
268.066	95.3829	268.066	95.0226	268.066	95.6629	268.066	94.5872	268.066	95.8574	268.066	94.0827	268.066	95.9607	268.066	93.5192	268.066	95.9668	268.066	92.9141	268.066	95.8695	268.066	92.2985	268.066	95.6642	268.066	91.7228	268.066	95.3493	268.066	91.2555	268.066	94.9305	268.066	90.9695	268.066	94.4263	268.066	90.9106	268.066	93.8747	268.066	91.0707	268.066	93.3372	268.066	91.3889	268.066	92.8915	268.066	91.7808	268.066	92.6058	268.066	92.1692	268.066	92.5041	268.066	92.4981	268.066	92.5523	268.066	92.7336	268.066	92.6784	268.066	92.8606	268.066	92.8069	268.066	92.8795
277.588	95.6424	277.588	95.4111	277.588	95.7945	277.588	95.0992	277.588	95.8666	277.588	94.7035	277.588	95.8558	277.588	94.2213	277.588	95.7582	277.588	93.6547	277.588	95.5706	277.588	93.0173	277.588	95.2924	277.588	92.3433	277.588	94.9291	277.588	91.6967	277.588	94.4963	277.588	91.1715	277.588	94.0234	277.588	90.8671	277.588	93.556	277.588	90.8376	277.588	93.1499	277.588	91.0548	277.588	92.8553	277.588	91.4256	277.588	92.6966	277.588	91.8437	277.588	92.6609	277.588	92.2274	277.588	92.7062	277.588	92.5283	277.588	92.7793	277.588	92.7266	277.588	92.831	277.588	92.8225
287.109	95.6284	287.109	95.3853	287.109	95.7996	287.109	95.0723	287.109	95.8933	287.109	94.6875	287.109	95.9007	287.109	94.2275	287.109	95.8119	287.109	93.6917	287.109	95.6177	287.109	93.089	287.109	95.3126	287.109	92.4477	287.109	94.8993	287.109	91.8254	287.109	94.3951	287.109	91.3106	287.109	93.8404	287.109	91.0027	287.109	93.3038	287.109	90.9632	287.109	92.873	287.109	91.1746	287.109	92.6223	287.109	91.5505	287.109	92.5703	287.109	91.9853	287.109	92.6683	287.109	92.3945	287.109	92.8329	287.109	92.7256	287.109	92.986	287.109	92.9529	287.109	93.0744	287.109	93.0681
297.363	95.6738	297.363	95.3987	297.363	95.8853	297.363	95.0655	297.363	96.0225	297.363	94.6738	297.363	96.0713	297.363	94.2173	297.363	96.0166	297.363	93.688	297.363	95.8436	297.363	93.0818	297.363	95.5404	297.363	92.4091	297.363	95.1014	297.363	91.7068	297.363	94.5348	297.363	91.0505	297.363	93.8734	297.363	90.5522	297.363	93.1889	297.363	90.323	297.363	92.5939	297.363	90.406	297.363	92.2095	297.363	90.743	297.363	92.0934	297.363	91.2144	297.363	92.1955	297.363	91.704	297.363	92.3962	297.363	92.1303	297.363	92.5793	297.363	92.446	297.363	92.6687	297.363	92.6277
307.617	95.4132	307.617	95.1382	307.617	95.6305	307.617	94.816	307.617	95.7766	307.617	94.452	307.617	95.8364	307.617	94.0469	307.617	95.7952	307.617	93.5987	307.617	95.639	307.617	93.1086	307.617	95.3566	307.617	92.5887	307.617	94.9418	307.617	92.0707	307.617	94.3994	307.617	91.6114	307.617	93.7551	307.617	91.2847	307.617	93.0696	307.617	91.1552	307.617	92.4469	307.617	91.2423	307.617	92.0142	307.617	91.5041	307.617	91.8574	307.617	91.8585	307.617	91.9584	307.617	92.219	307.617	92.2083	307.617	92.5167	307.617	92.4806	307.617	92.7064	307.617	92.6823	307.617	92.7634
318.604	95.5339	318.604	95.2353	318.604	95.7676	318.604	94.8818	318.604	95.9232	318.604	94.4785	318.604	95.9855	318.604	94.0251	318.604	95.9393	318.604	93.5188	318.604	95.7691	318.604	92.9592	318.604	95.4611	318.604	92.3582	318.604	95.0044	318.604	91.7497	318.604	94.3971	318.604	91.1979	318.604	93.6565	318.604	90.7906	318.604	92.8356	318.604	90.6072	318.604	92.041	318.604	90.6721	318.604	91.4256	318.604	90.9333	318.604	91.1228	318.604	91.292	318.604	91.1496	318.604	91.648	318.604	91.3937	318.604	91.9264	318.604	91.7016	318.604	92.0813	318.604	91.9558	318.604	92.0911
329.59	95.3347	329.59	95.0265	329.59	95.5833	329.59	94.6699	329.59	95.7591	329.59	94.2722	329.59	95.8487	329.59	93.8362	329.59	95.8392	329.59	93.3619	329.59	95.7188	329.59	92.8518	329.59	95.4771	329.59	92.3191	329.59	95.1073	329.59	91.7967	329.59	94.6096	329.59	91.3418	329.59	93.9987	329.59	91.0259	329.59	93.3143	329.59	90.9068	329.59	92.6307	329.59	90.9929	329.59	92.0532	329.59	91.2332	329.59	91.6837	329.59	91.5428	329.59	91.5642	329.59	91.8378	329.59	91.6487	329.59	92.0567	329.59	91.8369	329.59	92.1645	329.59	92.0281	329.59	92.1505
341.309	95.0335	341.309	94.6761	341.309	95.3141	341.309	94.2542	341.309	95.5045	341.309	93.7774	341.309	95.5912	341.309	93.2523	341.309	95.5612	341.309	92.6857	341.309	95.4026	341.309	92.0908	341.309	95.1059	341.309	91.4988	341.309	94.666	341.309	90.9686	341.309	94.0894	341.309	90.586	341.309	93.4055	341.309	90.4365	341.309	92.6832	341.309	90.5549	341.309	92.0403	341.309	90.8963	341.309	91.6184	341.309	91.3601	341.309	91.5057	341.309	91.8397	341.309	91.6702	341.309	92.2544	341.309	91.9871	341.309	92.5542	341.309	92.3227	341.309	92.7131	341.309	92.5843	341.309	92.7217
353.76	95.4685	353.76	95.1533	353.76	95.7087	353.76	94.7678	353.76	95.8649	353.76	94.3108	353.76	95.9257	353.76	93.7754	353.76	95.879	353.76	93.1527	353.76	95.7125	353.76	92.4402	353.76	95.4149	353.76	91.6555	353.76	94.9775	353.76	90.8569	353.76	94.3983	353.76	90.1608	353.76	93.6904	353.76	89.7265	353.76	92.8959	353.76	89.6737	353.76	92.1018	353.76	89.983	353.76	91.4412	353.76	90.506	353.76	91.0515	353.76	91.0699	353.76	90.9888	353.76	91.55	353.76	91.1848	353.76	91.8777	353.76	91.4989	353.76	92.0248	353.76	91.7979	353.76	91.9905
366.211	95.7055	366.211	95.4065	366.211	95.9298	366.211	95.0398	366.211	96.0679	366.211	94.6038	366.211	96.1062	366.211	94.0877	366.211	96.0311	366.211	93.4734	366.211	95.8301	366.211	92.7441	366.211	95.4917	366.211	91.8974	366.211	95.008	366.211	90.9689	366.211	94.3798	366.211	90.0625	366.211	93.6265	366.211	89.3673	366.211	92.8013	366.211	89.091	366.211	92.0053	366.211	89.2957	366.211	91.3765	366.211	89.8306	366.211	91.0311	366.211	90.4675	366.211	90.9869	366.211	91.0363	366.211	91.1538	366.211	91.4498	366.211	91.4008	366.211	91.678	366.211	91.6165	366.211	91.7248
378.662	95.7213	378.662	95.4099	378.662	95.977	378.662	95.0568	378.662	96.1589	378.662	94.6669	378.662	96.2484	378.662	94.2327	378.662	96.2278	378.662	93.7359	378.662	96.0807	378.662	93.1551	378.662	95.7917	378.662	92.4792	378.662	95.3481	378.662	91.7257	378.662	94.7452	378.662	90.9623	378.662	93.9978	378.662	90.3202	378.662	93.1604	378.662	89.9635	378.662	92.3465	378.662	89.9895	378.662	91.7204	378.662	90.3433	378.662	91.419	378.662	90.8625	378.662	91.4457	378.662	91.3861	378.662	91.6713	378.662	91.8098	378.662	91.937	378.662	92.0823	378.662	92.1294	378.662	92.1869
392.578	95.2055	392.578	94.8955	392.578	95.4717	392.578	94.5546	392.578	95.6754	392.578	94.1844	392.578	95.7966	392.578	93.773	392.578	95.8164	392.578	93.2981	392.578	95.7178	392.578	92.7363	392.578	95.4848	392.578	92.0775	392.578	95.1036	392.578	91.3447	392.578	94.5656	392.578	90.6161	392.578	93.8757	392.578	90.0354	392.578	93.0691	392.578	89.7691	392.578	92.2331	392.578	89.8952	392.578	91.5184	392.578	90.3302	392.578	91.0961	392.578	90.8965	392.578	91.0446	392.578	91.4331	392.578	91.2792	392.578	91.8382	392.578	91.6251	392.578	92.0615	392.578	91.9264	392.578	92.087
405.762	95.2683	405.762	94.9022	405.762	95.5755	405.762	94.4974	405.762	95.8006	405.762	94.0622	405.762	95.922	405.762	93.588	405.762	95.9223	405.762	93.0499	405.762	95.7869	405.762	92.4188	405.762	95.5034	405.762	91.6809	405.762	95.0613	405.762	90.8664	405.762	94.4571	405.762	90.0849	405.762	93.705	405.762	89.539	405.762	92.8577	405.762	89.4406	405.762	92.0314	405.762	89.8297	405.762	91.4071	405.762	90.5264	405.762	91.1542	405.762	91.2914	405.762	91.2981	405.762	91.9563	405.762	91.6956	405.762	92.4338	405.762	92.1519	405.762	92.688	405.762	92.519	405.762	92.7116
420.41	95.7093	420.41	95.3042	420.41	96.0789	420.41	94.8922	420.41	96.3829	420.41	94.4878	420.41	96.5953	420.41	94.0805	420.41	96.6961	420.41	93.6335	420.41	96.6684	420.41	93.0946	420.41	96.495	420.41	92.4161	420.41	96.1564	420.41	91.5782	420.41	95.6299	420.41	90.6217	420.41	94.8938	420.41	89.6968	420.41	93.9381	420.41	89.0836	420.41	92.7906	420.41	89.0489	420.41	91.569	420.41	89.5712	420.41	90.5434	420.41	90.3543	420.41	90.0694	420.41	91.1002	420.41	90.26	420.41	91.6337	420.41	90.8325	420.41	91.8743	420.41	91.4189	420.41	91.7964
435.059	95.5317	435.059	95.13	435.059	95.8689	435.059	94.6918	435.059	96.1173	435.059	94.2389	435.059	96.2602	435.059	93.7744	435.059	96.2891	435.059	93.2768	435.059	96.2008	435.059	92.7084	435.059	95.9954	435.059	92.0355	435.059	95.6747	435.059	91.2593	435.059	95.2432	435.059	90.4536	435.059	94.71	435.059	89.7977	435.059	94.0924	435.059	89.5347	435.059	93.4214	435.059	89.7871	435.059	92.7509	435.059	90.4187	435.059	92.1671	435.059	91.1631	435.059	91.7817	435.059	91.8069	435.059	91.6774	435.059	92.236	435.059	91.8316	435.059	92.4107	435.059	92.1102	435.059	92.3459
450.439	95.7723	450.439	95.3637	450.439	96.1213	450.439	94.9337	450.439	96.3765	450.439	94.5093	450.439	96.5147	450.439	94.0859	450.439	96.5226	450.439	93.6199	450.439	96.3929	450.439	93.0392	450.439	96.1205	450.439	92.2675	450.439	95.7011	450.439	91.2533	450.439	95.1328	450.439	90.0165	450.439	94.4221	450.439	88.7523	450.439	93.5951	450.439	87.9516	450.439	92.7149	450.439	88.1284	450.439	91.899	450.439	89.1267	450.439	91.3165	450.439	90.3443	450.439	91.1185	450.439	91.3803	450.439	91.3153	450.439	92.0879	450.439	91.7448	450.439	92.4379	450.439	92.1829	450.439	92.4504
466.553	95.1267	466.553	94.6754	466.553	95.5312	466.553	94.2356	466.553	95.8444	466.553	93.8574	466.553	96.0406	466.553	93.5508	466.553	96.109	466.553	93.2686	466.553	96.0464	466.553	92.9222	466.553	95.852	466.553	92.4164	466.553	95.5242	466.553	91.6781	466.553	95.0602	466.553	90.6819	466.553	94.4596	466.553	89.4952	466.553	93.7316	466.553	88.3706	466.553	92.9053	466.553	87.7775	466.553	92.0462	466.553	88.0368	466.553	91.2723	466.553	88.8858	466.553	90.7418	466.553	89.8281	466.553	90.5647	466.553	90.5605	466.553	90.6926	466.553	90.9767	466.553	90.9335	466.553	91.077
482.666	94.8459	482.666	94.3856	482.666	95.2151	482.666	93.8997	482.666	95.4574	482.666	93.4693	482.666	95.5608	482.666	93.1491	482.666	95.5282	482.666	92.921	482.666	95.3688	482.666	92.6921	482.666	95.0933	482.666	92.3402	482.666	94.7108	482.666	91.7611	482.666	94.2274	482.666	90.8963	482.666	93.6461	482.666	89.7647	482.666	92.9674	482.666	88.5415	482.666	92.1975	482.666	87.6632	482.666	91.3724	482.666	87.6287	482.666	90.6003	482.666	88.3822	482.666	90.077	482.666	89.3833	482.666	89.9727	482.666	90.2122	482.666	90.234	482.666	90.6967	482.666	90.5997	482.666	90.8065
500.244	95.2506	500.244	94.7409	500.244	95.6145	500.244	94.1519	500.244	95.8048	500.244	93.5906	500.244	95.8176	500.244	93.1675	500.244	95.6603	500.244	92.9204	500.244	95.3456	500.244	92.7721	500.244	94.8879	500.244	92.5786	500.244	94.3046	500.244	92.2066	500.244	93.6205	500.244	91.5763	500.244	92.8704	500.244	90.679	500.244	92.0975	500.244	89.611	500.244	91.3438	500.244	88.6353	500.244	90.6482	500.244	88.1485	500.244	90.0681	500.244	88.3485	500.244	89.6993	500.244	88.9803	500.244	89.6272	500.244	89.6404	500.244	89.8137	500.244	90.0782	500.244	90.0781	500.244	90.2118
517.822	95.9103	517.822	95.5617	517.822	96.0105	517.822	94.9799	517.822	95.8748	517.822	94.2331	517.822	95.5323	517.822	93.4693	517.822	95.029	517.822	92.8926	517.822	94.4367	517.822	92.6314	517.822	93.8594	517.822	92.6089	517.822	93.4132	517.822	92.6097	517.822	93.1571	517.822	92.4399	517.822	93.0202	517.822	91.9993	517.822	92.8156	517.822	91.2909	517.822	92.3328	517.822	90.4434	517.822	91.4305	517.822	89.7412	517.822	90.1507	517.822	89.5164	517.822	88.9444	517.822	89.8232	517.822	88.636	517.822	90.3496	517.822	89.3225	517.822	90.7226	517.822	90.1953	517.822	90.7022
536.133	97.5353	536.133	97.2287	536.133	97.5532	536.133	96.6254	536.133	97.2878	536.133	95.7287	536.133	96.7376	536.133	94.5846	536.133	95.8986	536.133	93.3331	536.133	94.7808	536.133	92.241	536.133	93.4551	536.133	91.5824	536.133	92.1507	536.133	91.3673	536.133	91.3047	536.133	91.3265	536.133	91.2104	536.133	91.1911	536.133	91.5476	536.133	90.8629	536.133	91.7282	536.133	90.4374	536.133	91.3748	536.133	90.1726	536.133	90.4116	536.133	90.316	536.133	89.2206	536.133	90.8306	536.133	88.8171	536.133	91.4067	536.133	89.6543	536.133	91.7188	536.133	90.8095	536.133	91.5501
554.443	97.1158	554.443	96.807	554.443	97.2068	554.443	96.2788	554.443	97.0816	554.443	95.5405	554.443	96.738	554.443	94.6299	554.443	96.1689	554.443	93.6343	554.443	95.3647	554.443	92.6908	554.443	94.3252	554.443	91.9251	554.443	93.0928	554.443	91.3491	554.443	91.8216	554.443	90.8432	554.443	90.8268	554.443	90.2646	554.443	90.3862	554.443	89.5771	554.443	90.3562	554.443	88.941	554.443	90.2839	554.443	88.6894	554.443	89.8502	554.443	89.0192	554.443	89.0939	554.443	89.6971	554.443	88.5138	554.443	90.299	554.443	88.7149	554.443	90.5237	554.443	89.5145	554.443	90.2427
574.219	97.9582	574.219	97.7619	574.219	97.9478	574.219	97.3345	574.219	97.7422	574.219	96.6431	574.219	97.3404	574.219	95.6625	574.219	96.7325	574.219	94.4084	574.219	95.9034	574.219	92.9946	574.219	94.8393	574.219	91.6825	574.219	93.5466	574.219	90.7746	574.219	92.0968	574.219	90.2977	574.219	90.7011	574.219	89.9483	574.219	89.6958	574.219	89.4321	574.219	89.2354	574.219	88.7292	574.219	89.0663	574.219	88.2099	574.219	88.898	574.219	88.4297	574.219	88.8135	574.219	89.3756	574.219	89.1694	574.219	90.4399	574.219	89.9941	574.219	91.1377	574.219	90.8344	574.219	91.2729
594.727	98.601	594.727	98.3999	594.727	98.5959	594.727	98.0171	594.727	98.3713	594.727	97.4762	594.727	97.9315	594.727	96.7893	594.727	97.2998	594.727	95.9522	594.727	96.5125	594.727	94.9506	594.727	95.606	594.727	93.7672	594.727	94.5935	594.727	92.3833	594.727	93.4342	594.727	90.7708	594.727	92.0094	594.727	88.894	594.727	90.1217	594.727	86.7949	594.727	87.5438	594.727	84.9683	594.727	84.3745	594.727	84.7153	594.727	82.6716	594.727	86.2548	594.727	84.4885	594.727	88.1466	594.727	86.9699	594.727	89.5744	594.727	88.8066	594.727	90.3555	594.727	89.9617	594.727	90.4788
615.234	97.4576	615.234	97.1909	615.234	97.5172	615.234	96.7342	615.234	97.3692	615.234	96.1251	615.234	97.0246	615.234	95.425	615.234	96.5028	615.234	94.7152	615.234	95.8321	615.234	94.0763	615.234	95.0569	615.234	93.5446	615.234	94.2473	615.234	93.0703	615.234	93.494	615.234	92.5191	615.234	92.8603	615.234	91.7132	615.234	92.2994	615.234	90.4707	615.234	91.6163	615.234	88.6396	615.234	90.5239	615.234	86.2444	615.234	88.7363	615.234	84.1456	615.234	86.1666	615.234	84.1896	615.234	83.8552	615.234	85.6729	615.234	84.2044	615.234	86.757	615.234	85.8877	615.234	86.8596
637.207	97.801	637.207	97.4985	637.207	97.8645	637.207	96.9535	637.207	97.6959	637.207	96.1632	637.207	97.308	637.207	95.1335	637.207	96.7186	637.207	93.9122	637.207	95.947	637.207	92.6602	637.207	95.0138	637.207	91.6929	637.207	93.9574	637.207	91.2783	637.207	92.8764	637.207	91.2777	637.207	91.9635	637.207	91.2506	637.207	91.3924	637.207	90.8225	637.207	91.0444	637.207	89.8097	637.207	90.492	637.207	88.3149	637.207	89.339	637.207	87.1441	637.207	87.7112	637.207	87.5561	637.207	87.0446	637.207	89.0256	637.207	88.3291	637.207	90.2036	637.207	89.8545	637.207	90.5278
659.912	97.3708	659.912	97.2007	659.912	97.3064	659.912	96.8034	659.912	97.0227	659.912	96.2075	659.912	96.5541	659.912	95.4552	659.912	95.9478	659.912	94.5921	659.912	95.2541	659.912	93.664	659.912	94.5148	659.912	92.7255	659.912	93.7509	659.912	91.8397	659.912	92.9625	659.912	91.0387	659.912	92.1444	659.912	90.2575	659.912	91.3029	659.912	89.3269	659.912	90.4293	659.912	88.0738	659.912	89.4365	659.912	86.5488	659.912	88.1896	659.912	85.4616	659.912	86.8175	659.912	85.8637	659.912	86.184	659.912	87.2238	659.912	86.931	659.912	88.3159	659.912	88.0676	659.912	88.6221
683.35	97.4185	683.35	97.272	683.35	97.3294	683.35	96.8914	683.35	97.0237	683.35	96.2972	683.35	96.5388	683.35	95.5256	683.35	95.9232	683.35	94.6278	683.35	95.2212	683.35	93.6819	683.35	94.4595	683.35	92.8122	683.35	93.6545	683.35	92.1632	683.35	92.8576	683.35	91.7687	683.35	92.2137	683.35	91.4406	683.35	91.8888	683.35	90.851	683.35	91.7896	683.35	89.6846	683.35	91.4746	683.35	87.7753	683.35	90.4479	683.35	85.6774	683.35	88.5295	683.35	85.6327	683.35	86.7878	683.35	87.6468	683.35	87.4527	683.35	89.3111	683.35	89.0965	683.35	89.8274
706.787	97.8322	706.787	97.6537	706.787	97.711	706.787	97.1651	706.787	97.3245	706.787	96.3847	706.787	96.728	706.787	95.3743	706.787	95.9898	706.787	94.2655	706.787	95.1761	706.787	93.2699	706.787	94.3326	706.787	92.5996	706.787	93.4801	706.787	92.3048	706.787	92.6501	706.787	92.2193	706.787	91.9516	706.787	92.0828	706.787	91.5377	706.787	91.647	706.787	91.3382	706.787	90.6975	706.787	90.9113	706.787	89.0927	706.787	89.7309	706.787	87.0946	706.787	87.7079	706.787	86.2622	706.787	86.473	706.787	87.6394	706.787	87.8527	706.787	89.3054	706.787	89.5081	706.787	90.0237
731.689	97.3234	731.689	97.3211	731.689	97.0036	731.689	96.9792	731.689	96.4001	731.689	96.3006	731.689	95.5751	731.689	95.3119	731.689	94.6108	731.689	94.0792	731.689	93.5898	731.689	92.7599	731.689	92.5607	731.689	91.6851	731.689	91.5328	731.689	91.2664	731.689	90.5695	731.689	91.5188	731.689	89.9581	731.689	91.9393	731.689	90.0462	731.689	92.0012	731.689	90.5673	731.689	91.3725	731.689	90.7328	731.689	89.8502	731.689	89.8729	731.689	87.4554	731.689	87.5673	731.689	85.4186	731.689	84.432	731.689	86.0993	731.689	84.7604	731.689	87.7562	731.689	87.2278	731.689	88.303
758.057	97.5242	758.057	97.5784	758.057	97.205	758.057	97.3389	758.057	96.6646	758.057	96.7881	758.057	95.956	758.057	95.9145	758.057	95.1193	758.057	94.7091	758.057	94.1531	758.057	93.1681	758.057	92.9891	758.057	91.356	758.057	91.4854	758.057	89.6635	758.057	89.4772	758.057	89.0282	758.057	87.1491	758.057	89.731	758.057	86.2071	758.057	90.6896	758.057	87.8203	758.057	91.0454	758.057	89.5909	758.057	90.531	758.057	90.1569	758.057	89.2961	758.057	89.2711	758.057	88.1889	758.057	87.3159	758.057	88.3164	758.057	86.4755	758.057	89.0331	758.057	87.8888	758.057	89.043
784.424	97.7817	784.424	97.8556	784.424	97.363	784.424	97.5848	784.424	96.6321	784.424	96.999	784.424	95.656	784.424	96.1534	784.424	94.5345	784.424	95.1217	784.424	93.3815	784.424	93.982	784.424	92.262	784.424	92.7945	784.424	91.1062	784.424	91.6162	784.424	89.6877	784.424	90.5874	784.424	87.7202	784.424	89.9492	784.424	85.2667	784.424	89.7471	784.424	84.0482	784.424	89.6058	784.424	85.3371	784.424	89.0748	784.424	86.4681	784.424	88.0648	784.424	86.0268	784.424	87.2142	784.424	84.48	784.424	87.4735	784.424	84.8248	784.424	88.2829	784.424	87.0681	784.424	88.359
812.256	97.4653	812.256	97.5101	812.256	97.1275	812.256	97.2347	812.256	96.5344	812.256	96.6166	812.256	95.7393	812.256	95.6473	812.256	94.8129	812.256	94.3682	812.256	93.8272	812.256	92.924	812.256	92.8044	812.256	91.5692	812.256	91.6498	812.256	90.55	812.256	90.1481	812.256	89.9604	812.256	88.1106	812.256	89.7279	812.256	85.8785	812.256	89.5998	812.256	84.885	812.256	89.1759	812.256	85.2499	812.256	88.1341	812.256	85.2028	812.256	86.677	812.256	84.2028	812.256	86.1711	812.256	83.5936	812.256	87.2937	812.256	85.1086	812.256	88.3896	812.256	87.2177	812.256	88.42
840.82	97.4323	840.82	97.3502	840.82	97.1954	840.82	96.979	840.82	96.6201	840.82	96.3306	840.82	95.731	840.82	95.3821	840.82	94.6344	840.82	94.0916	840.82	93.536	840.82	92.4749	840.82	92.6712	840.82	90.7634	840.82	92.0895	840.82	89.5092	840.82	91.4877	840.82	89.1209	840.82	90.321	840.82	89.2581	840.82	87.9867	840.82	89.3349	840.82	84.4384	840.82	89.0016	840.82	83.7132	840.82	88.0942	840.82	86.0345	840.82	86.7469	840.82	86.4568	840.82	85.9679	840.82	84.4526	840.82	86.7904	840.82	83.157	840.82	87.9218	840.82	85.9347	840.82	87.8552
870.85	97.5938	870.85	97.2983	870.85	97.5016	870.85	96.6547	870.85	97.0379	870.85	95.7381	870.85	96.2653	870.85	94.6029	870.85	95.2643	870.85	93.2198	870.85	94.1033	870.85	91.4649	870.85	92.8394	870.85	89.228	870.85	91.5787	870.85	86.8787	870.85	90.5571	870.85	86.0701	870.85	89.9964	870.85	87.2461	870.85	89.6891	870.85	88.3563	870.85	89.1153	870.85	88.3566	870.85	88.1393	870.85	87.0524	870.85	87.2761	870.85	85.0891	870.85	86.5364	870.85	85.2522	870.85	84.9543	870.85	87.4149	870.85	83.5849	870.85	88.646	870.85	85.7645	870.85	88.1084
901.611	97.6193	901.611	97.1574	901.611	97.5885	901.611	96.2709	901.611	97.102	901.611	95.1324	901.611	96.2828	901.611	93.9292	901.611	95.3161	901.611	92.6995	901.611	94.4029	901.611	91.2943	901.611	93.6615	901.611	89.5133	901.611	92.998	901.611	87.2937	901.611	92.1154	901.611	85.3707	901.611	90.7314	901.611	85.7921	901.611	88.9324	901.611	87.7778	901.611	87.7231	901.611	88.9967	901.611	88.1966	901.611	88.5677	901.611	89.1439	901.611	85.9713	901.611	88.9612	901.611	82.2533	901.611	87.1282	901.611	84.9053	901.611	85.6188	901.611	88.0985	901.611	87.3907	901.611	88.816
933.105	98.1115	933.105	97.6529	933.105	98.0701	933.105	96.6563	933.105	97.625	933.105	95.2001	933.105	96.8499	933.105	93.4928	933.105	95.7678	933.105	91.8173	933.105	94.4527	933.105	90.407	933.105	93.1566	933.105	89.2857	933.105	92.1386	933.105	88.0526	933.105	91.2513	933.105	85.8636	933.105	90.1108	933.105	82.6511	933.105	88.7351	933.105	83.7528	933.105	87.6941	933.105	87.0086	933.105	87.552	933.105	88.0817	933.105	88.3515	933.105	86.9032	933.105	88.6647	933.105	84.2717	933.105	86.9083	933.105	84.2695	933.105	84.067	933.105	86.6919	933.105	85.6946	933.105	87.4198
966.064	97.9974	966.064	97.5381	966.064	97.9969	966.064	96.6647	966.064	97.5411	966.064	95.4564	966.064	96.6706	966.064	93.9906	966.064	95.4551	966.064	92.3409	966.064	94.0775	966.064	90.6754	966.064	92.9502	966.064	89.3699	966.064	92.3552	966.064	88.5877	966.064	91.786	966.064	87.6471	966.064	90.4306	966.064	85.8396	966.064	88.307	966.064	84.5457	966.064	87.3339	966.064	85.9166	966.064	88.0328	966.064	86.9822	966.064	88.4672	966.064	85.7833	966.064	88.0095	966.064	82.3334	966.064	86.253	966.064	83.0855	966.064	84.2759	966.064	86.4689	966.064	85.7097	966.064	87.2783
999.756	97.9946	999.756	97.6959	999.756	97.8841	999.756	96.98	999.756	97.4472	999.756	95.9064	999.756	96.7794	999.756	94.5365	999.756	95.8889	999.756	92.8247	999.756	94.6782	999.756	90.6512	999.756	93.1729	999.756	88.4049	999.756	91.9496	999.756	87.3958	999.756	91.4563	999.756	87.2558	999.756	90.6514	999.756	86.1791	999.756	88.4039	999.756	84.213	999.756	85.4889	999.756	85.2856	999.756	85.9856	999.756	87.6746	999.756	88.1696	999.756	87.8114	999.756	88.8653	999.756	85.4957	999.756	87.0952	999.756	84.5896	999.756	84.5672	999.756	87.4639	999.756	86.9252	999.756	88.5964
1,034.91	97.1847	1,034.91	97.1694	1,034.91	96.9716	1,034.91	96.8009	1,034.91	96.7249	1,034.91	96.0703	1,034.91	96.4185	1,034.91	95.0197	1,034.91	95.765	1,034.91	93.688	1,034.91	94.5998	1,034.91	92.045	1,034.91	93.1792	1,034.91	90.0992	1,034.91	92.1223	1,034.91	88.1331	1,034.91	91.6981	1,034.91	86.2259	1,034.91	91.2365	1,034.91	83.6336	1,034.91	90.0776	1,034.91	82.9695	1,034.91	88.9261	1,034.91	86.4961	1,034.91	89.0801	1,034.91	88.2157	1,034.91	89.6619	1,034.91	87.1148	1,034.91	89.3631	1,034.91	83.467	1,034.91	87.1965	1,034.91	82.5974	1,034.91	82.7953	1,034.91	85.549	1,034.91	83.1918	1,034.91	85.9299
1,071.53	97.697	1,071.53	97.7773	1,071.53	97.4597	1,071.53	97.5406	1,071.53	97.0859	1,071.53	96.8461	1,071.53	96.4537	1,071.53	95.7085	1,071.53	95.5175	1,071.53	94.3067	1,071.53	94.4596	1,071.53	92.7284	1,071.53	93.5215	1,071.53	90.8033	1,071.53	92.7285	1,071.53	88.6624	1,071.53	91.7209	1,071.53	87.2146	1,071.53	90.0931	1,071.53	86.1706	1,071.53	88.8276	1,071.53	83.7105	1,071.53	88.3612	1,071.53	83.1668	1,071.53	86.63	1,071.53	87.215	1,071.53	86.4731	1,071.53	88.7992	1,071.53	88.5451	1,071.53	87.4648	1,071.53	87.8017	1,071.53	85.7113	1,071.53	83.651	1,071.53	86.8548	1,071.53	83.9409	1,071.53	86.9209
1,109.62	97.5475	1,109.62	97.5946	1,109.62	97.4101	1,109.62	97.4132	1,109.62	97.1096	1,109.62	96.731	1,109.62	96.5482	1,109.62	95.4108	1,109.62	95.7923	1,109.62	93.6434	1,109.62	94.9768	1,109.62	91.7885	1,109.62	94.0974	1,109.62	89.9953	1,109.62	93.3299	1,109.62	88.5686	1,109.62	92.8079	1,109.62	88.3979	1,109.62	91.3898	1,109.62	88.8008	1,109.62	87.7318	1,109.62	87.6632	1,109.62	85.4754	1,109.62	85.1421	1,109.62	87.9566	1,109.62	86.1053	1,109.62	88.7179	1,109.62	87.204	1,109.62	88.4521	1,109.62	85.6821	1,109.62	87.7368	1,109.62	84.3406	1,109.62	85.3608	1,109.62	85.73	1,109.62	83.9817	1,109.62	85.7577
1,148.44	97.893	1,148.44	97.7661	1,148.44	97.8369	1,148.44	97.3252	1,148.44	97.4757	1,148.44	96.3539	1,148.44	96.7031	1,148.44	94.8244	1,148.44	95.7481	1,148.44	93.0535	1,148.44	94.9351	1,148.44	91.5567	1,148.44	94.179	1,148.44	90.394	1,148.44	93.3312	1,148.44	89.4539	1,148.44	92.1292	1,148.44	89.2202	1,148.44	89.566	1,148.44	88.8029	1,148.44	85.5015	1,148.44	86.3674	1,148.44	85.5487	1,148.44	82.4871	1,148.44	86.7232	1,148.44	83.3094	1,148.44	85.5676	1,148.44	84.8297	1,148.44	86.2053	1,148.44	84.0878	1,148.44	87.0719	1,148.44	83.7274	1,148.44	85.1197	1,148.44	86.046	1,148.44	84.7404	1,148.44	86.6363
1,189.45	98.2553	1,189.45	97.8048	1,189.45	98.1695	1,189.45	97.0362	1,189.45	97.5484	1,189.45	96.0714	1,189.45	96.8344	1,189.45	94.9159	1,189.45	96.4106	1,189.45	93.6225	1,189.45	95.8888	1,189.45	92.2241	1,189.45	94.76	1,189.45	90.4056	1,189.45	93.3121	1,189.45	88.0009	1,189.45	92.1189	1,189.45	87.4996	1,189.45	90.5062	1,189.45	89.5919	1,189.45	86.9588	1,189.45	90.2529	1,189.45	81.5725	1,189.45	88.3811	1,189.45	84.0809	1,189.45	86.3438	1,189.45	86.6331	1,189.45	86.7362	1,189.45	87.3518	1,189.45	85.269	1,189.45	86.4273	1,189.45	83.1732	1,189.45	85.1496	1,189.45	85.2136	1,189.45	85.7606	1,189.45	86.3067
1,231.2	97.9761	1,231.2	97.9127	1,231.2	97.5279	1,231.2	97.4064	1,231.2	96.9095	1,231.2	96.5884	1,231.2	96.5183	1,231.2	95.3267	1,231.2	96.1979	1,231.2	93.5816	1,231.2	95.4741	1,231.2	91.8405	1,231.2	94.1916	1,231.2	90.2448	1,231.2	93.0572	1,231.2	87.7422	1,231.2	92.5926	1,231.2	85.4323	1,231.2	91.6667	1,231.2	87.7005	1,231.2	88.774	1,231.2	88.7478	1,231.2	86.1412	1,231.2	87.5208	1,231.2	88.2694	1,231.2	87.2512	1,231.2	88.3447	1,231.2	87.3918	1,231.2	87.487	1,231.2	85.2906	1,231.2	87.045	1,231.2	82.6885	1,231.2	84.1462	1,231.2	85.1578	1,231.2	83.4404	1,231.2	85.9751
1,274.41	97.6415	1,274.41	97.4959	1,274.41	97.6947	1,274.41	97.0539	1,274.41	97.7301	1,274.41	96.2877	1,274.41	97.454	1,274.41	95.1369	1,274.41	96.5858	1,274.41	93.4878	1,274.41	95.07	1,274.41	91.8817	1,274.41	93.2966	1,274.41	91.1587	1,274.41	92.6042	1,274.41	90.0046	1,274.41	93.2682	1,274.41	87.313	1,274.41	93.0135	1,274.41	87.332	1,274.41	90.1507	1,274.41	88.4263	1,274.41	87.0723	1,274.41	87.0116	1,274.41	87.2295	1,274.41	86.4012	1,274.41	87.5136	1,274.41	87.2332	1,274.41	89.3509	1,274.41	85.2561	1,274.41	89.2934	1,274.41	81.1508	1,274.41	86.1409	1,274.41	82.8263	1,274.41	83.1283	1,274.41	83.7958
1,319.82	97.6847	1,319.82	98.1251	1,319.82	97.3025	1,319.82	98.2538	1,319.82	96.9911	1,319.82	97.8649	1,319.82	96.5763	1,319.82	97.1506	1,319.82	96.0447	1,319.82	96.2272	1,319.82	95.1994	1,319.82	95.0107	1,319.82	93.5221	1,319.82	93.6696	1,319.82	91.4686	1,319.82	91.5646	1,319.82	91.6364	1,319.82	87.0451	1,319.82	91.9866	1,319.82	87.5563	1,319.82	89.0719	1,319.82	90.3075	1,319.82	83.9342	1,319.82	88.7771	1,319.82	85.8652	1,319.82	85.5459	1,319.82	87.6024	1,319.82	86.3628	1,319.82	89.0378	1,319.82	86.0586	1,319.82	89.252	1,319.82	81.4965	1,319.82	87.5052	1,319.82	81.1072	1,319.82	85.5252	1,319.82	84.66
1,365.97	98.3638	1,365.97	98.585	1,365.97	98.0689	1,365.97	98.499	1,365.97	97.5441	1,365.97	97.8979	1,365.97	96.6948	1,365.97	96.8216	1,365.97	95.7133	1,365.97	95.3341	1,365.97	94.42	1,365.97	93.783	1,365.97	92.1109	1,365.97	92.5933	1,365.97	88.7222	1,365.97	90.5355	1,365.97	87.6202	1,365.97	85.3096	1,365.97	88.2861	1,365.97	81.7019	1,365.97	86.0592	1,365.97	85.1798	1,365.97	78.0726	1,365.97	84.9779	1,365.97	80.6929	1,365.97	84.8465	1,365.97	81.0655	1,365.97	86.5091	1,365.97	80.8756	1,365.97	86.2411	1,365.97	85.8851	1,365.97	83.7657	1,365.97	84.9806	1,365.97	83.3194	1,365.97	81.9335	1,365.97	83.4391
1,414.31	97.9075	1,414.31	97.775	1,414.31	97.8395	1,414.31	97.4705	1,414.31	97.5937	1,414.31	96.7671	1,414.31	97.1677	1,414.31	95.4357	1,414.31	96.2976	1,414.31	93.4804	1,414.31	94.74	1,414.31	91.0801	1,414.31	92.3884	1,414.31	89.6564	1,414.31	89.2378	1,414.31	89.6528	1,414.31	86.3697	1,414.31	87.8343	1,414.31	86.8705	1,414.31	80.8197	1,414.31	86.6414	1,414.31	78.7129	1,414.31	83.4975	1,414.31	82.4442	1,414.31	81.0708	1,414.31	81.5003	1,414.31	78.9712	1,414.31	82.8518	1,414.31	83.6006	1,414.31	83.6107	1,414.31	86.2531	1,414.31	80.0189	1,414.31	84.9784	1,414.31	77.7043	1,414.31	83.3466	1,414.31	82.0335
1,464.11	97.5144	1,464.11	97.0729	1,464.11	97.7343	1,464.11	96.4664	1,464.11	97.6851	1,464.11	95.4874	1,464.11	97.2114	1,464.11	94.0855	1,464.11	95.9868	1,464.11	92.4155	1,464.11	94.0225	1,464.11	90.167	1,464.11	91.9292	1,464.11	88.1981	1,464.11	89.7985	1,464.11	88.6291	1,464.11	87.0413	1,464.11	88.0681	1,464.11	86.6584	1,464.11	84.1699	1,464.11	86.8877	1,464.11	81.0416	1,464.11	83.5741	1,464.11	80.767	1,464.11	79.4544	1,464.11	78.2097	1,464.11	81.1052	1,464.11	82.3883	1,464.11	81.4393	1,464.11	85.0859	1,464.11	84.9801	1,464.11	83.2655	1,464.11	84.9737	1,464.11	79.3793	1,464.11	81.0029	1,464.11	80.0706
1,515.38	98.0477	1,515.38	96.9201	1,515.38	98.4491	1,515.38	95.4663	1,515.38	98.1728	1,515.38	94.337	1,515.38	97.3188	1,515.38	93.2754	1,515.38	95.9031	1,515.38	91.8757	1,515.38	93.9097	1,515.38	90.0701	1,515.38	91.5947	1,515.38	87.2865	1,515.38	89.3345	1,515.38	85.7409	1,515.38	86.7169	1,515.38	86.4284	1,515.38	83.3025	1,515.38	83.3738	1,515.38	82.4295	1,515.38	78.9552	1,515.38	81.4683	1,515.38	80.2361	1,515.38	78.7889	1,515.38	79.406	1,515.38	83.3864	1,515.38	80.4746	1,515.38	80.5675	1,515.38	84.9066	1,515.38	81.296	1,515.38	84.3743	1,515.38	83.499	1,515.38	81.0982	1,515.38	80.4411	1,515.38	81.0142
1,568.85	97.77	1,568.85	96.7031	1,568.85	98.4855	1,568.85	95.2702	1,568.85	98.4612	1,568.85	93.764	1,568.85	97.3569	1,568.85	92.8395	1,568.85	95.6078	1,568.85	92.2442	1,568.85	94.0584	1,568.85	91.0172	1,568.85	92.3302	1,568.85	88.3185	1,568.85	89.4843	1,568.85	85.368	1,568.85	86.1266	1,568.85	84.5714	1,568.85	83.8611	1,568.85	81.631	1,568.85	83.9694	1,568.85	78.7479	1,568.85	84.6734	1,568.85	83.4574	1,568.85	82.6835	1,568.85	84.1475	1,568.85	82.476	1,568.85	82.2672	1,568.85	80.9851	1,568.85	85.2018	1,568.85	81.9677	1,568.85	84.4532	1,568.85	83.5207	1,568.85	80.5699	1,568.85	81.097	1,568.85	80.4913
1,624.51	96.7081	1,624.51	96.28	1,624.51	97.1638	1,624.51	95.8502	1,624.51	97.2583	1,624.51	95.0704	1,624.51	96.8249	1,624.51	93.9283	1,624.51	95.816	1,624.51	92.7479	1,624.51	93.777	1,624.51	91.5903	1,624.51	90.4641	1,624.51	89.3923	1,624.51	87.3518	1,624.51	85.3057	1,624.51	87.0594	1,624.51	84.5349	1,624.51	87.7716	1,624.51	84.9188	1,624.51	87.1235	1,624.51	80.7611	1,624.51	85.9654	1,624.51	81.1716	1,624.51	83.6795	1,624.51	84.0636	1,624.51	82.765	1,624.51	81.8961	1,624.51	83.42	1,624.51	81.9437	1,624.51	83.7742	1,624.51	81.3584	1,624.51	83.6483	1,624.51	75.7314	1,624.51	79.0743	1,624.51	74.3201
1,681.64	96.6438	1,681.64	96.265	1,681.64	96.8697	1,681.64	95.9745	1,681.64	96.652	1,681.64	95.2262	1,681.64	95.7754	1,681.64	93.5682	1,681.64	94.0624	1,681.64	91.574	1,681.64	91.4916	1,681.64	90.2052	1,681.64	88.5604	1,681.64	88.7078	1,681.64	86.3718	1,681.64	85.5784	1,681.64	84.8876	1,681.64	82.9388	1,681.64	83.9738	1,681.64	83.6588	1,681.64	81.625	1,681.64	82.4743	1,681.64	81.9291	1,681.64	80.5457	1,681.64	79.6826	1,681.64	81.9418	1,681.64	79.2957	1,681.64	82.4449	1,681.64	80.9603	1,681.64	81.9409	1,681.64	77.271	1,681.64	80.8176	1,681.64	81.8633	1,681.64	78.1685	1,681.64	77.5691	1,681.64	75.8557
1,740.97	97.3206	1,740.97	96.3841	1,740.97	97.6388	1,740.97	95.1672	1,740.97	96.9602	1,740.97	94.0531	1,740.97	95.1032	1,740.97	92.6331	1,740.97	92.7017	1,740.97	90.2362	1,740.97	90.3507	1,740.97	87.6831	1,740.97	87.9849	1,740.97	86.3207	1,740.97	85.3734	1,740.97	83.6805	1,740.97	82.4605	1,740.97	78.8774	1,740.97	81.9623	1,740.97	76.0018	1,740.97	82.3842	1,740.97	75.3339	1,740.97	81.7668	1,740.97	79.5411	1,740.97	78.8837	1,740.97	82.624	1,740.97	81.195	1,740.97	83.111	1,740.97	83.1335	1,740.97	82.5522	1,740.97	75.4565	1,740.97	80.3092	1,740.97	79.9902	1,740.97	76.7178	1,740.97	75.4032	1,740.97	74.2019
1,802.49	98.0056	1,802.49	97.004	1,802.49	97.7088	1,802.49	95.3081	1,802.49	96.2525	1,802.49	93.7952	1,802.49	94.3826	1,802.49	92.3626	1,802.49	92.5413	1,802.49	90.4606	1,802.49	90.2172	1,802.49	87.7149	1,802.49	87.6322	1,802.49	85.1518	1,802.49	86.3112	1,802.49	83.5088	1,802.49	84.8913	1,802.49	81.6613	1,802.49	83.9977	1,802.49	80.1891	1,802.49	83.567	1,802.49	76.9234	1,802.49	80.7328	1,802.49	77.2213	1,802.49	79.6632	1,802.49	80.5698	1,802.49	76.6966	1,802.49	81.2826	1,802.49	80.495	1,802.49	81.1015	1,802.49	78.427	1,802.49	77.5211	1,802.49	83.9953	1,802.49	69.8812	1,802.49	81.8773	1,802.49	73.0184
1,866.21	97.4802	1,866.21	96.4317	1,866.21	97.3033	1,866.21	94.4273	1,866.21	96.1172	1,866.21	92.1356	1,866.21	94.4916	1,866.21	90.2287	1,866.21	92.4587	1,866.21	88.308	1,866.21	89.5242	1,866.21	86.3233	1,866.21	88.3177	1,866.21	84.5452	1,866.21	88.616	1,866.21	83.0245	1,866.21	87.0594	1,866.21	83.0316	1,866.21	84.5714	1,866.21	83.2339	1,866.21	81.4239	1,866.21	81.1488	1,866.21	78.2325	1,866.21	77.3541	1,866.21	78.1876	1,866.21	75.9472	1,866.21	76.12	1,866.21	80.0933	1,866.21	78.0108	1,866.21	82.0557	1,866.21	65.2593	1,866.21	79.7593	1,866.21	83.6029	1,866.21	74.1132	1,866.21	83.0208	1,866.21	76.186
1,932.13	96.0368	1,932.13	95.3311	1,932.13	96.2026	1,932.13	93.6156	1,932.13	95.5949	1,932.13	91.4262	1,932.13	93.5971	1,932.13	89.5709	1,932.13	91.5856	1,932.13	87.6805	1,932.13	90.967	1,932.13	86.5396	1,932.13	91.1883	1,932.13	86.3488	1,932.13	90.869	1,932.13	83.7545	1,932.13	88.1987	1,932.13	80.2852	1,932.13	84.1673	1,932.13	80.9417	1,932.13	83.3934	1,932.13	80.6242	1,932.13	82.078	1,932.13	81.9925	1,932.13	80.6602	1,932.13	82.7788	1,932.13	81.1076	1,932.13	81.5378	1,932.13	79.2887	1,932.13	83.113	1,932.13	72.0092	1,932.13	81.0026	1,932.13	80.8907	1,932.13	73.4614	1,932.13	81.5648	1,932.13	71.8846
2,000.24	97.0246	2,000.24	96.0238	2,000.24	96.4665	2,000.24	93.974	2,000.24	93.8689	2,000.24	91.9662	2,000.24	91.063	2,000.24	90.9303	2,000.24	91.3177	2,000.24	89.7015	2,000.24	90.8418	2,000.24	86.6963	2,000.24	91.2524	2,000.24	86.1045	2,000.24	91.5246	2,000.24	86.0798	2,000.24	89.1234	2,000.24	82.6072	2,000.24	84.7076	2,000.24	84.6153	2,000.24	86.0206	2,000.24	84.787	2,000.24	85.1303	2,000.24	83.0961	2,000.24	80.4355	2,000.24	83.2962	2,000.24	81.6864	2,000.24	78.3381	2,000.24	76.1705	2,000.24	80.3166	2,000.24	50.3011	2,000.24	80.3573	2,000.24	80.9629	2,000.24	73.3946	2,000.24	82.1319	2,000.24	75.2958
2,070.56	97.8677	2,070.56	96.7187	2,070.56	96.8018	2,070.56	94.1167	2,070.56	93.1508	2,070.56	91.2293	2,070.56	90.8111	2,070.56	90.1283	2,070.56	90.2462	2,070.56	89.0987	2,070.56	90.0968	2,070.56	86.2464	2,070.56	92.0433	2,070.56	83.2326	2,070.56	91.6771	2,070.56	84.0236	2,070.56	88.0531	2,070.56	84.3595	2,070.56	82.6212	2,070.56	82.8984	2,070.56	85.4402	2,070.56	82.3119	2,070.56	86.5333	2,070.56	79.5072	2,070.56	83.447	2,070.56	80.0151	2,070.56	82.9513	2,070.56	79.882	2,070.56	80.4854	2,070.56	78.1009	2,070.56	71.514	2,070.56	77.0243	2,070.56	77.3067	2,070.56	73.8921	2,070.56	80.9827	2,070.56	77.4756
2,143.8	97.1147	2,143.8	96.7313	2,143.8	95.8691	2,143.8	94.0957	2,143.8	94.0668	2,143.8	90.0462	2,143.8	92.4449	2,143.8	87.529	2,143.8	89.7793	2,143.8	86.0601	2,143.8	91.3672	2,143.8	83.6441	2,143.8	92.7494	2,143.8	82.2949	2,143.8	90.4994	2,143.8	81.453	2,143.8	87.0029	2,143.8	79.3098	2,143.8	83.9499	2,143.8	77.8362	2,143.8	81.849	2,143.8	76.163	2,143.8	86.47	2,143.8	76.231	2,143.8	84.9741	2,143.8	78.2068	2,143.8	85.1445	2,143.8	80.0344	2,143.8	84.2059	2,143.8	79.645	2,143.8	81.4328	2,143.8	76.186	2,143.8	55.2841	2,143.8	72.706	2,143.8	73.6451	2,143.8	72.7072
2,219.24	95.3926	2,219.24	94.6528	2,219.24	95.6018	2,219.24	92.7047	2,219.24	94.6708	2,219.24	88.0744	2,219.24	91.7405	2,219.24	85.8906	2,219.24	88.9608	2,219.24	85.4546	2,219.24	93.4921	2,219.24	84.8206	2,219.24	93.5226	2,219.24	84.3598	2,219.24	89.5037	2,219.24	84.0366	2,219.24	85.7109	2,219.24	79.5826	2,219.24	86.7832	2,219.24	72.6773	2,219.24	83.4231	2,219.24	76.8414	2,219.24	84.6769	2,219.24	77.4724	2,219.24	82.3747	2,219.24	78.9899	2,219.24	82.4278	2,219.24	81.3836	2,219.24	82.8747	2,219.24	80.6482	2,219.24	83.0096	2,219.24	76.1765	2,219.24	81.3288	2,219.24	68.7947	2,219.24	80.2713	2,219.24	74.9959
2,297.61	98.1839	2,297.61	95.8459	2,297.61	97.5515	2,297.61	91.9077	2,297.61	93.758	2,297.61	87.9605	2,297.61	86.0904	2,297.61	87.1965	2,297.61	90.4963	2,297.61	88.1583	2,297.61	93.9307	2,297.61	86.8012	2,297.61	92.4872	2,297.61	84.057	2,297.61	90.282	2,297.61	82.9858	2,297.61	88.7813	2,297.61	81.9093	2,297.61	85.1162	2,297.61	81.9911	2,297.61	81.6525	2,297.61	83.1867	2,297.61	81.0961	2,297.61	82.4333	2,297.61	81.68	2,297.61	81.7858	2,297.61	78.7652	2,297.61	80.6414	2,297.61	78.3067	2,297.61	79.859	2,297.61	69.0986	2,297.61	76.3059	2,297.61	81.5329	2,297.61	69.8297	2,297.61	82.9863	2,297.61	76.3471
2,378.17	98.8322	2,378.17	96.772	2,378.17	97.8574	2,378.17	90.8748	2,378.17	93.6911	2,378.17	85.2389	2,378.17	88.919	2,378.17	83.3229	2,378.17	90.753	2,378.17	85.2322	2,378.17	93.3056	2,378.17	87.6198	2,378.17	93.1108	2,378.17	86.4665	2,378.17	89.5285	2,378.17	84.6847	2,378.17	87.4073	2,378.17	83.5744	2,378.17	82.6839	2,378.17	80.4267	2,378.17	74.0619	2,378.17	79.7607	2,378.17	81.7351	2,378.17	80.7305	2,378.17	82.1482	2,378.17	82.6494	2,378.17	79.9566	2,378.17	82.5615	2,378.17	81.3654	2,378.17	83.7561	2,378.17	78.8659	2,378.17	81.6391	2,378.17	59.2606	2,378.17	65.8846	2,378.17	70.6731	2,378.17	71.986
2,462.4	97.5208	2,462.4	95.6861	2,462.4	96.8767	2,462.4	90.3316	2,462.4	92.9205	2,462.4	80.5381	2,462.4	88.076	2,462.4	87.0883	2,462.4	92.0042	2,462.4	89.3387	2,462.4	93.7907	2,462.4	89.5145	2,462.4	93.5085	2,462.4	87.5719	2,462.4	90.6974	2,462.4	86.3191	2,462.4	86.6825	2,462.4	85.7021	2,462.4	84.8595	2,462.4	82.9411	2,462.4	80.0846	2,462.4	82.7322	2,462.4	76.0299	2,462.4	80.7472	2,462.4	80.445	2,462.4	79.9934	2,462.4	80.4443	2,462.4	80.5989	2,462.4	78.8637	2,462.4	81.3897	2,462.4	75.7161	2,462.4	79.261	2,462.4	60.2452	2,462.4	65.8954	2,462.4	79.3024	2,462.4	72.2511
2,548.83	97.4049	2,548.83	95.2924	2,548.83	96.2675	2,548.83	89.8154	2,548.83	91.1537	2,548.83	79.7396	2,548.83	85.4621	2,548.83	88.1198	2,548.83	91.8358	2,548.83	89.4367	2,548.83	93.6818	2,548.83	88.3658	2,548.83	92.8109	2,548.83	87.4403	2,548.83	90.6337	2,548.83	85.362	2,548.83	87.5873	2,548.83	83.9252	2,548.83	84.7735	2,548.83	82.5113	2,548.83	80.4769	2,548.83	81.4054	2,548.83	77.5123	2,548.83	81.1717	2,548.83	80.4239	2,548.83	80.3978	2,548.83	81.5427	2,548.83	81.158	2,548.83	80.6347	2,548.83	81.5484	2,548.83	77.2318	2,548.83	79.1853	2,548.83	60.6278	2,548.83	67.7144	2,548.83	77.1503	2,548.83	68.5528
2,638.92	97.9519	2,638.92	95.2975	2,638.92	96.6355	2,638.92	86.768	2,638.92	90.0779	2,638.92	78.9326	2,638.92	84.9186	2,638.92	88.1305	2,638.92	92.1038	2,638.92	90.0399	2,638.92	94.1228	2,638.92	90.204	2,638.92	93.2299	2,638.92	89.5277	2,638.92	90.0737	2,638.92	87.6849	2,638.92	87.3983	2,638.92	86.3317	2,638.92	84.7628	2,638.92	84.4151	2,638.92	80.0419	2,638.92	82.9047	2,638.92	77.9098	2,638.92	81.8576	2,638.92	82.2079	2,638.92	81.0501	2,638.92	80.6778	2,638.92	81.8222	2,638.92	81.8418	2,638.92	81.9894	2,638.92	78.6126	2,638.92	80.0619	2,638.92	66.489	2,638.92	68.2466	2,638.92	79.9906	2,638.92	73.0088
2,731.93	97.435	2,731.93	95.2687	2,731.93	96.1608	2,731.93	87.3808	2,731.93	89.397	2,731.93	80.8249	2,731.93	84.5575	2,731.93	89.3723	2,731.93	92.6978	2,731.93	91.8889	2,731.93	94.2053	2,731.93	91.6503	2,731.93	93.413	2,731.93	89.9957	2,731.93	90.0639	2,731.93	87.8483	2,731.93	86.1974	2,731.93	86.1774	2,731.93	83.702	2,731.93	84.6978	2,731.93	76.3116	2,731.93	82.7238	2,731.93	77.9806	2,731.93	81.5352	2,731.93	81.3435	2,731.93	79.387	2,731.93	80.0431	2,731.93	81.1426	2,731.93	80.6888	2,731.93	81.4188	2,731.93	78.032	2,731.93	79.9375	2,731.93	70.6153	2,731.93	70.2121	2,731.93	79.7461	2,731.93	70.155
2,828.61	98.0302	2,828.61	95.6264	2,828.61	96.1031	2,828.61	87.3978	2,828.61	87.6722	2,828.61	84.9441	2,828.61	84.9694	2,828.61	91.0665	2,828.61	92.8567	2,828.61	92.1232	2,828.61	93.9174	2,828.61	91.3461	2,828.61	92.8828	2,828.61	90.1713	2,828.61	90.5138	2,828.61	88.3263	2,828.61	87.7252	2,828.61	85.7016	2,828.61	83.8505	2,828.61	84.1229	2,828.61	73.6056	2,828.61	81.9714	2,828.61	80.3444	2,828.61	82.3043	2,828.61	82.0058	2,828.61	80.3027	2,828.61	79.4106	2,828.61	81.5539	2,828.61	81.2946	2,828.61	82.08	2,828.61	78.3715	2,828.61	80.5944	2,828.61	71.9128	2,828.61	68.4922	2,828.61	79.2214	2,828.61	72.1776
2,928.22	98.0787	2,928.22	95.7185	2,928.22	96.4881	2,928.22	89.2341	2,928.22	87.4752	2,928.22	87.0499	2,928.22	87.2459	2,928.22	91.7302	2,928.22	93.5178	2,928.22	93.2972	2,928.22	94.0651	2,928.22	92.9868	2,928.22	92.4785	2,928.22	90.6986	2,928.22	89.1443	2,928.22	88.5804	2,928.22	86.4182	2,928.22	87.2693	2,928.22	80.8945	2,928.22	85.8719	2,928.22	69.5226	2,928.22	83.9447	2,928.22	74.3935	2,928.22	82.5573	2,928.22	80.3468	2,928.22	80.8682	2,928.22	79.704	2,928.22	81.1568	2,928.22	77.7006	2,928.22	81.6243	2,928.22	75.5846	2,928.22	80.1345	2,928.22	73.4695	2,928.22	70.508	2,928.22	78.4976	2,928.22	73.8474
3,031.49	97.496	3,031.49	95.7794	3,031.49	95.3722	3,031.49	89.8377	3,031.49	87.2755	3,031.49	87.8758	3,031.49	89.2228	3,031.49	93.2649	3,031.49	94.2859	3,031.49	94.0231	3,031.49	94.2591	3,031.49	92.333	3,031.49	92.486	3,031.49	90.6363	3,031.49	88.8711	3,031.49	88.846	3,031.49	84.864	3,031.49	86.5033	3,031.49	77.6083	3,031.49	84.1633	3,031.49	67.2504	3,031.49	82.5955	3,031.49	73.9257	3,031.49	81.4015	3,031.49	78.0763	3,031.49	80.3107	3,031.49	80.1555	3,031.49	80.461	3,031.49	77.9143	3,031.49	81.4915	3,031.49	72.3205	3,031.49	79.3429	3,031.49	77.0092	3,031.49	71.1287	3,031.49	78.0426	3,031.49	74.9589
3,138.43	97.7762	3,138.43	96.4944	3,138.43	94.8342	3,138.43	90.3623	3,138.43	87.5546	3,138.43	89.6209	3,138.43	91.0813	3,138.43	93.7229	3,138.43	93.8511	3,138.43	93.6051	3,138.43	93.7561	3,138.43	92.1682	3,138.43	92.208	3,138.43	90.1578	3,138.43	88.8558	3,138.43	87.5172	3,138.43	84.5238	3,138.43	85.8755	3,138.43	80.3812	3,138.43	85.1576	3,138.43	56.2576	3,138.43	83.5086	3,138.43	78.7674	3,138.43	81.715	3,138.43	80.0198	3,138.43	81.1663	3,138.43	77.583	3,138.43	80.1533	3,138.43	75.809	3,138.43	81.2339	3,138.43	67.6133	3,138.43	78.8749	3,138.43	78.1776	3,138.43	70.8439	3,138.43	77.5282	3,138.43	74.6747
3,249.02	97.6654	3,249.02	96.3865	3,249.02	93.9419	3,249.02	90.0885	3,249.02	87.9324	3,249.02	91.2769	3,249.02	93.116	3,249.02	93.8437	3,249.02	93.7848	3,249.02	93.706	3,249.02	92.2696	3,249.02	92.129	3,249.02	91.6401	3,249.02	89.702	3,249.02	89.9612	3,249.02	88.2934	3,249.02	87.459	3,249.02	87.6638	3,249.02	83.8824	3,249.02	85.0757	3,249.02	71.4243	3,249.02	82.6849	3,249.02	82.5937	3,249.02	80.9988	3,249.02	79.3869	3,249.02	80.0556	3,249.02	80.0145	3,249.02	78.727	3,249.02	75.5893	3,249.02	80.218	3,249.02	69.0836	3,249.02	78.0943	3,249.02	77.8343	3,249.02	72.8731	3,249.02	76.9191	3,249.02	71.4763
3,363.28	97.201	3,363.28	96.0313	3,363.28	93.002	3,363.28	90.6035	3,363.28	88.4778	3,363.28	91.5283	3,363.28	94.1024	3,363.28	93.8334	3,363.28	94.4203	3,363.28	93.4037	3,363.28	91.3814	3,363.28	91.2963	3,363.28	90.6845	3,363.28	89.9229	3,363.28	89.8839	3,363.28	86.9775	3,363.28	89.6195	3,363.28	83.7583	3,363.28	86.3954	3,363.28	83.406	3,363.28	81.6009	3,363.28	82.607	3,363.28	81.342	3,363.28	81.4222	3,363.28	81.6323	3,363.28	79.7835	3,363.28	78.0893	3,363.28	77.8009	3,363.28	74.9312	3,363.28	79.8746	3,363.28	69.3387	3,363.28	78.4207	3,363.28	78.4883	3,363.28	69.6744	3,363.28	75.9561	3,363.28	72.4624
3,481.93	97.3923	3,481.93	95.5981	3,481.93	92.75	3,481.93	89.9545	3,481.93	88.8876	3,481.93	92.7069	3,481.93	94.568	3,481.93	93.9224	3,481.93	94.5071	3,481.93	93.1241	3,481.93	90.4602	3,481.93	91.7732	3,481.93	89.864	3,481.93	88.6626	3,481.93	89.2633	3,481.93	86.7689	3,481.93	90.161	3,481.93	86.3376	3,481.93	87.0971	3,481.93	84.374	3,481.93	82.7024	3,481.93	82.3226	3,481.93	82.9494	3,481.93	80.7747	3,481.93	78.9485	3,481.93	79.8795	3,481.93	78.0803	3,481.93	76.9691	3,481.93	75.9636	3,481.93	78.6851	3,481.93	69.4139	3,481.93	76.7462	3,481.93	78.4123	3,481.93	70.6943	3,481.93	74.15	3,481.93	72.6334
3,604.98	97.4514	3,604.98	95.4074	3,604.98	93.0926	3,604.98	91.1495	3,604.98	89.2595	3,604.98	92.6527	3,604.98	94.6714	3,604.98	93.7714	3,604.98	94.1712	3,604.98	93.1057	3,604.98	89.9687	3,604.98	90.3932	3,604.98	89.8587	3,604.98	87.9872	3,604.98	89.6364	3,604.98	86.2252	3,604.98	88.9379	3,604.98	82.5003	3,604.98	86.1522	3,604.98	81.831	3,604.98	85.1371	3,604.98	80.9397	3,604.98	83.7592	3,604.98	79.7763	3,604.98	76.9517	3,604.98	77.7861	3,604.98	77.1316	3,604.98	76.8353	3,604.98	75.191	3,604.98	76.719	3,604.98	66.8036	3,604.98	75.4371	3,604.98	76.2106	3,604.98	74.1458	3,604.98	72.4941	3,604.98	70.5061
3,732.42	96.9675	3,732.42	94.7791	3,732.42	92.6627	3,732.42	91.8294	3,732.42	90.3849	3,732.42	92.9103	3,732.42	95.1884	3,732.42	93.782	3,732.42	93.6347	3,732.42	92.4907	3,732.42	89.422	3,732.42	89.7645	3,732.42	90.0275	3,732.42	87.1229	3,732.42	90.206	3,732.42	83.2999	3,732.42	89.1095	3,732.42	82.9551	3,732.42	82.449	3,732.42	82.0868	3,732.42	84.41	3,732.42	79.8326	3,732.42	85.4917	3,732.42	79.6103	3,732.42	76.2408	3,732.42	78.5439	3,732.42	75.8634	3,732.42	76.8967	3,732.42	73.4943	3,732.42	77.1562	3,732.42	65.6125	3,732.42	75.2494	3,732.42	76.014	3,732.42	70.6891	3,732.42	72.0618	3,732.42	65.6689
3,863.53	96.9302	3,863.53	94.6349	3,863.53	92.9421	3,863.53	91.9597	3,863.53	89.7433	3,863.53	93.0657	3,863.53	95.6346	3,863.53	93.9268	3,863.53	94.0323	3,863.53	92.0552	3,863.53	87.8698	3,863.53	88.7824	3,863.53	90.849	3,863.53	85.938	3,863.53	90.0692	3,863.53	86.971	3,863.53	88.4404	3,863.53	84.9797	3,863.53	79.7723	3,863.53	83.216	3,863.53	82.5634	3,863.53	81.3473	3,863.53	82.5398	3,863.53	79.6814	3,863.53	74.9819	3,863.53	78.0301	3,863.53	76.4354	3,863.53	77.2361	3,863.53	69.9284	3,863.53	77.0887	3,863.53	66.0544	3,863.53	76.6863	3,863.53	75.9499	3,863.53	71.1317	3,863.53	71.1811	3,863.53	67.1489
3,999.76	97.3863	3,999.76	95.388	3,999.76	94.1079	3,999.76	92.6673	3,999.76	89.1869	3,999.76	93.621	3,999.76	95.2649	3,999.76	94.0839	3,999.76	93.8403	3,999.76	91.3091	3,999.76	88.5013	3,999.76	88.4823	3,999.76	90.8784	3,999.76	88.2649	3,999.76	90.5801	3,999.76	84.9294	3,999.76	87.5483	3,999.76	82.81	3,999.76	78.7744	3,999.76	81.8531	3,999.76	77.9611	3,999.76	80.6146	3,999.76	77.8854	3,999.76	79.9782	3,999.76	74.6716	3,999.76	78.6304	3,999.76	75.7455	3,999.76	78.2779	3,999.76	70.605	3,999.76	77.9888	3,999.76	58.2232	3,999.76	76.6513	3,999.76	72.6853	3,999.76	75.2671	3,999.76	71.3941	3,999.76	65.0027
4,141.11	97.1287	4,141.11	95.3792	4,141.11	94.8582	4,141.11	93.0243	4,141.11	90.1274	4,141.11	94.5041	4,141.11	94.3417	4,141.11	93.8161	4,141.11	93.2632	4,141.11	91.4284	4,141.11	86.5138	4,141.11	90.8119	4,141.11	90.9434	4,141.11	88.081	4,141.11	90.0521	4,141.11	87.5124	4,141.11	83.5843	4,141.11	86.0645	4,141.11	74.7738	4,141.11	83.4339	4,141.11	74.5255	4,141.11	81.5458	4,141.11	83.7573	4,141.11	79.4221	4,141.11	72.7657	4,141.11	78.4424	4,141.11	74.324	4,141.11	77.4022	4,141.11	72.3822	4,141.11	78.7614	4,141.11	60.1028	4,141.11	76.8017	4,141.11	72.9327	4,141.11	72.0491	4,141.11	70.416	4,141.11	44.1765
4,286.87	97.9047	4,286.87	95.9397	4,286.87	95.5252	4,286.87	93.0651	4,286.87	92.3089	4,286.87	94.7427	4,286.87	95.0016	4,286.87	93.5507	4,286.87	92.7822	4,286.87	92.1407	4,286.87	86.813	4,286.87	90.3846	4,286.87	88.9789	4,286.87	88.7318	4,286.87	89.7149	4,286.87	84.6055	4,286.87	84.9859	4,286.87	80.5297	4,286.87	83.9676	4,286.87	80.9327	4,286.87	79.9542	4,286.87	79.7157	4,286.87	84.4837	4,286.87	78.9555	4,286.87	72.5829	4,286.87	77.5578	4,286.87	69.1597	4,286.87	76.2683	4,286.87	67.9463	4,286.87	77.4675	4,286.87	62.3767	4,286.87	77.2166	4,286.87	71.8622	4,286.87	72.425	4,286.87	71.027	4,286.87	50.6063
4,438.48	98.0143	4,438.48	95.9208	4,438.48	96.1022	4,438.48	94.3462	4,438.48	92.6088	4,438.48	94.7741	4,438.48	95.6188	4,438.48	93.5726	4,438.48	93.9906	4,438.48	92.442	4,438.48	87.2223	4,438.48	90.2991	4,438.48	89.1998	4,438.48	86.5975	4,438.48	88.5574	4,438.48	85.399	4,438.48	84.6473	4,438.48	84.2191	4,438.48	84.3928	4,438.48	80.961	4,438.48	82.583	4,438.48	80.2887	4,438.48	83.7822	4,438.48	77.5998	4,438.48	74.5648	4,438.48	76.9973	4,438.48	71.6286	4,438.48	76.7767	4,438.48	66.3605	4,438.48	76.9316	4,438.48	65.1734	4,438.48	77.5057	4,438.48	72.9101	4,438.48	73.6344	4,438.48	70.4225	4,438.48	57.5974
4,594.48	98.3176	4,594.48	96.3081	4,594.48	97.2479	4,594.48	95.0867	4,594.48	94.0873	4,594.48	95.4029	4,594.48	94.1838	4,594.48	93.6757	4,594.48	93.8932	4,594.48	92.2861	4,594.48	88.3817	4,594.48	88.9837	4,594.48	90.2221	4,594.48	87.5393	4,594.48	89.2766	4,594.48	84.2479	4,594.48	89.1316	4,594.48	82.4916	4,594.48	85.2601	4,594.48	80.7482	4,594.48	79.0983	4,594.48	80.0135	4,594.48	78.5872	4,594.48	78.8505	4,594.48	70.4142	4,594.48	77.1053	4,594.48	76.6519	4,594.48	77.5371	4,594.48	71.1	4,594.48	77.7079	4,594.48	65.1239	4,594.48	78.8812	4,594.48	74.0224	4,594.48	72.9986	4,594.48	67.7549	4,594.48	62.7439
4,757.08	98.7213	4,757.08	96.9969	4,757.08	97.385	4,757.08	95.6809	4,757.08	96.6904	4,757.08	95.2263	4,757.08	94.5857	4,757.08	94.216	4,757.08	94.0298	4,757.08	91.3406	4,757.08	87.1137	4,757.08	90.5166	4,757.08	89.064	4,757.08	88.0029	4,757.08	91.113	4,757.08	87.1452	4,757.08	89.8527	4,757.08	83.902	4,757.08	86.8837	4,757.08	80.9805	4,757.08	76.7732	4,757.08	79.9453	4,757.08	81.8291	4,757.08	76.4442	4,757.08	65.9932	4,757.08	77.6983	4,757.08	79.1044	4,757.08	75.3718	4,757.08	74.05	4,757.08	76.6601	4,757.08	65.1865	4,757.08	78.824	4,757.08	69.2653	4,757.08	74.5252	4,757.08	71.3248	4,757.08	60.9807
4,924.8	98.9404	4,924.8	97.1277	4,924.8	97.7057	4,924.8	96.1176	4,924.8	97.0951	4,924.8	95.394	4,924.8	95.6981	4,924.8	93.8031	4,924.8	93.89	4,924.8	91.9253	4,924.8	89.2432	4,924.8	90.254	4,924.8	89.4736	4,924.8	88.8172	4,924.8	91.7081	4,924.8	84.6632	4,924.8	89.6954	4,924.8	83.1061	4,924.8	83.4758	4,924.8	80.5885	4,924.8	76.5786	4,924.8	78.7225	4,924.8	80.0476	4,924.8	78.369	4,924.8	71.6946	4,924.8	75.9893	4,924.8	76.7008	4,924.8	76.3251	4,924.8	71.3091	4,924.8	76.7507	4,924.8	58.6035	4,924.8	78.063	4,924.8	70.5618	4,924.8	75.2354	4,924.8	72.1181	4,924.8	60.5311
5,098.39	98.8036	5,098.39	97.2313	5,098.39	97.7124	5,098.39	95.7056	5,098.39	97.3696	5,098.39	95.5199	5,098.39	95.021	5,098.39	93.5746	5,098.39	94.4229	5,098.39	91.8578	5,098.39	89.6852	5,098.39	90.6226	5,098.39	87.4118	5,098.39	86.2891	5,098.39	91.3771	5,098.39	84.7858	5,098.39	88.2663	5,098.39	80.8327	5,098.39	81.0125	5,098.39	78.7861	5,098.39	54.3222	5,098.39	77.5437	5,098.39	80.103	5,098.39	74.6312	5,098.39	71.543	5,098.39	75.6237	5,098.39	74.0807	5,098.39	74.3166	5,098.39	70.1434	5,098.39	74.8255	5,098.39	67.2096	5,098.39	77.2896	5,098.39	73.2633	5,098.39	73.677	5,098.39	68.8591	5,098.39	63.673
5,277.83	98.134	5,277.83	96.7131	5,277.83	97.4384	5,277.83	96.0616	5,277.83	98.2587	5,277.83	95.356	5,277.83	95.6624	5,277.83	93.0226	5,277.83	93.9273	5,277.83	91.5916	5,277.83	89.9473	5,277.83	87.9427	5,277.83	85.1183	5,277.83	85.7339	5,277.83	89.4923	5,277.83	83.118	5,277.83	85.1602	5,277.83	82.7606	5,277.83	81.7047	5,277.83	79.0014	5,277.83	76.7437	5,277.83	77.5171	5,277.83	79.6636	5,277.83	77.0878	5,277.83	66.458	5,277.83	74.7541	5,277.83	65.6807	5,277.83	74.8176	5,277.83	65.2239	5,277.83	74.1166	5,277.83	69.9235	5,277.83	76.2684	5,277.83	69.8086	5,277.83	74.778	5,277.83	68.5236	5,277.83	65.408
5,463.87	98.0783	5,463.87	96.4805	5,463.87	96.9079	5,463.87	95.7094	5,463.87	97.7757	5,463.87	95.1989	5,463.87	95.798	5,463.87	93.2818	5,463.87	93.6802	5,463.87	91.0757	5,463.87	91.3572	5,463.87	86.7638	5,463.87	83.6317	5,463.87	85.4118	5,463.87	88.4052	5,463.87	83.9283	5,463.87	85.111	5,463.87	79.966	5,463.87	82.0586	5,463.87	78.4212	5,463.87	78.3481	5,463.87	75.7123	5,463.87	79.2475	5,463.87	75.0952	5,463.87	68.0953	5,463.87	74.5618	5,463.87	61.0287	5,463.87	73.2153	5,463.87	72.1541	5,463.87	74.217	5,463.87	68.4943	5,463.87	76.1587	5,463.87	68.695	5,463.87	73.4803	5,463.87	69.7261	5,463.87	68.6334
5,656.49	97.7067	5,656.49	96.0041	5,656.49	96.5443	5,656.49	96.56	5,656.49	97.8271	5,656.49	94.8168	5,656.49	96.0544	5,656.49	93.8807	5,656.49	94.0418	5,656.49	90.2942	5,656.49	90.6181	5,656.49	87.4383	5,656.49	83.536	5,656.49	83.8314	5,656.49	86.8623	5,656.49	82.3644	5,656.49	84.6187	5,656.49	80.5052	5,656.49	78.8737	5,656.49	77.5467	5,656.49	75.7278	5,656.49	74.6973	5,656.49	79.613	5,656.49	73.5656	5,656.49	68.3223	5,656.49	73.5229	5,656.49	62.065	5,656.49	73.3305	5,656.49	64.6939	5,656.49	72.1531	5,656.49	71.0475	5,656.49	75.2613	5,656.49	65.6711	5,656.49	72.8906	5,656.49	68.9363	5,656.49	66.27
5,856.45	97.1937	5,856.45	96.5945	5,856.45	95.819	5,856.45	96.3079	5,856.45	97.5729	5,856.45	95.4336	5,856.45	96.3413	5,856.45	93.874	5,856.45	93.7321	5,856.45	90.4387	5,856.45	90.8021	5,856.45	86.7014	5,856.45	84.2563	5,856.45	82.7066	5,856.45	84.4561	5,856.45	79.7456	5,856.45	82.6797	5,856.45	79.3815	5,856.45	80.6726	5,856.45	75.8601	5,856.45	65.5445	5,856.45	74.1926	5,856.45	76.1908	5,856.45	71.3455	5,856.45	64.8968	5,856.45	70.1091	5,856.45	67.0263	5,856.45	70.8399	5,856.45	65.9371	5,856.45	71.5959	5,856.45	68.2626	5,856.45	75.2164	5,856.45	65.8537	5,856.45	71.4267	5,856.45	67.5388	5,856.45	65.1246
6,062.99	97.5565	6,062.99	97.5767	6,062.99	96.2918	6,062.99	96.8785	6,062.99	96.6902	6,062.99	95.7014	6,062.99	96.2836	6,062.99	93.4413	6,062.99	94.2392	6,062.99	90.8478	6,062.99	91.3058	6,062.99	86.1551	6,062.99	82.2767	6,062.99	83.4066	6,062.99	83.6224	6,062.99	79.7911	6,062.99	82.8581	6,062.99	77.6781	6,062.99	80.9785	6,062.99	77.4451	6,062.99	69.1393	6,062.99	74.598	6,062.99	73.9767	6,062.99	71.8921	6,062.99	61.3334	6,062.99	71.0059	6,062.99	65.8487	6,062.99	71.2151	6,062.99	66.6244	6,062.99	72.4151	6,062.99	69.597	6,062.99	75.4542	6,062.99	67.3343	6,062.99	72.5648	6,062.99	62.1657	6,062.99	69.1904
6,276.86	98.8015	6,276.86	98.4627	6,276.86	97.0832	6,276.86	96.8368	6,276.86	96.1989	6,276.86	95.6509	6,276.86	95.9449	6,276.86	92.8385	6,276.86	94.7983	6,276.86	90.2682	6,276.86	91.7029	6,276.86	87.0373	6,276.86	84.262	6,276.86	83.9489	6,276.86	84.5597	6,276.86	80.8332	6,276.86	82.24	6,276.86	77.4232	6,276.86	79.9229	6,276.86	75.18	6,276.86	73.0078	6,276.86	74.4359	6,276.86	69.8015	6,276.86	72.1296	6,276.86	57.2097	6,276.86	70.551	6,276.86	65.8373	6,276.86	70.6163	6,276.86	70.4939	6,276.86	71.0184	6,276.86	69.089	6,276.86	74.6588	6,276.86	62.1618	6,276.86	72.9894	6,276.86	67.6662	6,276.86	68.8114
6,498.05	98.664	6,498.05	98.099	6,498.05	97.6026	6,498.05	97.256	6,498.05	96.2459	6,498.05	95.0137	6,498.05	95.1589	6,498.05	92.3585	6,498.05	94.1225	6,498.05	89.3766	6,498.05	92.0199	6,498.05	86.9029	6,498.05	83.7899	6,498.05	83.3266	6,498.05	83.1477	6,498.05	80.2535	6,498.05	80.8577	6,498.05	78.5002	6,498.05	80.4626	6,498.05	74.5761	6,498.05	69.7794	6,498.05	75.6026	6,498.05	65.471	6,498.05	72.3617	6,498.05	66.734	6,498.05	70.4848	6,498.05	68.2734	6,498.05	69.5352	6,498.05	72.113	6,498.05	70.1082	6,498.05	67.9491	6,498.05	75.1129	6,498.05	61.7934	6,498.05	72.6643	6,498.05	63.2744	6,498.05	66.7155
6,727.29	98.8695	6,727.29	98.8318	6,727.29	97.8672	6,727.29	97.3811	6,727.29	96.4153	6,727.29	94.9003	6,727.29	94.7632	6,727.29	92.1926	6,727.29	93.3241	6,727.29	89.0446	6,727.29	91.0912	6,727.29	85.1795	6,727.29	85.3683	6,727.29	83.1605	6,727.29	83.9198	6,727.29	80.2275	6,727.29	78.5635	6,727.29	77.7809	6,727.29	76.2943	6,727.29	75.2022	6,727.29	70.4047	6,727.29	73.2059	6,727.29	60.4776	6,727.29	74.0325	6,727.29	63.2791	6,727.29	69.8016	6,727.29	64.2292	6,727.29	69.4733	6,727.29	70.4013	6,727.29	65.9091	6,727.29	67.4906	6,727.29	73.9112	6,727.29	63.2788	6,727.29	73.0256	6,727.29	65.551	6,727.29	67.866
6,964.6	99.345	6,964.6	98.8014	6,964.6	98.2354	6,964.6	97.157	6,964.6	96.9215	6,964.6	95.239	6,964.6	94.5608	6,964.6	92.2788	6,964.6	93.0518	6,964.6	88.2707	6,964.6	90.8689	6,964.6	84.2158	6,964.6	84.7396	6,964.6	81.4474	6,964.6	82.1561	6,964.6	79.147	6,964.6	73.382	6,964.6	76.555	6,964.6	61.9637	6,964.6	73.4781	6,964.6	69.1932	6,964.6	73.4905	6,964.6	59.2632	6,964.6	72.0682	6,964.6	63.0942	6,964.6	69.6347	6,964.6	66.9497	6,964.6	70.6036	6,964.6	67.9771	6,964.6	66.427	6,964.6	67.0783	6,964.6	72.2112	6,964.6	63.5014	6,964.6	72.65	6,964.6	64.0023	6,964.6	67.7587
7,209.96	99.1873	7,209.96	98.2188	7,209.96	98.2543	7,209.96	97.2664	7,209.96	97.0211	7,209.96	95.0253	7,209.96	94.5588	7,209.96	91.967	7,209.96	92.2158	7,209.96	88.1585	7,209.96	90.5121	7,209.96	84.1962	7,209.96	84.1399	7,209.96	81.6177	7,209.96	78.4671	7,209.96	81.5696	7,209.96	76.3083	7,209.96	76.9836	7,209.96	68.3321	7,209.96	73.939	7,209.96	69.7174	7,209.96	72.0425	7,209.96	59.5893	7,209.96	71.8151	7,209.96	59.8094	7,209.96	67.775	7,209.96	63.943	7,209.96	68.6166	7,209.96	63.0153	7,209.96	65.8413	7,209.96	61.5282	7,209.96	72.1604	7,209.96	57.669	7,209.96	72.0103	7,209.96	66.0142	7,209.96	65.6193
7,464.11	98.4753	7,464.11	97.7922	7,464.11	98.0641	7,464.11	96.5277	7,464.11	97.2275	7,464.11	94.7469	7,464.11	94.776	7,464.11	90.9625	7,464.11	91.4762	7,464.11	87.7744	7,464.11	90.1935	7,464.11	84.0551	7,464.11	82.9945	7,464.11	82.2232	7,464.11	73.7147	7,464.11	77.905	7,464.11	80.196	7,464.11	77.1069	7,464.11	74.1496	7,464.11	73.8606	7,464.11	64.1332	7,464.11	70.5895	7,464.11	50.9628	7,464.11	68.9121	7,464.11	64.1013	7,464.11	70.3003	7,464.11	66.0571	7,464.11	65.83	7,464.11	66.243	7,464.11	64.8787	7,464.11	59.2665	7,464.11	69.4593	7,464.11	66.4421	7,464.11	68.5596	7,464.11	63.3749	7,464.11	65.9239
7,727.78	97.7403	7,727.78	97.0613	7,727.78	97.6989	7,727.78	96.257	7,727.78	96.9616	7,727.78	93.8521	7,727.78	94.6682	7,727.78	90.9724	7,727.78	90.6985	7,727.78	87.2984	7,727.78	89.4553	7,727.78	83.6076	7,727.78	83.9556	7,727.78	79.4812	7,727.78	74.0055	7,727.78	77.2106	7,727.78	82.9432	7,727.78	76.7137	7,727.78	73.0802	7,727.78	75.0426	7,727.78	72.7815	7,727.78	71.5845	7,727.78	65.9668	7,727.78	67.3535	7,727.78	63.8973	7,727.78	66.6834	7,727.78	65.1607	7,727.78	66.6564	7,727.78	67.3532	7,727.78	63.8495	7,727.78	62.3409	7,727.78	67.3939	7,727.78	58.3421	7,727.78	67.5635	7,727.78	62.7316	7,727.78	64.4081
8,000.24	97.5172	8,000.24	97.5008	8,000.24	97.3242	8,000.24	96.3713	8,000.24	96.4708	8,000.24	93.5397	8,000.24	94.4092	8,000.24	90.7471	8,000.24	89.666	8,000.24	86.2334	8,000.24	88.6993	8,000.24	82.6563	8,000.24	85.3391	8,000.24	80.7988	8,000.24	79.2554	8,000.24	78.9334	8,000.24	82.0897	8,000.24	76.5168	8,000.24	72.2542	8,000.24	70.7077	8,000.24	72.3884	8,000.24	71.0753	8,000.24	70.33	8,000.24	71.3728	8,000.24	64.1263	8,000.24	67.8536	8,000.24	56.8708	8,000.24	65.9144	8,000.24	66.5032	8,000.24	64.5313	8,000.24	60.9303	8,000.24	66.1333	8,000.24	60.0831	8,000.24	68.7908	8,000.24	59.1733	8,000.24	64.2024
8,282.23	98.838	8,282.23	98.6666	8,282.23	97.6004	8,282.23	96.7319	8,282.23	96.1425	8,282.23	93.5564	8,282.23	94.0642	8,282.23	89.486	8,282.23	89.3298	8,282.23	86.3658	8,282.23	87.3907	8,282.23	81.7745	8,282.23	84.0288	8,282.23	79.7022	8,282.23	76.4427	8,282.23	75.8108	8,282.23	77.7278	8,282.23	74.0539	8,282.23	68.4636	8,282.23	72.9169	8,282.23	66.6445	8,282.23	69.7427	8,282.23	68.7721	8,282.23	68.5421	8,282.23	63.6803	8,282.23	67.2533	8,282.23	61.683	8,282.23	62.8214	8,282.23	68.4546	8,282.23	62.7114	8,282.23	60.1234	8,282.23	66.9712	8,282.23	53.2945	8,282.23	67.5157	8,282.23	58.4871	8,282.23	64.6053
8,574.46	99.8459	8,574.46	99.1285	8,574.46	98.6665	8,574.46	96.8489	8,574.46	96.2754	8,574.46	92.6612	8,574.46	93.905	8,574.46	89.0528	8,574.46	89.5767	8,574.46	85.111	8,574.46	85.8962	8,574.46	80.9472	8,574.46	83.5083	8,574.46	77.0028	8,574.46	75.3585	8,574.46	76.2954	8,574.46	75.4525	8,574.46	72.9929	8,574.46	70.4858	8,574.46	72.2024	8,574.46	69.4013	8,574.46	69.1992	8,574.46	65.0058	8,574.46	65.9535	8,574.46	58.6712	8,574.46	67.7612	8,574.46	65.9933	8,574.46	63.91	8,574.46	65.9694	8,574.46	62.9613	8,574.46	59.971	8,574.46	66.1994	8,574.46	52.2826	8,574.46	67.3407	8,574.46	59.5431	8,574.46	66.0576
8,876.22	99.9985	8,876.22	99.0239	8,876.22	99.3497	8,876.22	96.608	8,876.22	97.0536	8,876.22	92.383	8,876.22	93.4833	8,876.22	88.1404	8,876.22	89.9652	8,876.22	84.6308	8,876.22	85.0073	8,876.22	79.5477	8,876.22	82.4453	8,876.22	78.2281	8,876.22	76.6309	8,876.22	75.4187	8,876.22	77.6707	8,876.22	72.2548	8,876.22	71.1687	8,876.22	70.7231	8,876.22	70.5437	8,876.22	67.5055	8,876.22	48.3442	8,876.22	65.3922	8,876.22	65.6038	8,876.22	63.6947	8,876.22	61.513	8,876.22	61.848	8,876.22	64.135	8,876.22	65.3214	8,876.22	59.7505	8,876.22	65.3871	8,876.22	52.3652	8,876.22	66.7607	8,876.22	59.9275	8,876.22	66.0539
9,189.7	98.9791	9,189.7	97.794	9,189.7	98.8051	9,189.7	95.5642	9,189.7	97.002	9,189.7	91.9663	9,189.7	92.9704	9,189.7	87.472	9,189.7	89.1609	9,189.7	82.5408	9,189.7	85.0798	9,189.7	78.9976	9,189.7	80.4224	9,189.7	76.3014	9,189.7	78.3131	9,189.7	74.2494	9,189.7	77.209	9,189.7	70.5959	9,189.7	69.8719	9,189.7	70.4712	9,189.7	70.1034	9,189.7	66.904	9,189.7	61.0037	9,189.7	64.6926	9,189.7	64.555	9,189.7	64.0503	9,189.7	54.3166	9,189.7	62.365	9,189.7	61.6189	9,189.7	63.7968	9,189.7	54.6245	9,189.7	63.8479	9,189.7	54.5381	9,189.7	61.2586	9,189.7	59.83	9,189.7	62.6303
9,513.43	98.037	9,513.43	96.6069	9,513.43	97.9502	9,513.43	94.7476	9,513.43	96.4019	9,513.43	91.703	9,513.43	92.4628	9,513.43	87.4192	9,513.43	88.1561	9,513.43	80.6274	9,513.43	84.2852	9,513.43	77.0671	9,513.43	77.6513	9,513.43	74.4444	9,513.43	75.7072	9,513.43	72.1553	9,513.43	75.2154	9,513.43	70.2285	9,513.43	70.8271	9,513.43	67.7862	9,513.43	64.1119	9,513.43	65.2748	9,513.43	62.9328	9,513.43	62.3492	9,513.43	60.3599	9,513.43	60.4703	9,513.43	57.6076	9,513.43	61.4124	9,513.43	59.6305	9,513.43	62.7339	9,513.43	47.8344	9,513.43	62.34	9,513.43	56.14	9,513.43	56.9392	9,513.43	56.3708	9,513.43	57.3843
9,848.88	97.9167	9,848.88	97.1308	9,848.88	97.2696	9,848.88	95.019	9,848.88	95.6351	9,848.88	91.3759	9,848.88	91.7644	9,848.88	87.2723	9,848.88	87.1151	9,848.88	79.3213	9,848.88	82.8129	9,848.88	73.8017	9,848.88	74.7513	9,848.88	73.0308	9,848.88	74.5475	9,848.88	71.4803	9,848.88	72.7496	9,848.88	68.7731	9,848.88	70.2498	9,848.88	65.0366	9,848.88	64.7553	9,848.88	63.2324	9,848.88	65.3909	9,848.88	57.9586	9,848.88	56.7971	9,848.88	56.2233	9,848.88	52.2952	9,848.88	60.2137	9,848.88	57.9819	9,848.88	62.3683	9,848.88	55.5381	9,848.88	60.6067	9,848.88	53.9748	9,848.88	53.6906	9,848.88	52.8798	9,848.88	50.5302
10,196.8	98.958	10,196.8	98.4589	10,196.8	97.537	10,196.8	95.535	10,196.8	95.2607	10,196.8	90.953	10,196.8	90.6895	10,196.8	84.995	10,196.8	85.124	10,196.8	76.1116	10,196.8	80.6045	10,196.8	72.5971	10,196.8	76.4941	10,196.8	72.387	10,196.8	77.017	10,196.8	71.712	10,196.8	71.608	10,196.8	69.813	10,196.8	69.8009	10,196.8	65.8657	10,196.8	60.2812	10,196.8	65.0165	10,196.8	61.4996	10,196.8	59.1456	10,196.8	61.9387	10,196.8	60.0435	10,196.8	43.2134	10,196.8	62.5671	10,196.8	51.5277	10,196.8	62.1861	10,196.8	51.5221	10,196.8	61.0225	10,196.8	52.5168	10,196.8	57.377	10,196.8	54.1593	10,196.8	46.4477
10,556.4	99.9762	10,556.4	98.687	10,556.4	98.0724	10,556.4	95.0812	10,556.4	95.3899	10,556.4	89.1813	10,556.4	89.6333	10,556.4	81.4403	10,556.4	83.2321	10,556.4	74.945	10,556.4	80.9994	10,556.4	77.5997	10,556.4	80.5855	10,556.4	74.4736	10,556.4	79.9583	10,556.4	74.0722	10,556.4	73.2187	10,556.4	73.0872	10,556.4	73.6333	10,556.4	68.9798	10,556.4	61.0817	10,556.4	67.337	10,556.4	61.2469	10,556.4	64.6067	10,556.4	64.7382	10,556.4	63.4924	10,556.4	55.163	10,556.4	61.1268	10,556.4	35.8872	10,556.4	64.9029	10,556.4	47.7005	10,556.4	64.9484	10,556.4	53.153	10,556.4	62.5892	10,556.4	52.2028	10,556.4	54.2549
10,928.5	100.118	10,928.5	97.7347	10,928.5	98.256	10,928.5	93.7385	10,928.5	95.1553	10,928.5	88.1213	10,928.5	89.703	10,928.5	80.5787	10,928.5	81.8445	10,928.5	80.5164	10,928.5	83.7772	10,928.5	78.744	10,928.5	83.8663	10,928.5	77.5099	10,928.5	81.9355	10,928.5	75.269	10,928.5	76.0086	10,928.5	72.4684	10,928.5	74.7391	10,928.5	70.7911	10,928.5	69.2107	10,928.5	65.0617	10,928.5	68.2582	10,928.5	66.7625	10,928.5	65.475	10,928.5	59.8982	10,928.5	52.4523	10,928.5	64.3037	10,928.5	50.241	10,928.5	65.5092	10,928.5	51.8151	10,928.5	64.6235	10,928.5	58.3061	10,928.5	61.701	10,928.5	54.9502	10,928.5	53.4356
11,313.7	99.7487	11,313.7	96.962	11,313.7	98.6146	11,313.7	93.5474	11,313.7	94.5725	11,313.7	88.3293	11,313.7	89.6219	11,313.7	83.406	11,313.7	84.6103	11,313.7	80.6803	11,313.7	84.3045	11,313.7	80.5195	11,313.7	84.9973	11,313.7	77.5201	11,313.7	81.8876	11,313.7	76.679	11,313.7	74.3948	11,313.7	74.2075	11,313.7	71.8684	11,313.7	71.1949	11,313.7	71.1375	11,313.7	66.8182	11,313.7	72.9999	11,313.7	64.9533	11,313.7	59.2694	11,313.7	58.7439	11,313.7	46.9627	11,313.7	65.4387	11,313.7	55.1082	11,313.7	66.064	11,313.7	50.1466	11,313.7	64.8063	11,313.7	59.8064	11,313.7	64.1035	11,313.7	60.7407	11,313.7	57.7416
11,712.9	98.7796	11,712.9	96.933	11,712.9	98.376	11,712.9	94.1615	11,712.9	94.1976	11,712.9	88.8989	11,712.9	89.5396	11,712.9	85.2017	11,712.9	86.1206	11,712.9	82.2755	11,712.9	84.0971	11,712.9	80.0977	11,712.9	85.7213	11,712.9	78.6366	11,712.9	81.5101	11,712.9	76.616	11,712.9	72.7067	11,712.9	73.8087	11,712.9	67.0129	11,712.9	70.6589	11,712.9	69.5674	11,712.9	67.791	11,712.9	75.0029	11,712.9	64.4229	11,712.9	66.317	11,712.9	59.67	11,712.9	54.3698	11,712.9	65.9034	11,712.9	62.0233	11,712.9	66.6582	11,712.9	57.5562	11,712.9	64.6786	11,712.9	59.0578	11,712.9	64.2471	11,712.9	57.2409	11,712.9	54.9582
12,126	98.6635	12,126	97.2688	12,126	97.8138	12,126	94.2977	12,126	94.3138	12,126	89.1056	12,126	89.2912	12,126	86.3096	12,126	86.4382	12,126	82.0938	12,126	83.2226	12,126	81.6128	12,126	85.1568	12,126	79.0557	12,126	80.6777	12,126	76.7896	12,126	70.3712	12,126	73.0482	12,126	72.4861	12,126	69.0816	12,126	67.251	12,126	66.6064	12,126	70.694	12,126	61.5589	12,126	65.2616	12,126	57.4793	12,126	55.7787	12,126	64.2062	12,126	57.4329	12,126	67.1358	12,126	53.8071	12,126	65.3223	12,126	56.5935	12,126	64.2551	12,126	55.7764	12,126	57.1878
12,553.7	99.3796	12,553.7	97.2416	12,553.7	97.7487	12,553.7	93.7376	12,553.7	94.6043	12,553.7	89.4367	12,553.7	90.0819	12,553.7	86.112	12,553.7	86.3096	12,553.7	82.8962	12,553.7	84.0556	12,553.7	81.6043	12,553.7	83.9121	12,553.7	78.3252	12,553.7	80.6998	12,553.7	74.6656	12,553.7	64.4426	12,553.7	72.4948	12,553.7	74.5013	12,553.7	68.303	12,553.7	66.8794	12,553.7	64.8029	12,553.7	63.0098	12,553.7	62.4621	12,553.7	59.8308	12,553.7	54.9134	12,553.7	59.8033	12,553.7	63.5093	12,553.7	53.3253	12,553.7	65.8681	12,553.7	50.0372	12,553.7	64.008	12,553.7	47.4742	12,553.7	60.7891	12,553.7	48.7031	12,553.7	55.8255
12,996.1	99.7085	12,996.1	97.4435	12,996.1	98.4593	12,996.1	93.778	12,996.1	94.8683	12,996.1	89.7204	12,996.1	90.9549	12,996.1	85.9979	12,996.1	86.4654	12,996.1	83.9123	12,996.1	84.2357	12,996.1	80.4395	12,996.1	82.9874	12,996.1	76.1566	12,996.1	79.9177	12,996.1	71.154	12,996.1	69.3871	12,996.1	70.7031	12,996.1	71.1407	12,996.1	67.8925	12,996.1	60.0211	12,996.1	63.0958	12,996.1	73.1386	12,996.1	61.4326	12,996.1	55.2777	12,996.1	59.9961	12,996.1	64.1545	12,996.1	64.3518	12,996.1	50.5273	12,996.1	62.9611	12,996.1	44.4095	12,996.1	57.6992	12,996.1	51.7005	12,996.1	56.8758	12,996.1	46.0002	12,996.1	54.5691
13,454.6	99.4762	13,454.6	98.0359	13,454.6	99.2946	13,454.6	94.2881	13,454.6	95.1825	13,454.6	89.8393	13,454.6	90.5679	13,454.6	85.7551	13,454.6	87.6942	13,454.6	84.4554	13,454.6	84.7791	13,454.6	78.2716	13,454.6	82.7093	13,454.6	73.681	13,454.6	76.8811	13,454.6	73.1438	13,454.6	69.7715	13,454.6	70.6124	13,454.6	64.2048	13,454.6	68.1672	13,454.6	62.7016	13,454.6	65.8384	13,454.6	74.6994	13,454.6	61.4254	13,454.6	64.3452	13,454.6	62.7658	13,454.6	65.2782	13,454.6	62.3838	13,454.6	59.1357	13,454.6	60.7081	13,454.6	56.0824	13,454.6	57.2211	13,454.6	58.1724	13,454.6	63.8884	13,454.6	57.5229	13,454.6	52.1895
13,928.5	98.6627	13,928.5	97.9467	13,928.5	98.8747	13,928.5	94.2202	13,928.5	95.78	13,928.5	89.6229	13,928.5	90.0615	13,928.5	86.3372	13,928.5	88.0523	13,928.5	83.8807	13,928.5	84.6279	13,928.5	76.6928	13,928.5	81.8179	13,928.5	74.0328	13,928.5	70.4205	13,928.5	73.6427	13,928.5	72.379	13,928.5	72.9136	13,928.5	65.5617	13,928.5	69.3273	13,928.5	61.1911	13,928.5	66.3612	13,928.5	73.0395	13,928.5	61.98	13,928.5	65.3772	13,928.5	61.6358	13,928.5	61.1673	13,928.5	61.9894	13,928.5	57.0668	13,928.5	65.173	13,928.5	51.5751	13,928.5	61.7887	13,928.5	58.2016	13,928.5	63.4752	13,928.5	51.2325	13,928.5	59.5267
14,419.9	98.3353	14,419.9	97.6378	14,419.9	97.5704	14,419.9	94.2421	14,419.9	95.4521	14,419.9	89.7646	14,419.9	90.5108	14,419.9	87.6753	14,419.9	87.9764	14,419.9	82.2696	14,419.9	84.4018	14,419.9	76.0791	14,419.9	78.2104	14,419.9	76.0802	14,419.9	68.6846	14,419.9	74.2039	14,419.9	72.5974	14,419.9	73.5419	14,419.9	60.8784	14,419.9	70.4459	14,419.9	53.7585	14,419.9	66.4118	14,419.9	65.0559	14,419.9	64.0265	14,419.9	60.867	14,419.9	60.5813	14,419.9	56.1082	14,419.9	64.1961	14,419.9	54.8013	14,419.9	65.8723	14,419.9	50.6196	14,419.9	61.9646	14,419.9	52.4608	14,419.9	63.5617	14,419.9	54.1922	14,419.9	55.8975
14,928.2	98.8201	14,928.2	97.4461	14,928.2	97.3692	14,928.2	93.983	14,928.2	94.9416	14,928.2	90.3907	14,928.2	90.7703	14,928.2	88.3177	14,928.2	87.9538	14,928.2	79.2538	14,928.2	83.3558	14,928.2	77.6577	14,928.2	71.3523	14,928.2	76.7562	14,928.2	74.7417	14,928.2	74.7665	14,928.2	71.2501	14,928.2	72.5296	14,928.2	59.7664	14,928.2	68.6432	14,928.2	52.1658	14,928.2	64.6757	14,928.2	54.6314	14,928.2	63.0109	14,928.2	50.815	14,928.2	60.7366	14,928.2	41.4646	14,928.2	64.2767	14,928.2	46.4275	14,928.2	64.5729	14,928.2	44.5675	14,928.2	60.4284	14,928.2	47.4938	14,928.2	60.0749	14,928.2	49.8596	14,928.2	56.5682
15,454.8	99.109	15,454.8	97.3881	15,454.8	97.7431	15,454.8	93.9601	15,454.8	94.6395	15,454.8	90.9735	15,454.8	91.0874	15,454.8	86.9457	15,454.8	87.3098	15,454.8	78.1512	15,454.8	80.8945	15,454.8	78.7986	15,454.8	74.5062	15,454.8	74.883	15,454.8	73.7213	15,454.8	72.7278	15,454.8	73.5369	15,454.8	69.3458	15,454.8	52.314	15,454.8	65.396	15,454.8	43.494	15,454.8	61.9475	15,454.8	62.9637	15,454.8	57.935	15,454.8	50.5166	15,454.8	60.446	15,454.8	46.2134	15,454.8	61.1488	15,454.8	54.8605	15,454.8	60.4248	15,454.8	48.2068	15,454.8	55.8941	15,454.8	44.7277	15,454.8	54.8361	15,454.8	44.6954	15,454.8	54.0409
15,999.8	98.71	15,999.8	97.1971	15,999.8	97.6136	15,999.8	94.4051	15,999.8	95.0074	15,999.8	91.0627	15,999.8	91.1005	15,999.8	84.3242	15,999.8	85.9986	15,999.8	78.9227	15,999.8	78.6687	15,999.8	77.3818	15,999.8	76.5365	15,999.8	72.32	15,999.8	73.4514	15,999.8	69.4826	15,999.8	68.5023	15,999.8	66.7795	15,999.8	51.7254	15,999.8	62.3387	15,999.8	51.9128	15,999.8	54.4189	15,999.8	62.0561	15,999.8	54.8051	15,999.8	53.5038	15,999.8	56.4899	15,999.8	47.3781	15,999.8	55.9697	15,999.8	53.4478	15,999.8	54.9638	15,999.8	48.122	15,999.8	48.8322	15,999.8	38.0677	15,999.8	41.63	15,999.8	36.6079	15,999.8	55.5568
16,564.5	98.257	16,564.5	97.2334	16,564.5	97.0914	16,564.5	94.6471	16,564.5	95.04	16,564.5	91.0496	16,564.5	90.8725	16,564.5	82.7154	16,564.5	84.7132	16,564.5	77.4488	16,564.5	76.9819	16,564.5	74.5762	16,564.5	75.8108	16,564.5	71.1534	16,564.5	70.0516	16,564.5	67.5076	16,564.5	66.2687	16,564.5	64.3674	16,564.5	43.3902	16,564.5	60.4412	16,564.5	52.3376	16,564.5	53.4957	16,564.5	62.8993	16,564.5	47.4782	16,564.5	58.7864	16,564.5	51.7215	16,564.5	52.8289	16,564.5	52.6175	16,564.5	53.3039	16,564.5	54.9414	16,564.5	48.0522	16,564.5	44.8638	16,564.5	47.3796	16,564.5	38.0883	16,564.5	46.1345	16,564.5	55.1502
17,148.2	98.9966	17,148.2	97.7576	17,148.2	97.2914	17,148.2	94.4551	17,148.2	94.5339	17,148.2	90.0931	17,148.2	90.425	17,148.2	82.0303	17,148.2	82.7207	17,148.2	74.6179	17,148.2	75.4082	17,148.2	70.1268	17,148.2	72.1614	17,148.2	68.9099	17,148.2	63.8112	17,148.2	65.9533	17,148.2	61.6811	17,148.2	61.7259	17,148.2	53.1135	17,148.2	57.0009	17,148.2	53.863	17,148.2	49.933	17,148.2	58.6789	17,148.2	40.9949	17,148.2	60.0867	17,148.2	48.7132	17,148.2	54.783	17,148.2	52.3019	17,148.2	51.4275	17,148.2	52.2611	17,148.2	43.0128	17,148.2	46.4785	17,148.2	49.1687	17,148.2	48.8452	17,148.2	49.6978	17,148.2	53.4904
17,753.2	99.713	17,753.2	98.1483	17,753.2	98.3861	17,753.2	93.689	17,753.2	94.2631	17,753.2	87.991	17,753.2	88.8606	17,753.2	79.2633	17,753.2	80.1228	17,753.2	68.2037	17,753.2	69.2606	17,753.2	62.4988	17,753.2	63.0565	17,753.2	59.5091	17,753.2	57.6464	17,753.2	59.9254	17,753.2	42.9234	17,753.2	53.9716	17,753.2	53.0405	17,753.2	48.9795	17,753.2	43.6104	17,753.2	47.0689	17,753.2	57.0917	17,753.2	50.1209	17,753.2	48.1252	17,753.2	46.2547	17,753.2	50.3024	17,753.2	51.9199	17,753.2	51.2504	17,753.2	39.9481	17,753.2	44.0035	17,753.2	48.6172	17,753.2	43.4747	17,753.2	52.2826	17,753.2	43.5398	17,753.2	53.1337
18,379.4	99.0737	18,379.4	97.2891	18,379.4	98.2014	18,379.4	92.6103	18,379.4	93.9587	18,379.4	85.9599	18,379.4	86.4364	18,379.4	73.8994	18,379.4	76.8758	18,379.4	58.6097	18,379.4	64.8769	18,379.4	55.9157	18,379.4	64.1226	18,379.4	53.4147	18,379.4	58.758	18,379.4	54.5212	18,379.4	57.5602	18,379.4	50.9188	18,379.4	44.5411	18,379.4	38.7733	18,379.4	55.1122	18,379.4	50.7084	18,379.4	67.2642	18,379.4	41.4636	18,379.4	58.7484	18,379.4	41.8268	18,379.4	52.0458	18,379.4	48.8018	18,379.4	50.0816	18,379.4	30.9737	18,379.4	50.4922	18,379.4	43.6936	18,379.4	42.0911	18,379.4	46.1832	18,379.4	41.7717	18,379.4	51.4666
19,027.6	97.9458	19,027.6	96.2007	19,027.6	96.632	19,027.6	90.8108	19,027.6	92.2237	19,027.6	83.5987	19,027.6	84.2336	19,027.6	69.259	19,027.6	73.2829	19,027.6	70.2736	19,027.6	69.6368	19,027.6	65.4988	19,027.6	68.0289	19,027.6	57.1035	19,027.6	65.4885	19,027.6	55.8321	19,027.6	60.7001	19,027.6	51.4347	19,027.6	50.6984	19,027.6	45.5023	19,027.6	50.646	19,027.6	43.1517	19,027.6	66.1115	19,027.6	45.0404	19,027.6	59.5344	19,027.6	44.103	19,027.6	44.4376	19,027.6	46.793	19,027.6	40.0589	19,027.6	42.102	19,027.6	43.5742	19,027.6	47.8815	19,027.6	43.8022	19,027.6	46.8926	19,027.6	44.8625	19,027.6	50.017
19,698.5	98.3081	19,698.5	96.0277	19,698.5	96.3883	19,698.5	89.1929	19,698.5	90.4537	19,698.5	79.4771	19,698.5	80.5933	19,698.5	71.8763	19,698.5	71.8611	19,698.5	71.422	19,698.5	72.4275	19,698.5	67.1149	19,698.5	67.3942	19,698.5	61.2982	19,698.5	65.3389	19,698.5	54.33	19,698.5	60.426	19,698.5	51.5141	19,698.5	34.3217	19,698.5	44.9841	19,698.5	45.2739	19,698.5	46.2904	19,698.5	64.3308	19,698.5	42.0158	19,698.5	54.6298	19,698.5	42.5848	19,698.5	45.2688	19,698.5	51.5942	19,698.5	40.2224	19,698.5	44.6659	19,698.5	44.2252	19,698.5	47.07	19,698.5	40.0665	19,698.5	48.5076	19,698.5	43.8209	19,698.5	46.8258
19,999.5	98.3031	19,999.5	96.0465	19,999.5	96.3619	19,999.5	88.5501	19,999.5	89.9746	19,999.5	76.9308	19,999.5	77.924	19,999.5	71.7408	19,999.5	72.4534	19,999.5	71.515	19,999.5	74.2918	19,999.5	67.3971	19,999.5	70.3019	19,999.5	58.6271	19,999.5	60.2851	19,999.5	48.7283	19,999.5	56.9523	19,999.5	52.1044	19,999.5	58.3932	19,999.5	48.9168	19,999.5	51.5919	19,999.5	56.1224	19,999.5	69.1699	19,999.5	46.1117	19,999.5	56.1604	19,999.5	53.5549	19,999.5	52.1365	19,999.5	52.339	19,999.5	49.2005	19,999.5	49.6321	19,999.5	48.4741	19,999.5	49.5282	19,999.5	44.8438	19,999.5	51.314	19,999.5	56.5846	19,999.5	53.4962
