"SPL Vertical"																																																																							
"On-Axis"		"10°"		"-10°"		"20°"		"-20°"		"30°"		"-30°"		"40°"		"-40°"		"50°"		"-50°"		"60°"		"-60°"		"70°"		"-70°"		"80°"		"-80°"		"90°"		"-90°"		"100°"		"-100°"		"110°"		"-110°"		"120°"		"-120°"		"130°"		"-130°"		"140°"		"-140°"		"150°"		"-150°"		"160°"		"-160°"		"170°"		"-170°"		"180°"	
"Frequency [Hz]"	"Sound Pessure Level [dB]  / [2.83V 1m] "	"Frequency [Hz]"	"Sound Pessure Level [dB]  / [2.83V 1m] "	"Frequency [Hz]"	"Sound Pessure Level [dB]  / [2.83V 1m] "	"Frequency [Hz]"	"Sound Pessure Level [dB]  / [2.83V 1m] "	"Frequency [Hz]"	"Sound Pessure Level [dB]  / [2.83V 1m] "	"Frequency [Hz]"	"Sound Pessure Level [dB]  / [2.83V 1m] "	"Frequency [Hz]"	"Sound Pessure Level [dB]  / [2.83V 1m] "	"Frequency [Hz]"	"Sound Pessure Level [dB]  / [2.83V 1m] "	"Frequency [Hz]"	"Sound Pessure Level [dB]  / [2.83V 1m] "	"Frequency [Hz]"	"Sound Pessure Level [dB]  / [2.83V 1m] "	"Frequency [Hz]"	"Sound Pessure Level [dB]  / [2.83V 1m] "	"Frequency [Hz]"	"Sound Pessure Level [dB]  / [2.83V 1m] "	"Frequency [Hz]"	"Sound Pessure Level [dB]  / [2.83V 1m] "	"Frequency [Hz]"	"Sound Pessure Level [dB]  / [2.83V 1m] "	"Frequency [Hz]"	"Sound Pessure Level [dB]  / [2.83V 1m] "	"Frequency [Hz]"	"Sound Pessure Level [dB]  / [2.83V 1m] "	"Frequency [Hz]"	"Sound Pessure Level [dB]  / [2.83V 1m] "	"Frequency [Hz]"	"Sound Pessure Level [dB]  / [2.83V 1m] "	"Frequency [Hz]"	"Sound Pessure Level [dB]  / [2.83V 1m] "	"Frequency [Hz]"	"Sound Pessure Level [dB]  / [2.83V 1m] "	"Frequency [Hz]"	"Sound Pessure Level [dB]  / [2.83V 1m] "	"Frequency [Hz]"	"Sound Pessure Level [dB]  / [2.83V 1m] "	"Frequency [Hz]"	"Sound Pessure Level [dB]  / [2.83V 1m] "	"Frequency [Hz]"	"Sound Pessure Level [dB]  / [2.83V 1m] "	"Frequency [Hz]"	"Sound Pessure Level [dB]  / [2.83V 1m] "	"Frequency [Hz]"	"Sound Pessure Level [dB]  / [2.83V 1m] "	"Frequency [Hz]"	"Sound Pessure Level [dB]  / [2.83V 1m] "	"Frequency [Hz]"	"Sound Pessure Level [dB]  / [2.83V 1m] "	"Frequency [Hz]"	"Sound Pessure Level [dB]  / [2.83V 1m] "	"Frequency [Hz]"	"Sound Pessure Level [dB]  / [2.83V 1m] "	"Frequency [Hz]"	"Sound Pessure Level [dB]  / [2.83V 1m] "	"Frequency [Hz]"	"Sound Pessure Level [dB]  / [2.83V 1m] "	"Frequency [Hz]"	"Sound Pessure Level [dB]  / [2.83V 1m] "	"Frequency [Hz]"	"Sound Pessure Level [dB]  / [2.83V 1m] "	"Frequency [Hz]"	"Sound Pessure Level [dB]  / [2.83V 1m] "	"Frequency [Hz]"	"Sound Pessure Level [dB]  / [2.83V 1m] "
20.5078	63.828	20.5078	63.7704	20.5078	63.8755	20.5078	63.7044	20.5078	63.9107	20.5078	63.6322	20.5078	63.9317	20.5078	63.5557	20.5078	63.937	20.5078	63.4767	20.5078	63.9252	20.5078	63.397	20.5078	63.8957	20.5078	63.3184	20.5078	63.8486	20.5078	63.2426	20.5078	63.785	20.5078	63.1712	20.5078	63.707	20.5078	63.106	20.5078	63.6175	20.5078	63.0485	20.5078	63.5205	20.5078	63.0001	20.5078	63.4204	20.5078	62.9622	20.5078	63.3215	20.5078	62.936	20.5078	63.2281	20.5078	62.9226	20.5078	63.1437	20.5078	62.9229	20.5078	63.071	20.5078	62.9377	20.5078	63.0118	20.5078	62.9673
21.9727	64.8505	21.9727	64.7886	21.9727	64.9033	21.9727	64.7199	21.9727	64.945	21.9727	64.6462	21.9727	64.9734	21.9727	64.5697	21.9727	64.9867	21.9727	64.492	21.9727	64.9833	21.9727	64.4149	21.9727	64.9621	21.9727	64.3401	21.9727	64.9229	21.9727	64.269	21.9727	64.8663	21.9727	64.2031	21.9727	64.794	21.9727	64.1438	21.9727	64.7087	21.9727	64.0924	21.9727	64.6143	21.9727	64.0501	21.9727	64.515	21.9727	64.018	21.9727	64.4155	21.9727	63.9974	21.9727	64.3202	21.9727	63.989	21.9727	64.2332	21.9727	63.9939	21.9727	64.1573	21.9727	64.0128	21.9727	64.0946	21.9727	64.0464
23.4375	66.0916	23.4375	66.0278	23.4375	66.1456	23.4375	65.9561	23.4375	66.1876	23.4375	65.8787	23.4375	66.2154	23.4375	65.7974	23.4375	66.2273	23.4375	65.7141	23.4375	66.2216	23.4375	65.6304	23.4375	66.1972	23.4375	65.5482	23.4375	66.1538	23.4375	65.4688	23.4375	66.0919	23.4375	65.3941	23.4375	66.0131	23.4375	65.3255	23.4375	65.9201	23.4375	65.2646	23.4375	65.8167	23.4375	65.2131	23.4375	65.7074	23.4375	65.1725	23.4375	65.5972	23.4375	65.1445	23.4375	65.4911	23.4375	65.1305	23.4375	65.3937	23.4375	65.132	23.4375	65.3086	23.4375	65.1502	23.4375	65.2388	23.4375	65.1857
25.6348	67.5561	25.6348	67.494	25.6348	67.6088	25.6348	67.4249	25.6348	67.6503	25.6348	67.3505	25.6348	67.6784	25.6348	67.2729	25.6348	67.6913	25.6348	67.1938	25.6348	67.6875	25.6348	67.1151	25.6348	67.6659	25.6348	67.0382	25.6348	67.6264	25.6348	66.9648	25.6348	67.5695	25.6348	66.8963	25.6348	67.4967	25.6348	66.8342	25.6348	67.4107	25.6348	66.78	25.6348	67.315	25.6348	66.735	25.6348	67.2139	25.6348	66.7005	25.6348	67.112	25.6348	66.6778	25.6348	67.0138	25.6348	66.6682	25.6348	66.9234	25.6348	66.6728	25.6348	66.8441	25.6348	66.6924	25.6348	66.7784	25.6348	66.7276
27.0996	68.4742	27.0996	68.4123	27.0996	68.5267	27.0996	68.343	27.0996	68.5676	27.0996	68.2683	27.0996	68.595	27.0996	68.1901	27.0996	68.6069	27.0996	68.1104	27.0996	68.602	27.0996	68.0307	27.0996	68.5793	27.0996	67.9528	27.0996	68.5384	27.0996	67.8783	27.0996	68.4801	27.0996	67.8086	27.0996	68.4061	27.0996	67.7453	27.0996	68.3188	27.0996	67.6897	27.0996	68.2221	27.0996	67.6435	27.0996	68.1201	27.0996	67.6078	27.0996	68.0175	27.0996	67.5841	27.0996	67.9187	27.0996	67.5737	27.0996	67.8279	27.0996	67.5776	27.0996	67.7483	27.0996	67.5967	27.0996	67.6824	27.0996	67.6316
29.2969	69.8185	29.2969	69.7581	29.2969	69.8701	29.2969	69.691	29.2969	69.9109	29.2969	69.6191	29.2969	69.9388	29.2969	69.5443	29.2969	69.9522	29.2969	69.4685	29.2969	69.9496	29.2969	69.3933	29.2969	69.9301	29.2969	69.3204	29.2969	69.8934	29.2969	69.2514	29.2969	69.8404	29.2969	69.1876	29.2969	69.7724	29.2969	69.1304	29.2969	69.692	29.2969	69.0812	29.2969	69.6027	29.2969	69.0412	29.2969	69.5084	29.2969	69.0114	29.2969	69.4134	29.2969	68.9931	29.2969	69.3216	29.2969	68.987	29.2969	69.2369	29.2969	68.9942	29.2969	69.1621	29.2969	69.0152	29.2969	69.0995	29.2969	69.0503
31.4941	71.0252	31.4941	70.9605	31.4941	71.0814	31.4941	70.8896	31.4941	71.1271	31.4941	70.8145	31.4941	71.1603	31.4941	70.7374	31.4941	71.1791	31.4941	70.66	31.4941	71.1822	31.4941	70.5845	31.4941	71.1687	31.4941	70.5125	31.4941	71.1383	31.4941	70.4456	31.4941	71.0916	31.4941	70.3855	31.4941	71.0302	31.4941	70.3336	31.4941	70.9564	31.4941	70.291	31.4941	70.8733	31.4941	70.2589	31.4941	70.7845	31.4941	70.2382	31.4941	70.6938	31.4941	70.2296	31.4941	70.6048	31.4941	70.2337	31.4941	70.5209	31.4941	70.2506	31.4941	70.4447	31.4941	70.2806	31.4941	70.3784	31.4941	70.3233
33.6914	72.004	33.6914	71.9414	33.6914	72.057	33.6914	71.8715	33.6914	72.0985	33.6914	71.7964	33.6914	72.1266	33.6914	71.7182	33.6914	72.1396	33.6914	71.639	33.6914	72.1363	33.6914	71.5608	33.6914	72.116	33.6914	71.4854	33.6914	72.0788	33.6914	71.4147	33.6914	72.0255	33.6914	71.3504	33.6914	71.958	33.6914	71.2939	33.6914	71.879	33.6914	71.2468	33.6914	71.7919	33.6914	71.2102	33.6914	71.7003	33.6914	71.185	33.6914	71.6084	33.6914	71.172	33.6914	71.5196	33.6914	71.1717	33.6914	71.4371	33.6914	71.1844	33.6914	71.3634	33.6914	71.2102	33.6914	71.3003	33.6914	71.249
35.8887	73.0884	35.8887	73.0259	35.8887	73.1408	35.8887	72.9557	35.8887	73.1812	35.8887	72.8798	35.8887	73.2075	35.8887	72.8003	35.8887	73.2183	35.8887	72.7196	35.8887	73.2122	35.8887	72.6394	35.8887	73.1887	35.8887	72.5619	35.8887	73.148	35.8887	72.4889	35.8887	73.091	35.8887	72.422	35.8887	73.0198	35.8887	72.363	35.8887	72.9371	35.8887	72.3131	35.8887	72.8466	35.8887	72.2737	35.8887	72.7522	35.8887	72.2456	35.8887	72.6579	35.8887	72.2299	35.8887	72.5675	35.8887	72.2269	35.8887	72.4842	35.8887	72.2372	35.8887	72.4104	35.8887	72.2608	35.8887	72.3479	35.8887	72.2978
38.8184	74.4388	38.8184	74.3773	38.8184	74.4899	38.8184	74.3073	38.8184	74.5285	38.8184	74.2313	38.8184	74.5528	38.8184	74.1513	38.8184	74.5612	38.8184	74.0697	38.8184	74.5529	38.8184	73.9885	38.8184	74.5275	38.8184	73.91	38.8184	74.4852	38.8184	73.836	38.8184	74.4273	38.8184	73.7686	38.8184	74.356	38.8184	73.7093	38.8184	74.2741	38.8184	73.6597	38.8184	74.1852	38.8184	73.6209	38.8184	74.093	38.8184	73.594	38.8184	74.0015	38.8184	73.5796	38.8184	73.914	38.8184	73.578	38.8184	73.8333	38.8184	73.5895	38.8184	73.7617	38.8184	73.614	38.8184	73.7006	38.8184	73.6512
41.0156	75.4668	41.0156	75.4061	41.0156	75.5164	41.0156	75.3364	41.0156	75.553	41.0156	75.2599	41.0156	75.5748	41.0156	75.1788	41.0156	75.5803	41.0156	75.0953	41.0156	75.5686	41.0156	75.0115	41.0156	75.5392	41.0156	74.9296	41.0156	75.4925	41.0156	74.8516	41.0156	75.4298	41.0156	74.7795	41.0156	75.3531	41.0156	74.7148	41.0156	75.2655	41.0156	74.6594	41.0156	75.1708	41.0156	74.6145	41.0156	75.0729	41.0156	74.5813	41.0156	74.976	41.0156	74.5608	41.0156	74.8838	41.0156	74.5536	41.0156	74.7996	41.0156	74.5602	41.0156	74.7258	41.0156	74.5809	41.0156	74.6641	41.0156	74.6156
43.9453	76.7341	43.9453	76.6681	43.9453	76.7895	43.9453	76.5939	43.9453	76.8324	43.9453	76.5137	43.9453	76.8611	43.9453	76.43	43.9453	76.8741	43.9453	76.3454	43.9453	76.8706	43.9453	76.2622	43.9453	76.8504	43.9453	76.1828	43.9453	76.814	43.9453	76.1097	43.9453	76.7627	43.9453	76.0448	43.9453	76.6986	43.9453	75.9903	43.9453	76.6245	43.9453	75.9475	43.9453	76.5436	43.9453	75.9176	43.9453	76.459	43.9453	75.9014	43.9453	76.3739	43.9453	75.8991	43.9453	76.2909	43.9453	75.9104	43.9453	76.2123	43.9453	75.9345	43.9453	76.1397	43.9453	75.9706	43.9453	76.0744	43.9453	76.0177
47.6074	78.1929	47.6074	78.1276	47.6074	78.2468	47.6074	78.0532	47.6074	78.2874	47.6074	77.9721	47.6074	78.3128	47.6074	77.8868	47.6074	78.3219	47.6074	77.8	47.6074	78.3139	47.6074	77.7142	47.6074	78.2888	47.6074	77.632	47.6074	78.2473	47.6074	77.5557	47.6074	78.191	47.6074	77.4878	47.6074	78.1223	47.6074	77.4301	47.6074	78.0441	47.6074	77.3842	47.6074	77.9598	47.6074	77.3515	47.6074	77.873	47.6074	77.3325	47.6074	77.7866	47.6074	77.3275	47.6074	77.7034	47.6074	77.3361	47.6074	77.6254	47.6074	77.3578	47.6074	77.5541	47.6074	77.3914	47.6074	77.4906	47.6074	77.4361
50.5371	79.2815	50.5371	79.214	50.5371	79.3365	50.5371	79.1363	50.5371	79.3771	50.5371	79.0509	50.5371	79.4016	50.5371	78.9605	50.5371	79.4088	50.5371	78.8678	50.5371	79.3981	50.5371	78.7756	50.5371	79.3698	50.5371	78.6868	50.5371	79.3246	50.5371	78.6041	50.5371	79.2643	50.5371	78.5302	50.5371	79.1916	50.5371	78.4672	50.5371	79.1095	50.5371	78.4172	50.5371	79.0215	50.5371	78.3815	50.5371	78.9311	50.5371	78.3609	50.5371	78.8413	50.5371	78.3557	50.5371	78.7548	50.5371	78.3654	50.5371	78.6734	50.5371	78.3892	50.5371	78.5987	50.5371	78.4257	50.5371	78.5318	50.5371	78.4737
54.1992	80.5862	54.1992	80.5225	54.1992	80.6371	54.1992	80.4481	54.1992	80.6731	54.1992	80.3654	54.1992	80.6928	54.1992	80.2773	54.1992	80.6953	54.1992	80.1864	54.1992	80.6802	54.1992	80.0957	54.1992	80.6479	54.1992	80.0081	54.1992	80.5997	54.1992	79.9263	54.1992	80.5377	54.1992	79.8531	54.1992	80.4646	54.1992	79.7908	54.1992	80.3837	54.1992	79.7411	54.1992	80.2986	54.1992	79.7057	54.1992	80.2124	54.1992	79.6851	54.1992	80.128	54.1992	79.6794	54.1992	80.0475	54.1992	79.6881	54.1992	79.9724	54.1992	79.7101	54.1992	79.9037	54.1992	79.7441	54.1992	79.8421	54.1992	79.7885
58.5938	81.9967	58.5938	81.9264	58.5938	82.0536	58.5938	81.8448	58.5938	82.095	58.5938	81.7549	58.5938	82.1197	58.5938	81.6595	58.5938	82.1268	58.5938	81.5619	58.5938	82.1164	58.5938	81.4657	58.5938	82.0891	58.5938	81.3743	58.5938	82.0466	58.5938	81.291	58.5938	81.991	58.5938	81.2192	58.5938	81.9253	58.5938	81.1614	58.5938	81.8526	58.5938	81.1198	58.5938	81.776	58.5938	81.0956	58.5938	81.6982	58.5938	81.0892	58.5938	81.621	58.5938	81.0997	58.5938	81.5456	58.5938	81.1257	58.5938	81.4726	58.5938	81.1647	58.5938	81.4023	58.5938	81.2144	58.5938	81.335	58.5938	81.2719
62.2559	82.9611	62.2559	82.8943	62.2559	83.0129	62.2559	82.8151	62.2559	83.0481	62.2559	82.726	62.2559	83.0653	62.2559	82.6301	62.2559	83.0638	62.2559	82.5306	62.2559	83.0439	62.2559	82.4311	62.2559	83.0063	62.2559	82.335	62.2559	82.9531	62.2559	82.2459	62.2559	82.887	62.2559	82.167	62.2559	82.8113	62.2559	82.1013	62.2559	82.7298	62.2559	82.0511	62.2559	82.6459	62.2559	82.0178	62.2559	82.5626	62.2559	82.0021	62.2559	82.4822	62.2559	82.0036	62.2559	82.4056	62.2559	82.0208	62.2559	82.3335	62.2559	82.0517	62.2559	82.2657	62.2559	82.0938	62.2559	82.2026	62.2559	82.1448
66.6504	84.1626	66.6504	84.0927	66.6504	84.2164	66.6504	84.0092	66.6504	84.2523	66.6504	83.9147	66.6504	84.2693	66.6504	83.8127	66.6504	84.2667	66.6504	83.7066	66.6504	84.245	66.6504	83.6004	66.6504	84.2056	66.6504	83.498	66.6504	84.1505	66.6504	83.4033	66.6504	84.0829	66.6504	83.3201	66.6504	84.0062	66.6504	83.2516	66.6504	83.9244	66.6504	83.2006	66.6504	83.8407	66.6504	83.1686	66.6504	83.758	66.6504	83.156	66.6504	83.678	66.6504	83.1622	66.6504	83.6015	66.6504	83.1854	66.6504	83.5283	66.6504	83.2229	66.6504	83.4583	66.6504	83.2717	66.6504	83.3915	66.6504	83.3287
71.7773	85.3266	71.7773	85.2616	71.7773	85.3748	71.7773	85.1818	71.7773	85.4043	71.7773	85.0903	71.7773	85.4144	71.7773	84.9903	71.7773	85.405	71.7773	84.8857	71.7773	85.3771	71.7773	84.7806	71.7773	85.3327	71.7773	84.6793	71.7773	85.2747	71.7773	84.5861	71.7773	85.2067	71.7773	84.5049	71.7773	85.1329	71.7773	84.4395	71.7773	85.0572	71.7773	84.3924	71.7773	84.983	71.7773	84.3653	71.7773	84.9124	71.7773	84.3582	71.7773	84.846	71.7773	84.3701	71.7773	84.7832	71.7773	84.3985	71.7773	84.7229	71.7773	84.4398	71.7773	84.6636	71.7773	84.4902	71.7773	84.6045	71.7773	84.5461
76.9043	86.4369	76.9043	86.3722	76.9043	86.4831	76.9043	86.2914	76.9043	86.5092	76.9043	86.1977	76.9043	86.5144	76.9043	86.0948	76.9043	86.4989	76.9043	85.9867	76.9043	86.4642	76.9043	85.8782	76.9043	86.4128	76.9043	85.774	76.9043	86.3484	76.9043	85.6788	76.9043	86.2753	76.9043	85.597	76.9043	86.1985	76.9043	85.5324	76.9043	86.1224	76.9043	85.4877	76.9043	86.0507	76.9043	85.4642	76.9043	85.9852	76.9043	85.4618	76.9043	85.9261	76.9043	85.4785	76.9043	85.8719	76.9043	85.5111	76.9043	85.8204	76.9043	85.5555	76.9043	85.7689	76.9043	85.6069	76.9043	85.716	76.9043	85.6615
82.7637	87.4903	82.7637	87.421	82.7637	87.539	82.7637	87.3336	82.7637	87.5653	82.7637	87.2315	82.7637	87.5687	82.7637	87.1187	82.7637	87.5494	82.7637	86.9999	82.7637	87.5093	82.7637	86.8802	82.7637	87.4512	82.7637	86.765	82.7637	87.3794	82.7637	86.6597	82.7637	87.299	82.7637	86.5696	82.7637	87.2155	82.7637	86.4989	82.7637	87.134	82.7637	86.4508	82.7637	87.0585	82.7637	86.427	82.7637	86.9908	82.7637	86.4269	82.7637	86.9309	82.7637	86.4483	82.7637	86.8765	82.7637	86.4872	82.7637	86.8245	82.7637	86.5385	82.7637	86.7718	82.7637	86.5969	82.7637	86.7161	82.7637	86.6572
88.623	88.2964	88.623	88.2259	88.623	88.3452	88.623	88.1362	88.623	88.3709	88.623	88.0309	88.623	88.3729	88.623	87.9141	88.623	88.3524	88.623	87.7911	88.623	88.3116	88.623	87.6674	88.623	88.2541	88.623	87.5492	88.623	88.1848	88.623	87.4426	88.623	88.1094	88.623	87.3535	88.623	88.0336	88.623	87.2867	88.623	87.9625	88.623	87.2458	88.623	87.8992	88.623	87.2321	88.623	87.8449	88.623	87.2448	88.623	87.7977	88.623	87.2807	88.623	87.7543	88.623	87.3347	88.623	87.7101	88.623	87.4004	88.623	87.6611	88.623	87.4711	88.623	87.6047	88.623	87.5406
94.4824	88.9026	94.4824	88.8315	94.4824	88.9483	94.4824	88.7377	94.4824	88.9675	94.4824	88.6248	94.4824	88.9599	94.4824	88.4974	94.4824	88.9273	94.4824	88.3613	94.4824	88.8725	94.4824	88.2228	94.4824	88.8005	94.4824	88.0889	94.4824	88.7172	94.4824	87.967	94.4824	88.6297	94.4824	87.8641	94.4824	88.5449	94.4824	87.7862	94.4824	88.4688	94.4824	87.7379	94.4824	88.4049	94.4824	87.721	94.4824	88.3534	94.4824	87.7347	94.4824	88.3115	94.4824	87.7754	94.4824	88.2742	94.4824	87.8366	94.4824	88.2352	94.4824	87.9106	94.4824	88.1891	94.4824	87.9892	94.4824	88.1325	94.4824	88.065
101.807	89.3661	101.807	89.3033	101.807	89.3998	101.807	89.2141	101.807	89.4031	101.807	89.1025	101.807	89.3762	101.807	88.9734	101.807	89.3209	101.807	88.8327	101.807	89.2413	101.807	88.6875	101.807	89.1435	101.807	88.5451	101.807	89.0351	101.807	88.4135	101.807	88.9254	101.807	88.3002	101.807	88.8235	101.807	88.212	101.807	88.737	101.807	88.1538	101.807	88.6703	101.807	88.1279	101.807	88.6236	101.807	88.1336	101.807	88.5927	101.807	88.1669	101.807	88.5704	101.807	88.2211	101.807	88.5482	101.807	88.2876	101.807	88.5188	101.807	88.3576	101.807	88.4773	101.807	88.4227
109.131	89.6486	109.131	89.5774	109.131	89.6875	109.131	89.4772	109.131	89.6922	109.131	89.3528	109.131	89.6623	109.131	89.2099	109.131	89.5997	109.131	89.0556	109.131	89.5082	109.131	88.8978	109.131	89.3943	109.131	88.7449	109.131	89.267	109.131	88.6058	109.131	89.137	109.131	88.4889	109.131	89.0156	109.131	88.4012	109.131	88.9131	109.131	88.3474	109.131	88.836	109.131	88.3289	109.131	88.7858	109.131	88.3437	109.131	88.7584	109.131	88.386	109.131	88.7453	109.131	88.4474	109.131	88.736	109.131	88.5177	109.131	88.7206	109.131	88.587	109.131	88.6919	109.131	88.6469
116.455	89.7831	116.455	89.7015	116.455	89.8293	116.455	89.5881	116.455	89.8381	116.455	89.4479	116.455	89.8091	116.455	89.2873	116.455	89.7442	116.455	89.1141	116.455	89.6477	116.455	88.9373	116.455	89.5267	116.455	88.7666	116.455	89.3907	116.455	88.6124	116.455	89.2517	116.455	88.4845	116.455	89.1223	116.455	88.3914	116.455	89.0137	116.455	88.3386	116.455	88.9335	116.455	88.3275	116.455	88.8831	116.455	88.3551	116.455	88.8579	116.455	88.4141	116.455	88.8479	116.455	88.494	116.455	88.8409	116.455	88.5825	116.455	88.8253	116.455	88.6677	116.455	88.7929	116.455	88.7399
125.244	89.7335	125.244	89.6353	125.244	89.7924	125.244	89.5018	125.244	89.8091	125.244	89.339	125.244	89.7831	125.244	89.1542	125.244	89.7157	125.244	88.9563	125.244	89.6112	125.244	88.7555	125.244	89.4768	125.244	88.5633	125.244	89.3228	125.244	88.3916	125.244	89.1626	125.244	88.2518	125.244	89.0109	125.244	88.1535	125.244	88.8818	125.244	88.1023	125.244	88.785	125.244	88.0992	125.244	88.724	125.244	88.1397	125.244	88.6942	125.244	88.2142	125.244	88.6847	125.244	88.3097	125.244	88.6812	125.244	88.4118	125.244	88.6696	125.244	88.5071	125.244	88.6393	125.244	88.5849
134.033	89.6115	134.033	89.4925	134.033	89.6866	134.033	89.3341	134.033	89.7152	134.033	89.1426	134.033	89.6965	134.033	88.9263	134.033	89.6324	134.033	88.6953	134.033	89.5271	134.033	88.4617	134.033	89.3885	134.033	88.2393	134.033	89.2277	134.033	88.043	134.033	89.0588	134.033	87.887	134.033	88.898	134.033	87.7828	134.033	88.7603	134.033	87.7376	134.033	88.6569	134.033	87.7515	134.033	88.5915	134.033	87.8178	134.033	88.559	134.033	87.9237	134.033	88.5474	134.033	88.0524	134.033	88.5404	134.033	88.1864	134.033	88.5223	134.033	88.3096	134.033	88.481	134.033	88.41
143.555	89.5787	143.555	89.4367	143.555	89.671	143.555	89.2497	143.555	89.7111	143.555	89.0244	143.555	89.6983	143.555	88.7695	143.555	89.6345	143.555	88.4966	143.555	89.5245	143.555	88.2197	143.555	89.3764	143.555	87.9555	143.555	89.2023	143.555	87.7224	143.555	89.0177	143.555	87.5388	143.555	88.8402	143.555	87.42	143.555	88.6871	143.555	87.375	143.555	88.5712	143.555	87.4039	143.555	88.4968	143.555	87.4975	143.555	88.4586	143.555	87.6386	143.555	88.4428	143.555	87.8056	143.555	88.431	143.555	87.9767	143.555	88.4049	143.555	88.1327	143.555	88.3503	143.555	88.2596
153.809	89.7459	153.809	89.5917	153.809	89.8421	153.809	89.3837	153.809	89.8778	153.809	89.1282	153.809	89.8528	153.809	88.834	153.809	89.7689	153.809	88.5127	153.809	89.6312	153.809	88.1797	153.809	89.4484	153.809	87.8541	153.809	89.2336	153.809	87.5585	153.809	89.0047	153.809	87.3169	153.809	88.7828	153.809	87.1509	153.809	88.5892	153.809	87.0751	153.809	88.441	153.809	87.0922	153.809	88.3449	153.809	87.1917	153.809	88.2956	153.809	87.3521	153.809	88.2765	153.809	87.5461	153.809	88.2646	153.809	87.7457	153.809	88.2373	153.809	87.9273	153.809	88.177	153.809	88.0739
164.795	90.1839	164.795	90.0215	164.795	90.2851	164.795	89.8018	164.795	90.3233	164.795	89.5305	164.795	90.2986	164.795	89.216	164.795	90.2134	164.795	88.8697	164.795	90.0732	164.795	88.5072	164.795	89.8872	164.795	88.1486	164.795	89.6689	164.795	87.8188	164.795	89.4368	164.795	87.5452	164.795	89.2122	164.795	87.3538	164.795	89.0167	164.795	87.2632	164.795	88.8667	164.795	87.2787	164.795	88.7685	164.795	87.3896	164.795	88.7152	164.795	87.572	164.795	88.689	164.795	87.7946	164.795	88.666	164.795	88.0258	164.795	88.6231	164.795	88.2386	164.795	88.5423	164.795	88.4141
176.514	90.1708	176.514	89.9932	176.514	90.2801	176.514	89.7514	176.514	90.319	176.514	89.4517	176.514	90.2871	176.514	89.1031	176.514	90.1866	176.514	88.7183	176.514	90.0232	176.514	88.3151	176.514	89.8066	176.514	87.9174	176.514	89.5525	176.514	87.5552	176.514	89.2828	176.514	87.2623	176.514	89.0246	176.514	87.0707	176.514	88.8065	176.514	87.0017	176.514	88.651	176.514	87.0582	176.514	88.5672	176.514	87.2224	176.514	88.5459	176.514	87.4608	176.514	88.5627	176.514	87.7333	176.514	88.5852	176.514	88.0018	176.514	88.5821	176.514	88.2358	176.514	88.5298	176.514	88.415
189.697	90.4137	189.697	90.2483	189.697	90.5038	189.697	90.011	189.697	90.5168	189.697	89.7067	189.697	90.4521	189.697	89.3422	189.697	90.3117	189.697	88.9277	189.697	90.1006	189.697	88.4781	189.697	89.8286	189.697	88.0148	189.697	89.5121	189.697	87.5676	189.697	89.1755	189.697	87.1741	189.697	88.8508	189.697	86.8758	189.697	88.5733	189.697	86.7081	189.697	88.3726	189.697	86.6885	189.697	88.2615	189.697	86.8077	189.697	88.2297	189.697	87.032	189.697	88.2463	189.697	87.3141	189.697	88.2712	189.697	87.6059	189.697	88.2666	189.697	87.8677	189.697	88.2049	189.697	88.072
202.881	90.3516	202.881	90.1951	202.881	90.4267	202.881	89.9619	202.881	90.4167	202.881	89.6583	202.881	90.3193	202.881	89.2928	202.881	90.1342	202.881	88.8769	202.881	89.8643	202.881	88.4273	202.881	89.5179	202.881	87.9675	202.881	89.112	202.881	87.529	202.881	88.6757	202.881	87.1511	202.881	88.2523	202.881	86.875	202.881	87.896	202.881	86.7335	202.881	87.6575	202.881	86.7385	202.881	87.5636	202.881	86.8746	202.881	87.6019	202.881	87.1028	202.881	87.7248	202.881	87.3723	202.881	87.871	202.881	87.6338	202.881	87.9849	202.881	87.8466	202.881	88.0285	202.881	87.9828
217.529	90.0648	217.529	89.8721	217.529	90.17	217.529	89.5975	217.529	90.1833	217.529	89.2481	217.529	90.1009	217.529	88.8335	217.529	89.9207	217.529	88.3675	217.529	89.6427	217.529	87.8699	217.529	89.2716	217.529	87.3694	217.529	88.8204	217.529	86.9047	217.529	88.3154	217.529	86.5224	217.529	87.8015	217.529	86.2688	217.529	87.3434	217.529	86.175	217.529	87.0133	217.529	86.2431	217.529	86.863	217.529	86.4428	217.529	86.8942	217.529	86.7215	217.529	87.0549	217.529	87.0204	217.529	87.2663	217.529	87.2871	217.529	87.4545	217.529	87.4819	217.529	87.5678	217.529	87.5791
232.91	90.104	232.91	89.8825	232.91	90.2313	232.91	89.5727	232.91	90.2582	232.91	89.1814	232.91	90.1786	232.91	88.717	232.91	89.9862	232.91	88.191	232.91	89.6753	232.91	87.6215	232.91	89.2423	232.91	87.0362	232.91	88.6893	232.91	86.476	232.91	88.0309	232.91	85.9955	232.91	87.3049	232.91	85.6544	232.91	86.5858	232.91	85.4986	232.91	85.9885	232.91	85.538	232.91	85.6362	232.91	85.7373	232.91	85.5889	232.91	86.0297	232.91	85.7948	232.91	86.3401	232.91	86.1262	232.91	86.6023	232.91	86.455	232.91	86.7668	232.91	86.6946	232.91	86.8019
249.756	89.6534	249.756	89.3564	249.756	89.8484	249.756	88.9612	249.756	89.9373	249.756	88.4724	249.756	89.9162	249.756	87.8971	249.756	89.78	249.756	87.2468	249.756	89.5231	249.756	86.5412	249.756	89.1396	249.756	85.8141	249.756	88.6251	249.756	85.1189	249.756	87.9803	249.756	84.5291	249.756	87.2194	249.756	84.1253	249.756	86.3828	249.756	83.9631	249.756	85.5539	249.756	84.0404	249.756	84.863	249.756	84.2936	249.756	84.4477	249.756	84.6281	249.756	84.3665	249.756	84.9527	249.756	84.5476	249.756	85.1976	249.756	84.8439	249.756	85.3173	249.756	85.1198	249.756	85.2902
268.066	89.0883	268.066	88.7834	268.066	89.293	268.066	88.3786	268.066	89.3967	268.066	87.8744	268.066	89.3975	268.066	87.2729	268.066	89.2922	268.066	86.5805	268.066	89.0762	268.066	85.8118	268.066	88.7439	268.066	84.9983	268.066	88.2903	268.066	84.1975	268.066	87.7147	268.066	83.5005	268.066	87.027	268.066	83.0198	268.066	86.2594	268.066	82.8438	268.066	85.4805	268.066	82.9784	268.066	84.801	268.066	83.3375	268.066	84.3464	268.066	83.7932	268.066	84.1857	268.066	84.2309	268.066	84.2759	268.066	84.5712	268.066	84.4911	268.066	84.7689	268.066	84.6992	268.066	84.8075
287.109	89.7729	287.109	89.564	287.109	89.8714	287.109	89.2417	287.109	89.861	287.109	88.8019	287.109	89.7412	287.109	88.2404	287.109	89.5105	287.109	87.5543	287.109	89.1661	287.109	86.7457	287.109	88.7056	287.109	85.8294	287.109	88.13	287.109	84.8467	287.109	87.4489	287.109	83.8861	287.109	86.691	287.109	83.098	287.109	85.9169	287.109	82.6622	287.109	85.2283	287.109	82.6773	287.109	84.7488	287.109	83.0716	287.109	84.5611	287.109	83.6604	287.109	84.6426	287.109	84.2668	287.109	84.8771	287.109	84.7755	287.109	85.127	287.109	85.1265	287.109	85.2874	287.109	85.2965
307.617	89.6516	307.617	89.4158	307.617	89.7955	307.617	89.0921	307.617	89.8417	307.617	88.6822	307.617	89.7817	307.617	88.1863	307.617	89.6043	307.617	87.6039	307.617	89.2953	307.617	86.9367	307.617	88.8367	307.617	86.1936	307.617	88.2076	307.617	85.3987	307.617	87.3873	307.617	84.6031	307.617	86.3651	307.617	83.8948	307.617	85.1662	307.617	83.391	307.617	83.9061	307.617	83.1914	307.617	82.8595	307.617	83.3095	307.617	82.3936	307.617	83.6531	307.617	82.6238	307.617	84.0771	307.617	83.2577	307.617	84.4474	307.617	83.9273	307.617	84.6661	307.617	84.4222	307.617	84.6692
329.59	89.2452	329.59	88.9773	329.59	89.4166	329.59	88.6133	329.59	89.4893	329.59	88.1526	329.59	89.4595	329.59	87.5935	329.59	89.3207	329.59	86.9352	329.59	89.063	329.59	86.1814	329.59	88.6728	329.59	85.347	329.59	88.1321	329.59	84.4709	329.59	87.42	329.59	83.6319	329.59	86.5188	329.59	82.9552	329.59	85.4286	329.59	82.5812	329.59	84.2037	329.59	82.5801	329.59	83.0149	329.59	82.8883	329.59	82.1861	329.59	83.3479	329.59	82.0143	329.59	83.7964	329.59	82.4374	329.59	84.1143	329.59	83.1019	329.59	84.2267	329.59	83.703	329.59	84.0925
353.76	89.7261	353.76	89.4517	353.76	89.8871	353.76	89.0603	353.76	89.936	353.76	88.5454	353.76	89.871	353.76	87.8979	353.76	89.6868	353.76	87.1057	353.76	89.3735	353.76	86.1564	353.76	88.9154	353.76	85.0434	353.76	88.29	353.76	83.7815	353.76	87.4687	353.76	82.4441	353.76	86.4203	353.76	81.2274	353.76	85.1277	353.76	80.4736	353.76	83.6319	353.76	80.4622	353.76	82.1376	353.76	81.0849	353.76	81.1193	353.76	81.9628	353.76	81.0365	353.76	82.7823	353.76	81.7136	353.76	83.3795	353.76	82.5842	353.76	83.68	353.76	83.2748	353.76	83.6492
378.662	89.8694	378.662	89.6515	378.662	90.0031	378.662	89.3485	378.662	90.0505	378.662	88.9557	378.662	90.006	378.662	88.4643	378.662	89.86	378.662	87.8607	378.662	89.5968	378.662	87.1286	378.662	89.1935	378.662	86.2515	378.662	88.6173	378.662	85.2205	378.662	87.8234	378.662	84.0503	378.662	86.7547	378.662	82.8134	378.662	85.3479	378.662	81.6932	378.662	83.5655	378.662	80.993	378.662	81.5198	378.662	80.9473	378.662	79.806	378.662	81.4533	378.662	79.479	378.662	82.1668	378.662	80.4815	378.662	82.7854	378.662	81.7314	378.662	83.1313	378.662	82.6466	378.662	83.1058
405.762	89.1625	405.762	88.9035	405.762	89.3539	405.762	88.5765	405.762	89.4736	405.762	88.1762	405.762	89.5135	405.762	87.6921	405.762	89.4611	405.762	87.108	405.762	89.298	405.762	86.405	405.762	88.9987	405.762	85.5669	405.762	88.5276	405.762	84.5916	405.762	87.8355	405.762	83.5133	405.762	86.8559	405.762	82.4433	405.762	85.5046	405.762	81.6078	405.762	83.6961	405.762	81.285	405.762	81.4443	405.762	81.567	405.762	79.2841	405.762	82.2373	405.762	78.7387	405.762	82.9731	405.762	80.0871	405.762	83.5355	405.762	81.7497	405.762	83.7813	405.762	82.9576	405.762	83.6154
435.059	89.2574	435.059	88.9954	435.059	89.4325	435.059	88.6474	435.059	89.5201	435.059	88.2138	435.059	89.5196	435.059	87.6923	435.059	89.4288	435.059	87.0752	435.059	89.2409	435.059	86.349	435.059	88.941	435.059	85.4972	435.059	88.5015	435.059	84.5095	435.059	87.8757	435.059	83.4007	435.059	86.9912	435.059	82.2495	435.059	85.741	435.059	81.2527	435.059	83.9718	435.059	80.7149	435.059	81.4726	435.059	80.8246	435.059	78.0929	435.059	81.4137	435.059	75.0973	435.059	82.1121	435.059	76.3067	435.059	82.6134	435.059	79.1524	435.059	82.7223	435.059	81.1678	435.059	82.293
466.553	89.5248	466.553	89.3476	466.553	89.6123	466.553	89.068	466.553	89.6205	466.553	88.671	466.553	89.5577	466.553	88.1379	466.553	89.428	466.553	87.4453	466.553	89.2302	466.553	86.5654	466.553	88.9553	466.553	85.4677	466.553	88.5838	466.553	84.1279	466.553	88.0801	466.553	82.5554	466.553	87.3872	466.553	80.8762	466.553	86.4212	466.553	79.4939	466.553	85.0671	466.553	79.0415	466.553	83.1766	466.553	79.6355	466.553	80.5958	466.553	80.6493	466.553	77.4811	466.553	81.5103	466.553	75.7529	466.553	81.9512	466.553	77.3331	466.553	81.8462	466.553	79.5701	466.553	81.0909
500.244	88.3027	500.244	88.2004	500.244	88.3875	500.244	88.0852	500.244	88.4484	500.244	87.9515	500.244	88.4811	500.244	87.7753	500.244	88.4827	500.244	87.5125	500.244	88.4477	500.244	87.1055	500.244	88.3641	500.244	86.4923	500.244	88.207	500.244	85.6122	500.244	87.9319	500.244	84.4082	500.244	87.4686	500.244	82.8357	500.244	86.7212	500.244	80.9167	500.244	85.5727	500.244	78.9521	500.244	83.9014	500.244	77.8714	500.244	81.6564	500.244	78.4224	500.244	79.2244	500.244	79.7736	500.244	78.1348	500.244	80.9283	500.244	79.1375	500.244	81.5078	500.244	80.5543	500.244	81.3962
536.133	89.1179	536.133	88.8214	536.133	89.1746	536.133	88.3124	536.133	88.9945	536.133	87.6557	536.133	88.6049	536.133	86.9526	536.133	88.0563	536.133	86.3109	536.133	87.4209	536.133	85.7839	536.133	86.7852	536.133	85.3229	536.133	86.2232	536.133	84.7971	536.133	85.7516	536.133	84.0526	536.133	85.2936	536.133	82.9627	536.133	84.679	536.133	81.4872	536.133	83.6644	536.133	79.8681	536.133	81.9319	536.133	78.9959	536.133	79.0699	536.133	79.7052	536.133	75.1598	536.133	81.2204	536.133	75.0821	536.133	82.4845	536.133	78.8591	536.133	83.069	536.133	81.4951	536.133	82.8008
574.219	90.081	574.219	89.7615	574.219	90.148	574.219	89.1814	574.219	89.9849	574.219	88.3551	574.219	89.6254	574.219	87.3325	574.219	89.1116	574.219	86.2136	574.219	88.4927	574.219	85.1401	574.219	87.8238	574.219	84.2281	574.219	87.1611	574.219	83.467	574.219	86.5452	574.219	82.7008	574.219	85.9666	574.219	81.7234	574.219	85.331	574.219	80.4072	574.219	84.4429	574.219	78.9191	574.219	82.9955	574.219	78.1041	574.219	80.4874	574.219	78.8339	574.219	75.7892	574.219	80.3335	574.219	65.2675	574.219	81.4757	574.219	72.8156	574.219	81.7673	574.219	78.4657	574.219	80.9279
615.234	90.0529	615.234	90.0917	615.234	89.7436	615.234	89.8323	615.234	89.2115	615.234	89.2689	615.234	88.5227	615.234	88.425	615.234	87.7584	615.234	87.3641	615.234	87.0037	615.234	86.1923	615.234	86.3283	615.234	85.0172	615.234	85.7628	615.234	83.8422	615.234	85.2864	615.234	82.4613	615.234	84.8293	615.234	80.42	615.234	84.28	615.234	76.8171	615.234	83.4736	615.234	68.3252	615.234	82.1517	615.234	66.7652	615.234	79.8601	615.234	76.6931	615.234	75.6535	615.234	80.6199	615.234	69.2383	615.234	82.4578	615.234	74.6266	615.234	82.899	615.234	79.5884	615.234	82.0366
659.912	90.0913	659.912	90.2993	659.912	89.5753	659.912	90.189	659.912	88.7693	659.912	89.7601	659.912	87.7022	659.912	89.0325	659.912	86.4232	659.912	88.0661	659.912	85.0273	659.912	86.9905	659.912	83.7146	659.912	86.0107	659.912	82.8374	659.912	85.3017	659.912	82.6948	659.912	84.8146	659.912	83.1286	659.912	84.2486	659.912	83.6346	659.912	83.2077	659.912	83.7575	659.912	81.2516	659.912	83.1464	659.912	77.7243	659.912	81.3903	659.912	71.9429	659.912	77.6624	659.912	72.6939	659.912	69.2799	659.912	77.443	659.912	70.5752	659.912	79.5565	659.912	77.199	659.912	79.5375
706.787	89.659	706.787	89.7599	706.787	89.2861	706.787	89.5651	706.787	88.6752	706.787	89.0514	706.787	87.8781	706.787	88.1952	706.787	86.9566	706.787	86.9967	706.787	85.9566	706.787	85.5514	706.787	84.8747	706.787	84.168	706.787	83.6434	706.787	83.3048	706.787	82.1671	706.787	83.0326	706.787	80.4903	706.787	82.8357	706.787	79.1871	706.787	82.1457	706.787	79.1583	706.787	80.5374	706.787	79.9135	706.787	77.4575	706.787	80.1038	706.787	71.3534	706.787	78.854	706.787	59.0724	706.787	75.3726	706.787	70.8893	706.787	69.0148	706.787	74.3166	706.787	70.4732	706.787	74.1
758.057	89.0512	758.057	89.3026	758.057	88.554	758.057	89.282	758.057	87.9007	758.057	88.9994	758.057	87.2156	758.057	88.4521	758.057	86.5766	758.057	87.5976	758.057	85.9487	758.057	86.3871	758.057	85.1879	758.057	84.888	758.057	84.0941	758.057	83.4552	758.057	82.5166	758.057	82.5801	758.057	80.6582	758.057	82.1969	758.057	79.5848	758.057	81.6886	758.057	79.9513	758.057	80.4683	758.057	80.3435	758.057	77.8914	758.057	79.4363	758.057	72.2828	758.057	76.3959	758.057	45.6861	758.057	70.9291	758.057	72.6139	758.057	72.6921	758.057	77.1251	758.057	76.8526	758.057	78.2229
812.256	86.2666	812.256	86.7183	812.256	85.8828	812.256	87.101	812.256	85.6788	812.256	87.3115	812.256	85.681	812.256	87.2933	812.256	85.8275	812.256	87.017	812.256	86.0093	812.256	86.4664	812.256	86.0811	812.256	85.6604	812.256	85.8422	812.256	84.6928	812.256	85.0516	812.256	83.6997	812.256	83.5301	812.256	82.68	812.256	81.4894	812.256	81.3812	812.256	80.208	812.256	79.4737	812.256	80.6281	812.256	76.7629	812.256	81.1765	812.256	73.0943	812.256	80.5528	812.256	67.6299	812.256	78.3088	812.256	57.0562	812.256	74.2575	812.256	61.3468	812.256	69.0777	812.256	65.6076
870.85	87.0455	870.85	87.2929	870.85	86.3566	870.85	87.1157	870.85	85.3774	870.85	86.6109	870.85	84.4235	870.85	85.8569	870.85	83.7517	870.85	84.8748	870.85	83.3286	870.85	83.7683	870.85	83.0099	870.85	82.9986	870.85	82.7803	870.85	83.0894	870.85	82.6342	870.85	83.6881	870.85	82.3748	870.85	84.0044	870.85	81.7942	870.85	83.5717	870.85	81.2078	870.85	82.135	870.85	81.4593	870.85	79.3913	870.85	82.2313	870.85	74.7546	870.85	82.2033	870.85	66.7637	870.85	80.5533	870.85	54.7821	870.85	76.7851	870.85	55.1679	870.85	70.0169	870.85	55.195
933.105	86.7815	933.105	86.982	933.105	86.4027	933.105	86.9631	933.105	85.9908	933.105	86.7895	933.105	85.6216	933.105	86.4889	933.105	85.1715	933.105	85.9117	933.105	84.4226	933.105	84.7457	933.105	83.2243	933.105	82.6568	933.105	81.6105	933.105	79.6317	933.105	80.066	933.105	77.4289	933.105	79.4359	933.105	78.3955	933.105	79.5071	933.105	79.9849	933.105	79.5587	933.105	80.6706	933.105	80.1599	933.105	80.1709	933.105	81.6546	933.105	77.926	933.105	82.6069	933.105	72.4833	933.105	81.7844	933.105	61.887	933.105	78.2661	933.105	66.8952	933.105	69.4981	933.105	61.8704
999.756	85.9371	999.756	86.4142	999.756	85.3759	999.756	86.6599	999.756	84.8873	999.756	86.5365	999.756	84.6162	999.756	85.9848	999.756	84.5899	999.756	85.0749	999.756	84.6759	999.756	83.8899	999.756	84.6713	999.756	82.3451	999.756	84.3981	999.756	80.1814	999.756	83.7605	999.756	77.2503	999.756	82.8265	999.756	75.3864	999.756	81.7497	999.756	77.0129	999.756	80.3908	999.756	78.4371	999.756	78.5238	999.756	77.8714	999.756	77.174	999.756	74.8836	999.756	77.6145	999.756	68.5721	999.756	77.6101	999.756	63.1775	999.756	74.9605	999.756	65.1941	999.756	67.0785	999.756	56.2879
1,071.53	86.4429	1,071.53	86.9228	1,071.53	85.6737	1,071.53	86.914	1,071.53	84.9246	1,071.53	86.4666	1,071.53	84.4418	1,071.53	85.9002	1,071.53	84.2885	1,071.53	85.5422	1,071.53	84.3549	1,071.53	85.1178	1,071.53	84.2974	1,071.53	83.9632	1,071.53	83.4808	1,071.53	82.4082	1,071.53	81.1839	1,071.53	81.6311	1,071.53	77.8763	1,071.53	80.9121	1,071.53	77.6298	1,071.53	79.2169	1,071.53	78.9602	1,071.53	77.0256	1,071.53	79.4076	1,071.53	75.5701	1,071.53	79.4104	1,071.53	74.278	1,071.53	79.9948	1,071.53	71.0912	1,071.53	79.9601	1,071.53	65.3665	1,071.53	77.3976	1,071.53	62.7722	1,071.53	70.7335	1,071.53	58.5641
1,148.44	87.8141	1,148.44	87.738	1,148.44	87.514	1,148.44	87.3024	1,148.44	86.956	1,148.44	86.7539	1,148.44	86.3858	1,148.44	86.5868	1,148.44	86.0246	1,148.44	87.0786	1,148.44	85.975	1,148.44	87.4453	1,148.44	86.0839	1,148.44	86.1678	1,148.44	85.7231	1,148.44	82.0278	1,148.44	83.9483	1,148.44	74.7114	1,148.44	79.7822	1,148.44	75.4639	1,148.44	73.0014	1,148.44	78.858	1,148.44	73.3885	1,148.44	79.1414	1,148.44	77.6424	1,148.44	75.9726	1,148.44	79.2532	1,148.44	68.7455	1,148.44	80.7223	1,148.44	69.0315	1,148.44	81.4964	1,148.44	70.992	1,148.44	79.505	1,148.44	69.2096	1,148.44	74.0947	1,148.44	67.4355
1,231.2	89.5091	1,231.2	89.3744	1,231.2	89.501	1,231.2	89.3602	1,231.2	89.3077	1,231.2	89.3923	1,231.2	88.9116	1,231.2	88.7456	1,231.2	88.2443	1,231.2	86.8152	1,231.2	87.4869	1,231.2	84.4397	1,231.2	86.9789	1,231.2	83.5282	1,231.2	86.67	1,231.2	83.8131	1,231.2	86.0039	1,231.2	83.1743	1,231.2	84.791	1,231.2	78.9378	1,231.2	83.0388	1,231.2	73.4483	1,231.2	80.0659	1,231.2	79.1866	1,231.2	77.8666	1,231.2	80.4338	1,231.2	77.6626	1,231.2	77.429	1,231.2	78.7124	1,231.2	66.6374	1,231.2	80.2618	1,231.2	68.1804	1,231.2	79.2592	1,231.2	73.2544	1,231.2	75.8031	1,231.2	73.3369
1,319.82	89.819	1,319.82	90.1766	1,319.82	89.6151	1,319.82	90.2516	1,319.82	89.6178	1,319.82	89.7328	1,319.82	89.4881	1,319.82	88.6852	1,319.82	88.9425	1,319.82	87.2756	1,319.82	88.0099	1,319.82	85.4668	1,319.82	87.0605	1,319.82	83.5204	1,319.82	86.3872	1,319.82	81.8002	1,319.82	85.5537	1,319.82	79.5993	1,319.82	83.8942	1,319.82	76.3075	1,319.82	81.5417	1,319.82	72.9838	1,319.82	79.6459	1,319.82	77.2245	1,319.82	78.8245	1,319.82	79.8285	1,319.82	77.5608	1,319.82	78.5024	1,319.82	75.3488	1,319.82	72.1529	1,319.82	75.5108	1,319.82	65.4953	1,319.82	76.4446	1,319.82	72.5985	1,319.82	75.4186	1,319.82	73.918
1,414.31	89.8957	1,414.31	90.2219	1,414.31	89.5036	1,414.31	90.2225	1,414.31	89.2488	1,414.31	89.7475	1,414.31	89.0914	1,414.31	88.6998	1,414.31	88.781	1,414.31	86.9109	1,414.31	87.9967	1,414.31	84.7484	1,414.31	86.5669	1,414.31	83.222	1,414.31	84.9219	1,414.31	83.1018	1,414.31	83.8577	1,414.31	83.9397	1,414.31	83.5133	1,414.31	82.3584	1,414.31	83.5358	1,414.31	75.9107	1,414.31	82.2987	1,414.31	73.8842	1,414.31	80.6392	1,414.31	79.5962	1,414.31	79.4927	1,414.31	79.6219	1,414.31	77.701	1,414.31	74.2189	1,414.31	76.5205	1,414.31	61.6945	1,414.31	75.6018	1,414.31	74.8098	1,414.31	75.3278	1,414.31	76.4213
1,515.38	90.8381	1,515.38	90.7665	1,515.38	90.2366	1,515.38	90.0497	1,515.38	89.3167	1,515.38	89.0189	1,515.38	88.5526	1,515.38	88.0449	1,515.38	88.1304	1,515.38	87.355	1,515.38	87.7093	1,515.38	86.7027	1,515.38	86.6382	1,515.38	84.9194	1,515.38	84.5975	1,515.38	80.9379	1,515.38	82.7597	1,515.38	77.1186	1,515.38	82.7856	1,515.38	76.6882	1,515.38	82.8993	1,515.38	75.2564	1,515.38	81.0702	1,515.38	67.6012	1,515.38	79.2084	1,515.38	72.7699	1,515.38	77.5567	1,515.38	76.6614	1,515.38	74.829	1,515.38	75.445	1,515.38	74.9547	1,515.38	67.9213	1,515.38	74.5788	1,515.38	71.827	1,515.38	73.0853	1,515.38	74.4821
1,624.51	90.0228	1,624.51	90.3232	1,624.51	89.6093	1,624.51	90.4346	1,624.51	88.8894	1,624.51	90.0983	1,624.51	87.7915	1,624.51	89.0995	1,624.51	86.6314	1,624.51	87.4681	1,624.51	85.6271	1,624.51	85.5754	1,624.51	84.5878	1,624.51	83.5662	1,624.51	83.1846	1,624.51	80.9283	1,624.51	81.8135	1,624.51	78.0041	1,624.51	81.7865	1,624.51	76.6403	1,624.51	82.371	1,624.51	75.3487	1,624.51	80.9228	1,624.51	70.472	1,624.51	77.2603	1,624.51	67.2622	1,624.51	75.7898	1,624.51	72.834	1,624.51	73.6492	1,624.51	72.6341	1,624.51	69.9856	1,624.51	69.104	1,624.51	71.1792	1,624.51	73.1894	1,624.51	69.8523	1,624.51	73.5227
1,740.97	89.7037	1,740.97	89.9945	1,740.97	88.7273	1,740.97	89.7917	1,740.97	87.0554	1,740.97	89.1648	1,740.97	85.093	1,740.97	88.0283	1,740.97	83.4466	1,740.97	86.1087	1,740.97	82.4232	1,740.97	83.2617	1,740.97	81.5005	1,740.97	80.1816	1,740.97	80.1185	1,740.97	77.9961	1,740.97	79.1579	1,740.97	76.443	1,740.97	79.5922	1,740.97	74.8843	1,740.97	80.033	1,740.97	74.2206	1,740.97	78.0023	1,740.97	72.1597	1,740.97	74.6297	1,740.97	68.3766	1,740.97	75.0603	1,740.97	69.5597	1,740.97	75.1404	1,740.97	70.266	1,740.97	73.1283	1,740.97	67.0434	1,740.97	69.7034	1,740.97	68.2765	1,740.97	65.0976	1,740.97	68.6332
1,866.21	88.3682	1,866.21	89.0109	1,866.21	87.3023	1,866.21	88.7414	1,866.21	85.4965	1,866.21	87.2074	1,866.21	82.4034	1,866.21	84.9583	1,866.21	78.9095	1,866.21	83.1283	1,866.21	76.7807	1,866.21	81.6708	1,866.21	76.5883	1,866.21	79.5401	1,866.21	77.5416	1,866.21	76.9224	1,866.21	77.32	1,866.21	75.0463	1,866.21	73.7581	1,866.21	73.8428	1,866.21	75.9331	1,866.21	72.3753	1,866.21	78.7906	1,866.21	70.7195	1,866.21	75.0429	1,866.21	69.5094	1,866.21	70.0556	1,866.21	68.3526	1,866.21	73.1599	1,866.21	67.2081	1,866.21	68.9123	1,866.21	68.5721	1,866.21	65.9541	1,866.21	69.8846	1,866.21	52.398	1,866.21	66.4027
2,000.24	88.2689	2,000.24	87.8732	2,000.24	86.6057	2,000.24	86.031	2,000.24	82.7233	2,000.24	83.885	2,000.24	76.603	2,000.24	82.3775	2,000.24	73.8013	2,000.24	81.1163	2,000.24	78.2419	2,000.24	79.6077	2,000.24	80.522	2,000.24	77.7315	2,000.24	81.0703	2,000.24	75.0013	2,000.24	80.4736	2,000.24	72.9033	2,000.24	77.6751	2,000.24	72.7785	2,000.24	72.4809	2,000.24	71.4071	2,000.24	76.5865	2,000.24	69.4469	2,000.24	76.56	2,000.24	70.9535	2,000.24	70.2836	2,000.24	70.6808	2,000.24	72.0996	2,000.24	68.3878	2,000.24	72.711	2,000.24	69.9653	2,000.24	67.1101	2,000.24	68.6	2,000.24	67.1297	2,000.24	59.9628
2,143.8	87.8961	2,143.8	87.6769	2,143.8	86.1984	2,143.8	85.9001	2,143.8	81.3701	2,143.8	82.1939	2,143.8	68.0941	2,143.8	77.9067	2,143.8	76.804	2,143.8	77.5413	2,143.8	81.9554	2,143.8	77.0134	2,143.8	83.737	2,143.8	76.6015	2,143.8	83.9854	2,143.8	75.7648	2,143.8	83.3588	2,143.8	74.0464	2,143.8	80.8457	2,143.8	74.2877	2,143.8	74.4118	2,143.8	73.868	2,143.8	75.4243	2,143.8	70.3486	2,143.8	76.8291	2,143.8	71.4894	2,143.8	73.2083	2,143.8	72.4851	2,143.8	73.1746	2,143.8	68.306	2,143.8	74.8767	2,143.8	70.2145	2,143.8	67.6605	2,143.8	70.414	2,143.8	67.3029	2,143.8	55.7153
2,297.61	88.6658	2,297.61	87.9562	2,297.61	86.1931	2,297.61	84.422	2,297.61	77.9718	2,297.61	77.1327	2,297.61	73.047	2,297.61	66.0724	2,297.61	81.8089	2,297.61	73.8792	2,297.61	84.1121	2,297.61	77.2508	2,297.61	85.2857	2,297.61	78.6336	2,297.61	85.7578	2,297.61	78.394	2,297.61	85.0605	2,297.61	77.9032	2,297.61	81.7681	2,297.61	77.2155	2,297.61	73.4443	2,297.61	75.3322	2,297.61	71.4538	2,297.61	72.5145	2,297.61	75.6171	2,297.61	72.9331	2,297.61	73.9793	2,297.61	73.7837	2,297.61	71.0076	2,297.61	71.1497	2,297.61	72.6966	2,297.61	70.9824	2,297.61	67.1283	2,297.61	71.4488	2,297.61	62.3106	2,297.61	61.0187
2,462.4	88.4772	2,462.4	87.9932	2,462.4	86.4085	2,462.4	85.8492	2,462.4	78.1311	2,462.4	81.2625	2,462.4	76.683	2,462.4	72.4386	2,462.4	84.0763	2,462.4	77.984	2,462.4	85.256	2,462.4	80.246	2,462.4	84.9832	2,462.4	79.0386	2,462.4	84.982	2,462.4	77.2778	2,462.4	84.6176	2,462.4	76.0701	2,462.4	80.2007	2,462.4	75.8027	2,462.4	63.9321	2,462.4	75.9141	2,462.4	71.5803	2,462.4	74.4384	2,462.4	74.1006	2,462.4	72.8588	2,462.4	72.6584	2,462.4	72.8368	2,462.4	69.7785	2,462.4	72.6877	2,462.4	73.9956	2,462.4	72.3986	2,462.4	67.5088	2,462.4	70.5011	2,462.4	59.2656	2,462.4	63.0504
2,638.92	89.2627	2,638.92	89.2451	2,638.92	86.5516	2,638.92	86.2371	2,638.92	79.4686	2,638.92	80.9729	2,638.92	78.7542	2,638.92	81.0065	2,638.92	84.6846	2,638.92	81.5059	2,638.92	85.8516	2,638.92	81.5637	2,638.92	84.938	2,638.92	81.7352	2,638.92	84.5821	2,638.92	80.7099	2,638.92	83.7139	2,638.92	79.3729	2,638.92	75.9332	2,638.92	78.6194	2,638.92	62.3981	2,638.92	77.7671	2,638.92	67.8744	2,638.92	75.9079	2,638.92	73.5379	2,638.92	74.6032	2,638.92	75.6849	2,638.92	74.4715	2,638.92	67.6586	2,638.92	73.2854	2,638.92	72.0716	2,638.92	72.564	2,638.92	66.1999	2,638.92	69.9435	2,638.92	64.679	2,638.92	66.0086
2,828.61	89.6533	2,828.61	89.2856	2,828.61	87.7019	2,828.61	87.0603	2,828.61	82.2525	2,828.61	84.1812	2,828.61	81.4879	2,828.61	82.3688	2,828.61	86.0861	2,828.61	82.7241	2,828.61	86.7871	2,828.61	83.4972	2,828.61	85.1657	2,828.61	82.6988	2,828.61	83.5234	2,828.61	81.1731	2,828.61	80.5237	2,828.61	79.6068	2,828.61	73.6305	2,828.61	78.8626	2,828.61	72.5793	2,828.61	78.9861	2,828.61	72.611	2,828.61	77.1526	2,828.61	74.2505	2,828.61	74.1949	2,828.61	70.5407	2,828.61	75.4884	2,828.61	61.1441	2,828.61	75.079	2,828.61	67.1368	2,828.61	72.7754	2,828.61	65.1749	2,828.61	69.3124	2,828.61	69.6759	2,828.61	65.5876
3,031.49	89.3092	3,031.49	89.4349	3,031.49	87.8914	3,031.49	88.1402	3,031.49	85.3548	3,031.49	85.9474	3,031.49	83.4543	3,031.49	84.6948	3,031.49	85.5578	3,031.49	85.3035	3,031.49	87.047	3,031.49	85.0034	3,031.49	86.112	3,031.49	84.0749	3,031.49	83.4207	3,031.49	83.4484	3,031.49	80.5107	3,031.49	81.8136	3,031.49	81.0457	3,031.49	79.6735	3,031.49	76.374	3,031.49	78.816	3,031.49	64.6318	3,031.49	77.5968	3,031.49	68.9906	3,031.49	74.1816	3,031.49	69.2161	3,031.49	74.4347	3,031.49	67.2211	3,031.49	74.756	3,031.49	65.0751	3,031.49	71.3733	3,031.49	63.8642	3,031.49	70.2073	3,031.49	69.2959	3,031.49	59.5404
3,249.02	89.3787	3,249.02	90.2734	3,249.02	88.859	3,249.02	89.3836	3,249.02	88.1818	3,249.02	86.9373	3,249.02	86.4398	3,249.02	86.4685	3,249.02	86.0016	3,249.02	86.3678	3,249.02	86.7343	3,249.02	85.7677	3,249.02	86.5176	3,249.02	83.7489	3,249.02	85.2581	3,249.02	80.9317	3,249.02	84.468	3,249.02	81.003	3,249.02	84.4651	3,249.02	80.1627	3,249.02	80.7078	3,249.02	78.1767	3,249.02	73.815	3,249.02	77.206	3,249.02	65.9495	3,249.02	74.1242	3,249.02	69.1658	3,249.02	72.4484	3,249.02	71.762	3,249.02	73.9289	3,249.02	66.6314	3,249.02	69.1945	3,249.02	67.097	3,249.02	69.5294	3,249.02	67.0926	3,249.02	56.148
3,481.93	89.2382	3,481.93	90.673	3,481.93	87.8345	3,481.93	88.9642	3,481.93	89.0491	3,481.93	87.3344	3,481.93	87.4055	3,481.93	87.0181	3,481.93	84.4881	3,481.93	85.5145	3,481.93	85.5552	3,481.93	83.8206	3,481.93	85.7386	3,481.93	83.2282	3,481.93	84.2095	3,481.93	81.6612	3,481.93	83.9117	3,481.93	78.7932	3,481.93	83.371	3,481.93	78.5985	3,481.93	79.4831	3,481.93	78.232	3,481.93	77.9175	3,481.93	77.177	3,481.93	73.7225	3,481.93	74.7124	3,481.93	69.8229	3,481.93	71.78	3,481.93	69.4257	3,481.93	73.2809	3,481.93	64.7391	3,481.93	70.4828	3,481.93	67.4678	3,481.93	67.5126	3,481.93	66.7228	3,481.93	65.4983
3,732.42	88.8798	3,732.42	90.2122	3,732.42	87.2585	3,732.42	88.3859	3,732.42	89.5785	3,732.42	86.9162	3,732.42	88.9576	3,732.42	85.5931	3,732.42	84.298	3,732.42	85.6754	3,732.42	81.7991	3,732.42	84.8875	3,732.42	83.8276	3,732.42	82.8105	3,732.42	82.4522	3,732.42	82.3163	3,732.42	79.7214	3,732.42	79.8597	3,732.42	75.292	3,732.42	77.723	3,732.42	68.296	3,732.42	76.8555	3,732.42	70.3447	3,732.42	75.7543	3,732.42	70.2148	3,732.42	73.2535	3,732.42	67.1525	3,732.42	70.1496	3,732.42	67.8839	3,732.42	72.3493	3,732.42	63.8236	3,732.42	70.8469	3,732.42	68.1451	3,732.42	66.9535	3,732.42	69.5624	3,732.42	65.0124
3,999.76	88.512	3,999.76	88.9581	3,999.76	86.7727	3,999.76	87.5484	3,999.76	88.6133	3,999.76	86.8596	3,999.76	89.0014	3,999.76	86.5079	3,999.76	86.2187	3,999.76	85.3725	3,999.76	82.7525	3,999.76	82.7618	3,999.76	81.8868	3,999.76	80.035	3,999.76	80.74	3,999.76	77.0863	3,999.76	77.8205	3,999.76	77.1016	3,999.76	73.2251	3,999.76	75.53	3,999.76	73.9329	3,999.76	73.3882	3,999.76	72.1189	3,999.76	73.0589	3,999.76	75.3704	3,999.76	71.4698	3,999.76	55.9752	3,999.76	67.9551	3,999.76	60.1326	3,999.76	70.3919	3,999.76	58.8998	3,999.76	68.7599	3,999.76	65.4755	3,999.76	63.6024	3,999.76	67.027	3,999.76	63.9966
4,286.87	88.2488	4,286.87	89.6817	4,286.87	86.5694	4,286.87	88.8641	4,286.87	88.1774	4,286.87	87.7903	4,286.87	87.7119	4,286.87	86.1058	4,286.87	84.1268	4,286.87	82.8728	4,286.87	82.3785	4,286.87	80.374	4,286.87	84.7218	4,286.87	80.2774	4,286.87	83.6297	4,286.87	77.6258	4,286.87	74.4857	4,286.87	76.358	4,286.87	77.4707	4,286.87	76.636	4,286.87	76.8692	4,286.87	75.1783	4,286.87	68.3383	4,286.87	73.9262	4,286.87	72.027	4,286.87	73.314	4,286.87	64.9394	4,286.87	69.6485	4,286.87	66.1768	4,286.87	70.1512	4,286.87	62.4087	4,286.87	71.4805	4,286.87	56.7085	4,286.87	64.759	4,286.87	64.326	4,286.87	63.894
4,594.48	89.547	4,594.48	90.1306	4,594.48	87.0934	4,594.48	89.0236	4,594.48	88.2113	4,594.48	87.1725	4,594.48	88.3337	4,594.48	84.1445	4,594.48	85.292	4,594.48	83.2043	4,594.48	83.5355	4,594.48	80.6127	4,594.48	84.4221	4,594.48	80.1192	4,594.48	80.7686	4,594.48	76.9067	4,594.48	81.8498	4,594.48	75.3801	4,594.48	79.6162	4,594.48	74.7326	4,594.48	69.0855	4,594.48	73.8176	4,594.48	63.9018	4,594.48	72.6861	4,594.48	60.9112	4,594.48	70.5069	4,594.48	68.0568	4,594.48	69.8506	4,594.48	63.423	4,594.48	67.3437	4,594.48	63.4279	4,594.48	70.6215	4,594.48	67.7683	4,594.48	61.1772	4,594.48	67.5572	4,594.48	61.657
4,924.8	89.4787	4,924.8	90.5046	4,924.8	88.1559	4,924.8	88.9931	4,924.8	88.6221	4,924.8	86.2889	4,924.8	88.5121	4,924.8	84.5705	4,924.8	85.928	4,924.8	81.5348	4,924.8	82.4086	4,924.8	80.9604	4,924.8	81.8456	4,924.8	79.4688	4,924.8	82.2685	4,924.8	76.7238	4,924.8	83.5305	4,924.8	75.6052	4,924.8	79.061	4,924.8	74.7041	4,924.8	75.2086	4,924.8	74.5671	4,924.8	68.8167	4,924.8	73.0422	4,924.8	63.6053	4,924.8	70.6573	4,924.8	60.0744	4,924.8	67.8135	4,924.8	59.0464	4,924.8	68.4551	4,924.8	49.1586	4,924.8	69.5892	4,924.8	65.0959	4,924.8	62.5343	4,924.8	61.6603	4,924.8	64.1516
5,277.83	89.4828	5,277.83	89.934	5,277.83	88.3795	5,277.83	88.3023	5,277.83	88.4943	5,277.83	87.0273	5,277.83	88.0907	5,277.83	85.0619	5,277.83	86.0818	5,277.83	82.9934	5,277.83	83.1335	5,277.83	80.1722	5,277.83	80.4172	5,277.83	79.2449	5,277.83	82.1161	5,277.83	79.4515	5,277.83	81.4995	5,277.83	76.7202	5,277.83	73.571	5,277.83	75.1557	5,277.83	68.745	5,277.83	75.1711	5,277.83	71.1822	5,277.83	74.2995	5,277.83	64.3678	5,277.83	71.6077	5,277.83	50.4588	5,277.83	70.2837	5,277.83	61.3254	5,277.83	69.0777	5,277.83	60.7156	5,277.83	70.0173	5,277.83	59.312	5,277.83	65.0341	5,277.83	57.9805	5,277.83	64.1061
5,656.49	87.6583	5,656.49	88.9732	5,656.49	87.5944	5,656.49	88.6785	5,656.49	88.8729	5,656.49	87.8009	5,656.49	88.9571	5,656.49	86.1573	5,656.49	86.8932	5,656.49	82.7155	5,656.49	84.3153	5,656.49	80.8042	5,656.49	82.0235	5,656.49	80.1629	5,656.49	80.4771	5,656.49	78.3168	5,656.49	75.5618	5,656.49	76.2502	5,656.49	71.504	5,656.49	73.5459	5,656.49	66.6045	5,656.49	72.9349	5,656.49	64.5724	5,656.49	71.1922	5,656.49	65.8619	5,656.49	69.6557	5,656.49	60.4382	5,656.49	69.0022	5,656.49	44.7151	5,656.49	66.2582	5,656.49	47.6052	5,656.49	69.2729	5,656.49	51.8132	5,656.49	63.5161	5,656.49	60.2568	5,656.49	61.301
6,062.99	88.8416	6,062.99	89.5194	6,062.99	87.3885	6,062.99	88.8886	6,062.99	88.2391	6,062.99	88.7301	6,062.99	88.4685	6,062.99	86.2591	6,062.99	86.8684	6,062.99	83.9623	6,062.99	84.6128	6,062.99	81.2827	6,062.99	81.3716	6,062.99	77.4219	6,062.99	80.9376	6,062.99	74.8882	6,062.99	75.8196	6,062.99	73.0401	6,062.99	77.1427	6,062.99	71.1381	6,062.99	66.5691	6,062.99	70.2528	6,062.99	62.9936	6,062.99	70.2078	6,062.99	66.0778	6,062.99	67.5641	6,062.99	66.0104	6,062.99	65.6056	6,062.99	59.1955	6,062.99	63.6813	6,062.99	44.1936	6,062.99	67.4617	6,062.99	52.228	6,062.99	63.9833	6,062.99	59.8598	6,062.99	58.3895
6,498.05	90.2184	6,498.05	90.0899	6,498.05	89.0461	6,498.05	89.5517	6,498.05	88.2287	6,498.05	87.9393	6,498.05	87.0991	6,498.05	84.8786	6,498.05	85.1317	6,498.05	82.782	6,498.05	82.0754	6,498.05	79.7201	6,498.05	81.8379	6,498.05	77.9332	6,498.05	79.7465	6,498.05	73.0721	6,498.05	74.8185	6,498.05	71.0913	6,498.05	73.0496	6,498.05	68.7839	6,498.05	59.5372	6,498.05	68.4631	6,498.05	63.5405	6,498.05	65.399	6,498.05	64.7462	6,498.05	65.3334	6,498.05	60.1312	6,498.05	61.9903	6,498.05	51.7732	6,498.05	61.2462	6,498.05	52.0306	6,498.05	61.3279	6,498.05	60.4591	6,498.05	59.8406	6,498.05	55.9151	6,498.05	49.9458
6,964.6	90.7396	6,964.6	90.5729	6,964.6	90.5451	6,964.6	89.4825	6,964.6	89.0515	6,964.6	86.8621	6,964.6	86.9588	6,964.6	84.2984	6,964.6	84.643	6,964.6	79.4632	6,964.6	82.9095	6,964.6	76.3747	6,964.6	80.6175	6,964.6	70.181	6,964.6	71.174	6,964.6	69.9127	6,964.6	75.62	6,964.6	68.2544	6,964.6	73.9477	6,964.6	68.0922	6,964.6	72.4442	6,964.6	66.3032	6,964.6	66.6012	6,964.6	66.8068	6,964.6	45.2625	6,964.6	64.2113	6,964.6	61.3845	6,964.6	59.5011	6,964.6	57.7572	6,964.6	60.525	6,964.6	49.7444	6,964.6	62.9663	6,964.6	56.2236	6,964.6	56.9299	6,964.6	60.1562	6,964.6	51.1365
7,464.11	90.3964	7,464.11	89.2144	7,464.11	91.0152	7,464.11	87.7869	7,464.11	89.8668	7,464.11	86.2235	7,464.11	86.8425	7,464.11	83.3378	7,464.11	83.7902	7,464.11	80.2402	7,464.11	81.9881	7,464.11	75.6655	7,464.11	79.2281	7,464.11	74.4467	7,464.11	77.881	7,464.11	71.8508	7,464.11	79.3814	7,464.11	71.1912	7,464.11	75.4356	7,464.11	68.0124	7,464.11	76.0114	7,464.11	68.6235	7,464.11	57.154	7,464.11	66.1925	7,464.11	66.9416	7,464.11	64.5224	7,464.11	51.4316	7,464.11	59.3726	7,464.11	58.7207	7,464.11	56.2514	7,464.11	57.686	7,464.11	64.4052	7,464.11	40.9758	7,464.11	54.0174	7,464.11	59.9609	7,464.11	48.9124
8,000.24	89.2469	8,000.24	88.4372	8,000.24	89.5318	8,000.24	86.831	8,000.24	88.3003	8,000.24	85.7663	8,000.24	85.5946	8,000.24	84.3476	8,000.24	82.6233	8,000.24	80.4317	8,000.24	80.7771	8,000.24	78.8169	8,000.24	78.9121	8,000.24	76.1447	8,000.24	76.4316	8,000.24	73.8839	8,000.24	75.2407	8,000.24	70.865	8,000.24	72.4991	8,000.24	68.7074	8,000.24	75.1219	8,000.24	68.4291	8,000.24	57.0735	8,000.24	66.3366	8,000.24	69.1254	8,000.24	61.2945	8,000.24	60.2088	8,000.24	57.2274	8,000.24	54.8805	8,000.24	59.0143	8,000.24	50.3193	8,000.24	64.1155	8,000.24	49.6024	8,000.24	58.4714	8,000.24	56.0356	8,000.24	52.6556
8,574.46	91.2494	8,574.46	90.2486	8,574.46	89.6438	8,574.46	87.6295	8,574.46	86.2772	8,574.46	85.6805	8,574.46	83.2347	8,574.46	82.636	8,574.46	81.0098	8,574.46	79.7936	8,574.46	79.3769	8,574.46	78.1945	8,574.46	77.3684	8,574.46	74.6737	8,574.46	72.3182	8,574.46	71.1093	8,574.46	66.6828	8,574.46	67.0263	8,574.46	67.6163	8,574.46	67.4567	8,574.46	70.1706	8,574.46	63.7243	8,574.46	40.8055	8,574.46	64.0122	8,574.46	69.3057	8,574.46	60.8138	8,574.46	53.5808	8,574.46	53.5874	8,574.46	57.6675	8,574.46	50.1926	8,574.46	45.438	8,574.46	62.0868	8,574.46	54.7452	8,574.46	56.6562	8,574.46	53.8478	8,574.46	51.9782
9,189.7	90.8132	9,189.7	88.9017	9,189.7	89.7524	9,189.7	86.3919	9,189.7	86.5373	9,189.7	84.3542	9,189.7	83.1578	9,189.7	81.4607	9,189.7	79.9346	9,189.7	78.8814	9,189.7	78.8701	9,189.7	76.0578	9,189.7	75.5011	9,189.7	72.4761	9,189.7	61.2801	9,189.7	68.2752	9,189.7	68.6782	9,189.7	65.7648	9,189.7	68.0118	9,189.7	60.9691	9,189.7	72.2827	9,189.7	63.7256	9,189.7	64.5243	9,189.7	63.4498	9,189.7	71.6513	9,189.7	51.1547	9,189.7	60.692	9,189.7	56.1083	9,189.7	57.2669	9,189.7	58.8425	9,189.7	51.6184	9,189.7	57.9358	9,189.7	55.4719	9,189.7	59.3302	9,189.7	52.7538	9,189.7	48.3633
9,848.88	88.575	9,848.88	87.7545	9,848.88	87.7428	9,848.88	86.6645	9,848.88	86.6328	9,848.88	85.0892	9,848.88	85.0204	9,848.88	82.1533	9,848.88	82.3207	9,848.88	78.3402	9,848.88	77.026	9,848.88	75.3086	9,848.88	69.3303	9,848.88	70.7559	9,848.88	60.6979	9,848.88	67.736	9,848.88	61.8782	9,848.88	63.3582	9,848.88	66.2552	9,848.88	64.2248	9,848.88	73.7538	9,848.88	62.1918	9,848.88	66.7434	9,848.88	61.8367	9,848.88	73.1164	9,848.88	59.4379	9,848.88	62.617	9,848.88	47.7859	9,848.88	55.3324	9,848.88	61.2678	9,848.88	56.1914	9,848.88	38.4863	9,848.88	56.9806	9,848.88	62.605	9,848.88	48.1948	9,848.88	43.6048
10,556.4	88.3181	10,556.4	89.1272	10,556.4	87.5118	10,556.4	88.0691	10,556.4	87.7154	10,556.4	85.2998	10,556.4	85.5299	10,556.4	80.9168	10,556.4	80.9675	10,556.4	77.5276	10,556.4	74.9631	10,556.4	72.9376	10,556.4	71.2019	10,556.4	71.2632	10,556.4	72.0212	10,556.4	65.9566	10,556.4	66.0965	10,556.4	63.9849	10,556.4	63.795	10,556.4	62.098	10,556.4	73.1005	10,556.4	52.1751	10,556.4	65.4366	10,556.4	54.6612	10,556.4	73.2175	10,556.4	53.6425	10,556.4	65.1762	10,556.4	52.5266	10,556.4	52.0984	10,556.4	54.3654	10,556.4	51.4175	10,556.4	50.9053	10,556.4	53.2632	10,556.4	59.1811	10,556.4	49.4596	10,556.4	47.2674
11,313.7	87.853	11,313.7	87.8356	11,313.7	88.5466	11,313.7	87.5551	11,313.7	87.7517	11,313.7	84.1642	11,313.7	84.4195	11,313.7	80.7944	11,313.7	80.062	11,313.7	76.7397	11,313.7	76.7829	11,313.7	76.2814	11,313.7	75.9023	11,313.7	73.7197	11,313.7	71.6576	11,313.7	68.9116	11,313.7	63.7901	11,313.7	65.2577	11,313.7	60.2605	11,313.7	57.021	11,313.7	73.0684	11,313.7	60.0974	11,313.7	65.7085	11,313.7	57.0814	11,313.7	73.3905	11,313.7	53.4497	11,313.7	62.74	11,313.7	52.7563	11,313.7	58.8048	11,313.7	50.0124	11,313.7	51.1279	11,313.7	54.4017	11,313.7	57.141	11,313.7	55.9206	11,313.7	52.9812	11,313.7	47.7804
12,126	86.6827	12,126	87.2732	12,126	87.4788	12,126	86.327	12,126	86.321	12,126	84.0441	12,126	82.9734	12,126	81.2306	12,126	80.3487	12,126	79.5606	12,126	78.2614	12,126	76.4695	12,126	74.9088	12,126	71.4863	12,126	68.3969	12,126	65.725	12,126	62.7065	12,126	58.7679	12,126	48.2639	12,126	59.9711	12,126	71.18	12,126	55.7628	12,126	63.2975	12,126	48.1963	12,126	74.3511	12,126	52.4136	12,126	64.3113	12,126	53.2098	12,126	49.0671	12,126	47.4759	12,126	54.7255	12,126	53.1317	12,126	60.1167	12,126	58.5365	12,126	54.9504	12,126	50.3076
12,996.1	88.347	12,996.1	86.8293	12,996.1	86.9908	12,996.1	84.6732	12,996.1	84.6842	12,996.1	84.0158	12,996.1	82.485	12,996.1	81.027	12,996.1	81.3079	12,996.1	77.7692	12,996.1	78.2663	12,996.1	73.7871	12,996.1	70.4568	12,996.1	69.7832	12,996.1	72.3695	12,996.1	63.759	12,996.1	60.7034	12,996.1	64.2766	12,996.1	53.328	12,996.1	58.5554	12,996.1	69.5627	12,996.1	55.2916	12,996.1	65.0438	12,996.1	58.0884	12,996.1	72.3259	12,996.1	37.7609	12,996.1	64.3941	12,996.1	58.2216	12,996.1	61.6206	12,996.1	46.7504	12,996.1	46.9286	12,996.1	55.1991	12,996.1	51.5855	12,996.1	53.3983	12,996.1	47.5559	12,996.1	59.1247
13,928.5	87.2076	13,928.5	85.9974	13,928.5	86.7846	13,928.5	85.7265	13,928.5	84.2966	13,928.5	83.2175	13,928.5	82.3701	13,928.5	80.6238	13,928.5	79.4454	13,928.5	75.1443	13,928.5	76.1278	13,928.5	72.1453	13,928.5	70.4786	13,928.5	70.3088	13,928.5	68.1889	13,928.5	67.0617	13,928.5	64.4191	13,928.5	63.2654	13,928.5	58.0004	13,928.5	57.2656	13,928.5	69.767	13,928.5	55.0801	13,928.5	63.0116	13,928.5	56.5041	13,928.5	68.2685	13,928.5	47.3441	13,928.5	65.0883	13,928.5	58.8905	13,928.5	61.6451	13,928.5	56.119	13,928.5	47.4413	13,928.5	57.3685	13,928.5	55.8772	13,928.5	48.3899	13,928.5	55.068	13,928.5	60.1578
14,928.2	86.5439	14,928.2	86.0312	14,928.2	85.476	14,928.2	84.9892	14,928.2	83.327	14,928.2	82.2982	14,928.2	80.6049	14,928.2	78.499	14,928.2	77.5847	14,928.2	73.0329	14,928.2	73.1951	14,928.2	71.2012	14,928.2	68.7944	14,928.2	69.2321	14,928.2	66.7451	14,928.2	63.6583	14,928.2	64.0844	14,928.2	62.2377	14,928.2	60.9286	14,928.2	50.7236	14,928.2	68.2727	14,928.2	50.2536	14,928.2	60.2432	14,928.2	57.4836	14,928.2	65.6287	14,928.2	57.5821	14,928.2	64.075	14,928.2	54.7524	14,928.2	62.9552	14,928.2	57.4397	14,928.2	45.6575	14,928.2	57.0776	14,928.2	52.2623	14,928.2	47.2616	14,928.2	58.5746	14,928.2	61.7766
15,999.8	86.1683	15,999.8	85.8758	15,999.8	85.8346	15,999.8	84.4121	15,999.8	82.9678	15,999.8	80.3149	15,999.8	80.0413	15,999.8	74.439	15,999.8	76.0619	15,999.8	72.4942	15,999.8	70.7535	15,999.8	67.6556	15,999.8	66.4149	15,999.8	65.0989	15,999.8	60.3104	15,999.8	60.2935	15,999.8	62.6339	15,999.8	61.7528	15,999.8	60.9191	15,999.8	40.835	15,999.8	67.1638	15,999.8	49.4601	15,999.8	62.9452	15,999.8	54.6166	15,999.8	65.5724	15,999.8	57.3986	15,999.8	61.9442	15,999.8	48.4405	15,999.8	59.9926	15,999.8	55.856	15,999.8	49.4663	15,999.8	51.0261	15,999.8	53.3306	15,999.8	44.8399	15,999.8	56.9691	15,999.8	60.5134
17,148.2	85.6852	17,148.2	85.501	17,148.2	85.111	17,148.2	82.9195	17,148.2	81.7096	17,148.2	78.1847	17,148.2	78.5657	17,148.2	74.0094	17,148.2	74.3676	17,148.2	70.2534	17,148.2	69.0789	17,148.2	65.3431	17,148.2	62.7702	17,148.2	64.3896	17,148.2	62.5012	17,148.2	57.4723	17,148.2	60.3112	17,148.2	61.1225	17,148.2	59.721	17,148.2	44.4675	17,148.2	63.8179	17,148.2	51.3895	17,148.2	62.405	17,148.2	52.9332	17,148.2	66.3834	17,148.2	57.0406	17,148.2	60.2702	17,148.2	51.6263	17,148.2	61.7039	17,148.2	54.114	17,148.2	51.5572	17,148.2	51.1468	17,148.2	43.9976	17,148.2	52.9263	17,148.2	59.6204	17,148.2	61.7749
18,379.4	85.9992	18,379.4	84.5872	18,379.4	85.0952	18,379.4	81.2216	18,379.4	80.1282	18,379.4	77.3822	18,379.4	77.0884	18,379.4	72.6984	18,379.4	73.0006	18,379.4	69.3788	18,379.4	68.4686	18,379.4	63.7877	18,379.4	57.4009	18,379.4	60.457	18,379.4	61.4048	18,379.4	54.1656	18,379.4	58.4038	18,379.4	57.6868	18,379.4	57.9759	18,379.4	39.6519	18,379.4	65.0361	18,379.4	47.8421	18,379.4	63.3537	18,379.4	48.5236	18,379.4	66.8223	18,379.4	53.5743	18,379.4	57.4728	18,379.4	43.968	18,379.4	55.628	18,379.4	51.6007	18,379.4	46.1951	18,379.4	48.4342	18,379.4	41.6599	18,379.4	52.3204	18,379.4	56.8045	18,379.4	59.9053
19,698.5	84.9215	19,698.5	83.951	19,698.5	82.8219	19,698.5	82.3426	19,698.5	80.1938	19,698.5	79.1193	19,698.5	77.9936	19,698.5	72.8981	19,698.5	74.1152	19,698.5	67.6922	19,698.5	69.6018	19,698.5	65.6364	19,698.5	56.9649	19,698.5	60.7224	19,698.5	55.5851	19,698.5	57.9716	19,698.5	57.9699	19,698.5	52.1274	19,698.5	57.3373	19,698.5	55.4025	19,698.5	66.5424	19,698.5	39.3446	19,698.5	65.3613	19,698.5	44.0143	19,698.5	68.0164	19,698.5	45.5768	19,698.5	55.9857	19,698.5	44.3129	19,698.5	52.8027	19,698.5	52.8105	19,698.5	50.8284	19,698.5	47.7154	19,698.5	48.0454	19,698.5	59.3185	19,698.5	54.5597	19,698.5	55.8753
19,999.5	85.6938	19,999.5	84.5354	19,999.5	83.3662	19,999.5	83.068	19,999.5	81.4195	19,999.5	79.128	19,999.5	77.6709	19,999.5	72.5973	19,999.5	73.0221	19,999.5	67.1959	19,999.5	69.1537	19,999.5	66.2698	19,999.5	60.0755	19,999.5	62.7562	19,999.5	56.3065	19,999.5	57.9369	19,999.5	60.3243	19,999.5	52.0735	19,999.5	58.0933	19,999.5	59.2334	19,999.5	68.5434	19,999.5	26.8886	19,999.5	66.2899	19,999.5	37.2098	19,999.5	68.0962	19,999.5	48.8494	19,999.5	57.6398	19,999.5	47.3144	19,999.5	58.2177	19,999.5	53.5432	19,999.5	48.4836	19,999.5	51.8809	19,999.5	55.657	19,999.5	61.2448	19,999.5	54.1965	19,999.5	59.1194
