"SPL Horizontal"																																																																							
"On-Axis"		"10°"		"-10°"		"20°"		"-20°"		"30°"		"-30°"		"40°"		"-40°"		"50°"		"-50°"		"60°"		"-60°"		"70°"		"-70°"		"80°"		"-80°"		"90°"		"-90°"		"100°"		"-100°"		"110°"		"-110°"		"120°"		"-120°"		"130°"		"-130°"		"140°"		"-140°"		"150°"		"-150°"		"160°"		"-160°"		"170°"		"-170°"		"180°"	
"Frequency [Hz]"	"Sound Pessure Level [dB]  / [2.83V 1m] "	"Frequency [Hz]"	"Sound Pessure Level [dB]  / [2.83V 1m] "	"Frequency [Hz]"	"Sound Pessure Level [dB]  / [2.83V 1m] "	"Frequency [Hz]"	"Sound Pessure Level [dB]  / [2.83V 1m] "	"Frequency [Hz]"	"Sound Pessure Level [dB]  / [2.83V 1m] "	"Frequency [Hz]"	"Sound Pessure Level [dB]  / [2.83V 1m] "	"Frequency [Hz]"	"Sound Pessure Level [dB]  / [2.83V 1m] "	"Frequency [Hz]"	"Sound Pessure Level [dB]  / [2.83V 1m] "	"Frequency [Hz]"	"Sound Pessure Level [dB]  / [2.83V 1m] "	"Frequency [Hz]"	"Sound Pessure Level [dB]  / [2.83V 1m] "	"Frequency [Hz]"	"Sound Pessure Level [dB]  / [2.83V 1m] "	"Frequency [Hz]"	"Sound Pessure Level [dB]  / [2.83V 1m] "	"Frequency [Hz]"	"Sound Pessure Level [dB]  / [2.83V 1m] "	"Frequency [Hz]"	"Sound Pessure Level [dB]  / [2.83V 1m] "	"Frequency [Hz]"	"Sound Pessure Level [dB]  / [2.83V 1m] "	"Frequency [Hz]"	"Sound Pessure Level [dB]  / [2.83V 1m] "	"Frequency [Hz]"	"Sound Pessure Level [dB]  / [2.83V 1m] "	"Frequency [Hz]"	"Sound Pessure Level [dB]  / [2.83V 1m] "	"Frequency [Hz]"	"Sound Pessure Level [dB]  / [2.83V 1m] "	"Frequency [Hz]"	"Sound Pessure Level [dB]  / [2.83V 1m] "	"Frequency [Hz]"	"Sound Pessure Level [dB]  / [2.83V 1m] "	"Frequency [Hz]"	"Sound Pessure Level [dB]  / [2.83V 1m] "	"Frequency [Hz]"	"Sound Pessure Level [dB]  / [2.83V 1m] "	"Frequency [Hz]"	"Sound Pessure Level [dB]  / [2.83V 1m] "	"Frequency [Hz]"	"Sound Pessure Level [dB]  / [2.83V 1m] "	"Frequency [Hz]"	"Sound Pessure Level [dB]  / [2.83V 1m] "	"Frequency [Hz]"	"Sound Pessure Level [dB]  / [2.83V 1m] "	"Frequency [Hz]"	"Sound Pessure Level [dB]  / [2.83V 1m] "	"Frequency [Hz]"	"Sound Pessure Level [dB]  / [2.83V 1m] "	"Frequency [Hz]"	"Sound Pessure Level [dB]  / [2.83V 1m] "	"Frequency [Hz]"	"Sound Pessure Level [dB]  / [2.83V 1m] "	"Frequency [Hz]"	"Sound Pessure Level [dB]  / [2.83V 1m] "	"Frequency [Hz]"	"Sound Pessure Level [dB]  / [2.83V 1m] "	"Frequency [Hz]"	"Sound Pessure Level [dB]  / [2.83V 1m] "	"Frequency [Hz]"	"Sound Pessure Level [dB]  / [2.83V 1m] "	"Frequency [Hz]"	"Sound Pessure Level [dB]  / [2.83V 1m] "
20.5078	63.828	20.5078	63.8398	20.5078	63.8118	20.5078	63.8465	20.5078	63.7911	20.5078	63.847	20.5078	63.7653	20.5078	63.8398	20.5078	63.7334	20.5078	63.8232	20.5078	63.6942	20.5078	63.7954	20.5078	63.6464	20.5078	63.7551	20.5078	63.5891	20.5078	63.7017	20.5078	63.5223	20.5078	63.6354	20.5078	63.4468	20.5078	63.5578	20.5078	63.3647	20.5078	63.4713	20.5078	63.2795	20.5078	63.3796	20.5078	63.1955	20.5078	63.287	20.5078	63.1176	20.5078	63.1981	20.5078	63.051	20.5078	63.1178	20.5078	62.9999	20.5078	63.0502	20.5078	62.9677	20.5078	62.9991	20.5078	62.9566	20.5078	62.9673
21.9727	64.8505	21.9727	64.8558	21.9727	64.8418	21.9727	64.857	21.9727	64.8297	21.9727	64.8531	21.9727	64.8137	21.9727	64.8423	21.9727	64.7926	21.9727	64.823	21.9727	64.7649	21.9727	64.7932	21.9727	64.7293	21.9727	64.7518	21.9727	64.6843	21.9727	64.6982	21.9727	64.6292	21.9727	64.6329	21.9727	64.5643	21.9727	64.5574	21.9727	64.4908	21.9727	64.4747	21.9727	64.4115	21.9727	64.3884	21.9727	64.3299	21.9727	64.3031	21.9727	64.2507	21.9727	64.2237	21.9727	64.1789	21.9727	64.1546	21.9727	64.1191	21.9727	64.1	21.9727	64.0753	21.9727	64.0632	21.9727	64.0505	21.9727	64.0464
23.4375	66.0916	23.4375	66.0966	23.4375	66.0822	23.4375	66.0965	23.4375	66.0684	23.4375	66.09	23.4375	66.0496	23.4375	66.0756	23.4375	66.025	23.4375	66.0514	23.4375	65.993	23.4375	66.0157	23.4375	65.9524	23.4375	65.9673	23.4375	65.9018	23.4375	65.9056	23.4375	65.8406	23.4375	65.8312	23.4375	65.7691	23.4375	65.7458	23.4375	65.6885	23.4375	65.6525	23.4375	65.6017	23.4375	65.5558	23.4375	65.5122	23.4375	65.4607	23.4375	65.4247	23.4375	65.3728	23.4375	65.3444	23.4375	65.2972	23.4375	65.2764	23.4375	65.2387	23.4375	65.2251	23.4375	65.2008	23.4375	65.1941	23.4375	65.1857
25.6348	67.5561	25.6348	67.5586	25.6348	67.5494	25.6348	67.5565	25.6348	67.5386	25.6348	67.5486	25.6348	67.5231	25.6348	67.5337	25.6348	67.5019	25.6348	67.5099	25.6348	67.4737	25.6348	67.476	25.6348	67.4371	25.6348	67.4306	25.6348	67.391	25.6348	67.3735	25.6348	67.3348	25.6348	67.3051	25.6348	67.2687	25.6348	67.2273	25.6348	67.1942	25.6348	67.1428	25.6348	67.1137	25.6348	67.0557	25.6348	67.0309	25.6348	66.9704	25.6348	66.95	25.6348	66.8919	25.6348	66.8757	25.6348	66.8248	25.6348	66.8128	25.6348	66.7732	25.6348	66.7653	25.6348	66.7401	25.6348	66.7362	25.6348	66.7276
27.0996	68.4742	27.0996	68.4775	27.0996	68.4664	27.0996	68.4756	27.0996	68.454	27.0996	68.4676	27.0996	68.4364	27.0996	68.4522	27.0996	68.4129	27.0996	68.4279	27.0996	68.3822	27.0996	68.3932	27.0996	68.343	27.0996	68.347	27.0996	68.2944	27.0996	68.2892	27.0996	68.236	27.0996	68.2201	27.0996	68.1682	27.0996	68.1416	27.0996	68.0923	27.0996	68.0564	27.0996	68.0111	27.0996	67.9685	27.0996	67.9279	27.0996	67.8822	27.0996	67.8473	27.0996	67.8026	27.0996	67.7738	27.0996	67.7341	27.0996	67.712	27.0996	67.6808	27.0996	67.6658	27.0996	67.646	27.0996	67.6384	27.0996	67.6316
29.2969	69.8185	29.2969	69.8207	29.2969	69.8121	29.2969	69.8181	29.2969	69.8014	29.2969	69.8099	29.2969	69.7861	29.2969	69.7948	29.2969	69.7652	29.2969	69.7714	29.2969	69.7376	29.2969	69.7386	29.2969	69.7023	29.2969	69.6954	29.2969	69.6583	29.2969	69.6417	29.2969	69.6052	29.2969	69.5779	29.2969	69.5434	29.2969	69.5059	29.2969	69.4741	29.2969	69.4283	29.2969	69.3998	29.2969	69.3486	29.2969	69.3238	29.2969	69.271	29.2969	69.25	29.2969	69.1997	29.2969	69.1827	29.2969	69.1389	29.2969	69.126	29.2969	69.0921	29.2969	69.0834	29.2969	69.062	29.2969	69.0576	29.2969	69.0503
31.4941	71.0252	31.4941	71.021	31.4941	71.0248	31.4941	71.0119	31.4941	71.0198	31.4941	70.9974	31.4941	71.0097	31.4941	70.9765	31.4941	70.9936	31.4941	70.9483	31.4941	70.9707	31.4941	70.912	31.4941	70.9401	31.4941	70.8672	31.4941	70.901	31.4941	70.8138	31.4941	70.8532	31.4941	70.7529	31.4941	70.7972	31.4941	70.6863	31.4941	70.7341	31.4941	70.6166	31.4941	70.6663	31.4941	70.5472	31.4941	70.5965	31.4941	70.4817	31.4941	70.5283	31.4941	70.4239	31.4941	70.4651	31.4941	70.377	31.4941	70.4103	31.4941	70.3436	31.4941	70.367	31.4941	70.3254	31.4941	70.3375	31.4941	70.3233
33.6914	72.004	33.6914	72.0037	33.6914	71.9985	33.6914	71.9973	33.6914	71.9873	33.6914	71.9842	33.6914	71.97	33.6914	71.9635	33.6914	71.9461	33.6914	71.9344	33.6914	71.9148	33.6914	71.8961	33.6914	71.8757	33.6914	71.8484	33.6914	71.8281	33.6914	71.7916	33.6914	71.7724	33.6914	71.7267	33.6914	71.7093	33.6914	71.6557	33.6914	71.6406	33.6914	71.5814	33.6914	71.5687	33.6914	71.5074	33.6914	71.4969	33.6914	71.4371	33.6914	71.4287	33.6914	71.3742	33.6914	71.3677	33.6914	71.3218	33.6914	71.317	33.6914	71.2825	33.6914	71.2792	33.6914	71.2578	33.6914	71.2562	33.6914	71.249
35.8887	73.0884	35.8887	73.0877	35.8887	73.0822	35.8887	73.0799	35.8887	73.0693	35.8887	73.0644	35.8887	73.0496	35.8887	73.0403	35.8887	73.0226	35.8887	73.0071	35.8887	72.988	35.8887	72.9642	35.8887	72.9452	35.8887	72.9116	35.8887	72.8941	35.8887	72.8499	35.8887	72.8352	35.8887	72.7804	35.8887	72.7693	35.8887	72.7055	35.8887	72.6983	35.8887	72.6281	35.8887	72.6248	35.8887	72.5519	35.8887	72.5518	35.8887	72.4805	35.8887	72.4827	35.8887	72.4175	35.8887	72.421	35.8887	72.3659	35.8887	72.3696	35.8887	72.3279	35.8887	72.3309	35.8887	72.3049	35.8887	72.3066	35.8887	72.2978
38.8184	74.4388	38.8184	74.4355	38.8184	74.4344	38.8184	74.4242	38.8184	74.4223	38.8184	74.4046	38.8184	74.4025	38.8184	74.3762	38.8184	74.3746	38.8184	74.3386	38.8184	74.3384	38.8184	74.2918	38.8184	74.2937	38.8184	74.236	38.8184	74.2408	38.8184	74.1722	38.8184	74.1801	38.8184	74.1021	38.8184	74.113	38.8184	74.028	38.8184	74.0415	38.8184	73.953	38.8184	73.9683	38.8184	73.8804	38.8184	73.8965	38.8184	73.8137	38.8184	73.8293	38.8184	73.7559	38.8184	73.77	38.8184	73.7094	38.8184	73.7209	38.8184	73.6759	38.8184	73.684	38.8184	73.6563	38.8184	73.6605	38.8184	73.6512
41.0156	75.4668	41.0156	75.4647	41.0156	75.4604	41.0156	75.454	41.0156	75.4457	41.0156	75.4341	41.0156	75.4226	41.0156	75.4047	41.0156	75.3911	41.0156	75.3655	41.0156	75.3508	41.0156	75.3162	41.0156	75.3017	41.0156	75.2572	41.0156	75.244	41.0156	75.1896	41.0156	75.1783	41.0156	75.1149	41.0156	75.106	41.0156	75.0356	41.0156	75.0291	41.0156	74.9548	41.0156	74.9505	41.0156	74.876	41.0156	74.8735	41.0156	74.8029	41.0156	74.8016	41.0156	74.7388	41.0156	74.7381	41.0156	74.6862	41.0156	74.6859	41.0156	74.6474	41.0156	74.6472	41.0156	74.6236	41.0156	74.6235	41.0156	74.6156
43.9453	76.7341	43.9453	76.7338	43.9453	76.725	43.9453	76.724	43.9453	76.7067	43.9453	76.7047	43.9453	76.6793	43.9453	76.6759	43.9453	76.6432	43.9453	76.6378	43.9453	76.5986	43.9453	76.591	43.9453	76.5464	43.9453	76.5364	43.9453	76.4875	43.9453	76.4755	43.9453	76.4235	43.9453	76.4105	43.9453	76.3566	43.9453	76.3438	43.9453	76.2894	43.9453	76.2783	43.9453	76.2249	43.9453	76.2168	43.9453	76.166	43.9453	76.1617	43.9453	76.1152	43.9453	76.1146	43.9453	76.0744	43.9453	76.0765	43.9453	76.0444	43.9453	76.0477	43.9453	76.0252	43.9453	76.0281	43.9453	76.0165	43.9453	76.0177
47.6074	78.1929	47.6074	78.1901	47.6074	78.1845	47.6074	78.1763	47.6074	78.165	47.6074	78.1517	47.6074	78.1347	47.6074	78.1168	47.6074	78.094	47.6074	78.0724	47.6074	78.0438	47.6074	78.0194	47.6074	77.9849	47.6074	77.9594	47.6074	77.919	47.6074	77.8942	47.6074	77.8481	47.6074	77.8264	47.6074	77.7747	47.6074	77.7584	47.6074	77.7021	47.6074	77.6931	47.6074	77.6336	47.6074	77.6328	47.6074	77.5723	47.6074	77.5795	47.6074	77.5209	47.6074	77.5343	47.6074	77.4811	47.6074	77.4975	47.6074	77.4534	47.6074	77.469	47.6074	77.4374	47.6074	77.4485	47.6074	77.432	47.6074	77.4361
50.5371	79.2815	50.5371	79.274	50.5371	79.2759	50.5371	79.2537	50.5371	79.2574	50.5371	79.2211	50.5371	79.2263	50.5371	79.1769	50.5371	79.1833	50.5371	79.1224	50.5371	79.1293	50.5371	79.0592	50.5371	79.0658	50.5371	78.9893	50.5371	78.9946	50.5371	78.9152	50.5371	78.9183	50.5371	78.8401	50.5371	78.8397	50.5371	78.767	50.5371	78.7624	50.5371	78.699	50.5371	78.6899	50.5371	78.6389	50.5371	78.6256	50.5371	78.5882	50.5371	78.5719	50.5371	78.5476	50.5371	78.5302	50.5371	78.5168	50.5371	78.5007	50.5371	78.4949	50.5371	78.4825	50.5371	78.4807	50.5371	78.474	50.5371	78.4737
54.1992	80.5862	54.1992	80.5779	54.1992	80.5799	54.1992	80.5553	54.1992	80.5591	54.1992	80.5191	54.1992	80.5244	54.1992	80.4707	54.1992	80.4766	54.1992	80.4117	54.1992	80.4174	54.1992	80.3442	54.1992	80.3487	54.1992	80.2709	54.1992	80.2729	54.1992	80.1948	54.1992	80.1931	54.1992	80.1193	54.1992	80.1129	54.1992	80.0477	54.1992	80.036	54.1992	79.9832	54.1992	79.9662	54.1992	79.9281	54.1992	79.9065	54.1992	79.8835	54.1992	79.8592	54.1992	79.8493	54.1992	79.8247	54.1992	79.8243	54.1992	79.8024	54.1992	79.8069	54.1992	79.7904	54.1992	79.7954	54.1992	79.7865	54.1992	79.7885
58.5938	81.9967	58.5938	81.9931	58.5938	81.9833	58.5938	81.9727	58.5938	81.953	58.5938	81.9368	58.5938	81.907	58.5938	81.887	58.5938	81.8468	58.5938	81.826	58.5938	81.775	58.5938	81.7568	58.5938	81.6945	58.5938	81.6829	58.5938	81.6093	58.5938	81.6084	58.5938	81.5236	58.5938	81.5373	58.5938	81.4422	58.5938	81.4734	58.5938	81.3696	58.5938	81.4196	58.5938	81.31	58.5938	81.3774	58.5938	81.2663	58.5938	81.3465	58.5938	81.2395	58.5938	81.3251	58.5938	81.2286	58.5938	81.3102	58.5938	81.2306	58.5938	81.2981	58.5938	81.2413	58.5938	81.2859	58.5938	81.2563	58.5938	81.2719
62.2559	82.9611	62.2559	82.9458	62.2559	82.9566	62.2559	82.9116	62.2559	82.9327	62.2559	82.86	62.2559	82.8903	62.2559	82.7932	62.2559	82.8312	62.2559	82.7146	62.2559	82.758	62.2559	82.6278	62.2559	82.6741	62.2559	82.5375	62.2559	82.5835	62.2559	82.4485	62.2559	82.4908	62.2559	82.3657	62.2559	82.4012	62.2559	82.2937	62.2559	82.3197	62.2559	82.2359	62.2559	82.2508	62.2559	82.1939	62.2559	82.1977	62.2559	82.1672	62.2559	82.1617	62.2559	82.1533	62.2559	82.1416	62.2559	82.1483	62.2559	82.1343	62.2559	82.1476	62.2559	82.1355	62.2559	82.1472	62.2559	82.1402	62.2559	82.1448
66.6504	84.1626	66.6504	84.1435	66.6504	84.1591	66.6504	84.1028	66.6504	84.1333	66.6504	84.0424	66.6504	84.0865	66.6504	83.9652	66.6504	84.0209	66.6504	83.8752	66.6504	83.9398	66.6504	83.7772	66.6504	83.8474	66.6504	83.6768	66.6504	83.7487	66.6504	83.5799	66.6504	83.6493	66.6504	83.4922	66.6504	83.555	66.6504	83.4189	66.6504	83.4716	66.6504	83.3636	66.6504	83.4037	66.6504	83.3277	66.6504	83.3544	66.6504	83.3099	66.6504	83.3243	66.6504	83.3064	66.6504	83.3112	66.6504	83.312	66.6504	83.3107	66.6504	83.3206	66.6504	83.3171	66.6504	83.3272	66.6504	83.3246	66.6504	83.3287
71.7773	85.3266	71.7773	85.3038	71.7773	85.3239	71.7773	85.2564	71.7773	85.2958	71.7773	85.1868	71.7773	85.2441	71.7773	85.0987	71.7773	85.1718	71.7773	84.9972	71.7773	85.0831	71.7773	84.8882	71.7773	84.9831	71.7773	84.7786	71.7773	84.8782	71.7773	84.6758	71.7773	84.7751	71.7773	84.5867	71.7773	84.6808	71.7773	84.5174	71.7773	84.6017	71.7773	84.4718	71.7773	84.5427	71.7773	84.4507	71.7773	84.5063	71.7773	84.4515	71.7773	84.4917	71.7773	84.4685	71.7773	84.495	71.7773	84.4939	71.7773	84.5096	71.7773	84.5195	71.7773	84.5277	71.7773	84.5384	71.7773	84.5417	71.7773	84.5461
76.9043	86.4369	76.9043	86.4157	76.9043	86.4289	76.9043	86.3663	76.9043	86.3921	76.9043	86.2916	76.9043	86.3288	76.9043	86.1958	76.9043	86.2428	76.9043	86.0848	76.9043	86.1393	76.9043	85.9656	76.9043	86.0251	76.9043	85.8463	76.9043	85.9077	76.9043	85.7355	76.9043	85.7955	76.9043	85.6415	76.9043	85.6968	76.9043	85.571	76.9043	85.619	76.9043	85.5285	76.9043	85.5672	76.9043	85.5145	76.9043	85.5431	76.9043	85.5256	76.9043	85.5446	76.9043	85.5546	76.9043	85.5656	76.9043	85.5919	76.9043	85.5972	76.9043	85.6274	76.9043	85.6293	76.9043	85.6525	76.9043	85.6529	76.9043	85.6615
82.7637	87.4903	82.7637	87.4682	82.7637	87.4782	82.7637	87.4132	82.7637	87.4323	82.7637	87.329	82.7637	87.355	82.7637	87.2208	82.7637	87.251	82.7637	87.0957	82.7637	87.1264	82.7637	86.9624	82.7637	86.9892	82.7637	86.8304	82.7637	86.8488	82.7637	86.7098	82.7637	86.7155	82.7637	86.6101	82.7637	86.5997	82.7637	86.5389	82.7637	86.5108	82.7637	86.5003	82.7637	86.4552	82.7637	86.4939	82.7637	86.4355	82.7637	86.5145	82.7637	86.4487	82.7637	86.5528	82.7637	86.487	82.7637	86.5969	82.7637	86.5391	82.7637	86.635	82.7637	86.592	82.7637	86.6571	82.7637	86.6343	82.7637	86.6572
88.623	88.2964	88.623	88.2657	88.623	88.2887	88.623	88.1983	88.623	88.2431	88.623	88.0986	88.623	88.1623	88.623	87.9731	88.623	88.0517	88.623	87.8303	88.623	87.9186	88.623	87.6808	88.623	87.7724	88.623	87.5361	88.623	87.6241	88.623	87.4083	88.623	87.4859	88.623	87.3088	88.623	87.3698	88.623	87.2461	88.623	87.2861	88.623	87.2244	88.623	87.2419	88.623	87.242	88.623	87.2386	88.623	87.2912	88.623	87.2717	88.623	87.3594	88.623	87.3307	88.623	87.4316	88.623	87.4014	88.623	87.493	88.623	87.4684	88.623	87.5318	88.623	87.5181	88.623	87.5406
94.4824	88.9026	94.4824	88.8708	94.4824	88.8894	94.4824	88.7961	94.4824	88.832	94.4824	88.6833	94.4824	88.7337	94.4824	88.5396	94.4824	88.6009	94.4824	88.3751	94.4824	88.4421	94.4824	88.2018	94.4824	88.2687	94.4824	88.0336	94.4824	88.094	94.4824	87.8852	94.4824	87.9324	94.4824	87.7701	94.4824	87.7987	94.4824	87.699	94.4824	87.7053	94.4824	87.677	94.4824	87.6605	94.4824	87.702	94.4824	87.6657	94.4824	87.7643	94.4824	87.7146	94.4824	87.8486	94.4824	87.7938	94.4824	87.9366	94.4824	87.8857	94.4824	88.0105	94.4824	87.9715	94.4824	88.0561	94.4824	88.0351	94.4824	88.065
101.807	89.3661	101.807	89.3289	101.807	89.3503	101.807	89.241	101.807	89.2823	101.807	89.1078	101.807	89.1663	101.807	88.938	101.807	89.0093	101.807	88.7434	101.807	88.8218	101.807	88.5383	101.807	88.6171	101.807	88.3395	101.807	88.4109	101.807	88.1648	101.807	88.221	101.807	88.031	101.807	88.065	101.807	87.951	101.807	87.9583	101.807	87.931	101.807	87.9107	101.807	87.9678	101.807	87.9236	101.807	88.0491	101.807	87.9886	101.807	88.1556	101.807	88.0892	101.807	88.2649	101.807	88.2035	101.807	88.3559	101.807	88.309	101.807	88.4118	101.807	88.3865	101.807	88.4227
109.131	89.6486	109.131	89.6056	109.131	89.6314	109.131	89.5051	109.131	89.5549	109.131	89.3534	109.131	89.4233	109.131	89.1604	109.131	89.2449	109.131	88.9395	109.131	89.0311	109.131	88.7074	109.131	88.7973	109.131	88.4834	109.131	88.5617	109.131	88.2881	109.131	88.345	109.131	88.141	109.131	88.1684	109.131	88.0573	109.131	88.0505	109.131	88.0436	109.131	88.003	109.131	88.0958	109.131	88.0274	109.131	88.1985	109.131	88.1132	109.131	88.3288	109.131	88.2396	109.131	88.4604	109.131	88.3804	109.131	88.5687	109.131	88.5089	109.131	88.6346	109.131	88.6028	109.131	88.6469
116.455	89.7831	116.455	89.7284	116.455	89.7701	116.455	89.6089	116.455	89.6901	116.455	89.4317	116.455	89.5482	116.455	89.208	116.455	89.3531	116.455	88.9531	116.455	89.1179	116.455	88.6862	116.455	88.8595	116.455	88.4301	116.455	88.5989	116.455	88.2094	116.455	88.3595	116.455	88.0474	116.455	88.1659	116.455	87.9619	116.455	88.0393	116.455	87.9604	116.455	87.9933	116.455	88.0367	116.455	88.029	116.455	88.1715	116.455	88.1334	116.455	88.3365	116.455	88.2822	116.455	88.5005	116.455	88.4447	116.455	88.6352	116.455	88.5905	116.455	88.7192	116.455	88.6946	116.455	88.7399
125.244	89.7335	125.244	89.6754	125.244	89.7142	125.244	89.543	125.244	89.6186	125.244	89.344	125.244	89.4524	125.244	89.0907	125.244	89.2256	125.244	88.8	125.244	88.953	125.244	88.494	125.244	88.6544	125.244	88.1988	125.244	88.3539	125.244	87.9435	125.244	88.0795	125.244	87.756	125.244	87.86	125.244	87.6584	125.244	87.7209	125.244	87.6598	125.244	87.6777	125.244	87.7528	125.244	87.7307	125.244	87.9141	125.244	87.8631	125.244	88.1098	125.244	88.0447	125.244	88.3031	125.244	88.2391	125.244	88.4613	125.244	88.4112	125.244	88.5601	125.244	88.5327	125.244	88.5849
134.033	89.6115	134.033	89.5515	134.033	89.5844	134.033	89.4082	134.033	89.4715	134.033	89.1901	134.033	89.2786	134.033	88.911	134.033	89.0169	134.033	88.5902	134.033	88.7028	134.033	88.2525	134.033	88.3586	134.033	87.9279	134.033	88.0125	134.033	87.6496	134.033	87.6975	134.033	87.4499	134.033	87.4486	134.033	87.3531	134.033	87.2968	134.033	87.3685	134.033	87.2606	134.033	87.4856	134.033	87.3393	134.033	87.6759	134.033	87.511	134.033	87.8999	134.033	87.7382	134.033	88.1162	134.033	87.9774	134.033	88.2891	134.033	88.1883	134.033	88.3921	134.033	88.3393	134.033	88.41
143.555	89.5787	143.555	89.4999	143.555	89.5595	143.555	89.3273	143.555	89.4436	143.555	89.07	143.555	89.2374	143.555	88.7434	143.555	88.9528	143.555	88.3692	143.555	88.6074	143.555	87.9761	143.555	88.2258	143.555	87.5995	143.555	87.8391	143.555	87.2797	143.555	87.4845	143.555	87.0557	143.555	87.2023	143.555	86.9569	143.555	87.0284	143.555	86.9928	143.555	86.9851	143.555	87.1477	143.555	87.0717	143.555	87.3846	143.555	87.2633	143.555	87.6553	143.555	87.5169	143.555	87.912	143.555	87.7832	143.555	88.1149	143.555	88.0171	143.555	88.2359	143.555	88.1834	143.555	88.2596
153.809	89.7459	153.809	89.661	153.809	89.7183	153.809	89.4676	153.809	89.5798	153.809	89.1748	153.809	89.3371	153.809	88.7982	153.809	89.0029	153.809	88.3603	153.809	88.5967	153.809	87.8921	153.809	88.1456	153.809	87.4334	153.809	87.6855	153.809	87.0317	153.809	87.2606	153.809	86.7365	153.809	86.9202	153.809	86.588	153.809	86.7091	153.809	86.6028	153.809	86.6548	153.809	86.7655	153.809	86.7551	153.809	87.0319	153.809	86.9771	153.809	87.3437	153.809	87.2669	153.809	87.6435	153.809	87.5662	153.809	87.8843	153.809	87.8235	153.809	88.0338	153.809	88.0006	153.809	88.0739
164.795	90.1839	164.795	90.0963	164.795	90.1523	164.795	89.8938	164.795	90.0029	164.795	89.5864	164.795	89.7425	164.795	89.1906	164.795	89.3841	164.795	88.7305	164.795	88.9477	164.795	88.2391	164.795	88.4616	164.795	87.759	164.795	87.9637	164.795	87.3404	164.795	87.5015	164.795	87.0357	164.795	87.1286	164.795	86.8862	164.795	86.8956	164.795	86.908	164.795	86.834	164.795	87.0826	164.795	86.943	164.795	87.3627	164.795	87.1865	164.795	87.6867	164.795	87.5056	164.795	87.9947	164.795	87.8361	164.795	88.2385	164.795	88.1223	164.795	88.3844	164.795	88.3234	164.795	88.4141
176.514	90.1708	176.514	90.0746	176.514	90.1362	176.514	89.8516	176.514	89.9727	176.514	89.512	176.514	89.6878	176.514	89.073	176.514	89.2957	176.514	88.5605	176.514	88.8184	176.514	88.0106	176.514	88.2876	176.514	87.472	176.514	87.7462	176.514	87.0039	176.514	87.2487	176.514	86.6694	176.514	86.8571	176.514	86.5191	176.514	86.6287	176.514	86.5709	176.514	86.5965	176.514	86.7998	176.514	86.7533	176.514	87.1459	176.514	87.0522	176.514	87.536	176.514	87.4237	176.514	87.9021	176.514	87.7964	176.514	88.1914	176.514	88.1111	176.514	88.3687	176.514	88.3257	176.514	88.415
189.697	90.4137	189.697	90.3045	189.697	90.3808	189.697	90.0581	189.697	90.2067	189.697	89.6853	189.697	89.8975	189.697	89.2037	189.697	89.466	189.697	88.6401	189.697	88.9323	189.697	88.0318	189.697	88.3265	189.697	87.4296	189.697	87.6912	189.697	86.8966	189.697	87.0844	189.697	86.5016	189.697	86.5772	189.697	86.3014	189.697	86.2428	189.697	86.3179	189.697	86.1322	189.697	86.5259	189.697	86.2494	189.697	86.8614	189.697	86.5458	189.697	87.2456	189.697	86.9407	189.697	87.6057	189.697	87.3496	189.697	87.8856	189.697	87.7033	189.697	88.0478	189.697	87.9535	189.697	88.072
202.881	90.3516	202.881	90.2312	202.881	90.3244	202.881	89.9671	202.881	90.1511	202.881	89.569	202.881	89.839	202.881	89.0537	202.881	89.4012	202.881	88.447	202.881	88.8584	202.881	87.7867	202.881	88.2405	202.881	87.1262	202.881	87.5897	202.881	86.536	202.881	86.9633	202.881	86.0971	202.881	86.4329	202.881	85.8804	202.881	86.0746	202.881	85.9158	202.881	85.9459	202.881	86.1731	202.881	86.0573	202.881	86.5742	202.881	86.3628	202.881	87.0248	202.881	86.7784	202.881	87.4415	202.881	87.2133	202.881	87.763	202.881	87.5913	202.881	87.95	202.881	87.8587	202.881	87.9828
217.529	90.0648	217.529	89.9575	217.529	90.0188	217.529	89.7002	217.529	89.8218	217.529	89.3019	217.529	89.4812	217.529	88.7782	217.529	89.0113	217.529	88.1532	217.529	88.4339	217.529	87.4633	217.529	87.7812	217.529	86.761	217.529	87.0993	217.529	86.1187	217.529	86.4507	217.529	85.6244	217.529	85.9133	217.529	85.3605	217.529	85.5671	217.529	85.3684	217.529	85.4671	217.529	85.622	217.529	85.6144	217.529	86.0388	217.529	85.952	217.529	86.516	217.529	86.3892	217.529	86.9629	217.529	86.8337	217.529	87.3133	217.529	87.2112	217.529	87.5257	217.529	87.4699	217.529	87.5791
232.91	90.104	232.91	89.9806	232.91	90.0718	232.91	89.7056	232.91	89.8847	232.91	89.2874	232.91	89.5479	232.91	88.7404	232.91	89.0714	232.91	88.0854	232.91	88.4713	232.91	87.3533	232.91	87.7717	232.91	86.5888	232.91	87.0084	232.91	85.856	232.91	86.2349	232.91	85.2398	232.91	85.5277	232.91	84.8343	232.91	84.9841	232.91	84.7085	232.91	84.6983	232.91	84.8663	232.91	84.7155	232.91	85.2366	232.91	84.9987	232.91	85.7073	232.91	85.4449	232.91	86.1685	232.91	85.9331	232.91	86.5363	232.91	86.3628	232.91	86.7568	232.91	86.6655	232.91	86.8019
249.756	89.6534	249.756	89.52	249.756	89.6287	249.756	89.233	249.756	89.446	249.756	88.8021	249.756	89.1104	249.756	88.2426	249.756	88.632	249.756	87.5759	249.756	88.0264	249.756	86.8313	249.756	87.3159	249.756	86.0487	249.756	86.5325	249.756	85.2819	249.756	85.722	249.756	84.6011	249.756	84.9495	249.756	84.0868	249.756	84.3007	249.756	83.809	249.756	83.8675	249.756	83.7942	249.756	83.7127	249.756	84.0042	249.756	83.8304	249.756	84.3502	249.756	84.1423	249.756	84.7277	249.756	84.5353	249.756	85.0473	249.756	84.9035	249.756	85.2463	249.756	85.1702	249.756	85.2902
268.066	89.0883	268.066	88.9509	268.066	89.0734	268.066	88.6642	268.066	88.9088	268.066	88.2373	268.066	88.6025	268.066	87.6858	268.066	88.1675	268.066	87.0324	268.066	87.6215	268.066	86.3088	268.066	86.987	268.066	85.5575	268.066	86.2915	268.066	84.8346	268.066	85.5696	268.066	84.2089	268.066	84.8668	268.066	83.7529	268.066	84.2426	268.066	83.5219	268.066	83.7689	268.066	83.5281	268.066	83.5123	268.066	83.7289	268.066	83.5024	268.066	84.0424	268.066	83.7056	268.066	84.3758	268.066	84.0338	268.066	84.6484	268.066	84.3812	268.066	84.8028	268.066	84.6585	268.066	84.8075
287.109	89.7729	287.109	89.6778	287.109	89.6987	287.109	89.417	287.109	89.4564	287.109	88.9988	287.109	89.0527	287.109	88.4361	287.109	88.5007	287.109	87.7474	287.109	87.8216	287.109	86.9592	287.109	87.0472	287.109	86.1108	287.109	86.2234	287.109	85.2614	287.109	85.4127	287.109	84.4964	287.109	84.693	287.109	83.9211	287.109	84.1464	287.109	83.6281	287.109	83.8349	287.109	83.6458	287.109	83.7757	287.109	83.9137	287.109	83.9333	287.109	84.3139	287.109	84.2346	287.109	84.7259	287.109	84.5936	287.109	85.0587	287.109	84.9301	287.109	85.2568	287.109	85.1795	287.109	85.2965
307.617	89.6516	307.617	89.5031	307.617	89.6478	307.617	89.2083	307.617	89.4913	307.617	88.7775	307.617	89.1863	307.617	88.226	307.617	88.7416	307.617	87.5723	307.617	88.1702	307.617	86.8387	307.617	87.4889	307.617	86.0513	307.617	86.7196	307.617	85.2442	307.617	85.8925	307.617	84.4653	307.617	85.0528	307.617	83.7849	307.617	84.27	307.617	83.2955	307.617	83.6407	307.617	83.084	307.617	83.27	307.617	83.1774	307.617	83.2175	307.617	83.5071	307.617	83.4465	307.617	83.939	307.617	83.835	307.617	84.3356	307.617	84.2384	307.617	84.5971	307.617	84.5402	307.617	84.6692
329.59	89.2452	329.59	89.1196	329.59	89.21	329.59	88.8369	329.59	89.0165	329.59	88.4066	329.59	88.673	329.59	87.8439	329.59	88.1936	329.59	87.17	329.59	87.5969	329.59	86.4121	329.59	86.9058	329.59	85.6046	329.59	86.1469	329.59	84.7911	329.59	85.3515	329.59	84.0278	329.59	84.559	329.59	83.3847	329.59	83.8231	329.59	82.9388	329.59	83.2179	329.59	82.7511	329.59	82.8305	329.59	82.8303	329.59	82.7257	329.59	83.1135	329.59	82.8949	329.59	83.4872	329.59	83.2433	329.59	83.831	329.59	83.6334	329.59	84.051	329.59	83.9428	329.59	84.0925
353.76	89.7261	353.76	89.5766	353.76	89.6914	353.76	89.2487	353.76	89.4739	353.76	88.7542	353.76	89.0816	353.76	88.1106	353.76	88.5291	353.76	87.3401	353.76	87.8379	353.76	86.4695	353.76	87.0355	353.76	85.5301	353.76	86.1554	353.76	84.5605	353.76	85.2373	353.76	83.6141	353.76	84.3269	353.76	82.7695	353.76	83.4793	353.76	82.1378	353.76	82.7651	353.76	81.8381	353.76	82.2729	353.76	81.9225	353.76	82.0869	353.76	82.3129	353.76	82.2286	353.76	82.8332	353.76	82.6118	353.76	83.3031	353.76	83.0753	353.76	83.596	353.76	83.4583	353.76	83.6492
378.662	89.8694	378.662	89.7333	378.662	89.8394	378.662	89.4374	378.662	89.6443	378.662	88.9942	378.662	89.2918	378.662	88.4212	378.662	88.7948	378.662	87.7383	378.662	88.1698	378.662	86.966	378.662	87.4342	378.662	86.1222	378.662	86.6043	378.662	85.2226	378.662	85.6943	378.662	84.2856	378.662	84.72	378.662	83.3462	378.662	83.7092	378.662	82.4821	378.662	82.7262	378.662	81.8345	378.662	81.9031	378.662	81.5676	378.662	81.4326	378.662	81.7342	378.662	81.4466	378.662	82.1891	378.662	81.8609	378.662	82.6885	378.662	82.4219	378.662	83.0309	378.662	82.8856	378.662	83.1058
405.762	89.1625	405.762	89.0233	405.762	89.1278	405.762	88.7206	405.762	88.919	405.762	88.2741	405.762	88.5469	405.762	87.7096	405.762	88.0325	405.762	87.0558	405.762	87.4053	405.762	86.3395	405.762	86.7006	405.762	85.5817	405.762	85.955	405.762	84.7952	405.762	85.2	405.762	83.9881	405.762	84.4564	405.762	83.1797	405.762	83.7361	405.762	82.4317	405.762	83.058	405.762	81.8806	405.762	82.4803	405.762	81.7048	405.762	82.1214	405.762	81.9743	405.762	82.1081	405.762	82.5361	405.762	82.4426	405.762	83.1229	405.762	82.9513	405.762	83.5189	405.762	83.4	405.762	83.6154
435.059	89.2574	435.059	89.0736	435.059	89.243	435.059	88.7031	435.059	89.0323	435.059	88.1706	435.059	88.6401	435.059	87.5131	435.059	88.0924	435.059	86.7772	435.059	87.4251	435.059	86.0122	435.059	86.6801	435.059	85.2582	435.059	85.8989	435.059	84.5299	435.059	85.1109	435.059	83.8061	435.059	84.3213	435.059	83.038	435.059	83.5063	435.059	82.186	435.059	82.6332	435.059	81.2924	435.059	81.7162	435.059	80.5742	435.059	80.906	435.059	80.3824	435.059	80.5163	435.059	80.8239	435.059	80.7572	435.059	81.548	435.059	81.405	435.059	82.1184	435.059	82.0186	435.059	82.293
466.553	89.5248	466.553	89.3306	466.553	89.4955	466.553	88.925	466.553	89.2411	466.553	88.3302	466.553	88.7712	466.553	87.5763	466.553	88.1064	466.553	86.7026	466.553	87.2771	466.553	85.7612	466.553	86.3249	466.553	84.8196	466.553	85.3048	466.553	83.9526	466.553	84.2864	466.553	83.2151	466.553	83.3418	466.553	82.6091	466.553	82.5173	466.553	82.0824	466.553	81.8075	466.553	81.5804	466.553	81.1747	466.553	81.117	466.553	80.6205	466.553	80.8011	466.553	80.247	466.553	80.7459	466.553	80.1984	466.553	80.9096	466.553	80.4702	466.553	81.0902	466.553	80.8483	466.553	81.0909
500.244	88.3027	500.244	88.1965	500.244	88.2454	500.244	87.9361	500.244	88.022	500.244	87.5351	500.244	87.6383	500.244	87.0074	500.244	87.1075	500.244	86.3649	500.244	86.4492	500.244	85.6158	500.244	85.6891	500.244	84.7655	500.244	84.8593	500.244	83.8189	500.244	83.9972	500.244	82.7851	500.244	83.1365	500.244	81.6898	500.244	82.2937	500.244	80.6074	500.244	81.4639	500.244	79.7146	500.244	80.6543	500.244	79.2904	500.244	79.9619	500.244	79.5042	500.244	79.6179	500.244	80.1656	500.244	79.8151	500.244	80.8794	500.244	80.4161	500.244	81.3382	500.244	81.0445	500.244	81.3962
536.133	89.1179	536.133	88.8628	536.133	89.0833	536.133	88.3301	536.133	88.7654	536.133	87.5497	536.133	88.1875	536.133	86.5693	536.133	87.3863	536.133	85.4558	536.133	86.411	536.133	84.299	536.133	85.3249	536.133	83.2091	536.133	84.2077	536.133	82.2884	536.133	83.1494	536.133	81.5762	536.133	82.2217	536.133	81.0189	536.133	81.4297	536.133	80.5204	536.133	80.6924	536.133	80.0627	536.133	79.9052	536.133	79.8381	536.133	79.1184	536.133	80.1819	536.133	78.7779	536.133	81.1059	536.133	79.4492	536.133	82.1372	536.133	80.8332	536.133	82.7881	536.133	82.1078	536.133	82.8008
574.219	90.081	574.219	89.8476	574.219	89.9944	574.219	89.3099	574.219	89.602	574.219	88.5065	574.219	88.9467	574.219	87.489	574.219	88.0888	574.219	86.3186	574.219	87.0908	574.219	85.0744	574.219	86.0051	574.219	83.8604	574.219	84.8645	574.219	82.7866	574.219	83.6759	574.219	81.9115	574.219	82.4403	574.219	81.1852	574.219	81.2376	574.219	80.4411	574.219	80.3342	574.219	79.4395	574.219	80.0185	574.219	78.0143	574.219	80.1323	574.219	76.6392	574.219	80.216	574.219	76.9671	574.219	80.1406	574.219	78.8479	574.219	80.2447	574.219	80.3819	574.219	80.6813	574.219	80.9279
615.234	90.0529	615.234	89.785	615.234	90.0226	615.234	89.2624	615.234	89.6842	615.234	88.5491	615.234	89.0591	615.234	87.7053	615.234	88.194	615.234	86.7684	615.234	87.1691	615.234	85.7491	615.234	86.1132	615.234	84.6409	615.234	85.1729	615.234	83.4421	615.234	84.3965	615.234	82.2014	615.234	83.6563	615.234	81.0739	615.234	82.7353	615.234	80.2585	615.234	81.4749	615.234	79.7038	615.234	79.881	615.234	79.0105	615.234	78.2324	615.234	78.0129	615.234	77.2553	615.234	77.8257	615.234	77.9046	615.234	79.4968	615.234	79.785	615.234	81.3247	615.234	81.4403	615.234	82.0366
659.912	90.0913	659.912	89.6886	659.912	90.1146	659.912	88.97	659.912	89.7281	659.912	88.0142	659.912	88.9368	659.912	86.925	659.912	87.7819	659.912	85.8855	659.912	86.3913	659.912	85.1089	659.912	85.0856	659.912	84.5776	659.912	84.2925	659.912	83.9396	659.912	84.0358	659.912	82.771	659.912	83.8182	659.912	80.9097	659.912	83.1618	659.912	79.1674	659.912	81.9117	659.912	79.2691	659.912	80.3686	659.912	80.0344	659.912	79.1361	659.912	79.2306	659.912	78.0347	659.912	75.6563	659.912	76.4912	659.912	73.0767	659.912	76.5002	659.912	77.5834	659.912	78.6906	659.912	79.5375
706.787	89.659	706.787	89.4317	706.787	89.545	706.787	88.8829	706.787	89.1447	706.787	88.0661	706.787	88.5544	706.787	87.0224	706.787	87.8244	706.787	85.8221	706.787	86.9327	706.787	84.6765	706.787	85.8624	706.787	83.888	706.787	84.6741	706.787	83.4815	706.787	83.4761	706.787	83.0802	706.787	82.3528	706.787	82.2707	706.787	81.425	706.787	80.9235	706.787	80.9522	706.787	79.6084	706.787	81.0057	706.787	79.432	706.787	81.0106	706.787	79.6528	706.787	79.9794	706.787	78.4541	706.787	76.5483	706.787	75.2329	706.787	67.045	706.787	73.6121	706.787	69.8879	706.787	74.1
758.057	89.0512	758.057	88.834	758.057	89.0603	758.057	88.4636	758.057	88.8676	758.057	87.9278	758.057	88.4954	758.057	87.1396	758.057	87.8486	758.057	86.1429	758.057	86.7985	758.057	85.2284	758.057	85.4907	758.057	84.6392	758.057	84.561	758.057	84.1744	758.057	84.4033	758.057	83.438	758.057	84.2913	758.057	82.3497	758.057	83.2562	758.057	81.4827	758.057	80.6672	758.057	81.5597	758.057	77.3963	758.057	81.8668	758.057	78.728	758.057	80.9245	758.057	81.123	758.057	77.5044	758.057	81.148	758.057	73.9629	758.057	78.7239	758.057	77.279	758.057	76.8913	758.057	78.2229
812.256	86.2666	812.256	86.6272	812.256	86.6963	812.256	87.4603	812.256	87.6533	812.256	88.132	812.256	88.5221	812.256	88.1337	812.256	88.7739	812.256	87.2502	812.256	88.151	812.256	85.6233	812.256	86.6622	812.256	83.961	812.256	84.7292	812.256	83.1418	812.256	83.3805	812.256	82.8681	812.256	83.0622	812.256	82.3018	812.256	82.6921	812.256	81.1688	812.256	81.404	812.256	79.9559	812.256	79.7126	812.256	79.9167	812.256	79.8511	812.256	80.555	812.256	81.0236	812.256	79.5813	812.256	80.5267	812.256	75.0651	812.256	76.7694	812.256	66.3708	812.256	66.9646	812.256	65.6076
870.85	87.0455	870.85	87.8069	870.85	86.9537	870.85	88.694	870.85	87.5325	870.85	89.1468	870.85	88.2475	870.85	88.854	870.85	88.5608	870.85	87.7295	870.85	88.1921	870.85	85.9307	870.85	87.1265	870.85	84.086	870.85	85.6907	870.85	83.2439	870.85	84.5765	870.85	83.47	870.85	84.1076	870.85	83.6689	870.85	83.7425	870.85	82.92	870.85	82.8898	870.85	80.7055	870.85	81.089	870.85	78.3835	870.85	78.1798	870.85	79.4749	870.85	77.4229	870.85	79.8039	870.85	78.8532	870.85	75.9861	870.85	77.0451	870.85	63.1276	870.85	68.637	870.85	55.195
933.105	86.7815	933.105	87.1485	933.105	87.1206	933.105	87.9545	933.105	87.9184	933.105	88.6691	933.105	88.6913	933.105	88.8526	933.105	89.0564	933.105	88.229	933.105	88.7672	933.105	86.6351	933.105	87.6532	933.105	84.0999	933.105	85.6894	933.105	81.5017	933.105	83.4558	933.105	81.0281	933.105	82.5587	933.105	82.1946	933.105	83.0388	933.105	82.8247	933.105	83.1566	933.105	81.9208	933.105	82.0393	933.105	79.3288	933.105	79.4804	933.105	78.5308	933.105	77.9621	933.105	79.619	933.105	79.4387	933.105	77.1839	933.105	78.3775	933.105	68.9666	933.105	71.7168	933.105	61.8704
999.756	85.9371	999.756	86.7625	999.756	86.3985	999.756	88.1149	999.756	87.6896	999.756	89.0353	999.756	88.784	999.756	89.1055	999.756	89.1087	999.756	88.3179	999.756	88.5912	999.756	86.8471	999.756	87.3596	999.756	84.9381	999.756	85.5476	999.756	82.8964	999.756	83.3452	999.756	81.2428	999.756	81.3618	999.756	80.833	999.756	80.6175	999.756	81.4906	999.756	81.0638	999.756	81.4547	999.756	81.4235	999.756	79.3671	999.756	80.391	999.756	77.0078	999.756	77.8052	999.756	77.7742	999.756	77.8202	999.756	75.4099	999.756	77.8252	999.756	65.0906	999.756	72.2716	999.756	56.2879
1,071.53	86.4429	1,071.53	86.9702	1,071.53	86.6046	1,071.53	87.8642	1,071.53	87.3893	1,071.53	88.4761	1,071.53	88.2498	1,071.53	88.378	1,071.53	88.5705	1,071.53	87.5312	1,071.53	88.1048	1,071.53	86.021	1,071.53	86.848	1,071.53	83.936	1,071.53	84.9111	1,071.53	81.6381	1,071.53	82.5455	1,071.53	79.9827	1,071.53	80.2474	1,071.53	79.4382	1,071.53	78.8233	1,071.53	79.6631	1,071.53	78.7629	1,071.53	79.89	1,071.53	79.3233	1,071.53	78.8079	1,071.53	78.9619	1,071.53	77.1753	1,071.53	77.0486	1,071.53	77.7594	1,071.53	76.8115	1,071.53	75.5684	1,071.53	76.5457	1,071.53	65.183	1,071.53	70.3133	1,071.53	58.5641
1,148.44	87.8141	1,148.44	88.1194	1,148.44	87.9398	1,148.44	88.7564	1,148.44	88.5179	1,148.44	89.2019	1,148.44	89.2522	1,148.44	89.0163	1,148.44	89.5146	1,148.44	88.0938	1,148.44	88.9592	1,148.44	86.4086	1,148.44	87.5605	1,148.44	83.9773	1,148.44	85.4805	1,148.44	81.2092	1,148.44	83.0611	1,148.44	79.1655	1,148.44	80.905	1,148.44	78.4498	1,148.44	79.5896	1,148.44	78.7273	1,148.44	79.1564	1,148.44	79.3144	1,148.44	79.6096	1,148.44	78.433	1,148.44	79.747	1,148.44	75.8625	1,148.44	77.5555	1,148.44	76.7297	1,148.44	75.7126	1,148.44	75.0551	1,148.44	76.0669	1,148.44	65.2039	1,148.44	70.4412	1,148.44	67.4355
1,231.2	89.5091	1,231.2	89.3109	1,231.2	89.5687	1,231.2	89.4282	1,231.2	89.7048	1,231.2	89.7314	1,231.2	90.0434	1,231.2	89.6408	1,231.2	90.0188	1,231.2	88.8747	1,231.2	89.3038	1,231.2	87.3139	1,231.2	87.9274	1,231.2	85.0242	1,231.2	85.9759	1,231.2	82.4035	1,231.2	83.59	1,231.2	80.3043	1,231.2	81.5065	1,231.2	79.3788	1,231.2	80.6085	1,231.2	79.2112	1,231.2	79.9101	1,231.2	79.6137	1,231.2	79.5275	1,231.2	79.4685	1,231.2	80.4678	1,231.2	76.5847	1,231.2	79.6911	1,231.2	74.9607	1,231.2	77.0004	1,231.2	73.7955	1,231.2	76.9781	1,231.2	69.8061	1,231.2	73.4675	1,231.2	73.3369
1,319.82	89.819	1,319.82	89.2155	1,319.82	89.4784	1,319.82	88.6117	1,319.82	88.7277	1,319.82	88.6631	1,319.82	88.6083	1,319.82	88.6869	1,319.82	88.7238	1,319.82	88.1778	1,319.82	88.3979	1,319.82	87.0025	1,319.82	87.4391	1,319.82	85.0982	1,319.82	85.8509	1,319.82	82.5119	1,319.82	83.5357	1,319.82	80.0617	1,319.82	80.4339	1,319.82	79.2831	1,319.82	78.5391	1,319.82	78.6543	1,319.82	78.8009	1,319.82	77.9215	1,319.82	77.8837	1,319.82	79.3539	1,319.82	78.4844	1,319.82	77.9304	1,319.82	79.4372	1,319.82	73.6158	1,319.82	76.3107	1,319.82	71.683	1,319.82	74.8678	1,319.82	71.6962	1,319.82	71.0411	1,319.82	73.918
1,414.31	89.8957	1,414.31	88.8081	1,414.31	89.4502	1,414.31	87.4067	1,414.31	88.0579	1,414.31	87.1825	1,414.31	87.4811	1,414.31	87.5338	1,414.31	87.7008	1,414.31	87.2904	1,414.31	87.5771	1,414.31	86.107	1,414.31	86.7914	1,414.31	84.2875	1,414.31	85.3848	1,414.31	81.9959	1,414.31	83.3998	1,414.31	78.972	1,414.31	80.8615	1,414.31	77.8298	1,414.31	78.6956	1,414.31	79.369	1,414.31	79.1289	1,414.31	77.9754	1,414.31	79.3053	1,414.31	76.1953	1,414.31	77.1953	1,414.31	77.3205	1,414.31	77.4021	1,414.31	74.3926	1,414.31	75.6765	1,414.31	73.6357	1,414.31	72.344	1,414.31	73.8638	1,414.31	71.4035	1,414.31	76.4213
1,515.38	90.8381	1,515.38	89.5511	1,515.38	90.2418	1,515.38	87.6214	1,515.38	88.1808	1,515.38	87.2209	1,515.38	86.7422	1,515.38	87.8717	1,515.38	87.1936	1,515.38	87.9727	1,515.38	87.866	1,515.38	87.163	1,515.38	87.5343	1,515.38	85.4558	1,515.38	86.0861	1,515.38	83.0515	1,515.38	83.9189	1,515.38	80.299	1,515.38	81.1355	1,515.38	77.1336	1,515.38	77.7568	1,515.38	77.8006	1,515.38	77.7324	1,515.38	79.4463	1,515.38	79.5893	1,515.38	76.7319	1,515.38	78.1063	1,515.38	75.5312	1,515.38	77.6486	1,515.38	71.3792	1,515.38	76.7861	1,515.38	68.4023	1,515.38	72.8206	1,515.38	68.272	1,515.38	69.8451	1,515.38	74.4821
1,624.51	90.0228	1,624.51	88.8332	1,624.51	89.4601	1,624.51	86.8402	1,624.51	87.4933	1,624.51	86.2475	1,624.51	85.8779	1,624.51	87.3559	1,624.51	86.5374	1,624.51	87.8888	1,624.51	87.6169	1,624.51	87.1416	1,624.51	87.437	1,624.51	85.4027	1,624.51	86.0364	1,624.51	83.0286	1,624.51	83.8676	1,624.51	80.5408	1,624.51	81.3118	1,624.51	78.6568	1,624.51	78.3431	1,624.51	78.3478	1,624.51	76.273	1,624.51	79.0247	1,624.51	79.0788	1,624.51	76.7274	1,624.51	78.3524	1,624.51	75.6082	1,624.51	74.2319	1,624.51	70.1003	1,624.51	74.5879	1,624.51	56.4376	1,624.51	66.8562	1,624.51	70.5091	1,624.51	60.6895	1,624.51	73.5227
1,740.97	89.7037	1,740.97	88.9156	1,740.97	89.3281	1,740.97	87.3771	1,740.97	87.9789	1,740.97	86.1849	1,740.97	86.5333	1,740.97	86.9312	1,740.97	86.6079	1,740.97	87.6526	1,740.97	87.7767	1,740.97	86.9617	1,740.97	87.9172	1,740.97	85.0492	1,740.97	86.73	1,740.97	82.3588	1,740.97	84.6069	1,740.97	79.3613	1,740.97	81.874	1,740.97	77.154	1,740.97	79.1735	1,740.97	75.6153	1,740.97	76.9173	1,740.97	78.2538	1,740.97	76.7309	1,740.97	77.0911	1,740.97	77.9452	1,740.97	71.9576	1,740.97	72.5944	1,740.97	69.0357	1,740.97	71.9468	1,740.97	66.2039	1,740.97	62.007	1,740.97	55.5069	1,740.97	58.6728	1,740.97	68.6332
1,866.21	88.3682	1,866.21	88.3841	1,866.21	88.1925	1,866.21	87.7886	1,866.21	87.79	1,866.21	86.3981	1,866.21	86.5956	1,866.21	86.3236	1,866.21	85.7738	1,866.21	87.1637	1,866.21	86.5636	1,866.21	86.7348	1,866.21	86.6537	1,866.21	84.8889	1,866.21	85.3667	1,866.21	82.4787	1,866.21	83.2935	1,866.21	79.4671	1,866.21	80.6149	1,866.21	77.0087	1,866.21	77.5459	1,866.21	76.1742	1,866.21	76.6274	1,866.21	75.4687	1,866.21	75.79	1,866.21	75.615	1,866.21	76.9531	1,866.21	70.0189	1,866.21	71.0744	1,866.21	64.5517	1,866.21	69.5989	1,866.21	63.1661	1,866.21	61.5312	1,866.21	63.1647	1,866.21	67.929	1,866.21	66.4027
2,000.24	88.2689	2,000.24	88.8871	2,000.24	88.591	2,000.24	88.7529	2,000.24	89.1519	2,000.24	86.7812	2,000.24	88.1832	2,000.24	85.4953	2,000.24	86.5207	2,000.24	86.285	2,000.24	86.5015	2,000.24	86.0987	2,000.24	86.7855	2,000.24	84.3091	2,000.24	85.8232	2,000.24	81.9909	2,000.24	83.7289	2,000.24	79.3218	2,000.24	81.2407	2,000.24	75.7903	2,000.24	78.2503	2,000.24	75.8089	2,000.24	75.9305	2,000.24	74.1885	2,000.24	75.1793	2,000.24	74.1743	2,000.24	74.0195	2,000.24	68.478	2,000.24	69.2641	2,000.24	64.8942	2,000.24	64.0719	2,000.24	68.5189	2,000.24	61.4421	2,000.24	67.6856	2,000.24	66.915	2,000.24	59.9628
2,143.8	87.8961	2,143.8	89.2309	2,143.8	88.5639	2,143.8	89.4436	2,143.8	89.516	2,143.8	87.5023	2,143.8	88.2676	2,143.8	85.8683	2,143.8	85.915	2,143.8	86.7149	2,143.8	85.7999	2,143.8	87.2625	2,143.8	86.6896	2,143.8	86.1253	2,143.8	86.1493	2,143.8	83.9333	2,143.8	84.2162	2,143.8	81.6318	2,143.8	81.4377	2,143.8	78.8189	2,143.8	78.0855	2,143.8	76.7845	2,143.8	76.7231	2,143.8	75.2265	2,143.8	75.4136	2,143.8	71.2941	2,143.8	73.9814	2,143.8	64.0178	2,143.8	68.6931	2,143.8	68.6324	2,143.8	67.9594	2,143.8	63.3333	2,143.8	52.8054	2,143.8	47.5998	2,143.8	70.2021	2,143.8	55.7153
2,297.61	88.6658	2,297.61	89.4288	2,297.61	89.1239	2,297.61	89.6323	2,297.61	89.9497	2,297.61	88.387	2,297.61	89.5237	2,297.61	86.4007	2,297.61	87.9384	2,297.61	86.3295	2,297.61	86.9878	2,297.61	86.8261	2,297.61	87.4835	2,297.61	85.5301	2,297.61	86.9162	2,297.61	82.8223	2,297.61	84.9925	2,297.61	79.8244	2,297.61	82.3661	2,297.61	76.8609	2,297.61	79.0145	2,297.61	76.0245	2,297.61	76.7476	2,297.61	74.2537	2,297.61	76.0621	2,297.61	69.0824	2,297.61	71.7897	2,297.61	63.2425	2,297.61	61.2255	2,297.61	67.9812	2,297.61	68.9998	2,297.61	65.8847	2,297.61	65.9503	2,297.61	61.7575	2,297.61	64.6286	2,297.61	61.0187
2,462.4	88.4772	2,462.4	88.7186	2,462.4	88.7447	2,462.4	89.7722	2,462.4	89.4717	2,462.4	89.9069	2,462.4	89.9931	2,462.4	88.1605	2,462.4	88.9898	2,462.4	86.845	2,462.4	87.1644	2,462.4	86.4151	2,462.4	86.5082	2,462.4	84.9027	2,462.4	85.2347	2,462.4	82.2767	2,462.4	82.6461	2,462.4	79.4243	2,462.4	80.3579	2,462.4	76.4609	2,462.4	77.9592	2,462.4	75.0049	2,462.4	75.4485	2,462.4	69.9662	2,462.4	75.0297	2,462.4	65.1182	2,462.4	69.3173	2,462.4	57.8159	2,462.4	58.4322	2,462.4	68.7609	2,462.4	70.6342	2,462.4	67.87	2,462.4	69.9217	2,462.4	58.6598	2,462.4	63.599	2,462.4	63.0504
2,638.92	89.2627	2,638.92	88.7638	2,638.92	88.8556	2,638.92	89.9076	2,638.92	89.3117	2,638.92	90.4455	2,638.92	90.6986	2,638.92	88.2239	2,638.92	89.692	2,638.92	85.7522	2,638.92	86.879	2,638.92	85.1796	2,638.92	85.2436	2,638.92	84.0104	2,638.92	84.2675	2,638.92	80.9413	2,638.92	82.3427	2,638.92	78.2618	2,638.92	79.6683	2,638.92	76.6705	2,638.92	77.367	2,638.92	75.2437	2,638.92	75.9413	2,638.92	71.6151	2,638.92	74.0958	2,638.92	63.6911	2,638.92	69.1034	2,638.92	56.8008	2,638.92	61.5432	2,638.92	71.1194	2,638.92	68.6436	2,638.92	70.2041	2,638.92	67.1801	2,638.92	68.4776	2,638.92	60.7677	2,638.92	66.0086
2,828.61	89.6533	2,828.61	88.9539	2,828.61	89.2873	2,828.61	90.1041	2,828.61	89.414	2,828.61	90.5228	2,828.61	90.5338	2,828.61	88.374	2,828.61	89.3698	2,828.61	86.1656	2,828.61	87.091	2,828.61	85.6892	2,828.61	85.8264	2,828.61	84.7188	2,828.61	85.0683	2,828.61	82.0806	2,828.61	83.3172	2,828.61	78.5948	2,828.61	81.1524	2,828.61	75.6169	2,828.61	77.9929	2,828.61	75.336	2,828.61	76.3913	2,828.61	72.2296	2,828.61	76.2298	2,828.61	58.4467	2,828.61	61.5942	2,828.61	67.325	2,828.61	57.2745	2,828.61	70.7793	2,828.61	67.2065	2,828.61	65.3687	2,828.61	65.3931	2,828.61	62.8609	2,828.61	63.2717	2,828.61	65.5876
3,031.49	89.3092	3,031.49	88.6127	3,031.49	89.0104	3,031.49	88.7396	3,031.49	88.662	3,031.49	89.1113	3,031.49	89.0118	3,031.49	88.298	3,031.49	88.5686	3,031.49	86.6898	3,031.49	87.3655	3,031.49	85.6414	3,031.49	85.5923	3,031.49	84.2975	3,031.49	84.6448	3,031.49	81.9536	3,031.49	82.7917	3,031.49	79.2444	3,031.49	80.6665	3,031.49	76.3247	3,031.49	78.0592	3,031.49	75.5079	3,031.49	74.1952	3,031.49	72.4142	3,031.49	74.3354	3,031.49	52.7102	3,031.49	63.4247	3,031.49	65.3529	3,031.49	60.1604	3,031.49	69.2249	3,031.49	69.8343	3,031.49	63.0455	3,031.49	64.7014	3,031.49	62.3377	3,031.49	57.5365	3,031.49	59.5404
3,249.02	89.3787	3,249.02	88.8684	3,249.02	89.2413	3,249.02	87.9536	3,249.02	88.2821	3,249.02	88.2923	3,249.02	87.7392	3,249.02	88.6592	3,249.02	88.4934	3,249.02	86.8527	3,249.02	87.617	3,249.02	85.1261	3,249.02	85.1977	3,249.02	84.0628	3,249.02	83.3871	3,249.02	82.3195	3,249.02	81.8904	3,249.02	78.835	3,249.02	80.4249	3,249.02	76.0384	3,249.02	78.1013	3,249.02	74.5506	3,249.02	74.1945	3,249.02	71.4151	3,249.02	74.6889	3,249.02	65.3642	3,249.02	66.7019	3,249.02	69.3156	3,249.02	62.7922	3,249.02	65.8988	3,249.02	68.402	3,249.02	53.9573	3,249.02	64.6483	3,249.02	59.6258	3,249.02	51.1329	3,249.02	56.148
3,481.93	89.2382	3,481.93	88.386	3,481.93	88.9876	3,481.93	86.6118	3,481.93	87.8645	3,481.93	87.1413	3,481.93	87.1895	3,481.93	87.6547	3,481.93	87.8187	3,481.93	85.9683	3,481.93	86.5571	3,481.93	84.1412	3,481.93	84.5678	3,481.93	83.3485	3,481.93	83.8021	3,481.93	82.211	3,481.93	82.6945	3,481.93	78.2975	3,481.93	80.3962	3,481.93	76.0407	3,481.93	78.0922	3,481.93	74.8879	3,481.93	73.7177	3,481.93	72.1862	3,481.93	73.3048	3,481.93	66.6634	3,481.93	66.4495	3,481.93	66.3123	3,481.93	61.4763	3,481.93	62.2501	3,481.93	68.2762	3,481.93	54.5235	3,481.93	55.3179	3,481.93	60.4435	3,481.93	57.9943	3,481.93	65.4983
3,732.42	88.8798	3,732.42	87.9736	3,732.42	88.5875	3,732.42	87.0081	3,732.42	87.028	3,732.42	86.454	3,732.42	86.5409	3,732.42	86.3715	3,732.42	86.8412	3,732.42	86.5502	3,732.42	86.3376	3,732.42	85.9122	3,732.42	85.5202	3,732.42	83.9311	3,732.42	83.3775	3,732.42	80.3294	3,732.42	81.0833	3,732.42	75.95	3,732.42	77.4949	3,732.42	74.6371	3,732.42	75.1164	3,732.42	72.7576	3,732.42	72.9945	3,732.42	70.5282	3,732.42	71.1987	3,732.42	57.9654	3,732.42	63.4858	3,732.42	57.2259	3,732.42	59.9041	3,732.42	62.5691	3,732.42	69.0506	3,732.42	60.401	3,732.42	54.8774	3,732.42	54.9234	3,732.42	65.0222	3,732.42	65.0124
3,999.76	88.512	3,999.76	88.1745	3,999.76	88.6696	3,999.76	86.5788	3,999.76	88.0349	3,999.76	85.8707	3,999.76	86.1019	3,999.76	86.975	3,999.76	86.8079	3,999.76	86.3648	3,999.76	87.3407	3,999.76	84.1144	3,999.76	85.6335	3,999.76	82.4762	3,999.76	82.8032	3,999.76	78.6622	3,999.76	80.9988	3,999.76	75.8547	3,999.76	76.5746	3,999.76	74.8398	3,999.76	73.9931	3,999.76	70.0443	3,999.76	74.9832	3,999.76	64.906	3,999.76	69.9013	3,999.76	56.0466	3,999.76	63.8931	3,999.76	52.2097	3,999.76	60.6939	3,999.76	57.8601	3,999.76	64.1842	3,999.76	54.5134	3,999.76	52.2601	3,999.76	58.8907	3,999.76	64.1544	3,999.76	63.9966
4,286.87	88.2488	4,286.87	88.8219	4,286.87	88.3766	4,286.87	88.0641	4,286.87	88.3628	4,286.87	87.7806	4,286.87	87.1982	4,286.87	87.6857	4,286.87	87.0779	4,286.87	86.3161	4,286.87	87.3399	4,286.87	85.0922	4,286.87	86.0257	4,286.87	80.7109	4,286.87	83.1257	4,286.87	76.5417	4,286.87	77.7832	4,286.87	73.5568	4,286.87	72.0074	4,286.87	70.1644	4,286.87	71.1693	4,286.87	67.5748	4,286.87	70.8035	4,286.87	61.2333	4,286.87	69.037	4,286.87	59.5277	4,286.87	62.6704	4,286.87	49.3692	4,286.87	63.2695	4,286.87	54.1624	4,286.87	58.5832	4,286.87	61.9507	4,286.87	56.7662	4,286.87	63.9918	4,286.87	65.201	4,286.87	63.894
4,594.48	89.547	4,594.48	88.7761	4,594.48	89.6918	4,594.48	88.2633	4,594.48	88.6021	4,594.48	87.665	4,594.48	88.0882	4,594.48	86.9804	4,594.48	87.7361	4,594.48	85.9926	4,594.48	86.4173	4,594.48	83.7173	4,594.48	85.3818	4,594.48	80.7429	4,594.48	82.5633	4,594.48	79.7898	4,594.48	78.444	4,594.48	74.7096	4,594.48	74.6507	4,594.48	68.3263	4,594.48	73.3955	4,594.48	69.3937	4,594.48	69.7386	4,594.48	69.9999	4,594.48	65.0555	4,594.48	60.0262	4,594.48	61.5843	4,594.48	61.4677	4,594.48	63.43	4,594.48	54.5076	4,594.48	57.6538	4,594.48	58.6659	4,594.48	55.545	4,594.48	64.0949	4,594.48	59.4451	4,594.48	61.657
4,924.8	89.4787	4,924.8	89.0585	4,924.8	89.5868	4,924.8	88.5719	4,924.8	89.2685	4,924.8	87.6314	4,924.8	88.3701	4,924.8	86.2707	4,924.8	86.9221	4,924.8	84.5806	4,924.8	85.3871	4,924.8	82.3118	4,924.8	84.0905	4,924.8	81.3925	4,924.8	82.7682	4,924.8	78.6765	4,924.8	79.5783	4,924.8	70.3841	4,924.8	75.7572	4,924.8	70.1149	4,924.8	75.6147	4,924.8	71.9889	4,924.8	69.1427	4,924.8	63.5445	4,924.8	66.2651	4,924.8	59.04	4,924.8	63.2217	4,924.8	62.8687	4,924.8	65.8862	4,924.8	54.9597	4,924.8	61.1173	4,924.8	58.3527	4,924.8	61.8858	4,924.8	64.9817	4,924.8	65.5556	4,924.8	64.1516
5,277.83	89.4828	5,277.83	89.4654	5,277.83	89.2283	5,277.83	88.9456	5,277.83	89.0825	5,277.83	87.3811	5,277.83	88.2586	5,277.83	85.5014	5,277.83	86.0687	5,277.83	84.4454	5,277.83	85.0105	5,277.83	83.4455	5,277.83	84.8119	5,277.83	81.3865	5,277.83	83.5844	5,277.83	76.0579	5,277.83	81.4572	5,277.83	70.2045	5,277.83	77.6446	5,277.83	71.0848	5,277.83	73.8061	5,277.83	72.2442	5,277.83	71.5375	5,277.83	63.9222	5,277.83	67.5523	5,277.83	60.9177	5,277.83	63.2672	5,277.83	68.0908	5,277.83	59.1923	5,277.83	62.7088	5,277.83	63.4497	5,277.83	61.6045	5,277.83	56.8517	5,277.83	63.5262	5,277.83	60.1466	5,277.83	64.1061
5,656.49	87.6583	5,656.49	88.7028	5,656.49	88.2009	5,656.49	88.3816	5,656.49	88.5409	5,656.49	86.2173	5,656.49	86.6321	5,656.49	85.9066	5,656.49	85.7692	5,656.49	85.374	5,656.49	85.3241	5,656.49	84.2849	5,656.49	84.4826	5,656.49	79.6303	5,656.49	82.3837	5,656.49	72.7777	5,656.49	79.5901	5,656.49	71.19	5,656.49	75.0154	5,656.49	68.4174	5,656.49	71.6803	5,656.49	70.0307	5,656.49	69.2136	5,656.49	62.6511	5,656.49	67.7389	5,656.49	58.4736	5,656.49	56.9971	5,656.49	64.7076	5,656.49	52.4076	5,656.49	60.288	5,656.49	54.1551	5,656.49	58.7896	5,656.49	49.7304	5,656.49	54.2107	5,656.49	64.1401	5,656.49	61.301
6,062.99	88.8416	6,062.99	88.8106	6,062.99	89.0834	6,062.99	87.658	6,062.99	88.4792	6,062.99	86.2363	6,062.99	87.066	6,062.99	85.6719	6,062.99	86.1353	6,062.99	84.6198	6,062.99	84.881	6,062.99	82.4781	6,062.99	82.9863	6,062.99	78.9495	6,062.99	80.4898	6,062.99	75.5384	6,062.99	77.6072	6,062.99	72.8825	6,062.99	71.5646	6,062.99	70.3611	6,062.99	70.3008	6,062.99	68.5242	6,062.99	65.9898	6,062.99	63.848	6,062.99	63.183	6,062.99	62.6682	6,062.99	61.3004	6,062.99	63.6477	6,062.99	61.9409	6,062.99	56.9538	6,062.99	48.7875	6,062.99	54.8728	6,062.99	60.3835	6,062.99	59.3548	6,062.99	60.858	6,062.99	58.3895
6,498.05	90.2184	6,498.05	89.8869	6,498.05	90.2553	6,498.05	88.6083	6,498.05	89.1011	6,498.05	87.5436	6,498.05	87.322	6,498.05	86.5138	6,498.05	86.4063	6,498.05	85.0393	6,498.05	84.6788	6,498.05	83.1883	6,498.05	83.1625	6,498.05	81.4613	6,498.05	81.6941	6,498.05	78.4243	6,498.05	78.8917	6,498.05	74.124	6,498.05	74.1033	6,498.05	71.4593	6,498.05	71.654	6,498.05	66.5924	6,498.05	70.0119	6,498.05	65.3247	6,498.05	61.6165	6,498.05	63.7727	6,498.05	65.2533	6,498.05	58.7969	6,498.05	64.1022	6,498.05	52.1863	6,498.05	51.9143	6,498.05	50.9829	6,498.05	56.612	6,498.05	55.3921	6,498.05	55.6767	6,498.05	49.9458
6,964.6	90.7396	6,964.6	89.9055	6,964.6	90.6393	6,964.6	88.7829	6,964.6	88.9464	6,964.6	87.1806	6,964.6	87.5883	6,964.6	85.1868	6,964.6	86.1613	6,964.6	83.9333	6,964.6	84.0668	6,964.6	83.6689	6,964.6	84.2127	6,964.6	82.2807	6,964.6	83.0094	6,964.6	78.6833	6,964.6	80.5498	6,964.6	73.3003	6,964.6	75.0547	6,964.6	69.9575	6,964.6	70.9042	6,964.6	67.2687	6,964.6	70.5689	6,964.6	64.577	6,964.6	61.0485	6,964.6	65.4574	6,964.6	64.7667	6,964.6	64.695	6,964.6	65.6339	6,964.6	49.7024	6,964.6	53.0288	6,964.6	60.6431	6,964.6	56.113	6,964.6	58.9456	6,964.6	61.2874	6,964.6	51.1365
7,464.11	90.3964	7,464.11	89.1417	7,464.11	89.8019	7,464.11	88.0197	7,464.11	88.0878	7,464.11	85.9216	7,464.11	86.9321	7,464.11	82.9282	7,464.11	84.0389	7,464.11	82.9789	7,464.11	83.3892	7,464.11	81.9355	7,464.11	82.2681	7,464.11	79.9743	7,464.11	79.4481	7,464.11	75.5635	7,464.11	78.0155	7,464.11	70.4492	7,464.11	71.2518	7,464.11	66.9325	7,464.11	67.9399	7,464.11	65.5041	7,464.11	69.3847	7,464.11	60.3078	7,464.11	59.5107	7,464.11	59.3416	7,464.11	61.7143	7,464.11	63.4148	7,464.11	63.9043	7,464.11	53.3975	7,464.11	54.3952	7,464.11	56.4564	7,464.11	42.6778	7,464.11	55.7134	7,464.11	60.2085	7,464.11	48.9124
8,000.24	89.2469	8,000.24	88.2031	8,000.24	88.619	8,000.24	86.6661	8,000.24	86.9812	8,000.24	83.8091	8,000.24	84.5022	8,000.24	82.3383	8,000.24	82.6393	8,000.24	80.5021	8,000.24	80.9166	8,000.24	79.0403	8,000.24	77.6865	8,000.24	76.7917	8,000.24	77.1925	8,000.24	75.1706	8,000.24	74.2344	8,000.24	70.7739	8,000.24	72.0057	8,000.24	64.0447	8,000.24	70.0225	8,000.24	63.2276	8,000.24	65.7978	8,000.24	61.5414	8,000.24	56.5032	8,000.24	56.3425	8,000.24	56.9918	8,000.24	54.2434	8,000.24	53.7792	8,000.24	52.3522	8,000.24	34.1329	8,000.24	53.6111	8,000.24	48.1534	8,000.24	52.8478	8,000.24	57.5259	8,000.24	52.6556
8,574.46	91.2494	8,574.46	90.4522	8,574.46	91.057	8,574.46	88.456	8,574.46	88.9951	8,574.46	85.2268	8,574.46	86.1278	8,574.46	83.3657	8,574.46	83.9755	8,574.46	80.3471	8,574.46	81.6902	8,574.46	79.7436	8,574.46	79.9111	8,574.46	76.7857	8,574.46	80.0898	8,574.46	75.8023	8,574.46	76.1369	8,574.46	69.2835	8,574.46	73.6086	8,574.46	58.0891	8,574.46	66.5974	8,574.46	58.2942	8,574.46	64.4352	8,574.46	58.9715	8,574.46	48.6485	8,574.46	56.8601	8,574.46	53.4903	8,574.46	54.6213	8,574.46	54.5222	8,574.46	50.5974	8,574.46	53.4614	8,574.46	50.2982	8,574.46	49.5604	8,574.46	55.9402	8,574.46	52.3005	8,574.46	51.9782
9,189.7	90.8132	9,189.7	90.0816	9,189.7	90.845	9,189.7	88.6717	9,189.7	89.1181	9,189.7	86.0471	9,189.7	86.6382	9,189.7	82.6432	9,189.7	83.4286	9,189.7	79.6323	9,189.7	80.8471	9,189.7	78.6707	9,189.7	80.6164	9,189.7	75.6103	9,189.7	79.1225	9,189.7	74.9598	9,189.7	74.924	9,189.7	68.1417	9,189.7	71.0422	9,189.7	58.2272	9,189.7	66.1593	9,189.7	55.5114	9,189.7	64.9964	9,189.7	53.2554	9,189.7	51.1581	9,189.7	51.1434	9,189.7	54.7537	9,189.7	51.6452	9,189.7	57.8706	9,189.7	52.8917	9,189.7	49.6205	9,189.7	54.3866	9,189.7	40.7524	9,189.7	57.35	9,189.7	58.6102	9,189.7	48.3633
9,848.88	88.575	9,848.88	88.2778	9,848.88	88.9698	9,848.88	87.5655	9,848.88	87.6528	9,848.88	84.383	9,848.88	85.2511	9,848.88	80.3304	9,848.88	81.146	9,848.88	77.8737	9,848.88	79.0487	9,848.88	74.4905	9,848.88	76.4352	9,848.88	72.7944	9,848.88	72.162	9,848.88	68.6202	9,848.88	71.3228	9,848.88	59.2659	9,848.88	67.7404	9,848.88	57.5008	9,848.88	64.2015	9,848.88	53.6309	9,848.88	63.3775	9,848.88	48.2358	9,848.88	50.6682	9,848.88	55.1564	9,848.88	51.5518	9,848.88	55.6809	9,848.88	54.8371	9,848.88	53.1573	9,848.88	36.2846	9,848.88	55.7434	9,848.88	47.6276	9,848.88	58.5754	9,848.88	60.0172	9,848.88	43.6048
10,556.4	88.3181	10,556.4	88.7905	10,556.4	88.9587	10,556.4	88.0967	10,556.4	88.5602	10,556.4	85.4513	10,556.4	86.3196	10,556.4	83.0237	10,556.4	83.5007	10,556.4	79.909	10,556.4	79.7439	10,556.4	75.9297	10,556.4	77.8075	10,556.4	73.641	10,556.4	73.7876	10,556.4	69.1046	10,556.4	71.0318	10,556.4	63.168	10,556.4	68.4396	10,556.4	53.2956	10,556.4	63.6406	10,556.4	44.6859	10,556.4	62.1442	10,556.4	55.702	10,556.4	50.021	10,556.4	57.1061	10,556.4	53.7095	10,556.4	53.6712	10,556.4	49.6235	10,556.4	52.7932	10,556.4	49.4739	10,556.4	50.2861	10,556.4	49.2556	10,556.4	54.7088	10,556.4	53.3452	10,556.4	47.2674
11,313.7	87.853	11,313.7	88.0347	11,313.7	88.021	11,313.7	87.276	11,313.7	87.6011	11,313.7	85.6694	11,313.7	85.8808	11,313.7	83.3194	11,313.7	83.6481	11,313.7	79.9526	11,313.7	80.4339	11,313.7	77.0556	11,313.7	77.7712	11,313.7	75.3056	11,313.7	74.3955	11,313.7	71.0226	11,313.7	72.5898	11,313.7	68.2567	11,313.7	68.8331	11,313.7	59.2884	11,313.7	64.714	11,313.7	47.4173	11,313.7	59.797	11,313.7	55.9346	11,313.7	54.7925	11,313.7	55.129	11,313.7	46.3264	11,313.7	43.9913	11,313.7	53.2407	11,313.7	46.9851	11,313.7	43.8753	11,313.7	33.041	11,313.7	44.9298	11,313.7	42.4462	11,313.7	43.8448	11,313.7	47.7804
12,126	86.6827	12,126	85.9278	12,126	86.1511	12,126	84.9804	12,126	84.7754	12,126	83.4001	12,126	83.6837	12,126	81.2277	12,126	80.995	12,126	78.7527	12,126	78.6268	12,126	76.2831	12,126	76.9717	12,126	75.6422	12,126	75.2164	12,126	70.9555	12,126	71.1479	12,126	67.2068	12,126	65.5244	12,126	57.5426	12,126	63.3851	12,126	48.3018	12,126	57.4945	12,126	53.2633	12,126	51.4806	12,126	45.2025	12,126	48.7573	12,126	54.3475	12,126	51.5247	12,126	46.1865	12,126	52.1456	12,126	51.4143	12,126	48.6557	12,126	55.144	12,126	52.6245	12,126	50.3076
12,996.1	88.347	12,996.1	87.1699	12,996.1	87.4797	12,996.1	85.4771	12,996.1	85.8118	12,996.1	83.4269	12,996.1	83.7665	12,996.1	80.409	12,996.1	80.722	12,996.1	78.321	12,996.1	78.5481	12,996.1	74.843	12,996.1	76.6313	12,996.1	73.858	12,996.1	73.4042	12,996.1	70.0963	12,996.1	69.1883	12,996.1	65.1047	12,996.1	69.7164	12,996.1	55.4126	12,996.1	58.7045	12,996.1	56.1233	12,996.1	59.8898	12,996.1	51.549	12,996.1	49.7821	12,996.1	41.823	12,996.1	56.3722	12,996.1	59.2815	12,996.1	50.5608	12,996.1	45.9049	12,996.1	54.9645	12,996.1	46.8956	12,996.1	50.0812	12,996.1	57.4388	12,996.1	45.3126	12,996.1	59.1247
13,928.5	87.2076	13,928.5	86.3619	13,928.5	86.8069	13,928.5	85.009	13,928.5	85.5217	13,928.5	82.0543	13,928.5	83.0007	13,928.5	79.0197	13,928.5	79.8303	13,928.5	75.549	13,928.5	77.2962	13,928.5	72.8348	13,928.5	74.2643	13,928.5	72.0297	13,928.5	71.4029	13,928.5	66.7879	13,928.5	69.3775	13,928.5	64.3257	13,928.5	65.351	13,928.5	49.6557	13,928.5	47.0211	13,928.5	50.4796	13,928.5	62.0024	13,928.5	41.94	13,928.5	50.3328	13,928.5	36.9422	13,928.5	54.9153	13,928.5	60.5152	13,928.5	57.8332	13,928.5	39.8912	13,928.5	55.4153	13,928.5	53.3149	13,928.5	46.3568	13,928.5	56.0405	13,928.5	48.0252	13,928.5	60.1578
14,928.2	86.5439	14,928.2	85.7507	14,928.2	86.5252	14,928.2	83.6414	14,928.2	84.9748	14,928.2	79.421	14,928.2	81.5919	14,928.2	76.0931	14,928.2	78.1628	14,928.2	72.167	14,928.2	74.7908	14,928.2	69.5632	14,928.2	70.6686	14,928.2	67.6097	14,928.2	68.3716	14,928.2	66.7974	14,928.2	66.8074	14,928.2	60.9227	14,928.2	60.525	14,928.2	44.8559	14,928.2	51.1221	14,928.2	51.5129	14,928.2	61.5544	14,928.2	49.2982	14,928.2	43.3985	14,928.2	45.0519	14,928.2	52.0823	14,928.2	59.5765	14,928.2	57.4321	14,928.2	38.6164	14,928.2	57.2022	14,928.2	55.0978	14,928.2	32.2501	14,928.2	51.9454	14,928.2	56.6403	14,928.2	61.7766
15,999.8	86.1683	15,999.8	85.0075	15,999.8	86.8535	15,999.8	82.3938	15,999.8	84.6807	15,999.8	78.4571	15,999.8	80.7605	15,999.8	75.3965	15,999.8	76.3676	15,999.8	72.2739	15,999.8	72.7054	15,999.8	70.4048	15,999.8	68.5918	15,999.8	69.0372	15,999.8	65.8992	15,999.8	66.8811	15,999.8	64.6053	15,999.8	59.9944	15,999.8	59.8353	15,999.8	46.5871	15,999.8	54.8417	15,999.8	53.8165	15,999.8	62.7622	15,999.8	52.0294	15,999.8	47.9275	15,999.8	43.764	15,999.8	51.2097	15,999.8	58.3601	15,999.8	58.6061	15,999.8	41.6762	15,999.8	58.7906	15,999.8	57.4141	15,999.8	48.4646	15,999.8	56.8182	15,999.8	58.6385	15,999.8	60.5134
17,148.2	85.6852	17,148.2	84.2154	17,148.2	86.3014	17,148.2	80.723	17,148.2	83.4372	17,148.2	77.2923	17,148.2	78.3826	17,148.2	73.4383	17,148.2	73.5887	17,148.2	70.8532	17,148.2	71.7852	17,148.2	68.0086	17,148.2	67.411	17,148.2	65.3787	17,148.2	65.5083	17,148.2	61.3211	17,148.2	64.3835	17,148.2	57.6804	17,148.2	60.3687	17,148.2	47.7368	17,148.2	59.2859	17,148.2	53.0166	17,148.2	63.9687	17,148.2	46.7266	17,148.2	45.6021	17,148.2	44.8601	17,148.2	52.1955	17,148.2	59.58	17,148.2	60.2677	17,148.2	50.931	17,148.2	59.1578	17,148.2	55.7498	17,148.2	51.1199	17,148.2	56.0252	17,148.2	63.6468	17,148.2	61.7749
18,379.4	85.9992	18,379.4	84.4013	18,379.4	85.4363	18,379.4	80.6895	18,379.4	81.4838	18,379.4	76.474	18,379.4	77.231	18,379.4	72.7463	18,379.4	75.608	18,379.4	67.5563	18,379.4	73.3572	18,379.4	64.1276	18,379.4	69.1735	18,379.4	65.4435	18,379.4	65.4082	18,379.4	57.3104	18,379.4	66.2867	18,379.4	56.3239	18,379.4	58.6619	18,379.4	52.5909	18,379.4	56.2587	18,379.4	52.6177	18,379.4	61.3796	18,379.4	49.84	18,379.4	43.9765	18,379.4	47.4238	18,379.4	53.5239	18,379.4	60.9672	18,379.4	61.6848	18,379.4	53.2783	18,379.4	58.2546	18,379.4	53.7674	18,379.4	51.9256	18,379.4	56.1852	18,379.4	64.2714	18,379.4	59.9053
19,698.5	84.9215	19,698.5	84.1828	19,698.5	84.4914	19,698.5	82.4451	19,698.5	82.5369	19,698.5	79.3664	19,698.5	81.4518	19,698.5	75.6049	19,698.5	77.662	19,698.5	70.8703	19,698.5	73.774	19,698.5	68.6922	19,698.5	70.7835	19,698.5	63.212	19,698.5	65.0869	19,698.5	67.1773	19,698.5	60.6778	19,698.5	58.9588	19,698.5	60.9953	19,698.5	60.6189	19,698.5	55.2532	19,698.5	56.132	19,698.5	54.1108	19,698.5	45.7507	19,698.5	41.963	19,698.5	52.6946	19,698.5	53.0397	19,698.5	63.1144	19,698.5	60.3136	19,698.5	57.3852	19,698.5	57.5619	19,698.5	47.3605	19,698.5	48.2834	19,698.5	52.2314	19,698.5	65.1935	19,698.5	55.8753
19,999.5	85.6938	19,999.5	85.2242	19,999.5	85.4526	19,999.5	83.4046	19,999.5	83.4674	19,999.5	80.2672	19,999.5	82.6042	19,999.5	76.3041	19,999.5	78.1527	19,999.5	72.813	19,999.5	73.6797	19,999.5	69.5483	19,999.5	71.3253	19,999.5	59.8838	19,999.5	65.5913	19,999.5	69.3194	19,999.5	57.0014	19,999.5	58.8479	19,999.5	61.9814	19,999.5	61.0734	19,999.5	60.1013	19,999.5	58.0169	19,999.5	61.1487	19,999.5	44.3864	19,999.5	50.1253	19,999.5	50.9859	19,999.5	55.096	19,999.5	65.0347	19,999.5	63.6884	19,999.5	58.3644	19,999.5	56.0025	19,999.5	46.5885	19,999.5	48.4231	19,999.5	58.032	19,999.5	64.6363	19,999.5	59.1194
