"Vertical Reflections"					
"Floor Reflection"		"Ceiling Reflection"		"Total Vertical Reflection"	
"Frequency [Hz]"	"Sound Pessure Level [dB]  / [2.83V 1m] "	"Frequency [Hz]"	"Sound Pessure Level [dB]  / [2.83V 1m] "	"Frequency [Hz]"	"Sound Pessure Level [dB]  / [2.83V 1m] "
20.5078	63.9265	20.5078	63.477	20.5078	63.7075
21.9727	64.9684	21.9727	64.4927	21.9727	64.737
23.4375	66.2101	23.4375	65.7145	23.4375	65.9694
25.6348	67.6733	25.6348	67.1944	25.6348	67.4405
27.0996	68.5899	27.0996	68.1109	27.0996	68.357
29.2969	69.934	29.2969	69.4691	29.2969	69.7078
31.4941	71.1556	31.4941	70.6611	31.4941	70.9153
33.6914	72.1216	33.6914	71.6398	33.6914	71.8874
35.8887	73.2024	35.8887	72.7203	35.8887	72.968
38.8184	74.5475	38.8184	74.0703	38.8184	74.3155
41.0156	75.5694	41.0156	75.0957	41.0156	75.339
43.9453	76.8559	43.9453	76.3464	43.9453	76.6086
47.6074	78.3074	47.6074	77.8009	47.6074	78.0615
50.5371	79.3958	50.5371	78.8686	50.5371	79.1402
54.1992	80.6871	54.1992	80.1871	54.1992	80.4443
58.5938	82.1139	58.5938	81.5631	58.5938	81.8472
62.2559	83.0591	62.2559	82.5314	62.2559	82.8032
66.6504	84.2628	66.6504	83.7075	66.6504	83.994
71.7773	85.4079	71.7773	84.8864	71.7773	85.155
76.9043	86.5075	76.9043	85.9875	76.9043	86.2553
82.7637	87.5611	82.7637	87.0007	82.7637	87.29
88.623	88.3654	88.623	87.792	88.623	88.0882
94.4824	88.9516	94.4824	88.3619	94.4824	88.6668
101.807	89.3669	101.807	88.8327	101.807	89.108
109.131	89.6516	109.131	89.0563	109.131	89.3641
116.455	89.7973	116.455	89.1153	116.455	89.4696
125.244	89.7695	125.244	88.9584	125.244	89.3828
134.033	89.6815	134.033	88.6986	134.033	89.2178
143.555	89.6814	143.555	88.5011	143.555	89.1312
153.809	89.8334	153.809	88.517	153.809	89.2249
164.795	90.2787	164.795	88.8739	164.795	89.6329
176.514	90.2646	176.514	88.724	176.514	89.5623
189.697	90.4277	189.697	88.9303	189.697	89.7432
202.881	90.2916	202.881	88.88	202.881	89.6429
217.529	90.0697	217.529	88.3747	217.529	89.3044
232.91	90.1425	232.91	88.1995	232.91	89.2788
249.756	89.8784	249.756	87.2635	249.756	88.7649
268.066	89.3624	268.066	86.5959	268.066	88.1958
287.109	89.7067	287.109	87.5561	287.109	88.7632
307.617	89.7437	307.617	87.6055	307.617	88.8049
329.59	89.4238	329.59	86.9415	329.59	88.3576
353.76	89.8326	353.76	87.1111	353.76	88.6816
378.662	89.9729	378.662	87.852	378.662	89.0407
405.762	89.4828	405.762	87.1	405.762	88.4528
435.059	89.4897	435.059	87.0733	435.059	88.4474
466.553	89.5362	466.553	87.4301	466.553	88.6096
500.244	88.4708	500.244	87.4731	500.244	88.0005
536.133	88.5688	536.133	86.3755	536.133	87.6092
574.219	89.5886	574.219	86.3206	574.219	88.255
615.234	88.5379	615.234	87.422	615.234	88.0157
659.912	87.736	659.912	88.1091	659.912	87.9266
706.787	87.893	706.787	87.0467	706.787	87.4904
758.057	87.2646	758.057	87.5601	758.057	87.4148
812.256	85.7297	812.256	86.939	812.256	86.3763
870.85	84.5691	870.85	84.9164	870.85	84.7462
933.105	85.6075	933.105	85.7745	933.105	85.6918
999.756	84.6999	999.756	85.0666	999.756	84.8871
1,071.53	84.5602	1,071.53	85.5318	1,071.53	85.0731
1,148.44	86.4725	1,148.44	87.0511	1,148.44	86.7714
1,231.2	88.8431	1,231.2	87.0111	1,231.2	88.023
1,319.82	89.3592	1,319.82	87.3371	1,319.82	88.4648
1,414.31	89.0447	1,414.31	87.0777	1,414.31	88.1716
1,515.38	88.6946	1,515.38	87.4021	1,515.38	88.0963
1,624.51	87.8679	1,624.51	87.6142	1,624.51	87.7429
1,740.97	85.4482	1,740.97	86.2159	1,740.97	85.849
1,866.21	83.0552	1,866.21	83.4612	1,866.21	83.2629
2,000.24	79.3272	2,000.24	81.1789	2,000.24	80.351
2,143.8	78.0493	2,143.8	77.5025	2,143.8	77.7845
2,297.61	78.9307	2,297.61	74.3444	2,297.61	77.2167
2,462.4	80.8786	2,462.4	77.9291	2,462.4	79.6496
2,638.92	81.8338	2,638.92	81.3658	2,638.92	81.6061
2,828.61	83.7713	2,828.61	82.8893	2,828.61	83.3527
3,031.49	84.8867	3,031.49	85.0077	3,031.49	84.9476
3,249.02	86.9802	3,249.02	86.2122	3,249.02	86.6131
3,481.93	87.3631	3,481.93	85.6439	3,481.93	86.588
3,732.42	88.1583	3,732.42	85.3994	3,732.42	86.9944
3,999.76	88.1066	3,999.76	85.1451	3,999.76	86.8735
4,286.87	87.008	4,286.87	83.7455	4,286.87	85.6762
4,594.48	87.487	4,594.48	82.8927	4,594.48	85.771
4,924.8	87.8524	4,924.8	82.6607	4,924.8	85.9901
5,277.83	87.6764	5,277.83	83.1809	5,277.83	85.9861
5,656.49	88.3399	5,656.49	83.8022	5,656.49	86.6385
6,062.99	87.9139	6,062.99	84.2919	6,062.99	86.4701
6,498.05	87.0007	6,498.05	82.9448	6,498.05	85.4299
6,964.6	87.247	6,964.6	81.2583	6,964.6	85.2122
7,464.11	87.514	7,464.11	80.7702	7,464.11	85.3375
8,000.24	86.0984	8,000.24	81.8443	8,000.24	84.4727
8,574.46	84.0434	8,574.46	80.6049	8,574.46	82.6559
9,189.7	84.0137	9,189.7	79.3386	9,189.7	82.277
9,848.88	85.001	9,848.88	79.4837	9,848.88	83.0652
10,556.4	85.5354	10,556.4	78.234	10,556.4	83.2665
11,313.7	85.1143	11,313.7	78.4458	11,313.7	82.9511
12,126	83.8935	12,126	79.5019	12,126	82.2306
12,996.1	83.0564	12,996.1	78.4598	12,996.1	81.3398
13,928.5	82.4678	13,928.5	77.3911	13,928.5	80.6325
14,928.2	81.1106	14,928.2	75.402	14,928.2	79.1336
15,999.8	80.5358	15,999.8	72.3366	15,999.8	78.1377
17,148.2	79.1637	17,148.2	71.1612	17,148.2	76.7919
18,379.4	77.6368	18,379.4	69.9525	18,379.4	75.31
19,698.5	78.0925	19,698.5	69.8572	19,698.5	75.6897
19,999.5	78.5975	19,999.5	69.6481	19,999.5	76.1078
