"SPL Horizontal"																																																																							
"On-Axis"		"10°"		"-10°"		"20°"		"-20°"		"30°"		"-30°"		"40°"		"-40°"		"50°"		"-50°"		"60°"		"-60°"		"70°"		"-70°"		"80°"		"-80°"		"90°"		"-90°"		"100°"		"-100°"		"110°"		"-110°"		"120°"		"-120°"		"130°"		"-130°"		"140°"		"-140°"		"150°"		"-150°"		"160°"		"-160°"		"170°"		"-170°"		"180°"	
"Frequency [Hz]"	"Sound Pessure Level [dB]  / [2.83V 1m] "	"Frequency [Hz]"	"Sound Pessure Level [dB]  / [2.83V 1m] "	"Frequency [Hz]"	"Sound Pessure Level [dB]  / [2.83V 1m] "	"Frequency [Hz]"	"Sound Pessure Level [dB]  / [2.83V 1m] "	"Frequency [Hz]"	"Sound Pessure Level [dB]  / [2.83V 1m] "	"Frequency [Hz]"	"Sound Pessure Level [dB]  / [2.83V 1m] "	"Frequency [Hz]"	"Sound Pessure Level [dB]  / [2.83V 1m] "	"Frequency [Hz]"	"Sound Pessure Level [dB]  / [2.83V 1m] "	"Frequency [Hz]"	"Sound Pessure Level [dB]  / [2.83V 1m] "	"Frequency [Hz]"	"Sound Pessure Level [dB]  / [2.83V 1m] "	"Frequency [Hz]"	"Sound Pessure Level [dB]  / [2.83V 1m] "	"Frequency [Hz]"	"Sound Pessure Level [dB]  / [2.83V 1m] "	"Frequency [Hz]"	"Sound Pessure Level [dB]  / [2.83V 1m] "	"Frequency [Hz]"	"Sound Pessure Level [dB]  / [2.83V 1m] "	"Frequency [Hz]"	"Sound Pessure Level [dB]  / [2.83V 1m] "	"Frequency [Hz]"	"Sound Pessure Level [dB]  / [2.83V 1m] "	"Frequency [Hz]"	"Sound Pessure Level [dB]  / [2.83V 1m] "	"Frequency [Hz]"	"Sound Pessure Level [dB]  / [2.83V 1m] "	"Frequency [Hz]"	"Sound Pessure Level [dB]  / [2.83V 1m] "	"Frequency [Hz]"	"Sound Pessure Level [dB]  / [2.83V 1m] "	"Frequency [Hz]"	"Sound Pessure Level [dB]  / [2.83V 1m] "	"Frequency [Hz]"	"Sound Pessure Level [dB]  / [2.83V 1m] "	"Frequency [Hz]"	"Sound Pessure Level [dB]  / [2.83V 1m] "	"Frequency [Hz]"	"Sound Pessure Level [dB]  / [2.83V 1m] "	"Frequency [Hz]"	"Sound Pessure Level [dB]  / [2.83V 1m] "	"Frequency [Hz]"	"Sound Pessure Level [dB]  / [2.83V 1m] "	"Frequency [Hz]"	"Sound Pessure Level [dB]  / [2.83V 1m] "	"Frequency [Hz]"	"Sound Pessure Level [dB]  / [2.83V 1m] "	"Frequency [Hz]"	"Sound Pessure Level [dB]  / [2.83V 1m] "	"Frequency [Hz]"	"Sound Pessure Level [dB]  / [2.83V 1m] "	"Frequency [Hz]"	"Sound Pessure Level [dB]  / [2.83V 1m] "	"Frequency [Hz]"	"Sound Pessure Level [dB]  / [2.83V 1m] "	"Frequency [Hz]"	"Sound Pessure Level [dB]  / [2.83V 1m] "	"Frequency [Hz]"	"Sound Pessure Level [dB]  / [2.83V 1m] "	"Frequency [Hz]"	"Sound Pessure Level [dB]  / [2.83V 1m] "	"Frequency [Hz]"	"Sound Pessure Level [dB]  / [2.83V 1m] "
20.5078	53.2168	20.5078	53.3163	20.5078	53.1532	20.5078	53.4481	20.5078	53.1281	20.5078	53.6075	20.5078	53.1425	20.5078	53.7892	20.5078	53.196	20.5078	53.9874	20.5078	53.2867	20.5078	54.196	20.5078	53.4112	20.5078	54.4091	20.5078	53.5648	20.5078	54.6204	20.5078	53.7421	20.5078	54.8242	20.5078	53.9368	20.5078	55.0146	20.5078	54.1423	20.5078	55.1858	20.5078	54.3525	20.5078	55.3326	20.5078	54.5612	20.5078	55.4499	20.5078	54.7628	20.5078	55.5338	20.5078	54.9525	20.5078	55.5815	20.5078	55.1254	20.5078	55.5915	20.5078	55.2772	20.5078	55.5639	20.5078	55.4036	20.5078	55.5003
23.4375	48.2101	23.4375	48.4572	23.4375	47.9629	23.4375	48.6966	23.4375	47.7236	23.4375	48.9208	23.4375	47.5	23.4375	49.1234	23.4375	47.2994	23.4375	49.2988	23.4375	47.129	23.4375	49.4426	23.4375	46.9949	23.4375	49.5519	23.4375	46.9027	23.4375	49.6249	23.4375	46.8565	23.4375	49.6611	23.4375	46.8589	23.4375	49.6608	23.4375	46.9106	23.4375	49.6248	23.4375	47.0097	23.4375	49.5542	23.4375	47.1526	23.4375	49.4506	23.4375	47.333	23.4375	49.3153	23.4375	47.5436	23.4375	49.1506	23.4375	47.7756	23.4375	48.9592	23.4375	48.0203	23.4375	48.7449	23.4375	48.2687	23.4375	48.5127
26.3672	48.0311	26.3672	48.2378	26.3672	47.8072	26.3672	48.4227	26.3672	47.5711	26.3672	48.5811	26.3672	47.3278	26.3672	48.7089	26.3672	47.0831	26.3672	48.8023	26.3672	46.8432	26.3672	48.8583	26.3672	46.6152	26.3672	48.8746	26.3672	46.4072	26.3672	48.8504	26.3672	46.228	26.3672	48.7859	26.3672	46.0867	26.3672	48.6832	26.3672	45.9919	26.3672	48.5453	26.3672	45.9502	26.3672	48.3766	26.3672	45.965	26.3672	48.1819	26.3672	46.0361	26.3672	47.9663	26.3672	46.1591	26.3672	47.735	26.3672	46.3264	26.3672	47.4927	26.3672	46.5284	26.3672	47.2446	26.3672	46.755	26.3672	46.9964
29.2969	51.7469	29.2969	51.896	29.2969	51.5855	29.2969	52.0282	29.2969	51.4156	29.2969	52.1389	29.2969	51.2407	29.2969	52.2233	29.2969	51.0634	29.2969	52.2769	29.2969	50.8862	29.2969	52.2958	29.2969	50.711	29.2969	52.2773	29.2969	50.5403	29.2969	52.2198	29.2969	50.377	29.2969	52.123	29.2969	50.2247	29.2969	51.9885	29.2969	50.0884	29.2969	51.8195	29.2969	49.974	29.2969	51.6207	29.2969	49.8882	29.2969	51.3985	29.2969	49.8376	29.2969	51.1608	29.2969	49.8284	29.2969	50.9166	29.2969	49.8647	29.2969	50.6758	29.2969	49.948	29.2969	50.4489	29.2969	50.0767	29.2969	50.2462
32.2266	56.4785	32.2266	56.6122	32.2266	56.3404	32.2266	56.7368	32.2266	56.2024	32.2266	56.8475	32.2266	56.0686	32.2266	56.94	32.2266	55.9426	32.2266	57.0103	32.2266	55.8273	32.2266	57.0554	32.2266	55.725	32.2266	57.0732	32.2266	55.6377	32.2266	57.0628	32.2266	55.5668	32.2266	57.0243	32.2266	55.5135	32.2266	56.9592	32.2266	55.4788	32.2266	56.8701	32.2266	55.4638	32.2266	56.7604	32.2266	55.4694	32.2266	56.6344	32.2266	55.4961	32.2266	56.4969	32.2266	55.5441	32.2266	56.353	32.2266	55.6132	32.2266	56.2075	32.2266	55.7022	32.2266	56.0655	32.2266	55.8091	32.2266	55.9314
35.1563	60.516	35.1563	60.6524	35.1563	60.3768	35.1563	60.7813	35.1563	60.2394	35.1563	60.8979	35.1563	60.1083	35.1563	60.9983	35.1563	59.9876	35.1563	61.0788	35.1563	59.8808	35.1563	61.1366	35.1563	59.7908	35.1563	61.1697	35.1563	59.7195	35.1563	61.1772	35.1563	59.6686	35.1563	61.159	35.1563	59.6387	35.1563	61.116	35.1563	59.6301	35.1563	61.0502	35.1563	59.6428	35.1563	60.9642	35.1563	59.6761	35.1563	60.8613	35.1563	59.7291	35.1563	60.7453	35.1563	59.8004	35.1563	60.6201	35.1563	59.8883	35.1563	60.4896	35.1563	59.9907	35.1563	60.3579	35.1563	60.1051	35.1563	60.2286
38.0859	64.4365	38.0859	64.5371	38.0859	64.3314	38.0859	64.6294	38.0859	64.2254	38.0859	64.71	38.0859	64.1219	38.0859	64.7756	38.0859	64.024	38.0859	64.8235	38.0859	63.9344	38.0859	64.8515	38.0859	63.8552	38.0859	64.8582	38.0859	63.788	38.0859	64.8433	38.0859	63.7341	38.0859	64.8072	38.0859	63.6941	38.0859	64.7513	38.0859	63.6684	38.0859	64.6777	38.0859	63.6572	38.0859	64.5895	38.0859	63.6605	38.0859	64.4904	38.0859	63.678	38.0859	64.3844	38.0859	63.7098	38.0859	64.2757	38.0859	63.7555	38.0859	64.1683	38.0859	63.8148	38.0859	64.0658	38.0859	63.8871	38.0859	63.9713
41.0156	67.5901	41.0156	67.6826	41.0156	67.4897	41.0156	67.7639	41.0156	67.3845	41.0156	67.8309	41.0156	67.278	41.0156	67.881	41.0156	67.1733	41.0156	67.9119	41.0156	67.073	41.0156	67.9222	41.0156	66.9799	41.0156	67.911	41.0156	66.8958	41.0156	67.8782	41.0156	66.8227	41.0156	67.8248	41.0156	66.7618	41.0156	67.7524	41.0156	66.7143	41.0156	67.6635	41.0156	66.6811	41.0156	67.5613	41.0156	66.6631	41.0156	67.4497	41.0156	66.6608	41.0156	67.3329	41.0156	66.6751	41.0156	67.2154	41.0156	66.7063	41.0156	67.1016	41.0156	66.7547	41.0156	66.9956	41.0156	66.8198	41.0156	66.9007
43.9453	70.6332	43.9453	70.7145	43.9453	70.5467	43.9453	70.7876	43.9453	70.4578	43.9453	70.8498	43.9453	70.3694	43.9453	70.8988	43.9453	70.2841	43.9453	70.9324	43.9453	70.2043	43.9453	70.9492	43.9453	70.132	43.9453	70.9485	43.9453	70.069	43.9453	70.93	43.9453	70.0165	43.9453	70.8946	43.9453	69.9757	43.9453	70.8435	43.9453	69.9473	43.9453	70.7787	43.9453	69.9318	43.9453	70.7027	43.9453	69.9295	43.9453	70.6186	43.9453	69.9405	43.9453	70.5294	43.9453	69.9647	43.9453	70.4383	43.9453	70.0017	43.9453	70.3483	43.9453	70.0511	43.9453	70.2624	43.9453	70.1119	43.9453	70.1828
46.875	72.4475	46.875	72.5228	46.875	72.3657	46.875	72.5889	46.875	72.2803	46.875	72.6434	46.875	72.1939	46.875	72.6841	46.875	72.1092	46.875	72.7094	46.875	72.0286	46.875	72.718	46.875	71.9543	46.875	72.7096	46.875	71.8882	46.875	72.6844	46.875	71.8319	46.875	72.6433	46.875	71.7866	46.875	72.5879	46.875	71.7533	46.875	72.5203	46.875	71.7326	46.875	72.4432	46.875	71.7249	46.875	72.3596	46.875	71.7304	46.875	72.2723	46.875	71.749	46.875	72.1845	46.875	71.7804	46.875	72.0989	46.875	71.824	46.875	72.0181	46.875	71.879	46.875	71.9441
49.8047	73.702	49.8047	73.7707	49.8047	73.6261	49.8047	73.8298	49.8047	73.5459	49.8047	73.8771	49.8047	73.464	49.8047	73.9106	49.8047	73.383	49.8047	73.929	49.8047	73.3055	49.8047	73.9314	49.8047	73.2337	49.8047	73.9176	49.8047	73.1695	49.8047	73.8883	49.8047	73.1144	49.8047	73.8445	49.8047	73.0699	49.8047	73.788	49.8047	73.0366	49.8047	73.7213	49.8047	73.0153	49.8047	73.6469	49.8047	73.006	49.8047	73.5677	49.8047	73.0089	49.8047	73.4865	49.8047	73.0236	49.8047	73.406	49.8047	73.0498	49.8047	73.3287	49.8047	73.087	49.8047	73.2565	49.8047	73.1345	49.8047	73.1914
55.6641	75.0824	55.6641	75.1354	55.6641	75.0209	55.6641	75.1781	55.6641	74.9533	55.6641	75.2086	55.6641	74.8819	55.6641	75.2258	55.6641	74.8091	55.6641	75.2288	55.6641	74.7372	55.6641	75.2174	55.6641	74.6685	55.6641	75.1921	55.6641	74.6049	55.6641	75.1538	55.6641	74.5482	55.6641	75.1042	55.6641	74.4998	55.6641	75.0452	55.6641	74.4609	55.6641	74.9793	55.6641	74.4321	55.6641	74.9091	55.6641	74.4141	55.6641	74.8371	55.6641	74.4069	55.6641	74.7658	55.6641	74.4104	55.6641	74.6972	55.6641	74.4244	55.6641	74.6333	55.6641	74.4485	55.6641	74.5754	55.6641	74.4822	55.6641	74.5247
58.5938	75.3896	58.5938	75.4368	58.5938	75.3336	58.5938	75.4733	58.5938	75.2711	58.5938	75.4976	58.5938	75.2043	58.5938	75.5085	58.5938	75.1357	58.5938	75.5056	58.5938	75.0676	58.5938	75.4888	58.5938	75.0022	58.5938	75.459	58.5938	74.9415	58.5938	75.4174	58.5938	74.8872	58.5938	75.3658	58.5938	74.8407	58.5938	75.3066	58.5938	74.8029	58.5938	75.2423	58.5938	74.7744	58.5938	75.1755	58.5938	74.7556	58.5938	75.1086	58.5938	74.7465	58.5938	75.0439	58.5938	74.7468	58.5938	74.9831	58.5938	74.7564	58.5938	74.9275	58.5938	74.7747	58.5938	74.8783	58.5938	74.8014	58.5938	74.8361
61.5234	75.8441	61.5234	75.8865	61.5234	75.7925	61.5234	75.9177	61.5234	75.7337	61.5234	75.9363	61.5234	75.67	61.5234	75.9414	61.5234	75.6038	61.5234	75.9325	61.5234	75.5373	61.5234	75.9098	61.5234	75.4728	61.5234	75.8742	61.5234	75.4122	61.5234	75.8271	61.5234	75.3572	61.5234	75.7707	61.5234	75.3091	61.5234	75.7073	61.5234	75.2688	61.5234	75.6398	61.5234	75.237	61.5234	75.571	61.5234	75.2138	61.5234	75.5037	61.5234	75.1992	61.5234	75.44	61.5234	75.1933	61.5234	75.382	61.5234	75.1957	61.5234	75.3309	61.5234	75.2064	61.5234	75.2876	61.5234	75.2252	61.5234	75.2523
67.3828	76.5785	67.3828	76.6187	67.3828	76.5275	67.3828	76.6462	67.3828	76.4676	67.3828	76.6597	67.3828	76.4015	67.3828	76.6587	67.3828	76.3317	67.3828	76.6431	67.3828	76.2609	67.3828	76.6136	67.3828	76.1916	67.3828	76.5714	67.3828	76.1263	67.3828	76.5187	67.3828	76.0669	67.3828	76.4578	67.3828	76.0151	67.3828	76.3915	67.3828	75.9721	67.3828	76.3227	67.3828	75.9383	67.3828	76.2541	67.3828	75.9142	67.3828	76.1883	67.3828	75.8993	67.3828	76.1272	67.3828	75.8935	67.3828	76.0722	67.3828	75.896	67.3828	76.0242	67.3828	75.9066	67.3828	75.9836	67.3828	75.9248	67.3828	75.9504
73.2422	77.3563	73.2422	77.3945	73.2422	77.3048	73.2422	77.4181	73.2422	77.2419	73.2422	77.4262	73.2422	77.1702	73.2422	77.4187	73.2422	77.0923	73.2422	77.3961	73.2422	77.0112	73.2422	77.3596	73.2422	76.9301	73.2422	77.3109	73.2422	76.852	73.2422	77.2523	73.2422	76.7797	73.2422	77.1864	73.2422	76.7156	73.2422	77.1158	73.2422	76.6617	73.2422	77.0434	73.2422	76.6191	73.2422	76.9715	73.2422	76.5887	73.2422	76.9022	73.2422	76.5703	73.2422	76.8371	73.2422	76.5637	73.2422	76.7774	73.2422	76.5679	73.2422	76.7239	73.2422	76.5823	73.2422	76.6771	73.2422	76.6057	73.2422	76.6376
76.1719	77.8835	76.1719	77.9144	76.1719	77.8384	76.1719	77.9301	76.1719	77.781	76.1719	77.9296	76.1719	77.7135	76.1719	77.9129	76.1719	77.6382	76.1719	77.8805	76.1719	77.5578	76.1719	77.8336	76.1719	77.475	76.1719	77.774	76.1719	77.3928	76.1719	77.7042	76.1719	77.3136	76.1719	77.627	76.1719	77.24	76.1719	77.5456	76.1719	77.174	76.1719	77.463	76.1719	77.1175	76.1719	77.3821	76.1719	77.0716	76.1719	77.3055	76.1719	77.0372	76.1719	77.2353	76.1719	77.0147	76.1719	77.1728	76.1719	77.0041	76.1719	77.1192	76.1719	77.0053	76.1719	77.0752	76.1719	77.0178	76.1719	77.0412
82.0313	78.8003	82.0313	78.8336	82.0313	78.7545	82.0313	78.8529	82.0313	78.6979	82.0313	78.8576	82.0313	78.633	82.0313	78.8475	82.0313	78.5625	82.0313	78.8235	82.0313	78.4893	82.0313	78.7867	82.0313	78.4165	82.0313	78.7392	82.0313	78.3468	82.0313	78.6833	82.0313	78.2829	82.0313	78.6218	82.0313	78.2267	82.0313	78.5573	82.0313	78.18	82.0313	78.4925	82.0313	78.1436	82.0313	78.4297	82.0313	78.1179	82.0313	78.3705	82.0313	78.1027	82.0313	78.3162	82.0313	78.0972	82.0313	78.2674	82.0313	78.1007	82.0313	78.2244	82.0313	78.1122	82.0313	78.1873	82.0313	78.1309	82.0313	78.1561
87.8906	79.7154	87.8906	79.7467	87.8906	79.6705	87.8906	79.7633	87.8906	79.6141	87.8906	79.7645	87.8906	79.5486	87.8906	79.7506	87.8906	79.4768	87.8906	79.7224	87.8906	79.4019	87.8906	79.6816	87.8906	79.3272	87.8906	79.6304	87.8906	79.2558	87.8906	79.5716	87.8906	79.1903	87.8906	79.508	87.8906	79.1332	87.8906	79.4425	87.8906	79.086	87.8906	79.3779	87.8906	79.0496	87.8906	79.3163	87.8906	79.0243	87.8906	79.2593	87.8906	79.0096	87.8906	79.2079	87.8906	79.0047	87.8906	79.1624	87.8906	79.0083	87.8906	79.1227	87.8906	79.0194	87.8906	79.0887	87.8906	79.0369	87.8906	79.0601
93.75	80.678	93.75	80.7065	93.75	80.6351	93.75	80.7195	93.75	80.5796	93.75	80.7166	93.75	80.514	93.75	80.6984	93.75	80.4413	93.75	80.6661	93.75	80.365	93.75	80.6219	93.75	80.2885	93.75	80.5684	93.75	80.2154	93.75	80.5086	93.75	80.1488	93.75	80.4455	93.75	80.0913	93.75	80.3824	93.75	80.0448	93.75	80.3216	93.75	80.0103	93.75	80.2652	93.75	79.9877	93.75	80.2142	93.75	79.9765	93.75	80.1691	93.75	79.9753	93.75	80.1295	93.75	79.9824	93.75	80.0949	93.75	79.9961	93.75	80.0645	93.75	80.0149	93.75	80.0379
102.539	82.0756	102.539	82.1004	102.539	82.0351	102.539	82.1085	102.539	81.9809	102.539	82.0997	102.539	81.9156	102.539	82.0749	102.539	81.8423	102.539	82.0356	102.539	81.7648	102.539	81.9844	102.539	81.6866	102.539	81.9243	102.539	81.6117	102.539	81.8588	102.539	81.5433	102.539	81.7916	102.539	81.4842	102.539	81.726	102.539	81.4362	102.539	81.6646	102.539	81.4004	102.539	81.6095	102.539	81.3768	102.539	81.5616	102.539	81.3643	102.539	81.5209	102.539	81.3616	102.539	81.4867	102.539	81.3667	102.539	81.4578	102.539	81.3777	102.539	81.4331	102.539	81.393	102.539	81.4116
108.398	82.8735	108.398	82.9005	108.398	82.8298	108.398	82.91	108.398	82.7717	108.398	82.9017	108.398	82.7021	108.398	82.8768	108.398	82.6249	108.398	82.8374	108.398	82.5443	108.398	82.7866	108.398	82.4647	108.398	82.7281	108.398	82.3905	108.398	82.6658	108.398	82.3255	108.398	82.6039	108.398	82.2727	108.398	82.5456	108.398	82.2338	108.398	82.4935	108.398	82.2094	108.398	82.4491	108.398	82.1989	108.398	82.4123	108.398	82.2003	108.398	82.3824	108.398	82.2111	108.398	82.3575	108.398	82.2284	108.398	82.3355	108.398	82.2493	108.398	82.3146	108.398	82.2715	108.398	82.2934
117.188	84.2557	117.188	84.2878	117.188	84.2034	117.188	84.2989	117.188	84.1331	117.188	84.289	117.188	84.0478	117.188	84.2596	117.188	83.9516	117.188	84.2129	117.188	83.8494	117.188	84.1521	117.188	83.7466	117.188	84.0813	117.188	83.6487	117.188	84.0048	117.188	83.5607	117.188	83.927	117.188	83.4871	117.188	83.8519	117.188	83.4309	117.188	83.7828	117.188	83.3934	117.188	83.7217	117.188	83.3744	117.188	83.6692	117.188	83.372	117.188	83.6248	117.188	83.383	117.188	83.5869	117.188	83.4037	117.188	83.5533	117.188	83.4305	117.188	83.5218	117.188	83.4603	117.188	83.491
125.977	85.3295	125.977	85.3519	125.977	85.2857	125.977	85.3521	125.977	85.2225	125.977	85.3309	125.977	85.1429	125.977	85.2901	125.977	85.0512	125.977	85.2327	125.977	84.9523	125.977	85.163	125.977	84.8517	125.977	85.0857	125.977	84.7548	125.977	85.0061	125.977	84.667	125.977	84.9289	125.977	84.5926	125.977	84.8584	125.977	84.5349	125.977	84.7971	125.977	84.4954	125.977	84.7463	125.977	84.474	125.977	84.7055	125.977	84.4689	125.977	84.6729	125.977	84.4772	125.977	84.6457	125.977	84.4952	125.977	84.6212	125.977	84.5191	125.977	84.597	125.977	84.5454	125.977	84.5718
134.766	86.3034	134.766	86.3292	134.766	86.2537	134.766	86.3306	134.766	86.1821	134.766	86.3082	134.766	86.0919	134.766	86.2643	134.766	85.9875	134.766	86.202	134.766	85.8745	134.766	86.1257	134.766	85.7591	134.766	86.0408	134.766	85.6481	134.766	85.9527	134.766	85.5477	134.766	85.867	134.766	85.4636	134.766	85.7882	134.766	85.3997	134.766	85.7197	134.766	85.3579	134.766	85.6631	134.766	85.3381	134.766	85.618	134.766	85.3377	134.766	85.5825	134.766	85.3527	134.766	85.5534	134.766	85.3782	134.766	85.5273	134.766	85.4093	134.766	85.5011	134.766	85.4418	134.766	85.4728
143.555	87.0257	143.555	87.0493	143.555	86.9755	143.555	87.0457	143.555	86.9007	143.555	87.0162	143.555	86.8047	143.555	86.9635	143.555	86.6926	143.555	86.8919	143.555	86.5703	143.555	86.8069	143.555	86.4449	143.555	86.7148	143.555	86.3238	143.555	86.6223	143.555	86.2142	143.555	86.5353	143.555	86.1227	143.555	86.4586	143.555	86.0539	143.555	86.3952	143.555	86.0106	143.555	86.3458	143.555	85.9926	143.555	86.3086	143.555	85.9973	143.555	86.2804	143.555	86.0201	143.555	86.2569	143.555	86.055	143.555	86.2336	143.555	86.0958	143.555	86.207	143.555	86.1371	143.555	86.1748
155.273	87.6688	155.273	87.6824	155.273	87.6282	155.273	87.6686	155.273	87.5626	155.273	87.6286	155.273	87.4756	155.273	87.5654	155.273	87.3719	155.273	87.4836	155.273	87.2578	155.273	87.3891	155.273	87.14	155.273	87.2891	155.273	87.0259	155.273	87.1909	155.273	86.9224	155.273	87.1013	155.273	86.8358	155.273	87.0258	155.273	86.7703	155.273	86.9676	155.273	86.7284	155.273	86.927	155.273	86.7097	155.273	86.902	155.273	86.7115	155.273	86.8881	155.273	86.729	155.273	86.8801	155.273	86.7566	155.273	86.8725	155.273	86.788	155.273	86.8611	155.273	86.8182	155.273	86.8431
164.063	87.839	164.063	87.8501	164.063	87.7979	164.063	87.8311	164.063	87.729	164.063	87.7838	164.063	87.6362	164.063	87.7123	164.063	87.5254	164.063	87.6222	164.063	87.4037	164.063	87.5211	164.063	87.2795	164.063	87.4173	164.063	87.1618	164.063	87.3197	164.063	87.0588	164.063	87.2361	164.063	86.9779	164.063	87.172	164.063	86.9237	164.063	87.1302	164.063	86.898	164.063	87.1098	164.063	86.8991	164.063	87.1068	164.063	86.9224	164.063	87.1148	164.063	86.961	164.063	87.1263	164.063	87.0071	164.063	87.1343	164.063	87.0528	164.063	87.133	164.063	87.0916	164.063	87.119
175.781	87.9686	175.781	87.9743	175.781	87.9268	175.781	87.9438	175.781	87.8512	175.781	87.879	175.781	87.7461	175.781	87.7843	175.781	87.6179	175.781	87.6664	175.781	87.4747	175.781	87.5342	175.781	87.3259	175.781	87.3984	175.781	87.182	175.781	87.2703	175.781	87.0533	175.781	87.1604	175.781	86.9492	175.781	87.077	175.781	86.8762	175.781	87.024	175.781	86.8372	175.781	87.0007	175.781	86.8309	175.781	87.0017	175.781	86.8521	175.781	87.0184	175.781	86.8924	175.781	87.0408	175.781	86.9419	175.781	87.0592	175.781	86.991	175.781	87.0663	175.781	87.0314	175.781	87.0573
190.43	88.0306	190.43	88.0392	190.43	87.9844	190.43	88.0102	190.43	87.9028	190.43	87.9452	190.43	87.79	190.43	87.8483	190.43	87.6517	190.43	87.7257	190.43	87.4955	190.43	87.5859	190.43	87.3303	190.43	87.439	190.43	87.166	190.43	87.2958	190.43	87.0129	190.43	87.167	190.43	86.8808	190.43	87.0612	190.43	86.7777	190.43	86.9835	190.43	86.7085	190.43	86.9342	190.43	86.6744	190.43	86.9094	190.43	86.6725	190.43	86.9013	190.43	86.6962	190.43	86.9008	190.43	86.7366	190.43	86.8987	190.43	86.7838	190.43	86.8879	190.43	86.8287	190.43	86.8646
202.148	87.7517	202.148	87.7521	202.148	87.7121	202.148	87.7138	202.148	87.6357	202.148	87.6397	202.148	87.5274	202.148	87.5359	202.148	87.3943	202.148	87.4107	202.148	87.2459	202.148	87.2752	202.148	87.0929	202.148	87.1416	202.148	86.9471	202.148	87.0222	202.148	86.82	202.148	86.9278	202.148	86.7213	202.148	86.8653	202.148	86.6576	202.148	86.8366	202.148	86.6313	202.148	86.8382	202.148	86.6401	202.148	86.8622	202.148	86.6778	202.148	86.8975	202.148	86.7351	202.148	86.9329	202.148	86.801	202.148	86.9583	202.148	86.865	202.148	86.9662	202.148	86.9178	202.148	86.9527
216.797	87.3116	216.797	87.305	216.797	87.2711	216.797	87.2511	216.797	87.1863	216.797	87.1531	216.797	87.0628	216.797	87.0171	216.797	86.9089	216.797	86.8526	216.797	86.7358	216.797	86.6727	216.797	86.5567	216.797	86.4934	216.797	86.3864	216.797	86.3321	216.797	86.2398	216.797	86.2054	216.797	86.1294	216.797	86.1258	216.797	86.064	216.797	86.0984	216.797	86.0461	216.797	86.1193	216.797	86.0718	216.797	86.177	216.797	86.1313	216.797	86.2547	216.797	86.2109	216.797	86.3345	216.797	86.2956	216.797	86.4005	216.797	86.3709	216.797	86.4411	216.797	86.425	216.797	86.4497
234.375	87.1419	234.375	87.1493	234.375	87.0782	234.375	87.0996	234.375	86.9617	234.375	86.9953	234.375	86.7987	234.375	86.8421	234.375	86.5985	234.375	86.6497	234.375	86.3733	234.375	86.4314	234.375	86.1384	234.375	86.2042	234.375	85.9114	234.375	85.9877	234.375	85.7111	234.375	85.8011	234.375	85.5545	234.375	85.6612	234.375	85.4542	234.375	85.5779	234.375	85.4149	234.375	85.5524	234.375	85.4324	234.375	85.5768	234.375	85.4943	234.375	85.6354	234.375	85.5824	234.375	85.7088	234.375	85.6772	234.375	85.7773	234.375	85.7602	234.375	85.8245	234.375	85.8171	234.375	85.8393
249.023	86.7267	249.023	86.716	249.023	86.6743	249.023	86.6426	249.023	86.5612	249.023	86.5104	249.023	86.3929	249.023	86.3275	249.023	86.1778	249.023	86.1064	249.023	85.9275	249.023	85.8647	249.023	85.6575	249.023	85.6242	249.023	85.3868	249.023	85.4089	249.023	85.1378	249.023	85.2412	249.023	84.9335	249.023	85.1364	249.023	84.7942	249.023	85.0991	249.023	84.7322	249.023	85.1217	249.023	84.7483	249.023	85.1867	249.023	84.8305	249.023	85.272	249.023	84.957	249.023	85.3546	249.023	85.1015	249.023	85.415	249.023	85.2387	249.023	85.4385	249.023	85.3482	249.023	85.4168
266.602	86.5817	266.602	86.6029	266.602	86.4939	266.602	86.5567	266.602	86.3428	266.602	86.4446	266.602	86.135	266.602	86.2713	266.602	85.8808	266.602	86.0446	266.602	85.5947	266.602	85.7772	266.602	85.2959	266.602	85.4875	266.602	85.0074	266.602	85.1995	266.602	84.7537	266.602	84.9409	266.602	84.5568	266.602	84.7382	266.602	84.4314	266.602	84.6101	266.602	84.3818	266.602	84.5613	266.602	84.4005	266.602	84.5808	266.602	84.4706	266.602	84.6461	266.602	84.5705	266.602	84.7299	266.602	84.678	266.602	84.8066	266.602	84.773	266.602	84.8568	266.602	84.8401	266.602	84.8692
287.109	86.1369	287.109	86.1209	287.109	86.0811	287.109	86.0361	287.109	85.9537	287.109	85.8888	287.109	85.7579	287.109	85.6885	287.109	85.5009	287.109	85.4487	287.109	85.1946	287.109	85.187	287.109	84.8565	287.109	84.9247	287.109	84.511	287.109	84.6859	287.109	84.1882	287.109	84.4937	287.109	83.9213	287.109	84.3655	287.109	83.7396	287.109	84.3083	287.109	83.6605	287.109	84.3157	287.109	83.6835	287.109	84.3697	287.109	83.7902	287.109	84.4458	287.109	83.9502	287.109	84.5188	287.109	84.1303	287.109	84.567	287.109	84.3009	287.109	84.5747	287.109	84.4397	287.109	84.5328
307.617	86.0629	307.617	86.0055	307.617	86.0415	307.617	85.869	307.617	85.9438	307.617	85.6562	307.617	85.7743	307.617	85.3745	307.617	85.5393	307.617	85.037	307.617	85.2481	307.617	84.665	307.617	84.9139	307.617	84.2882	307.617	84.5557	307.617	83.944	307.617	84.1993	307.617	83.6722	307.617	83.8774	307.617	83.5052	307.617	83.6248	307.617	83.4573	307.617	83.4711	307.617	83.5178	307.617	83.4298	307.617	83.655	307.617	83.4922	307.617	83.8265	307.617	83.6295	307.617	83.9913	307.617	83.8022	307.617	84.117	307.617	83.9709	307.617	84.1823	307.617	84.1033	307.617	84.1775
331.055	86.1167	331.055	86.0886	331.055	86.0613	331.055	85.9733	331.055	85.9275	331.055	85.7691	331.055	85.7221	331.055	85.4774	331.055	85.4541	331.055	85.1051	331.055	85.136	331.055	84.6676	331.055	84.7843	331.055	84.1928	331.055	84.4211	331.055	83.7232	331.055	84.0735	331.055	83.3141	331.055	83.7724	331.055	83.022	331.055	83.547	331.055	82.8857	331.055	83.4182	331.055	82.9081	331.055	83.3909	331.055	83.0557	331.055	83.451	331.055	83.2733	331.055	83.5689	331.055	83.5049	331.055	83.7071	331.055	83.7058	331.055	83.829	331.055	83.847	331.055	83.9046	331.055	83.9138
354.492	85.7738	354.492	85.7874	354.492	85.6694	354.492	85.7097	354.492	85.4768	354.492	85.5416	354.492	85.2012	354.492	85.2857	354.492	84.8512	354.492	84.9479	354.492	84.4405	354.492	84.539	354.492	83.9901	354.492	84.0794	354.492	83.5301	354.492	83.6024	354.492	83.1003	354.492	83.1566	354.492	82.7461	354.492	82.8003	354.492	82.5085	354.492	82.5849	354.492	82.4103	354.492	82.5325	354.492	82.4469	354.492	82.6238	354.492	82.5882	354.492	82.8071	354.492	82.7895	354.492	83.0194	354.492	83.0038	354.492	83.206	354.492	83.1907	354.492	83.3288	354.492	83.3189	354.492	83.3679
377.93	85.3097	377.93	85.2665	377.93	85.2598	377.93	85.1342	377.93	85.1161	377.93	84.9208	377.93	84.8822	377.93	84.6382	377.93	84.5653	377.93	84.3023	377.93	84.1785	377.93	83.9331	377.93	83.7413	377.93	83.5553	377.93	83.2824	377.93	83.1989	377.93	82.8409	377.93	82.8988	377.93	82.4648	377.93	82.691	377.93	82.2042	377.93	82.602	377.93	82.0959	377.93	82.6367	377.93	82.1477	377.93	82.7727	377.93	82.3317	377.93	82.9657	377.93	82.5949	377.93	83.1647	377.93	82.8778	377.93	83.3245	377.93	83.1295	377.93	83.4127	377.93	83.3142	377.93	83.4111
407.227	86.0839	407.227	86.042	407.227	86.0167	407.227	85.8886	407.227	85.8433	407.227	85.623	407.227	85.5665	407.227	85.247	407.227	85.1896	407.227	84.7685	407.227	84.7185	407.227	84.2042	407.227	84.1652	407.227	83.5856	407.227	83.5549	407.227	82.9637	407.227	82.933	407.227	82.4117	407.227	82.371	407.227	82.0143	407.227	81.9578	407.227	81.8398	407.227	81.7691	407.227	81.9038	407.227	81.8255	407.227	82.1571	407.227	82.0783	407.227	82.5101	407.227	82.4367	407.227	82.8709	407.227	82.8083	407.227	83.1683	407.227	83.1221	407.227	83.357	407.227	83.3324	407.227	83.4137
436.523	85.4098	436.523	85.3871	436.523	85.3246	436.523	85.2538	436.523	85.1342	436.523	85.0067	436.523	84.8417	436.523	84.6427	436.523	84.4521	436.523	84.1602	436.523	83.9729	436.523	83.5632	436.523	83.4164	436.523	82.8694	436.523	82.8022	436.523	82.1218	436.523	82.1625	436.523	81.4032	436.523	81.5486	436.523	80.8346	436.523	81.0343	436.523	80.5365	436.523	80.7046	436.523	80.5542	436.523	80.6198	436.523	80.8221	436.523	80.7743	436.523	81.212	436.523	81.0925	436.523	81.6034	436.523	81.4678	436.523	81.9155	436.523	81.8063	436.523	82.1037	436.523	82.0444	436.523	82.1478
465.82	85.8097	465.82	85.7773	465.82	85.7273	465.82	85.6299	465.82	85.5294	465.82	85.3652	465.82	85.2145	465.82	84.9802	465.82	84.7818	465.82	84.473	465.82	84.2334	465.82	83.8477	465.82	83.5781	465.82	83.1222	465.82	82.8381	465.82	82.3406	465.82	82.0588	465.82	81.5862	465.82	81.3195	465.82	80.9817	465.82	80.7318	465.82	80.6527	465.82	80.4069	465.82	80.6534	465.82	80.3943	465.82	80.9239	465.82	80.6466	465.82	81.3317	465.82	81.0519	465.82	81.7453	465.82	81.4931	465.82	82.0725	465.82	81.8811	465.82	82.2614	465.82	82.1582	465.82	82.2903
500.977	85.9352	500.977	85.894	500.977	85.867	500.977	85.7373	500.977	85.6936	500.977	85.4587	500.977	85.4165	500.977	85.0517	500.977	85.0337	500.977	84.51	500.977	84.5395	500.977	83.8291	500.977	83.927	500.977	83.0096	500.977	83.1933	500.977	82.0689	500.977	82.351	500.977	81.0646	500.977	81.4492	500.977	80.1318	500.977	80.6	500.977	79.4961	500.977	79.9852	500.977	79.3678	500.977	79.7813	500.977	79.7443	500.977	80.0163	500.977	80.4	500.977	80.5352	500.977	81.083	500.977	81.1273	500.977	81.6336	500.977	81.6351	500.977	81.9778	500.977	81.9702	500.977	82.0901
536.133	85.3675	536.133	85.3604	536.133	85.2592	536.133	85.239	536.133	85.0349	536.133	85.0033	536.133	84.6943	536.133	84.6513	536.133	84.239	536.133	84.1783	536.133	83.6725	536.133	83.5779	536.133	83.0038	536.133	82.8482	536.133	82.2525	536.133	82.0055	536.133	81.4569	536.133	81.1066	536.133	80.6864	536.133	80.2748	536.133	80.0484	536.133	79.6977	536.133	79.6693	536.133	79.5391	536.133	79.6331	536.133	79.8032	536.133	79.9154	536.133	80.3246	536.133	80.3927	536.133	80.8986	536.133	80.9159	536.133	81.3776	536.133	81.3666	536.133	81.6823	536.133	81.6689	536.133	81.7804
574.219	86.3462	574.219	86.2842	574.219	86.2902	574.219	86.1022	574.219	86.1157	574.219	85.7951	574.219	85.8192	574.219	85.3539	574.219	85.3936	574.219	84.7664	574.219	84.8268	574.219	84.0176	574.219	84.1009	574.219	83.0946	574.219	83.1945	574.219	81.9984	574.219	82.0898	574.219	80.7743	574.219	80.797	574.219	79.5705	574.219	79.4118	574.219	78.6872	574.219	78.2174	574.219	78.4499	574.219	77.6807	574.219	78.8742	574.219	78.0339	574.219	79.6402	574.219	78.9441	574.219	80.4209	574.219	79.9365	574.219	81.0341	574.219	80.7431	574.219	81.3999	574.219	81.266	574.219	81.4832
615.234	85.8328	615.234	85.8083	615.234	85.7556	615.234	85.6761	615.234	85.5806	615.234	85.4295	615.234	85.3085	615.234	85.0597	615.234	84.9354	615.234	84.555	615.234	84.4517	615.234	83.8995	615.234	83.843	615.234	83.0758	615.234	83.0929	615.234	82.0713	615.234	82.1919	615.234	80.895	615.234	81.1563	615.234	79.6167	615.234	80.064	615.234	78.4444	615.234	79.1027	615.234	77.7681	615.234	78.5556	615.234	77.9011	615.234	78.606	615.234	78.6692	615.234	79.1324	615.234	79.6083	615.234	79.8338	615.234	80.3882	615.234	80.4638	615.234	80.8737	615.234	80.8865	615.234	81.0351
659.18	86.5461	659.18	86.566	659.18	86.4115	659.18	86.4689	659.18	86.1625	659.18	86.2506	659.18	85.798	659.18	85.9023	659.18	85.3124	659.18	85.4083	659.18	84.6947	659.18	84.7435	659.18	83.9276	659.18	83.8713	659.18	82.9904	659.18	82.7459	659.18	81.8672	659.18	81.3289	659.18	80.5687	659.18	79.6489	659.18	79.1827	659.18	77.9643	659.18	77.9656	659.18	76.9555	659.18	77.3569	659.18	77.2054	659.18	77.625	659.18	78.2792	659.18	78.4982	659.18	79.4361	659.18	79.5005	659.18	80.3304	659.18	80.3307	659.18	80.8714	659.18	80.8612	659.18	81.0467
706.055	86.6237	706.055	86.58	706.055	86.5624	706.055	86.4273	706.055	86.4009	706.055	86.1621	706.055	86.1423	706.055	85.7802	706.055	85.785	706.055	85.2758	706.055	85.3173	706.055	84.6411	706.055	84.7121	706.055	83.867	706.055	83.9235	706.055	82.9417	706.055	82.8887	706.055	81.8491	706.055	81.538	706.055	80.5797	706.055	79.825	706.055	79.1878	706.055	77.8342	706.055	77.9366	706.055	76.0897	706.055	77.3738	706.055	75.6774	706.055	77.8109	706.055	76.7667	706.055	78.8038	706.055	78.2704	706.055	79.7563	706.055	79.4965	706.055	80.3709	706.055	80.2629	706.055	80.55
758.789	87.217	758.789	87.1804	758.789	87.1616	758.789	87.0553	758.789	87.0109	758.789	86.8433	758.789	86.7621	758.789	86.5388	758.789	86.4106	758.789	86.1226	758.789	85.9481	758.789	85.5549	758.789	85.3604	758.789	84.7733	758.789	84.6273	758.789	83.6962	758.789	83.7207	758.789	82.238	758.789	82.6049	758.789	80.3578	758.789	81.2502	758.789	78.2327	758.789	79.6931	758.789	76.6898	758.789	78.1998	758.789	76.8767	758.789	77.4266	758.789	78.3003	758.789	77.8637	758.789	79.78	758.789	79.035	758.789	80.8474	758.789	80.2209	758.789	81.4147	758.789	81.0742	758.789	81.4842
811.523	87.3335	811.523	87.3388	811.523	87.2295	811.523	87.2469	811.523	87.0341	811.523	87.0657	811.523	86.759	811.523	86.8021	811.523	86.413	811.523	86.4525	811.523	85.9927	811.523	85.9975	811.523	85.4724	811.523	85.4004	811.523	84.7976	811.523	84.6034	811.523	83.8893	811.523	83.5232	811.523	82.6565	811.523	82.0592	811.523	81.0191	811.523	80.1561	811.523	78.9781	811.523	78.0607	811.523	76.9009	811.523	76.854	811.523	76.0102	811.523	77.5317	811.523	77.0573	811.523	79.0687	811.523	78.7931	811.523	80.3763	811.523	80.2185	811.523	81.1627	811.523	81.0917	811.523	81.4014
870.117	87.0578	870.117	87.0178	870.117	86.9812	870.117	86.8633	870.117	86.7966	870.117	86.6018	870.117	86.5221	870.117	86.2401	870.117	86.1765	870.117	85.7784	870.117	85.7632	870.117	85.2047	870.117	85.259	870.117	84.4873	870.117	84.6142	870.117	83.5685	870.117	83.7614	870.117	82.3588	870.117	82.6188	870.117	80.7265	870.117	81.0958	870.117	78.4991	870.117	79.1401	870.117	75.6549	870.117	76.9711	870.117	73.5935	870.117	75.6633	870.117	75.0031	870.117	76.3851	870.117	77.6438	870.117	78.1191	870.117	79.572	870.117	79.6435	870.117	80.6366	870.117	80.6084	870.117	80.9534
931.641	87.1099	931.641	87.0715	931.641	87	931.641	86.8941	931.641	86.7583	931.641	86.6128	931.641	86.4193	931.641	86.2805	931.641	86.0221	931.641	85.946	931.641	85.5949	931.641	85.6157	931.641	85.145	931.641	85.2228	931.641	84.6488	931.641	84.634	931.641	84.0423	931.641	83.6832	931.641	83.2174	931.641	82.1935	931.641	82.03	931.641	79.9884	931.641	80.3111	931.641	77.0242	931.641	77.9231	931.641	74.3932	931.641	75.1982	931.641	75.0204	931.641	74.3345	931.641	77.4492	931.641	76.3586	931.641	79.3531	931.641	78.6025	931.641	80.3983	931.641	80.0396	931.641	80.6238
999.023	87.0332	999.023	86.9354	999.023	86.9081	999.023	86.6212	999.023	86.5801	999.023	86.1299	999.023	86.0885	999.023	85.5304	999.023	85.4873	999.023	84.899	999.023	84.8379	999.023	84.2811	999.023	84.1861	999.023	83.6652	999.023	83.5266	999.023	82.9919	999.023	82.7865	999.023	82.1661	999.023	81.8408	999.023	81.0382	999.023	80.5314	999.023	79.3853	999.023	78.6668	999.023	77.0129	999.023	76.0605	999.023	74.4979	999.023	73.1337	999.023	74.5555	999.023	72.8939	999.023	76.9301	999.023	75.674	999.023	78.9515	999.023	78.1725	999.023	80.0597	999.023	79.6909	999.023	80.2986
1,072.27	86.7202	1,072.27	86.6594	1,072.27	86.5455	1,072.27	86.3703	1,072.27	86.1495	1,072.27	85.8884	1,072.27	85.5728	1,072.27	85.2949	1,072.27	84.8865	1,072.27	84.714	1,072.27	84.1822	1,072.27	84.2494	1,072.27	83.5443	1,072.27	83.8889	1,072.27	83.0111	1,072.27	83.485	1,072.27	82.5373	1,072.27	82.8253	1,072.27	81.9759	1,072.27	81.6922	1,072.27	81.0941	1,072.27	79.8744	1,072.27	79.6019	1,072.27	77.1796	1,072.27	77.1503	1,072.27	73.8133	1,072.27	73.4433	1,072.27	72.483	1,072.27	70.6268	1,072.27	74.9237	1,072.27	73.4643	1,072.27	77.4302	1,072.27	76.7006	1,072.27	78.8703	1,072.27	78.5634	1,072.27	79.2446
1,148.44	87.4582	1,148.44	87.3577	1,148.44	87.2602	1,148.44	86.9736	1,148.44	86.7821	1,148.44	86.3545	1,148.44	86.0766	1,148.44	85.5792	1,148.44	85.2327	1,148.44	84.7439	1,148.44	84.3735	1,148.44	83.9294	1,148.44	83.6323	1,148.44	83.1611	1,148.44	83.0827	1,148.44	82.4061	1,148.44	82.6557	1,148.44	81.5999	1,148.44	82.1466	1,148.44	80.6237	1,148.44	81.3043	1,148.44	79.2199	1,148.44	79.8702	1,148.44	76.894	1,148.44	77.5147	1,148.44	72.7012	1,148.44	73.749	1,148.44	66.4656	1,148.44	69.6131	1,148.44	71.1721	1,148.44	72.3755	1,148.44	75.9163	1,148.44	76.2614	1,148.44	78.2306	1,148.44	78.3543	1,148.44	78.9679
1,230.47	87.5641	1,230.47	87.4738	1,230.47	87.3142	1,230.47	87.057	1,230.47	86.7225	1,230.47	86.3371	1,230.47	85.8191	1,230.47	85.3634	1,230.47	84.7019	1,230.47	84.2487	1,230.47	83.5704	1,230.47	83.2205	1,230.47	82.6798	1,230.47	82.5827	1,230.47	82.1437	1,230.47	82.4247	1,230.47	81.8152	1,230.47	82.4144	1,230.47	81.4439	1,230.47	82.0635	1,230.47	80.8128	1,230.47	80.9672	1,230.47	79.6727	1,230.47	78.7193	1,230.47	77.5936	1,230.47	74.526	1,230.47	73.7198	1,230.47	66.6916	1,230.47	66.8056	1,230.47	70.3153	1,230.47	69.8359	1,230.47	75.8318	1,230.47	75.2468	1,230.47	78.2294	1,230.47	77.8757	1,230.47	78.798
1,318.36	87.2808	1,318.36	87.2542	1,318.36	86.9691	1,318.36	86.8985	1,318.36	86.3219	1,318.36	86.227	1,318.36	85.365	1,318.36	85.2695	1,318.36	84.1591	1,318.36	84.128	1,318.36	82.8061	1,318.36	83.0263	1,318.36	81.4421	1,318.36	82.2133	1,318.36	80.2395	1,318.36	81.7214	1,318.36	79.3967	1,318.36	81.3424	1,318.36	79.0056	1,318.36	80.8555	1,318.36	78.8667	1,318.36	80.0611	1,318.36	78.5334	1,318.36	78.5624	1,318.36	77.4597	1,318.36	75.5346	1,318.36	74.877	1,318.36	69.1616	1,318.36	68.6398	1,318.36	67.6424	1,318.36	57.8396	1,318.36	74.3146	1,318.36	72.1307	1,318.36	77.1041	1,318.36	76.2811	1,318.36	77.654
1,415.04	88.1728	1,415.04	88.2072	1,415.04	87.8577	1,415.04	87.9283	1,415.04	87.2914	1,415.04	87.3007	1,415.04	86.5027	1,415.04	86.3152	1,415.04	85.5024	1,415.04	85.0296	1,415.04	84.2853	1,415.04	83.5654	1,415.04	82.8883	1,415.04	82.0684	1,415.04	81.441	1,415.04	80.7661	1,415.04	80.1494	1,415.04	80.0293	1,415.04	79.2848	1,415.04	79.8777	1,415.04	79.0327	1,415.04	79.601	1,415.04	79.0655	1,415.04	78.3041	1,415.04	78.6373	1,415.04	74.954	1,415.04	76.9618	1,415.04	66.5901	1,415.04	72.8873	1,415.04	66.2342	1,415.04	61.6216	1,415.04	73.94	1,415.04	68.3179	1,415.04	76.5794	1,415.04	74.5862	1,415.04	76.7544
1,514.65	87.2952	1,514.65	87.3509	1,514.65	86.9935	1,514.65	87.1228	1,514.65	86.4417	1,514.65	86.5348	1,514.65	85.6202	1,514.65	85.5418	1,514.65	84.5068	1,514.65	84.1919	1,514.65	83.1208	1,514.65	82.6248	1,514.65	81.6162	1,514.65	81.0956	1,514.65	80.2471	1,514.65	80.0711	1,514.65	79.1505	1,514.65	79.762	1,514.65	78.4046	1,514.65	79.6211	1,514.65	78.2069	1,514.65	79.0643	1,514.65	78.3434	1,514.65	77.7613	1,514.65	78.0551	1,514.65	75.2246	1,514.65	76.5378	1,514.65	69.9466	1,514.65	72.8079	1,514.65	55.3407	1,514.65	63.637	1,514.65	69.5786	1,514.65	64.7124	1,514.65	73.8326	1,514.65	72.026	1,514.65	74.3751
1,623.05	85.7551	1,623.05	85.3224	1,623.05	85.7989	1,623.05	84.5202	1,623.05	85.5166	1,623.05	83.4965	1,623.05	84.9698	1,623.05	82.4244	1,623.05	84.1969	1,623.05	81.2877	1,623.05	83.2163	1,623.05	79.8559	1,623.05	81.978	1,623.05	78.0042	1,623.05	80.3896	1,623.05	76.0026	1,623.05	78.5977	1,623.05	74.4795	1,623.05	77.2618	1,623.05	73.9469	1,623.05	76.982	1,623.05	74.1129	1,623.05	77.3686	1,623.05	74.0171	1,623.05	77.465	1,623.05	72.6384	1,623.05	76.4326	1,623.05	68.6174	1,623.05	73.5984	1,623.05	55.3278	1,623.05	67.9887	1,623.05	62.9304	1,623.05	60.7447	1,623.05	68.3603	1,623.05	66.0947	1,623.05	68.9049
1,740.23	86.0231	1,740.23	85.7172	1,740.23	85.9496	1,740.23	85.0284	1,740.23	85.5763	1,740.23	84.1021	1,740.23	84.9323	1,740.23	83.0583	1,740.23	84.0408	1,740.23	81.8135	1,740.23	82.9841	1,740.23	80.2878	1,740.23	81.7473	1,740.23	78.7229	1,740.23	80.1336	1,740.23	77.3807	1,740.23	78.0845	1,740.23	75.9665	1,740.23	76.0725	1,740.23	74.3375	1,740.23	75.0932	1,740.23	73.628	1,740.23	75.4364	1,740.23	73.7777	1,740.23	75.8186	1,740.23	72.9403	1,740.23	74.9905	1,740.23	69.7183	1,740.23	72.129	1,740.23	60.4795	1,740.23	65.8959	1,740.23	60.1889	1,740.23	64.4279	1,740.23	68.4957	1,740.23	69.6136	1,740.23	70.7261
1,866.21	84.8055	1,866.21	84.6495	1,866.21	84.5236	1,866.21	84.0291	1,866.21	83.8502	1,866.21	82.9521	1,866.21	82.8618	1,866.21	81.5457	1,866.21	81.6935	1,866.21	80.0799	1,866.21	80.5448	1,866.21	78.7779	1,866.21	79.4349	1,866.21	77.6307	1,866.21	77.9926	1,866.21	76.437	1,866.21	75.8916	1,866.21	74.9754	1,866.21	73.4908	1,866.21	73.5967	1,866.21	71.8338	1,866.21	73.5302	1,866.21	71.7517	1,866.21	74.0322	1,866.21	72.682	1,866.21	73.1047	1,866.21	72.7471	1,866.21	69.8122	1,866.21	70.3586	1,866.21	62.2741	1,866.21	63.7771	1,866.21	60.0982	1,866.21	62.6274	1,866.21	68.0613	1,866.21	68.5804	1,866.21	70.1271
2,000.98	84.6249	2,000.98	84.4856	2,000.98	84.2061	2,000.98	83.76	2,000.98	83.3124	2,000.98	82.5828	2,000.98	82.0571	2,000.98	81.2225	2,000.98	80.5977	2,000.98	79.8349	2,000.98	79.0947	2,000.98	78.4628	2,000.98	77.645	2,000.98	77.1353	2,000.98	76.3071	2,000.98	75.731	2,000.98	75.0032	2,000.98	74.2344	2,000.98	73.3441	2,000.98	73.0735	2,000.98	71.2825	2,000.98	72.533	2,000.98	70.1021	2,000.98	72.5656	2,000.98	70.5521	2,000.98	72.5342	2,000.98	70.9604	2,000.98	71.0323	2,000.98	69.6579	2,000.98	66.1102	2,000.98	64.447	2,000.98	33.972	2,000.98	50.6789	2,000.98	64.1887	2,000.98	65.2741	2,000.98	67.4153
2,144.53	84.0953	2,144.53	83.889	2,144.53	83.8576	2,144.53	83.255	2,144.53	83.1897	2,144.53	82.2163	2,144.53	82.1099	2,144.53	80.7079	2,144.53	80.609	2,144.53	78.7292	2,144.53	78.7407	2,144.53	76.6836	2,144.53	76.8415	2,144.53	75.0703	2,144.53	75.3458	2,144.53	73.8059	2,144.53	74.2897	2,144.53	72.4972	2,144.53	73.3866	2,144.53	71.2381	2,144.53	72.152	2,144.53	71.0727	2,144.53	70.4831	2,144.53	71.9748	2,144.53	70.058	2,144.53	72.3179	2,144.53	71.0112	2,144.53	71.0779	2,144.53	70.8321	2,144.53	67.0998	2,144.53	67.9674	2,144.53	54.5967	2,144.53	58.5825	2,144.53	60.8386	2,144.53	58.4011	2,144.53	64.1441
2,296.88	85.3586	2,296.88	85.1144	2,296.88	85.0796	2,296.88	84.4009	2,296.88	84.3037	2,296.88	83.3016	2,296.88	83.1191	2,296.88	81.8345	2,296.88	81.6481	2,296.88	80.0092	2,296.88	79.8939	2,296.88	77.9068	2,296.88	77.8201	2,296.88	75.777	2,296.88	75.7087	2,296.88	73.9578	2,296.88	74.0568	2,296.88	72.5925	2,296.88	73.0374	2,296.88	71.16	2,296.88	72.2439	2,296.88	69.1492	2,296.88	70.7999	2,296.88	69.0865	2,296.88	69.499	2,296.88	70.6073	2,296.88	70.4545	2,296.88	70.481	2,296.88	70.9217	2,296.88	67.8798	2,296.88	68.7361	2,296.88	60.2956	2,296.88	62.2909	2,296.88	55.983	2,296.88	52.6307	2,296.88	60.2968
2,460.94	85.2442	2,460.94	85.0941	2,460.94	84.8446	2,460.94	84.4178	2,460.94	83.8614	2,460.94	83.2704	2,460.94	82.3914	2,460.94	81.8432	2,460.94	80.6761	2,460.94	80.1562	2,460.94	78.8807	2,460.94	78.0222	2,460.94	76.8805	2,460.94	75.7431	2,460.94	74.6177	2,460.94	73.9083	2,460.94	72.4926	2,460.94	72.3069	2,460.94	70.9546	2,460.94	70.8636	2,460.94	70.0159	2,460.94	69.5496	2,460.94	69.0974	2,460.94	68.762	2,460.94	67.4024	2,460.94	69.7248	2,460.94	66.7906	2,460.94	69.5091	2,460.94	68.1566	2,460.94	66.2247	2,460.94	67.4892	2,460.94	60.3828	2,460.94	62.4887	2,460.94	60.754	2,460.94	54.193	2,460.94	60.7119
2,639.65	85.6207	2,639.65	85.5337	2,639.65	84.9499	2,639.65	84.8868	2,639.65	83.6394	2,639.65	83.852	2,639.65	82.1093	2,639.65	82.5059	2,639.65	80.5171	2,639.65	80.9554	2,639.65	78.6555	2,639.65	79.1176	2,639.65	76.6083	2,639.65	76.843	2,639.65	74.5811	2,639.65	74.6229	2,639.65	72.5551	2,639.65	73.0507	2,639.65	71.2058	2,639.65	71.5089	2,639.65	70.8103	2,639.65	69.8431	2,639.65	70.3506	2,639.65	68.9161	2,639.65	69.1005	2,639.65	69.7531	2,639.65	67.7675	2,639.65	70.3608	2,639.65	68.5185	2,639.65	67.8241	2,639.65	68.6175	2,639.65	60.8882	2,639.65	64.7585	2,639.65	62.2013	2,639.65	56.0326	2,639.65	62.3126
2,827.15	85.7536	2,827.15	85.8387	2,827.15	85.1774	2,827.15	85.3045	2,827.15	84.1942	2,827.15	84.0093	2,827.15	82.6964	2,827.15	82.1579	2,827.15	80.6472	2,827.15	80.2283	2,827.15	78.6756	2,827.15	78.2684	2,827.15	77.2591	2,827.15	76.2418	2,827.15	75.8902	2,827.15	74.2481	2,827.15	74.1302	2,827.15	72.3281	2,827.15	72.1197	2,827.15	71.2135	2,827.15	71.1814	2,827.15	69.7645	2,827.15	71.0996	2,827.15	67.1607	2,827.15	70.4572	2,827.15	68.175	2,827.15	69.3702	2,827.15	69.4962	2,827.15	69.4411	2,827.15	67.5537	2,827.15	69.6963	2,827.15	61.759	2,827.15	66.9946	2,827.15	60.7533	2,827.15	60.4081	2,827.15	61.5422
3,032.23	86.4593	3,032.23	86.3983	3,032.23	85.9467	3,032.23	85.8523	3,032.23	84.6904	3,032.23	84.6514	3,032.23	82.8808	3,032.23	82.7933	3,032.23	80.9348	3,032.23	80.5601	3,032.23	79.0392	3,032.23	78.4001	3,032.23	77.3545	3,032.23	76.5451	3,032.23	75.9766	3,032.23	74.4715	3,032.23	74.5046	3,032.23	72.0241	3,032.23	72.5641	3,032.23	70.1485	3,032.23	70.8806	3,032.23	69.3149	3,032.23	71.3	3,032.23	68.0443	3,032.23	71.7524	3,032.23	68.1074	3,032.23	70.0359	3,032.23	69.9447	3,032.23	68.942	3,032.23	68.1081	3,032.23	69.7737	3,032.23	62.4332	3,032.23	68.195	3,032.23	63.9359	3,032.23	63.5898	3,032.23	63.7249
3,249.02	86.7276	3,249.02	86.691	3,249.02	85.9845	3,249.02	85.9198	3,249.02	84.7981	3,249.02	84.6051	3,249.02	83.4086	3,249.02	82.9621	3,249.02	81.5969	3,249.02	81.1242	3,249.02	79.6753	3,249.02	78.9254	3,249.02	77.8128	3,249.02	76.4132	3,249.02	75.757	3,249.02	73.454	3,249.02	74.1137	3,249.02	69.9599	3,249.02	72.3171	3,249.02	68.7375	3,249.02	69.5695	3,249.02	69.0051	3,249.02	69.7842	3,249.02	67.2514	3,249.02	71.4566	3,249.02	66.98	3,249.02	70.8691	3,249.02	69.3791	3,249.02	69.3751	3,249.02	68.8495	3,249.02	70.5087	3,249.02	65.0079	3,249.02	70.2885	3,249.02	65.6519	3,249.02	65.7899	3,249.02	66.2346
3,483.4	87.0397	3,483.4	86.8388	3,483.4	86.8127	3,483.4	86.0125	3,483.4	86.014	3,483.4	84.4615	3,483.4	84.3637	3,483.4	82.4174	3,483.4	82.5562	3,483.4	79.7278	3,483.4	80.5534	3,483.4	76.546	3,483.4	77.6165	3,483.4	73.9066	3,483.4	75.4982	3,483.4	71.4914	3,483.4	73.9888	3,483.4	68.9206	3,483.4	72.047	3,483.4	67.4123	3,483.4	70.3015	3,483.4	67.9797	3,483.4	68.0035	3,483.4	66.3417	3,483.4	70.0581	3,483.4	65.3989	3,483.4	70.3911	3,483.4	68.0012	3,483.4	67.5131	3,483.4	66.8996	3,483.4	68.6859	3,483.4	62.7626	3,483.4	69.3638	3,483.4	65.2618	3,483.4	66.3537	3,483.4	64.9818
3,732.42	87.4536	3,732.42	87.3781	3,732.42	86.7561	3,732.42	86.5529	3,732.42	85.5509	3,732.42	85.2567	3,732.42	84.118	3,732.42	83.4769	3,732.42	82.4391	3,732.42	81.1122	3,732.42	80.5959	3,732.42	78.4055	3,732.42	78.8645	3,732.42	75.3346	3,732.42	76.7684	3,732.42	72.6564	3,732.42	75.2904	3,732.42	70.4493	3,732.42	74.8752	3,732.42	67.1087	3,732.42	73.303	3,732.42	66.597	3,732.42	69.9717	3,732.42	66.9713	3,732.42	68.5905	3,732.42	66.8367	3,732.42	70.5734	3,732.42	69.877	3,732.42	69.6963	3,732.42	69.6206	3,732.42	67.9242	3,732.42	67.1127	3,732.42	70.1049	3,732.42	67.1823	3,732.42	67.5957	3,732.42	65.3689
3,999.02	86.7082	3,999.02	86.5705	3,999.02	86.3796	3,999.02	85.9341	3,999.02	85.4837	3,999.02	84.6643	3,999.02	84.2928	3,999.02	83.2164	3,999.02	82.9476	3,999.02	81.4318	3,999.02	81.2941	3,999.02	79.2183	3,999.02	79.6072	3,999.02	76.4829	3,999.02	78.0392	3,999.02	72.7867	3,999.02	76.6554	3,999.02	70.0196	3,999.02	75.3671	3,999.02	67.393	3,999.02	73.7672	3,999.02	67.27	3,999.02	71.4593	3,999.02	67.8807	3,999.02	69.1812	3,999.02	66.571	3,999.02	70.4481	3,999.02	68.2005	3,999.02	70.5371	3,999.02	66.5741	3,999.02	69.1142	3,999.02	65.4431	3,999.02	69.1459	3,999.02	67.2497	3,999.02	68.9305	3,999.02	67.0546
4,286.13	86.2083	4,286.13	85.5384	4,286.13	86.1396	4,286.13	84.6263	4,286.13	85.563	4,286.13	83.8798	4,286.13	84.6501	4,286.13	82.6532	4,286.13	83.1236	4,286.13	80.7633	4,286.13	81.4016	4,286.13	78.6349	4,286.13	79.896	4,286.13	76.2393	4,286.13	77.9902	4,286.13	73.4264	4,286.13	75.9041	4,286.13	70.5769	4,286.13	74.7678	4,286.13	67.5031	4,286.13	73.5713	4,286.13	65.2743	4,286.13	71.6986	4,286.13	65.649	4,286.13	70.0528	4,286.13	65.0884	4,286.13	68.1348	4,286.13	69.1698	4,286.13	68.4939	4,286.13	67.4615	4,286.13	67.3502	4,286.13	64.684	4,286.13	68.1057	4,286.13	66.8061	4,286.13	69.1747	4,286.13	66.5328
4,593.75	86.6136	4,593.75	85.9099	4,593.75	86.6422	4,593.75	84.6079	4,593.75	85.986	4,593.75	83.3213	4,593.75	84.5914	4,593.75	82.2454	4,593.75	82.6612	4,593.75	80.865	4,593.75	80.7667	4,593.75	79.5298	4,593.75	79.2999	4,593.75	78.2587	4,593.75	78.1106	4,593.75	75.6306	4,593.75	76.253	4,593.75	72.8644	4,593.75	73.9286	4,593.75	70.9868	4,593.75	72.926	4,593.75	66.6465	4,593.75	71.4779	4,593.75	67.3438	4,593.75	70.1755	4,593.75	65.0762	4,593.75	68.5745	4,593.75	68.3758	4,593.75	69.5663	4,593.75	68.3626	4,593.75	69.0368	4,593.75	65.1451	4,593.75	67.0134	4,593.75	67.6873	4,593.75	68.7782	4,593.75	67.1376
4,924.8	86.3585	4,924.8	85.4304	4,924.8	86.3775	4,924.8	83.9659	4,924.8	85.1403	4,924.8	82.2536	4,924.8	83.166	4,924.8	81.3939	4,924.8	81.5942	4,924.8	80.8612	4,924.8	80.4168	4,924.8	79.3749	4,924.8	78.9807	4,924.8	76.975	4,924.8	77.7032	4,924.8	74.4861	4,924.8	76.4458	4,924.8	71.9707	4,924.8	74.3004	4,924.8	70.887	4,924.8	73.0667	4,924.8	67.9307	4,924.8	71.4722	4,924.8	66.3926	4,924.8	69.2815	4,924.8	65.7707	4,924.8	70.1862	4,924.8	66.6512	4,924.8	67.7234	4,924.8	66.6201	4,924.8	68.6297	4,924.8	65.4876	4,924.8	64.8503	4,924.8	65.6478	4,924.8	68.3528	4,924.8	66.0943
5,279.3	85.9341	5,279.3	85.3293	5,279.3	85.2418	5,279.3	84.2086	5,279.3	83.2737	5,279.3	83.1301	5,279.3	81.1795	5,279.3	81.9067	5,279.3	80.2252	5,279.3	81.0909	5,279.3	79.431	5,279.3	80.3972	5,279.3	78.4389	5,279.3	78.6578	5,279.3	77.2186	5,279.3	76.8391	5,279.3	75.8884	5,279.3	74.3828	5,279.3	74.4653	5,279.3	71.622	5,279.3	71.7945	5,279.3	69.8084	5,279.3	69.7335	5,279.3	65.3001	5,279.3	66.1481	5,279.3	65.1558	5,279.3	67.8286	5,279.3	66.0687	5,279.3	66.792	5,279.3	68.3075	5,279.3	65.4462	5,279.3	66.8714	5,279.3	64.4106	5,279.3	64.855	5,279.3	64.3392	5,279.3	63.8731
5,657.23	85.5717	5,657.23	85.2236	5,657.23	84.6228	5,657.23	84.2233	5,657.23	83.2371	5,657.23	83.8619	5,657.23	82.4665	5,657.23	83.523	5,657.23	81.804	5,657.23	82.461	5,657.23	80.6269	5,657.23	81.6238	5,657.23	79.5145	5,657.23	80.5174	5,657.23	77.947	5,657.23	78.4247	5,657.23	75.9831	5,657.23	75.6887	5,657.23	74.8032	5,657.23	72.1145	5,657.23	72.8786	5,657.23	70.7035	5,657.23	71.5589	5,657.23	69.4574	5,657.23	68.9286	5,657.23	69.334	5,657.23	64.5931	5,657.23	69.5377	5,657.23	68.6867	5,657.23	68.9704	5,657.23	67.2183	5,657.23	63.1085	5,657.23	66.5962	5,657.23	61.9653	5,657.23	65.5286	5,657.23	66.3535
6,061.52	84.4667	6,061.52	84.3661	6,061.52	83.7087	6,061.52	83.2456	6,061.52	83.2765	6,061.52	82.5785	6,061.52	83.0882	6,061.52	83.3151	6,061.52	82.0015	6,061.52	83.2021	6,061.52	80.7449	6,061.52	81.7013	6,061.52	79.5918	6,061.52	79.8439	6,061.52	78.3652	6,061.52	77.8798	6,061.52	76.9858	6,061.52	75.6496	6,061.52	75.4153	6,061.52	73.0403	6,061.52	73.9038	6,061.52	70.7462	6,061.52	72.0601	6,061.52	69.4424	6,061.52	70.8323	6,061.52	69.9385	6,061.52	69.1084	6,061.52	69.9318	6,061.52	68.0701	6,061.52	70.0569	6,061.52	67.943	6,061.52	63.9219	6,061.52	66.3958	6,061.52	64.4333	6,061.52	65.3709	6,061.52	68.1108
6,498.05	83.9221	6,498.05	84.8846	6,498.05	83.1128	6,498.05	84.124	6,498.05	83.6123	6,498.05	82.3722	6,498.05	83.5256	6,498.05	82.2085	6,498.05	82.9762	6,498.05	82.2023	6,498.05	82.4786	6,498.05	81.0031	6,498.05	81.2643	6,498.05	78.7851	6,498.05	79.7407	6,498.05	76.2634	6,498.05	78.2169	6,498.05	73.9593	6,498.05	76.8008	6,498.05	70.6762	6,498.05	75.1879	6,498.05	69.1499	6,498.05	73.6934	6,498.05	66.9987	6,498.05	72.3403	6,498.05	67.6717	6,498.05	70.8964	6,498.05	69.3825	6,498.05	69.6276	6,498.05	68.2141	6,498.05	68.0102	6,498.05	64.1375	6,498.05	69.4864	6,498.05	64.1723	6,498.05	65.746	6,498.05	68.102
6,963.87	83.0543	6,963.87	85.0942	6,963.87	82.3499	6,963.87	85.1136	6,963.87	83.4187	6,963.87	82.7589	6,963.87	83.8379	6,963.87	81.4806	6,963.87	84.1166	6,963.87	81.1826	6,963.87	83.6869	6,963.87	79.6426	6,963.87	82.0461	6,963.87	77.6478	6,963.87	80.0159	6,963.87	75.5354	6,963.87	78.2088	6,963.87	73.5544	6,963.87	76.7838	6,963.87	71.2377	6,963.87	74.971	6,963.87	67.4796	6,963.87	73.0515	6,963.87	67.5253	6,963.87	71.6309	6,963.87	65.7319	6,963.87	69.8283	6,963.87	66.4598	6,963.87	70.7421	6,963.87	67.6537	6,963.87	68.5625	6,963.87	62.9986	6,963.87	69.4869	6,963.87	65.0807	6,963.87	66.8731	6,963.87	66.5304
7,464.84	82.8985	7,464.84	85.5599	7,464.84	82.0767	7,464.84	86.0487	7,464.84	82.4741	7,464.84	83.6554	7,464.84	83.1386	7,464.84	82.2778	7,464.84	83.8162	7,464.84	82.3761	7,464.84	83.1834	7,464.84	81.2481	7,464.84	81.2935	7,464.84	79.2834	7,464.84	78.6993	7,464.84	77.2946	7,464.84	76.3314	7,464.84	74.7379	7,464.84	74.4729	7,464.84	71.939	7,464.84	71.6757	7,464.84	68.6086	7,464.84	69.8625	7,464.84	66.2741	7,464.84	69.4113	7,464.84	69.6067	7,464.84	65.557	7,464.84	67.5403	7,464.84	68.1972	7,464.84	69.323	7,464.84	68.0191	7,464.84	62.2536	7,464.84	66.1433	7,464.84	64.4497	7,464.84	65.5013	7,464.84	66.4805
8,000.98	83.3631	8,000.98	84.6345	8,000.98	83.2688	8,000.98	86.0152	8,000.98	81.9823	8,000.98	84.4956	8,000.98	81.6309	8,000.98	82.8981	8,000.98	82.137	8,000.98	83.8705	8,000.98	81.4884	8,000.98	83.572	8,000.98	79.9816	8,000.98	81.7755	8,000.98	77.8918	8,000.98	79.5339	8,000.98	75.5023	8,000.98	76.5881	8,000.98	73.3789	8,000.98	73.5378	8,000.98	71.1102	8,000.98	71.0228	8,000.98	66.3522	8,000.98	69.8766	8,000.98	65.633	8,000.98	69.8363	8,000.98	61.9849	8,000.98	69.535	8,000.98	61.6411	8,000.98	69.2158	8,000.98	60.5099	8,000.98	63.0144	8,000.98	66.8199	8,000.98	63.9674	8,000.98	57.5394	8,000.98	63.7246
8,575.2	85.1428	8,575.2	84.4075	8,575.2	84.9773	8,575.2	84.7073	8,575.2	83.7721	8,575.2	83.4003	8,575.2	83.9959	8,575.2	82.3406	8,575.2	83.181	8,575.2	83.2165	8,575.2	81.5201	8,575.2	83.0052	8,575.2	80.1387	8,575.2	81.2738	8,575.2	77.0887	8,575.2	79.0331	8,575.2	75.2154	8,575.2	76.228	8,575.2	72.8828	8,575.2	73.8168	8,575.2	69.6598	8,575.2	70.8209	8,575.2	68.2206	8,575.2	69.0306	8,575.2	65.44	8,575.2	68.8407	8,575.2	61.9497	8,575.2	68.5295	8,575.2	58.4271	8,575.2	68.378	8,575.2	57.1923	8,575.2	54.1624	8,575.2	63.1787	8,575.2	57.6551	8,575.2	61.7363	8,575.2	63.8955
9,190.43	87.6936	9,190.43	87.0484	9,190.43	86.7352	9,190.43	86.9105	9,190.43	85.8764	9,190.43	86.6798	9,190.43	85.0326	9,190.43	84.075	9,190.43	82.8567	9,190.43	83.6732	9,190.43	81.6176	9,190.43	84.6033	9,190.43	79.2147	9,190.43	82.3272	9,190.43	75.1862	9,190.43	79.7866	9,190.43	72.4685	9,190.43	76.1993	9,190.43	69.1867	9,190.43	72.0006	9,190.43	67.2557	9,190.43	70.7888	9,190.43	65.1428	9,190.43	69.2411	9,190.43	63.5456	9,190.43	64.5158	9,190.43	63.7181	9,190.43	67.2852	9,190.43	59.642	9,190.43	68.7711	9,190.43	55.0959	9,190.43	58.8256	9,190.43	58.4268	9,190.43	47.1893	9,190.43	57.4112	9,190.43	63.8412
9,849.61	87.9154	9,849.61	87.6753	9,849.61	86.8306	9,849.61	87.2711	9,849.61	85.5941	9,849.61	87.5227	9,849.61	83.8364	9,849.61	86.2456	9,849.61	82.0287	9,849.61	84.8501	9,849.61	80.034	9,849.61	84.9249	9,849.61	76.6609	9,849.61	83.0546	9,849.61	75.0164	9,849.61	79.8162	9,849.61	72.4744	9,849.61	76.3115	9,849.61	70.5977	9,849.61	71.0938	9,849.61	68.0213	9,849.61	71.0997	9,849.61	64.8456	9,849.61	67.9366	9,849.61	61.8331	9,849.61	67.8902	9,849.61	61.3099	9,849.61	66.2908	9,849.61	49.8314	9,849.61	66.5604	9,849.61	58.4488	9,849.61	59.0028	9,849.61	48.1052	9,849.61	54.4223	9,849.61	62.0818	9,849.61	62.4892
10,555.7	87.9754	10,555.7	87.4981	10,555.7	87.1377	10,555.7	86.3095	10,555.7	85.8278	10,555.7	86.4172	10,555.7	84.297	10,555.7	85.585	10,555.7	82.9942	10,555.7	84.0343	10,555.7	80.9652	10,555.7	83.6624	10,555.7	78.2278	10,555.7	81.5165	10,555.7	74.5362	10,555.7	78.1971	10,555.7	70.5079	10,555.7	75.3425	10,555.7	68.8976	10,555.7	70.4255	10,555.7	65.6469	10,555.7	69.1808	10,555.7	65.0778	10,555.7	62.9423	10,555.7	63.2974	10,555.7	64.9419	10,555.7	62.2149	10,555.7	65.9556	10,555.7	54.947	10,555.7	63.0579	10,555.7	60.0368	10,555.7	55.2121	10,555.7	48.777	10,555.7	56.2933	10,555.7	58.0548	10,555.7	61.5427
11,314.5	89.7536	11,314.5	89.4464	11,314.5	88.7675	11,314.5	87.8337	11,314.5	87.5542	11,314.5	87.139	11,314.5	85.0804	11,314.5	85.3291	11,314.5	83.1055	11,314.5	82.4703	11,314.5	81.4075	11,314.5	81.766	11,314.5	76.8723	11,314.5	79.8167	11,314.5	72.4127	11,314.5	75.7329	11,314.5	69.8267	11,314.5	72.0835	11,314.5	68.9046	11,314.5	68.545	11,314.5	67.3761	11,314.5	68.859	11,314.5	64.2408	11,314.5	63.8219	11,314.5	62.5008	11,314.5	59.0409	11,314.5	61.7068	11,314.5	63.9862	11,314.5	55.6446	11,314.5	58.7477	11,314.5	54.7383	11,314.5	50.9721	11,314.5	31.4556	11,314.5	51.3263	11,314.5	57.519	11,314.5	51.0648
12,126	89.2238	12,126	89.3214	12,126	88.277	12,126	88.501	12,126	86.4576	12,126	87.9123	12,126	84.0172	12,126	86.3028	12,126	82.8734	12,126	83.4745	12,126	80.4044	12,126	81.8659	12,126	76.2978	12,126	79.9005	12,126	72.702	12,126	75.8657	12,126	71.6814	12,126	72.1333	12,126	70.1736	12,126	67.7016	12,126	66.0825	12,126	65.8839	12,126	65.4842	12,126	60.0495	12,126	64.3125	12,126	60.2429	12,126	62.1141	12,126	60.5569	12,126	60.1605	12,126	60.0555	12,126	61.3259	12,126	57.2559	12,126	52.1038	12,126	44.0075	12,126	57.602	12,126	59.1199
12,996.1	89.0008	12,996.1	88.8148	12,996.1	88.3639	12,996.1	87.4628	12,996.1	86.8216	12,996.1	86.0291	12,996.1	84.7621	12,996.1	84.3982	12,996.1	82.9922	12,996.1	81.4135	12,996.1	81.0083	12,996.1	79.142	12,996.1	78.3523	12,996.1	77.8394	12,996.1	74.1485	12,996.1	73.5424	12,996.1	71.7371	12,996.1	68.48	12,996.1	69.3178	12,996.1	66.9693	12,996.1	67.3018	12,996.1	63.8333	12,996.1	65.4372	12,996.1	59.9714	12,996.1	63.8572	12,996.1	54.8058	12,996.1	62.0006	12,996.1	59.9891	12,996.1	59.3568	12,996.1	55.7045	12,996.1	61.4753	12,996.1	49.1619	12,996.1	50.894	12,996.1	53.8816	12,996.1	58.0732	12,996.1	59.6991
13,927.7	89.7173	13,927.7	89.7066	13,927.7	88.7721	13,927.7	87.8963	13,927.7	87.1798	13,927.7	86.1811	13,927.7	84.4381	13,927.7	84.4339	13,927.7	82.7307	13,927.7	81.2116	13,927.7	81.2833	13,927.7	77.6903	13,927.7	77.5641	13,927.7	74.254	13,927.7	74.4004	13,927.7	71.2884	13,927.7	72.3207	13,927.7	65.749	13,927.7	69.5423	13,927.7	61.8352	13,927.7	67.759	13,927.7	57.8299	13,927.7	64.7199	13,927.7	57.465	13,927.7	63.2477	13,927.7	51.1732	13,927.7	62.2778	13,927.7	58.8094	13,927.7	61.2601	13,927.7	48.0652	13,927.7	59.548	13,927.7	51.0414	13,927.7	50.6731	13,927.7	52.769	13,927.7	55.7596	13,927.7	55.1998
14,929.7	89.6144	14,929.7	89.0852	14,929.7	89.0873	14,929.7	87.1798	14,929.7	87.6592	14,929.7	85.583	14,929.7	84.9294	14,929.7	83.6905	14,929.7	83.1335	14,929.7	80.3566	14,929.7	81.9261	14,929.7	76.1642	14,929.7	79.2374	14,929.7	70.1915	14,929.7	76.0426	14,929.7	63.4668	14,929.7	73.5966	14,929.7	55.6617	14,929.7	71.1028	14,929.7	54.5682	14,929.7	67.8332	14,929.7	48.1899	14,929.7	66.1426	14,929.7	44.1939	14,929.7	64.1659	14,929.7	37.8185	14,929.7	62.8113	14,929.7	53.4836	14,929.7	60.3349	14,929.7	45.3613	14,929.7	58.727	14,929.7	47.1426	14,929.7	50.4156	14,929.7	51.507	14,929.7	50.7359	14,929.7	53.3316
15,999	89.998	15,999	89.2782	15,999	89.6567	15,999	86.6469	15,999	88.682	15,999	84.0135	15,999	86.2458	15,999	81.2693	15,999	84.0312	15,999	77.2929	15,999	82.6745	15,999	73.2136	15,999	79.8391	15,999	72.1624	15,999	75.8586	15,999	70.8711	15,999	73.5509	15,999	65.918	15,999	70.7637	15,999	64.3574	15,999	66.5029	15,999	55.4144	15,999	65.2522	15,999	55.3636	15,999	63.6767	15,999	54.4201	15,999	62.3737	15,999	56.2572	15,999	57.89	15,999	48.409	15,999	57.0883	15,999	48.7234	15,999	56.9801	15,999	54.1456	15,999	55.5441	15,999	38.7083
17,147.5	90.2087	17,147.5	89.4667	17,147.5	89.7099	17,147.5	87.3423	17,147.5	88.2961	17,147.5	85.0714	17,147.5	85.6279	17,147.5	81.8714	17,147.5	82.7407	17,147.5	77.6255	17,147.5	78.545	17,147.5	71.3488	17,147.5	71.5979	17,147.5	64.6678	17,147.5	67.6206	17,147.5	61.2852	17,147.5	64.2677	17,147.5	54.3975	17,147.5	62.5649	17,147.5	52.5576	17,147.5	57.3688	17,147.5	49.1762	17,147.5	58.5852	17,147.5	52.348	17,147.5	54.0172	17,147.5	49.4028	17,147.5	54.5663	17,147.5	51.3139	17,147.5	53.3309	17,147.5	50.7206	17,147.5	50.1509	17,147.5	48.1223	17,147.5	56.335	17,147.5	49.8774	17,147.5	51.4287	17,147.5	49.3128
18,377.9	91.6342	18,377.9	90.5946	18,377.9	90.6148	18,377.9	87.1455	18,377.9	87.7473	18,377.9	84.0953	18,377.9	82.2764	18,377.9	79.434	18,377.9	75.9419	18,377.9	70.2564	18,377.9	70.7241	18,377.9	72.0362	18,377.9	75.736	18,377.9	74.6462	18,377.9	77.2254	18,377.9	74.3254	18,377.9	76.5766	18,377.9	69.0939	18,377.9	73.4118	18,377.9	64.4679	18,377.9	69.584	18,377.9	55.3428	18,377.9	67.7258	18,377.9	49.5077	18,377.9	65.9704	18,377.9	50.182	18,377.9	62.8353	18,377.9	62.4727	18,377.9	59.6749	18,377.9	41.3065	18,377.9	54.5664	18,377.9	57.8427	18,377.9	48.1036	18,377.9	55.2028	18,377.9	44.9895	18,377.9	55.874
19,699.2	91.0209	19,699.2	90.2196	19,699.2	90.1209	19,699.2	87.4018	19,699.2	87.8431	19,699.2	84.222	19,699.2	82.7087	19,699.2	78.0602	19,699.2	77.39	19,699.2	75.0464	19,699.2	76.1021	19,699.2	71.2488	19,699.2	77.6739	19,699.2	74.8092	19,699.2	77.3411	19,699.2	73.3354	19,699.2	76.0852	19,699.2	69.2373	19,699.2	72.5942	19,699.2	64.2626	19,699.2	68.6315	19,699.2	52.0946	19,699.2	67.5721	19,699.2	50.2371	19,699.2	65.3243	19,699.2	53.0883	19,699.2	61.9312	19,699.2	62.7174	19,699.2	59.5024	19,699.2	49.0386	19,699.2	57.0992	19,699.2	55.8857	19,699.2	40.2312	19,699.2	53.4471	19,699.2	44.4497	19,699.2	57.4302
19,998	91.3543	19,998	90.6471	19,998	90.4508	19,998	87.5936	19,998	88.5557	19,998	83.929	19,998	83.9847	19,998	77.3897	19,998	79.1247	19,998	74.7108	19,998	76.6684	19,998	70.3326	19,998	77.5677	19,998	76.031	19,998	76.5695	19,998	74.5285	19,998	75.212	19,998	69.5005	19,998	71.1455	19,998	66.4401	19,998	66.5254	19,998	53.2258	19,998	66.9085	19,998	55.8674	19,998	64.2213	19,998	47.9297	19,998	60.5614	19,998	63.2482	19,998	59.3148	19,998	34.907	19,998	56.3784	19,998	56.1715	19,998	50.9275	19,998	50.213	19,998	40.5173	19,998	58.2158
