"SPL Vertical"																																																																							
"On-Axis"		"10°"		"-10°"		"20°"		"-20°"		"30°"		"-30°"		"40°"		"-40°"		"50°"		"-50°"		"60°"		"-60°"		"70°"		"-70°"		"80°"		"-80°"		"90°"		"-90°"		"100°"		"-100°"		"110°"		"-110°"		"120°"		"-120°"		"130°"		"-130°"		"140°"		"-140°"		"150°"		"-150°"		"160°"		"-160°"		"170°"		"-170°"		"180°"	
"Frequency [Hz]"	"Sound Pessure Level [dB]  / [2.83V 1m] "	"Frequency [Hz]"	"Sound Pessure Level [dB]  / [2.83V 1m] "	"Frequency [Hz]"	"Sound Pessure Level [dB]  / [2.83V 1m] "	"Frequency [Hz]"	"Sound Pessure Level [dB]  / [2.83V 1m] "	"Frequency [Hz]"	"Sound Pessure Level [dB]  / [2.83V 1m] "	"Frequency [Hz]"	"Sound Pessure Level [dB]  / [2.83V 1m] "	"Frequency [Hz]"	"Sound Pessure Level [dB]  / [2.83V 1m] "	"Frequency [Hz]"	"Sound Pessure Level [dB]  / [2.83V 1m] "	"Frequency [Hz]"	"Sound Pessure Level [dB]  / [2.83V 1m] "	"Frequency [Hz]"	"Sound Pessure Level [dB]  / [2.83V 1m] "	"Frequency [Hz]"	"Sound Pessure Level [dB]  / [2.83V 1m] "	"Frequency [Hz]"	"Sound Pessure Level [dB]  / [2.83V 1m] "	"Frequency [Hz]"	"Sound Pessure Level [dB]  / [2.83V 1m] "	"Frequency [Hz]"	"Sound Pessure Level [dB]  / [2.83V 1m] "	"Frequency [Hz]"	"Sound Pessure Level [dB]  / [2.83V 1m] "	"Frequency [Hz]"	"Sound Pessure Level [dB]  / [2.83V 1m] "	"Frequency [Hz]"	"Sound Pessure Level [dB]  / [2.83V 1m] "	"Frequency [Hz]"	"Sound Pessure Level [dB]  / [2.83V 1m] "	"Frequency [Hz]"	"Sound Pessure Level [dB]  / [2.83V 1m] "	"Frequency [Hz]"	"Sound Pessure Level [dB]  / [2.83V 1m] "	"Frequency [Hz]"	"Sound Pessure Level [dB]  / [2.83V 1m] "	"Frequency [Hz]"	"Sound Pessure Level [dB]  / [2.83V 1m] "	"Frequency [Hz]"	"Sound Pessure Level [dB]  / [2.83V 1m] "	"Frequency [Hz]"	"Sound Pessure Level [dB]  / [2.83V 1m] "	"Frequency [Hz]"	"Sound Pessure Level [dB]  / [2.83V 1m] "	"Frequency [Hz]"	"Sound Pessure Level [dB]  / [2.83V 1m] "	"Frequency [Hz]"	"Sound Pessure Level [dB]  / [2.83V 1m] "	"Frequency [Hz]"	"Sound Pessure Level [dB]  / [2.83V 1m] "	"Frequency [Hz]"	"Sound Pessure Level [dB]  / [2.83V 1m] "	"Frequency [Hz]"	"Sound Pessure Level [dB]  / [2.83V 1m] "	"Frequency [Hz]"	"Sound Pessure Level [dB]  / [2.83V 1m] "	"Frequency [Hz]"	"Sound Pessure Level [dB]  / [2.83V 1m] "	"Frequency [Hz]"	"Sound Pessure Level [dB]  / [2.83V 1m] "	"Frequency [Hz]"	"Sound Pessure Level [dB]  / [2.83V 1m] "	"Frequency [Hz]"	"Sound Pessure Level [dB]  / [2.83V 1m] "	"Frequency [Hz]"	"Sound Pessure Level [dB]  / [2.83V 1m] "
20.5078	53.2168	20.5078	53.0977	20.5078	53.3741	20.5078	53.025	20.5078	53.56	20.5078	53.0043	20.5078	53.7641	20.5078	53.0385	20.5078	53.9759	20.5078	53.1272	20.5078	54.1862	20.5078	53.2665	20.5078	54.3873	20.5078	53.45	20.5078	54.5737	20.5078	53.6685	20.5078	54.7424	20.5078	53.9115	20.5078	54.8921	20.5078	54.167	20.5078	55.0238	20.5078	54.4233	20.5078	55.139	20.5078	54.6688	20.5078	55.2396	20.5078	54.8935	20.5078	55.3266	20.5078	55.089	20.5078	55.4	20.5078	55.2494	20.5078	55.458	20.5078	55.3713	20.5078	55.4971	20.5078	55.4544	20.5078	55.5129	20.5078	55.5003
23.4375	48.2101	23.4375	48.45	23.4375	47.9614	23.4375	48.6722	23.4375	47.7146	23.4375	48.8701	23.4375	47.4819	23.4375	49.0385	23.4375	47.2763	23.4375	49.1744	23.4375	47.1104	23.4375	49.2762	23.4375	46.9949	23.4375	49.3436	23.4375	46.9368	23.4375	49.3776	23.4375	46.9389	23.4375	49.3804	23.4375	46.9983	23.4375	49.3549	23.4375	47.1077	23.4375	49.3044	23.4375	47.2563	23.4375	49.2328	23.4375	47.4315	23.4375	49.1435	23.4375	47.621	23.4375	49.0396	23.4375	47.8144	23.4375	48.9236	23.4375	48.0038	23.4375	48.7969	23.4375	48.1846	23.4375	48.66	23.4375	48.3544	23.4375	48.5127
26.3672	48.0311	26.3672	48.4632	26.3672	47.5528	26.3672	48.84	26.3672	47.0409	26.3672	49.1558	26.3672	46.5121	26.3672	49.407	26.3672	45.9879	26.3672	49.592	26.3672	45.4932	26.3672	49.7104	26.3672	45.0552	26.3672	49.763	26.3672	44.7005	26.3672	49.7516	26.3672	44.4517	26.3672	49.6787	26.3672	44.3239	26.3672	49.5479	26.3672	44.3217	26.3672	49.3632	26.3672	44.4389	26.3672	49.1294	26.3672	44.6596	26.3672	48.8517	26.3672	44.9624	26.3672	48.5355	26.3672	45.3241	26.3672	48.1863	26.3672	45.7238	26.3672	47.8098	26.3672	46.144	26.3672	47.4113	26.3672	46.5715	26.3672	46.9964
29.2969	51.7469	29.2969	52.0749	29.2969	51.3974	29.2969	52.3696	29.2969	51.0398	29.2969	52.6214	29.2969	50.6877	29.2969	52.8229	29.2969	50.3536	29.2969	52.9691	29.2969	50.0467	29.2969	53.0567	29.2969	49.7729	29.2969	53.0839	29.2969	49.5347	29.2969	53.0505	29.2969	49.3331	29.2969	52.9574	29.2969	49.1698	29.2969	52.8068	29.2969	49.0494	29.2969	52.6022	29.2969	48.9792	29.2969	52.3484	29.2969	48.9678	29.2969	52.0517	29.2969	49.0229	29.2969	51.7198	29.2969	49.1482	29.2969	51.362	29.2969	49.342	29.2969	50.989	29.2969	49.5972	29.2969	50.6127	29.2969	49.903	29.2969	50.2462
32.2266	56.4785	32.2266	56.6857	32.2266	56.2631	32.2266	56.8768	32.2266	56.0479	32.2266	57.045	32.2266	55.841	32.2266	57.1847	32.2266	55.6496	32.2266	57.2921	32.2266	55.4792	32.2266	57.3645	32.2266	55.3335	32.2266	57.4009	32.2266	55.2148	32.2266	57.401	32.2266	55.1243	32.2266	57.3658	32.2266	55.0633	32.2266	57.2968	32.2266	55.0332	32.2266	57.1966	32.2266	55.0358	32.2266	57.0678	32.2266	55.0723	32.2266	56.9141	32.2266	55.1436	32.2266	56.7394	32.2266	55.2486	32.2266	56.5483	32.2266	55.3849	32.2266	56.346	32.2266	55.548	32.2266	56.1382	32.2266	55.7323	32.2266	55.9314
35.1563	60.516	35.1563	60.6555	35.1563	60.3766	35.1563	60.7883	35.1563	60.2437	35.1563	60.9082	35.1563	60.1232	35.1563	61.01	35.1563	60.0191	35.1563	61.0898	35.1563	59.9335	35.1563	61.1449	35.1563	59.8667	35.1563	61.174	35.1563	59.8171	35.1563	61.1768	35.1563	59.7826	35.1563	61.1542	35.1563	59.7613	35.1563	61.1076	35.1563	59.7522	35.1563	61.0393	35.1563	59.7555	35.1563	60.9521	35.1563	59.7725	35.1563	60.8492	35.1563	59.8053	35.1563	60.7339	35.1563	59.8554	35.1563	60.61	35.1563	59.924	35.1563	60.4815	35.1563	60.0105	35.1563	60.3529	35.1563	60.1131	35.1563	60.2286
38.0859	64.4365	38.0859	64.5167	38.0859	64.3526	38.0859	64.5891	38.0859	64.269	38.0859	64.6503	38.0859	64.1892	38.0859	64.6969	38.0859	64.1161	38.0859	64.7268	38.0859	64.0515	38.0859	64.7385	38.0859	63.9961	38.0859	64.7314	38.0859	63.9498	38.0859	64.7058	38.0859	63.912	38.0859	64.6631	38.0859	63.8817	38.0859	64.6051	38.0859	63.8581	38.0859	64.5343	38.0859	63.841	38.0859	64.4541	38.0859	63.8307	38.0859	64.3679	38.0859	63.8279	38.0859	64.2793	38.0859	63.8341	38.0859	64.1922	38.0859	63.8506	38.0859	64.11	38.0859	63.8785	38.0859	64.0356	38.0859	63.9188	38.0859	63.9713
41.0156	67.5901	41.0156	67.6862	41.0156	67.4857	41.0156	67.7704	41.0156	67.3766	41.0156	67.8396	41.0156	67.2665	41.0156	67.8914	41.0156	67.1588	41.0156	67.9238	41.0156	67.0563	41.0156	67.9358	41.0156	66.9613	41.0156	67.9267	41.0156	66.8756	41.0156	67.8967	41.0156	66.8006	41.0156	67.8467	41.0156	66.7373	41.0156	67.778	41.0156	66.6868	41.0156	67.6925	41.0156	66.6506	41.0156	67.5928	41.0156	66.6302	41.0156	67.4821	41.0156	66.6271	41.0156	67.3638	41.0156	66.643	41.0156	67.2421	41.0156	66.6787	41.0156	67.1214	41.0156	66.7344	41.0156	67.0061	41.0156	66.8091	41.0156	66.9007
43.9453	70.6332	43.9453	70.6844	43.9453	70.5766	43.9453	70.7283	43.9453	70.5168	43.9453	70.763	43.9453	70.4558	43.9453	70.7872	43.9453	70.3953	43.9453	70.7997	43.9453	70.3369	43.9453	70.8	43.9453	70.2818	43.9453	70.788	43.9453	70.2308	43.9453	70.7641	43.9453	70.1849	43.9453	70.7288	43.9453	70.1446	43.9453	70.6835	43.9453	70.1108	43.9453	70.6296	43.9453	70.0846	43.9453	70.5687	43.9453	70.0668	43.9453	70.5031	43.9453	70.0587	43.9453	70.4348	43.9453	70.0612	43.9453	70.3662	43.9453	70.0749	43.9453	70.2998	43.9453	70.1001	43.9453	70.238	43.9453	70.1364	43.9453	70.1828
46.875	72.4475	46.875	72.4886	46.875	72.3997	46.875	72.5216	46.875	72.3471	46.875	72.5452	46.875	72.2914	46.875	72.5583	46.875	72.2342	46.875	72.5604	46.875	72.1772	46.875	72.5511	46.875	72.1216	46.875	72.5308	46.875	72.0687	46.875	72.4999	46.875	72.0196	46.875	72.4594	46.875	71.9751	46.875	72.4106	46.875	71.9363	46.875	72.355	46.875	71.9042	46.875	72.2944	46.875	71.88	46.875	72.2309	46.875	71.8646	46.875	72.1665	46.875	71.8591	46.875	72.1034	46.875	71.8642	46.875	72.044	46.875	71.8802	46.875	71.9903	46.875	71.9071	46.875	71.9441
49.8047	73.702	49.8047	73.7294	49.8047	73.6674	49.8047	73.7488	49.8047	73.6271	49.8047	73.759	49.8047	73.5824	49.8047	73.7597	49.8047	73.5348	49.8047	73.7506	49.8047	73.4857	49.8047	73.7318	49.8047	73.4363	49.8047	73.7038	49.8047	73.3879	49.8047	73.6676	49.8047	73.3416	49.8047	73.6242	49.8047	73.2982	49.8047	73.575	49.8047	73.2588	49.8047	73.5218	49.8047	73.2243	49.8047	73.4663	49.8047	73.1957	49.8047	73.4106	49.8047	73.1738	49.8047	73.3564	49.8047	73.1596	49.8047	73.3058	49.8047	73.1538	49.8047	73.2605	49.8047	73.1571	49.8047	73.2219	49.8047	73.1696	49.8047	73.1914
55.6641	75.0824	55.6641	75.086	55.6641	75.0705	55.6641	75.081	55.6641	75.051	55.6641	75.0673	55.6641	75.0247	55.6641	75.0452	55.6641	74.9924	55.6641	75.0151	55.6641	74.9554	55.6641	74.978	55.6641	74.9147	55.6641	74.9349	55.6641	74.8715	55.6641	74.8872	55.6641	74.8268	55.6641	74.8364	55.6641	74.7817	55.6641	74.7844	55.6641	74.7373	55.6641	74.733	55.6641	74.6944	55.6641	74.684	55.6641	74.6541	55.6641	74.6392	55.6641	74.6175	55.6641	74.6003	55.6641	74.5855	55.6641	74.5685	55.6641	74.5593	55.6641	74.545	55.6641	74.5398	55.6641	74.5303	55.6641	74.528	55.6641	74.5247
58.5938	75.3896	58.5938	75.3877	58.5938	75.3828	58.5938	75.377	58.5938	75.3677	58.5938	75.3577	58.5938	75.3451	58.5938	75.3301	58.5938	75.316	58.5938	75.2951	58.5938	75.2816	58.5938	75.2538	58.5938	75.243	58.5938	75.2075	58.5938	75.2014	58.5938	75.1577	58.5938	75.1582	58.5938	75.1062	58.5938	75.1143	58.5938	75.0548	58.5938	75.0708	58.5938	75.0053	58.5938	75.0284	58.5938	74.9595	58.5938	74.9879	58.5938	74.9191	58.5938	74.9502	58.5938	74.8855	58.5938	74.9161	58.5938	74.8599	58.5938	74.8866	58.5938	74.843	58.5938	74.8628	58.5938	74.8351	58.5938	74.8456	58.5938	74.8361
61.5234	75.8441	61.5234	75.8298	61.5234	75.8489	61.5234	75.8064	61.5234	75.8444	61.5234	75.7743	61.5234	75.8308	61.5234	75.7346	61.5234	75.809	61.5234	75.6883	61.5234	75.7798	61.5234	75.6371	61.5234	75.7445	61.5234	75.5825	61.5234	75.7041	61.5234	75.5263	61.5234	75.66	61.5234	75.4705	61.5234	75.6134	61.5234	75.4169	61.5234	75.5652	61.5234	75.3675	61.5234	75.5167	61.5234	75.3242	61.5234	75.4686	61.5234	75.2883	61.5234	75.422	61.5234	75.2613	61.5234	75.378	61.5234	75.244	61.5234	75.3378	61.5234	75.2368	61.5234	75.3025	61.5234	75.2398	61.5234	75.2736	61.5234	75.2523
67.3828	76.5785	67.3828	76.5534	67.3828	76.5927	67.3828	76.5181	67.3828	76.5956	67.3828	76.4735	67.3828	76.5876	67.3828	76.4214	67.3828	76.5692	67.3828	76.3635	67.3828	76.5415	67.3828	76.3018	67.3828	76.506	67.3828	76.2384	67.3828	76.464	67.3828	76.1757	67.3828	76.4172	67.3828	76.1159	67.3828	76.3671	67.3828	76.061	67.3828	76.3149	67.3828	76.0129	67.3828	76.2618	67.3828	75.9732	67.3828	76.2088	67.3828	75.9431	67.3828	76.1568	67.3828	75.9235	67.3828	76.1068	67.3828	75.9147	67.3828	76.0599	67.3828	75.9166	67.3828	76.0173	67.3828	75.9288	67.3828	75.9804	67.3828	75.9504
73.2422	77.3563	73.2422	77.3169	73.2422	77.3827	73.2422	77.2657	73.2422	77.3957	73.2422	77.2042	73.2422	77.3954	73.2422	77.1344	73.2422	77.3822	73.2422	77.0586	73.2422	77.3572	73.2422	76.9795	73.2422	77.3218	73.2422	76.9001	73.2422	77.2775	73.2422	76.8232	73.2422	77.2261	73.2422	76.7518	73.2422	77.1694	73.2422	76.6887	73.2422	77.1089	73.2422	76.6361	73.2422	77.046	73.2422	76.5959	73.2422	76.9819	73.2422	76.5693	73.2422	76.9178	73.2422	76.5569	73.2422	76.8546	73.2422	76.5585	73.2422	76.7936	73.2422	76.5734	73.2422	76.736	73.2422	76.6003	73.2422	76.6834	73.2422	76.6376
76.1719	77.8835	76.1719	77.8474	76.1719	77.9051	76.1719	77.7979	76.1719	77.9119	76.1719	77.7367	76.1719	77.9038	76.1719	77.6657	76.1719	77.8815	76.1719	77.5873	76.1719	77.8461	76.1719	77.5043	76.1719	77.7993	76.1719	77.4195	76.1719	77.7431	76.1719	77.3357	76.1719	77.6795	76.1719	77.256	76.1719	77.6107	76.1719	77.1831	76.1719	77.5386	76.1719	77.1195	76.1719	77.4651	76.1719	77.0673	76.1719	77.3919	76.1719	77.028	76.1719	77.3204	76.1719	77.0028	76.1719	77.2521	76.1719	76.9919	76.1719	77.1885	76.1719	76.9952	76.1719	77.1311	76.1719	77.012	76.1719	77.0814	76.1719	77.0412
82.0313	78.8003	82.0313	78.7501	82.0313	78.8378	82.0313	78.6888	82.0313	78.8616	82.0313	78.6184	82.0313	78.8715	82.0313	78.5416	82.0313	78.8676	82.0313	78.4612	82.0313	78.8511	82.0313	78.3805	82.0313	78.8233	82.0313	78.3024	82.0313	78.7858	82.0313	78.23	82.0313	78.7405	82.0313	78.1661	82.0313	78.6891	82.0313	78.113	82.0313	78.6332	82.0313	78.0723	82.0313	78.5742	82.0313	78.0453	82.0313	78.5129	82.0313	78.0325	82.0313	78.4504	82.0313	78.0335	82.0313	78.3876	82.0313	78.0478	82.0313	78.3254	82.0313	78.0741	82.0313	78.2651	82.0313	78.1108	82.0313	78.2081	82.0313	78.1561
87.8906	79.7154	87.8906	79.6616	87.8906	79.7553	87.8906	79.5954	87.8906	79.7803	87.8906	79.5191	87.8906	79.7906	87.8906	79.4355	87.8906	79.7867	87.8906	79.348	87.8906	79.77	87.8906	79.26	87.8906	79.7422	87.8906	79.1751	87.8906	79.7053	87.8906	79.0969	87.8906	79.6613	87.8906	79.0286	87.8906	79.6118	87.8906	78.9728	87.8906	79.5582	87.8906	78.9316	87.8906	79.5013	87.8906	78.9063	87.8906	79.4415	87.8906	78.8972	87.8906	79.3793	87.8906	78.9041	87.8906	79.3151	87.8906	78.9257	87.8906	79.2496	87.8906	78.9604	87.8906	79.1841	87.8906	79.006	87.8906	79.1203	87.8906	79.0601
93.75	80.678	93.75	80.6268	93.75	80.7142	93.75	80.5621	93.75	80.7344	93.75	80.4867	93.75	80.7387	93.75	80.4034	93.75	80.7281	93.75	80.316	93.75	80.7044	93.75	80.2282	93.75	80.6698	93.75	80.1439	93.75	80.6272	93.75	80.0667	93.75	80.5791	93.75	79.9999	93.75	80.5279	93.75	79.9463	93.75	80.4752	93.75	79.9077	93.75	80.4221	93.75	79.8851	93.75	80.3686	93.75	79.8786	93.75	80.3146	93.75	79.8875	93.75	80.2598	93.75	79.9102	93.75	80.2041	93.75	79.9445	93.75	80.1478	93.75	79.988	93.75	80.0919	93.75	80.0379
102.539	82.0756	102.539	82.0175	102.539	82.1175	102.539	81.9454	102.539	82.1421	102.539	81.862	102.539	82.1495	102.539	81.7708	102.539	82.1405	102.539	81.6759	102.539	82.1171	102.539	81.5812	102.539	82.0818	102.539	81.4912	102.539	82.0376	102.539	81.4095	102.539	81.9876	102.539	81.3398	102.539	81.9342	102.539	81.2848	102.539	81.8792	102.539	81.2465	102.539	81.8238	102.539	81.2257	102.539	81.768	102.539	81.2226	102.539	81.7115	102.539	81.2361	102.539	81.6536	102.539	81.2644	102.539	81.5941	102.539	81.305	102.539	81.5331	102.539	81.3551	102.539	81.4717	102.539	81.4116
108.398	82.8735	108.398	82.8138	108.398	82.9162	108.398	82.7394	108.398	82.9408	108.398	82.6534	108.398	82.9476	108.398	82.5598	108.398	82.9379	108.398	82.4631	108.398	82.9141	108.398	82.3679	108.398	82.8795	108.398	82.2789	108.398	82.8377	108.398	82.2004	108.398	82.7922	108.398	82.136	108.398	82.7458	108.398	82.0886	108.398	82.7002	108.398	82.0598	108.398	82.6558	108.398	82.0501	108.398	82.612	108.398	82.059	108.398	82.5672	108.398	82.0846	108.398	82.52	108.398	82.1243	108.398	82.4691	108.398	82.1748	108.398	82.4138	108.398	82.2324	108.398	82.3547	108.398	82.2934
117.188	84.2557	117.188	84.1936	117.188	84.2972	117.188	84.1134	117.188	84.3169	117.188	84.0187	117.188	84.3147	117.188	83.914	117.188	84.2923	117.188	83.8042	117.188	84.2525	117.188	83.6945	117.188	84.1994	117.188	83.59	117.188	84.1375	117.188	83.4956	117.188	84.0716	117.188	83.4155	117.188	84.0057	117.188	83.3528	117.188	83.9425	117.188	83.3098	117.188	83.8833	117.188	83.2873	117.188	83.8278	117.188	83.2851	117.188	83.7745	117.188	83.3015	117.188	83.7215	117.188	83.3339	117.188	83.6671	117.188	83.3788	117.188	83.6103	117.188	83.4324	117.188	83.5511	117.188	83.491
125.977	85.3295	125.977	85.2628	125.977	85.3745	125.977	85.177	125.977	85.3966	125.977	85.0758	125.977	85.3963	125.977	84.964	125.977	85.3754	125.977	84.8468	125.977	85.3372	125.977	84.73	125.977	85.2859	125.977	84.6194	125.977	85.2265	125.977	84.5204	125.977	85.1635	125.977	84.4376	125.977	85.1008	125.977	84.3747	125.977	85.0409	125.977	84.334	125.977	84.9843	125.977	84.3164	125.977	84.9304	125.977	84.3211	125.977	84.8774	125.977	84.3459	125.977	84.8232	125.977	84.3876	125.977	84.7658	125.977	84.442	125.977	84.7044	125.977	84.5049	125.977	84.6393	125.977	84.5718
134.766	86.3034	134.766	86.235	134.766	86.3484	134.766	86.1462	134.766	86.3683	134.766	86.0415	134.766	86.3633	134.766	85.926	134.766	86.3351	134.766	85.8054	134.766	86.2873	134.766	85.6856	134.766	86.2246	134.766	85.5723	134.766	86.1529	134.766	85.4706	134.766	86.0778	134.766	85.385	134.766	86.004	134.766	85.3188	134.766	85.9349	134.766	85.2741	134.766	85.8717	134.766	85.2517	134.766	85.814	134.766	85.2511	134.766	85.7598	134.766	85.2701	134.766	85.7067	134.766	85.3059	134.766	85.6523	134.766	85.3544	134.766	85.595	134.766	85.4114	134.766	85.5348	134.766	85.4728
143.555	87.0257	143.555	86.9504	143.555	87.0747	143.555	86.8521	143.555	87.0956	143.555	86.7356	143.555	87.0889	143.555	86.6069	143.555	87.0568	143.555	86.4727	143.555	87.0035	143.555	86.3401	143.555	86.9346	143.555	86.216	143.555	86.8568	143.555	86.1066	143.555	86.7764	143.555	86.0172	143.555	86.699	143.555	85.9514	143.555	86.6282	143.555	85.9112	143.555	86.5654	143.555	85.8968	143.555	86.5096	143.555	85.9065	143.555	86.4584	143.555	85.937	143.555	86.4085	143.555	85.9841	143.555	86.3567	143.555	86.0427	143.555	86.3008	143.555	86.1079	143.555	86.2399	143.555	86.1748
155.273	87.6688	155.273	87.5919	155.273	87.7196	155.273	87.4921	155.273	87.7426	155.273	87.3743	155.273	87.7382	155.273	87.2445	155.273	87.7087	155.273	87.1094	155.273	87.6582	155.273	86.9761	155.273	87.5924	155.273	86.8517	155.273	87.5176	155.273	86.7425	155.273	87.4402	155.273	86.6539	155.273	87.3655	155.273	86.5899	155.273	87.2968	155.273	86.5523	155.273	87.2354	155.273	86.5413	155.273	87.1806	155.273	86.5551	155.273	87.1299	155.273	86.5902	155.273	87.0802	155.273	86.6418	155.273	87.0284	155.273	86.7047	155.273	86.972	155.273	86.7734	155.273	86.91	155.273	86.8431
164.063	87.839	164.063	87.7607	164.063	87.8884	164.063	87.6571	164.063	87.9076	164.063	87.5335	164.063	87.8976	164.063	87.3967	164.063	87.8622	164.063	87.2544	164.063	87.807	164.063	87.1149	164.063	87.7395	164.063	86.9863	164.063	87.6675	164.063	86.8759	164.063	87.5983	164.063	86.7899	164.063	87.5372	164.063	86.7326	164.063	87.4867	164.063	86.7061	164.063	87.4463	164.063	86.7102	164.063	87.4129	164.063	86.7422	164.063	87.3818	164.063	86.7975	164.063	87.348	164.063	86.8697	164.063	87.3071	164.063	86.952	164.063	87.2558	164.063	87.0371	164.063	87.1929	164.063	87.119
175.781	87.9686	175.781	87.8801	175.781	88.0218	175.781	87.7607	175.781	88.0382	175.781	87.6165	175.781	88.0188	175.781	87.4556	175.781	87.9677	175.781	87.2873	175.781	87.8916	175.781	87.1214	175.781	87.7995	175.781	86.9676	175.781	87.7012	175.781	86.8349	175.781	87.6063	175.781	86.7304	175.781	87.5222	175.781	86.6594	175.781	87.4531	175.781	86.6241	175.781	87.3993	175.781	86.624	175.781	87.3578	175.781	86.6559	175.781	87.3231	175.781	86.7142	175.781	87.2887	175.781	86.7916	175.781	87.2485	175.781	86.8799	175.781	87.1977	175.781	86.9708	175.781	87.1339	175.781	87.0573
190.43	88.0306	190.43	87.9476	190.43	88.0765	190.43	87.8313	190.43	88.0839	190.43	87.6875	190.43	88.0541	190.43	87.5235	190.43	87.9909	190.43	87.3479	190.43	87.9014	190.43	87.17	190.43	87.7942	190.43	86.9992	190.43	87.6796	190.43	86.845	190.43	87.5671	190.43	86.7152	190.43	87.4645	190.43	86.6163	190.43	87.3761	190.43	86.5521	190.43	87.3027	190.43	86.5236	190.43	87.2417	190.43	86.5291	190.43	87.188	190.43	86.5642	190.43	87.1359	190.43	86.6228	190.43	87.0801	190.43	86.6973	190.43	87.0169	190.43	86.7803	190.43	86.9447	190.43	86.8646
202.148	87.7517	202.148	87.6719	202.148	87.7946	202.148	87.5598	202.148	87.7989	202.148	87.4223	202.148	87.7663	202.148	87.268	202.148	87.7019	202.148	87.1062	202.148	87.6144	202.148	86.9469	202.148	87.5145	202.148	86.7999	202.148	87.4142	202.148	86.6739	202.148	87.3243	202.148	86.5762	202.148	87.2522	202.148	86.5121	202.148	87.2014	202.148	86.4841	202.148	87.1702	202.148	86.4919	202.148	87.1534	202.148	86.5318	202.148	87.1434	202.148	86.5979	202.148	87.1318	202.148	86.6821	202.148	87.1112	202.148	86.7752	202.148	87.0759	202.148	86.8681	202.148	87.0231	202.148	86.9527
216.797	87.3116	216.797	87.2205	216.797	87.3569	216.797	87.0892	216.797	87.3546	216.797	86.9259	216.797	87.307	216.797	86.7413	216.797	87.2209	216.797	86.5473	216.797	87.1077	216.797	86.3564	216.797	86.982	216.797	86.1809	216.797	86.8597	216.797	86.0319	216.797	86.7553	216.797	85.9187	216.797	86.6788	216.797	85.8479	216.797	86.6336	216.797	85.8225	216.797	86.6161	216.797	85.8418	216.797	86.6178	216.797	85.9012	216.797	86.6269	216.797	85.9925	216.797	86.6317	216.797	86.1051	216.797	86.622	216.797	86.2266	216.797	86.5903	216.797	86.345	216.797	86.5328	216.797	86.4497
234.375	87.1419	234.375	87.0398	234.375	87.189	234.375	86.8896	234.375	87.1775	234.375	86.7013	234.375	87.1081	234.375	86.487	234.375	86.9865	234.375	86.26	234.375	86.8236	234.375	86.0343	234.375	86.6353	234.375	85.8238	234.375	86.4411	234.375	85.6409	234.375	86.2616	234.375	85.4957	234.375	86.1144	234.375	85.3954	234.375	86.0107	234.375	85.3433	234.375	85.9522	234.375	85.3386	234.375	85.9321	234.375	85.3765	234.375	85.9367	234.375	85.4487	234.375	85.9497	234.375	85.5438	234.375	85.9557	234.375	85.649	234.375	85.9429	234.375	85.7514	234.375	85.9045	234.375	85.8393
249.023	86.7267	249.023	86.604	249.023	86.7887	249.023	86.4282	249.023	86.7864	249.023	86.2107	249.023	86.7213	249.023	85.9655	249.023	86.6002	249.023	85.7088	249.023	86.4351	249.023	85.4575	249.023	86.2432	249.023	85.2282	249.023	86.0448	249.023	85.0355	249.023	85.8604	249.023	84.8908	249.023	85.7075	249.023	84.8012	249.023	85.597	249.023	84.7686	249.023	85.5313	249.023	84.7899	249.023	85.5049	249.023	84.8571	249.023	85.5058	249.023	84.9584	249.023	85.5186	249.023	85.0797	249.023	85.5275	249.023	85.2056	249.023	85.5187	249.023	85.3218	249.023	85.4831	249.023	85.4168
266.602	86.5817	266.602	86.4599	266.602	86.6384	266.602	86.2809	266.602	86.6261	266.602	86.0555	266.602	86.5456	266.602	85.7971	266.602	86.4031	266.602	85.5206	266.602	86.2105	266.602	85.2417	266.602	85.9848	266.602	84.9759	266.602	85.7474	266.602	84.7381	266.602	85.5208	266.602	84.5418	266.602	85.3255	266.602	84.3975	266.602	85.1764	266.602	84.3122	266.602	85.0794	266.602	84.2875	266.602	85.0304	266.602	84.3194	266.602	85.0166	266.602	84.398	266.602	85.0193	266.602	84.5091	266.602	85.0191	266.602	84.6357	266.602	84.9995	266.602	84.7607	266.602	84.9504	266.602	84.8692
287.109	86.1369	287.109	86.0039	287.109	86.2001	287.109	85.8099	287.109	86.1895	287.109	85.5675	287.109	86.1068	287.109	85.2923	287.109	85.96	287.109	85.0016	287.109	85.7642	287.109	84.7136	287.109	85.5402	287.109	84.4459	287.109	85.3129	287.109	84.2139	287.109	85.1068	287.109	84.0304	287.109	84.941	287.109	83.9042	287.109	84.8254	287.109	83.84	287.109	84.759	287.109	83.8374	287.109	84.7315	287.109	83.8913	287.109	84.7276	287.109	83.9911	287.109	84.7297	287.109	84.1222	287.109	84.7216	287.109	84.2673	287.109	84.6904	287.109	84.4091	287.109	84.6281	287.109	84.5328
307.617	86.0629	307.617	85.9098	307.617	86.1315	307.617	85.6823	307.617	86.111	307.617	85.3951	307.617	86.0029	307.617	85.0665	307.617	85.8163	307.617	84.7179	307.617	85.5682	307.617	84.3721	307.617	85.2838	307.617	84.0516	307.617	84.9939	307.617	83.7759	307.617	84.7308	307.617	83.5602	307.617	84.5212	307.617	83.4138	307.617	84.3805	307.617	83.3409	307.617	84.3089	307.617	83.3404	307.617	84.2936	307.617	83.4064	307.617	84.3128	307.617	83.5274	307.617	84.3418	307.617	83.6865	307.617	84.3575	307.617	83.8624	307.617	84.3415	307.617	84.0328	307.617	84.2824	307.617	84.1775
331.055	86.1167	331.055	85.963	331.055	86.181	331.055	85.7299	331.055	86.1499	331.055	85.4303	331.055	86.0235	331.055	85.08	331.055	85.8087	331.055	84.6973	331.055	85.5213	331.055	84.3041	331.055	85.1866	331.055	83.9253	331.055	84.8383	331.055	83.5874	331.055	84.5147	331.055	83.3147	331.055	84.2514	331.055	83.1248	331.055	84.0718	331.055	83.0259	331.055	83.981	331.055	83.0159	331.055	83.9652	331.055	83.0846	331.055	83.9971	331.055	83.2156	331.055	84.0448	331.055	83.388	331.055	84.0785	331.055	83.5779	331.055	84.0751	331.055	83.7606	331.055	84.0212	331.055	83.9138
354.492	85.7738	354.492	85.6028	354.492	85.8501	354.492	85.3508	354.492	85.824	354.492	85.0358	354.492	85.6949	354.492	84.6782	354.492	85.4699	354.492	84.2989	354.492	85.1655	354.492	83.9175	354.492	84.8068	354.492	83.5518	354.492	84.4266	354.492	83.2182	354.492	84.0621	354.492	82.9333	354.492	83.7491	354.492	82.7139	354.492	83.5157	354.492	82.575	354.492	83.3768	354.492	82.5256	354.492	83.3291	354.492	82.5649	354.492	83.3519	354.492	82.6799	354.492	83.4112	354.492	82.8475	354.492	83.4692	354.492	83.038	354.492	83.4928	354.492	83.2205	354.492	83.4612	354.492	83.3679
377.93	85.3097	377.93	85.1261	377.93	85.3914	377.93	84.8548	377.93	85.3639	377.93	84.5151	377.93	85.2283	377.93	84.1308	377.93	84.9954	377.93	83.7282	377.93	84.6866	377.93	83.3359	377.93	84.3344	377.93	82.9818	377.93	83.9799	377.93	82.6909	377.93	83.6673	377.93	82.4815	377.93	83.435	377.93	82.3622	377.93	83.3044	377.93	82.332	377.93	83.273	377.93	82.3823	377.93	83.3166	377.93	82.4997	377.93	83.3989	377.93	82.6675	377.93	83.4836	377.93	82.8654	377.93	83.5418	377.93	83.0705	377.93	83.5545	377.93	83.2593	377.93	83.5116	377.93	83.4111
407.227	86.0839	407.227	85.8532	407.227	86.1848	407.227	85.5074	407.227	86.1487	407.227	85.0671	407.227	85.9763	407.227	84.558	407.227	85.6779	407.227	84.0101	407.227	85.2743	407.227	83.4564	407.227	84.7972	407.227	82.9331	407.227	84.2891	407.227	82.4779	407.227	83.799	407.227	82.1273	407.227	83.3771	407.227	81.9098	407.227	83.0667	407.227	81.8391	407.227	82.8962	407.227	81.9103	407.227	82.8699	407.227	82.1007	407.227	82.9639	407.227	82.3743	407.227	83.1288	407.227	82.6869	407.227	83.3042	407.227	82.9917	407.227	83.4337	407.227	83.2455	407.227	83.4768	407.227	83.4137
436.523	85.4098	436.523	85.1617	436.523	85.5177	436.523	84.782	436.523	85.4821	436.523	84.2859	436.523	85.3052	436.523	83.6983	436.523	84.9962	436.523	83.057	436.523	84.5743	436.523	82.4126	436.523	84.0713	436.523	81.8223	436.523	83.5324	436.523	81.3376	436.523	83.0126	436.523	80.9898	436.523	82.567	436.523	80.7856	436.523	82.2385	436.523	80.7136	436.523	82.048	436.523	80.7554	436.523	81.9908	436.523	80.893	436.523	82.0389	436.523	81.1077	436.523	82.1446	436.523	81.3754	436.523	82.2513	436.523	81.6637	436.523	82.3067	436.523	81.934	436.523	82.2759	436.523	82.1478
465.82	85.8097	465.82	85.5623	465.82	85.918	465.82	85.1879	465.82	85.8805	465.82	84.7036	465.82	85.6971	465.82	84.1305	465.82	85.3753	465.82	83.4945	465.82	84.9323	465.82	82.8278	465.82	84.3959	465.82	82.1703	465.82	83.8062	465.82	81.5706	465.82	83.2139	465.82	81.0816	465.82	82.6771	465.82	80.7501	465.82	82.2532	465.82	80.6023	465.82	81.9851	465.82	80.6349	465.82	81.8868	465.82	80.8182	465.82	81.9353	465.82	81.1066	465.82	82.0761	465.82	81.4481	465.82	82.2391	465.82	81.7904	465.82	82.3574	465.82	82.0846	465.82	82.3822	465.82	82.2903
500.977	85.9352	500.977	85.6694	500.977	86.0675	500.977	85.2847	500.977	86.055	500.977	84.7973	500.977	85.892	500.977	84.2235	500.977	85.5804	500.977	83.5803	500.977	85.1318	500.977	82.8864	500.977	84.5696	500.977	82.1664	500.977	83.9299	500.977	81.4574	500.977	83.2626	500.977	80.8123	500.977	82.6331	500.977	80.2982	500.977	82.1181	500.977	79.9821	500.977	81.7893	500.977	79.9069	500.977	81.6803	500.977	80.071	500.977	81.7605	500.977	80.4247	500.977	81.9456	500.977	80.8867	500.977	82.1371	500.977	81.3671	500.977	82.2548	500.977	81.787	500.977	82.247	500.977	82.0901
536.133	85.3675	536.133	85.124	536.133	85.4754	536.133	84.761	536.133	85.4392	536.133	84.3001	536.133	85.2603	536.133	83.766	536.133	84.9512	536.133	83.186	536.133	84.5341	536.133	82.5892	536.133	84.0383	536.133	82.0048	536.133	83.4963	536.133	81.4599	536.133	82.9408	536.133	80.9791	536.133	82.407	536.133	80.5865	536.133	81.9377	536.133	80.3086	536.133	81.5863	536.133	80.173	536.133	81.4047	536.133	80.2012	536.133	81.412	536.133	80.3942	536.133	81.5648	536.133	80.7202	536.133	81.7665	536.133	81.1136	536.133	81.9117	536.133	81.4924	536.133	81.9256	536.133	81.7804
574.219	86.3462	574.219	86.0355	574.219	86.4547	574.219	85.5451	574.219	86.3476	574.219	84.9023	574.219	86.0253	574.219	84.1377	574.219	85.5049	574.219	83.2853	574.219	84.823	574.219	82.3872	574.219	84.0344	574.219	81.4982	574.219	83.2039	574.219	80.6853	574.219	82.3924	574.219	80.0183	574.219	81.647	574.219	79.5521	574.219	81.0115	574.219	79.3114	574.219	80.5497	574.219	79.2884	574.219	80.3437	574.219	79.4563	574.219	80.4365	574.219	79.7811	574.219	80.764	574.219	80.2203	574.219	81.1684	574.219	80.7098	574.219	81.4833	574.219	81.162	574.219	81.5999	574.219	81.4832
615.234	85.8328	615.234	85.541	615.234	85.9499	615.234	85.0932	615.234	85.8806	615.234	84.5162	615.234	85.6204	615.234	83.8427	615.234	85.1733	615.234	83.1087	615.234	84.5555	615.234	82.3526	615.234	83.8008	615.234	81.6157	615.234	82.9644	615.234	80.9441	615.234	82.1191	615.234	80.3842	615.234	81.3453	615.234	79.9739	615.234	80.718	615.234	79.733	615.234	80.2981	615.234	79.6611	615.234	80.1192	615.234	79.7421	615.234	80.1676	615.234	79.9496	615.234	80.3792	615.234	80.2449	615.234	80.6605	615.234	80.572	615.234	80.9129	615.234	80.8592	615.234	81.0535	615.234	81.0351
659.18	86.5461	659.18	86.2491	659.18	86.6135	659.18	85.7352	659.18	86.4507	659.18	85.0306	659.18	86.0691	659.18	84.1741	659.18	85.4937	659.18	83.2132	659.18	84.7631	659.18	82.1973	659.18	83.9267	659.18	81.1741	659.18	83.0358	659.18	80.1965	659.18	82.1327	659.18	79.3328	659.18	81.2485	659.18	78.6668	659.18	80.4222	659.18	78.2752	659.18	79.7413	659.18	78.1986	659.18	79.361	659.18	78.4286	659.18	79.4134	659.18	78.9093	659.18	79.8404	659.18	79.54	659.18	80.4042	659.18	80.1887	659.18	80.8686	659.18	80.7244	659.18	81.0984	659.18	81.0467
706.055	86.6237	706.055	86.48	706.055	86.5849	706.055	86.1516	706.055	86.3652	706.055	85.6411	706.055	85.9681	706.055	84.9635	706.055	85.4077	706.055	84.1488	706.055	84.7189	706.055	83.2344	706.055	83.9598	706.055	82.2567	706.055	83.2	706.055	81.2537	706.055	82.4887	706.055	80.2833	706.055	81.8244	706.055	79.4375	706.055	81.1631	706.055	78.8241	706.055	80.4747	706.055	78.5114	706.055	79.8184	706.055	78.4951	706.055	79.3873	706.055	78.729	706.055	79.3926	706.055	79.1585	706.055	79.7944	706.055	79.7004	706.055	80.287	706.055	80.2173	706.055	80.5805	706.055	80.55
758.789	87.217	758.789	86.9789	758.789	87.2973	758.789	86.6054	758.789	87.1971	758.789	86.1141	758.789	86.8989	758.789	85.514	758.789	86.3962	758.789	84.8081	758.789	85.7006	758.789	84.0055	758.789	84.8523	758.789	83.1355	758.789	83.9263	758.789	82.2517	758.789	83.0209	758.789	81.42	758.789	82.2185	758.789	80.7029	758.789	81.5527	758.789	80.1564	758.789	81.0224	758.789	79.8268	758.789	80.6364	758.789	79.7343	758.789	80.4379	758.789	79.8687	758.789	80.494	758.789	80.2039	758.789	80.8097	758.789	80.6799	758.789	81.2284	758.789	81.1653	758.789	81.5059	758.789	81.4842
811.523	87.3335	811.523	87.0582	811.523	87.4346	811.523	86.639	811.523	87.334	811.523	86.1025	811.523	87.0126	811.523	85.467	811.523	86.4654	811.523	84.7406	811.523	85.708	811.523	83.927	811.523	84.7872	811.523	83.0408	811.523	83.79	811.523	82.1253	811.523	82.8336	811.523	81.2566	811.523	82.0177	811.523	80.5255	811.523	81.3756	811.523	80.0126	811.523	80.8992	811.523	79.768	811.523	80.6075	811.523	79.7885	811.523	80.5428	811.523	80.0131	811.523	80.6949	811.523	80.3631	811.523	80.9768	811.523	80.7701	811.523	81.2663	811.523	81.152	811.523	81.4377	811.523	81.4014
870.117	87.0578	870.117	86.8324	870.117	87.1061	870.117	86.4261	870.117	86.9753	870.117	85.8381	870.117	86.6593	870.117	85.0839	870.117	86.1573	870.117	84.2023	870.117	85.4849	870.117	83.2483	870.117	84.679	870.117	82.2799	870.117	83.7928	870.117	81.3507	870.117	82.8781	870.117	80.5162	870.117	81.973	870.117	79.8457	870.117	81.1039	870.117	79.4123	870.117	80.2877	870.117	79.2454	870.117	79.5675	870.117	79.2918	870.117	79.1486	870.117	79.4678	870.117	79.3386	870.117	79.7478	870.117	80.0233	870.117	80.1464	870.117	80.6942	870.117	80.6032	870.117	81.0195	870.117	80.9534
931.641	87.1099	931.641	86.9278	931.641	86.9858	931.641	86.4334	931.641	86.6093	931.641	85.6884	931.641	86.046	931.641	84.7992	931.641	85.3477	931.641	83.8478	931.641	84.547	931.641	82.8447	931.641	83.6757	931.641	81.7671	931.641	82.7947	931.641	80.6493	931.641	82.0116	931.641	79.6492	931.641	81.4366	931.641	79.0132	931.641	81.0776	931.641	78.8721	931.641	80.7959	931.641	79.0663	931.641	80.4044	931.641	79.2958	931.641	79.8461	931.641	79.396	931.641	79.4034	931.641	79.4561	931.641	79.5617	931.641	79.7064	931.641	80.1979	931.641	80.1899	931.641	80.6631	931.641	80.6238
999.023	87.0332	999.023	86.8876	999.023	86.9231	999.023	86.4406	999.023	86.6091	999.023	85.6855	999.023	86.1223	999.023	84.6792	999.023	85.4696	999.023	83.5425	999.023	84.6524	999.023	82.4194	999.023	83.6896	999.023	81.4028	999.023	82.6308	999.023	80.5002	999.023	81.5572	999.023	79.6748	999.023	80.5715	999.023	78.9013	999.023	79.7673	999.023	78.2226	999.023	79.1619	999.023	77.8061	999.023	78.6535	999.023	77.8307	999.023	78.16	999.023	78.2262	999.023	77.9203	999.023	78.7619	999.023	78.3971	999.023	79.3408	999.023	79.3919	999.023	79.9248	999.023	80.1534	999.023	80.2986
1,072.27	86.7202	1,072.27	86.5659	1,072.27	86.5659	1,072.27	86.0972	1,072.27	86.1251	1,072.27	85.3129	1,072.27	85.4508	1,072.27	84.2375	1,072.27	84.6086	1,072.27	82.9503	1,072.27	83.6406	1,072.27	81.5698	1,072.27	82.5662	1,072.27	80.1793	1,072.27	81.4417	1,072.27	78.7966	1,072.27	80.4207	1,072.27	77.4909	1,072.27	79.7133	1,072.27	76.5085	1,072.27	79.3972	1,072.27	76.1328	1,072.27	79.2812	1,072.27	76.3849	1,072.27	79.0562	1,072.27	77.0363	1,072.27	78.5921	1,072.27	77.7998	1,072.27	78.0891	1,072.27	78.4516	1,072.27	77.9386	1,072.27	78.9167	1,072.27	78.3206	1,072.27	79.206	1,072.27	78.9089	1,072.27	79.2446
1,148.44	87.4582	1,148.44	87.1328	1,148.44	87.2815	1,148.44	86.4013	1,148.44	86.6397	1,148.44	85.4319	1,148.44	85.6794	1,148.44	84.3342	1,148.44	84.5682	1,148.44	83.1021	1,148.44	83.4	1,148.44	81.7227	1,148.44	82.2007	1,148.44	80.3088	1,148.44	81.0345	1,148.44	79.0781	1,148.44	80.0271	1,148.44	78.1511	1,148.44	79.2364	1,148.44	77.4208	1,148.44	78.6202	1,148.44	76.6877	1,148.44	78.1949	1,148.44	75.9095	1,148.44	77.9442	1,148.44	75.4388	1,148.44	77.643	1,148.44	75.7982	1,148.44	77.3087	1,148.44	76.8282	1,148.44	77.4515	1,148.44	77.9074	1,148.44	78.1279	1,148.44	78.6681	1,148.44	78.7594	1,148.44	78.9679
1,230.47	87.5641	1,230.47	87.3779	1,230.47	87.246	1,230.47	86.6728	1,230.47	86.5135	1,230.47	85.5527	1,230.47	85.4832	1,230.47	84.2356	1,230.47	84.2616	1,230.47	82.9533	1,230.47	82.9313	1,230.47	81.7991	1,230.47	81.5482	1,230.47	80.7072	1,230.47	80.1272	1,230.47	79.6347	1,230.47	78.6632	1,230.47	78.7399	1,230.47	77.3149	1,230.47	78.2492	1,230.47	76.5756	1,230.47	78.0683	1,230.47	76.6578	1,230.47	77.8404	1,230.47	77.0164	1,230.47	77.3881	1,230.47	77.1388	1,230.47	76.8773	1,230.47	76.8487	1,230.47	76.6923	1,230.47	76.6628	1,230.47	77.1665	1,230.47	77.5063	1,230.47	78.1139	1,230.47	78.5865	1,230.47	78.798
1,318.36	87.2808	1,318.36	87.7624	1,318.36	86.4236	1,318.36	87.7003	1,318.36	85.3559	1,318.36	87.0419	1,318.36	84.1967	1,318.36	85.9262	1,318.36	83.0657	1,318.36	84.6341	1,318.36	82.0306	1,318.36	83.4101	1,318.36	80.9665	1,318.36	82.3306	1,318.36	79.6565	1,318.36	81.2962	1,318.36	78.202	1,318.36	80.0669	1,318.36	77.3451	1,318.36	78.5465	1,318.36	77.3403	1,318.36	77.3797	1,318.36	77.224	1,318.36	77.4897	1,318.36	76.6225	1,318.36	78.0843	1,318.36	75.9214	1,318.36	77.9415	1,318.36	74.9554	1,318.36	76.8573	1,318.36	74.2464	1,318.36	75.9848	1,318.36	75.5987	1,318.36	76.7308	1,318.36	77.2946	1,318.36	77.654
1,415.04	88.1728	1,415.04	88.2777	1,415.04	87.5118	1,415.04	87.8265	1,415.04	86.6096	1,415.04	86.9779	1,415.04	85.8614	1,415.04	85.8224	1,415.04	85.3867	1,415.04	84.4186	1,415.04	85.0681	1,415.04	82.9878	1,415.04	84.7225	1,415.04	81.8051	1,415.04	84.179	1,415.04	80.7955	1,415.04	83.3232	1,415.04	79.7892	1,415.04	82.0622	1,415.04	78.8934	1,415.04	80.4325	1,415.04	78.1618	1,415.04	79.2489	1,415.04	77.7795	1,415.04	79.5414	1,415.04	78.3213	1,415.04	79.9807	1,415.04	79.2644	1,415.04	78.935	1,415.04	79.3495	1,415.04	76.156	1,415.04	78.2112	1,415.04	74.7369	1,415.04	76.9482	1,415.04	76.1757	1,415.04	76.7544
1,514.65	87.2952	1,514.65	87.2278	1,514.65	87.0393	1,514.65	86.6485	1,514.65	86.7559	1,514.65	85.704	1,514.65	86.3872	1,514.65	84.5311	1,514.65	85.8038	1,514.65	82.9721	1,514.65	85.1206	1,514.65	80.9087	1,514.65	84.4893	1,514.65	78.8522	1,514.65	83.9568	1,514.65	77.7134	1,514.65	83.4086	1,514.65	77.4914	1,514.65	82.3956	1,514.65	77.3748	1,514.65	80.5714	1,514.65	76.603	1,514.65	78.8939	1,514.65	74.8453	1,514.65	78.6274	1,514.65	73.7987	1,514.65	78.7486	1,514.65	75.3785	1,514.65	78.5909	1,514.65	76.6304	1,514.65	76.9003	1,514.65	76.3166	1,514.65	73.2984	1,514.65	75.2166	1,514.65	72.9715	1,514.65	74.3751
1,623.05	85.7551	1,623.05	85.0994	1,623.05	86.3854	1,623.05	84.4719	1,623.05	86.664	1,623.05	83.5341	1,623.05	86.5303	1,623.05	82.2832	1,623.05	86.0951	1,623.05	81.139	1,623.05	85.3461	1,623.05	80.2501	1,623.05	84.1604	1,623.05	79.3246	1,623.05	82.6522	1,623.05	77.794	1,623.05	81.5017	1,623.05	74.6706	1,623.05	81.0352	1,623.05	71.1791	1,623.05	80.299	1,623.05	74.1824	1,623.05	78.7895	1,623.05	76.3904	1,623.05	77.525	1,623.05	75.6523	1,623.05	77.0687	1,623.05	73.1282	1,623.05	76.822	1,623.05	72.1361	1,623.05	75.7536	1,623.05	71.9913	1,623.05	72.9067	1,623.05	70.4333	1,623.05	69.6281	1,623.05	68.9049
1,740.23	86.0231	1,740.23	85.4523	1,740.23	86.1016	1,740.23	84.6068	1,740.23	85.8231	1,740.23	83.7478	1,740.23	85.3027	1,740.23	82.7745	1,740.23	84.4715	1,740.23	81.4715	1,740.23	83.3553	1,740.23	79.759	1,740.23	81.9827	1,740.23	78.0015	1,740.23	80.1637	1,740.23	77.0512	1,740.23	77.9809	1,740.23	76.4258	1,740.23	77.0048	1,740.23	74.6549	1,740.23	77.629	1,740.23	70.9837	1,740.23	77.4038	1,740.23	68.973	1,740.23	76.1461	1,740.23	71.6367	1,740.23	75.9355	1,740.23	73.309	1,740.23	76.1647	1,740.23	73.4272	1,740.23	75.1574	1,740.23	72.3269	1,740.23	72.8772	1,740.23	70.9342	1,740.23	71.1965	1,740.23	70.7261
1,866.21	84.8055	1,866.21	84.8615	1,866.21	84.6261	1,866.21	84.454	1,866.21	84.3595	1,866.21	83.6097	1,866.21	83.7048	1,866.21	82.4653	1,866.21	82.6708	1,866.21	80.8582	1,866.21	81.4666	1,866.21	78.8754	1,866.21	80.0615	1,866.21	76.7799	1,866.21	78.3626	1,866.21	74.673	1,866.21	76.3981	1,866.21	74.1262	1,866.21	74.6319	1,866.21	74.9766	1,866.21	74.3075	1,866.21	74.3575	1,866.21	74.9093	1,866.21	71.3866	1,866.21	74.3378	1,866.21	68.2251	1,866.21	73.5968	1,866.21	70.0092	1,866.21	74.6176	1,866.21	72.1885	1,866.21	73.8832	1,866.21	72.52	1,866.21	71.1114	1,866.21	71.4476	1,866.21	69.6397	1,866.21	70.1271
2,000.98	84.6249	2,000.98	84.4963	2,000.98	84.1533	2,000.98	83.6666	2,000.98	83.6285	2,000.98	82.5684	2,000.98	83.105	2,000.98	81.668	2,000.98	82.2028	2,000.98	80.8585	2,000.98	80.5265	2,000.98	79.3254	2,000.98	78.2727	2,000.98	76.7655	2,000.98	76.6173	2,000.98	73.612	2,000.98	75.2986	2,000.98	71.2629	2,000.98	73.4532	2,000.98	72.3968	2,000.98	72.7538	2,000.98	73.3373	2,000.98	72.9944	2,000.98	70.7501	2,000.98	73.0336	2,000.98	67.702	2,000.98	73.527	2,000.98	70.7164	2,000.98	73.7502	2,000.98	71.5171	2,000.98	73.4953	2,000.98	70.0814	2,000.98	71.1418	2,000.98	68.4798	2,000.98	67.9171	2,000.98	67.4153
2,144.53	84.0953	2,144.53	83.8424	2,144.53	84.1942	2,144.53	83.4271	2,144.53	83.847	2,144.53	82.775	2,144.53	83.2163	2,144.53	81.6567	2,144.53	82.4363	2,144.53	79.9786	2,144.53	80.9224	2,144.53	77.8549	2,144.53	78.5044	2,144.53	75.4529	2,144.53	76.121	2,144.53	74.1802	2,144.53	74.7385	2,144.53	73.2374	2,144.53	73.3429	2,144.53	70.9658	2,144.53	72.9089	2,144.53	71.7408	2,144.53	73.9273	2,144.53	72.4462	2,144.53	73.3435	2,144.53	69.7177	2,144.53	73.1806	2,144.53	67.6546	2,144.53	73.1392	2,144.53	70.5733	2,144.53	72.8382	2,144.53	70.4484	2,144.53	70.2632	2,144.53	67.1098	2,144.53	65.7591	2,144.53	64.1441
2,296.88	85.3586	2,296.88	84.5421	2,296.88	85.5018	2,296.88	83.3066	2,296.88	84.7015	2,296.88	81.7689	2,296.88	82.8698	2,296.88	79.8881	2,296.88	80.4944	2,296.88	77.5557	2,296.88	78.4471	2,296.88	75.9751	2,296.88	76.5719	2,296.88	74.9803	2,296.88	74.2389	2,296.88	72.5318	2,296.88	72.2686	2,296.88	71.628	2,296.88	71.1938	2,296.88	70.6279	2,296.88	68.8745	2,296.88	67.2551	2,296.88	71.0521	2,296.88	69.1499	2,296.88	71.3182	2,296.88	70.4648	2,296.88	69.1609	2,296.88	67.6329	2,296.88	69.8729	2,296.88	67.9855	2,296.88	70.6137	2,296.88	68.9973	2,296.88	68.39	2,296.88	65.5825	2,296.88	62.4	2,296.88	60.2968
2,460.94	85.2442	2,460.94	84.167	2,460.94	85.5012	2,460.94	82.8077	2,460.94	84.6522	2,460.94	81.4066	2,460.94	82.6594	2,460.94	80.1335	2,460.94	79.7609	2,460.94	78.9378	2,460.94	76.497	2,460.94	77.0725	2,460.94	74.1163	2,460.94	74.7797	2,460.94	73.1439	2,460.94	72.1902	2,460.94	71.8911	2,460.94	69.9232	2,460.94	70.1992	2,460.94	70.8737	2,460.94	68.8181	2,460.94	70.6849	2,460.94	67.2986	2,460.94	68.6931	2,460.94	69.2121	2,460.94	68.9972	2,460.94	68.7934	2,460.94	68.5878	2,460.94	66.4542	2,460.94	67.2973	2,460.94	68.7776	2,460.94	66.929	2,460.94	69.0216	2,460.94	64.0809	2,460.94	65.1185	2,460.94	60.7119
2,639.65	85.6207	2,639.65	84.2329	2,639.65	86.0445	2,639.65	82.504	2,639.65	84.9818	2,639.65	80.7735	2,639.65	82.4709	2,639.65	79.538	2,639.65	78.9214	2,639.65	78.0914	2,639.65	75.6024	2,639.65	75.6372	2,639.65	74.4862	2,639.65	73.341	2,639.65	74.1902	2,639.65	72.4639	2,639.65	72.7982	2,639.65	71.2883	2,639.65	69.7999	2,639.65	69.1762	2,639.65	68.0857	2,639.65	68.2249	2,639.65	68.0025	2,639.65	68.5011	2,639.65	67.095	2,639.65	68.2292	2,639.65	69.3366	2,639.65	67.4834	2,639.65	67.5536	2,639.65	67.2174	2,639.65	66.75	2,639.65	64.9665	2,639.65	69.8977	2,639.65	59.2874	2,639.65	68.1945	2,639.65	62.3126
2,827.15	85.7536	2,827.15	83.8234	2,827.15	85.9422	2,827.15	80.9292	2,827.15	84.2608	2,827.15	78.9392	2,827.15	80.7616	2,827.15	77.9144	2,827.15	76.1202	2,827.15	76.7912	2,827.15	74.2988	2,827.15	75.425	2,827.15	75.1546	2,827.15	73.5009	2,827.15	74.2685	2,827.15	70.3464	2,827.15	72.4303	2,827.15	67.4696	2,827.15	69.3423	2,827.15	68.2873	2,827.15	59.3602	2,827.15	68.1263	2,827.15	61.5778	2,827.15	67.8326	2,827.15	64.8095	2,827.15	68.6724	2,827.15	66.1596	2,827.15	67.0498	2,827.15	67.0011	2,827.15	66.4289	2,827.15	64.5001	2,827.15	64.1915	2,827.15	68.2961	2,827.15	57.6627	2,827.15	66.3071	2,827.15	61.5422
3,032.23	86.4593	3,032.23	84.1141	3,032.23	86.8199	3,032.23	80.7445	3,032.23	84.5723	3,032.23	78.4491	3,032.23	79.2163	3,032.23	78.6872	3,032.23	72.7424	3,032.23	78.0549	3,032.23	73.9067	3,032.23	75.4046	3,032.23	74.8965	3,032.23	73.417	3,032.23	74.0398	3,032.23	73.6027	3,032.23	72.0899	3,032.23	71.9735	3,032.23	71.9063	3,032.23	70.2188	3,032.23	71.1514	3,032.23	69.9056	3,032.23	65.8776	3,032.23	69.4934	3,032.23	65.6428	3,032.23	69.786	3,032.23	65.4509	3,032.23	68.4485	3,032.23	65.28	3,032.23	67.7998	3,032.23	60.4404	3,032.23	65.9283	3,032.23	63.6156	3,032.23	57.7394	3,032.23	64.7561	3,032.23	63.7249
3,249.02	86.7276	3,249.02	84.4055	3,249.02	87.0917	3,249.02	79.7323	3,249.02	84.9431	3,249.02	76.971	3,249.02	79.0272	3,249.02	78.3893	3,249.02	76.7123	3,249.02	77.3297	3,249.02	78.2901	3,249.02	76.8859	3,249.02	76.5276	3,249.02	76.2241	3,249.02	75.3066	3,249.02	73.7249	3,249.02	75.3866	3,249.02	71.0143	3,249.02	76.5183	3,249.02	70.679	3,249.02	75.9907	3,249.02	70.7934	3,249.02	70.7524	3,249.02	70.7849	3,249.02	69.9815	3,249.02	71.3279	3,249.02	65.649	3,249.02	70.0421	3,249.02	67.4235	3,249.02	69.1925	3,249.02	61.8932	3,249.02	66.5256	3,249.02	62.8017	3,249.02	53.8171	3,249.02	67.4179	3,249.02	66.2346
3,483.4	87.0397	3,483.4	84.4487	3,483.4	87.059	3,483.4	76.0187	3,483.4	84.2661	3,483.4	73.1276	3,483.4	76.1906	3,483.4	78.666	3,483.4	78.1719	3,483.4	79.3044	3,483.4	81.3918	3,483.4	79.1837	3,483.4	80.122	3,483.4	77.8037	3,483.4	79.4871	3,483.4	77.1144	3,483.4	79.1834	3,483.4	75.4852	3,483.4	78.1127	3,483.4	73.2075	3,483.4	76.7898	3,483.4	72.5842	3,483.4	69.7003	3,483.4	72.4125	3,483.4	70.68	3,483.4	73.336	3,483.4	64.2363	3,483.4	71.5965	3,483.4	64.9731	3,483.4	70.3567	3,483.4	68.0429	3,483.4	68.7493	3,483.4	54.3297	3,483.4	51.2952	3,483.4	66.1409	3,483.4	64.9818
3,732.42	87.4536	3,732.42	84.8216	3,732.42	86.4606	3,732.42	75.3641	3,732.42	81.8435	3,732.42	71.3936	3,732.42	68.0952	3,732.42	77.6659	3,732.42	80.4954	3,732.42	80.1956	3,732.42	83.8042	3,732.42	80.6629	3,732.42	83.5112	3,732.42	78.7067	3,732.42	81.2108	3,732.42	76.9242	3,732.42	77.3473	3,732.42	75.3038	3,732.42	71.2653	3,732.42	73.8551	3,732.42	71.2938	3,732.42	72.9415	3,732.42	68.3422	3,732.42	69.6973	3,732.42	71.6521	3,732.42	72.6781	3,732.42	69.8557	3,732.42	73.1934	3,732.42	63.5861	3,732.42	70.1159	3,732.42	66.5025	3,732.42	68.235	3,732.42	60.308	3,732.42	56.6522	3,732.42	67.4705	3,732.42	65.3689
3,999.02	86.7082	3,999.02	83.8642	3,999.02	85.3064	3,999.02	74.9679	3,999.02	79.053	3,999.02	73.3082	3,999.02	63.4554	3,999.02	80.222	3,999.02	80.1673	3,999.02	82.09	3,999.02	83.4304	3,999.02	81.1501	3,999.02	83.051	3,999.02	79.8588	3,999.02	79.9359	3,999.02	78.6275	3,999.02	75.8805	3,999.02	75.9538	3,999.02	71.88	3,999.02	73.5515	3,999.02	74.265	3,999.02	73.5114	3,999.02	71.7889	3,999.02	71.5429	3,999.02	70.339	3,999.02	71.4949	3,999.02	69.5753	3,999.02	73.0324	3,999.02	57.4343	3,999.02	70.9748	3,999.02	62.8967	3,999.02	68.7895	3,999.02	41.685	3,999.02	64.3591	3,999.02	65.0667	3,999.02	67.0546
4,286.13	86.2083	4,286.13	84.0271	4,286.13	84.0018	4,286.13	74.8902	4,286.13	77.7619	4,286.13	76.9373	4,286.13	69.7261	4,286.13	81.7824	4,286.13	77.1633	4,286.13	82.7865	4,286.13	80.7777	4,286.13	82.1655	4,286.13	81.1688	4,286.13	80.287	4,286.13	79.4622	4,286.13	77.7613	4,286.13	77.4296	4,286.13	75.911	4,286.13	71.8601	4,286.13	73.4784	4,286.13	68.0594	4,286.13	71.7721	4,286.13	70.3194	4,286.13	71.3016	4,286.13	65.5233	4,286.13	71.3649	4,286.13	69.117	4,286.13	72.3651	4,286.13	50.4149	4,286.13	71.1027	4,286.13	64.1404	4,286.13	69.2545	4,286.13	41.0156	4,286.13	64.6561	4,286.13	64.4398	4,286.13	66.5328
4,593.75	86.6136	4,593.75	84.402	4,593.75	83.9193	4,593.75	75.3399	4,593.75	74.0045	4,593.75	78.6994	4,593.75	78.8348	4,593.75	82.8278	4,593.75	81.7046	4,593.75	82.898	4,593.75	81.5617	4,593.75	81.5047	4,593.75	81.7137	4,593.75	79.631	4,593.75	78.8418	4,593.75	77.0085	4,593.75	73.1828	4,593.75	75.9581	4,593.75	74.9632	4,593.75	74.5461	4,593.75	74.1895	4,593.75	71.0429	4,593.75	73.1197	4,593.75	70.4262	4,593.75	60.0756	4,593.75	70.2943	4,593.75	62.8251	4,593.75	70.9149	4,593.75	52.0228	4,593.75	70.6951	4,593.75	62.4418	4,593.75	67.808	4,593.75	54.893	4,593.75	65.5062	4,593.75	62.4867	4,593.75	67.1376
4,924.8	86.3585	4,924.8	83.9401	4,924.8	83.384	4,924.8	72.1427	4,924.8	75.363	4,924.8	81.5847	4,924.8	79.68	4,924.8	83.0625	4,924.8	81.7236	4,924.8	81.018	4,924.8	80.0279	4,924.8	80.317	4,924.8	79.3504	4,924.8	79.8094	4,924.8	79.6495	4,924.8	77.2398	4,924.8	77.1599	4,924.8	75.4065	4,924.8	75.8756	4,924.8	74.025	4,924.8	75.2052	4,924.8	70.7143	4,924.8	73.8775	4,924.8	69.943	4,924.8	67.6091	4,924.8	70.3775	4,924.8	55.0055	4,924.8	70.8148	4,924.8	57.9278	4,924.8	70.2835	4,924.8	63.3365	4,924.8	68.7456	4,924.8	55.1275	4,924.8	65.8796	4,924.8	53.5633	4,924.8	66.0943
5,279.3	85.9341	5,279.3	81.2812	5,279.3	83.4396	5,279.3	76.6669	5,279.3	74.8394	5,279.3	82.796	5,279.3	81.6644	5,279.3	81.3829	5,279.3	83.0939	5,279.3	80.4179	5,279.3	80.347	5,279.3	78.8216	5,279.3	79.3105	5,279.3	75.5764	5,279.3	80.3324	5,279.3	73.2048	5,279.3	77.108	5,279.3	70.0225	5,279.3	69.7435	5,279.3	71.2014	5,279.3	73.4598	5,279.3	69.6711	5,279.3	70.396	5,279.3	65.847	5,279.3	69.8683	5,279.3	67.76	5,279.3	55.3355	5,279.3	68.1533	5,279.3	65.0257	5,279.3	67.6882	5,279.3	64.5983	5,279.3	68.5776	5,279.3	55.516	5,279.3	65.3754	5,279.3	62.7727	5,279.3	63.8731
5,657.23	85.5717	5,657.23	80.9035	5,657.23	83.3808	5,657.23	80.4128	5,657.23	75.7984	5,657.23	83.1454	5,657.23	83.3462	5,657.23	82.5215	5,657.23	83.8348	5,657.23	80.1796	5,657.23	80.0088	5,657.23	75.4866	5,657.23	80.6496	5,657.23	77.7971	5,657.23	80.1485	5,657.23	77.4512	5,657.23	76.7231	5,657.23	73.7211	5,657.23	65.8711	5,657.23	73.0716	5,657.23	70.8635	5,657.23	71.4592	5,657.23	66.8399	5,657.23	69.0424	5,657.23	69.8582	5,657.23	68.4385	5,657.23	53.4056	5,657.23	67.6478	5,657.23	61.9519	5,657.23	68.5654	5,657.23	67.82	5,657.23	68.8	5,657.23	53.2496	5,657.23	67.3105	5,657.23	65.3727	5,657.23	66.3535
6,061.52	84.4667	6,061.52	81.2089	6,061.52	82.4166	6,061.52	80.7671	6,061.52	77.7435	6,061.52	84.7242	6,061.52	83.3227	6,061.52	83.0623	6,061.52	82.9444	6,061.52	81.2983	6,061.52	77.26	6,061.52	81.856	6,061.52	77.4048	6,061.52	80.1307	6,061.52	76.3231	6,061.52	77.2159	6,061.52	74.0931	6,061.52	75.0153	6,061.52	73.99	6,061.52	73.403	6,061.52	62.9141	6,061.52	71.7741	6,061.52	64.0971	6,061.52	68.3764	6,061.52	66.7345	6,061.52	68.6947	6,061.52	57.3035	6,061.52	68.1753	6,061.52	60.3697	6,061.52	69.291	6,061.52	66.4575	6,061.52	68.5573	6,061.52	59.9983	6,061.52	68.8111	6,061.52	65.2072	6,061.52	68.1108
6,498.05	83.9221	6,498.05	78.3891	6,498.05	83.0882	6,498.05	81.62	6,498.05	76.6559	6,498.05	84.7237	6,498.05	83.0258	6,498.05	82.8982	6,498.05	82.9066	6,498.05	82.904	6,498.05	79.2681	6,498.05	81.0252	6,498.05	80.4522	6,498.05	77.8911	6,498.05	78.9448	6,498.05	76.189	6,498.05	75.6818	6,498.05	73.3932	6,498.05	72.1025	6,498.05	71.4099	6,498.05	73.0372	6,498.05	70.6815	6,498.05	64.9143	6,498.05	68.5132	6,498.05	65.0814	6,498.05	65.7927	6,498.05	59.4584	6,498.05	67.6499	6,498.05	64.468	6,498.05	67.7156	6,498.05	64.014	6,498.05	68.596	6,498.05	62.6497	6,498.05	69.2473	6,498.05	63.6431	6,498.05	68.102
6,963.87	83.0543	6,963.87	76.0102	6,963.87	84.6961	6,963.87	82.5499	6,963.87	79.4961	6,963.87	83.8323	6,963.87	83.1664	6,963.87	82.7047	6,963.87	84.0714	6,963.87	82.5896	6,963.87	80.5387	6,963.87	79.212	6,963.87	80.0502	6,963.87	77.8567	6,963.87	79.2654	6,963.87	75.432	6,963.87	77.8291	6,963.87	71.3732	6,963.87	69.2209	6,963.87	71.1883	6,963.87	70.3669	6,963.87	68.948	6,963.87	62.7604	6,963.87	67.0692	6,963.87	68.6461	6,963.87	65.351	6,963.87	62.9339	6,963.87	63.694	6,963.87	63.8306	6,963.87	64.3689	6,963.87	55.6097	6,963.87	66.9665	6,963.87	60.8925	6,963.87	69.1862	6,963.87	60.9464	6,963.87	66.5304
7,464.84	82.8985	7,464.84	80.9539	7,464.84	85.614	7,464.84	84.3474	7,464.84	83.2047	7,464.84	84.0602	7,464.84	83.6063	7,464.84	82.29	7,464.84	84.6975	7,464.84	81.5442	7,464.84	81.7113	7,464.84	80.4001	7,464.84	80.2188	7,464.84	77.7579	7,464.84	77.3755	7,464.84	74.3538	7,464.84	70.269	7,464.84	74.4332	7,464.84	70.4347	7,464.84	72.2312	7,464.84	50.8302	7,464.84	68.9249	7,464.84	64.1381	7,464.84	68.5829	7,464.84	67.1879	7,464.84	66.748	7,464.84	65.3789	7,464.84	65.0453	7,464.84	60.3121	7,464.84	67.3765	7,464.84	56.9315	7,464.84	67.0798	7,464.84	57.6785	7,464.84	67.3378	7,464.84	59.3624	7,464.84	66.4805
8,000.98	83.3631	8,000.98	83.0273	8,000.98	85.3499	8,000.98	84.7119	8,000.98	83.6707	8,000.98	84.008	8,000.98	83.3781	8,000.98	83.3544	8,000.98	84.57	8,000.98	82.4955	8,000.98	82.5263	8,000.98	80.9818	8,000.98	77.5407	8,000.98	79.7698	8,000.98	77.9034	8,000.98	76.3413	8,000.98	79.2186	8,000.98	73.2473	8,000.98	73.8311	8,000.98	71.2635	8,000.98	64.2457	8,000.98	68.7375	8,000.98	60.6102	8,000.98	66.0218	8,000.98	54.833	8,000.98	65.9058	8,000.98	54.059	8,000.98	65.077	8,000.98	60.3525	8,000.98	65.2654	8,000.98	48.1169	8,000.98	64.8316	8,000.98	55.5486	8,000.98	66.5895	8,000.98	59.0768	8,000.98	63.7246
8,575.2	85.1428	8,575.2	84.6145	8,575.2	85.556	8,575.2	83.9023	8,575.2	84.7445	8,575.2	84.0447	8,575.2	83.2421	8,575.2	83.6559	8,575.2	84.3334	8,575.2	82.2857	8,575.2	83.9629	8,575.2	80.7001	8,575.2	81.6894	8,575.2	77.7665	8,575.2	81.801	8,575.2	75.3534	8,575.2	79.3243	8,575.2	73.0726	8,575.2	70.3789	8,575.2	69.9702	8,575.2	51.2757	8,575.2	68.0112	8,575.2	60.5913	8,575.2	67.1939	8,575.2	57.7313	8,575.2	64.6845	8,575.2	61.874	8,575.2	64.6183	8,575.2	51.3716	8,575.2	61.6176	8,575.2	58.4864	8,575.2	62.1584	8,575.2	57.8304	8,575.2	64.031	8,575.2	59.3729	8,575.2	63.8955
9,190.43	87.6936	9,190.43	87.3673	9,190.43	87.7992	9,190.43	86.565	9,190.43	86.6979	9,190.43	84.7495	9,190.43	84.6219	9,190.43	82.5662	9,190.43	84.5736	9,190.43	82.1224	9,190.43	84.4491	9,190.43	80.9958	9,190.43	81.3082	9,190.43	78.0257	9,190.43	79.7047	9,190.43	75.5169	9,190.43	80.1628	9,190.43	72.5499	9,190.43	74.6709	9,190.43	70.0659	9,190.43	67.7496	9,190.43	67.7316	9,190.43	63.4925	9,190.43	64.2601	9,190.43	48.0313	9,190.43	65.4366	9,190.43	62.7702	9,190.43	64.9618	9,190.43	55.803	9,190.43	64.7845	9,190.43	57.2195	9,190.43	61.7933	9,190.43	57.4546	9,190.43	62.1723	9,190.43	56.5632	9,190.43	63.8412
9,849.61	87.9154	9,849.61	87.839	9,849.61	87.0973	9,849.61	86.9736	9,849.61	87.1262	9,849.61	85.3122	9,849.61	86.8105	9,849.61	82.6567	9,849.61	85.1728	9,849.61	81.7234	9,849.61	84.0274	9,849.61	80.9284	9,849.61	82.3862	9,849.61	77.2287	9,849.61	79.9167	9,849.61	74.0762	9,849.61	78.7875	9,849.61	72.0347	9,849.61	73.2663	9,849.61	66.9455	9,849.61	61.4395	9,849.61	66.2281	9,849.61	63.2141	9,849.61	64.071	9,849.61	55.4323	9,849.61	63.9515	9,849.61	57.3279	9,849.61	62.6598	9,849.61	49.236	9,849.61	63.6164	9,849.61	42.6004	9,849.61	59.578	9,849.61	55.5305	9,849.61	62.3559	9,849.61	52.4152	9,849.61	62.4892
10,555.7	87.9754	10,555.7	87.5988	10,555.7	87.2066	10,555.7	85.3694	10,555.7	86.494	10,555.7	83.7527	10,555.7	86.5125	10,555.7	83.8376	10,555.7	86.2806	10,555.7	82.1793	10,555.7	84.1735	10,555.7	79.5285	10,555.7	81.1	10,555.7	76.2276	10,555.7	78.9268	10,555.7	71.6639	10,555.7	74.9402	10,555.7	69.3127	10,555.7	67.6709	10,555.7	65.8667	10,555.7	59.9529	10,555.7	64.9745	10,555.7	54.1134	10,555.7	65.379	10,555.7	53.3821	10,555.7	59.1176	10,555.7	52.8535	10,555.7	55.1664	10,555.7	54.6868	10,555.7	56.8836	10,555.7	57.4496	10,555.7	57.8708	10,555.7	61.5412	10,555.7	57.9363	10,555.7	59.8648	10,555.7	61.5427
11,314.5	89.7536	11,314.5	88.9658	11,314.5	88.8136	11,314.5	86.1738	11,314.5	88.2155	11,314.5	84.001	11,314.5	86.8393	11,314.5	82.4134	11,314.5	84.9114	11,314.5	81.1284	11,314.5	83.4064	11,314.5	78.1572	11,314.5	79.7557	11,314.5	72.642	11,314.5	77.4395	11,314.5	71.1973	11,314.5	76.9243	11,314.5	68.0796	11,314.5	71.7766	11,314.5	65.0198	11,314.5	60.8575	11,314.5	64.3183	11,314.5	57.733	11,314.5	62.5451	11,314.5	38.477	11,314.5	60.5796	11,314.5	51.2526	11,314.5	57.981	11,314.5	40.0065	11,314.5	53.228	11,314.5	52.9609	11,314.5	58.4474	11,314.5	58.2302	11,314.5	58.4938	11,314.5	57.7287	11,314.5	51.0648
12,126	89.2238	12,126	88.5933	12,126	88.5452	12,126	86.9985	12,126	88.2877	12,126	85.8096	12,126	87.6197	12,126	82.6341	12,126	85.3299	12,126	79.0778	12,126	82.2227	12,126	77.8458	12,126	79.3775	12,126	73.3612	12,126	76.4746	12,126	68.6209	12,126	73.9341	12,126	67.9753	12,126	70.0617	12,126	62.7106	12,126	58.6576	12,126	62.3253	12,126	56.3125	12,126	61.7863	12,126	54.4107	12,126	62.2579	12,126	43.6402	12,126	56.6672	12,126	51.2052	12,126	53.9127	12,126	48.4235	12,126	56.5189	12,126	55.2607	12,126	57.5347	12,126	52.5954	12,126	59.1199
12,996.1	89.0008	12,996.1	87.9811	12,996.1	88.8753	12,996.1	86.5593	12,996.1	87.6799	12,996.1	85.0347	12,996.1	86.0322	12,996.1	82.5308	12,996.1	84.2581	12,996.1	80.4239	12,996.1	81.9476	12,996.1	78.0491	12,996.1	77.1581	12,996.1	73.6291	12,996.1	74.8419	12,996.1	69.1311	12,996.1	74.8096	12,996.1	64.82	12,996.1	68.4259	12,996.1	61.6741	12,996.1	54.2435	12,996.1	59.853	12,996.1	51.7773	12,996.1	58.8483	12,996.1	49.3348	12,996.1	57.1053	12,996.1	49.2029	12,996.1	55.4529	12,996.1	51.5006	12,996.1	56.9229	12,996.1	49.2941	12,996.1	54.3298	12,996.1	57.2384	12,996.1	59.7192	12,996.1	55.5728	12,996.1	59.6991
13,927.7	89.7173	13,927.7	88.9258	13,927.7	89.4774	13,927.7	87.4025	13,927.7	88.2811	13,927.7	85.0446	13,927.7	85.7559	13,927.7	81.6403	13,927.7	83.3852	13,927.7	79.6853	13,927.7	81.708	13,927.7	76.6783	13,927.7	77.0662	13,927.7	69.6117	13,927.7	72.3729	13,927.7	65.1925	13,927.7	71.9045	13,927.7	63.8845	13,927.7	65.7561	13,927.7	60.3983	13,927.7	49.0842	13,927.7	57.0085	13,927.7	53.0081	13,927.7	49.8679	13,927.7	44.7395	13,927.7	53.4216	13,927.7	46.3662	13,927.7	49.0805	13,927.7	48.2832	13,927.7	44.0233	13,927.7	48.9186	13,927.7	52.3671	13,927.7	55.1996	13,927.7	58.2711	13,927.7	57.3653	13,927.7	55.1998
14,929.7	89.6144	14,929.7	88.901	14,929.7	88.9267	14,929.7	87.1352	14,929.7	88.1475	14,929.7	85.5264	14,929.7	86.0421	14,929.7	82.2567	14,929.7	83.0731	14,929.7	78.7114	14,929.7	80.951	14,929.7	75.3779	14,929.7	76.6994	14,929.7	68.3294	14,929.7	72.7416	14,929.7	63.4032	14,929.7	70.3446	14,929.7	59.5932	14,929.7	63.6003	14,929.7	54.6809	14,929.7	55.103	14,929.7	54.4997	14,929.7	43.6565	14,929.7	49.2426	14,929.7	43.8462	14,929.7	46.5494	14,929.7	49.4944	14,929.7	48.3987	14,929.7	49.0973	14,929.7	47.7607	14,929.7	47.1941	14,929.7	48.0936	14,929.7	54.3321	14,929.7	56.9234	14,929.7	54.0704	14,929.7	53.3316
15,999	89.998	15,999	89.0524	15,999	88.8218	15,999	86.951	15,999	87.711	15,999	84.5239	15,999	85.5602	15,999	79.4099	15,999	81.0715	15,999	73.0998	15,999	79.0825	15,999	70.8561	15,999	76.9095	15,999	70.2656	15,999	73.7084	15,999	67.7458	15,999	72.0573	15,999	64.2383	15,999	64.8309	15,999	60.519	15,999	54.9667	15,999	55.8996	15,999	38.4657	15,999	56.805	15,999	52.0904	15,999	51.1435	15,999	48.4286	15,999	51.7348	15,999	49.2746	15,999	53.0261	15,999	47.7253	15,999	53.8256	15,999	52.7917	15,999	51.2646	15,999	57.8834	15,999	38.7083
17,147.5	90.2087	17,147.5	89.466	17,147.5	88.7475	17,147.5	86.0543	17,147.5	84.8576	17,147.5	81.1437	17,147.5	79.1653	17,147.5	74.1773	17,147.5	70.9151	17,147.5	66.2856	17,147.5	74.091	17,147.5	75.2853	17,147.5	79.6178	17,147.5	77.0699	17,147.5	76.9546	17,147.5	74.2994	17,147.5	75.9771	17,147.5	71.5173	17,147.5	70.9845	17,147.5	68.2209	17,147.5	61.2814	17,147.5	62.8941	17,147.5	48.8878	17,147.5	63.9365	17,147.5	58.9015	17,147.5	61.6651	17,147.5	54.6906	17,147.5	61.5933	17,147.5	49.5345	17,147.5	56.6097	17,147.5	53.3186	17,147.5	58.8239	17,147.5	54.0454	17,147.5	57.3994	17,147.5	54.2089	17,147.5	49.3128
18,377.9	91.6342	18,377.9	90.4324	18,377.9	89.9795	18,377.9	86.2569	18,377.9	86.9535	18,377.9	81.3898	18,377.9	81.7811	18,377.9	73.6803	18,377.9	72.401	18,377.9	75.333	18,377.9	73.0926	18,377.9	78.0485	18,377.9	77.197	18,377.9	78.6691	18,377.9	73.9163	18,377.9	75.5858	18,377.9	71.7506	18,377.9	73.9853	18,377.9	69.6891	18,377.9	68.9675	18,377.9	58.6233	18,377.9	62.2479	18,377.9	51.1624	18,377.9	65.1969	18,377.9	56.2339	18,377.9	62.8002	18,377.9	55.4872	18,377.9	63.0038	18,377.9	50.9864	18,377.9	52.9119	18,377.9	51.361	18,377.9	59.4068	18,377.9	61.2104	18,377.9	59.1688	18,377.9	55.1938	18,377.9	55.874
19,699.2	91.0209	19,699.2	90.0763	19,699.2	89.0504	19,699.2	86.5583	19,699.2	86.3531	19,699.2	82.5699	19,699.2	79.1362	19,699.2	74.8066	19,699.2	65.1322	19,699.2	77.577	19,699.2	72.8674	19,699.2	78.9046	19,699.2	73.9389	19,699.2	78.301	19,699.2	74.7855	19,699.2	74.7253	19,699.2	69.7351	19,699.2	71.4526	19,699.2	65.8195	19,699.2	67.8593	19,699.2	61.1007	19,699.2	62.7539	19,699.2	54.0197	19,699.2	64.0763	19,699.2	51.0229	19,699.2	59.8582	19,699.2	51.8018	19,699.2	63.3025	19,699.2	54.7763	19,699.2	40.3659	19,699.2	52.5495	19,699.2	58.1822	19,699.2	61.7052	19,699.2	58.4627	19,699.2	54.1099	19,699.2	57.4302
19,998	91.3543	19,998	90.6483	19,998	89.3029	19,998	87.2641	19,998	86.1509	19,998	83.344	19,998	76.4776	19,998	75.5061	19,998	72.808	19,998	77.2905	19,998	74.2631	19,998	78.2169	19,998	76.5835	19,998	78.1178	19,998	76.933	19,998	75.0109	19,998	71.5305	19,998	71.3006	19,998	64.549	19,998	66.5287	19,998	63.0558	19,998	61.546	19,998	54.5884	19,998	63.476	19,998	60.0157	19,998	60.1374	19,998	54.5635	19,998	63.5705	19,998	59.5987	19,998	52.4468	19,998	53.3194	19,998	58.8406	19,998	62.9715	19,998	57.4005	19,998	56.8433	19,998	58.2158
