"SPL Vertical"																																																																							
"On-Axis"		"10°"		"-10°"		"20°"		"-20°"		"30°"		"-30°"		"40°"		"-40°"		"50°"		"-50°"		"60°"		"-60°"		"70°"		"-70°"		"80°"		"-80°"		"90°"		"-90°"		"100°"		"-100°"		"110°"		"-110°"		"120°"		"-120°"		"130°"		"-130°"		"140°"		"-140°"		"150°"		"-150°"		"160°"		"-160°"		"170°"		"-170°"		"180°"	
"Frequency [Hz]"	"Sound Pessure Level [dB]  / [2.83V 1m] "	"Frequency [Hz]"	"Sound Pessure Level [dB]  / [2.83V 1m] "	"Frequency [Hz]"	"Sound Pessure Level [dB]  / [2.83V 1m] "	"Frequency [Hz]"	"Sound Pessure Level [dB]  / [2.83V 1m] "	"Frequency [Hz]"	"Sound Pessure Level [dB]  / [2.83V 1m] "	"Frequency [Hz]"	"Sound Pessure Level [dB]  / [2.83V 1m] "	"Frequency [Hz]"	"Sound Pessure Level [dB]  / [2.83V 1m] "	"Frequency [Hz]"	"Sound Pessure Level [dB]  / [2.83V 1m] "	"Frequency [Hz]"	"Sound Pessure Level [dB]  / [2.83V 1m] "	"Frequency [Hz]"	"Sound Pessure Level [dB]  / [2.83V 1m] "	"Frequency [Hz]"	"Sound Pessure Level [dB]  / [2.83V 1m] "	"Frequency [Hz]"	"Sound Pessure Level [dB]  / [2.83V 1m] "	"Frequency [Hz]"	"Sound Pessure Level [dB]  / [2.83V 1m] "	"Frequency [Hz]"	"Sound Pessure Level [dB]  / [2.83V 1m] "	"Frequency [Hz]"	"Sound Pessure Level [dB]  / [2.83V 1m] "	"Frequency [Hz]"	"Sound Pessure Level [dB]  / [2.83V 1m] "	"Frequency [Hz]"	"Sound Pessure Level [dB]  / [2.83V 1m] "	"Frequency [Hz]"	"Sound Pessure Level [dB]  / [2.83V 1m] "	"Frequency [Hz]"	"Sound Pessure Level [dB]  / [2.83V 1m] "	"Frequency [Hz]"	"Sound Pessure Level [dB]  / [2.83V 1m] "	"Frequency [Hz]"	"Sound Pessure Level [dB]  / [2.83V 1m] "	"Frequency [Hz]"	"Sound Pessure Level [dB]  / [2.83V 1m] "	"Frequency [Hz]"	"Sound Pessure Level [dB]  / [2.83V 1m] "	"Frequency [Hz]"	"Sound Pessure Level [dB]  / [2.83V 1m] "	"Frequency [Hz]"	"Sound Pessure Level [dB]  / [2.83V 1m] "	"Frequency [Hz]"	"Sound Pessure Level [dB]  / [2.83V 1m] "	"Frequency [Hz]"	"Sound Pessure Level [dB]  / [2.83V 1m] "	"Frequency [Hz]"	"Sound Pessure Level [dB]  / [2.83V 1m] "	"Frequency [Hz]"	"Sound Pessure Level [dB]  / [2.83V 1m] "	"Frequency [Hz]"	"Sound Pessure Level [dB]  / [2.83V 1m] "	"Frequency [Hz]"	"Sound Pessure Level [dB]  / [2.83V 1m] "	"Frequency [Hz]"	"Sound Pessure Level [dB]  / [2.83V 1m] "	"Frequency [Hz]"	"Sound Pessure Level [dB]  / [2.83V 1m] "	"Frequency [Hz]"	"Sound Pessure Level [dB]  / [2.83V 1m] "	"Frequency [Hz]"	"Sound Pessure Level [dB]  / [2.83V 1m] "	"Frequency [Hz]"	"Sound Pessure Level [dB]  / [2.83V 1m] "
20.5078	51.8386	20.5078	51.5227	20.5078	52.1764	20.5078	51.2377	20.5078	52.5252	20.5078	50.9903	20.5078	52.8719	20.5078	50.7849	20.5078	53.2026	20.5078	50.6241	20.5078	53.503	20.5078	50.5091	20.5078	53.7597	20.5078	50.4401	20.5078	53.9611	20.5078	50.4167	20.5078	54.098	20.5078	50.438	20.5078	54.1647	20.5078	50.5027	20.5078	54.1592	20.5078	50.6093	20.5078	54.0835	20.5078	50.7559	20.5078	53.9429	20.5078	50.9401	20.5078	53.7458	20.5078	51.1591	20.5078	53.5027	20.5078	51.409	20.5078	53.2247	20.5078	51.6852	20.5078	52.9233	20.5078	51.982	20.5078	52.6093	20.5078	52.2926
23.4375	55.3371	23.4375	54.9594	23.4375	55.7294	23.4375	54.6066	23.4375	56.1239	23.4375	54.2867	23.4375	56.5068	23.4375	54.0057	23.4375	56.8634	23.4375	53.7675	23.4375	57.1787	23.4375	53.5748	23.4375	57.4387	23.4375	53.4293	23.4375	57.6309	23.4375	53.3322	23.4375	57.7454	23.4375	53.2845	23.4375	57.7758	23.4375	53.2874	23.4375	57.7194	23.4375	53.3418	23.4375	57.5778	23.4375	53.4486	23.4375	57.3573	23.4375	53.608	23.4375	57.0678	23.4375	53.8193	23.4375	56.7231	23.4375	54.0805	23.4375	56.3391	23.4375	54.3879	23.4375	55.9325	23.4375	54.7361	23.4375	55.5201	23.4375	55.1169
26.3672	57.9481	26.3672	57.6266	26.3672	58.2838	26.3672	57.3283	26.3672	58.6228	26.3672	57.0598	26.3672	58.9523	26.3672	56.8255	26.3672	59.2584	26.3672	56.6281	26.3672	59.5269	26.3672	56.4689	26.3672	59.7446	26.3672	56.3485	26.3672	59.8996	26.3672	56.2672	26.3672	59.9833	26.3672	56.2252	26.3672	59.99	26.3672	56.2229	26.3672	59.9186	26.3672	56.2607	26.3672	59.7725	26.3672	56.3393	26.3672	59.5594	26.3672	56.4588	26.3672	59.2908	26.3672	56.6189	26.3672	58.981	26.3672	56.8188	26.3672	58.6458	26.3672	57.0565	26.3672	58.3004	26.3672	57.3291	26.3672	57.9587	26.3672	57.632
29.2969	61.3886	29.2969	61.1068	29.2969	61.6804	29.2969	60.8421	29.2969	61.9732	29.2969	60.5999	29.2969	62.2566	29.2969	60.384	29.2969	62.5188	29.2969	60.1969	29.2969	62.7477	29.2969	60.0402	29.2969	62.9318	29.2969	59.9153	29.2969	63.0606	29.2969	59.8232	29.2969	63.126	29.2969	59.765	29.2969	63.1228	29.2969	59.742	29.2969	63.0496	29.2969	59.7556	29.2969	62.9091	29.2969	59.8071	29.2969	62.708	29.2969	59.8975	29.2969	62.4565	29.2969	60.0274	29.2969	62.1677	29.2969	60.1967	29.2969	61.856	29.2969	60.404	29.2969	61.5358	29.2969	60.647	29.2969	61.2205	29.2969	60.9213
32.2266	64.3243	32.2266	64.0634	32.2266	64.5919	32.2266	63.816	32.2266	64.8577	32.2266	63.5872	32.2266	65.1122	32.2266	63.3809	32.2266	65.3445	32.2266	63.1997	32.2266	65.5435	32.2266	63.0454	32.2266	65.6986	32.2266	62.9195	32.2266	65.8002	32.2266	62.823	32.2266	65.8413	32.2266	62.757	32.2266	65.8175	32.2266	62.7227	32.2266	65.7283	32.2266	62.7212	32.2266	65.5772	32.2266	62.754	32.2266	65.3717	32.2266	62.8219	32.2266	65.1225	32.2266	62.9258	32.2266	64.8431	32.2266	63.0659	32.2266	64.5476	32.2266	63.2419	32.2266	64.2498	32.2266	63.4521	32.2266	63.962	32.2266	63.6937
35.1563	67.505	35.1563	67.2769	35.1563	67.738	35.1563	67.0596	35.1563	67.9685	35.1563	66.8577	35.1563	68.1879	35.1563	66.6748	35.1563	68.3867	35.1563	66.5133	35.1563	68.555	35.1563	66.3749	35.1563	68.6835	35.1563	66.2609	35.1563	68.7637	35.1563	66.1723	35.1563	68.7895	35.1563	66.1101	35.1563	68.7575	35.1563	66.0752	35.1563	68.6679	35.1563	66.0686	35.1563	68.5244	35.1563	66.0913	35.1563	68.3347	35.1563	66.1441	35.1563	68.1091	35.1563	66.2277	35.1563	67.8601	35.1563	66.3424	35.1563	67.6004	35.1563	66.488	35.1563	67.342	35.1563	66.6635	35.1563	67.0949	35.1563	66.867
38.0859	70.5039	38.0859	70.2979	38.0859	70.7126	38.0859	70.1003	38.0859	70.9174	38.0859	69.9155	38.0859	71.1105	38.0859	69.747	38.0859	71.2835	38.0859	69.5974	38.0859	71.4278	38.0859	69.4687	38.0859	71.5351	38.0859	69.3622	38.0859	71.5983	38.0859	69.2792	38.0859	71.6123	38.0859	69.2206	38.0859	71.5746	38.0859	69.1871	38.0859	71.4861	38.0859	69.1797	38.0859	71.351	38.0859	69.1989	38.0859	71.1765	38.0859	69.2452	38.0859	70.9725	38.0859	69.3189	38.0859	70.7502	38.0859	69.4199	38.0859	70.5205	38.0859	69.5476	38.0859	70.2936	38.0859	69.7012	38.0859	70.0777	38.0859	69.8788
41.0156	73.2808	41.0156	73.089	41.0156	73.4744	41.0156	72.9046	41.0156	73.6636	41.0156	72.7321	41.0156	73.8411	41.0156	72.5752	41.0156	73.9993	41.0156	72.4367	41.0156	74.1304	41.0156	72.3189	41.0156	74.227	41.0156	72.2232	41.0156	74.283	41.0156	72.1509	41.0156	74.2941	41.0156	72.1027	41.0156	74.2583	41.0156	72.0789	41.0156	74.1768	41.0156	72.0798	41.0156	74.0538	41.0156	72.1054	41.0156	73.8964	41.0156	72.1552	41.0156	73.7137	41.0156	72.2289	41.0156	73.5157	41.0156	72.3256	41.0156	73.3121	41.0156	72.4444	41.0156	73.1115	41.0156	72.5842	41.0156	72.9204	41.0156	72.7436
43.9453	75.2111	43.9453	75.0331	43.9453	75.3879	43.9453	74.859	43.9453	75.5574	43.9453	74.6933	43.9453	75.7133	43.9453	74.5398	43.9453	75.8485	43.9453	74.4017	43.9453	75.9565	43.9453	74.2814	43.9453	76.0309	43.9453	74.181	43.9453	76.0667	43.9453	74.102	43.9453	76.0606	43.9453	74.0455	43.9453	76.0117	43.9453	74.0121	43.9453	75.9219	43.9453	74.0024	43.9453	75.7959	43.9453	74.0163	43.9453	75.6408	43.9453	74.0537	43.9453	75.465	43.9453	74.1141	43.9453	75.278	43.9453	74.1968	43.9453	75.0884	43.9453	74.3009	43.9453	74.9034	43.9453	74.4253	43.9453	74.7288	43.9453	74.5685
46.875	76.9056	46.875	76.7437	46.875	77.0655	46.875	76.5845	46.875	77.2178	46.875	76.4323	46.875	77.3568	46.875	76.2908	46.875	77.4763	46.875	76.1629	46.875	77.5704	46.875	76.0512	46.875	77.6338	46.875	75.9577	46.875	77.6623	46.875	75.8839	46.875	77.6533	46.875	75.831	46.875	77.6064	46.875	75.7998	46.875	77.5239	46.875	75.7906	46.875	77.41	46.875	75.8038	46.875	77.2712	46.875	75.839	46.875	77.1151	46.875	75.8956	46.875	76.9493	46.875	75.9729	46.875	76.7812	46.875	76.0696	46.875	76.6165	46.875	76.1842	46.875	76.46	46.875	76.3151
49.8047	77.9439	49.8047	77.7886	49.8047	78.0954	49.8047	77.6342	49.8047	78.2377	49.8047	77.4851	49.8047	78.3654	49.8047	77.3452	49.8047	78.4728	49.8047	77.2177	49.8047	78.5546	49.8047	77.1054	49.8047	78.6059	49.8047	77.0105	49.8047	78.6234	49.8047	76.9348	49.8047	78.6051	49.8047	76.8796	49.8047	78.5514	49.8047	76.8458	49.8047	78.4647	49.8047	76.8337	49.8047	78.35	49.8047	76.8435	49.8047	78.2136	49.8047	76.8747	49.8047	78.063	49.8047	76.9265	49.8047	77.9054	49.8047	76.9979	49.8047	77.7473	49.8047	77.0874	49.8047	77.5937	49.8047	77.1935	49.8047	77.4485	49.8047	77.3144
52.7344	78.5379	52.7344	78.392	52.7344	78.6784	52.7344	78.2454	52.7344	78.8085	52.7344	78.1022	52.7344	78.9233	52.7344	77.9663	52.7344	79.0175	52.7344	77.841	52.7344	79.0864	52.7344	77.7293	52.7344	79.1259	52.7344	77.6335	52.7344	79.1333	52.7344	77.5556	52.7344	79.1071	52.7344	77.4971	52.7344	79.0483	52.7344	77.4591	52.7344	78.9597	52.7344	77.4421	52.7344	78.8462	52.7344	77.4463	52.7344	78.714	52.7344	77.4713	52.7344	78.5702	52.7344	77.5164	52.7344	78.4213	52.7344	77.5805	52.7344	78.2731	52.7344	77.662	52.7344	78.13	52.7344	77.7594	52.7344	77.9952	52.7344	77.871
55.6641	78.8689	55.6641	78.7298	55.6641	79.0023	55.6641	78.5898	55.6641	79.1255	55.6641	78.453	55.6641	79.2335	55.6641	78.3233	55.6641	79.3214	55.6641	78.204	55.6641	79.385	55.6641	78.098	55.6641	79.4206	55.6641	78.0077	55.6641	79.4259	55.6641	77.9351	55.6641	79.4	55.6641	77.8814	55.6641	79.344	55.6641	77.8478	55.6641	79.2609	55.6641	77.8345	55.6641	79.1555	55.6641	77.8415	55.6641	79.0336	55.6641	77.8684	55.6641	78.9015	55.6641	77.9142	55.6641	78.7649	55.6641	77.9776	55.6641	78.6289	55.6641	78.0568	55.6641	78.4971	55.6641	78.1502	55.6641	78.372	55.6641	78.2558
58.5938	78.963	58.5938	78.8273	58.5938	79.0939	58.5938	78.6912	58.5938	79.2155	58.5938	78.5589	58.5938	79.3231	58.5938	78.4342	58.5938	79.4124	58.5938	78.3204	58.5938	79.4795	58.5938	78.2205	58.5938	79.5213	58.5938	78.137	58.5938	79.5358	58.5938	78.0718	58.5938	79.5223	58.5938	78.0265	58.5938	79.4819	58.5938	78.0019	58.5938	79.4171	58.5938	77.9986	58.5938	79.3315	58.5938	78.0165	58.5938	79.2296	58.5938	78.055	58.5938	79.1159	58.5938	78.113	58.5938	78.9945	58.5938	78.1886	58.5938	78.8691	58.5938	78.2796	58.5938	78.7426	58.5938	78.3834	58.5938	78.6177	58.5938	78.4971
61.5234	79.1471	61.5234	79.0186	61.5234	79.2673	61.5234	78.8863	61.5234	79.3742	61.5234	78.7549	61.5234	79.4636	61.5234	78.6287	61.5234	79.5312	61.5234	78.5115	61.5234	79.5738	61.5234	78.4068	61.5234	79.589	61.5234	78.3177	61.5234	79.5759	61.5234	78.2463	61.5234	79.5355	61.5234	78.1943	61.5234	79.4704	61.5234	78.1627	61.5234	79.3849	61.5234	78.1517	61.5234	79.2847	61.5234	78.1609	61.5234	79.1756	61.5234	78.189	61.5234	79.0628	61.5234	78.2343	61.5234	78.9504	61.5234	78.2945	61.5234	78.841	61.5234	78.367	61.5234	78.7356	61.5234	78.4492	61.5234	78.6348	61.5234	78.5391
64.4531	79.3103	64.4531	79.1825	64.4531	79.4288	64.4531	79.0501	64.4531	79.5335	64.4531	78.9175	64.4531	79.6202	64.4531	78.7892	64.4531	79.6849	64.4531	78.6691	64.4531	79.7246	64.4531	78.5609	64.4531	79.7372	64.4531	78.4676	64.4531	79.7222	64.4531	78.3917	64.4531	79.6804	64.4531	78.3352	64.4531	79.6145	64.4531	78.2993	64.4531	79.5287	64.4531	78.2843	64.4531	79.4283	64.4531	78.2901	64.4531	79.3186	64.4531	78.3157	64.4531	79.2047	64.4531	78.3593	64.4531	79.0906	64.4531	78.4189	64.4531	78.9786	64.4531	78.4918	64.4531	78.8703	64.4531	78.5756	64.4531	78.7663	64.4531	78.6677
67.3828	79.4963	67.3828	79.3679	67.3828	79.614	67.3828	79.2332	67.3828	79.7164	67.3828	79.0968	67.3828	79.7996	67.3828	78.9632	67.3828	79.8599	67.3828	78.8364	67.3828	79.8947	67.3828	78.7204	67.3828	79.9021	67.3828	78.6186	67.3828	79.8818	67.3828	78.5339	67.3828	79.835	67.3828	78.4687	67.3828	79.7644	67.3828	78.4244	67.3828	79.6743	67.3828	78.4021	67.3828	79.5697	67.3828	78.4018	67.3828	79.456	67.3828	78.4227	67.3828	79.338	67.3828	78.4635	67.3828	79.2194	67.3828	78.522	67.3828	79.1027	67.3828	78.5957	67.3828	78.9894	67.3828	78.6818	67.3828	78.8805	67.3828	78.7774
70.3125	79.6782	70.3125	79.5564	70.3125	79.7886	70.3125	79.4278	70.3125	79.8834	70.3125	79.2968	70.3125	79.9587	70.3125	79.1677	70.3125	80.0112	70.3125	79.0446	70.3125	80.0383	70.3125	78.9314	70.3125	80.0386	70.3125	78.8314	70.3125	80.0123	70.3125	78.7475	70.3125	79.9609	70.3125	78.6822	70.3125	79.8876	70.3125	78.6369	70.3125	79.797	70.3125	78.6128	70.3125	79.6944	70.3125	78.61	70.3125	79.5851	70.3125	78.6278	70.3125	79.4736	70.3125	78.6648	70.3125	79.363	70.3125	78.7189	70.3125	79.2552	70.3125	78.7873	70.3125	79.151	70.3125	78.8672	70.3125	79.0509	70.3125	78.9558
73.2422	79.8035	73.2422	79.6849	73.2422	79.9106	73.2422	79.5592	73.2422	80.0019	73.2422	79.4311	73.2422	80.0736	73.2422	79.3049	73.2422	80.1224	73.2422	79.1849	73.2422	80.1462	73.2422	79.0751	73.2422	80.144	73.2422	78.9787	73.2422	80.116	73.2422	78.8987	73.2422	80.0644	73.2422	78.8373	73.2422	79.9926	73.2422	78.796	73.2422	79.9053	73.2422	78.7756	73.2422	79.8077	73.2422	78.7759	73.2422	79.705	73.2422	78.7962	73.2422	79.6011	73.2422	78.8347	73.2422	79.4986	73.2422	78.889	73.2422	79.3987	73.2422	78.9564	73.2422	79.302	73.2422	79.0338	73.2422	79.2084	73.2422	79.1186
76.1719	79.9473	76.1719	79.8272	76.1719	80.0554	76.1719	79.6998	76.1719	80.1472	76.1719	79.5701	76.1719	80.2188	76.1719	79.4429	76.1719	80.2669	76.1719	79.3227	76.1719	80.2897	76.1719	79.2137	76.1719	80.2863	76.1719	79.1196	76.1719	80.2573	76.1719	79.0432	76.1719	80.2053	76.1719	78.9867	76.1719	80.134	76.1719	78.9515	76.1719	80.0484	76.1719	78.9376	76.1719	79.9539	76.1719	78.9447	76.1719	79.8555	76.1719	78.9712	76.1719	79.7569	76.1719	79.0149	76.1719	79.6605	76.1719	79.0729	76.1719	79.5671	76.1719	79.1421	76.1719	79.4763	76.1719	79.2193	76.1719	79.3879	76.1719	79.3019
79.1016	80.1074	79.1016	79.9854	79.1016	80.2166	79.1016	79.8555	79.1016	80.3088	79.1016	79.7225	79.1016	80.3804	79.1016	79.5914	79.1016	80.4286	79.1016	79.467	79.1016	80.4515	79.1016	79.3539	79.1016	80.4489	79.1016	79.2562	79.1016	80.4216	79.1016	79.1771	79.1016	80.3722	79.1016	79.119	79.1016	80.3044	79.1016	79.0836	79.1016	80.2229	79.1016	79.0712	79.1016	80.1326	79.1016	79.0813	79.1016	80.038	79.1016	79.1121	79.1016	79.9422	79.1016	79.1613	79.1016	79.8469	79.1016	79.2256	79.1016	79.7526	79.1016	79.3017	79.1016	79.6592	79.1016	79.3858	79.1016	79.5665	79.1016	79.4749
82.0313	80.3601	82.0313	80.2393	82.0313	80.4661	82.0313	80.1085	82.0313	80.5533	82.0313	79.9725	82.0313	80.6183	82.0313	79.8366	82.0313	80.6586	82.0313	79.7058	82.0313	80.6731	82.0313	79.5849	82.0313	80.6617	82.0313	79.4786	82.0313	80.6262	82.0313	79.3907	82.0313	80.5696	82.0313	79.3243	82.0313	80.4963	82.0313	79.2815	82.0313	80.4115	82.0313	79.2634	82.0313	80.32	82.0313	79.2695	82.0313	80.2262	82.0313	79.2986	82.0313	80.1325	82.0313	79.3478	82.0313	80.0399	82.0313	79.4138	82.0313	79.9481	82.0313	79.4924	82.0313	79.8561	82.0313	79.5793	82.0313	79.7635	82.0313	79.6707
84.9609	80.468	84.9609	80.3537	84.9609	80.5643	84.9609	80.2261	84.9609	80.6387	84.9609	80.09	84.9609	80.6881	84.9609	79.9508	84.9609	80.7106	84.9609	79.8138	84.9609	80.7054	84.9609	79.6842	84.9609	80.6733	84.9609	79.5669	84.9609	80.6167	84.9609	79.4665	84.9609	80.54	84.9609	79.3864	84.9609	80.4484	84.9609	79.3294	84.9609	80.3483	84.9609	79.297	84.9609	80.2455	84.9609	79.2893	84.9609	80.1447	84.9609	79.3051	84.9609	80.0485	84.9609	79.3418	84.9609	79.9576	84.9609	79.3959	84.9609	79.8709	84.9609	79.4631	84.9609	79.7864	84.9609	79.5391	84.9609	79.7028	84.9609	79.6199
87.8906	80.5541	87.8906	80.445	87.8906	80.6485	87.8906	80.3255	87.8906	80.7244	87.8906	80.2001	87.8906	80.7785	87.8906	80.0737	87.8906	80.8085	87.8906	79.9505	87.8906	80.8133	87.8906	79.835	87.8906	80.7931	87.8906	79.7308	87.8906	80.7494	87.8906	79.6415	87.8906	80.6854	87.8906	79.5696	87.8906	80.6054	87.8906	79.5172	87.8906	80.5142	87.8906	79.4854	87.8906	80.4169	87.8906	79.4746	87.8906	80.3176	87.8906	79.4842	87.8906	80.2192	87.8906	79.5129	87.8906	80.1232	87.8906	79.5585	87.8906	80.03	87.8906	79.6182	87.8906	79.9395	87.8906	79.6889	87.8906	79.8517	87.8906	79.7676
90.8203	80.6211	90.8203	80.5117	90.8203	80.7151	90.8203	80.3916	90.8203	80.7897	90.8203	80.2661	90.8203	80.8419	90.8203	80.1409	90.8203	80.8701	90.8203	80.0216	90.8203	80.8741	90.8203	79.9137	90.8203	80.8552	90.8203	79.8219	90.8203	80.8165	90.8203	79.7502	90.8203	80.7624	90.8203	79.7015	90.8203	80.6983	90.8203	79.6771	90.8203	80.6297	90.8203	79.6772	90.8203	80.5612	90.8203	79.7002	90.8203	80.4957	90.8203	79.7434	90.8203	80.434	90.8203	79.8029	90.8203	80.3747	90.8203	79.8742	90.8203	80.3152	90.8203	79.9524	90.8203	80.2526	90.8203	80.0327	90.8203	80.1847	90.8203	80.111
93.75	80.8327	93.75	80.72	93.75	80.9257	93.75	80.5923	93.75	80.9953	93.75	80.455	93.75	81.0389	93.75	80.3141	93.75	81.0554	93.75	80.1758	93.75	81.0453	93.75	80.0464	93.75	81.0108	93.75	79.932	93.75	80.956	93.75	79.8378	93.75	80.8864	93.75	79.7682	93.75	80.8085	93.75	79.726	93.75	80.7285	93.75	79.7125	93.75	80.6514	93.75	79.7269	93.75	80.58	93.75	79.7665	93.75	80.5142	93.75	79.8272	93.75	80.4517	93.75	79.9035	93.75	80.3887	93.75	79.9892	93.75	80.3213	93.75	80.0783	93.75	80.2471	93.75	80.1655
96.6797	81.1856	96.6797	81.0804	96.6797	81.2693	96.6797	80.9577	96.6797	81.3279	96.6797	80.8225	96.6797	81.359	96.6797	80.6799	96.6797	81.3612	96.6797	80.5352	96.6797	81.3348	96.6797	80.394	96.6797	81.2816	96.6797	80.2615	96.6797	81.2055	96.6797	80.1431	96.6797	81.1117	96.6797	80.0433	96.6797	81.0069	96.6797	79.966	96.6797	80.8979	96.6797	79.9139	96.6797	80.7905	96.6797	79.8884	96.6797	80.6888	96.6797	79.8891	96.6797	80.5943	96.6797	79.914	96.6797	80.5061	96.6797	79.9598	96.6797	80.422	96.6797	80.0219	96.6797	80.3395	96.6797	80.0952	96.6797	80.257	96.6797	80.1748
102.539	81.2972	102.539	81.1985	102.539	81.3753	102.539	81.084	102.539	81.4289	102.539	80.959	102.539	81.4555	102.539	80.8292	102.539	81.4537	102.539	80.7005	102.539	81.4244	102.539	80.5784	102.539	81.3703	102.539	80.4683	102.539	81.2963	102.539	80.3748	102.539	81.209	102.539	80.3016	102.539	81.1161	102.539	80.2513	102.539	81.0254	102.539	80.2252	102.539	80.9426	102.539	80.2232	102.539	80.8709	102.539	80.2435	102.539	80.8101	102.539	80.2828	102.539	80.7569	102.539	80.3369	102.539	80.7067	102.539	80.4005	102.539	80.6548	102.539	80.4682	102.539	80.5979	102.539	80.5352
105.469	81.4695	105.469	81.3709	105.469	81.5454	105.469	81.2545	105.469	81.5946	105.469	81.1257	105.469	81.6144	105.469	80.9907	105.469	81.6037	105.469	80.8555	105.469	81.5635	105.469	80.7263	105.469	81.4967	105.469	80.6087	105.469	81.4088	105.469	80.5081	105.469	81.3072	105.469	80.4284	105.469	81.2007	105.469	80.3728	105.469	81.098	105.469	80.3427	105.469	81.0063	105.469	80.3376	105.469	80.9295	105.469	80.3555	105.469	80.8677	105.469	80.3927	105.469	80.8175	105.469	80.4441	105.469	80.7732	105.469	80.5038	105.469	80.7291	105.469	80.5661	105.469	80.6808	105.469	80.6262
108.398	81.6438	108.398	81.5403	108.398	81.7241	108.398	81.4187	108.398	81.777	108.398	81.2847	108.398	81.7997	108.398	81.1445	108.398	81.7911	108.398	81.0046	108.398	81.7517	108.398	80.8711	108.398	81.6848	108.398	80.7501	108.398	81.5955	108.398	80.6467	108.398	81.4912	108.398	80.565	108.398	81.3808	108.398	80.5081	108.398	81.273	108.398	80.4772	108.398	81.1753	108.398	80.4719	108.398	81.092	108.398	80.4897	108.398	81.0236	108.398	80.5269	108.398	80.9673	108.398	80.5783	108.398	80.9179	108.398	80.6383	108.398	80.8698	108.398	80.7011	108.398	80.8185	108.398	80.7621
111.328	81.7866	111.328	81.6796	111.328	81.87	111.328	81.554	111.328	81.9256	111.328	81.4158	111.328	81.9509	111.328	81.2711	111.328	81.9447	111.328	81.1265	111.328	81.9081	111.328	80.9886	111.328	81.8442	111.328	80.8634	111.328	81.7585	111.328	80.7565	111.328	81.6585	111.328	80.6724	111.328	81.5525	111.328	80.6143	111.328	81.4492	111.328	80.5837	111.328	81.355	111.328	80.5803	111.328	81.2738	111.328	80.6019	111.328	81.2055	111.328	80.6445	111.328	81.1468	111.328	80.7029	111.328	81.0926	111.328	80.7709	111.328	81.0377	111.328	80.8426	111.328	80.9783	111.328	80.9128
117.188	82.0349	117.188	81.9363	117.188	82.1079	117.188	81.8171	117.188	82.1513	117.188	81.6834	117.188	82.1627	117.188	81.5415	117.188	82.1416	117.188	81.398	117.188	82.0897	117.188	81.2598	117.188	82.0113	117.188	81.1329	117.188	81.9132	117.188	81.0233	117.188	81.8045	117.188	80.9359	117.188	81.695	117.188	80.8741	117.188	81.5942	117.188	80.84	117.188	81.5087	117.188	80.8338	117.188	81.4412	117.188	80.8535	117.188	81.3896	117.188	80.8951	117.188	81.3485	117.188	80.953	117.188	81.3103	117.188	81.0208	117.188	81.2685	117.188	81.0914	117.188	81.2184	117.188	81.1588
120.117	82.1784	120.117	82.0807	120.117	82.2505	120.117	81.9629	120.117	82.2924	120.117	81.8316	120.117	82.3012	120.117	81.6937	120.117	82.2762	120.117	81.5559	120.117	82.2189	120.117	81.4252	120.117	82.1337	120.117	81.3076	120.117	82.028	120.117	81.2085	120.117	81.9116	120.117	81.1322	120.117	81.7956	120.117	81.0814	120.117	81.6909	120.117	81.0572	120.117	81.6056	120.117	81.059	120.117	81.5431	120.117	81.0838	120.117	81.5018	120.117	81.1272	120.117	81.4752	120.117	81.183	120.117	81.4548	120.117	81.2445	120.117	81.4321	120.117	81.3048	120.117	81.4008	120.117	81.3581
125.977	82.3829	125.977	82.2747	125.977	82.4625	125.977	82.1436	125.977	82.509	125.977	81.9965	125.977	82.5201	125.977	81.8412	125.977	82.4953	125.977	81.686	125.977	82.4369	125.977	81.5392	125.977	82.3497	125.977	81.4087	125.977	82.2414	125.977	81.3012	125.977	82.122	125.977	81.222	125.977	82.0029	125.977	81.1743	125.977	81.8949	125.977	81.1585	125.977	81.806	125.977	81.1725	125.977	81.74	125.977	81.2117	125.977	81.6951	125.977	81.2697	125.977	81.6654	125.977	81.3387	125.977	81.6423	125.977	81.4108	125.977	81.6173	125.977	81.4789	125.977	81.5835	125.977	81.5375
128.906	82.44	128.906	82.3354	128.906	82.5143	128.906	82.2058	128.906	82.5542	128.906	82.0579	128.906	82.5574	128.906	81.8991	128.906	82.5236	128.906	81.7374	128.906	82.4551	128.906	81.5811	128.906	82.357	128.906	81.4384	128.906	82.2372	128.906	81.3168	128.906	82.1063	128.906	81.2225	128.906	81.9759	128.906	81.1597	128.906	81.8576	128.906	81.1302	128.906	81.76	128.906	81.1327	128.906	81.6871	128.906	81.163	128.906	81.6374	128.906	81.2145	128.906	81.6045	128.906	81.2793	128.906	81.5796	128.906	81.3489	128.906	81.5536	128.906	81.4156	128.906	81.5195	128.906	81.4736
134.766	82.5023	134.766	82.3936	134.766	82.5805	134.766	82.2603	134.766	82.6239	134.766	82.1094	134.766	82.6301	134.766	81.9485	134.766	82.5991	134.766	81.786	134.766	82.5334	134.766	81.63	134.766	82.4388	134.766	81.4886	134.766	82.3238	134.766	81.3691	134.766	82.1993	134.766	81.2774	134.766	82.0776	134.766	81.2177	134.766	81.9694	134.766	81.1916	134.766	81.8825	134.766	81.1982	134.766	81.8193	134.766	81.2336	134.766	81.7765	134.766	81.2916	134.766	81.7467	134.766	81.3645	134.766	81.7205	134.766	81.4437	134.766	81.6891	134.766	81.5211	134.766	81.6465	134.766	81.5901
137.695	82.5581	137.695	82.4456	137.695	82.6393	137.695	82.3077	137.695	82.6846	137.695	82.1519	137.695	82.6917	137.695	81.9862	137.695	82.6604	137.695	81.8192	137.695	82.5937	137.695	81.6598	137.695	82.4976	137.695	81.5163	137.695	82.3813	137.695	81.3964	137.695	82.2565	137.695	81.3064	137.695	82.1359	137.695	81.2503	137.695	82.0309	137.695	81.2299	137.695	81.9491	137.695	81.2439	137.695	81.8925	137.695	81.2878	137.695	81.8569	137.695	81.355	137.695	81.8336	137.695	81.4368	137.695	81.8124	137.695	81.5242	137.695	81.7838	137.695	81.6085	137.695	81.7413	137.695	81.6824
143.555	82.6343	143.555	82.5139	143.555	82.7195	143.555	82.3647	143.555	82.7648	143.555	82.1949	143.555	82.7677	143.555	82.0134	143.555	82.7285	143.555	81.83	143.555	82.6505	143.555	81.6547	143.555	82.5404	143.555	81.4974	143.555	82.4088	143.555	81.3669	143.555	82.2687	143.555	81.2705	143.555	82.1348	143.555	81.2129	143.555	82.02	143.555	81.1957	143.555	81.9333	143.555	81.2167	143.555	81.8769	143.555	81.2705	143.555	81.8459	143.555	81.3485	143.555	81.8302	143.555	81.4408	143.555	81.8174	143.555	81.5366	143.555	81.7963	143.555	81.6263	143.555	81.759	143.555	81.702
149.414	82.8152	149.414	82.6938	149.414	82.8971	149.414	82.5391	149.414	82.9351	149.414	82.3591	149.414	82.9273	149.414	82.163	149.414	82.8742	149.414	81.9611	149.414	82.7801	149.414	81.7642	149.414	82.6527	149.414	81.5836	149.414	82.5036	149.414	81.43	149.414	82.3472	149.414	81.3124	149.414	82.1996	149.414	81.2376	149.414	82.075	149.414	81.2083	149.414	81.9825	149.414	81.2231	149.414	81.924	149.414	81.276	149.414	81.8934	149.414	81.3578	149.414	81.8788	149.414	81.4567	149.414	81.8667	149.414	81.5608	149.414	81.8446	149.414	81.6587	149.414	81.8041	149.414	81.7417
155.273	83.0484	155.273	82.9312	155.273	83.1236	155.273	82.778	155.273	83.1525	155.273	82.5965	155.273	83.1329	155.273	82.3956	155.273	83.0658	155.273	82.1851	155.273	82.955	155.273	81.9758	155.273	82.8086	155.273	81.7792	155.273	82.6387	155.273	81.6066	155.273	82.4606	155.273	81.4682	155.273	82.2918	155.273	81.3723	155.273	82.1484	155.273	81.3233	155.273	82.0411	155.273	81.3212	155.273	81.9728	155.273	81.361	155.273	81.9375	155.273	81.4332	155.273	81.9226	155.273	81.5257	155.273	81.9129	155.273	81.6254	155.273	81.8946	155.273	81.7199	155.273	81.8582	155.273	81.7996
158.203	83.076	158.203	82.959	158.203	83.1507	158.203	82.8056	158.203	83.179	158.203	82.6234	158.203	83.1589	158.203	82.4212	158.203	83.0913	158.203	82.209	158.203	82.9806	158.203	81.9976	158.203	82.8349	158.203	81.7983	158.203	82.6664	158.203	81.6228	158.203	82.4908	158.203	81.4818	158.203	82.3253	158.203	81.3836	158.203	82.1856	158.203	81.3334	158.203	82.0821	158.203	81.3313	158.203	82.0169	158.203	81.3723	158.203	81.9834	158.203	81.447	158.203	81.9686	158.203	81.5432	158.203	81.9572	158.203	81.6473	158.203	81.9357	158.203	81.7468	158.203	81.8951	158.203	81.8316
164.063	83.1601	164.063	83.0368	164.063	83.2411	164.063	82.8776	164.063	83.2751	164.063	82.6904	164.063	83.2597	164.063	82.4842	164.063	83.1952	164.063	82.2689	164.063	83.0857	164.063	82.055	164.063	82.9392	164.063	81.8538	164.063	82.7685	164.063	81.6766	164.063	82.5899	164.063	81.5342	164.063	82.4217	164.063	81.4354	164.063	82.2809	164.063	81.3856	164.063	82.1786	164.063	81.3857	164.063	82.1168	164.063	81.4312	164.063	82.0881	164.063	81.5129	164.063	82.078	164.063	81.618	164.063	82.0698	164.063	81.7322	164.063	82.0486	164.063	81.8417	164.063	82.005	164.063	81.9352
169.922	83.1315	169.922	83.0126	169.922	83.2056	169.922	82.8555	169.922	83.2304	169.922	82.6686	169.922	83.2038	169.922	82.4614	169.922	83.1269	169.922	82.2448	169.922	83.0047	169.922	82.0303	169.922	82.8465	169.922	81.8302	169.922	82.6662	169.922	81.6565	169.922	82.4818	169.922	81.5204	169.922	82.3128	169.922	81.4305	169.922	82.1769	169.922	81.3917	169.922	82.0851	169.922	81.4034	169.922	82.0387	169.922	81.4596	169.922	82.0285	169.922	81.5495	169.922	82.0383	169.922	81.6591	169.922	82.0497	169.922	81.7732	169.922	82.0469	169.922	81.8781	169.922	82.0193	169.922	81.9624
175.781	83.1028	175.781	82.9814	175.781	83.178	175.781	82.8201	175.781	83.2024	175.781	82.6272	175.781	83.1744	175.781	82.4123	175.781	83.0951	175.781	82.1866	175.781	82.9696	175.781	81.9626	175.781	82.8078	175.781	81.7538	175.781	82.6239	175.781	81.5738	175.781	82.4369	175.781	81.4357	175.781	82.2675	175.781	81.3495	175.781	82.1344	175.781	81.3205	175.781	82.0492	175.781	81.3476	175.781	82.0131	175.781	81.423	175.781	82.0158	175.781	81.5333	175.781	82.0397	175.781	81.6618	175.781	82.0644	175.781	81.7913	175.781	82.0722	175.781	81.9065	175.781	82.051	175.781	81.9954
181.641	83.0852	181.641	82.9641	181.641	83.1559	181.641	82.7987	181.641	83.1723	181.641	82.5966	181.641	83.1331	181.641	82.3672	181.641	83.0403	181.641	82.1217	181.641	82.9001	181.641	81.8727	181.641	82.7234	181.641	81.6346	181.641	82.5262	181.641	81.4231	181.641	82.3288	181.641	81.2539	181.641	82.1529	181.641	81.1402	181.641	82.0174	181.641	81.0908	181.641	81.933	181.641	81.1066	181.641	81.8986	181.641	81.1805	181.641	81.9018	181.641	81.298	181.641	81.923	181.641	81.4404	181.641	81.941	181.641	81.5877	181.641	81.9381	181.641	81.7221	181.641	81.9026	181.641	81.8299
190.43	83.1445	190.43	83.0311	190.43	83.2055	190.43	82.8719	190.43	83.2089	190.43	82.6749	190.43	83.1526	190.43	82.4493	190.43	83.0378	190.43	82.2049	190.43	82.8702	190.43	81.9527	190.43	82.6616	190.43	81.7053	190.43	82.4299	190.43	81.4765	190.43	82.1984	190.43	81.2816	190.43	81.993	190.43	81.1349	190.43	81.8366	190.43	81.0479	190.43	81.7417	190.43	81.0259	190.43	81.7065	190.43	81.0659	190.43	81.7152	190.43	81.1569	190.43	81.7438	190.43	81.2813	190.43	81.7679	190.43	81.4188	190.43	81.7679	190.43	81.5499	190.43	81.7324	190.43	81.6581
196.289	83.1803	196.289	83.067	196.289	83.2376	196.289	82.9056	196.289	83.2334	196.289	82.7055	196.289	83.1653	196.289	82.4775	196.289	83.035	196.289	82.2335	196.289	82.8493	196.289	81.9862	196.289	82.6215	196.289	81.7493	196.289	82.372	196.289	81.5371	196.289	82.1275	196.289	81.3637	196.289	81.9173	196.289	81.2417	196.289	81.7667	196.289	81.1793	196.289	81.6886	196.289	81.1786	196.289	81.6789	196.289	81.2341	196.289	81.7182	196.289	81.3329	196.289	81.7788	196.289	81.4575	196.289	81.8336	196.289	81.5883	196.289	81.8616	196.289	81.7068	196.289	81.8507	196.289	81.7978
202.148	83.2475	202.148	83.12	202.148	83.3133	202.148	82.9394	202.148	83.3112	202.148	82.7158	202.148	83.2379	202.148	82.4609	202.148	83.094	202.148	82.1877	202.148	82.8854	202.148	81.9109	202.148	82.6251	202.148	81.6465	202.148	82.3343	202.148	81.4119	202.148	82.0427	202.148	81.2243	202.148	81.7854	202.148	81.098	202.148	81.5952	202.148	81.042	202.148	81.4922	202.148	81.0563	202.148	81.4764	202.148	81.1316	202.148	81.5269	202.148	81.2507	202.148	81.6111	202.148	81.3916	202.148	81.6953	202.148	81.5316	202.148	81.7528	202.148	81.6504	202.148	81.7672	202.148	81.7322
210.938	83.2343	210.938	83.114	210.938	83.2914	210.938	82.9375	210.938	83.28	210.938	82.7135	210.938	83.1976	210.938	82.4521	210.938	83.0456	210.938	82.1646	210.938	82.8299	210.938	81.8643	210.938	82.5633	210.938	81.5669	210.938	82.2662	210.938	81.2909	210.938	81.9671	210.938	81.0561	210.938	81.6995	210.938	80.882	210.938	81.4953	210.938	80.7832	210.938	81.3748	210.938	80.765	210.938	81.3387	210.938	80.8213	210.938	81.3678	210.938	80.9347	210.938	81.4306	210.938	81.081	210.938	81.494	210.938	81.234	210.938	81.5313	210.938	81.37	210.938	81.5257	210.938	81.471
216.797	83.1526	216.797	83.0324	216.797	83.2076	216.797	82.8549	216.797	83.1917	216.797	82.6294	216.797	83.1018	216.797	82.3667	216.797	82.9393	216.797	82.0788	216.797	82.7106	216.797	81.7797	216.797	82.4296	216.797	81.4856	216.797	82.1188	216.797	81.2155	216.797	81.8097	216.797	80.9898	216.797	81.5395	216.797	80.8281	216.797	81.3426	216.797	80.7441	216.797	81.2395	216.797	80.742	216.797	81.2283	216.797	80.8136	216.797	81.2856	216.797	80.9398	216.797	81.3756	216.797	81.0948	216.797	81.4627	216.797	81.2518	216.797	81.5189	216.797	81.3871	216.797	81.5277	216.797	81.4827
225.586	83.3622	225.586	83.2529	225.586	83.4003	225.586	83.0807	225.586	83.3606	225.586	82.8552	225.586	83.239	225.586	82.5868	225.586	83.0357	225.586	82.2872	225.586	82.7565	225.586	81.9699	225.586	82.4159	225.586	81.6516	225.586	82.0395	225.586	81.3526	225.586	81.6655	225.586	81.0965	225.586	81.3418	225.586	80.9069	225.586	81.115	225.586	80.8022	225.586	81.0138	225.586	80.7896	225.586	81.0349	225.586	80.8608	225.586	81.1447	225.586	80.9941	225.586	81.2943	225.586	81.1593	225.586	81.4368	225.586	81.3248	225.586	81.5379	225.586	81.4626	225.586	81.5782	225.586	81.5516
234.375	83.3509	234.375	83.2157	234.375	83.415	234.375	83.0188	234.375	83.4001	234.375	82.7708	234.375	83.3006	234.375	82.4823	234.375	83.1147	234.375	82.1644	234.375	82.8456	234.375	81.829	234.375	82.5041	234.375	81.4908	234.375	82.1107	234.375	81.1681	234.375	81.6987	234.375	80.8838	234.375	81.3136	234.375	80.6629	234.375	81.0056	234.375	80.5275	234.375	80.8151	234.375	80.4888	234.375	80.7551	234.375	80.5416	234.375	80.8051	234.375	80.6639	234.375	80.9203	234.375	80.8228	234.375	81.0507	234.375	80.9829	234.375	81.1548	234.375	81.1133	234.375	81.2058	234.375	81.1917
240.234	83.2399	240.234	83.094	240.234	83.3134	240.234	82.8859	240.234	83.306	240.234	82.6267	240.234	83.2115	240.234	82.3279	240.234	83.0277	240.234	82.0016	240.234	82.7572	240.234	81.6605	240.234	82.4106	240.234	81.3196	240.234	82.0087	240.234	80.997	240.234	81.5863	240.234	80.7143	240.234	81.1906	240.234	80.4949	240.234	80.8743	240.234	80.3589	240.234	80.6784	240.234	80.3163	240.234	80.6143	240.234	80.3617	240.234	80.6586	240.234	80.4743	240.234	80.7645	240.234	80.6236	240.234	80.8818	240.234	80.7766	240.234	80.9714	240.234	80.9046	240.234	81.0093	240.234	80.9863
249.023	83.3579	249.023	83.1859	249.023	83.4509	249.023	82.9444	249.023	83.4573	249.023	82.6439	249.023	83.3719	249.023	82.2961	249.023	83.1928	249.023	81.9135	249.023	82.9229	249.023	81.5103	249.023	82.5721	249.023	81.1045	249.023	82.1605	249.023	80.719	249.023	81.7216	249.023	80.3825	249.023	81.3027	249.023	80.1262	249.023	80.9583	249.023	79.9764	249.023	80.7341	249.023	79.9454	249.023	80.6467	249.023	80.0244	249.023	80.6746	249.023	80.1854	249.023	80.7686	249.023	80.3896	249.023	80.8739	249.023	80.5976	249.023	80.9464	249.023	80.7762	249.023	80.959	249.023	80.9013
257.813	83.2659	257.813	83.1041	257.813	83.3561	257.813	82.8804	257.813	83.3661	257.813	82.6047	257.813	83.2892	257.813	82.2869	257.813	83.1217	257.813	81.9364	257.813	82.8641	257.813	81.564	257.813	82.5234	257.813	81.1828	257.813	82.1166	257.813	80.8116	257.813	81.6738	257.813	80.4762	257.813	81.2407	257.813	80.2079	257.813	80.8742	257.813	80.0375	257.813	80.6273	257.813	79.9841	257.813	80.5268	257.813	80.0464	257.813	80.5583	257.813	80.2001	257.813	80.673	257.813	80.4051	257.813	80.8094	257.813	80.617	257.813	80.9148	257.813	80.7967	257.813	80.9548	257.813	80.9148
266.602	83.0617	266.602	82.8652	266.602	83.1778	266.602	82.5987	266.602	83.2054	266.602	82.2735	266.602	83.1391	266.602	81.9017	266.602	82.977	266.602	81.4957	266.602	82.7219	266.602	81.0682	266.602	82.3832	266.602	80.6342	266.602	81.9791	266.602	80.2138	266.602	81.5398	266.602	79.8344	266.602	81.1085	266.602	79.5307	266.602	80.7373	266.602	79.3386	266.602	80.4736	266.602	79.2823	266.602	80.3419	266.602	79.3623	266.602	80.3303	266.602	79.5511	266.602	80.3962	266.602	79.8022	266.602	80.484	266.602	80.0641	266.602	80.5435	266.602	80.2925	266.602	80.5401	266.602	80.4564
278.32	83.1452	278.32	83.0205	278.32	83.1861	278.32	82.8175	278.32	83.1392	278.32	82.5418	278.32	83.0031	278.32	82.1997	278.32	82.7801	278.32	81.7982	278.32	82.478	278.32	81.3475	278.32	82.1119	278.32	80.8634	278.32	81.7058	278.32	80.3713	278.32	81.2932	278.32	79.9089	278.32	80.9146	278.32	79.5242	278.32	80.6089	278.32	79.2658	278.32	80.4019	278.32	79.1652	278.32	80.2971	278.32	79.221	278.32	80.2753	278.32	79.3973	278.32	80.3033	278.32	79.6382	278.32	80.3443	278.32	79.8873	278.32	80.3657	278.32	80.1016	278.32	80.3418	278.32	80.2557
287.109	83.0852	287.109	82.9807	287.109	83.107	287.109	82.8034	287.109	83.0365	287.109	82.5615	287.109	82.8665	287.109	82.2607	287.109	82.5942	287.109	81.9042	287.109	82.2245	287.109	81.4954	287.109	81.7732	287.109	81.0415	287.109	81.2724	287.109	80.5595	287.109	80.7742	287.109	80.0809	287.109	80.3475	287.109	79.6545	287.109	80.0606	287.109	79.3389	287.109	79.9502	287.109	79.1838	287.109	79.9996	287.109	79.2058	287.109	80.1481	287.109	79.3779	287.109	80.3221	287.109	79.6416	287.109	80.4614	287.109	79.9315	287.109	80.5287	287.109	80.1939	287.109	80.5067	287.109	80.3924
295.898	83.1303	295.898	82.9814	295.898	83.1971	295.898	82.7647	295.898	83.1684	295.898	82.4922	295.898	83.0334	295.898	82.1721	295.898	82.7849	295.898	81.8077	295.898	82.4216	295.898	81.3984	295.898	81.951	295.898	80.944	295.898	81.395	295.898	80.451	295.898	80.7976	295.898	79.9398	295.898	80.2313	295.898	79.4506	295.898	79.7896	295.898	79.0438	295.898	79.5517	295.898	78.7858	295.898	79.5355	295.898	78.7215	295.898	79.6816	295.898	78.8472	295.898	79.8902	295.898	79.1105	295.898	80.0697	295.898	79.4346	295.898	80.1605	295.898	79.7466	295.898	80.1353	295.898	79.9918
307.617	83.102	307.617	82.9351	307.617	83.181	307.617	82.6962	307.617	83.1594	307.617	82.4032	307.617	83.0284	307.617	82.0724	307.617	82.7831	307.617	81.7168	307.617	82.4231	307.617	81.3439	307.617	81.9543	307.617	80.9585	307.617	81.3927	307.617	80.5669	307.617	80.772	307.617	80.1828	307.617	80.1514	307.617	79.8317	307.617	79.6167	307.617	79.5498	307.617	79.2608	307.617	79.3745	307.617	79.1387	307.617	79.328	307.617	79.2301	307.617	79.4033	307.617	79.4512	307.617	79.5633	307.617	79.7017	307.617	79.7535	307.617	79.9036	307.617	79.9187	307.617	80.0126	307.617	80.0146
319.336	83.0294	319.336	82.8807	319.336	83.0909	319.336	82.6576	319.336	83.0536	319.336	82.3724	319.336	82.908	319.336	82.0352	319.336	82.6473	319.336	81.6526	319.336	82.2689	319.336	81.2284	319.336	81.7764	319.336	80.767	319.336	81.1851	319.336	80.2793	319.336	80.5296	319.336	79.7895	319.336	79.8735	319.336	79.3396	319.336	79.3094	319.336	78.986	319.336	78.9368	319.336	78.7824	319.336	78.8116	319.336	78.7539	319.336	78.9073	319.336	78.8794	319.336	79.1325	319.336	79.1001	319.336	79.3831	319.336	79.3438	319.336	79.5809	319.336	79.5479	319.336	79.6814	319.336	79.6685
331.055	82.7972	331.055	82.6043	331.055	82.9094	331.055	82.3466	331.055	82.9281	331.055	82.0404	331.055	82.8435	331.055	81.6995	331.055	82.6498	331.055	81.3322	331.055	82.3453	331.055	80.9406	331.055	81.9329	331.055	80.5237	331.055	81.4238	331.055	80.0837	331.055	80.8421	331.055	79.6348	331.055	80.2328	331.055	79.2104	331.055	79.6669	331.055	78.8625	331.055	79.2331	331.055	78.6487	331.055	79.0046	331.055	78.6055	331.055	78.9953	331.055	78.7249	331.055	79.1456	331.055	78.9542	331.055	79.3567	331.055	79.2194	331.055	79.5368	331.055	79.4503	331.055	79.625	331.055	79.5951
342.773	82.516	342.773	82.3301	342.773	82.6046	342.773	82.0631	342.773	82.5839	342.773	81.7332	342.773	82.4462	342.773	81.3573	342.773	82.1882	342.773	80.9482	342.773	81.812	342.773	80.5128	342.773	81.3254	342.773	80.0552	342.773	80.747	342.773	79.5828	342.773	80.1119	342.773	79.1154	342.773	79.4802	342.773	78.6926	342.773	78.9392	342.773	78.3723	342.773	78.5844	342.773	78.2135	342.773	78.4756	342.773	78.2464	342.773	78.5959	342.773	78.4491	342.773	78.8587	342.773	78.7541	342.773	79.1544	342.773	79.0767	342.773	79.3921	342.773	79.3419	342.773	79.5147	342.773	79.4971
354.492	82.7903	354.492	82.6261	354.492	82.8558	354.492	82.3772	354.492	82.8106	354.492	82.0581	354.492	82.6468	354.492	81.6805	354.492	82.3603	354.492	81.2498	354.492	81.952	354.492	80.7651	354.492	81.429	354.492	80.2232	354.492	80.8086	354.492	79.6268	354.492	80.1239	354.492	78.998	354.492	79.4315	354.492	78.3907	354.492	78.8153	354.492	77.8957	354.492	78.3734	354.492	77.6163	354.492	78.1782	354.492	77.6125	354.492	78.2313	354.492	77.8523	354.492	78.4574	354.492	78.2289	354.492	78.7447	354.492	78.6201	354.492	78.9907	354.492	78.9313	354.492	79.124	354.492	79.1067
366.211	82.9775	366.211	82.8066	366.211	83.0436	366.211	82.5496	366.211	82.9895	366.211	82.2257	366.211	82.8048	366.211	81.8502	366.211	82.4847	366.211	81.4294	366.211	82.0306	366.211	80.9598	366.211	81.4525	366.211	80.431	366.211	80.7736	366.211	79.8336	366.211	80.0368	366.211	79.1717	366.211	79.3113	366.211	78.4762	366.211	78.6875	366.211	77.8185	366.211	78.2507	366.211	77.3072	366.211	78.0398	366.211	77.05	366.211	78.0263	366.211	77.0852	366.211	78.135	366.211	77.3468	366.211	78.2797	366.211	77.7077	366.211	78.3866	366.211	78.0477	366.211	78.4007	366.211	78.2894
377.93	82.9376	377.93	82.6788	377.93	83.1006	377.93	82.3559	377.93	83.1415	377.93	82.0027	377.93	83.041	377.93	81.646	377.93	82.7852	377.93	81.297	377.93	82.3647	377.93	80.9476	377.93	81.7758	377.93	80.5752	377.93	81.0265	377.93	80.1557	377.93	80.1522	377.93	79.6765	377.93	79.2421	377.93	79.1507	377.93	78.4615	377.93	78.6266	377.93	78.0128	377.93	78.1892	377.93	77.9954	377.93	77.9372	377.93	78.3046	377.93	77.9319	377.93	78.7279	377.93	78.1523	377.93	79.0898	377.93	78.5051	377.93	79.2977	377.93	78.8756	377.93	79.3214	377.93	79.1689
392.578	82.3966	392.578	82.1278	392.578	82.5651	392.578	81.7796	392.578	82.619	392.578	81.3797	392.578	82.5482	392.578	80.9602	392.578	82.3448	392.578	80.5493	392.578	82.0009	392.578	80.1631	392.578	81.5087	392.578	79.8008	392.578	80.8612	392.578	79.4487	392.578	80.0597	392.578	79.0933	392.578	79.1292	392.578	78.7349	392.578	78.1498	392.578	78.3977	392.578	77.2916	392.578	78.1289	392.578	76.7914	392.578	77.9818	392.578	76.7906	392.578	77.986	392.578	77.183	392.578	78.1216	392.578	77.7156	392.578	78.3219	392.578	78.1796	392.578	78.4985	392.578	78.4715	392.578	78.5686
407.227	82.4799	407.227	82.2428	407.227	82.599	407.227	81.9075	407.227	82.5857	407.227	81.4967	407.227	82.4311	407.227	81.0317	407.227	82.1306	407.227	80.5279	407.227	81.6813	407.227	79.9924	407.227	81.0815	407.227	79.4276	407.227	80.3314	407.227	78.8409	407.227	79.4408	407.227	78.2577	407.227	78.4466	407.227	77.7337	407.227	77.4465	407.227	77.3546	407.227	76.6332	407.227	77.208	407.227	76.2543	407.227	77.3286	407.227	76.426	407.227	77.6635	407.227	76.9986	407.227	78.0964	407.227	77.6946	407.227	78.5012	407.227	78.2982	407.227	78.7768	407.227	78.6975	407.227	78.8549
421.875	82.1924	421.875	81.9437	421.875	82.3584	421.875	81.6356	421.875	82.4273	421.875	81.297	421.875	82.3911	421.875	80.9544	421.875	82.2453	421.875	80.6199	421.875	81.9853	421.875	80.2841	421.875	81.6034	421.875	79.9199	421.875	81.0862	421.875	79.497	421.875	80.4148	421.875	78.9999	421.875	79.5691	421.875	78.4458	421.875	78.5458	421.875	77.8982	421.875	77.4007	421.875	77.4654	421.875	76.3274	421.875	77.2602	421.875	75.688	421.875	77.3222	421.875	75.7601	421.875	77.5746	421.875	76.3786	421.875	77.8677	421.875	77.1271	421.875	78.0531	421.875	77.7121	421.875	78.0215
436.523	82.3158	436.523	82.0879	436.523	82.4248	436.523	81.764	436.523	82.4029	436.523	81.3758	436.523	82.2484	436.523	80.9566	436.523	81.969	436.523	80.5288	436.523	81.5791	436.523	80.0939	436.523	81.0971	436.523	79.6331	436.523	80.5408	436.523	79.1219	436.523	79.9219	436.523	78.5523	436.523	79.2442	436.523	77.9591	436.523	78.5109	436.523	77.4363	436.523	77.7515	436.523	77.1232	436.523	77.0667	436.523	77.1266	436.523	76.6511	436.523	77.4266	436.523	76.6865	436.523	77.8778	436.523	77.138	436.523	78.3013	436.523	77.7541	436.523	78.5563	436.523	78.276	436.523	78.5574
451.172	82.4296	451.172	82.1817	451.172	82.5305	451.172	81.819	451.172	82.469	451.172	81.3895	451.172	82.2442	451.172	80.9466	451.172	81.8667	451.172	80.5283	451.172	81.3566	451.172	80.1373	451.172	80.7415	451.172	79.7386	451.172	80.0524	451.172	79.2785	451.172	79.3161	451.172	78.7125	451.172	78.5439	451.172	78.0323	451.172	77.727	451.172	77.2918	451.172	76.8561	451.172	76.6279	451.172	75.9828	451.172	76.2351	451.172	75.3043	451.172	76.2372	451.172	75.1239	451.172	76.5562	451.172	75.535	451.172	76.9642	451.172	76.2449	451.172	77.2361	451.172	76.8789	451.172	77.2263
465.82	82.4532	465.82	82.1068	465.82	82.6291	465.82	81.6315	465.82	82.6166	465.82	81.092	465.82	82.4155	465.82	80.564	465.82	82.0398	465.82	80.1021	465.82	81.5145	465.82	79.7083	465.82	80.8736	465.82	79.3291	465.82	80.1548	465.82	78.8891	465.82	79.3924	465.82	78.3303	465.82	78.6036	465.82	77.6437	465.82	77.7801	465.82	76.8967	465.82	76.9008	465.82	76.2547	465.82	75.9898	465.82	75.9361	465.82	75.2153	465.82	76.0488	465.82	74.9068	465.82	76.463	465.82	75.2509	465.82	76.916	465.82	75.9898	465.82	77.1804	465.82	76.6999	465.82	77.1221
483.398	84.1362	483.398	83.8303	483.398	84.1956	483.398	83.2805	483.398	84.018	483.398	82.5113	483.398	83.6207	483.398	81.5823	483.398	83.0269	483.398	80.5959	483.398	82.2686	483.398	79.6806	483.398	81.3937	483.398	78.9314	483.398	80.4771	483.398	78.3448	483.398	79.6205	483.398	77.8205	483.398	78.9117	483.398	77.2296	483.398	78.3428	483.398	76.4785	483.398	77.7663	483.398	75.5453	483.398	76.9527	483.398	74.509	483.398	75.687	483.398	73.559	483.398	73.8637	483.398	72.8921	483.398	71.7174	483.398	72.4887	483.398	70.2667	483.398	72.0691	483.398	70.4397	483.398	71.3533
500.977	83.3486	500.977	83.0549	500.977	83.4989	500.977	82.6343	500.977	83.4943	500.977	82.1095	500.977	83.3265	500.977	81.5078	500.977	82.9881	500.977	80.8566	500.977	82.4711	500.977	80.1761	500.977	81.7664	500.977	79.4728	500.977	80.871	500.977	78.7412	500.977	79.8097	500.977	77.9749	500.977	78.6822	500.977	77.1852	500.977	77.7151	500.977	76.4229	500.977	77.1957	500.977	75.7879	500.977	77.2016	500.977	75.4024	500.977	77.4872	500.977	75.3386	500.977	77.7445	500.977	75.5626	500.977	77.809	500.977	75.9651	500.977	77.6561	500.977	76.4379	500.977	77.3345	500.977	76.9104
518.555	82.1511	518.555	81.9509	518.555	82.2182	518.555	81.6282	518.555	82.154	518.555	81.2086	518.555	81.9686	518.555	80.7336	518.555	81.6805	518.555	80.2537	518.555	81.3157	518.555	79.8116	518.555	80.905	518.555	79.4221	518.555	80.4739	518.555	79.0626	518.555	80.0262	518.555	78.6829	518.555	79.5316	518.555	78.231	518.555	78.9341	518.555	77.6837	518.555	78.1923	518.555	77.0766	518.555	77.3551	518.555	76.5253	518.555	76.64	518.555	76.2008	518.555	76.3548	518.555	76.2193	518.555	76.5598	518.555	76.5251	518.555	76.956	518.555	76.9211	518.555	77.2163	518.555	77.1971
536.133	82.4768	536.133	82.1458	536.133	82.5779	536.133	81.6029	536.133	82.4373	536.133	80.8791	536.133	82.0489	536.133	80.0308	536.133	81.4192	536.133	79.1536	536.133	80.5842	536.133	78.3798	536.133	79.6433	536.133	77.8297	536.133	78.7942	536.133	77.5282	536.133	78.2837	536.133	77.3761	536.133	78.1933	536.133	77.2207	536.133	78.3001	536.133	76.9496	536.133	78.2589	536.133	76.5471	536.133	77.8359	536.133	76.1222	536.133	77.0296	536.133	75.8868	536.133	76.1896	536.133	76.0107	536.133	75.9135	536.133	76.4289	536.133	76.3131	536.133	76.8699	536.133	76.841	536.133	77.0558
553.711	82.0495	553.711	81.7976	553.711	82.1536	553.711	81.4072	553.711	82.0957	553.711	80.8826	553.711	81.8579	553.711	80.2275	553.711	81.4208	553.711	79.458	553.711	80.7672	553.711	78.6201	553.711	79.894	553.711	77.7999	553.711	78.8426	553.711	77.1023	553.711	77.7559	553.711	76.5883	553.711	76.9143	553.711	76.2237	553.711	76.5747	553.711	75.9096	553.711	76.6491	553.711	75.5693	553.711	76.7602	553.711	75.2128	553.711	76.6098	553.711	74.9419	553.711	76.1581	553.711	74.8735	553.711	75.6208	553.711	75.0092	553.711	75.3016	553.711	75.2033	553.711	75.265	553.711	75.2941
574.219	82.096	574.219	81.7655	574.219	82.2763	574.219	81.3175	574.219	82.2748	574.219	80.7807	574.219	82.0637	574.219	80.1722	574.219	81.6229	574.219	79.4925	574.219	80.9465	574.219	78.7339	574.219	80.0544	574.219	77.9054	574.219	79.009	574.219	77.0601	574.219	77.9348	574.219	76.2947	574.219	77.0088	574.219	75.6944	574.219	76.3715	574.219	75.2587	574.219	76.0104	574.219	74.9073	574.219	75.7941	574.219	74.5799	574.219	75.6336	574.219	74.3291	574.219	75.5518	574.219	74.3022	574.219	75.5872	574.219	74.5775	574.219	75.6727	574.219	75.0319	574.219	75.6606	574.219	75.4429
594.727	81.8157	594.727	81.5404	594.727	81.8989	594.727	81.0983	594.727	81.7863	594.727	80.5375	594.727	81.4893	594.727	79.9178	594.727	81.0272	594.727	79.2867	594.727	80.4223	594.727	78.6576	594.727	79.7009	594.727	78.0129	594.727	78.9012	594.727	77.3344	594.727	78.0825	594.727	76.6323	594.727	77.3137	594.727	75.9481	594.727	76.6257	594.727	75.3289	594.727	75.9724	594.727	74.8098	594.727	75.3011	594.727	74.4432	594.727	74.74	594.727	74.34	594.727	74.6507	594.727	74.6083	594.727	75.1674	594.727	75.1917	594.727	75.8748	594.727	75.8432	594.727	76.3061	594.727	76.2796
615.234	81.7809	615.234	81.4572	615.234	81.8962	615.234	80.956	615.234	81.781	615.234	80.325	615.234	81.422	615.234	79.634	615.234	80.8227	615.234	78.964	615.234	80.0152	615.234	78.3738	615.234	79.074	615.234	77.8702	615.234	78.1238	615.234	77.4164	615.234	77.3195	615.234	76.9716	615.234	76.7697	615.234	76.5145	615.234	76.4396	615.234	76.0318	615.234	76.152	615.234	75.5033	615.234	75.7076	615.234	74.9318	615.234	75.0413	615.234	74.4186	615.234	74.3811	615.234	74.1874	615.234	74.192	615.234	74.3856	615.234	74.5687	615.234	74.8254	615.234	75.02	615.234	75.1222
638.672	82.552	638.672	82.1321	638.672	82.7077	638.672	81.4729	638.672	82.5898	638.672	80.6172	638.672	82.2005	638.672	79.6227	638.672	81.5475	638.672	78.5575	638.672	80.6437	638.672	77.5013	638.672	79.5189	638.672	76.5585	638.672	78.258	638.672	75.8572	638.672	77.0686	638.672	75.4812	638.672	76.2787	638.672	75.3595	638.672	76.0545	638.672	75.2774	638.672	76.1124	638.672	75.0247	638.672	75.9902	638.672	74.5472	638.672	75.4719	638.672	74.0746	638.672	74.8343	638.672	74.0881	638.672	74.7755	638.672	74.7666	638.672	75.4258	638.672	75.6409	638.672	76.0645	638.672	76.1604
659.18	82.0465	659.18	81.751	659.18	82.0897	659.18	81.2204	659.18	81.8941	659.18	80.5189	659.18	81.4864	659.18	79.7533	659.18	80.895	659.18	79.0213	659.18	80.1414	659.18	78.3336	659.18	79.2355	659.18	77.6072	659.18	78.1868	659.18	76.7655	659.18	77.048	659.18	75.8544	659.18	75.9822	659.18	75.0594	659.18	75.2252	659.18	74.5244	659.18	74.803	659.18	74.1357	659.18	74.3937	659.18	73.6428	659.18	73.7076	659.18	72.9853	659.18	72.961	659.18	72.4839	659.18	72.8537	659.18	72.6062	659.18	73.4441	659.18	73.2677	659.18	73.9438	659.18	73.8667
682.617	82.2758	682.617	81.979	682.617	82.3133	682.617	81.4228	682.617	82.0939	682.617	80.6213	682.617	81.6274	682.617	79.64	682.617	80.936	682.617	78.6294	682.617	80.0498	682.617	77.7716	682.617	79.0041	682.617	77.1157	682.617	77.8619	682.617	76.5265	682.617	76.7637	682.617	75.8783	682.617	75.9383	682.617	75.2294	682.617	75.5501	682.617	74.7401	682.617	75.4822	682.617	74.3881	682.617	75.3772	682.617	73.9268	682.617	74.8733	682.617	73.231	682.617	73.8596	682.617	72.6442	682.617	72.8955	682.617	72.7984	682.617	73.0045	682.617	73.5543	682.617	73.7713	682.617	74.0482
706.055	82.9542	706.055	82.5566	706.055	83.0513	706.055	81.8796	706.055	82.8413	706.055	80.9589	706.055	82.329	706.055	79.8533	706.055	81.528	706.055	78.6819	706.055	80.4732	706.055	77.6571	706.055	79.2533	706.055	76.9788	706.055	78.0218	706.055	76.596	706.055	76.9164	706.055	76.234	706.055	75.9639	706.055	75.6914	706.055	75.195	706.055	74.9919	706.055	74.7794	706.055	74.2841	706.055	74.7153	706.055	73.6221	706.055	74.6079	706.055	72.9542	706.055	74.1752	706.055	72.4697	706.055	73.7151	706.055	72.6812	706.055	73.7796	706.055	73.506	706.055	74.1564	706.055	74.1464
732.422	82.8879	732.422	82.6431	732.422	82.8402	732.422	82.0894	732.422	82.5277	732.422	81.2411	732.422	81.9693	732.422	80.1624	732.422	81.1582	732.422	78.9698	732.422	80.0639	732.422	77.8086	732.422	78.6788	732.422	76.8167	732.422	77.1318	732.422	76.1003	732.422	75.8093	732.422	75.6934	732.422	75.1158	732.422	75.524	732.422	74.879	732.422	75.4422	732.422	74.5945	732.422	75.2649	732.422	74.058	732.422	74.7925	732.422	73.3587	732.422	73.8829	732.422	72.7287	732.422	72.6798	732.422	72.6432	732.422	71.9256	732.422	73.1943	732.422	72.3222	732.422	73.5741	732.422	73.2031
758.789	82.6684	758.789	82.3958	758.789	82.679	758.789	81.8385	758.789	82.4598	758.789	80.9825	758.789	82.033	758.789	79.8429	758.789	81.3771	758.789	78.5291	758.789	80.4153	758.789	77.2676	758.789	79.0562	758.789	76.2103	758.789	77.3083	758.789	75.2439	758.789	75.5015	758.789	74.3104	758.789	74.3558	758.789	73.8485	758.789	74.1786	758.789	74.1992	758.789	74.4237	758.789	74.7344	758.789	74.6154	758.789	74.7209	758.789	74.6026	758.789	74.0044	758.789	74.3535	758.789	73.1382	758.789	74.1052	758.789	73.2484	758.789	74.3538	758.789	74.2869	758.789	74.9299	758.789	75.027
785.156	83.389	785.156	83.2785	785.156	83.1686	785.156	82.731	785.156	82.7309	785.156	81.6964	785.156	82.1509	785.156	80.2233	785.156	81.4342	785.156	78.5296	785.156	80.5119	785.156	77.0895	785.156	79.2898	785.156	76.3792	785.156	77.7746	785.156	76.2121	785.156	76.3053	785.156	75.927	785.156	75.4931	785.156	75.1487	785.156	75.2834	785.156	74.2278	785.156	75.0933	785.156	74.0824	785.156	74.8739	785.156	74.5096	785.156	74.6065	785.156	74.4169	785.156	73.8723	785.156	73.4836	785.156	73.0717	785.156	72.4974	785.156	73.3848	785.156	72.774	785.156	74.0166	785.156	73.7467
811.523	84.8073	811.523	84.4452	811.523	84.7769	811.523	83.7375	811.523	84.3294	811.523	82.7001	811.523	83.5165	811.523	81.3168	811.523	82.4616	811.523	79.5727	811.523	81.2708	811.523	77.5143	811.523	79.8969	811.523	75.5047	811.523	78.1018	811.523	74.5619	811.523	75.7843	811.523	74.9984	811.523	74.122	811.523	75.5501	811.523	74.7706	811.523	75.5113	811.523	75.8554	811.523	75.2267	811.523	75.9022	811.523	75.3885	811.523	75.0803	811.523	75.9611	811.523	74.0735	811.523	76.3515	811.523	73.5055	811.523	76.4433	811.523	74.3065	811.523	76.6146	811.523	75.8893	811.523	76.6829
840.82	84.7833	840.82	84.524	840.82	84.6816	840.82	83.849	840.82	84.3132	840.82	82.7581	840.82	83.7706	840.82	81.2651	840.82	83.1181	840.82	79.3699	840.82	82.3556	840.82	77.1547	840.82	81.3703	840.82	74.9725	840.82	79.9669	840.82	73.3102	840.82	77.9906	840.82	72.2897	840.82	75.4919	840.82	72.0709	840.82	73.082	840.82	72.9994	840.82	72.4209	840.82	74.3551	840.82	73.706	840.82	75.0184	840.82	74.8285	840.82	74.631	840.82	75.0087	840.82	73.926	840.82	74.8984	840.82	74.2492	840.82	75.2374	840.82	75.2014	840.82	75.6682	840.82	75.7233
870.117	84.7726	870.117	84.4128	870.117	84.8027	870.117	83.6955	870.117	84.4599	870.117	82.5346	870.117	83.7231	870.117	80.8971	870.117	82.6754	870.117	78.8782	870.117	81.4916	870.117	76.6501	870.117	80.2997	870.117	74.3642	870.117	79.0375	870.117	72.3288	870.117	77.601	870.117	71.2929	870.117	76.2704	870.117	71.2405	870.117	75.5298	870.117	71.2084	870.117	75.089	870.117	71.1462	870.117	74.8213	870.117	71.2751	870.117	75.2394	870.117	71.2795	870.117	75.4104	870.117	71.3657	870.117	74.6193	870.117	72.542	870.117	74.8004	870.117	74.7494	870.117	76.1806	870.117	76.3081
902.344	84.6268	902.344	83.9414	902.344	84.7827	902.344	82.8391	902.344	84.464	902.344	81.5656	902.344	83.8427	902.344	80.3206	902.344	83.1098	902.344	79.0867	902.344	82.3396	902.344	77.6953	902.344	81.4105	902.344	75.9723	902.344	80.098	902.344	73.7605	902.344	78.2626	902.344	71.0194	902.344	76.0258	902.344	68.8371	902.344	74.0795	902.344	69.5835	902.344	73.5604	902.344	71.7305	902.344	74.1356	902.344	73.1777	902.344	74.595	902.344	73.2852	902.344	74.8519	902.344	71.9805	902.344	75.2392	902.344	71.2832	902.344	75.5374	902.344	73.4125	902.344	75.6526	902.344	75.1959
931.641	84.2862	931.641	83.7537	931.641	84.4556	931.641	82.7754	931.641	84.2379	931.641	81.2227	931.641	83.5787	931.641	79.1057	931.641	82.5161	931.641	76.7883	931.641	81.2501	931.641	75.0072	931.641	80.0175	931.641	74.1906	931.641	78.7901	931.641	73.8584	931.641	77.3282	931.641	73.2536	931.641	75.8153	931.641	71.7423	931.641	74.9693	931.641	69.1288	931.641	74.5503	931.641	68.446	931.641	74.1934	931.641	71.0895	931.641	74.693	931.641	72.4789	931.641	75.057	931.641	71.9876	931.641	74.3559	931.641	71.1913	931.641	74.4162	931.641	72.4075	931.641	75.0934	931.641	74.3817
966.797	84.2497	966.797	83.4063	966.797	84.4521	966.797	82.0815	966.797	84.0425	966.797	80.5858	966.797	83.2139	966.797	79.207	966.797	82.2232	966.797	77.9403	966.797	81.1993	966.797	76.4275	966.797	80.0556	966.797	74.3435	966.797	78.6821	966.797	72.3935	966.797	77.213	966.797	72.4011	966.797	75.9892	966.797	73.1382	966.797	75.1171	966.797	72.5806	966.797	74.5197	966.797	70.8345	966.797	74.433	966.797	70.3961	966.797	74.6549	966.797	71.3643	966.797	74.2813	966.797	71.3526	966.797	73.4751	966.797	70.5983	966.797	74.1079	966.797	71.9622	966.797	75.137	966.797	74.4097
999.023	83.4523	999.023	82.5663	999.023	83.8624	999.023	81.3581	999.023	83.7614	999.023	80.0654	999.023	83.1924	999.023	78.8964	999.023	82.2489	999.023	77.9051	999.023	81.1289	999.023	76.9327	999.023	80.0549	999.023	75.5969	999.023	78.9195	999.023	73.4642	999.023	77.2679	999.023	70.5754	999.023	75.1086	999.023	68.1539	999.023	73.7312	999.023	67.331	999.023	73.1626	999.023	67.9145	999.023	71.6865	999.023	69.6069	999.023	71.1076	999.023	71.0767	999.023	72.6462	999.023	71.1153	999.023	72.5163	999.023	70.2714	999.023	71.468	999.023	71.3658	999.023	72.5545	999.023	72.9612
1,034.18	83.1238	1,034.18	82.4075	1,034.18	83.548	1,034.18	81.452	1,034.18	83.5821	1,034.18	80.2964	1,034.18	83.1673	1,034.18	79.0217	1,034.18	82.3991	1,034.18	77.7914	1,034.18	81.4772	1,034.18	76.7943	1,034.18	80.483	1,034.18	76.0306	1,034.18	79.2149	1,034.18	75.2904	1,034.18	77.3869	1,034.18	74.378	1,034.18	75.3729	1,034.18	73.0902	1,034.18	74.6115	1,034.18	71.0034	1,034.18	74.8468	1,034.18	67.9537	1,034.18	74.774	1,034.18	66.8239	1,034.18	74.4454	1,034.18	68.2859	1,034.18	73.8766	1,034.18	68.284	1,034.18	73.1446	1,034.18	67.5057	1,034.18	73.6379	1,034.18	70.2611	1,034.18	74.3828	1,034.18	73.4013
1,072.27	82.8715	1,072.27	81.8601	1,072.27	83.5407	1,072.27	80.6658	1,072.27	83.8043	1,072.27	79.4624	1,072.27	83.6241	1,072.27	78.2329	1,072.27	82.9529	1,072.27	76.8397	1,072.27	81.8072	1,072.27	75.5341	1,072.27	80.3197	1,072.27	74.95	1,072.27	78.733	1,072.27	74.7712	1,072.27	77.0833	1,072.27	74.2158	1,072.27	75.093	1,072.27	73.5824	1,072.27	73.5951	1,072.27	73.2791	1,072.27	73.7288	1,072.27	72.5531	1,072.27	73.7011	1,072.27	70.9689	1,072.27	73.3777	1,072.27	69.9457	1,072.27	74.5163	1,072.27	70.1807	1,072.27	74.762	1,072.27	69.2283	1,072.27	73.5399	1,072.27	69.5648	1,072.27	73.5112	1,072.27	72.5992
1,110.35	82.0832	1,110.35	81.405	1,110.35	82.7047	1,110.35	80.5293	1,110.35	83.2052	1,110.35	79.4039	1,110.35	83.368	1,110.35	78.1865	1,110.35	83.0744	1,110.35	76.8669	1,110.35	82.3876	1,110.35	75.1056	1,110.35	81.4155	1,110.35	73.2701	1,110.35	80.0412	1,110.35	73.0118	1,110.35	77.8266	1,110.35	73.4986	1,110.35	74.5859	1,110.35	73.2035	1,110.35	72.5585	1,110.35	72.6108	1,110.35	73.5838	1,110.35	72.4897	1,110.35	74.8778	1,110.35	72.4015	1,110.35	75.6465	1,110.35	72.1441	1,110.35	75.2121	1,110.35	71.4958	1,110.35	74.0206	1,110.35	69.2499	1,110.35	74.5638	1,110.35	66.7178	1,110.35	74.3736	1,110.35	71.1895
1,148.44	81.6515	1,148.44	80.466	1,148.44	82.5764	1,148.44	79.2621	1,148.44	83.0566	1,148.44	78.3881	1,148.44	82.9991	1,148.44	77.9988	1,148.44	82.4778	1,148.44	77.6582	1,148.44	81.678	1,148.44	76.5185	1,148.44	80.8031	1,148.44	73.9577	1,148.44	79.8667	1,148.44	71.2998	1,148.44	78.3279	1,148.44	71.6359	1,148.44	75.4724	1,148.44	72.4977	1,148.44	72.3544	1,148.44	72.8864	1,148.44	72.998	1,148.44	73.4231	1,148.44	74.2965	1,148.44	73.5894	1,148.44	74.5329	1,148.44	72.9307	1,148.44	75.6869	1,148.44	71.3898	1,148.44	75.4036	1,148.44	68.5883	1,148.44	73.3474	1,148.44	66.5122	1,148.44	72.9717	1,148.44	70.9329
1,189.45	81.0132	1,189.45	80.4082	1,189.45	81.7047	1,189.45	80.3151	1,189.45	82.1779	1,189.45	80.6321	1,189.45	82.3087	1,189.45	80.7982	1,189.45	82.0286	1,189.45	80.5451	1,189.45	81.3849	1,189.45	79.6021	1,189.45	80.5416	1,189.45	77.264	1,189.45	79.5552	1,189.45	73.4934	1,189.45	78.0849	1,189.45	71.5824	1,189.45	75.5572	1,189.45	71.054	1,189.45	72.0324	1,189.45	67.7873	1,189.45	71.6395	1,189.45	66.8429	1,189.45	74.2236	1,189.45	71.994	1,189.45	75.0207	1,189.45	74.4143	1,189.45	74.2657	1,189.45	74.4793	1,189.45	73.4268	1,189.45	72.8472	1,189.45	73.297	1,189.45	69.4601	1,189.45	71.7174	1,189.45	68.0011
1,230.47	81.058	1,230.47	81.8219	1,230.47	80.5693	1,230.47	82.5888	1,230.47	80.4174	1,230.47	83.0507	1,230.47	80.4038	1,230.47	82.9694	1,230.47	80.2561	1,230.47	82.2808	1,230.47	79.7545	1,230.47	80.9237	1,230.47	79.0455	1,230.47	78.4686	1,230.47	78.6918	1,230.47	74.5191	1,230.47	78.4586	1,230.47	71.762	1,230.47	77.2823	1,230.47	72.7332	1,230.47	74.6549	1,230.47	71.8392	1,230.47	72.8272	1,230.47	66.9598	1,230.47	73.9103	1,230.47	68.1827	1,230.47	73.3591	1,230.47	73.32	1,230.47	72.4904	1,230.47	74.8893	1,230.47	72.0229	1,230.47	73.563	1,230.47	70.4796	1,230.47	70.1565	1,230.47	69.6342	1,230.47	68.5361
1,274.41	83.3296	1,274.41	83.8224	1,274.41	82.2966	1,274.41	83.794	1,274.41	80.9535	1,274.41	83.3312	1,274.41	79.7834	1,274.41	82.4295	1,274.41	79.0541	1,274.41	81.2419	1,274.41	78.3685	1,274.41	80.1908	1,274.41	77.2044	1,274.41	78.7743	1,274.41	75.7777	1,274.41	75.5797	1,274.41	74.8528	1,274.41	70.3333	1,274.41	74.06	1,274.41	71.6928	1,274.41	72.7092	1,274.41	73.5329	1,274.41	71.6309	1,274.41	71.5019	1,274.41	71.9047	1,274.41	67.3544	1,274.41	72.5746	1,274.41	72.1118	1,274.41	73.1245	1,274.41	75.3768	1,274.41	71.6619	1,274.41	75.1441	1,274.41	69.2518	1,274.41	72.3508	1,274.41	69.1892	1,274.41	69.6797
1,318.36	83.4483	1,318.36	84.1779	1,318.36	82.5477	1,318.36	84.303	1,318.36	81.7045	1,318.36	83.6124	1,318.36	80.689	1,318.36	82.2098	1,318.36	79.2159	1,318.36	80.5066	1,318.36	77.3767	1,318.36	79.0654	1,318.36	75.683	1,318.36	77.6292	1,318.36	74.595	1,318.36	74.8804	1,318.36	73.6353	1,318.36	69.4877	1,318.36	72.0644	1,318.36	66.8994	1,318.36	69.8856	1,318.36	69.7298	1,318.36	69.5811	1,318.36	69.6971	1,318.36	71.6385	1,318.36	67.7401	1,318.36	72.0235	1,318.36	70.1796	1,318.36	71.1876	1,318.36	73.2055	1,318.36	70.6402	1,318.36	73.2602	1,318.36	69.5998	1,318.36	70.8055	1,318.36	68.63	1,318.36	68.3645
1,365.23	83.3904	1,365.23	83.7362	1,365.23	82.8026	1,365.23	83.5646	1,365.23	82.0409	1,365.23	82.6909	1,365.23	80.9756	1,365.23	80.9802	1,365.23	79.5152	1,365.23	78.2513	1,365.23	77.6239	1,365.23	75.4625	1,365.23	75.4074	1,365.23	74.7653	1,365.23	73.491	1,365.23	74.2529	1,365.23	72.4144	1,365.23	71.4713	1,365.23	71.269	1,365.23	66.6109	1,365.23	68.7179	1,365.23	68.0786	1,365.23	67.2911	1,365.23	69.419	1,365.23	69.1956	1,365.23	66.8059	1,365.23	67.8013	1,365.23	66.0066	1,365.23	68.1955	1,365.23	70.6657	1,365.23	70.0358	1,365.23	72.0926	1,365.23	68.1994	1,365.23	70.2739	1,365.23	66.0063	1,365.23	66.6289
1,415.04	83.1579	1,415.04	82.8394	1,415.04	83.0695	1,415.04	82.1787	1,415.04	82.3251	1,415.04	80.9034	1,415.04	81.1173	1,415.04	78.9428	1,415.04	79.8677	1,415.04	76.2024	1,415.04	78.2348	1,415.04	72.1223	1,415.04	75.2883	1,415.04	69.3059	1,415.04	71.2202	1,415.04	71.1835	1,415.04	69.8392	1,415.04	70.7781	1,415.04	70.58	1,415.04	67.726	1,415.04	70.1363	1,415.04	67.738	1,415.04	68.0769	1,415.04	69.0398	1,415.04	66.9177	1,415.04	67.9655	1,415.04	67.1065	1,415.04	65.1938	1,415.04	67.7722	1,415.04	66.6144	1,415.04	68.0302	1,415.04	68.6907	1,415.04	67.5834	1,415.04	68.6099	1,415.04	67.0442	1,415.04	67.4224
1,464.84	83.3652	1,464.84	82.6005	1,464.84	83.377	1,464.84	81.3299	1,464.84	82.673	1,464.84	79.8058	1,464.84	81.5188	1,464.84	78.12	1,464.84	79.9745	1,464.84	76.136	1,464.84	77.7016	1,464.84	73.0031	1,464.84	74.422	1,464.84	67.238	1,464.84	70.4394	1,464.84	63.2987	1,464.84	67.2115	1,464.84	65.3628	1,464.84	66.7173	1,464.84	63.981	1,464.84	67.5869	1,464.84	63.584	1,464.84	66.8132	1,464.84	67.2012	1,464.84	65.3615	1,464.84	68.3975	1,464.84	67.141	1,464.84	67.0314	1,464.84	67.1076	1,464.84	67.8823	1,464.84	68.1892	1,464.84	69.9754	1,464.84	68.0309	1,464.84	69.5381	1,464.84	65.7988	1,464.84	66.7873
1,514.65	83.6645	1,514.65	82.601	1,514.65	83.7229	1,514.65	80.9265	1,514.65	82.8001	1,514.65	78.9657	1,514.65	81.2773	1,514.65	76.6376	1,514.65	79.325	1,514.65	74.1772	1,514.65	76.5708	1,514.65	71.3947	1,514.65	72.5143	1,514.65	66.437	1,514.65	67.0432	1,514.65	59.7792	1,514.65	61.7597	1,514.65	60.872	1,514.65	57.7608	1,514.65	60.5786	1,514.65	62.092	1,514.65	63.0621	1,514.65	67.2947	1,514.65	65.5783	1,514.65	66.4195	1,514.65	65.4564	1,514.65	62.8388	1,514.65	64.6992	1,514.65	60.9734	1,514.65	65.0719	1,514.65	62.4085	1,514.65	65.5012	1,514.65	65.1245	1,514.65	65.8684	1,514.65	66.3595	1,514.65	66.3302
1,570.31	83.6722	1,570.31	82.3222	1,570.31	83.9571	1,570.31	80.19	1,570.31	83.0492	1,570.31	77.4793	1,570.31	81.0348	1,570.31	74.1464	1,570.31	78.2097	1,570.31	70.6421	1,570.31	74.8498	1,570.31	68.1596	1,570.31	70.6806	1,570.31	64.5243	1,570.31	65.766	1,570.31	57.3281	1,570.31	63.0863	1,570.31	60.6871	1,570.31	61.6446	1,570.31	59.8478	1,570.31	56.8766	1,570.31	55.9031	1,570.31	60.9154	1,570.31	59.8251	1,570.31	58.7574	1,570.31	60.6632	1,570.31	54.7385	1,570.31	59.4599	1,570.31	61.9164	1,570.31	59.2323	1,570.31	65.2313	1,570.31	61.9035	1,570.31	67.8591	1,570.31	64.1747	1,570.31	67.6271	1,570.31	65.7238
1,623.05	82.938	1,623.05	81.8227	1,623.05	83.407	1,623.05	79.9886	1,623.05	82.951	1,623.05	77.3416	1,623.05	81.1342	1,623.05	74.0044	1,623.05	77.785	1,623.05	69.8156	1,623.05	73.3225	1,623.05	67.025	1,623.05	68.264	1,623.05	65.6369	1,623.05	63.9057	1,623.05	55.6922	1,623.05	63.3594	1,623.05	60.5404	1,623.05	63.1246	1,623.05	62.2678	1,623.05	57.5493	1,623.05	56.4174	1,623.05	48.3589	1,623.05	56.9679	1,623.05	55.6981	1,623.05	60.6389	1,623.05	47.7241	1,623.05	61.7186	1,623.05	55.1332	1,623.05	62.5163	1,623.05	62.198	1,623.05	62.8153	1,623.05	68.1815	1,623.05	62.1796	1,623.05	68.7042	1,623.05	64.779
1,681.64	82.0197	1,681.64	81.0805	1,681.64	82.6549	1,681.64	79.6351	1,681.64	82.3937	1,681.64	76.953	1,681.64	80.7402	1,681.64	73.3022	1,681.64	77.546	1,681.64	69.5172	1,681.64	72.6441	1,681.64	65.4159	1,681.64	65.0813	1,681.64	64.5172	1,681.64	54.1433	1,681.64	60.7696	1,681.64	60.1085	1,681.64	58.9549	1,681.64	59.5827	1,681.64	62.2273	1,681.64	56.698	1,681.64	60.0556	1,681.64	51.5337	1,681.64	58.1426	1,681.64	52.2236	1,681.64	61.6001	1,681.64	53.0828	1,681.64	61.9558	1,681.64	52.7604	1,681.64	61.1229	1,681.64	64.4206	1,681.64	61.967	1,681.64	67.5513	1,681.64	63.1994	1,681.64	66.7172	1,681.64	64.562
1,740.23	82.2859	1,740.23	81.1478	1,740.23	82.5027	1,740.23	79.3235	1,740.23	81.6808	1,740.23	76.8436	1,740.23	79.6682	1,740.23	73.3101	1,740.23	76.1646	1,740.23	68.1711	1,740.23	70.2422	1,740.23	58.6295	1,740.23	58.0468	1,740.23	58.5082	1,740.23	57.4202	1,740.23	60.9677	1,740.23	59.7855	1,740.23	60.8341	1,740.23	58.8234	1,740.23	61.9912	1,740.23	60.3012	1,740.23	59.7162	1,740.23	59.1557	1,740.23	54.7799	1,740.23	54.2695	1,740.23	56.7459	1,740.23	57.9282	1,740.23	59.7721	1,740.23	44.3032	1,740.23	60.0878	1,740.23	62.2805	1,740.23	60.9406	1,740.23	66.5847	1,740.23	64.6518	1,740.23	67.1959	1,740.23	66.6227
1,801.76	82.8155	1,801.76	81.5753	1,801.76	82.7391	1,801.76	79.3916	1,801.76	81.2448	1,801.76	76.4361	1,801.76	78.368	1,801.76	71.9365	1,801.76	74.0168	1,801.76	64.6588	1,801.76	67.0943	1,801.76	55.3779	1,801.76	59.5138	1,801.76	47.7957	1,801.76	64.2222	1,801.76	60.0483	1,801.76	63.8603	1,801.76	62.346	1,801.76	60.9471	1,801.76	60.9884	1,801.76	60.9073	1,801.76	61.8667	1,801.76	58.7902	1,801.76	62.7018	1,801.76	52.1242	1,801.76	60.5994	1,801.76	59.2917	1,801.76	61.9464	1,801.76	59.6077	1,801.76	60.6031	1,801.76	62.2884	1,801.76	56.1414	1,801.76	67.6583	1,801.76	61.8793	1,801.76	68.2789	1,801.76	65.5696
1,866.21	82.2577	1,866.21	81.6628	1,866.21	82.3992	1,866.21	80.1612	1,866.21	81.1444	1,866.21	76.6136	1,866.21	77.3398	1,866.21	70.2985	1,866.21	71.4117	1,866.21	60.9771	1,866.21	67.6624	1,866.21	62.014	1,866.21	66.8448	1,866.21	63.803	1,866.21	68.9781	1,866.21	66.0939	1,866.21	68.5319	1,866.21	67.2213	1,866.21	64.5167	1,866.21	65.6509	1,866.21	63.735	1,866.21	65.0136	1,866.21	65.1581	1,866.21	65.2468	1,866.21	60.8963	1,866.21	62.8917	1,866.21	64.9097	1,866.21	64.872	1,866.21	63.4508	1,866.21	64.0874	1,866.21	58.0485	1,866.21	55.7207	1,866.21	66.2348	1,866.21	64.5871	1,866.21	66.8218	1,866.21	65.7925
1,930.66	81.3926	1,930.66	80.984	1,930.66	82.0577	1,930.66	80.3801	1,930.66	81.0285	1,930.66	76.8927	1,930.66	77.3295	1,930.66	67.1911	1,930.66	70.7278	1,930.66	61.7942	1,930.66	68.3648	1,930.66	67.3809	1,930.66	70.599	1,930.66	67.6585	1,930.66	68.6516	1,930.66	68.3735	1,930.66	66.782	1,930.66	70.5999	1,930.66	67.9448	1,930.66	70.4834	1,930.66	67.1848	1,930.66	68.5416	1,930.66	66.9505	1,930.66	67.6761	1,930.66	68.4946	1,930.66	62.2656	1,930.66	62.6105	1,930.66	58.0113	1,930.66	62.5948	1,930.66	65.3749	1,930.66	51.904	1,930.66	55.4137	1,930.66	66.0921	1,930.66	63.08	1,930.66	67.2437	1,930.66	66.697
2,000.98	82.4226	2,000.98	81.4334	2,000.98	82.5484	2,000.98	79.5034	2,000.98	80.9244	2,000.98	75.5463	2,000.98	76.5143	2,000.98	68.2672	2,000.98	67.9587	2,000.98	65.7937	2,000.98	71.8675	2,000.98	68.0719	2,000.98	72.9043	2,000.98	69.0432	2,000.98	69.7403	2,000.98	67.0494	2,000.98	66.8258	2,000.98	68.8744	2,000.98	68.7973	2,000.98	69.8863	2,000.98	70.9093	2,000.98	66.9915	2,000.98	69.3378	2,000.98	68.5043	2,000.98	67.6451	2,000.98	69.5555	2,000.98	62.6764	2,000.98	62.7557	2,000.98	54.6514	2,000.98	61.9453	2,000.98	58.3354	2,000.98	61.7616	2,000.98	69.0849	2,000.98	59.7974	2,000.98	70.0923	2,000.98	66.6545
2,071.29	82.7821	2,071.29	82.1252	2,071.29	82.2393	2,071.29	79.3227	2,071.29	80.2491	2,071.29	73.8832	2,071.29	75.7161	2,071.29	68.3408	2,071.29	69.4157	2,071.29	68.0411	2,071.29	72.4236	2,071.29	70.3657	2,071.29	74.4337	2,071.29	71.3768	2,071.29	74.2186	2,071.29	70.6633	2,071.29	72.7671	2,071.29	69.4044	2,071.29	70.7903	2,071.29	67.9184	2,071.29	69.4107	2,071.29	65.1744	2,071.29	69.5312	2,071.29	61.5633	2,071.29	66.6694	2,071.29	67.7725	2,071.29	61.7561	2,071.29	69.1426	2,071.29	60.0042	2,071.29	65.5184	2,071.29	63.0443	2,071.29	56.0859	2,071.29	69.0071	2,071.29	64.3142	2,071.29	69.5809	2,071.29	66.7407
2,144.53	82.5873	2,144.53	82.0266	2,144.53	82.6144	2,144.53	80.2456	2,144.53	80.9554	2,144.53	76.65	2,144.53	75.779	2,144.53	73.2375	2,144.53	68.0622	2,144.53	73.6388	2,144.53	73.5375	2,144.53	75.2222	2,144.53	75.5698	2,144.53	74.4789	2,144.53	74.8854	2,144.53	72.1829	2,144.53	72.3209	2,144.53	71.1301	2,144.53	70.065	2,144.53	72.2227	2,144.53	68.1843	2,144.53	70.7892	2,144.53	68.3328	2,144.53	63.133	2,144.53	70.3527	2,144.53	66.3952	2,144.53	63.7383	2,144.53	69.002	2,144.53	61.8838	2,144.53	68.1751	2,144.53	60.5324	2,144.53	62.1953	2,144.53	68.639	2,144.53	65.1233	2,144.53	70.4785	2,144.53	70.0884
2,217.77	81.7127	2,217.77	81.6109	2,217.77	81.4213	2,217.77	79.7777	2,217.77	80.4457	2,217.77	75.1657	2,217.77	76.283	2,217.77	70.4619	2,217.77	68.1967	2,217.77	73.8759	2,217.77	73.7415	2,217.77	75.6019	2,217.77	75.2107	2,217.77	74.7532	2,217.77	73.4387	2,217.77	74.1775	2,217.77	71.5319	2,217.77	73.6609	2,217.77	69.9691	2,217.77	71.6848	2,217.77	68.3718	2,217.77	69.3124	2,217.77	67.1417	2,217.77	66.5768	2,217.77	71.1287	2,217.77	57.0794	2,217.77	68.4702	2,217.77	65.3842	2,217.77	48.3324	2,217.77	68.6984	2,217.77	59.472	2,217.77	64.506	2,217.77	69.5766	2,217.77	52.0483	2,217.77	71.5335	2,217.77	67.7233
2,296.88	83.4474	2,296.88	82.9837	2,296.88	81.7599	2,296.88	79.2174	2,296.88	79.7136	2,296.88	73.2693	2,296.88	76.2815	2,296.88	72.9976	2,296.88	70.6942	2,296.88	74.29	2,296.88	75.2601	2,296.88	75.1051	2,296.88	77.452	2,296.88	76.298	2,296.88	76.0022	2,296.88	74.7185	2,296.88	72.4785	2,296.88	70.2634	2,296.88	68.7875	2,296.88	72.872	2,296.88	68.274	2,296.88	72.5152	2,296.88	65.0357	2,296.88	67.416	2,296.88	71.8679	2,296.88	61.9329	2,296.88	71.5305	2,296.88	60.6309	2,296.88	59.97	2,296.88	61.4765	2,296.88	63.359	2,296.88	65.2816	2,296.88	70.5507	2,296.88	60.6798	2,296.88	70.3716	2,296.88	66.5062
2,378.91	83.7047	2,378.91	83.02	2,378.91	82.5466	2,378.91	79.0778	2,378.91	80.1923	2,378.91	76.1782	2,378.91	75.9054	2,378.91	76.3918	2,378.91	73.2149	2,378.91	73.9381	2,378.91	75.491	2,378.91	73.5306	2,378.91	77.5069	2,378.91	75.1056	2,378.91	77.5846	2,378.91	74.9727	2,378.91	75.0199	2,378.91	73.4868	2,378.91	69.7176	2,378.91	72.3815	2,378.91	67.799	2,378.91	71.205	2,378.91	66.2457	2,378.91	69.84	2,378.91	67.734	2,378.91	67.5978	2,378.91	68.2992	2,378.91	61.6287	2,378.91	61.467	2,378.91	65.9965	2,378.91	60.0793	2,378.91	64.5632	2,378.91	68.4129	2,378.91	61.2814	2,378.91	70.4044	2,378.91	68.1712
2,460.94	83.2457	2,460.94	82.8148	2,460.94	82.0805	2,460.94	80.2914	2,460.94	80.1619	2,460.94	77.7626	2,460.94	76.498	2,460.94	76.1639	2,460.94	73.8977	2,460.94	76.3366	2,460.94	77.4498	2,460.94	76.1605	2,460.94	78.2575	2,460.94	75.3515	2,460.94	76.2703	2,460.94	75.0594	2,460.94	73.4997	2,460.94	73.3487	2,460.94	69.1552	2,460.94	71.9314	2,460.94	65.7982	2,460.94	71.1635	2,460.94	67.0872	2,460.94	68.9965	2,460.94	69.0656	2,460.94	67.5014	2,460.94	71.6468	2,460.94	66.6102	2,460.94	62.4075	2,460.94	65.7807	2,460.94	53.5008	2,460.94	62.5212	2,460.94	66.3371	2,460.94	61.3668	2,460.94	70.2306	2,460.94	66.3184
2,548.83	83.2513	2,548.83	82.2879	2,548.83	81.7252	2,548.83	79.5589	2,548.83	79.583	2,548.83	78.0076	2,548.83	77.1587	2,548.83	77.6931	2,548.83	74.6747	2,548.83	77.2207	2,548.83	78.022	2,548.83	75.9764	2,548.83	79.2907	2,548.83	75.1931	2,548.83	77.4023	2,548.83	74.5657	2,548.83	74.6794	2,548.83	73.1546	2,548.83	71.4726	2,548.83	72.9921	2,548.83	65.8382	2,548.83	72.5047	2,548.83	64.9298	2,548.83	69.3639	2,548.83	65.0507	2,548.83	67.645	2,548.83	71.5225	2,548.83	67.5382	2,548.83	64.5581	2,548.83	67.1124	2,548.83	60.1933	2,548.83	63.3332	2,548.83	69.6608	2,548.83	61.9358	2,548.83	70.1458	2,548.83	66.0961
2,639.65	83.6846	2,639.65	82.2511	2,639.65	82.193	2,639.65	79.3194	2,639.65	79.1244	2,639.65	78.6076	2,639.65	76.7045	2,639.65	78.8286	2,639.65	75.9867	2,639.65	77.9404	2,639.65	78.6893	2,639.65	77.2826	2,639.65	80.0077	2,639.65	77.5026	2,639.65	78.0269	2,639.65	76.718	2,639.65	73.6524	2,639.65	74.5344	2,639.65	68.5676	2,639.65	73.3565	2,639.65	60.4081	2,639.65	72.331	2,639.65	67.1262	2,639.65	68.8849	2,639.65	62.9525	2,639.65	68.0448	2,639.65	69.8201	2,639.65	68.8232	2,639.65	63.6268	2,639.65	66.7009	2,639.65	60.3148	2,639.65	63.0039	2,639.65	68.8403	2,639.65	61.0758	2,639.65	70.2008	2,639.65	67.1468
2,733.4	82.8549	2,733.4	81.644	2,733.4	81.9638	2,733.4	79.7591	2,733.4	79.5444	2,733.4	79.4384	2,733.4	76.349	2,733.4	78.6429	2,733.4	76.1538	2,733.4	78.9185	2,733.4	79.6032	2,733.4	78.4229	2,733.4	80.7223	2,733.4	76.7032	2,733.4	78.8359	2,733.4	75.5168	2,733.4	74.6448	2,733.4	73.7134	2,733.4	70.3143	2,733.4	72.3322	2,733.4	66.5191	2,733.4	71.7389	2,733.4	67.4348	2,733.4	69.3137	2,733.4	68.0871	2,733.4	68.7822	2,733.4	71.4413	2,733.4	69.5847	2,733.4	65.1549	2,733.4	68.3076	2,733.4	53.4581	2,733.4	65.1613	2,733.4	68.0797	2,733.4	59.9305	2,733.4	70.6245	2,733.4	67.2551
2,827.15	82.581	2,827.15	81.278	2,827.15	81.6767	2,827.15	80.2111	2,827.15	79.3684	2,827.15	79.9715	2,827.15	76.8522	2,827.15	79.2618	2,827.15	76.1766	2,827.15	79.5899	2,827.15	80.0686	2,827.15	79.3606	2,827.15	81.5026	2,827.15	77.7378	2,827.15	79.0787	2,827.15	75.5263	2,827.15	73.6528	2,827.15	74.0961	2,827.15	69.0877	2,827.15	73.3681	2,827.15	65.2295	2,827.15	73.0036	2,827.15	68.7258	2,827.15	69.6339	2,827.15	65.3853	2,827.15	68.0607	2,827.15	71.255	2,827.15	70.3636	2,827.15	64.1986	2,827.15	67.8204	2,827.15	60.7222	2,827.15	65.4282	2,827.15	68.0009	2,827.15	61.7942	2,827.15	69.4196	2,827.15	66.7225
2,926.76	82.229	2,926.76	80.9294	2,926.76	81.4912	2,926.76	80.1688	2,926.76	79.7906	2,926.76	79.7835	2,926.76	77.8456	2,926.76	79.7831	2,926.76	76.5283	2,926.76	81.3342	2,926.76	80.6903	2,926.76	80.0245	2,926.76	82.309	2,926.76	77.2291	2,926.76	79.5137	2,926.76	77.0304	2,926.76	73.2212	2,926.76	75.6566	2,926.76	71.8135	2,926.76	71.3253	2,926.76	70.6352	2,926.76	70.2923	2,926.76	72.6067	2,926.76	68.4567	2,926.76	68.0328	2,926.76	62.4755	2,926.76	72.419	2,926.76	68.0821	2,926.76	64.0538	2,926.76	68.7622	2,926.76	58.4139	2,926.76	64.9674	2,926.76	66.8858	2,926.76	61.9306	2,926.76	69.3098	2,926.76	66.2184
3,032.23	82.0862	3,032.23	80.6809	3,032.23	81.3241	3,032.23	80.3036	3,032.23	79.1721	3,032.23	79.3889	3,032.23	78.3621	3,032.23	80.6743	3,032.23	76.9138	3,032.23	81.2279	3,032.23	80.3786	3,032.23	79.246	3,032.23	82.836	3,032.23	77.5461	3,032.23	80.8283	3,032.23	73.9398	3,032.23	75.5598	3,032.23	71.3834	3,032.23	73.6082	3,032.23	71.6393	3,032.23	70.3192	3,032.23	70.6564	3,032.23	72.0018	3,032.23	69.6725	3,032.23	68.5004	3,032.23	64.9568	3,032.23	71.4628	3,032.23	65.7845	3,032.23	66.4331	3,032.23	67.4388	3,032.23	50.9556	3,032.23	62.7428	3,032.23	65.4772	3,032.23	59.5809	3,032.23	67.5266	3,032.23	64.982
3,137.7	82.0814	3,137.7	81.0719	3,137.7	81.8805	3,137.7	80.4272	3,137.7	79.4736	3,137.7	80.1845	3,137.7	78.0795	3,137.7	81.3724	3,137.7	77.3397	3,137.7	80.5665	3,137.7	80.3428	3,137.7	78.9403	3,137.7	83.2083	3,137.7	75.9223	3,137.7	82.1072	3,137.7	75.0893	3,137.7	77.5029	3,137.7	75.3515	3,137.7	74.3648	3,137.7	73.1776	3,137.7	72.9925	3,137.7	71.4904	3,137.7	71.3998	3,137.7	69.2428	3,137.7	65.3623	3,137.7	66.4539	3,137.7	69.6653	3,137.7	65.8566	3,137.7	65.7682	3,137.7	66.3426	3,137.7	52.894	3,137.7	63.0652	3,137.7	64.3124	3,137.7	59.4632	3,137.7	68.6415	3,137.7	64.0606
3,249.02	81.5414	3,249.02	80.6245	3,249.02	81.4617	3,249.02	80.1943	3,249.02	80.2089	3,249.02	81.1077	3,249.02	78.9134	3,249.02	81.4382	3,249.02	77.5451	3,249.02	80.0886	3,249.02	79.5855	3,249.02	78.2808	3,249.02	83.0303	3,249.02	77.3392	3,249.02	83.1536	3,249.02	76.1607	3,249.02	80.1671	3,249.02	73.1023	3,249.02	74.4892	3,249.02	70.4679	3,249.02	70.6585	3,249.02	70.5164	3,249.02	71.5593	3,249.02	68.6004	3,249.02	69.8535	3,249.02	66.0588	3,249.02	65.9895	3,249.02	66.6684	3,249.02	67.6115	3,249.02	67.3139	3,249.02	56.1034	3,249.02	64.7197	3,249.02	66.3986	3,249.02	56.3354	3,249.02	67.3099	3,249.02	61.5639
3,363.28	81.1587	3,363.28	80.4705	3,363.28	81.1419	3,363.28	80.6067	3,363.28	80.0839	3,363.28	81.2097	3,363.28	79.1252	3,363.28	80.9773	3,363.28	78.6296	3,363.28	79.6899	3,363.28	80.0507	3,363.28	79.231	3,363.28	82.4626	3,363.28	77.4573	3,363.28	82.871	3,363.28	72.6417	3,363.28	80.8885	3,363.28	72.4441	3,363.28	76.0913	3,363.28	73.0292	3,363.28	70.4237	3,363.28	70.9165	3,363.28	71.061	3,363.28	69.1771	3,363.28	71.7541	3,363.28	67.1836	3,363.28	61.8828	3,363.28	66.939	3,363.28	66.3617	3,363.28	67.2107	3,363.28	57.5761	3,363.28	64.7288	3,363.28	64.7574	3,363.28	58.1002	3,363.28	66.0199	3,363.28	61.1559
3,483.4	81.1987	3,483.4	80.995	3,483.4	81.0326	3,483.4	80.6103	3,483.4	79.8975	3,483.4	81.0501	3,483.4	78.687	3,483.4	80.72	3,483.4	78.5177	3,483.4	79.7487	3,483.4	80.3729	3,483.4	78.2341	3,483.4	82.7118	3,483.4	75.252	3,483.4	83.0451	3,483.4	76.3074	3,483.4	80.0806	3,483.4	73.9933	3,483.4	75.3107	3,483.4	70.3447	3,483.4	69.7283	3,483.4	70.4515	3,483.4	69.6866	3,483.4	68.6681	3,483.4	71.4547	3,483.4	66.9404	3,483.4	63.2581	3,483.4	67.4477	3,483.4	61.1271	3,483.4	66.682	3,483.4	57.3182	3,483.4	64.7335	3,483.4	63.0774	3,483.4	57.7122	3,483.4	64.1622	3,483.4	61.2522
3,606.45	81.3955	3,606.45	80.8446	3,606.45	81.6822	3,606.45	81.4082	3,606.45	81.3185	3,606.45	81.4143	3,606.45	79.241	3,606.45	80.5321	3,606.45	76.9616	3,606.45	80.2391	3,606.45	79.5206	3,606.45	78.3813	3,606.45	82.5899	3,606.45	78.5703	3,606.45	83.098	3,606.45	76.2041	3,606.45	78.463	3,606.45	72.5329	3,606.45	67.8325	3,606.45	72.5668	3,606.45	70.6512	3,606.45	71.3605	3,606.45	66.3186	3,606.45	69.7647	3,606.45	71.1978	3,606.45	67.3816	3,606.45	65.7521	3,606.45	67.5986	3,606.45	65.4228	3,606.45	69.0745	3,606.45	56.7003	3,606.45	66.463	3,606.45	60.8157	3,606.45	60.4429	3,606.45	64.9799	3,606.45	56.6162
3,732.42	80.7114	3,732.42	81.0392	3,732.42	80.9323	3,732.42	81.6626	3,732.42	81.1183	3,732.42	81.248	3,732.42	80.8776	3,732.42	81.1842	3,732.42	78.0561	3,732.42	79.8995	3,732.42	78.5325	3,732.42	80.051	3,732.42	82.3746	3,732.42	77.961	3,732.42	82.3698	3,732.42	75.3868	3,732.42	78.1133	3,732.42	75.4896	3,732.42	70.3996	3,732.42	72.2233	3,732.42	58.5146	3,732.42	70.4782	3,732.42	64.9172	3,732.42	69.3531	3,732.42	66.2685	3,732.42	67.0533	3,732.42	67.422	3,732.42	69.697	3,732.42	65.5401	3,732.42	68.5648	3,732.42	54.6143	3,732.42	66.1177	3,732.42	58.2918	3,732.42	57.0795	3,732.42	65.3352	3,732.42	61.0278
3,864.26	81.2495	3,864.26	81.7076	3,864.26	80.9764	3,864.26	81.4529	3,864.26	80.9573	3,864.26	81.349	3,864.26	80.8903	3,864.26	80.9385	3,864.26	79.5704	3,864.26	81.1823	3,864.26	78.2799	3,864.26	80.4905	3,864.26	80.8701	3,864.26	79.4683	3,864.26	80.7995	3,864.26	78.1455	3,864.26	77.4268	3,864.26	73.254	3,864.26	72.1646	3,864.26	71.017	3,864.26	67.4189	3,864.26	70.7712	3,864.26	64.5532	3,864.26	68.5553	3,864.26	68.6509	3,864.26	66.3159	3,864.26	65.5953	3,864.26	69.1604	3,864.26	60.701	3,864.26	68.1444	3,864.26	44.4806	3,864.26	65.6555	3,864.26	63.2321	3,864.26	60.3428	3,864.26	64.979	3,864.26	61.4293
3,999.02	81.9173	3,999.02	81.9102	3,999.02	81.7274	3,999.02	82.0199	3,999.02	81.3865	3,999.02	81.2376	3,999.02	80.5784	3,999.02	81.3469	3,999.02	78.1628	3,999.02	81.2151	3,999.02	78.5506	3,999.02	80.0482	3,999.02	80.7419	3,999.02	78.2086	3,999.02	80.5558	3,999.02	73.1025	3,999.02	76.3602	3,999.02	72.4608	3,999.02	65.2412	3,999.02	71.3019	3,999.02	63.2112	3,999.02	69.2086	3,999.02	68.274	3,999.02	68.3281	3,999.02	69.6963	3,999.02	63.8046	3,999.02	66.1413	3,999.02	65.7452	3,999.02	63.4156	3,999.02	68.0846	3,999.02	57.3285	3,999.02	63.1943	3,999.02	62.9668	3,999.02	60.0206	3,999.02	64.078	3,999.02	58.4799
4,139.65	81.4507	4,139.65	82.0218	4,139.65	81.4492	4,139.65	81.6657	4,139.65	81.9404	4,139.65	81.4063	4,139.65	81.3223	4,139.65	81.666	4,139.65	77.076	4,139.65	81.318	4,139.65	75.2938	4,139.65	79.2532	4,139.65	79.9531	4,139.65	75.8561	4,139.65	80.0514	4,139.65	76.3339	4,139.65	73.8119	4,139.65	72.7004	4,139.65	68.3396	4,139.65	67.6025	4,139.65	54.899	4,139.65	68.4933	4,139.65	71.0408	4,139.65	67.5069	4,139.65	68.5553	4,139.65	65.294	4,139.65	67.2073	4,139.65	64.7591	4,139.65	62.3899	4,139.65	67.5565	4,139.65	59.9726	4,139.65	63.6201	4,139.65	62.6356	4,139.65	58.7765	4,139.65	64.2417	4,139.65	60.8569
4,286.13	82.4785	4,286.13	82.7088	4,286.13	81.1451	4,286.13	81.8561	4,286.13	82.1417	4,286.13	81.5296	4,286.13	82.5236	4,286.13	82.4906	4,286.13	78.8937	4,286.13	80.5685	4,286.13	74.6795	4,286.13	77.3214	4,286.13	79.0023	4,286.13	76.4219	4,286.13	78.5169	4,286.13	71.738	4,286.13	74.8154	4,286.13	72.7697	4,286.13	73.7558	4,286.13	70.9335	4,286.13	63.4771	4,286.13	67.0281	4,286.13	71.2765	4,286.13	66.7465	4,286.13	69.8834	4,286.13	65.4731	4,286.13	64.1196	4,286.13	63.2462	4,286.13	61.9549	4,286.13	66.6973	4,286.13	54.6851	4,286.13	62.8862	4,286.13	62.7503	4,286.13	57.5823	4,286.13	60.9899	4,286.13	52.8124
4,438.48	82.4357	4,438.48	82.3021	4,438.48	81.6998	4,438.48	81.6454	4,438.48	81.4139	4,438.48	82.3953	4,438.48	82.1165	4,438.48	81.8887	4,438.48	80.4847	4,438.48	79.6397	4,438.48	75.4226	4,438.48	76.9463	4,438.48	77.3601	4,438.48	73.601	4,438.48	77.8125	4,438.48	75.1492	4,438.48	75.8636	4,438.48	70.7331	4,438.48	74.0945	4,438.48	67.9515	4,438.48	66.3949	4,438.48	68.7449	4,438.48	67.1607	4,438.48	63.2194	4,438.48	66.7095	4,438.48	64.9433	4,438.48	64.5274	4,438.48	65.7395	4,438.48	57.5689	4,438.48	63.7189	4,438.48	52.486	4,438.48	63.4503	4,438.48	55.9627	4,438.48	59.1591	4,438.48	63.6121	4,438.48	52.8706
4,593.75	82.6498	4,593.75	82.6179	4,593.75	81.6256	4,593.75	82.1484	4,593.75	82.4457	4,593.75	82.8842	4,593.75	82.0999	4,593.75	81.7876	4,593.75	79.09	4,593.75	78.9	4,593.75	74.7043	4,593.75	76.6404	4,593.75	76.8303	4,593.75	75.5198	4,593.75	78.9739	4,593.75	71.5888	4,593.75	78.3462	4,593.75	71.7103	4,593.75	75.5119	4,593.75	70.3417	4,593.75	58.7306	4,593.75	67.2634	4,593.75	64.4708	4,593.75	68.1694	4,593.75	61.9428	4,593.75	65.8499	4,593.75	58.993	4,593.75	67.1315	4,593.75	63.93	4,593.75	67.5275	4,593.75	54.2852	4,593.75	66.0302	4,593.75	61.3415	4,593.75	56.9721	4,593.75	62.4722	4,593.75	47.166
4,757.81	82.7774	4,757.81	82.1613	4,757.81	81.5979	4,757.81	82.1808	4,757.81	81.9308	4,757.81	82.5819	4,757.81	83.1247	4,757.81	81.1727	4,757.81	80.5148	4,757.81	78.9742	4,757.81	74.2084	4,757.81	76.4863	4,757.81	78.4521	4,757.81	76.0898	4,757.81	79.3988	4,757.81	75.3464	4,757.81	78.5268	4,757.81	71.1581	4,757.81	76.2183	4,757.81	69.5069	4,757.81	63.4203	4,757.81	68.9923	4,757.81	64.3547	4,757.81	66.3587	4,757.81	62.2128	4,757.81	65.6263	4,757.81	59.4773	4,757.81	65.4075	4,757.81	59.2037	4,757.81	66.7971	4,757.81	47.9474	4,757.81	64.8682	4,757.81	53.7318	4,757.81	61.9645	4,757.81	58.2416	4,757.81	49.2346
4,924.8	82.4564	4,924.8	81.944	4,924.8	81.5433	4,924.8	82.4557	4,924.8	81.4832	4,924.8	82.4427	4,924.8	83.0912	4,924.8	81.2939	4,924.8	80.8815	4,924.8	78.8445	4,924.8	74.4368	4,924.8	78.345	4,924.8	77.0253	4,924.8	76.5526	4,924.8	78.1916	4,924.8	73.8892	4,924.8	78.3529	4,924.8	72.1091	4,924.8	75.7682	4,924.8	68.7709	4,924.8	64.0322	4,924.8	66.9735	4,924.8	66.0975	4,924.8	66.039	4,924.8	43.249	4,924.8	63.8128	4,924.8	57.1476	4,924.8	65.5737	4,924.8	56.9823	4,924.8	66.4696	4,924.8	49.6269	4,924.8	65.1323	4,924.8	54.8803	4,924.8	58.6	4,924.8	60.5939	4,924.8	44.7296
5,097.66	82.4912	5,097.66	81.8778	5,097.66	81.7821	5,097.66	81.9223	5,097.66	80.912	5,097.66	81.8331	5,097.66	82.4953	5,097.66	80.4264	5,097.66	81.7152	5,097.66	79.5592	5,097.66	76.1331	5,097.66	77.6582	5,097.66	75.3254	5,097.66	76.1916	5,097.66	77.7392	5,097.66	74.5493	5,097.66	78.4808	5,097.66	69.3345	5,097.66	73.7885	5,097.66	68.1751	5,097.66	67.2403	5,097.66	66.2663	5,097.66	67.4902	5,097.66	64.803	5,097.66	56.7994	5,097.66	64.0408	5,097.66	47.7562	5,097.66	63.6777	5,097.66	50.3036	5,097.66	67.2502	5,097.66	41.2356	5,097.66	64.5597	5,097.66	61.197	5,097.66	58.0942	5,097.66	61.6043	5,097.66	39.4975
5,279.3	81.6683	5,279.3	81.534	5,279.3	81.2864	5,279.3	82.1748	5,279.3	80.7622	5,279.3	81.5836	5,279.3	81.9676	5,279.3	80.831	5,279.3	80.4787	5,279.3	79.5971	5,279.3	75.601	5,279.3	77.4587	5,279.3	74.6692	5,279.3	74.3548	5,279.3	76.9446	5,279.3	72.5015	5,279.3	77.2562	5,279.3	70.0642	5,279.3	71.5674	5,279.3	66.9287	5,279.3	69.2999	5,279.3	66.2163	5,279.3	65.276	5,279.3	63.517	5,279.3	55.4711	5,279.3	60.4032	5,279.3	56.2726	5,279.3	59.8147	5,279.3	58.4644	5,279.3	65.262	5,279.3	47.8151	5,279.3	63.1285	5,279.3	57.8251	5,279.3	51.4393	5,279.3	59.2614	5,279.3	32.0269
5,463.87	82.0159	5,463.87	81.8074	5,463.87	81.4129	5,463.87	81.6648	5,463.87	80.3465	5,463.87	80.6484	5,463.87	81.2978	5,463.87	80.5178	5,463.87	80.3701	5,463.87	79.6046	5,463.87	75.5466	5,463.87	75.8907	5,463.87	72.2073	5,463.87	73.4387	5,463.87	74.9258	5,463.87	71.2438	5,463.87	73.3593	5,463.87	68.7943	5,463.87	67.4491	5,463.87	67.8015	5,463.87	68.9598	5,463.87	65.3829	5,463.87	60.987	5,463.87	64.5364	5,463.87	62.1406	5,463.87	64.6693	5,463.87	57.0464	5,463.87	59.0289	5,463.87	51.1911	5,463.87	63.6337	5,463.87	48.3199	5,463.87	64.1632	5,463.87	55.7791	5,463.87	58.0412	5,463.87	49.5555	5,463.87	45.2251
5,657.23	81.3926	5,657.23	81.3268	5,657.23	80.9977	5,657.23	81.2524	5,657.23	79.7807	5,657.23	80.6679	5,657.23	81.5048	5,657.23	80.9295	5,657.23	81.3158	5,657.23	79.0285	5,657.23	77.0695	5,657.23	75.7209	5,657.23	72.3848	5,657.23	74.0526	5,657.23	75.3496	5,657.23	73.4039	5,657.23	73.3605	5,657.23	69.5623	5,657.23	67.3828	5,657.23	67.8633	5,657.23	69.3282	5,657.23	66.0493	5,657.23	64.627	5,657.23	63.9258	5,657.23	62.9234	5,657.23	63.5183	5,657.23	49.3763	5,657.23	61.5327	5,657.23	44.4989	5,657.23	62.4675	5,657.23	49.3499	5,657.23	64.2553	5,657.23	52.14	5,657.23	57.0723	5,657.23	57.1563	5,657.23	35.1754
5,856.45	81.4113	5,856.45	81.6474	5,856.45	81.1619	5,856.45	81.0438	5,856.45	79.7583	5,856.45	80.5402	5,856.45	80.005	5,856.45	80.804	5,856.45	80.2753	5,856.45	78.5371	5,856.45	77.1497	5,856.45	76.3768	5,856.45	73.9165	5,856.45	75.3409	5,856.45	76.0411	5,856.45	72.1428	5,856.45	73.3108	5,856.45	69.5058	5,856.45	72.0024	5,856.45	68.306	5,856.45	70.3591	5,856.45	66.6074	5,856.45	63.4502	5,856.45	65.5599	5,856.45	61.786	5,856.45	62.8427	5,856.45	54.8316	5,856.45	60.6217	5,856.45	52.4633	5,856.45	62.5796	5,856.45	48.9835	5,856.45	64.6484	5,856.45	51.2162	5,856.45	57.412	5,856.45	48.7082	5,856.45	43.1228
6,061.52	81.582	6,061.52	81.5933	6,061.52	81.2577	6,061.52	80.649	6,061.52	79.7629	6,061.52	80.5947	6,061.52	79.7279	6,061.52	80.0056	6,061.52	79.5677	6,061.52	77.3052	6,061.52	76.188	6,061.52	76.7668	6,061.52	74.1657	6,061.52	75.1608	6,061.52	75.5926	6,061.52	72.6954	6,061.52	73.6651	6,061.52	68.2408	6,061.52	72.6575	6,061.52	67.3288	6,061.52	70.4647	6,061.52	65.3492	6,061.52	61.2692	6,061.52	64.0273	6,061.52	61.2559	6,061.52	62.1489	6,061.52	53.86	6,061.52	60.1716	6,061.52	55.9977	6,061.52	62.9486	6,061.52	50.838	6,061.52	64.7316	6,061.52	51.8466	6,061.52	58.0693	6,061.52	56.5106	6,061.52	47.7605
6,275.39	81.9913	6,275.39	81.6167	6,275.39	81.6753	6,275.39	80.5291	6,275.39	79.6107	6,275.39	80.5343	6,275.39	79.2542	6,275.39	78.9676	6,275.39	79.6959	6,275.39	77.771	6,275.39	76.5675	6,275.39	76.0485	6,275.39	72.9112	6,275.39	75.5727	6,275.39	75.3304	6,275.39	72.9128	6,275.39	73.4159	6,275.39	68.0262	6,275.39	70.001	6,275.39	66.8416	6,275.39	71.876	6,275.39	63.5974	6,275.39	64.7378	6,275.39	63.9845	6,275.39	58.5146	6,275.39	60.126	6,275.39	47.2888	6,275.39	59.3648	6,275.39	51.553	6,275.39	62.6597	6,275.39	43.873	6,275.39	65.0885	6,275.39	42.2354	6,275.39	57.2885	6,275.39	53.0022	6,275.39	47.4563
6,498.05	81.5008	6,498.05	81.2829	6,498.05	81.5379	6,498.05	80.4206	6,498.05	79.9574	6,498.05	80.0619	6,498.05	78.2924	6,498.05	78.3877	6,498.05	79.1677	6,498.05	77.8095	6,498.05	77.2873	6,498.05	75.6803	6,498.05	73.1589	6,498.05	74.7346	6,498.05	73.8251	6,498.05	70.1184	6,498.05	70.685	6,498.05	67.6697	6,498.05	59.8636	6,498.05	64.6905	6,498.05	65.5784	6,498.05	63.7565	6,498.05	56.289	6,498.05	63.0115	6,498.05	60.4503	6,498.05	61.5505	6,498.05	52.2507	6,498.05	58.4132	6,498.05	53.6172	6,498.05	63.6419	6,498.05	47.7156	6,498.05	63.2292	6,498.05	55.9318	6,498.05	54.7037	6,498.05	50.1342	6,498.05	41.9813
6,726.56	81.5209	6,726.56	80.9971	6,726.56	81.4399	6,726.56	80.2552	6,726.56	80.0881	6,726.56	79.6042	6,726.56	77.9942	6,726.56	78.3349	6,726.56	78.1687	6,726.56	77.8537	6,726.56	77.3888	6,726.56	75.1272	6,726.56	73.3052	6,726.56	73.6019	6,726.56	68.3278	6,726.56	69.5988	6,726.56	68.6659	6,726.56	68.405	6,726.56	65.1805	6,726.56	65.1319	6,726.56	55.405	6,726.56	63.136	6,726.56	61.7422	6,726.56	61.1459	6,726.56	61.5196	6,726.56	62.0797	6,726.56	53.4307	6,726.56	58.5598	6,726.56	50.4789	6,726.56	61.3164	6,726.56	32.675	6,726.56	61.5283	6,726.56	54.5004	6,726.56	54.9971	6,726.56	46.9305	6,726.56	46.8826
6,963.87	81.2239	6,963.87	80.7115	6,963.87	81.0201	6,963.87	79.9224	6,963.87	79.7641	6,963.87	78.7769	6,963.87	77.8678	6,963.87	78.5001	6,963.87	77.1571	6,963.87	77.41	6,963.87	76.7634	6,963.87	74.6709	6,963.87	73.4785	6,963.87	73.1114	6,963.87	68.4843	6,963.87	69.0681	6,963.87	70.8203	6,963.87	66.0404	6,963.87	68.7033	6,963.87	63.2876	6,963.87	57.1555	6,963.87	63.4136	6,963.87	61.2819	6,963.87	58.5759	6,963.87	53.5403	6,963.87	60.5598	6,963.87	52.9063	6,963.87	58.2976	6,963.87	24.1653	6,963.87	60.3361	6,963.87	41.9388	6,963.87	59.0583	6,963.87	55.5975	6,963.87	54.9593	6,963.87	47.7201	6,963.87	47.4798
7,209.96	80.9582	7,209.96	80.3627	7,209.96	80.7583	7,209.96	79.3119	7,209.96	79.5916	7,209.96	78.1467	7,209.96	77.84	7,209.96	78.5754	7,209.96	77.1153	7,209.96	76.6668	7,209.96	76.3804	7,209.96	73.7831	7,209.96	73.6471	7,209.96	71.4336	7,209.96	72.2314	7,209.96	68.0151	7,209.96	73.1752	7,209.96	63.9378	7,209.96	70.7361	7,209.96	61.3051	7,209.96	55.3501	7,209.96	61.3915	7,209.96	57.8241	7,209.96	57.4965	7,209.96	53.2947	7,209.96	59.2505	7,209.96	55.9846	7,209.96	57.2183	7,209.96	43.5724	7,209.96	57.1306	7,209.96	35.9114	7,209.96	58.1927	7,209.96	53.2887	7,209.96	54.9397	7,209.96	45.5251	7,209.96	46.844
7,464.84	80.9734	7,464.84	80.5442	7,464.84	80.6077	7,464.84	78.8856	7,464.84	79.4837	7,464.84	78.3608	7,464.84	77.7385	7,464.84	78.8407	7,464.84	76.4774	7,464.84	75.9725	7,464.84	75.9137	7,464.84	73.1504	7,464.84	74.7163	7,464.84	69.2175	7,464.84	73.5037	7,464.84	68.1837	7,464.84	73.2231	7,464.84	63.3385	7,464.84	67.8553	7,464.84	61.7894	7,464.84	64.0548	7,464.84	61.2563	7,464.84	53.2927	7,464.84	56.9656	7,464.84	52.8034	7,464.84	58.3597	7,464.84	58.3005	7,464.84	56.5143	7,464.84	38.8794	7,464.84	57.4452	7,464.84	33.2055	7,464.84	57.0638	7,464.84	50.472	7,464.84	55.5689	7,464.84	44.9647	7,464.84	46.9968
7,728.52	81.2577	7,728.52	80.619	7,728.52	80.515	7,728.52	78.5746	7,728.52	79.3658	7,728.52	78.9413	7,728.52	77.8577	7,728.52	78.4092	7,728.52	76.6309	7,728.52	75.7666	7,728.52	74.4611	7,728.52	72.129	7,728.52	72.16	7,728.52	70.7311	7,728.52	72.5545	7,728.52	68.4797	7,728.52	71.3372	7,728.52	64.9331	7,728.52	67.6608	7,728.52	61.4818	7,728.52	65.4013	7,728.52	59.1542	7,728.52	58.4781	7,728.52	57.5557	7,728.52	53.9127	7,728.52	57.1995	7,728.52	51.8907	7,728.52	55.9889	7,728.52	43.9543	7,728.52	57.9549	7,728.52	37.6283	7,728.52	57.8274	7,728.52	46.053	7,728.52	55.518	7,728.52	37.5962	7,728.52	44.2025
8,000.98	81.6591	8,000.98	80.6684	8,000.98	81.0135	8,000.98	79.107	8,000.98	79.7884	8,000.98	79.0664	8,000.98	77.8678	8,000.98	77.707	8,000.98	76.0008	8,000.98	75.4355	8,000.98	73.854	8,000.98	72.0597	8,000.98	72.0859	8,000.98	70.597	8,000.98	70.1809	8,000.98	67.0836	8,000.98	67.2103	8,000.98	64.3853	8,000.98	63.2434	8,000.98	61.2045	8,000.98	62.8821	8,000.98	60.0739	8,000.98	58.8784	8,000.98	56.7779	8,000.98	49.2898	8,000.98	55.6078	8,000.98	46.7313	8,000.98	55.5238	8,000.98	48.9787	8,000.98	56.5937	8,000.98	44.976	8,000.98	57.0284	8,000.98	50.8894	8,000.98	55.6424	8,000.98	41.6176	8,000.98	42.3314
8,282.23	82.0023	8,282.23	80.6815	8,282.23	81.5347	8,282.23	79.6986	8,282.23	79.9886	8,282.23	78.6417	8,282.23	78.2604	8,282.23	77.2267	8,282.23	76.3472	8,282.23	75.2268	8,282.23	73.6598	8,282.23	71.7139	8,282.23	70.75	8,282.23	69.5649	8,282.23	67.008	8,282.23	64.9419	8,282.23	62.7023	8,282.23	62.2297	8,282.23	62.0013	8,282.23	58.7093	8,282.23	64.8711	8,282.23	58.3234	8,282.23	62.7212	8,282.23	56.8907	8,282.23	50.0462	8,282.23	53.8151	8,282.23	35.6278	8,282.23	53.654	8,282.23	43.7928	8,282.23	54.6559	8,282.23	39.8028	8,282.23	55.0032	8,282.23	49.6611	8,282.23	55.1599	8,282.23	32.6032	8,282.23	40.6852
8,575.2	81.6909	8,575.2	80.7541	8,575.2	81.7839	8,575.2	80.1115	8,575.2	80.3091	8,575.2	78.3082	8,575.2	78.2657	8,575.2	77.2295	8,575.2	76.3037	8,575.2	74.1025	8,575.2	73.4365	8,575.2	71.5611	8,575.2	69.9688	8,575.2	68.5579	8,575.2	64.9625	8,575.2	64.8925	8,575.2	61.5278	8,575.2	60.9138	8,575.2	62.8437	8,575.2	58.6223	8,575.2	63.2406	8,575.2	57.8715	8,575.2	63.0453	8,575.2	56.4798	8,575.2	50.1537	8,575.2	54.914	8,575.2	48.0666	8,575.2	54.5597	8,575.2	49.3427	8,575.2	52.3982	8,575.2	43.0399	8,575.2	53.3384	8,575.2	46.7279	8,575.2	54.5201	8,575.2	42.777	8,575.2	40.908
8,876.95	81.3513	8,876.95	80.878	8,876.95	81.5708	8,876.95	80.0009	8,876.95	80.4764	8,876.95	78.3004	8,876.95	78.467	8,876.95	76.7585	8,876.95	75.892	8,876.95	73.2727	8,876.95	72.7355	8,876.95	71.339	8,876.95	70.4318	8,876.95	68.5767	8,876.95	66.525	8,876.95	65.1572	8,876.95	64.9105	8,876.95	60.7264	8,876.95	63.2978	8,876.95	58.2432	8,876.95	60.6109	8,876.95	57.1936	8,876.95	60.574	8,876.95	55.3319	8,876.95	50.5407	8,876.95	53.1689	8,876.95	48.6513	8,876.95	55.2045	8,876.95	41.5983	8,876.95	50.7663	8,876.95	44.9707	8,876.95	52.8969	8,876.95	45.4993	8,876.95	54.0393	8,876.95	35.0335	8,876.95	42.0855
9,190.43	80.9217	9,190.43	80.8171	9,190.43	81.1875	9,190.43	80.0368	9,190.43	80.4384	9,190.43	78.3818	9,190.43	78.4643	9,190.43	76.2627	9,190.43	75.8122	9,190.43	73.334	9,190.43	72.3615	9,190.43	70.6332	9,190.43	68.5246	9,190.43	67.8134	9,190.43	65.7555	9,190.43	63.2943	9,190.43	64.5528	9,190.43	59.6385	9,190.43	60.3534	9,190.43	57.0451	9,190.43	55.079	9,190.43	55.5079	9,190.43	57.9462	9,190.43	52.806	9,190.43	49.8275	9,190.43	50.3235	9,190.43	49.8128	9,190.43	54.8814	9,190.43	47.8385	9,190.43	50.0673	9,190.43	41.0352	9,190.43	51.6416	9,190.43	46.445	9,190.43	51.9923	9,190.43	35.0969	9,190.43	41.6774
9,512.7	80.9036	9,512.7	81.0505	9,512.7	80.9702	9,512.7	80.0835	9,512.7	80.2671	9,512.7	78.1671	9,512.7	78.3449	9,512.7	76.3347	9,512.7	75.8835	9,512.7	73.5473	9,512.7	72.5547	9,512.7	69.8357	9,512.7	68.7406	9,512.7	66.6632	9,512.7	64.4821	9,512.7	62.4657	9,512.7	62.2931	9,512.7	60.3991	9,512.7	57.4583	9,512.7	56.9512	9,512.7	42.5955	9,512.7	54.0336	9,512.7	51.3807	9,512.7	53.4966	9,512.7	46.3284	9,512.7	47.3441	9,512.7	44.29	9,512.7	55.0992	9,512.7	46.7655	9,512.7	48.403	9,512.7	37.9422	9,512.7	49.9059	9,512.7	47.9122	9,512.7	50.5649	9,512.7	38.4441	9,512.7	40.0194
9,849.61	81.2569	9,849.61	81.5879	9,849.61	80.9882	9,849.61	80.1351	9,849.61	80.2708	9,849.61	77.9006	9,849.61	78.0617	9,849.61	76.2887	9,849.61	75.6627	9,849.61	72.9589	9,849.61	72.5552	9,849.61	69.6826	9,849.61	68.3834	9,849.61	66.7763	9,849.61	63.4752	9,849.61	62.7472	9,849.61	61.6735	9,849.61	59.0995	9,849.61	56.1874	9,849.61	57.0117	9,849.61	54.2982	9,849.61	52.2221	9,849.61	50.2025	9,849.61	54.0089	9,849.61	26.4044	9,849.61	46.2555	9,849.61	39.8549	9,849.61	54.452	9,849.61	32.3285	9,849.61	44.554	9,849.61	37.5519	9,849.61	48.8886	9,849.61	50.6938	9,849.61	50.1057	9,849.61	35.3649	9,849.61	39.198
10,195.3	81.6122	10,195.3	81.9251	10,195.3	81.2421	10,195.3	80.1338	10,195.3	80.4306	10,195.3	77.7534	10,195.3	77.7076	10,195.3	75.5125	10,195.3	75.1139	10,195.3	72.3063	10,195.3	72.3737	10,195.3	69.4624	10,195.3	69.1405	10,195.3	66.4452	10,195.3	63.8838	10,195.3	60.7869	10,195.3	59.1185	10,195.3	55.9131	10,195.3	57.6746	10,195.3	56.6479	10,195.3	56.045	10,195.3	50.0468	10,195.3	54.572	10,195.3	52.6225	10,195.3	40.4046	10,195.3	51.6829	10,195.3	42.5334	10,195.3	53.5758	10,195.3	40.4294	10,195.3	38.6406	10,195.3	34.1817	10,195.3	50.7549	10,195.3	50.1965	10,195.3	49.9199	10,195.3	32.6916	10,195.3	37.3631
10,555.7	81.8624	10,555.7	81.7873	10,555.7	81.5766	10,555.7	80.0969	10,555.7	80.6598	10,555.7	77.6966	10,555.7	77.874	10,555.7	75.0302	10,555.7	74.8728	10,555.7	71.9767	10,555.7	72.1406	10,555.7	68.5835	10,555.7	69.2661	10,555.7	65.6133	10,555.7	63.4012	10,555.7	59.4029	10,555.7	56.8542	10,555.7	54.7552	10,555.7	56.6768	10,555.7	56.1821	10,555.7	55.1439	10,555.7	50.1346	10,555.7	53.8196	10,555.7	50.743	10,555.7	45.3966	10,555.7	52.7529	10,555.7	29.4994	10,555.7	51.4877	10,555.7	45.2494	10,555.7	38.3164	10,555.7	39.6965	10,555.7	49.7989	10,555.7	51.3302	10,555.7	47.3051	10,555.7	28.5124	10,555.7	31.3587
10,927.7	82.0971	10,927.7	81.6352	10,927.7	81.8301	10,927.7	80.1388	10,927.7	80.7121	10,927.7	77.6528	10,927.7	78.0345	10,927.7	75.4572	10,927.7	74.9172	10,927.7	71.753	10,927.7	71.8015	10,927.7	68.284	10,927.7	67.7636	10,927.7	64.7821	10,927.7	61.137	10,927.7	59.1318	10,927.7	55.9287	10,927.7	56.0125	10,927.7	57.4586	10,927.7	55.6748	10,927.7	54.7674	10,927.7	50.9841	10,927.7	51.3442	10,927.7	49.7334	10,927.7	45.4876	10,927.7	50.9299	10,927.7	41.1915	10,927.7	50.9551	10,927.7	46.4614	10,927.7	39.8482	10,927.7	35.3003	10,927.7	48.7089	10,927.7	50.7106	10,927.7	45.0875	10,927.7	37.0538	10,927.7	38.2245
11,314.5	81.8684	11,314.5	81.8437	11,314.5	81.7239	11,314.5	80.4546	11,314.5	80.6873	11,314.5	77.8684	11,314.5	78.1276	11,314.5	75.9103	11,314.5	75.3699	11,314.5	71.8933	11,314.5	71.3174	11,314.5	67.5032	11,314.5	64.8613	11,314.5	63.6485	11,314.5	54.1534	11,314.5	58.7764	11,314.5	57.7234	11,314.5	55.2343	11,314.5	53.2184	11,314.5	56.2449	11,314.5	48.7035	11,314.5	50.3328	11,314.5	49.4066	11,314.5	47.6694	11,314.5	43.114	11,314.5	51.4262	11,314.5	40.8569	11,314.5	53.2708	11,314.5	48.7163	11,314.5	43.7548	11,314.5	35.1243	11,314.5	49.3886	11,314.5	51.0118	11,314.5	46.1973	11,314.5	35.8807	11,314.5	33.534
11,712.9	81.7049	11,712.9	82.1291	11,712.9	81.3022	11,712.9	80.3506	11,712.9	80.4576	11,712.9	77.9835	11,712.9	77.7952	11,712.9	75.9485	11,712.9	75.4171	11,712.9	71.4605	11,712.9	71.2198	11,712.9	66.5378	11,712.9	65.9425	11,712.9	63.8322	11,712.9	60.7236	11,712.9	59.8289	11,712.9	58.5265	11,712.9	55.9427	11,712.9	54.024	11,712.9	56.5806	11,712.9	56.4795	11,712.9	48.6263	11,712.9	52.4366	11,712.9	49.694	11,712.9	42.384	11,712.9	51.5821	11,712.9	45.8259	11,712.9	53.1362	11,712.9	50.398	11,712.9	49.5497	11,712.9	39.2149	11,712.9	49.0315	11,712.9	49.6273	11,712.9	44.0757	11,712.9	31.6635	11,712.9	40.6651
12,126	82.0502	12,126	82.1379	12,126	81.3282	12,126	79.9677	12,126	80.309	12,126	77.878	12,126	77.4815	12,126	75.77	12,126	74.8077	12,126	70.2258	12,126	70.8284	12,126	66.9404	12,126	67.138	12,126	64.9062	12,126	63.449	12,126	60.6098	12,126	56.5048	12,126	57.6441	12,126	54.2826	12,126	55.598	12,126	59.5032	12,126	51.2123	12,126	54.6102	12,126	50.2027	12,126	41.8853	12,126	52.7762	12,126	46.5409	12,126	51.4999	12,126	48.5269	12,126	51.054	12,126	23.3438	12,126	49.9544	12,126	51.1398	12,126	45.2976	12,126	23.2447	12,126	43.3735
12,553.7	82.2051	12,553.7	81.808	12,553.7	81.598	12,553.7	79.6828	12,553.7	80.2491	12,553.7	77.9489	12,553.7	77.4068	12,553.7	75.3893	12,553.7	74.5715	12,553.7	69.745	12,553.7	70.3022	12,553.7	66.6747	12,553.7	67.8091	12,553.7	66.174	12,553.7	63.4017	12,553.7	60.7846	12,553.7	54.5563	12,553.7	57.8681	12,553.7	52.9136	12,553.7	54.8993	12,553.7	59.4398	12,553.7	50.9836	12,553.7	58.3373	12,553.7	48.6398	12,553.7	47.0906	12,553.7	53.7953	12,553.7	45.7312	12,553.7	50.7537	12,553.7	49.985	12,553.7	52.2129	12,553.7	35.5484	12,553.7	48.5344	12,553.7	52.3469	12,553.7	45.3835	12,553.7	37.3914	12,553.7	41.1958
12,996.1	82.1174	12,996.1	81.607	12,996.1	81.4916	12,996.1	79.3878	12,996.1	80.1344	12,996.1	77.6578	12,996.1	77.1509	12,996.1	74.4162	12,996.1	73.7748	12,996.1	68.9781	12,996.1	69.989	12,996.1	67.5176	12,996.1	68.6919	12,996.1	65.91	12,996.1	64.3984	12,996.1	59.5886	12,996.1	56.6755	12,996.1	57.4078	12,996.1	53.5679	12,996.1	52.6523	12,996.1	58.8788	12,996.1	50.4038	12,996.1	58.2447	12,996.1	47.5207	12,996.1	49.9396	12,996.1	53.859	12,996.1	50.8007	12,996.1	49.0462	12,996.1	49.1553	12,996.1	52.1945	12,996.1	17.4807	12,996.1	47.1861	12,996.1	53.0519	12,996.1	47.9109	12,996.1	38.4145	12,996.1	41.6857
13,453.1	81.6749	13,453.1	81.2645	13,453.1	80.8347	13,453.1	79.421	13,453.1	79.8455	13,453.1	77.2189	13,453.1	76.9519	13,453.1	74.2411	13,453.1	73.1014	13,453.1	68.5103	13,453.1	69.9466	13,453.1	68.0048	13,453.1	69.491	13,453.1	64.9312	13,453.1	62.8157	13,453.1	58.5958	13,453.1	59.7717	13,453.1	56.6351	13,453.1	53.1731	13,453.1	48.2358	13,453.1	58.0769	13,453.1	50.8766	13,453.1	58.8662	13,453.1	46.8319	13,453.1	53.8174	13,453.1	54.0022	13,453.1	52.486	13,453.1	47.568	13,453.1	49.8736	13,453.1	51.0483	13,453.1	32.5433	13,453.1	46.5273	13,453.1	53.1578	13,453.1	50.0423	13,453.1	41.3729	13,453.1	43.469
13,927.7	81.1457	13,927.7	80.6764	13,927.7	80.1493	13,927.7	79.5203	13,927.7	79.4339	13,927.7	77.0252	13,927.7	77.0329	13,927.7	74.7156	13,927.7	73.1209	13,927.7	69.593	13,927.7	70.2923	13,927.7	67.275	13,927.7	68.9499	13,927.7	65.1668	13,927.7	62.0191	13,927.7	59.4212	13,927.7	61.8038	13,927.7	58.0527	13,927.7	55.1998	13,927.7	52.9875	13,927.7	57.6893	13,927.7	51.9321	13,927.7	61.0232	13,927.7	48.9587	13,927.7	55.4266	13,927.7	56.0765	13,927.7	52.1063	13,927.7	50.5407	13,927.7	51.0369	13,927.7	50.5062	13,927.7	33.8341	13,927.7	47.2288	13,927.7	51.2016	13,927.7	49.8956	13,927.7	45.7032	13,927.7	43.8176
14,419.9	80.7145	14,419.9	79.9994	14,419.9	80.067	14,419.9	79.5254	14,419.9	79.1809	14,419.9	77.0258	14,419.9	77.3976	14,419.9	75.9623	14,419.9	74.5774	14,419.9	71.0228	14,419.9	72.4115	14,419.9	67.721	14,419.9	69.7064	14,419.9	66.5085	14,419.9	64.6608	14,419.9	62.3713	14,419.9	62.2071	14,419.9	59.0539	14,419.9	59.4911	14,419.9	54.843	14,419.9	56.0107	14,419.9	50.9894	14,419.9	61.0617	14,419.9	49.7519	14,419.9	53.3121	14,419.9	57.5281	14,419.9	50.1652	14,419.9	52.2582	14,419.9	43.0361	14,419.9	52.8892	14,419.9	33.9716	14,419.9	47.7994	14,419.9	48.1381	14,419.9	48.7511	14,419.9	48.3623	14,419.9	42.5233
14,929.7	80.4967	14,929.7	79.9934	14,929.7	80.3424	14,929.7	79.7056	14,929.7	79.697	14,929.7	77.8103	14,929.7	78.4742	14,929.7	77.582	14,929.7	76.4958	14,929.7	71.781	14,929.7	74.5981	14,929.7	69.0135	14,929.7	71.3544	14,929.7	67.9148	14,929.7	64.7316	14,929.7	62.788	14,929.7	63.4107	14,929.7	59.9397	14,929.7	57.5532	14,929.7	53.3149	14,929.7	56.1128	14,929.7	51.2457	14,929.7	61.6018	14,929.7	50.826	14,929.7	53.4359	14,929.7	56.7765	14,929.7	43.4516	14,929.7	51.561	14,929.7	40.5808	14,929.7	51.8008	14,929.7	37.3633	14,929.7	47.5594	14,929.7	41.002	14,929.7	49.6472	14,929.7	47.652	14,929.7	41.1045
15,454.1	80.5169	15,454.1	80.4552	15,454.1	80.6804	15,454.1	80.0392	15,454.1	80.7853	15,454.1	79.1359	15,454.1	79.7979	15,454.1	78.3579	15,454.1	77.7132	15,454.1	72.3291	15,454.1	75.512	15,454.1	69.2359	15,454.1	70.828	15,454.1	67.5354	15,454.1	62.6073	15,454.1	60.6669	15,454.1	61.584	15,454.1	56.8676	15,454.1	53.2908	15,454.1	47.7898	15,454.1	57.5863	15,454.1	48.9609	15,454.1	61.8452	15,454.1	47.8167	15,454.1	50.035	15,454.1	55.86	15,454.1	42.3955	15,454.1	49.2423	15,454.1	32.5955	15,454.1	52.639	15,454.1	40.7609	15,454.1	48.676	15,454.1	38.2739	15,454.1	51.0768	15,454.1	44.2522	15,454.1	41.722
15,999	79.8799	15,999	79.8859	15,999	80.1319	15,999	79.233	15,999	80.3208	15,999	78.5404	15,999	79.1327	15,999	76.7146	15,999	76.749	15,999	70.8906	15,999	73.4558	15,999	66.5708	15,999	66.9711	15,999	62.9855	15,999	58.7433	15,999	54.4056	15,999	53.8856	15,999	49.4845	15,999	48.3455	15,999	32.9352	15,999	55.5406	15,999	41.5191	15,999	60.1762	15,999	40.8305	15,999	40.6988	15,999	51.9863	15,999	41.5286	15,999	43.621	15,999	36.3572	15,999	52.867	15,999	38.2162	15,999	44.7921	15,999	41.4506	15,999	46.9861	15,999	44.1239	15,999	37.0253
16,564.5	78.6943	16,564.5	78.5385	16,564.5	78.4354	16,564.5	77.4877	16,564.5	77.9246	16,564.5	75.99	16,564.5	76.2089	16,564.5	73.5916	16,564.5	73.1838	16,564.5	66.989	16,564.5	69.0434	16,564.5	61.5302	16,564.5	62.5916	16,564.5	55.7031	16,564.5	52.0121	16,564.5	40.6896	16,564.5	41.1644	16,564.5	38.7677	16,564.5	44.5585	16,564.5	35.5596	16,564.5	51.4149	16,564.5	33.667	16,564.5	55.2318	16,564.5	38.4368	16,564.5	34.9505	16,564.5	46.0738	16,564.5	37.0947	16,564.5	35.8531	16,564.5	34.5129	16,564.5	46.1943	16,564.5	31.9282	16,564.5	38.5113	16,564.5	35.6549	16,564.5	39.7057	16,564.5	38.1949	16,564.5	33.2035
17,147.5	77.945	17,147.5	77.5482	17,147.5	77.1765	17,147.5	75.6366	17,147.5	75.5301	17,147.5	73.346	17,147.5	72.8498	17,147.5	70.028	17,147.5	69.0688	17,147.5	62.7945	17,147.5	64.447	17,147.5	57.3756	17,147.5	57.4587	17,147.5	51.0882	17,147.5	48.8618	17,147.5	46.5197	17,147.5	46.3356	17,147.5	46.1832	17,147.5	46.2439	17,147.5	36.5676	17,147.5	47.6234	17,147.5	33.0683	17,147.5	49.5559	17,147.5	40.3388	17,147.5	34.3252	17,147.5	38.3918	17,147.5	32.2533	17,147.5	31.3371	17,147.5	34.8182	17,147.5	35.2566	17,147.5	23.0269	17,147.5	35.9509	17,147.5	31.4772	17,147.5	37.4386	17,147.5	33.3458	17,147.5	24.177
17,753.9	77.0894	17,753.9	76.6102	17,753.9	76.0491	17,753.9	74.1612	17,753.9	73.6359	17,753.9	70.9107	17,753.9	69.5393	17,753.9	66.377	17,753.9	64.8668	17,753.9	59.4529	17,753.9	60.8823	17,753.9	56.1543	17,753.9	56.8689	17,753.9	52.9595	17,753.9	53.4221	17,753.9	50.1671	17,753.9	51.009	17,753.9	47.4445	17,753.9	46.3319	17,753.9	32.8474	17,753.9	45.178	17,753.9	33.6656	17,753.9	46.7546	17,753.9	39.673	17,753.9	40.3867	17,753.9	28.0674	17,753.9	34.7613	17,753.9	32.8065	17,753.9	35.6219	17,753.9	31.8611	17,753.9	30.7069	17,753.9	31.7853	17,753.9	13.8087	17,753.9	36.6158	17,753.9	33.3806	17,753.9	12.5563
18,377.9	75.7176	18,377.9	75.3435	18,377.9	74.4591	18,377.9	72.6195	18,377.9	71.3108	18,377.9	68.6458	18,377.9	65.7113	18,377.9	63.6202	18,377.9	60.6176	18,377.9	58.0243	18,377.9	57.9237	18,377.9	56.1278	18,377.9	57.7283	18,377.9	54.1136	18,377.9	54.6634	18,377.9	50.3251	18,377.9	50.6687	18,377.9	46.9557	18,377.9	45.95	18,377.9	6.6854	18,377.9	44.2144	18,377.9	35.3058	18,377.9	46.0304	18,377.9	38.4393	18,377.9	42.5071	18,377.9	35.8325	18,377.9	35.0356	18,377.9	33.7043	18,377.9	33.7069	18,377.9	41.4563	18,377.9	30.1018	18,377.9	30.1466	18,377.9	24.2223	18,377.9	36.5764	18,377.9	35.772	18,377.9	27.461
19,028.3	74.8106	19,028.3	74.2056	19,028.3	72.9911	19,028.3	70.8796	19,028.3	68.6395	19,028.3	66.0701	19,028.3	60.8381	19,028.3	61.476	19,028.3	56.6946	19,028.3	57.7272	19,028.3	56.783	19,028.3	55.6455	19,028.3	55.0659	19,028.3	54.2596	19,028.3	49.2055	19,028.3	49.3756	19,028.3	49.2065	19,028.3	45.1329	19,028.3	40.1905	19,028.3	34.8215	19,028.3	43.2928	19,028.3	34.2219	19,028.3	45.6296	19,028.3	35.9177	19,028.3	41.5001	19,028.3	38.5908	19,028.3	30.7808	19,028.3	33.9076	19,028.3	25.843	19,028.3	43.3788	19,028.3	30.9458	19,028.3	33.1204	19,028.3	32.8312	19,028.3	33.0616	19,028.3	35.1886	19,028.3	28.1092
19,699.2	74.2056	19,699.2	73.0483	19,699.2	72.1568	19,699.2	68.5918	19,699.2	66.6738	19,699.2	62.3026	19,699.2	54.3611	19,699.2	60.1004	19,699.2	54.7987	19,699.2	56.8969	19,699.2	57.5798	19,699.2	55.013	19,699.2	54.0902	19,699.2	53.5084	19,699.2	48.5319	19,699.2	47.0374	19,699.2	47.7023	19,699.2	42.1647	19,699.2	37.5304	19,699.2	38.5302	19,699.2	40.7731	19,699.2	31.5507	19,699.2	47.1763	19,699.2	32.3383	19,699.2	40.4812	19,699.2	40.8702	19,699.2	34.1153	19,699.2	35.5357	19,699.2	34.1046	19,699.2	44.2173	19,699.2	32.1155	19,699.2	35.881	19,699.2	34.8655	19,699.2	37.736	19,699.2	32.3446	19,699.2	32.8128
19,998	73.8659	19,998	72.478	19,998	71.9232	19,998	67.2136	19,998	66.3955	19,998	60.7109	19,998	51.2618	19,998	59.8498	19,998	54.3377	19,998	56.6213	19,998	57.5786	19,998	54.6284	19,998	52.5748	19,998	53.2887	19,998	48.6872	19,998	47.3468	19,998	48.6473	19,998	42.0186	19,998	42.9495	19,998	40.845	19,998	40.6642	19,998	31.7601	19,998	48.2201	19,998	29.8895	19,998	38.3867	19,998	42.5529	19,998	37.189	19,998	36.5619	19,998	34.4324	19,998	46.3209	19,998	33.6509	19,998	39.6172	19,998	37.6599	19,998	38.2111	19,998	37.6562	19,998	33.6377
