"SPL Horizontal"																																																																							
"On-Axis"		"10°"		"-10°"		"20°"		"-20°"		"30°"		"-30°"		"40°"		"-40°"		"50°"		"-50°"		"60°"		"-60°"		"70°"		"-70°"		"80°"		"-80°"		"90°"		"-90°"		"100°"		"-100°"		"110°"		"-110°"		"120°"		"-120°"		"130°"		"-130°"		"140°"		"-140°"		"150°"		"-150°"		"160°"		"-160°"		"170°"		"-170°"		"180°"	
"Frequency [Hz]"	"Sound Pessure Level [dB]  / [2.83V 1m] "	"Frequency [Hz]"	"Sound Pessure Level [dB]  / [2.83V 1m] "	"Frequency [Hz]"	"Sound Pessure Level [dB]  / [2.83V 1m] "	"Frequency [Hz]"	"Sound Pessure Level [dB]  / [2.83V 1m] "	"Frequency [Hz]"	"Sound Pessure Level [dB]  / [2.83V 1m] "	"Frequency [Hz]"	"Sound Pessure Level [dB]  / [2.83V 1m] "	"Frequency [Hz]"	"Sound Pessure Level [dB]  / [2.83V 1m] "	"Frequency [Hz]"	"Sound Pessure Level [dB]  / [2.83V 1m] "	"Frequency [Hz]"	"Sound Pessure Level [dB]  / [2.83V 1m] "	"Frequency [Hz]"	"Sound Pessure Level [dB]  / [2.83V 1m] "	"Frequency [Hz]"	"Sound Pessure Level [dB]  / [2.83V 1m] "	"Frequency [Hz]"	"Sound Pessure Level [dB]  / [2.83V 1m] "	"Frequency [Hz]"	"Sound Pessure Level [dB]  / [2.83V 1m] "	"Frequency [Hz]"	"Sound Pessure Level [dB]  / [2.83V 1m] "	"Frequency [Hz]"	"Sound Pessure Level [dB]  / [2.83V 1m] "	"Frequency [Hz]"	"Sound Pessure Level [dB]  / [2.83V 1m] "	"Frequency [Hz]"	"Sound Pessure Level [dB]  / [2.83V 1m] "	"Frequency [Hz]"	"Sound Pessure Level [dB]  / [2.83V 1m] "	"Frequency [Hz]"	"Sound Pessure Level [dB]  / [2.83V 1m] "	"Frequency [Hz]"	"Sound Pessure Level [dB]  / [2.83V 1m] "	"Frequency [Hz]"	"Sound Pessure Level [dB]  / [2.83V 1m] "	"Frequency [Hz]"	"Sound Pessure Level [dB]  / [2.83V 1m] "	"Frequency [Hz]"	"Sound Pessure Level [dB]  / [2.83V 1m] "	"Frequency [Hz]"	"Sound Pessure Level [dB]  / [2.83V 1m] "	"Frequency [Hz]"	"Sound Pessure Level [dB]  / [2.83V 1m] "	"Frequency [Hz]"	"Sound Pessure Level [dB]  / [2.83V 1m] "	"Frequency [Hz]"	"Sound Pessure Level [dB]  / [2.83V 1m] "	"Frequency [Hz]"	"Sound Pessure Level [dB]  / [2.83V 1m] "	"Frequency [Hz]"	"Sound Pessure Level [dB]  / [2.83V 1m] "	"Frequency [Hz]"	"Sound Pessure Level [dB]  / [2.83V 1m] "	"Frequency [Hz]"	"Sound Pessure Level [dB]  / [2.83V 1m] "	"Frequency [Hz]"	"Sound Pessure Level [dB]  / [2.83V 1m] "	"Frequency [Hz]"	"Sound Pessure Level [dB]  / [2.83V 1m] "	"Frequency [Hz]"	"Sound Pessure Level [dB]  / [2.83V 1m] "	"Frequency [Hz]"	"Sound Pessure Level [dB]  / [2.83V 1m] "	"Frequency [Hz]"	"Sound Pessure Level [dB]  / [2.83V 1m] "
20.5078	51.8386	20.5078	51.7605	20.5078	51.9236	20.5078	51.6899	20.5078	52.0147	20.5078	51.6276	20.5078	52.1109	20.5078	51.5744	20.5078	52.2106	20.5078	51.5311	20.5078	52.312	20.5078	51.499	20.5078	52.4123	20.5078	51.4793	20.5078	52.5084	20.5078	51.4734	20.5078	52.5963	20.5078	51.4828	20.5078	52.6714	20.5078	51.5089	20.5078	52.7291	20.5078	51.5525	20.5078	52.7647	20.5078	51.6142	20.5078	52.7747	20.5078	51.694	20.5078	52.7565	20.5078	51.791	20.5078	52.7095	20.5078	51.9032	20.5078	52.6353	20.5078	52.0275	20.5078	52.5374	20.5078	52.1592	20.5078	52.421	20.5078	52.2926
23.4375	55.3371	23.4375	55.3162	23.4375	55.357	23.4375	55.2945	23.4375	55.3757	23.4375	55.2722	23.4375	55.3929	23.4375	55.2492	23.4375	55.4083	23.4375	55.226	23.4375	55.4212	23.4375	55.2027	23.4375	55.4309	23.4375	55.1795	23.4375	55.4365	23.4375	55.1569	23.4375	55.4367	23.4375	55.1351	23.4375	55.4304	23.4375	55.1146	23.4375	55.4167	23.4375	55.0961	23.4375	55.3949	23.4375	55.0804	23.4375	55.365	23.4375	55.0687	23.4375	55.3278	23.4375	55.0623	23.4375	55.2852	23.4375	55.0628	23.4375	55.2396	23.4375	55.0717	23.4375	55.1943	23.4375	55.0897	23.4375	55.1525	23.4375	55.1169
26.3672	57.9481	26.3672	57.9272	26.3672	57.9655	26.3672	57.9032	26.3672	57.9793	26.3672	57.8764	26.3672	57.9893	26.3672	57.8471	26.3672	57.9952	26.3672	57.8157	26.3672	57.9968	26.3672	57.7828	26.3672	57.9941	26.3672	57.7491	26.3672	57.9865	26.3672	57.7152	26.3672	57.9741	26.3672	57.6821	26.3672	57.9564	26.3672	57.6511	26.3672	57.9333	26.3672	57.6234	26.3672	57.9049	26.3672	57.6006	26.3672	57.8713	26.3672	57.5841	26.3672	57.8333	26.3672	57.5754	26.3672	57.792	26.3672	57.5756	26.3672	57.749	26.3672	57.5853	26.3672	57.7065	26.3672	57.6043	26.3672	57.6667	26.3672	57.632
29.2969	61.3886	29.2969	61.3807	29.2969	61.3914	29.2969	61.3678	29.2969	61.3889	29.2969	61.3498	29.2969	61.3812	29.2969	61.3269	29.2969	61.3683	29.2969	61.2993	29.2969	61.3502	29.2969	61.2673	29.2969	61.327	29.2969	61.2314	29.2969	61.299	29.2969	61.1922	29.2969	61.2665	29.2969	61.1508	29.2969	61.2301	29.2969	61.1082	29.2969	61.1906	29.2969	61.0659	29.2969	61.1489	29.2969	61.0258	29.2969	61.1064	29.2969	60.9895	29.2969	61.0644	29.2969	60.959	29.2969	61.0246	29.2969	60.9358	29.2969	60.9887	29.2969	60.9213	29.2969	60.9585	29.2969	60.9164	29.2969	60.9356	29.2969	60.9213
32.2266	64.3243	32.2266	64.3115	32.2266	64.3295	32.2266	64.2913	32.2266	64.3267	32.2266	64.2642	32.2266	64.3159	32.2266	64.2305	32.2266	64.2972	32.2266	64.1909	32.2266	64.2706	32.2266	64.146	32.2266	64.2364	32.2266	64.0968	32.2266	64.1953	32.2266	64.0444	32.2266	64.148	32.2266	63.9899	32.2266	64.0957	32.2266	63.9349	32.2266	64.0398	32.2266	63.8812	32.2266	63.982	32.2266	63.8306	32.2266	63.9242	32.2266	63.7851	32.2266	63.8685	32.2266	63.7467	32.2266	63.8172	32.2266	63.7172	32.2266	63.7723	32.2266	63.6979	32.2266	63.7358	32.2266	63.6899	32.2266	63.7092	32.2266	63.6937
35.1563	67.505	35.1563	67.4954	35.1563	67.5064	35.1563	67.4779	35.1563	67.4995	35.1563	67.4526	35.1563	67.4844	35.1563	67.4202	35.1563	67.4612	35.1563	67.3812	35.1563	67.4304	35.1563	67.3364	35.1563	67.3925	35.1563	67.2869	35.1563	67.3483	35.1563	67.2337	35.1563	67.2989	35.1563	67.1783	35.1563	67.2454	35.1563	67.1223	35.1563	67.1894	35.1563	67.0674	35.1563	67.1326	35.1563	67.0156	35.1563	67.0768	35.1563	66.9689	35.1563	67.024	35.1563	66.929	35.1563	66.9761	35.1563	66.8977	35.1563	66.9349	35.1563	66.8764	35.1563	66.9022	35.1563	66.866	35.1563	66.8792	35.1563	66.867
38.0859	70.5039	38.0859	70.4964	38.0859	70.5027	38.0859	70.4806	38.0859	70.4928	38.0859	70.4569	38.0859	70.4743	38.0859	70.4257	38.0859	70.4475	38.0859	70.3879	38.0859	70.4129	38.0859	70.3444	38.0859	70.3713	38.0859	70.2963	38.0859	70.3237	38.0859	70.2449	38.0859	70.2714	38.0859	70.1915	38.0859	70.2161	38.0859	70.1378	38.0859	70.1595	38.0859	70.0853	38.0859	70.1036	38.0859	70.0358	38.0859	70.0505	38.0859	69.9908	38.0859	70.002	38.0859	69.9519	38.0859	69.9599	38.0859	69.9203	38.0859	69.9256	38.0859	69.8971	38.0859	69.9003	38.0859	69.8831	38.0859	69.8846	38.0859	69.8788
41.0156	73.2808	41.0156	73.2771	41.0156	73.2767	41.0156	73.2662	41.0156	73.265	41.0156	73.2482	41.0156	73.2457	41.0156	73.2239	41.0156	73.2191	41.0156	73.1938	41.0156	73.1858	41.0156	73.1589	41.0156	73.1466	41.0156	73.1202	41.0156	73.1024	41.0156	73.0785	41.0156	73.0545	41.0156	73.0351	41.0156	73.0046	41.0156	72.991	41.0156	72.9544	41.0156	72.9473	41.0156	72.9057	41.0156	72.9051	41.0156	72.8606	41.0156	72.8656	41.0156	72.8208	41.0156	72.8298	41.0156	72.788	41.0156	72.7986	41.0156	72.7634	41.0156	72.7732	41.0156	72.7476	41.0156	72.7546	41.0156	72.7411	41.0156	72.7436
43.9453	75.2111	43.9453	75.1962	43.9453	75.2164	43.9453	75.1718	43.9453	75.2118	43.9453	75.1387	43.9453	75.1976	43.9453	75.0976	43.9453	75.1742	43.9453	75.0496	43.9453	75.1423	43.9453	74.9962	43.9453	75.1028	43.9453	74.9389	43.9453	75.0568	43.9453	74.8796	43.9453	75.0059	43.9453	74.8202	43.9453	74.9515	43.9453	74.763	43.9453	74.8954	43.9453	74.7098	43.9453	74.8393	43.9453	74.6627	43.9453	74.7848	43.9453	74.6233	43.9453	74.7337	43.9453	74.5927	43.9453	74.6871	43.9453	74.5718	43.9453	74.6464	43.9453	74.5608	43.9453	74.6125	43.9453	74.5599	43.9453	74.5863	43.9453	74.5685
46.875	76.9056	46.875	76.8954	46.875	76.9068	46.875	76.8763	46.875	76.8987	46.875	76.849	46.875	76.8817	46.875	76.8143	46.875	76.8561	46.875	76.7731	46.875	76.8228	46.875	76.7269	46.875	76.7826	46.875	76.6771	46.875	76.7369	46.875	76.6252	46.875	76.6871	46.875	76.5729	46.875	76.6348	46.875	76.522	46.875	76.5819	46.875	76.4741	46.875	76.53	46.875	76.4307	46.875	76.481	46.875	76.3929	46.875	76.4364	46.875	76.3619	46.875	76.3975	46.875	76.3382	46.875	76.3653	46.875	76.3223	46.875	76.3406	46.875	76.3146	46.875	76.3238	46.875	76.3151
49.8047	77.9439	49.8047	77.9326	49.8047	77.9451	49.8047	77.9114	49.8047	77.9361	49.8047	77.8812	49.8047	77.9172	49.8047	77.8429	49.8047	77.8888	49.8047	77.7977	49.8047	77.8519	49.8047	77.747	49.8047	77.8077	49.8047	77.6927	49.8047	77.7576	49.8047	77.6365	49.8047	77.7034	49.8047	77.5804	49.8047	77.6469	49.8047	77.5263	49.8047	77.5903	49.8047	77.4759	49.8047	77.5353	49.8047	77.4307	49.8047	77.4839	49.8047	77.392	49.8047	77.4376	49.8047	77.3605	49.8047	77.3977	49.8047	77.3369	49.8047	77.365	49.8047	77.3213	49.8047	77.3401	49.8047	77.3138	49.8047	77.3232	49.8047	77.3144
52.7344	78.5379	52.7344	78.527	52.7344	78.538	52.7344	78.5058	52.7344	78.5273	52.7344	78.4748	52.7344	78.5061	52.7344	78.435	52.7344	78.4751	52.7344	78.3879	52.7344	78.4351	52.7344	78.3348	52.7344	78.3876	52.7344	78.2776	52.7344	78.334	52.7344	78.2183	52.7344	78.2763	52.7344	78.1588	52.7344	78.2164	52.7344	78.1013	52.7344	78.1565	52.7344	78.0475	52.7344	78.0986	52.7344	77.9991	52.7344	78.0448	52.7344	77.9575	52.7344	77.9966	52.7344	77.9234	52.7344	77.9552	52.7344	77.8975	52.7344	77.9216	52.7344	77.8801	52.7344	77.8962	52.7344	77.8713	52.7344	77.8793	52.7344	77.871
55.6641	78.8689	55.6641	78.8569	55.6641	78.8704	55.6641	78.835	55.6641	78.8614	55.6641	78.8039	55.6641	78.8422	55.6641	78.7647	55.6641	78.8134	55.6641	78.7189	55.6641	78.7759	55.6641	78.668	55.6641	78.731	55.6641	78.6139	55.6641	78.6805	55.6641	78.5586	55.6641	78.6261	55.6641	78.504	55.6641	78.5699	55.6641	78.452	55.6641	78.514	55.6641	78.4043	55.6641	78.4605	55.6641	78.3621	55.6641	78.4111	55.6641	78.3264	55.6641	78.3674	55.6641	78.2977	55.6641	78.3303	55.6641	78.2764	55.6641	78.3005	55.6641	78.2623	55.6641	78.2782	55.6641	78.2555	55.6641	78.2633	55.6641	78.2558
58.5938	78.963	58.5938	78.9496	58.5938	78.9676	58.5938	78.9279	58.5938	78.9633	58.5938	78.8988	58.5938	78.9502	58.5938	78.8636	58.5938	78.9289	58.5938	78.8238	58.5938	78.9003	58.5938	78.781	58.5938	78.8656	58.5938	78.737	58.5938	78.8262	58.5938	78.6935	58.5938	78.7839	58.5938	78.6522	58.5938	78.7404	58.5938	78.6144	58.5938	78.6974	58.5938	78.5812	58.5938	78.6564	58.5938	78.5533	58.5938	78.6189	58.5938	78.5308	58.5938	78.5857	58.5938	78.5139	58.5938	78.5576	58.5938	78.5024	58.5938	78.5347	58.5938	78.4958	58.5938	78.5172	58.5938	78.4941	58.5938	78.5047	58.5938	78.4971
61.5234	79.1471	61.5234	79.1303	61.5234	79.1516	61.5234	79.1017	61.5234	79.1436	61.5234	79.0624	61.5234	79.1237	61.5234	79.0138	61.5234	79.0929	61.5234	78.9581	61.5234	79.0526	61.5234	78.8975	61.5234	79.0046	61.5234	78.8349	61.5234	78.9512	61.5234	78.773	61.5234	78.8948	61.5234	78.7146	61.5234	78.8378	61.5234	78.6621	61.5234	78.7828	61.5234	78.6176	61.5234	78.7317	61.5234	78.5821	61.5234	78.6861	61.5234	78.5561	61.5234	78.6469	61.5234	78.5391	61.5234	78.6143	61.5234	78.5301	61.5234	78.5879	61.5234	78.5279	61.5234	78.5671	61.5234	78.5312	61.5234	78.551	61.5234	78.5391
64.4531	79.3103	64.4531	79.2944	64.4531	79.3135	64.4531	79.2666	64.4531	79.3039	64.4531	79.2277	64.4531	79.2821	64.4531	79.1796	64.4531	79.2489	64.4531	79.1241	64.4531	79.2057	64.4531	79.0636	64.4531	79.1544	64.4531	79.0008	64.4531	79.0972	64.4531	78.9384	64.4531	79.0367	64.4531	78.879	64.4531	78.9756	64.4531	78.8249	64.4531	78.9163	64.4531	78.778	64.4531	78.8613	64.4531	78.7393	64.4531	78.8122	64.4531	78.7093	64.4531	78.7704	64.4531	78.6876	64.4531	78.7362	64.4531	78.6735	64.4531	78.7096	64.4531	78.6661	64.4531	78.6898	64.4531	78.6643	64.4531	78.676	64.4531	78.6677
67.3828	79.4963	67.3828	79.4792	67.3828	79.4997	67.3828	79.4491	67.3828	79.4893	67.3828	79.4072	67.3828	79.4654	67.3828	79.355	67.3828	79.4291	67.3828	79.2948	67.3828	79.3817	67.3828	79.229	67.3828	79.3252	67.3828	79.1605	67.3828	79.262	67.3828	79.0921	67.3828	79.1947	67.3828	79.0266	67.3828	79.1263	67.3828	78.9665	67.3828	79.0596	67.3828	78.9137	67.3828	78.9972	67.3828	78.8694	67.3828	78.9412	67.3828	78.8343	67.3828	78.8932	67.3828	78.808	67.3828	78.8538	67.3828	78.7899	67.3828	78.8232	67.3828	78.7793	67.3828	78.8008	67.3828	78.7753	67.3828	78.7858	67.3828	78.7774
70.3125	79.6782	70.3125	79.6562	70.3125	79.6861	70.3125	79.6209	70.3125	79.6798	70.3125	79.5735	70.3125	79.6597	70.3125	79.5158	70.3125	79.6269	70.3125	79.4501	70.3125	79.5827	70.3125	79.3791	70.3125	79.529	70.3125	79.3059	70.3125	79.4683	70.3125	79.2336	70.3125	79.403	70.3125	79.1655	70.3125	79.336	70.3125	79.1041	70.3125	79.27	70.3125	79.0517	70.3125	79.2075	70.3125	79.0095	70.3125	79.1503	70.3125	78.9781	70.3125	79.0999	70.3125	78.9571	70.3125	79.057	70.3125	78.9455	70.3125	79.0217	70.3125	78.9422	70.3125	78.9934	70.3125	78.9459	70.3125	78.9716	70.3125	78.9558
73.2422	79.8035	73.2422	79.782	73.2422	79.8111	73.2422	79.7469	73.2422	79.8044	73.2422	79.6997	73.2422	79.7842	73.2422	79.6421	73.2422	79.7515	73.2422	79.5765	73.2422	79.7078	73.2422	79.5058	73.2422	79.6554	73.2422	79.4331	73.2422	79.5966	73.2422	79.3617	73.2422	79.5342	73.2422	79.2949	73.2422	79.471	73.2422	79.2356	73.2422	79.4095	73.2422	79.186	73.2422	79.352	73.2422	79.1474	73.2422	79.3001	73.2422	79.1201	73.2422	79.2547	73.2422	79.1037	73.2422	79.2161	73.2422	79.097	73.2422	79.1839	73.2422	79.0982	73.2422	79.1574	73.2422	79.1058	73.2422	79.1358	73.2422	79.1186
76.1719	79.9473	76.1719	79.9281	76.1719	79.9522	76.1719	79.8953	76.1719	79.9428	76.1719	79.8501	76.1719	79.9197	76.1719	79.7946	76.1719	79.8842	76.1719	79.7313	76.1719	79.8381	76.1719	79.663	76.1719	79.7838	76.1719	79.5932	76.1719	79.7239	76.1719	79.5253	76.1719	79.6615	76.1719	79.4624	76.1719	79.5996	76.1719	79.4075	76.1719	79.5409	76.1719	79.3624	76.1719	79.4876	76.1719	79.3281	76.1719	79.4414	76.1719	79.3048	76.1719	79.4029	76.1719	79.2913	76.1719	79.372	76.1719	79.2861	76.1719	79.3476	76.1719	79.2872	76.1719	79.3287	76.1719	79.2929	76.1719	79.3138	76.1719	79.3019
79.1016	80.1074	79.1016	80.0899	79.1016	80.1102	79.1016	80.0585	79.1016	80.0985	79.1016	80.0144	79.1016	80.073	79.1016	79.9597	79.1016	80.0351	79.1016	79.8968	79.1016	79.9869	79.1016	79.829	79.1016	79.9308	79.1016	79.7597	79.1016	79.8699	79.1016	79.6923	79.1016	79.8073	79.1016	79.6302	79.1016	79.746	79.1016	79.5761	79.1016	79.6889	79.1016	79.5322	79.1016	79.6382	79.1016	79.4993	79.1016	79.5952	79.1016	79.4773	79.1016	79.5603	79.1016	79.4649	79.1016	79.5332	79.1016	79.4605	79.1016	79.5125	79.1016	79.4618	79.1016	79.4969	79.1016	79.4671	79.1016	79.4847	79.1016	79.4749
82.0313	80.3601	82.0313	80.3443	82.0313	80.3595	82.0313	80.313	82.0313	80.3426	82.0313	80.2675	82.0313	80.3103	82.0313	80.2101	82.0313	80.2642	82.0313	80.1438	82.0313	80.2065	82.0313	80.0718	82.0313	80.1402	82.0313	79.998	82.0313	80.0689	82.0313	79.9262	82.0313	79.9962	82.0313	79.86	82.0313	79.926	82.0313	79.8025	82.0313	79.8618	82.0313	79.7555	82.0313	79.8063	82.0313	79.72	82.0313	79.7611	82.0313	79.6954	82.0313	79.7269	82.0313	79.6804	82.0313	79.7029	82.0313	79.6725	82.0313	79.6874	82.0313	79.6695	82.0313	79.6784	82.0313	79.6693	82.0313	79.6734	82.0313	79.6707
84.9609	80.468	84.9609	80.4516	84.9609	80.4653	84.9609	80.417	84.9609	80.4438	84.9609	80.3656	84.9609	80.4042	84.9609	80.2997	84.9609	80.3484	84.9609	80.2225	84.9609	80.2789	84.9609	80.1377	84.9609	80.1991	84.9609	80.0494	84.9609	80.1129	84.9609	79.9621	84.9609	80.0247	84.9609	79.8801	84.9609	79.9392	84.9609	79.8072	84.9609	79.8605	84.9609	79.746	84.9609	79.7919	84.9609	79.6981	84.9609	79.7358	84.9609	79.6634	84.9609	79.6928	84.9609	79.6406	84.9609	79.6623	84.9609	79.6273	84.9609	79.6423	84.9609	79.6209	84.9609	79.6301	84.9609	79.619	84.9609	79.6234	84.9609	79.6199
87.8906	80.5541	87.8906	80.536	87.8906	80.5562	87.8906	80.5029	87.8906	80.5423	87.8906	80.4561	87.8906	80.5129	87.8906	80.3976	87.8906	80.4693	87.8906	80.3302	87.8906	80.4134	87.8906	80.2568	87.8906	80.3475	87.8906	80.1808	87.8906	80.2747	87.8906	80.1055	87.8906	80.1982	87.8906	80.0343	87.8906	80.1215	87.8906	79.9697	87.8906	80.0479	87.8906	79.9137	87.8906	79.9805	87.8906	79.8675	87.8906	79.9214	87.8906	79.8312	87.8906	79.8723	87.8906	79.8042	87.8906	79.8335	87.8906	79.7854	87.8906	79.8048	87.8906	79.7736	87.8906	79.7851	87.8906	79.7678	87.8906	79.7731	87.8906	79.7676
90.8203	80.6211	90.8203	80.6021	90.8203	80.6239	90.8203	80.5677	90.8203	80.6105	90.8203	80.5199	90.8203	80.5819	90.8203	80.4614	90.8203	80.5399	90.8203	80.3958	90.8203	80.4874	90.8203	80.3273	90.8203	80.4278	90.8203	80.2601	90.8203	80.3651	90.8203	80.1988	90.8203	80.3034	90.8203	80.1469	90.8203	80.2465	90.8203	80.1073	90.8203	80.198	90.8203	80.0811	90.8203	80.16	90.8203	80.0681	90.8203	80.1333	90.8203	80.0663	90.8203	80.1176	90.8203	80.0727	90.8203	80.1107	90.8203	80.0836	90.8203	80.1099	90.8203	80.0954	90.8203	80.1116	90.8203	80.1051	90.8203	80.1128	90.8203	80.111
93.75	80.8327	93.75	80.8119	93.75	80.8333	93.75	80.7716	93.75	80.8137	93.75	80.7138	93.75	80.7754	93.75	80.6417	93.75	80.7207	93.75	80.5592	93.75	80.653	93.75	80.4713	93.75	80.5765	93.75	80.3834	93.75	80.4963	93.75	80.3012	93.75	80.4174	93.75	80.2298	93.75	80.345	93.75	80.1734	93.75	80.2832	93.75	80.1341	93.75	80.2348	93.75	80.1124	93.75	80.201	93.75	80.1064	93.75	80.1809	93.75	80.1124	93.75	80.1718	93.75	80.1258	93.75	80.1699	93.75	80.1416	93.75	80.1706	93.75	80.1557	93.75	80.1701	93.75	80.1655
96.6797	81.1856	96.6797	81.1724	96.6797	81.177	96.6797	81.138	96.6797	81.1464	96.6797	81.0843	96.6797	81.0949	96.6797	81.0137	96.6797	81.0245	96.6797	80.9296	96.6797	80.9379	96.6797	80.836	96.6797	80.839	96.6797	80.7375	96.6797	80.7325	96.6797	80.6389	96.6797	80.6237	96.6797	80.5449	96.6797	80.5181	96.6797	80.4596	96.6797	80.4213	96.6797	80.386	96.6797	80.3376	96.6797	80.3258	96.6797	80.2703	96.6797	80.2789	96.6797	80.2208	96.6797	80.244	96.6797	80.1884	96.6797	80.2186	96.6797	80.171	96.6797	80.1999	96.6797	80.1651	96.6797	80.1857	96.6797	80.1674	96.6797	80.1748
102.539	81.2972	102.539	81.276	102.539	81.2971	102.539	81.2345	102.539	81.2756	102.539	81.1752	102.539	81.2338	102.539	81.1013	102.539	81.174	102.539	81.0169	102.539	81.0994	102.539	80.9272	102.539	81.0144	102.539	80.8373	102.539	80.9241	102.539	80.7529	102.539	80.834	102.539	80.6786	102.539	80.7496	102.539	80.6181	102.539	80.6758	102.539	80.5734	102.539	80.6162	102.539	80.5444	102.539	80.5726	102.539	80.5295	102.539	80.5447	102.539	80.5251	102.539	80.5306	102.539	80.5272	102.539	80.5266	102.539	80.5315	102.539	80.5287	102.539	80.5348	102.539	80.5326	102.539	80.5352
105.469	81.4695	105.469	81.444	105.469	81.4715	105.469	81.3962	105.469	81.4498	105.469	81.3286	105.469	81.4056	105.469	81.2447	105.469	81.341	105.469	81.149	105.469	81.2596	105.469	81.0472	105.469	81.1658	105.469	80.9452	105.469	81.0653	105.469	80.8494	105.469	80.9643	105.469	80.7653	105.469	80.869	105.469	80.6973	105.469	80.7852	105.469	80.6481	105.469	80.7174	105.469	80.6176	105.469	80.6678	105.469	80.6037	105.469	80.6365	105.469	80.6023	105.469	80.6211	105.469	80.6085	105.469	80.6173	105.469	80.617	105.469	80.6201	105.469	80.6237	105.469	80.6243	105.469	80.6262
108.398	81.6438	108.398	81.6207	108.398	81.643	108.398	81.5747	108.398	81.6183	108.398	81.5081	108.398	81.5707	108.398	81.4246	108.398	81.5026	108.398	81.3285	108.398	81.4177	108.398	81.2253	108.398	81.3204	108.398	81.1212	108.398	81.2163	108.398	81.0224	108.398	81.1118	108.398	80.9347	108.398	81.0132	108.398	80.8628	108.398	80.9262	108.398	80.8092	108.398	80.8555	108.398	80.7743	108.398	80.8036	108.398	80.7561	108.398	80.7704	108.398	80.7507	108.398	80.7539	108.398	80.7531	108.398	80.7498	108.398	80.7583	108.398	80.753	108.398	80.762	108.398	80.7584	108.398	80.7621
111.328	81.7866	111.328	81.7649	111.328	81.7842	111.328	81.7203	111.328	81.7578	111.328	81.6551	111.328	81.7085	111.328	81.5727	111.328	81.6388	111.328	81.4777	111.328	81.5524	111.328	81.3756	111.328	81.4539	111.328	81.2724	111.328	81.3491	111.328	81.1745	111.328	81.2443	111.328	81.0876	111.328	81.146	111.328	81.0164	111.328	81.0601	111.328	80.9633	111.328	80.9909	111.328	80.9289	111.328	80.9409	111.328	80.9108	111.328	80.9101	111.328	80.9053	111.328	80.896	111.328	80.9073	111.328	80.8943	111.328	80.9116	111.328	80.8998	111.328	80.9143	111.328	80.9073	111.328	80.9128
117.188	82.0349	117.188	82.0101	117.188	82.0339	117.188	81.9608	117.188	82.0068	117.188	81.8898	117.188	81.955	117.188	81.8011	117.188	81.8809	117.188	81.7	117.188	81.7884	117.188	81.5924	117.188	81.6829	117.188	81.4854	117.188	81.5706	117.188	81.3858	117.188	81.4587	117.188	81.2997	117.188	81.3545	117.188	81.2317	117.188	81.2647	117.188	81.1841	117.188	81.1943	117.188	81.1565	117.188	81.146	117.188	81.1459	117.188	81.1197	117.188	81.1471	117.188	81.1123	117.188	81.154	117.188	81.1187	117.188	81.161	117.188	81.1326	117.188	81.1633	117.188	81.1476	117.188	81.1588
120.117	82.1784	120.117	82.1486	120.117	82.1817	120.117	82.0938	120.117	82.1583	120.117	82.0172	120.117	82.1095	120.117	81.9232	120.117	82.0378	120.117	81.8174	120.117	81.9475	120.117	81.7066	120.117	81.8441	120.117	81.5981	120.117	81.7342	120.117	81.4994	120.117	81.6254	120.117	81.4167	120.117	81.5249	120.117	81.3549	120.117	81.4397	120.117	81.3159	120.117	81.3747	120.117	81.2987	120.117	81.3322	120.117	81.2996	120.117	81.3115	120.117	81.3126	120.117	81.3092	120.117	81.3306	120.117	81.3193	120.117	81.3473	120.117	81.335	120.117	81.3574	120.117	81.3497	120.117	81.3581
125.977	82.3829	125.977	82.3478	125.977	82.3888	125.977	82.2848	125.977	82.3656	125.977	82.1967	125.977	82.3151	125.977	82.0883	125.977	82.2404	125.977	81.9655	125.977	82.1463	125.977	81.8362	125.977	82.039	125.977	81.7092	125.977	81.9256	125.977	81.5934	125.977	81.8143	125.977	81.4975	125.977	81.7131	125.977	81.4279	125.977	81.6288	125.977	81.3877	125.977	81.5664	125.977	81.3764	125.977	81.5275	125.977	81.3893	125.977	81.5106	125.977	81.4189	125.977	81.5108	125.977	81.4563	125.977	81.521	125.977	81.4927	125.977	81.5334	125.977	81.5212	125.977	81.5407	125.977	81.5375
128.906	82.44	128.906	82.4104	128.906	82.4392	128.906	82.3516	128.906	82.408	128.906	82.2663	128.906	82.3481	128.906	82.1587	128.906	82.2627	128.906	82.0348	128.906	82.1566	128.906	81.9016	128.906	82.0359	128.906	81.7678	128.906	81.9085	128.906	81.6424	128.906	81.783	128.906	81.5342	128.906	81.6682	128.906	81.4501	128.906	81.572	128.906	81.3946	128.906	81.5	128.906	81.3681	128.906	81.4545	128.906	81.367	128.906	81.4341	128.906	81.3846	128.906	81.4336	128.906	81.4122	128.906	81.4454	128.906	81.4407	128.906	81.4608	128.906	81.4627	128.906	81.4721	128.906	81.4736
134.766	82.5023	134.766	82.4809	134.766	82.4927	134.766	82.4303	134.766	82.4523	134.766	82.3535	134.766	82.3828	134.766	82.2553	134.766	82.2875	134.766	82.142	134.766	82.1716	134.766	82.021	134.766	82.042	134.766	81.9006	134.766	81.9072	134.766	81.7895	134.766	81.7766	134.766	81.6953	134.766	81.6598	134.766	81.6236	134.766	81.5652	134.766	81.5772	134.766	81.4988	134.766	81.5552	134.766	81.463	134.766	81.5533	134.766	81.4558	134.766	81.5646	134.766	81.4714	134.766	81.581	134.766	81.5015	134.766	81.5945	134.766	81.5367	134.766	81.5988	134.766	81.5684	134.766	81.5901
137.695	82.5581	137.695	82.5288	137.695	82.5555	137.695	82.4696	137.695	82.5206	137.695	82.3843	137.695	82.4547	137.695	82.2783	137.695	82.361	137.695	82.1588	137.695	82.2446	137.695	82.0341	137.695	82.1126	137.695	81.9134	137.695	81.9736	137.695	81.8058	137.695	81.8377	137.695	81.719	137.695	81.7153	137.695	81.6584	137.695	81.6159	137.695	81.6255	137.695	81.5467	137.695	81.6179	137.695	81.5108	137.695	81.6297	137.695	81.5067	137.695	81.6522	137.695	81.5284	137.695	81.6761	137.695	81.567	137.695	81.6928	137.695	81.6118	137.695	81.696	137.695	81.6529	137.695	81.6824
143.555	82.6343	143.555	82.5907	143.555	82.6418	143.555	82.5128	143.555	82.6134	143.555	82.4044	143.555	82.5508	143.555	82.2714	143.555	82.458	143.555	82.1218	143.555	82.3406	143.555	81.9659	143.555	82.2061	143.555	81.8151	143.555	82.064	143.555	81.6815	143.555	81.9248	143.555	81.5761	143.555	81.7992	143.555	81.5066	143.555	81.697	143.555	81.4758	143.555	81.6252	143.555	81.481	143.555	81.5866	143.555	81.5142	143.555	81.5793	143.555	81.5639	143.555	81.5965	143.555	81.6174	143.555	81.6283	143.555	81.6633	143.555	81.6632	143.555	81.693	143.555	81.6906	143.555	81.702
149.414	82.8152	149.414	82.7748	149.414	82.8158	149.414	82.6963	149.414	82.7769	149.414	82.5836	149.414	82.7006	149.414	82.4423	149.414	82.5908	149.414	82.2806	149.414	82.4541	149.414	82.1088	149.414	82.2989	149.414	81.939	149.414	82.136	149.414	81.7844	149.414	81.9773	149.414	81.6574	149.414	81.8357	149.414	81.5676	149.414	81.7222	149.414	81.5199	149.414	81.6446	149.414	81.513	149.414	81.6056	149.414	81.5396	149.414	81.602	149.414	81.5878	149.414	81.6252	149.414	81.6437	149.414	81.6631	149.414	81.6942	149.414	81.7024	149.414	81.7289	149.414	81.7315	149.414	81.7417
155.273	83.0484	155.273	83.0105	155.273	83.0449	155.273	82.9329	155.273	83	155.273	82.8191	155.273	82.9155	155.273	82.6748	155.273	82.7952	155.273	82.5075	155.273	82.6451	155.273	82.3274	155.273	82.4737	155.273	82.1464	155.273	82.2918	155.273	81.9776	155.273	82.1124	155.273	81.834	155.273	81.9491	155.273	81.7261	155.273	81.8148	155.273	81.66	155.273	81.719	155.273	81.6354	155.273	81.6659	155.273	81.6461	155.273	81.6529	155.273	81.6807	155.273	81.6715	155.273	81.7254	155.273	81.7087	155.273	81.7666	155.273	81.7504	155.273	81.7934	155.273	81.7838	155.273	81.7996
158.203	83.076	158.203	83.0365	158.203	83.0739	158.203	82.9571	158.203	83.0298	158.203	82.8416	158.203	82.9456	158.203	82.6958	158.203	82.8248	158.203	82.5277	158.203	82.6734	158.203	82.3473	158.203	82.4997	158.203	82.1669	158.203	82.3147	158.203	81.9999	158.203	82.1314	158.203	81.8589	158.203	81.9642	158.203	81.7544	158.203	81.8266	158.203	81.6919	158.203	81.7286	158.203	81.6708	158.203	81.675	158.203	81.6842	158.203	81.6634	158.203	81.7202	158.203	81.6849	158.203	81.765	158.203	81.7264	158.203	81.8049	158.203	81.773	158.203	81.8291	158.203	81.8113	158.203	81.8316
164.063	83.1601	164.063	83.1184	164.063	83.1598	164.063	83.0367	164.063	83.1171	164.063	82.9189	164.063	83.0336	164.063	82.771	164.063	82.9129	164.063	82.6014	164.063	82.7607	164.063	82.4204	164.063	82.5852	164.063	82.2407	164.063	82.3976	164.063	82.076	164.063	82.211	164.063	81.9391	164.063	82.0399	164.063	81.8404	164.063	81.8986	164.063	81.7848	164.063	81.798	164.063	81.7709	164.063	81.7435	164.063	81.7907	164.063	81.7334	164.063	81.8315	164.063	81.759	164.063	81.8784	164.063	81.8068	164.063	81.9177	164.063	81.861	164.063	81.9385	164.063	81.9074	164.063	81.9352
169.922	83.1315	169.922	83.0794	169.922	83.139	169.922	82.9849	169.922	83.1015	169.922	82.8524	169.922	83.021	169.922	82.6887	169.922	82.9011	169.922	82.5033	169.922	82.7483	169.922	82.3082	169.922	82.5716	169.922	82.1179	169.922	82.3825	169.922	81.9478	169.922	82.1953	169.922	81.8123	169.922	82.0252	169.922	81.7224	169.922	81.8871	169.922	81.6825	169.922	81.7921	169.922	81.6893	169.922	81.7452	169.922	81.7326	169.922	81.7439	169.922	81.797	169.922	81.7782	169.922	81.8655	169.922	81.833	169.922	81.9228	169.922	81.8916	169.922	81.9571	169.922	81.9386	169.922	81.9624
175.781	83.1028	175.781	83.0554	175.781	83.1028	175.781	82.9619	175.781	83.0559	175.781	82.8262	175.781	82.9649	175.781	82.6547	175.781	82.8345	175.781	82.4571	175.781	82.6721	175.781	82.2464	175.781	82.4878	175.781	82.0388	175.781	82.2945	175.781	81.8528	175.781	82.1076	175.781	81.7062	175.781	81.9432	175.781	81.6128	175.781	81.8164	175.781	81.5789	175.781	81.7377	175.781	81.6008	175.781	81.7107	175.781	81.6659	175.781	81.7304	175.781	81.7556	175.781	81.7843	175.781	81.8494	175.781	81.855	175.781	81.9286	175.781	81.924	175.781	81.9798	175.781	81.9748	175.781	81.9954
181.641	83.0852	181.641	83.0507	181.641	83.0687	181.641	82.9667	181.641	83.0017	181.641	82.8366	181.641	82.8866	181.641	82.6667	181.641	82.7285	181.641	82.4662	181.641	82.5348	181.641	82.2477	181.641	82.3165	181.641	82.0274	181.641	82.0881	181.641	81.8243	181.641	81.8675	181.641	81.6576	181.641	81.6742	181.641	81.5432	181.641	81.5268	181.641	81.4896	181.641	81.4388	181.641	81.4953	181.641	81.4146	181.641	81.5484	181.641	81.4482	181.641	81.6294	181.641	81.5241	181.641	81.7161	181.641	81.6207	181.641	81.7878	181.641	81.7159	181.641	81.8287	181.641	81.7902	181.641	81.8299
190.43	83.1445	190.43	83.0974	190.43	83.1382	190.43	82.9994	190.43	83.0775	190.43	82.8551	190.43	82.9639	190.43	82.6714	190.43	82.8008	190.43	82.4579	190.43	82.5947	190.43	82.2275	190.43	82.3558	190.43	81.9962	190.43	82.0984	190.43	81.7826	190.43	81.8414	190.43	81.6052	190.43	81.6065	190.43	81.4798	190.43	81.4163	190.43	81.4146	190.43	81.289	190.43	81.408	190.43	81.2336	190.43	81.4484	190.43	81.247	190.43	81.5162	190.43	81.3141	190.43	81.5893	190.43	81.4121	190.43	81.6466	190.43	81.5159	190.43	81.6725	190.43	81.6033	190.43	81.6581
196.289	83.1803	196.289	83.1119	196.289	83.1915	196.289	82.9893	196.289	83.1446	196.289	82.8182	196.289	83.0411	196.289	82.6072	196.289	82.8849	196.289	82.3687	196.289	82.6829	196.289	82.1188	196.289	82.4458	196.289	81.8772	196.289	82.1887	196.289	81.6657	196.289	81.9311	196.289	81.5047	196.289	81.6957	196.289	81.4089	196.289	81.506	196.289	81.3829	196.289	81.381	196.289	81.4194	196.289	81.3304	196.289	81.5007	196.289	81.3508	196.289	81.603	196.289	81.4266	196.289	81.7017	196.289	81.5338	196.289	81.7756	196.289	81.6461	196.289	81.8101	196.289	81.7399	196.289	81.7978
202.148	83.2475	202.148	83.172	202.148	83.2604	202.148	83.0362	202.148	83.2107	202.148	82.8447	202.148	83.1002	202.148	82.6052	202.148	82.9329	202.148	82.33	202.148	82.7159	202.148	82.0361	202.148	82.46	202.148	81.7464	202.148	82.1807	202.148	81.4878	202.148	81.899	202.148	81.2876	202.148	81.6398	202.148	81.1674	202.148	81.4296	202.148	81.1359	202.148	81.2906	202.148	81.1857	202.148	81.2346	202.148	81.2947	202.148	81.2579	202.148	81.4322	202.148	81.3426	202.148	81.5669	202.148	81.4609	202.148	81.6723	202.148	81.5821	202.148	81.7303	202.148	81.6791	202.148	81.7322
210.938	83.2343	210.938	83.1593	210.938	83.2467	210.938	83.0228	210.938	83.197	210.938	82.8279	210.938	83.0873	210.938	82.5806	210.938	82.9217	210.938	82.2908	210.938	82.7067	210.938	81.9735	210.938	82.4523	210.938	81.6504	210.938	82.1727	210.938	81.3489	210.938	81.887	210.938	81.0996	210.938	81.6185	210.938	80.93	210.938	81.3923	210.938	80.856	210.938	81.2303	210.938	80.8759	210.938	81.1454	210.938	80.9699	210.938	81.1366	210.938	81.106	210.938	81.1889	210.938	81.2496	210.938	81.2764	210.938	81.3705	210.938	81.3695	210.938	81.4477	210.938	81.4412	210.938	81.471
216.797	83.1526	216.797	83.0894	216.797	83.1504	216.797	82.9615	216.797	83.0839	216.797	82.7717	216.797	82.9558	216.797	82.5255	216.797	82.7711	216.797	82.2326	216.797	82.538	216.797	81.908	216.797	82.2683	216.797	81.5737	216.797	81.9791	216.797	81.2586	216.797	81.6924	216.797	80.9958	216.797	81.4339	216.797	80.8163	216.797	81.2299	216.797	80.7394	216.797	81.1008	216.797	80.7655	216.797	81.0551	216.797	80.8744	216.797	81.0858	216.797	81.0318	216.797	81.1716	216.797	81.1998	216.797	81.2828	216.797	81.345	216.797	81.3882	216.797	81.4435	216.797	81.4612	216.797	81.4827
225.586	83.3622	225.586	83.3109	225.586	83.3432	225.586	83.1906	225.586	83.2539	225.586	83.0047	225.586	83.096	225.586	82.7589	225.586	82.8736	225.586	82.4627	225.586	82.5941	225.586	82.1314	225.586	82.2697	225.586	81.7865	225.586	81.9194	225.586	81.4573	225.586	81.5699	225.586	81.1776	225.586	81.2548	225.586	80.9802	225.586	81.0103	225.586	80.8867	225.586	80.8657	225.586	80.8993	225.586	80.8336	225.586	80.9988	225.586	80.9036	225.586	81.15	225.586	81.0448	225.586	81.3126	225.586	81.2163	225.586	81.45	225.586	81.3776	225.586	81.5349	225.586	81.4963	225.586	81.5516
234.375	83.3509	234.375	83.2825	234.375	83.3489	234.375	83.1476	234.375	83.2735	234.375	82.9517	234.375	83.123	234.375	82.7018	234.375	82.8976	234.375	82.4078	234.375	82.6006	234.375	82.0836	234.375	82.2402	234.375	81.7485	234.375	81.8318	234.375	81.4275	234.375	81.4012	234.375	81.15	234.375	80.9855	234.375	80.9446	234.375	80.6314	234.375	80.8314	234.375	80.3862	234.375	80.8139	234.375	80.2816	234.375	80.8761	234.375	80.3193	234.375	80.9861	234.375	80.4687	234.375	81.1051	234.375	80.6787	234.375	81.1962	234.375	80.8958	234.375	81.2306	234.375	81.0761	234.375	81.1917
240.234	83.2399	240.234	83.1293	240.234	83.2758	240.234	82.9468	240.234	83.2353	240.234	82.6974	240.234	83.118	240.234	82.3892	240.234	82.9251	240.234	82.0353	240.234	82.66	240.234	81.655	240.234	82.3297	240.234	81.2754	240.234	81.9472	240.234	80.9306	240.234	81.5339	240.234	80.6571	240.234	81.1214	240.234	80.4851	240.234	80.7507	240.234	80.4277	240.234	80.4665	240.234	80.4749	240.234	80.3042	240.234	80.5959	240.234	80.2755	240.234	80.7489	240.234	80.3626	240.234	80.8923	240.234	80.5239	240.234	80.9924	240.234	80.7095	240.234	81.0269	240.234	80.8745	240.234	80.9863
249.023	83.3579	249.023	83.2702	249.023	83.3682	249.023	83.1052	249.023	83.3016	249.023	82.8646	249.023	83.1592	249.023	82.5522	249.023	82.9434	249.023	82.1763	249.023	82.6585	249.023	81.7519	249.023	82.3126	249.023	81.304	249.023	81.9194	249.023	80.8691	249.023	81.5012	249.023	80.4939	249.023	81.0903	249.023	80.2262	249.023	80.7277	249.023	80.0992	249.023	80.4562	249.023	80.116	249.023	80.3076	249.023	80.2464	249.023	80.2889	249.023	80.4389	249.023	80.3778	249.023	80.6383	249.023	80.5305	249.023	80.7991	249.023	80.6963	249.023	80.8914	249.023	80.8306	249.023	80.9013
257.813	83.2659	257.813	83.1822	257.813	83.274	257.813	83.0225	257.813	83.2074	257.813	82.7876	257.813	83.0671	257.813	82.4803	257.813	82.8553	257.813	82.1076	257.813	82.5758	257.813	81.6835	257.813	82.2357	257.813	81.2321	257.813	81.848	257.813	80.7906	257.813	81.4339	257.813	80.408	257.813	81.025	257.813	80.1364	257.813	80.6626	257.813	80.0133	257.813	80.3911	257.813	80.0436	257.813	80.2448	257.813	80.195	257.813	80.2332	257.813	80.4111	257.813	80.3347	257.813	80.6316	257.813	80.5036	257.813	80.8074	257.813	80.6864	257.813	80.9065	257.813	80.8351	257.813	80.9148
266.602	83.0617	266.602	82.9824	266.602	83.061	266.602	82.8233	266.602	82.9803	266.602	82.5852	266.602	82.8192	266.602	82.27	266.602	82.5783	266.602	81.8831	266.602	82.2595	266.602	81.4363	266.602	81.8684	266.602	80.9519	266.602	81.4167	266.602	80.4666	266.602	80.9267	266.602	80.0331	266.602	80.4345	266.602	79.7119	266.602	79.9918	266.602	79.552	266.602	79.6587	266.602	79.5666	266.602	79.4853	266.602	79.7229	266.602	79.488	266.602	79.9557	266.602	79.6383	266.602	80.1938	266.602	79.8746	266.602	80.3785	266.602	80.1266	266.602	80.4719	266.602	80.3343	266.602	80.4564
278.32	83.1452	278.32	83.0744	278.32	83.1362	278.32	82.9228	278.32	83.0494	278.32	82.6898	278.32	82.8871	278.32	82.3764	278.32	82.6531	278.32	81.9859	278.32	82.3527	278.32	81.5264	278.32	81.9944	278.32	81.0144	278.32	81.5911	278.32	80.4791	278.32	81.1626	278.32	79.9668	278.32	80.7372	278.32	79.5396	278.32	80.352	278.32	79.2618	278.32	80.0481	278.32	79.1741	278.32	79.8605	278.32	79.2685	278.32	79.8031	278.32	79.4898	278.32	79.8596	278.32	79.76	278.32	79.9868	278.32	80.007	278.32	80.1286	278.32	80.1806	278.32	80.2315	278.32	80.2557
287.109	83.0852	287.109	83.017	287.109	83.0762	287.109	82.8719	287.109	82.9886	287.109	82.6497	287.109	82.8205	287.109	82.3504	287.109	82.5712	287.109	81.9762	287.109	82.2425	287.109	81.5349	287.109	81.8415	287.109	81.0443	287.109	81.3841	287.109	80.5364	287.109	80.8985	287.109	80.0608	287.109	80.4278	287.109	79.6795	287.109	80.027	287.109	79.4501	287.109	79.7511	287.109	79.3999	287.109	79.6344	287.109	79.5102	287.109	79.6726	287.109	79.7241	287.109	79.8235	287.109	79.9713	287.109	80.0248	287.109	80.1903	287.109	80.2151	287.109	80.3383	287.109	80.3474	287.109	80.3924
295.898	83.1303	295.898	83.0614	295.898	83.1231	295.898	82.9184	295.898	83.036	295.898	82.7012	295.898	82.8633	295.898	82.4086	295.898	82.5987	295.898	82.0392	295.898	82.2367	295.898	81.5949	295.898	81.775	295.898	81.0853	295.898	81.2191	295.898	80.5343	295.898	80.5886	295.898	79.9872	295.898	79.9266	295.898	79.5123	295.898	79.3074	295.898	79.1884	295.898	78.831	295.898	79.0708	295.898	78.5904	295.898	79.1562	295.898	78.6184	295.898	79.3799	295.898	78.8618	295.898	79.6483	295.898	79.214	295.898	79.8753	295.898	79.5669	295.898	80.0006	295.898	79.8414	295.898	79.9918
307.617	83.102	307.617	82.9707	307.617	83.151	307.617	82.7589	307.617	83.1167	307.617	82.4702	307.617	82.9985	307.617	82.1097	307.617	82.7958	307.617	81.6858	307.617	82.5081	307.617	81.2115	307.617	82.1357	307.617	80.7067	307.617	81.6819	307.617	80.2024	307.617	81.1574	307.617	79.7428	307.617	80.5864	307.617	79.3825	307.617	80.0142	307.617	79.1727	307.617	79.5103	307.617	79.1391	307.617	79.1576	307.617	79.2639	307.617	79.0185	307.617	79.4887	307.617	79.0964	307.617	79.7371	307.617	79.3272	307.617	79.938	307.617	79.613	307.617	80.0395	307.617	79.8627	307.617	80.0146
319.336	83.0294	319.336	82.9326	319.336	83.0406	319.336	82.7468	319.336	82.9686	319.336	82.4683	319.336	82.8145	319.336	82.0947	319.336	82.5786	319.336	81.6263	319.336	82.2609	319.336	81.0709	319.336	81.8622	319.336	80.4488	319.336	81.3871	319.336	79.8009	319.336	80.848	319.336	79.1955	319.336	80.2707	319.336	78.7229	319.336	79.7014	319.336	78.468	319.336	79.2082	319.336	78.4639	319.336	78.8683	319.336	78.6668	319.336	78.7366	319.336	78.9796	319.336	78.8111	319.336	79.2993	319.336	79.0289	319.336	79.5471	319.336	79.2978	319.336	79.6762	319.336	79.5313	319.336	79.6685
331.055	82.7972	331.055	82.7382	331.055	82.7815	331.055	82.6003	331.055	82.6938	331.055	82.3773	331.055	82.5355	331.055	82.0613	331.055	82.3073	331.055	81.6443	331.055	82.0104	331.055	81.1207	331.055	81.6476	331.055	80.4933	331.055	81.2254	331.055	79.7834	331.055	80.7572	331.055	79.045	331.055	80.2676	331.055	78.3785	331.055	79.7959	331.055	77.9215	331.055	79.3954	331.055	77.7864	331.055	79.122	331.055	77.9767	331.055	79.0127	331.055	78.3777	331.055	79.0624	331.055	78.8351	331.055	79.2208	331.055	79.2282	331.055	79.4114	331.055	79.4891	331.055	79.5565	331.055	79.5951
342.773	82.516	342.773	82.4663	342.773	82.4835	342.773	82.3371	342.773	82.3641	342.773	82.1292	342.773	82.152	342.773	81.841	342.773	81.8406	342.773	81.4696	342.773	81.4246	342.773	81.013	342.773	80.9022	342.773	80.4742	342.773	80.2804	342.773	79.8687	342.773	79.5842	342.773	79.2352	342.773	78.8689	342.773	78.6462	342.773	78.2309	342.773	78.2051	342.773	77.7976	342.773	78.0111	342.773	77.6722	342.773	78.0976	342.773	77.8602	342.773	78.4006	342.773	78.2586	342.773	78.7959	342.773	78.7221	342.773	79.1619	342.773	79.1283	342.773	79.4119	342.773	79.3996	342.773	79.4971
354.492	82.7903	354.492	82.6881	354.492	82.8156	354.492	82.511	354.492	82.759	354.492	82.259	354.492	82.6133	354.492	81.9295	354.492	82.369	354.492	81.5187	354.492	82.0144	354.492	81.0235	354.492	81.5374	354.492	80.4468	354.492	80.9276	354.492	79.805	354.492	80.1826	354.492	79.1396	354.492	79.3206	354.492	78.5284	354.492	78.4026	354.492	78.0808	354.492	77.5608	354.492	77.8968	354.492	76.9977	354.492	77.9993	354.492	76.8858	354.492	78.3069	354.492	77.2132	354.492	78.6813	354.492	77.7843	354.492	78.993	354.492	78.3768	354.492	79.1517	354.492	78.8417	354.492	79.1067
366.211	82.9775	366.211	82.8475	366.211	83.0322	366.211	82.6386	366.211	83.014	366.211	82.3466	366.211	82.9234	366.211	81.9663	366.211	82.7582	366.211	81.4928	366.211	82.5123	366.211	80.9232	366.211	82.1758	366.211	80.2612	366.211	81.7362	366.211	79.5252	366.211	81.1815	366.211	78.7614	366.211	80.507	366.211	78.0562	366.211	79.7256	366.211	77.5319	366.211	78.886	366.211	77.2971	366.211	78.092	366.211	77.37	366.211	77.4997	366.211	77.6528	366.211	77.2492	366.211	77.9938	366.211	77.353	366.211	78.2605	366.211	77.6756	366.211	78.37	366.211	78.0339	366.211	78.2894
377.93	82.9376	377.93	82.8382	377.93	82.947	377.93	82.6489	377.93	82.8665	377.93	82.3698	377.93	82.6972	377.93	81.9993	377.93	82.4415	377.93	81.5345	377.93	82.1028	377.93	80.9725	377.93	81.6853	377.93	80.3154	377.93	81.1955	377.93	79.5799	377.93	80.6442	377.93	78.8129	377.93	80.0521	377.93	78.1093	377.93	79.4567	377.93	77.6098	377.93	78.9183	377.93	77.442	377.93	78.5146	377.93	77.6229	377.93	78.3156	377.93	78.0332	377.93	78.3412	377.93	78.5011	377.93	78.5403	377.93	78.8892	377.93	78.8121	377.93	79.1204	377.93	79.0495	377.93	79.1689
392.578	82.3966	392.578	82.3286	392.578	82.3878	392.578	82.1816	392.578	82.3021	392.578	81.9515	392.578	82.137	392.578	81.632	392.578	81.8876	392.578	81.2154	392.578	81.5462	392.578	80.6939	392.578	81.1041	392.578	80.0637	392.578	80.554	392.578	79.3332	392.578	79.896	392.578	78.5376	392.578	79.1484	392.578	77.7589	392.578	78.3645	392.578	77.1369	392.578	77.6506	392.578	76.8297	392.578	77.1586	392.578	76.9081	392.578	77.0161	392.578	77.2844	392.578	77.2226	392.578	77.7765	392.578	77.639	392.578	78.2165	392.578	78.0847	392.578	78.4976	392.578	78.4208	392.578	78.5686
407.227	82.4799	407.227	82.3968	407.227	82.4732	407.227	82.2257	407.227	82.3734	407.227	81.9654	407.227	82.1765	407.227	81.6101	407.227	81.8788	407.227	81.1488	407.227	81.4757	407.227	80.5671	407.227	80.9625	407.227	79.8527	407.227	80.3359	407.227	79.0058	407.227	79.6	407.227	78.0624	407.227	78.778	407.227	77.1301	407.227	77.9344	407.227	76.4185	407.227	77.1986	407.227	76.1723	407.227	76.7539	407.227	76.466	407.227	76.7381	407.227	77.1095	407.227	77.115	407.227	77.8243	407.227	77.6929	407.227	78.4106	407.227	78.2615	407.227	78.7668	407.227	78.6752	407.227	78.8549
421.875	82.1924	421.875	82.0779	421.875	82.2497	421.875	81.9067	421.875	82.2469	421.875	81.6768	421.875	82.1777	421.875	81.3811	421.875	82.0313	421.875	81.0071	421.875	81.7918	421.875	80.5357	421.875	81.4382	421.875	79.9448	421.875	80.9466	421.875	79.217	421.875	80.294	421.875	78.3562	421.875	79.4664	421.875	77.419	421.875	78.476	421.875	76.5579	421.875	77.3968	421.875	76.0253	421.875	76.4182	421.875	76.024	421.875	75.8449	421.875	76.4885	421.875	75.8926	421.875	77.1354	421.875	76.4361	421.875	77.6963	421.875	77.135	421.875	78.014	421.875	77.7113	421.875	78.0215
436.523	82.3158	436.523	82.2725	436.523	82.277	436.523	82.1427	436.523	82.1618	436.523	81.923	436.523	81.9771	436.523	81.608	436.523	81.7271	436.523	81.1884	436.523	81.4091	436.523	80.6498	436.523	81.0106	436.523	79.975	436.523	80.5093	436.523	79.1523	436.523	79.8768	436.523	78.1937	436.523	79.0895	436.523	77.1736	436.523	78.149	436.523	76.2864	436.523	77.1249	436.523	75.8409	436.523	76.2189	436.523	76.0383	436.523	75.7658	436.523	76.7218	436.523	75.9864	436.523	77.5328	436.523	76.7066	436.523	78.1908	436.523	77.5418	436.523	78.5512	436.523	78.205	436.523	78.5574
451.172	82.4296	451.172	82.3354	451.172	82.4438	451.172	82.1698	451.172	82.3772	451.172	81.9441	451.172	82.2366	451.172	81.6648	451.172	82.0323	451.172	81.3257	451.172	81.7706	451.172	80.9034	451.172	81.4458	451.172	80.3584	451.172	81.0361	451.172	79.6414	451.172	80.5048	451.172	78.7051	451.172	79.8064	451.172	77.5295	451.172	78.8994	451.172	76.1867	451.172	77.7716	451.172	74.9736	451.172	76.5016	451.172	74.4446	451.172	75.3707	451.172	74.8758	451.172	74.8675	451.172	75.8162	451.172	75.2233	451.172	76.6851	451.172	76.0467	451.172	77.1865	451.172	76.8113	451.172	77.2263
465.82	82.4532	465.82	82.3048	465.82	82.48	465.82	82.0546	465.82	82.385	465.82	81.738	465.82	82.1858	465.82	81.3946	465.82	81.911	465.82	81.0503	465.82	81.5892	465.82	80.7011	465.82	81.236	465.82	80.3089	465.82	80.8446	465.82	79.8127	465.82	80.3838	465.82	79.1493	465.82	79.8067	465.82	78.2795	465.82	79.0653	465.82	77.2318	465.82	78.1345	465.82	76.1816	465.82	77.0565	465.82	75.5002	465.82	76.0186	465.82	75.5136	465.82	75.3888	465.82	76.0766	465.82	75.4589	465.82	76.729	465.82	76.0535	465.82	77.1254	465.82	76.7185	465.82	77.1221
483.398	84.1362	483.398	83.9196	483.398	84.1018	483.398	83.4552	483.398	83.8179	483.398	82.7544	483.398	83.2924	483.398	81.8438	483.398	82.5438	483.398	80.7787	483.398	81.6124	483.398	79.6582	483.398	80.5758	483.398	78.6216	483.398	79.5589	483.398	77.7924	483.398	78.7073	483.398	77.1814	483.398	78.103	483.398	76.6571	483.398	77.6866	483.398	76.0292	483.398	77.2889	483.398	75.1496	483.398	76.7305	483.398	73.9815	483.398	75.8925	483.398	72.6761	483.398	74.7581	483.398	71.6178	483.398	73.4667	483.398	71.1574	483.398	72.3368	483.398	71.1786	483.398	71.6562	483.398	71.3533
500.977	83.3486	500.977	83.2147	500.977	83.3714	500.977	82.9682	500.977	83.2736	500.977	82.5966	500.977	83.0372	500.977	82.0778	500.977	82.639	500.977	81.3828	500.977	82.053	500.977	80.4804	500.977	81.2534	500.977	79.3452	500.977	80.2182	500.977	77.9761	500.977	78.9395	500.977	76.443	500.977	77.4514	500.977	74.9801	500.977	75.895	500.977	74.0374	500.977	74.607	500.977	73.9696	500.977	74.0322	500.977	74.5801	500.977	74.276	500.977	75.3947	500.977	74.9694	500.977	76.1078	500.977	75.7174	500.977	76.6078	500.977	76.3239	500.977	76.8734	500.977	76.726	500.977	76.9104
518.555	82.1511	518.555	82.0904	518.555	82.1507	518.555	81.9565	518.555	82.0933	518.555	81.7306	518.555	81.9738	518.555	81.3883	518.555	81.7775	518.555	80.9005	518.555	81.4808	518.555	80.2345	518.555	81.0525	518.555	79.3558	518.555	80.4559	518.555	78.2355	518.555	79.6524	518.555	76.8745	518.555	78.6086	518.555	75.3719	518.555	77.318	518.555	74.0641	518.555	75.8617	518.555	73.5359	518.555	74.5336	518.555	74.0284	518.555	73.8829	518.555	75.0583	518.555	74.2191	518.555	76.0726	518.555	75.1485	518.555	76.8104	518.555	76.1155	518.555	77.191	518.555	76.8307	518.555	77.1971
536.133	82.4768	536.133	82.4105	536.133	82.4623	536.133	82.2644	536.133	82.3616	536.133	82.0334	536.133	82.165	536.133	81.704	536.133	81.8575	536.133	81.2508	536.133	81.4184	536.133	80.6347	536.133	80.8207	536.133	79.8027	536.133	80.0317	536.133	78.6865	536.133	79.012	536.133	77.2065	536.133	77.7185	536.133	75.2961	536.133	76.1208	536.133	73.0471	536.133	74.2784	536.133	71.2312	536.133	72.5845	536.133	71.3665	536.133	71.9871	536.133	73.0876	536.133	72.9174	536.133	74.8737	536.133	74.4605	536.133	76.1631	536.133	75.8089	536.133	76.8845	536.133	76.693	536.133	77.0558
553.711	82.0495	553.711	81.9929	553.711	82.0639	553.711	81.8867	553.711	82.0442	553.711	81.7205	553.711	81.9959	553.711	81.4766	553.711	81.9141	553.711	81.1256	553.711	81.7751	553.711	80.6259	553.711	81.5337	553.711	79.9258	553.711	81.1277	553.711	78.9691	553.711	80.4842	553.711	77.7046	553.711	79.5243	553.711	76.1186	553.711	78.1638	553.711	74.331	553.711	76.3232	553.711	72.8086	553.711	74.0035	553.711	72.3332	553.711	71.6493	553.711	73.0131	553.711	70.7296	553.711	74.0794	553.711	71.8524	553.711	74.9385	553.711	73.4708	553.711	75.3685	553.711	74.6697	553.711	75.2941
574.219	82.096	574.219	82.0172	574.219	82.1038	574.219	81.8888	574.219	82.0324	574.219	81.7362	574.219	81.8894	574.219	81.5728	574.219	81.6924	574.219	81.3834	574.219	81.4587	574.219	81.1168	574.219	81.1884	574.219	80.6915	574.219	80.8516	574.219	80.0063	574.219	80.3855	574.219	78.9457	574.219	79.7035	574.219	77.379	574.219	78.7093	574.219	75.1777	574.219	77.3162	574.219	72.4117	574.219	75.501	574.219	70.3144	574.219	73.5017	574.219	71.0379	574.219	72.2079	574.219	73.0595	574.219	72.5322	574.219	74.5989	574.219	73.7698	574.219	75.375	574.219	74.8718	574.219	75.4429
594.727	81.8157	594.727	81.6675	594.727	81.8237	594.727	81.3917	594.727	81.6937	594.727	81.0158	594.727	81.4445	594.727	80.5777	594.727	81.1126	594.727	80.1131	594.727	80.7486	594.727	79.6344	594.727	80.3975	594.727	79.1112	594.727	80.0661	594.727	78.4679	594.727	79.6975	594.727	77.6024	594.727	79.177	594.727	76.4229	594.727	78.3631	594.727	74.9268	594.727	77.1193	594.727	73.4095	594.727	75.371	594.727	72.7003	594.727	73.326	594.727	73.3587	594.727	72.0339	594.727	74.6578	594.727	72.6698	594.727	75.7576	594.727	74.2606	594.727	76.3286	594.727	75.58	594.727	76.2796
615.234	81.7809	615.234	81.6912	615.234	81.7682	615.234	81.5143	615.234	81.6539	615.234	81.2767	615.234	81.4548	615.234	81.0036	615.234	81.1954	615.234	80.7029	615.234	80.8952	615.234	80.3507	615.234	80.5541	615.234	79.8866	615.234	80.1445	615.234	79.2181	615.234	79.6111	615.234	78.2292	615.234	78.876	615.234	76.787	615.234	77.8428	615.234	74.7655	615.234	76.4063	615.234	72.2173	615.234	74.5053	615.234	70.1521	615.234	72.3738	615.234	70.5622	615.234	71.1361	615.234	72.461	615.234	71.8675	615.234	74.0582	615.234	73.4156	615.234	74.9466	615.234	74.6011	615.234	75.1222
638.672	82.552	638.672	82.3439	638.672	82.569	638.672	81.959	638.672	82.4003	638.672	81.4356	638.672	82.0701	638.672	80.8389	638.672	81.6235	638.672	80.2506	638.672	81.1244	638.672	79.7323	638.672	80.6397	638.672	79.2762	638.672	80.2035	638.672	78.7822	638.672	79.7809	638.672	78.0807	638.672	79.2611	638.672	76.9631	638.672	78.4794	638.672	75.1934	638.672	77.2414	638.672	72.5742	638.672	75.3382	638.672	69.7255	638.672	72.676	638.672	69.9573	638.672	70.2495	638.672	72.7288	638.672	70.9656	638.672	74.9188	638.672	73.4529	638.672	76.0399	638.672	75.3058	638.672	76.1604
659.18	82.0465	659.18	81.9075	659.18	82.0378	659.18	81.6333	659.18	81.88	659.18	81.2493	659.18	81.5872	659.18	80.7989	659.18	81.1985	659.18	80.3365	659.18	80.7809	659.18	79.8953	659.18	80.4071	659.18	79.441	659.18	80.1042	659.18	78.8595	659.18	79.8079	659.18	77.9914	659.18	79.3745	659.18	76.6726	659.18	78.6323	659.18	74.7553	659.18	77.4168	659.18	72.177	659.18	75.5825	659.18	69.4805	659.18	73.0725	659.18	68.9059	659.18	70.4303	659.18	70.7899	659.18	69.7727	659.18	72.6873	659.18	71.4135	659.18	73.7428	659.18	73.059	659.18	73.8667
682.617	82.2758	682.617	82.1364	682.617	82.2396	682.617	81.8497	682.617	82.0197	682.617	81.4572	682.617	81.6314	682.617	80.9992	682.617	81.1134	682.617	80.4981	682.617	80.5213	682.617	79.9528	682.617	79.9147	682.617	79.3491	682.617	79.3417	682.617	78.6661	682.617	78.818	682.617	77.8535	682.617	78.2958	682.617	76.7942	682.617	77.64	682.617	75.2947	682.617	76.6453	682.617	73.1404	682.617	75.0915	682.617	70.415	682.617	72.8648	682.617	68.8123	682.617	70.5075	682.617	70.2766	682.617	70.0943	682.617	72.4213	682.617	71.7861	682.617	73.7368	682.617	73.3668	682.617	74.0482
706.055	82.9542	706.055	82.6631	706.055	83.0159	706.055	82.1681	706.055	82.845	706.055	81.5297	706.055	82.4571	706.055	80.856	706.055	81.8951	706.055	80.2791	706.055	81.2395	706.055	79.8704	706.055	80.5955	706.055	79.5612	706.055	80.036	706.055	79.1769	706.055	79.532	706.055	78.5376	706.055	78.9452	706.055	77.4994	706.055	78.0834	706.055	75.9224	706.055	76.7383	706.055	73.6472	706.055	74.676	706.055	70.7871	706.055	71.6673	706.055	69.2034	706.055	68.3064	706.055	70.7912	706.055	68.4133	706.055	72.8633	706.055	71.2074	706.055	74.0156	706.055	73.2436	706.055	74.1464
732.422	82.8879	732.422	82.7682	732.422	82.8427	732.422	82.4946	732.422	82.622	732.422	82.0815	732.422	82.2234	732.422	81.5636	732.422	81.6686	732.422	81.0111	732.422	81.0192	732.422	80.5153	732.422	80.383	732.422	80.1164	732.422	79.8769	732.422	79.7201	732.422	79.5317	732.422	79.1015	732.422	79.2196	732.422	77.9916	732.422	78.6985	732.422	76.1449	732.422	77.7017	732.422	73.3843	732.422	75.9662	732.422	69.955	732.422	73.2254	732.422	68.2021	732.422	69.5467	732.422	69.8987	732.422	67.7584	732.422	71.958	732.422	70.0187	732.422	73.1009	732.422	72.1997	732.422	73.2031
758.789	82.6684	758.789	82.4163	758.789	82.7313	758.789	82.0012	758.789	82.586	758.789	81.4642	758.789	82.2225	758.789	80.8704	758.789	81.6545	758.789	80.3071	758.789	80.9422	758.789	79.86	758.789	80.2034	758.789	79.5707	758.789	79.5828	758.789	79.3905	758.789	79.1669	758.789	79.1497	758.789	78.8896	758.789	78.5674	758.789	78.5154	758.789	77.2936	758.789	77.7142	758.789	74.9462	758.789	76.1225	758.789	71.3568	758.789	73.3271	758.789	68.9908	758.789	69.1763	758.789	71.2994	758.789	67.7594	758.789	73.7707	758.789	71.2539	758.789	74.9864	758.789	73.8607	758.789	75.027
785.156	83.389	785.156	83.1235	785.156	83.3669	785.156	82.5755	785.156	83.0761	785.156	81.803	785.156	82.5437	785.156	80.9397	785.156	81.8133	785.156	80.1852	785.156	80.9782	785.156	79.7284	785.156	80.2044	785.156	79.6051	785.156	79.6669	785.156	79.63	785.156	79.4087	785.156	79.5137	785.156	79.3082	785.156	78.9976	785.156	79.1707	785.156	77.8583	785.156	78.7442	785.156	75.8267	785.156	77.6681	785.156	72.5874	785.156	75.4497	785.156	69.0788	785.156	71.4587	785.156	70.0959	785.156	66.6492	785.156	72.7314	785.156	68.854	785.156	73.9454	785.156	72.1616	785.156	73.7467
811.523	84.8073	811.523	84.5468	811.523	84.7802	811.523	83.9683	811.523	84.4844	811.523	83.0381	811.523	83.9279	811.523	81.7682	811.523	83.1127	811.523	80.3396	811.523	82.0647	811.523	79.244	811.523	80.9163	811.523	79.0007	811.523	80.0089	811.523	79.4298	811.523	79.7167	811.523	79.866	811.523	79.8961	811.523	79.7911	811.523	79.9603	811.523	78.8678	811.523	79.4614	811.523	76.7946	811.523	78.1978	811.523	73.3824	811.523	75.9947	811.523	70.6376	811.523	72.4504	811.523	72.9077	811.523	68.1069	811.523	75.6918	811.523	70.5058	811.523	76.9757	811.523	74.6287	811.523	76.6829
840.82	84.7833	840.82	84.5137	840.82	84.7747	840.82	83.9879	840.82	84.4776	840.82	83.2363	840.82	83.8959	840.82	82.2746	840.82	83.057	840.82	81.0906	840.82	82.0232	840.82	79.746	840.82	80.8967	840.82	78.6287	840.82	79.8325	840.82	78.3335	840.82	79.0802	840.82	78.6875	840.82	78.9124	840.82	78.8358	840.82	79.2342	840.82	78.1405	840.82	79.4867	840.82	76.1731	840.82	79.0761	840.82	72.4809	840.82	77.503	840.82	68.5745	840.82	74.1646	840.82	71.1998	840.82	69.1098	840.82	74.3889	840.82	70.2562	840.82	75.8128	840.82	74.0107	840.82	75.7233
870.117	84.7726	870.117	84.6216	870.117	84.7097	870.117	84.1691	870.117	84.4727	870.117	83.3194	870.117	84.0266	870.117	82.014	870.117	83.2641	870.117	80.2815	870.117	82.061	870.117	78.3271	870.117	80.3943	870.117	76.7282	870.117	78.5431	870.117	76.3324	870.117	77.2511	870.117	77.0621	870.117	77.1087	870.117	77.829	870.117	77.6574	870.117	77.7754	870.117	78.0965	870.117	76.3704	870.117	77.8708	870.117	73.0852	870.117	76.5237	870.117	68.6573	870.117	73.6394	870.117	70.8326	870.117	70.3152	870.117	74.4802	870.117	71.9226	870.117	76.1949	870.117	74.8908	870.117	76.3081
902.344	84.6268	902.344	84.3889	902.344	84.6309	902.344	83.9566	902.344	84.3897	902.344	83.3698	902.344	83.9242	902.344	82.6129	902.344	83.2733	902.344	81.5785	902.344	82.4485	902.344	80.1367	902.344	81.3823	902.344	78.3441	902.344	79.9616	902.344	76.7452	902.344	78.2475	902.344	76.1077	902.344	76.8237	902.344	76.1849	902.344	76.3874	902.344	75.9961	902.344	76.4828	902.344	74.7547	902.344	76.1445	902.344	71.5947	902.344	74.7267	902.344	65.5677	902.344	71.5857	902.344	68.2962	902.344	66.6047	902.344	73.3219	902.344	68.5582	902.344	75.3212	902.344	73.0674	902.344	75.1959
931.641	84.2862	931.641	84.1441	931.641	84.2658	931.641	83.7831	931.641	84.0918	931.641	83.1226	931.641	83.7221	931.641	82.1057	931.641	83.076	931.641	80.7445	931.641	82.0762	931.641	79.1298	931.641	80.721	931.641	77.4639	931.641	79.145	931.641	76.2816	931.641	77.6422	931.641	76.2819	931.641	76.7224	931.641	76.9976	931.641	76.8397	931.641	77.2172	931.641	77.4819	931.641	76.1832	931.641	77.5315	931.641	73.3454	931.641	76.1511	931.641	68.1403	931.641	72.6845	931.641	66.977	931.641	67.8755	931.641	71.5512	931.641	69.8758	931.641	73.9155	931.641	73.1362	931.641	74.3817
966.797	84.2497	966.797	84.0948	966.797	84.1176	966.797	83.6494	966.797	83.773	966.797	82.9799	966.797	83.3044	966.797	82.1505	966.797	82.7359	966.797	81.1192	966.797	81.9911	966.797	79.7256	966.797	80.9368	966.797	77.8545	966.797	79.4899	966.797	75.8222	966.797	77.7954	966.797	74.7495	966.797	76.413	966.797	75.1219	966.797	75.968	966.797	75.6266	966.797	76.2121	966.797	75.0861	966.797	76.1919	966.797	72.695	966.797	74.9446	966.797	67.4919	966.797	71.3497	966.797	67.0062	966.797	63.3059	966.797	72.1872	966.797	66.9422	966.797	74.4069	966.797	72.3394	966.797	74.4097
999.023	83.4523	999.023	83.3126	999.023	83.3999	999.023	83.0005	999.023	83.1388	999.023	82.4959	999.023	82.6854	999.023	81.7396	999.023	82.0729	999.023	80.6821	999.023	81.3076	999.023	79.3144	999.023	80.3295	999.023	77.6573	999.023	79.0024	999.023	75.8546	999.023	77.2037	999.023	74.5285	999.023	75.2057	999.023	74.3549	999.023	74.1612	999.023	74.5466	999.023	74.4574	999.023	73.8553	999.023	74.6835	999.023	71.4424	999.023	73.864	999.023	66.1563	999.023	71.3624	999.023	63.912	999.023	65.4137	999.023	70.0911	999.023	61.5061	999.023	72.9099	999.023	69.9584	999.023	72.9612
1,034.18	83.1238	1,034.18	82.9871	1,034.18	82.9606	1,034.18	82.5071	1,034.18	82.6403	1,034.18	81.7812	1,034.18	82.2954	1,034.18	80.9884	1,034.18	81.9039	1,034.18	80.1931	1,034.18	81.2571	1,034.18	79.1972	1,034.18	80.1082	1,034.18	77.6877	1,034.18	78.363	1,034.18	75.5943	1,034.18	76.2333	1,034.18	73.6739	1,034.18	74.2857	1,034.18	73.3765	1,034.18	73.1968	1,034.18	74.0726	1,034.18	73.3587	1,034.18	74.0148	1,034.18	74.1946	1,034.18	72.2829	1,034.18	74.3375	1,034.18	68.4114	1,034.18	72.476	1,034.18	66.289	1,034.18	67.0623	1,034.18	70.2085	1,034.18	66.0812	1,034.18	72.8513	1,034.18	71.5434	1,034.18	73.4013
1,072.27	82.8715	1,072.27	82.5163	1,072.27	82.8715	1,072.27	81.9668	1,072.27	82.489	1,072.27	81.3967	1,072.27	81.8266	1,072.27	80.7825	1,072.27	81.0552	1,072.27	79.8896	1,072.27	80.3041	1,072.27	78.5202	1,072.27	79.5273	1,072.27	76.7062	1,072.27	78.4736	1,072.27	74.6851	1,072.27	76.8529	1,072.27	72.8201	1,072.27	74.6731	1,072.27	71.7032	1,072.27	72.6928	1,072.27	71.4856	1,072.27	71.8859	1,072.27	71.0185	1,072.27	71.7481	1,072.27	68.7917	1,072.27	71.2711	1,072.27	63.047	1,072.27	69.6347	1,072.27	64.3654	1,072.27	65.2366	1,072.27	70.4375	1,072.27	61.8869	1,072.27	72.8587	1,072.27	69.327	1,072.27	72.5992
1,110.35	82.0832	1,110.35	81.8923	1,110.35	82.0141	1,110.35	81.4036	1,110.35	81.7724	1,110.35	80.6829	1,110.35	81.4206	1,110.35	79.8608	1,110.35	80.9335	1,110.35	78.9849	1,110.35	80.217	1,110.35	77.9387	1,110.35	79.2195	1,110.35	76.5423	1,110.35	77.9791	1,110.35	74.6599	1,110.35	76.5177	1,110.35	72.4435	1,110.35	74.7615	1,110.35	71.1791	1,110.35	72.8541	1,110.35	71.7741	1,110.35	71.9606	1,110.35	72.1769	1,110.35	72.6864	1,110.35	70.7381	1,110.35	73.0304	1,110.35	66.6447	1,110.35	71.2489	1,110.35	64.0989	1,110.35	65.6462	1,110.35	68.4483	1,110.35	62.5701	1,110.35	70.9489	1,110.35	68.923	1,110.35	71.1895
1,148.44	81.6515	1,148.44	81.1616	1,148.44	81.8937	1,148.44	80.5864	1,148.44	81.7526	1,148.44	79.9891	1,148.44	81.2061	1,148.44	79.3029	1,148.44	80.386	1,148.44	78.3761	1,148.44	79.5021	1,148.44	77.0249	1,148.44	78.5636	1,148.44	75.1691	1,148.44	77.3413	1,148.44	72.9817	1,148.44	75.7154	1,148.44	71.0346	1,148.44	73.9752	1,148.44	70.2914	1,148.44	72.7111	1,148.44	70.526	1,148.44	71.9255	1,148.44	69.9342	1,148.44	71.1996	1,148.44	66.601	1,148.44	70.4396	1,148.44	53.7222	1,148.44	68.7643	1,148.44	63.2426	1,148.44	63.2675	1,148.44	69.3879	1,148.44	53.0959	1,148.44	71.3745	1,148.44	67.3852	1,148.44	70.9329
1,189.45	81.0132	1,189.45	80.7656	1,189.45	81.1294	1,189.45	80.277	1,189.45	81.0637	1,189.45	79.4584	1,189.45	80.7114	1,189.45	78.4772	1,189.45	80.0078	1,189.45	77.5752	1,189.45	78.8991	1,189.45	76.6498	1,189.45	77.4548	1,189.45	75.4097	1,189.45	76.0113	1,189.45	73.6887	1,189.45	74.8223	1,189.45	71.5032	1,189.45	73.5753	1,189.45	69.7074	1,189.45	72.0161	1,189.45	69.7594	1,189.45	70.985	1,189.45	69.9759	1,189.45	71.1234	1,189.45	67.9548	1,189.45	71.2522	1,189.45	61.3093	1,189.45	70.0244	1,189.45	51.8887	1,189.45	65.7387	1,189.45	63.5681	1,189.45	56.1312	1,189.45	67.248	1,189.45	64.9635	1,189.45	68.0011
1,230.47	81.058	1,230.47	80.9675	1,230.47	80.9902	1,230.47	80.571	1,230.47	80.7124	1,230.47	79.7644	1,230.47	80.0154	1,230.47	78.6695	1,230.47	78.9063	1,230.47	77.5952	1,230.47	77.7842	1,230.47	76.7338	1,230.47	77.0098	1,230.47	75.9211	1,230.47	76.3649	1,230.47	74.6546	1,230.47	75.2104	1,230.47	72.4947	1,230.47	73.007	1,230.47	69.9276	1,230.47	70.2123	1,230.47	69.2083	1,230.47	69.7651	1,230.47	70.1525	1,230.47	71.3682	1,230.47	70.1911	1,230.47	72.0021	1,230.47	67.5157	1,230.47	70.7741	1,230.47	59.4007	1,230.47	66.6426	1,230.47	63.1838	1,230.47	53.5672	1,230.47	68.0329	1,230.47	64.5503	1,230.47	68.5361
1,274.41	83.3296	1,274.41	82.9368	1,274.41	83.2324	1,274.41	82.1485	1,274.41	82.6411	1,274.41	81.0648	1,274.41	81.6609	1,274.41	79.7841	1,274.41	80.5177	1,274.41	78.568	1,274.41	79.5083	1,274.41	77.7258	1,274.41	78.7548	1,274.41	77.1072	1,274.41	78.0641	1,274.41	76.2592	1,274.41	77.1547	1,274.41	74.997	1,274.41	75.8039	1,274.41	73.4816	1,274.41	73.9055	1,274.41	72.5609	1,274.41	72.2675	1,274.41	73.1759	1,274.41	72.6491	1,274.41	73.3837	1,274.41	73.407	1,274.41	70.5673	1,274.41	72.1265	1,274.41	59.1539	1,274.41	67.069	1,274.41	63.784	1,274.41	47.4382	1,274.41	69.4249	1,274.41	65.8884	1,274.41	69.6797
1,318.36	83.4483	1,318.36	83.2505	1,318.36	83.3571	1,318.36	82.6955	1,318.36	82.9454	1,318.36	81.7048	1,318.36	82.116	1,318.36	80.3614	1,318.36	80.8852	1,318.36	79.0612	1,318.36	79.5494	1,318.36	78.2259	1,318.36	78.5507	1,318.36	77.6773	1,318.36	77.9787	1,318.36	76.8346	1,318.36	77.3933	1,318.36	75.3428	1,318.36	76.1871	1,318.36	73.499	1,318.36	73.8854	1,318.36	72.9818	1,318.36	71.3053	1,318.36	74.3011	1,318.36	72.2461	1,318.36	74.7801	1,318.36	74.1286	1,318.36	72.4772	1,318.36	73.7597	1,318.36	64.1609	1,318.36	70.2574	1,318.36	60.4651	1,318.36	59.4393	1,318.36	68.3753	1,318.36	61.9498	1,318.36	68.3645
1,365.23	83.3904	1,365.23	83.0801	1,365.23	83.353	1,365.23	82.4914	1,365.23	82.9294	1,365.23	81.6021	1,365.23	82.1423	1,365.23	80.3842	1,365.23	81.0062	1,365.23	79.0746	1,365.23	79.5904	1,365.23	78.0776	1,365.23	78.218	1,365.23	77.3688	1,365.23	77.3249	1,365.23	76.436	1,365.23	76.8187	1,365.23	74.9209	1,365.23	76.0353	1,365.23	73.1324	1,365.23	74.2932	1,365.23	72.65	1,365.23	71.5117	1,365.23	73.9448	1,365.23	70.7052	1,365.23	74.5517	1,365.23	72.8377	1,365.23	72.7911	1,365.23	73.5838	1,365.23	66.8437	1,365.23	71.3494	1,365.23	56.1585	1,365.23	63.2859	1,365.23	65.8598	1,365.23	59.0511	1,365.23	66.6289
1,415.04	83.1579	1,415.04	82.7714	1,415.04	83.2214	1,415.04	82.1779	1,415.04	82.8903	1,415.04	81.3385	1,415.04	82.191	1,415.04	80.1093	1,415.04	81.2369	1,415.04	78.6885	1,415.04	80.1571	1,415.04	77.6525	1,415.04	78.9219	1,415.04	77.0326	1,415.04	77.5139	1,415.04	76.1479	1,415.04	76.3984	1,415.04	74.6695	1,415.04	75.847	1,415.04	72.7557	1,415.04	75.0821	1,415.04	71.4194	1,415.04	73.2513	1,415.04	72.8239	1,415.04	71.0531	1,415.04	74.138	1,415.04	71.5736	1,415.04	72.3152	1,415.04	72.7378	1,415.04	65.1389	1,415.04	71.4701	1,415.04	61.178	1,415.04	65.1873	1,415.04	67.6635	1,415.04	58.3577	1,415.04	67.4224
1,464.84	83.3652	1,464.84	83.0926	1,464.84	83.3264	1,464.84	82.5795	1,464.84	82.935	1,464.84	81.7085	1,464.84	82.3024	1,464.84	80.3863	1,464.84	81.5082	1,464.84	78.9184	1,464.84	80.4775	1,464.84	77.7335	1,464.84	79.1354	1,464.84	76.7473	1,464.84	77.6377	1,464.84	75.6644	1,464.84	76.4375	1,464.84	74.4987	1,464.84	75.7715	1,464.84	72.9979	1,464.84	74.9802	1,464.84	71.3055	1,464.84	73.2024	1,464.84	71.8247	1,464.84	70.9581	1,464.84	72.948	1,464.84	71.2984	1,464.84	71.6715	1,464.84	72.6025	1,464.84	66.9071	1,464.84	71.6906	1,464.84	62.5665	1,464.84	66.5786	1,464.84	67.0602	1,464.84	57.0782	1,464.84	66.7873
1,514.65	83.6645	1,514.65	83.3252	1,514.65	83.6516	1,514.65	82.6453	1,514.65	83.3381	1,514.65	81.6628	1,514.65	82.783	1,514.65	80.5219	1,514.65	81.9047	1,514.65	79.3431	1,514.65	80.6834	1,514.65	78.0496	1,514.65	79.4162	1,514.65	76.7297	1,514.65	78.3085	1,514.65	75.2726	1,514.65	77.156	1,514.65	73.6649	1,514.65	75.974	1,514.65	72.3267	1,514.65	74.7385	1,514.65	71.2453	1,514.65	72.7867	1,514.65	71.2228	1,514.65	71.098	1,514.65	72.276	1,514.65	72.0223	1,514.65	71.6418	1,514.65	73.1726	1,514.65	66.9763	1,514.65	72.4785	1,514.65	59.4757	1,514.65	68.5088	1,514.65	66.7346	1,514.65	59.8978	1,514.65	66.3302
1,570.31	83.6722	1,570.31	83.3981	1,570.31	83.659	1,570.31	82.716	1,570.31	83.3775	1,570.31	81.7492	1,570.31	82.7283	1,570.31	80.7848	1,570.31	81.7044	1,570.31	79.6965	1,570.31	80.4536	1,570.31	78.2093	1,570.31	79.2433	1,570.31	76.5636	1,570.31	78.2001	1,570.31	75.1997	1,570.31	76.9502	1,570.31	74.204	1,570.31	75.2467	1,570.31	73.092	1,570.31	73.7521	1,570.31	71.2536	1,570.31	72.5475	1,570.31	70.4684	1,570.31	71.0659	1,570.31	71.779	1,570.31	71.2702	1,570.31	71.3429	1,570.31	73.0627	1,570.31	67.0274	1,570.31	72.8654	1,570.31	60.9291	1,570.31	68.8802	1,570.31	66.1731	1,570.31	59.9479	1,570.31	65.7238
1,623.05	82.938	1,623.05	82.6321	1,623.05	82.9425	1,623.05	82.1334	1,623.05	82.6214	1,623.05	81.5193	1,623.05	81.9817	1,623.05	80.656	1,623.05	81.0181	1,623.05	79.3615	1,623.05	79.752	1,623.05	77.7325	1,623.05	78.3612	1,623.05	76.2335	1,623.05	77.2236	1,623.05	75.3025	1,623.05	76.2628	1,623.05	74.615	1,623.05	74.8925	1,623.05	73.407	1,623.05	73.2452	1,623.05	71.5157	1,623.05	71.981	1,623.05	70.2517	1,623.05	70.6365	1,623.05	71.3777	1,623.05	70.2172	1,623.05	72.0017	1,623.05	71.8823	1,623.05	69.0673	1,623.05	72.0728	1,623.05	60.5669	1,623.05	68.8228	1,623.05	64.5809	1,623.05	61.5238	1,623.05	64.779
1,681.64	82.0197	1,681.64	81.7395	1,681.64	82.1623	1,681.64	81.3762	1,681.64	82.0184	1,681.64	80.7894	1,681.64	81.5512	1,681.64	79.8011	1,681.64	80.8362	1,681.64	78.4794	1,681.64	79.8344	1,681.64	77.0916	1,681.64	78.4237	1,681.64	75.6602	1,681.64	76.8735	1,681.64	74.2065	1,681.64	75.7862	1,681.64	73.2319	1,681.64	74.8923	1,681.64	72.3338	1,681.64	73.6704	1,681.64	70.3643	1,681.64	72.2663	1,681.64	68.9546	1,681.64	70.4912	1,681.64	70.3867	1,681.64	69.3091	1,681.64	70.9058	1,681.64	71.2106	1,681.64	68.5586	1,681.64	72.2693	1,681.64	63.8524	1,681.64	70.0395	1,681.64	65.249	1,681.64	63.8699	1,681.64	64.562
1,740.23	82.2859	1,740.23	82.093	1,740.23	82.2733	1,740.23	81.7042	1,740.23	82.136	1,740.23	81.125	1,740.23	81.9312	1,740.23	80.2524	1,740.23	81.5242	1,740.23	78.902	1,740.23	80.6823	1,740.23	77.1336	1,740.23	79.2923	1,740.23	75.5843	1,740.23	77.5724	1,740.23	74.515	1,740.23	76.0815	1,740.23	73.1435	1,740.23	75.0812	1,740.23	71.3255	1,740.23	74.1075	1,740.23	69.3379	1,740.23	72.6871	1,740.23	67.9092	1,740.23	70.6434	1,740.23	69.2173	1,740.23	68.8244	1,740.23	69.7036	1,740.23	70.1774	1,740.23	66.7596	1,740.23	71.8537	1,740.23	64.4303	1,740.23	70.4179	1,740.23	67.0608	1,740.23	65.8221	1,740.23	66.6227
1,801.76	82.8155	1,801.76	82.5088	1,801.76	82.7833	1,801.76	82.026	1,801.76	82.4813	1,801.76	81.5302	1,801.76	82.0613	1,801.76	80.8196	1,801.76	81.5921	1,801.76	79.6127	1,801.76	80.8708	1,801.76	77.9992	1,801.76	79.4969	1,801.76	76.3828	1,801.76	77.5166	1,801.76	74.8827	1,801.76	75.9668	1,801.76	73.3724	1,801.76	75.2757	1,801.76	72.0523	1,801.76	74.1446	1,801.76	70.6863	1,801.76	72.4403	1,801.76	69.2659	1,801.76	71.093	1,801.76	69.6041	1,801.76	69.7314	1,801.76	70.145	1,801.76	69.9304	1,801.76	67.3559	1,801.76	70.9141	1,801.76	60.9588	1,801.76	68.9353	1,801.76	65.0071	1,801.76	64.3221	1,801.76	65.5696
1,866.21	82.2577	1,866.21	82.1313	1,866.21	82.149	1,866.21	81.6995	1,866.21	81.8619	1,866.21	81.1456	1,866.21	81.3777	1,866.21	80.5716	1,866.21	80.787	1,866.21	79.7794	1,866.21	79.9844	1,866.21	78.6492	1,866.21	78.7692	1,866.21	77.2868	1,866.21	77.3256	1,866.21	75.7913	1,866.21	75.887	1,866.21	73.9877	1,866.21	74.1608	1,866.21	72.6754	1,866.21	71.8241	1,866.21	72.2522	1,866.21	71.1583	1,866.21	71.1145	1,866.21	71.7621	1,866.21	71.3278	1,866.21	70.3283	1,866.21	72.0642	1,866.21	70.8015	1,866.21	69.684	1,866.21	71.889	1,866.21	65.382	1,866.21	69.3852	1,866.21	66.8392	1,866.21	64.1533	1,866.21	65.7925
1,930.66	81.3926	1,930.66	81.1405	1,930.66	81.4665	1,930.66	80.9251	1,930.66	81.323	1,930.66	80.379	1,930.66	81.0944	1,930.66	79.4105	1,930.66	80.574	1,930.66	78.6652	1,930.66	79.8802	1,930.66	78.003	1,930.66	79.3026	1,930.66	76.8085	1,930.66	78.0743	1,930.66	75.2816	1,930.66	75.8435	1,930.66	73.413	1,930.66	73.7222	1,930.66	71.3604	1,930.66	72.0218	1,930.66	71.0713	1,930.66	70.6756	1,930.66	70.6659	1,930.66	71.4101	1,930.66	70.2005	1,930.66	70.2857	1,930.66	71.5373	1,930.66	67.4225	1,930.66	69.8895	1,930.66	68.4313	1,930.66	63.7503	1,930.66	68.5863	1,930.66	67.0661	1,930.66	64.9698	1,930.66	66.697
2,000.98	82.4226	2,000.98	82.0935	2,000.98	82.2303	2,000.98	81.6334	2,000.98	81.8729	2,000.98	80.9463	2,000.98	81.7826	2,000.98	80.1773	2,000.98	81.4188	2,000.98	79.6053	2,000.98	80.8824	2,000.98	78.4654	2,000.98	80.6109	2,000.98	76.7767	2,000.98	79.5817	2,000.98	75.5058	2,000.98	77.4944	2,000.98	74.1031	2,000.98	76.2055	2,000.98	71.8103	2,000.98	75.4108	2,000.98	69.7082	2,000.98	73.1459	2,000.98	66.8971	2,000.98	71.2584	2,000.98	69.4205	2,000.98	69.9359	2,000.98	72.5581	2,000.98	69.3631	2,000.98	70.2135	2,000.98	71.723	2,000.98	63.5397	2,000.98	70.9273	2,000.98	66.1719	2,000.98	65.4226	2,000.98	66.6545
2,071.29	82.7821	2,071.29	82.8285	2,071.29	82.7706	2,071.29	82.5264	2,071.29	82.6511	2,071.29	82.0133	2,071.29	82.2535	2,071.29	81.6909	2,071.29	81.848	2,071.29	80.8586	2,071.29	81.3696	2,071.29	78.7859	2,071.29	80.366	2,071.29	76.6922	2,071.29	78.7077	2,071.29	76.0173	2,071.29	77.236	2,071.29	74.5229	2,071.29	76.7662	2,071.29	70.7666	2,071.29	75.5022	2,071.29	70.0803	2,071.29	72.9903	2,071.29	70.5398	2,071.29	71.9036	2,071.29	70.2315	2,071.29	70.896	2,071.29	73.0937	2,071.29	71.6485	2,071.29	71.6768	2,071.29	74.5991	2,071.29	60.3351	2,071.29	73.305	2,071.29	65.14	2,071.29	67.51	2,071.29	66.7407
2,144.53	82.5873	2,144.53	82.493	2,144.53	82.2186	2,144.53	81.9963	2,144.53	81.9051	2,144.53	81.079	2,144.53	81.8214	2,144.53	80.2119	2,144.53	80.9686	2,144.53	80.0678	2,144.53	79.78	2,144.53	79.4269	2,144.53	79.3848	2,144.53	77.517	2,144.53	78.2616	2,144.53	75.9124	2,144.53	75.5877	2,144.53	75.0356	2,144.53	74.9156	2,144.53	73.3592	2,144.53	75.0421	2,144.53	72.0573	2,144.53	71.66	2,144.53	70.5272	2,144.53	68.9277	2,144.53	67.9202	2,144.53	68.8433	2,144.53	72.6062	2,144.53	68.6293	2,144.53	73.3662	2,144.53	72.7174	2,144.53	68.9697	2,144.53	72.1752	2,144.53	68.1181	2,144.53	67.8551	2,144.53	70.0884
2,217.77	81.7127	2,217.77	81.7687	2,217.77	82.0077	2,217.77	81.7654	2,217.77	82.255	2,217.77	80.8542	2,217.77	82.1157	2,217.77	79.8343	2,217.77	81.5182	2,217.77	79.8078	2,217.77	80.3266	2,217.77	79.0339	2,217.77	79.4278	2,217.77	76.406	2,217.77	78.9492	2,217.77	74.7743	2,217.77	77.0648	2,217.77	75.6527	2,217.77	74.2687	2,217.77	73.8957	2,217.77	74.1721	2,217.77	72.3974	2,217.77	73.0759	2,217.77	73.1937	2,217.77	70.0785	2,217.77	70.1643	2,217.77	68.9773	2,217.77	72.1339	2,217.77	64.289	2,217.77	71.7435	2,217.77	68.9951	2,217.77	66.3912	2,217.77	69.8796	2,217.77	67.8144	2,217.77	60.0753	2,217.77	67.7233
2,296.88	83.4474	2,296.88	83.2011	2,296.88	83.4654	2,296.88	82.8563	2,296.88	83.5051	2,296.88	82.7478	2,296.88	83.794	2,296.88	82.2353	2,296.88	83.4905	2,296.88	80.5802	2,296.88	81.986	2,296.88	79.4163	2,296.88	80.4755	2,296.88	78.3061	2,296.88	80.1565	2,296.88	74.8955	2,296.88	79.1297	2,296.88	73.2773	2,296.88	76.6043	2,296.88	71.1049	2,296.88	75.1136	2,296.88	68.532	2,296.88	74.4454	2,296.88	71.951	2,296.88	73.0815	2,296.88	69.3022	2,296.88	72.1383	2,296.88	71.7282	2,296.88	68.6359	2,296.88	73.7002	2,296.88	68.3435	2,296.88	67.4571	2,296.88	71.3131	2,296.88	67.6057	2,296.88	65.6126	2,296.88	66.5062
2,378.91	83.7047	2,378.91	83.7845	2,378.91	83.8445	2,378.91	83.8629	2,378.91	83.7373	2,378.91	83.8888	2,378.91	83.4271	2,378.91	83.0335	2,378.91	83.4524	2,378.91	81.5974	2,378.91	82.8742	2,378.91	81.0466	2,378.91	81.2653	2,378.91	80.0336	2,378.91	79.8578	2,378.91	77.3834	2,378.91	78.4594	2,378.91	75.786	2,378.91	76.1716	2,378.91	75.0436	2,378.91	75.2093	2,378.91	69.7966	2,378.91	74.6067	2,378.91	67.878	2,378.91	72.2722	2,378.91	67.674	2,378.91	73.3319	2,378.91	63.8173	2,378.91	71.7739	2,378.91	70.7478	2,378.91	69.6867	2,378.91	68.0397	2,378.91	71.7819	2,378.91	68.7344	2,378.91	67.6698	2,378.91	68.1712
2,460.94	83.2457	2,460.94	83.3457	2,460.94	83.2395	2,460.94	83.495	2,460.94	83.2123	2,460.94	83.669	2,460.94	83.2365	2,460.94	83.3861	2,460.94	83.3844	2,460.94	82.2692	2,460.94	82.8826	2,460.94	80.9633	2,460.94	81.4016	2,460.94	79.6969	2,460.94	79.8209	2,460.94	77.4912	2,460.94	78.4142	2,460.94	75.779	2,460.94	76.2195	2,460.94	75.1293	2,460.94	74.9041	2,460.94	72.9582	2,460.94	74.4298	2,460.94	73.032	2,460.94	70.829	2,460.94	72.7538	2,460.94	70.9543	2,460.94	70.5981	2,460.94	72.0354	2,460.94	71.2446	2,460.94	71.1513	2,460.94	65.7968	2,460.94	72.1202	2,460.94	67.1175	2,460.94	67.0405	2,460.94	66.3184
2,548.83	83.2513	2,548.83	83.3978	2,548.83	83.2499	2,548.83	83.3278	2,548.83	83.633	2,548.83	83.3962	2,548.83	83.8781	2,548.83	83.2594	2,548.83	83.8291	2,548.83	82.0353	2,548.83	83.536	2,548.83	80.2618	2,548.83	82.5017	2,548.83	78.9048	2,548.83	80.6757	2,548.83	76.8695	2,548.83	79.0909	2,548.83	74.7478	2,548.83	77.0923	2,548.83	74.1318	2,548.83	74.6908	2,548.83	72.071	2,548.83	74.1061	2,548.83	71.8566	2,548.83	71.9072	2,548.83	72.1228	2,548.83	70.4509	2,548.83	71.212	2,548.83	71.2827	2,548.83	72.496	2,548.83	70.1708	2,548.83	68.3621	2,548.83	71.5388	2,548.83	65.7573	2,548.83	67.4482	2,548.83	66.0961
2,639.65	83.6846	2,639.65	83.799	2,639.65	83.8225	2,639.65	83.8587	2,639.65	84.1966	2,639.65	83.7885	2,639.65	84.3234	2,639.65	83.5048	2,639.65	84.1428	2,639.65	82.4619	2,639.65	83.9133	2,639.65	80.7425	2,639.65	82.9528	2,639.65	79.185	2,639.65	81.1148	2,639.65	77.2703	2,639.65	79.5397	2,639.65	74.7943	2,639.65	77.6891	2,639.65	73.7966	2,639.65	74.8594	2,639.65	71.5943	2,639.65	73.6635	2,639.65	70.489	2,639.65	72.5148	2,639.65	71.9436	2,639.65	71.2946	2,639.65	69.4169	2,639.65	71.7867	2,639.65	70.4557	2,639.65	69.9296	2,639.65	67.7677	2,639.65	71.2469	2,639.65	67.4464	2,639.65	68.6886	2,639.65	67.1468
2,733.4	82.8549	2,733.4	83.3724	2,733.4	83.109	2,733.4	83.8753	2,733.4	83.8476	2,733.4	83.71	2,733.4	84.1659	2,733.4	83.1786	2,733.4	83.8273	2,733.4	82.2948	2,733.4	83.18	2,733.4	80.6379	2,733.4	82.2039	2,733.4	78.8735	2,733.4	80.6898	2,733.4	77.3109	2,733.4	79.001	2,733.4	74.965	2,733.4	77.3026	2,733.4	73.2667	2,733.4	75.163	2,733.4	72.0199	2,733.4	73.886	2,733.4	70.8713	2,733.4	73.0067	2,733.4	72.7682	2,733.4	71.797	2,733.4	71.9665	2,733.4	71.6784	2,733.4	71.909	2,733.4	70.2363	2,733.4	70.0176	2,733.4	70.9498	2,733.4	67.0741	2,733.4	68.3776	2,733.4	67.2551
2,827.15	82.581	2,827.15	83.1766	2,827.15	82.6189	2,827.15	83.763	2,827.15	83.3416	2,827.15	83.6731	2,827.15	84.091	2,827.15	83.0672	2,827.15	84.0417	2,827.15	82.0312	2,827.15	83.3429	2,827.15	80.3961	2,827.15	82.2342	2,827.15	78.355	2,827.15	80.5808	2,827.15	76.3967	2,827.15	78.8283	2,827.15	74.067	2,827.15	77.1874	2,827.15	72.2021	2,827.15	75.0467	2,827.15	71.6717	2,827.15	73.109	2,827.15	70.8105	2,827.15	71.5204	2,827.15	72.2053	2,827.15	71.3493	2,827.15	70.785	2,827.15	73.2342	2,827.15	69.3094	2,827.15	71.9831	2,827.15	68.1419	2,827.15	71.6737	2,827.15	67.5828	2,827.15	69.4798	2,827.15	66.7225
2,926.76	82.229	2,926.76	82.6706	2,926.76	82.2663	2,926.76	83.288	2,926.76	82.9421	2,926.76	83.4544	2,926.76	83.629	2,926.76	82.7368	2,926.76	83.7028	2,926.76	81.5546	2,926.76	83.0663	2,926.76	80.1686	2,926.76	81.6563	2,926.76	78.2927	2,926.76	79.8866	2,926.76	76.249	2,926.76	78.2711	2,926.76	74.2042	2,926.76	76.5981	2,926.76	72.0358	2,926.76	74.5158	2,926.76	70.9814	2,926.76	72.9622	2,926.76	70.1579	2,926.76	71.5902	2,926.76	70.6314	2,926.76	70.2775	2,926.76	71.1299	2,926.76	71.6954	2,926.76	70.3913	2,926.76	71.4809	2,926.76	68.2647	2,926.76	71.1987	2,926.76	66.9965	2,926.76	68.1479	2,926.76	66.2184
3,032.23	82.0862	3,032.23	82.4632	3,032.23	82.4216	3,032.23	83.2092	3,032.23	83.0114	3,032.23	83.197	3,032.23	83.6295	3,032.23	82.2846	3,032.23	83.6049	3,032.23	80.7175	3,032.23	82.7536	3,032.23	79.1631	3,032.23	81.7175	3,032.23	77.7374	3,032.23	80.1597	3,032.23	75.622	3,032.23	78.0056	3,032.23	72.8156	3,032.23	76.0127	3,032.23	71.1863	3,032.23	73.722	3,032.23	70.7488	3,032.23	72.2505	3,032.23	69.3461	3,032.23	71.514	3,032.23	69.8751	3,032.23	68.8054	3,032.23	69.4484	3,032.23	69.8195	3,032.23	69.8269	3,032.23	69.5619	3,032.23	66.7776	3,032.23	69.7531	3,032.23	65.3171	3,032.23	68.63	3,032.23	64.982
3,137.7	82.0814	3,137.7	82.4827	3,137.7	81.9656	3,137.7	82.7936	3,137.7	82.5912	3,137.7	83.1199	3,137.7	83.3911	3,137.7	82.726	3,137.7	83.4715	3,137.7	81.1802	3,137.7	83.0118	3,137.7	79.2907	3,137.7	81.837	3,137.7	77.3798	3,137.7	79.9392	3,137.7	75.7597	3,137.7	77.7772	3,137.7	73.1775	3,137.7	75.603	3,137.7	70.0278	3,137.7	73.7676	3,137.7	69.3317	3,137.7	71.5141	3,137.7	68.5941	3,137.7	70.5715	3,137.7	70.0187	3,137.7	70.3937	3,137.7	70.6793	3,137.7	71.3315	3,137.7	70.0982	3,137.7	70.3676	3,137.7	67.4322	3,137.7	69.6993	3,137.7	63.3443	3,137.7	68.04	3,137.7	64.0606
3,249.02	81.5414	3,249.02	82.2136	3,249.02	81.4787	3,249.02	82.6858	3,249.02	82.4057	3,249.02	82.9122	3,249.02	82.9419	3,249.02	82.2105	3,249.02	83.097	3,249.02	81.0483	3,249.02	82.6997	3,249.02	79.5129	3,249.02	81.2737	3,249.02	77.2118	3,249.02	79.5831	3,249.02	75.1547	3,249.02	77.5941	3,249.02	73.2362	3,249.02	75.3998	3,249.02	71.1176	3,249.02	73.4337	3,249.02	70.6395	3,249.02	71.8191	3,249.02	70.0617	3,249.02	71.0315	3,249.02	71.1418	3,249.02	68.9092	3,249.02	70.65	3,249.02	69.0403	3,249.02	69.7196	3,249.02	69.6921	3,249.02	68.6096	3,249.02	69.3948	3,249.02	58.8817	3,249.02	68.0881	3,249.02	61.5639
3,363.28	81.1587	3,363.28	81.7766	3,363.28	81.3983	3,363.28	82.5084	3,363.28	81.8997	3,363.28	82.383	3,363.28	82.1494	3,363.28	81.4552	3,363.28	82.5012	3,363.28	80.4117	3,363.28	82.2791	3,363.28	78.9848	3,363.28	81.1645	3,363.28	77.0565	3,363.28	79.1404	3,363.28	74.5337	3,363.28	76.8931	3,363.28	72.5381	3,363.28	74.993	3,363.28	70.1793	3,363.28	72.5478	3,363.28	69.06	3,363.28	70.5345	3,363.28	68.1078	3,363.28	70.1446	3,363.28	68.1285	3,363.28	69.1012	3,363.28	67.9681	3,363.28	69.7227	3,363.28	68.002	3,363.28	69.6068	3,363.28	68.807	3,363.28	68.7877	3,363.28	61.9714	3,363.28	67.9184	3,363.28	61.1559
3,483.4	81.1987	3,483.4	81.7222	3,483.4	81.2649	3,483.4	82.1353	3,483.4	82.0497	3,483.4	82.1328	3,483.4	82.827	3,483.4	81.4237	3,483.4	82.6199	3,483.4	79.644	3,483.4	81.8061	3,483.4	77.8787	3,483.4	80.8488	3,483.4	75.9206	3,483.4	79.5532	3,483.4	74.217	3,483.4	77.782	3,483.4	72.9042	3,483.4	75.4666	3,483.4	70.4899	3,483.4	73.4906	3,483.4	68.8086	3,483.4	70.4644	3,483.4	68.5001	3,483.4	70.0713	3,483.4	69.156	3,483.4	70.2457	3,483.4	68.5794	3,483.4	71.1828	3,483.4	66.9229	3,483.4	70.4146	3,483.4	67.6054	3,483.4	69.3171	3,483.4	62.5054	3,483.4	68.4981	3,483.4	61.2522
3,606.45	81.3955	3,606.45	81.6379	3,606.45	81.1846	3,606.45	81.85	3,606.45	81.7349	3,606.45	82.2548	3,606.45	82.0642	3,606.45	81.4939	3,606.45	82.212	3,606.45	80.2383	3,606.45	81.8833	3,606.45	78.6778	3,606.45	80.5214	3,606.45	76.6027	3,606.45	78.8309	3,606.45	74.5173	3,606.45	76.6181	3,606.45	72.5962	3,606.45	74.3485	3,606.45	70.2162	3,606.45	72.7968	3,606.45	68.6151	3,606.45	70.7716	3,606.45	67.8359	3,606.45	68.9308	3,606.45	70.4356	3,606.45	67.5247	3,606.45	70.9408	3,606.45	68.0075	3,606.45	68.8165	3,606.45	69.2359	3,606.45	68.2898	3,606.45	68.2163	3,606.45	56.0654	3,606.45	68.3043	3,606.45	56.6162
3,732.42	80.7114	3,732.42	81.4181	3,732.42	81.0189	3,732.42	82.02	3,732.42	81.2722	3,732.42	81.4081	3,732.42	81.7202	3,732.42	80.7697	3,732.42	82.0451	3,732.42	80.1675	3,732.42	81.5297	3,732.42	78.8956	3,732.42	80.84	3,732.42	77.0403	3,732.42	79.4739	3,732.42	73.9583	3,732.42	77.5177	3,732.42	71.4497	3,732.42	75.2784	3,732.42	69.3691	3,732.42	73.4918	3,732.42	68.4851	3,732.42	71.168	3,732.42	65.7299	3,732.42	69.5253	3,732.42	68.4579	3,732.42	67.967	3,732.42	70.1684	3,732.42	67.5924	3,732.42	68.3873	3,732.42	69.1826	3,732.42	69.6726	3,732.42	69.0877	3,732.42	58.6119	3,732.42	69.3117	3,732.42	61.0278
3,864.26	81.2495	3,864.26	81.2702	3,864.26	81.2734	3,864.26	81.4394	3,864.26	81.5245	3,864.26	81.6079	3,864.26	81.8522	3,864.26	81.2548	3,864.26	81.8969	3,864.26	79.9753	3,864.26	81.5734	3,864.26	78.9536	3,864.26	80.5227	3,864.26	77.2533	3,864.26	79.306	3,864.26	75.1992	3,864.26	77.6369	3,864.26	73.6195	3,864.26	75.1723	3,864.26	70.679	3,864.26	73.1379	3,864.26	67.9718	3,864.26	69.9641	3,864.26	67.1224	3,864.26	69.4188	3,864.26	63.6591	3,864.26	69.7688	3,864.26	67.7818	3,864.26	69.5355	3,864.26	67.6219	3,864.26	69.8339	3,864.26	68.1225	3,864.26	68.5976	3,864.26	62.4756	3,864.26	68.7799	3,864.26	61.4293
3,999.02	81.9173	3,999.02	81.0936	3,999.02	81.8185	3,999.02	80.2051	3,999.02	81.686	3,999.02	81.1482	3,999.02	81.5014	3,999.02	81.4407	3,999.02	81.8207	3,999.02	80.5575	3,999.02	81.785	3,999.02	78.7537	3,999.02	80.8217	3,999.02	76.4799	3,999.02	79.4384	3,999.02	74.4691	3,999.02	77.4844	3,999.02	72.9262	3,999.02	75.1728	3,999.02	70.7183	3,999.02	72.8246	3,999.02	68.2471	3,999.02	70.5633	3,999.02	67.0386	3,999.02	69.1602	3,999.02	66.8988	3,999.02	68.3783	3,999.02	69.0647	3,999.02	68.2913	3,999.02	69.0408	3,999.02	70.5294	3,999.02	68.7486	3,999.02	69.2685	3,999.02	58.8303	3,999.02	68.7338	3,999.02	58.4799
4,139.65	81.4507	4,139.65	80.8884	4,139.65	81.8797	4,139.65	81.2252	4,139.65	80.6819	4,139.65	80.9086	4,139.65	80.8526	4,139.65	80.8396	4,139.65	81.74	4,139.65	80.8492	4,139.65	81.5719	4,139.65	80.0212	4,139.65	81.1811	4,139.65	78.1726	4,139.65	79.7874	4,139.65	74.7192	4,139.65	77.4533	4,139.65	71.6899	4,139.65	74.3701	4,139.65	70.4689	4,139.65	73.2003	4,139.65	68.697	4,139.65	70.4224	4,139.65	67.9113	4,139.65	68.4104	4,139.65	64.5313	4,139.65	68.3747	4,139.65	68.6541	4,139.65	66.7286	4,139.65	68.3149	4,139.65	68.1025	4,139.65	68.6984	4,139.65	68.0171	4,139.65	60.4426	4,139.65	67.9284	4,139.65	60.8569
4,286.13	82.4785	4,286.13	81.9519	4,286.13	81.8442	4,286.13	81.2534	4,286.13	81.7826	4,286.13	81.9562	4,286.13	81.23	4,286.13	81.8734	4,286.13	80.8564	4,286.13	80.5852	4,286.13	81.7625	4,286.13	79.0453	4,286.13	81.3846	4,286.13	77.3694	4,286.13	80.3071	4,286.13	75.5776	4,286.13	78.1751	4,286.13	73.1843	4,286.13	75.8778	4,286.13	70.3502	4,286.13	73.8683	4,286.13	68.62	4,286.13	71.0984	4,286.13	67.5342	4,286.13	68.312	4,286.13	67.723	4,286.13	67.5899	4,286.13	67.2206	4,286.13	64.7996	4,286.13	68.3084	4,286.13	68.7234	4,286.13	67.0226	4,286.13	68.626	4,286.13	56.4449	4,286.13	67.6791	4,286.13	52.8124
4,438.48	82.4357	4,438.48	80.8517	4,438.48	82.8815	4,438.48	79.833	4,438.48	81.1023	4,438.48	80.2265	4,438.48	80.4243	4,438.48	81.2705	4,438.48	81.7196	4,438.48	81.1671	4,438.48	81.7728	4,438.48	79.7668	4,438.48	81.1628	4,438.48	78.1003	4,438.48	79.7309	4,438.48	75.7565	4,438.48	77.5854	4,438.48	73.5463	4,438.48	74.52	4,438.48	71.5633	4,438.48	72.6034	4,438.48	67.7041	4,438.48	70.0295	4,438.48	65.3344	4,438.48	66.8393	4,438.48	63.6225	4,438.48	67.807	4,438.48	69.343	4,438.48	65.5137	4,438.48	68.1518	4,438.48	67.6807	4,438.48	68.8176	4,438.48	67.1131	4,438.48	52.2225	4,438.48	67.8	4,438.48	52.8706
4,593.75	82.6498	4,593.75	81.7417	4,593.75	82.3356	4,593.75	81.1895	4,593.75	81.5672	4,593.75	81.592	4,593.75	81.0644	4,593.75	81.6209	4,593.75	81.0641	4,593.75	81.1723	4,593.75	82.018	4,593.75	80.0479	4,593.75	81.7625	4,593.75	77.4847	4,593.75	80.6112	4,593.75	74.2212	4,593.75	78.1759	4,593.75	71.0917	4,593.75	75.3529	4,593.75	69.6892	4,593.75	73.1506	4,593.75	67.5133	4,593.75	71.1716	4,593.75	65.5207	4,593.75	68.7377	4,593.75	66.7169	4,593.75	67.3816	4,593.75	68.4802	4,593.75	65.5295	4,593.75	68.0463	4,593.75	69.2617	4,593.75	65.4142	4,593.75	69.5298	4,593.75	50.9741	4,593.75	66.9383	4,593.75	47.166
4,757.81	82.7774	4,757.81	81.0789	4,757.81	83.0169	4,757.81	79.9203	4,757.81	81.4094	4,757.81	80.7048	4,757.81	80.3668	4,757.81	81.6093	4,757.81	81.6607	4,757.81	80.9717	4,757.81	82.069	4,757.81	78.6569	4,757.81	81.3452	4,757.81	76.9177	4,757.81	80.0434	4,757.81	75.2682	4,757.81	77.8674	4,757.81	72.7704	4,757.81	74.9457	4,757.81	69.6642	4,757.81	72.3229	4,757.81	67.15	4,757.81	70.1967	4,757.81	65.3107	4,757.81	66.9789	4,757.81	61.4901	4,757.81	66.4956	4,757.81	67.5292	4,757.81	65.1699	4,757.81	66.7134	4,757.81	68.9452	4,757.81	66.8441	4,757.81	67.7827	4,757.81	48.8865	4,757.81	67.7034	4,757.81	49.2346
4,924.8	82.4564	4,924.8	81.5386	4,924.8	82.2912	4,924.8	80.7756	4,924.8	81.1116	4,924.8	80.7652	4,924.8	80.4342	4,924.8	81.011	4,924.8	80.6705	4,924.8	80.4634	4,924.8	81.5018	4,924.8	79.2125	4,924.8	81.0827	4,924.8	76.6422	4,924.8	79.2474	4,924.8	73.168	4,924.8	76.5713	4,924.8	70.0355	4,924.8	74.5437	4,924.8	68.0728	4,924.8	72.3835	4,924.8	65.9713	4,924.8	69.8154	4,924.8	63.6975	4,924.8	66.9318	4,924.8	64.1803	4,924.8	65.9769	4,924.8	67.4658	4,924.8	65.4929	4,924.8	66.7671	4,924.8	69.2783	4,924.8	64.4755	4,924.8	68.0528	4,924.8	52.617	4,924.8	66.0046	4,924.8	44.7296
5,097.66	82.4912	5,097.66	80.9306	5,097.66	82.536	5,097.66	79.9956	5,097.66	81.3498	5,097.66	80.3813	5,097.66	80.6691	5,097.66	80.4989	5,097.66	80.9989	5,097.66	79.6579	5,097.66	81.0489	5,097.66	77.9035	5,097.66	80.2603	5,097.66	75.4784	5,097.66	79.0051	5,097.66	72.7866	5,097.66	77.2248	5,097.66	70.5365	5,097.66	73.7899	5,097.66	69.2946	5,097.66	70.4143	5,097.66	66.4035	5,097.66	69.6404	5,097.66	61.3876	5,097.66	66.933	5,097.66	60.6359	5,097.66	62.3988	5,097.66	67.1732	5,097.66	61.6306	5,097.66	66.1812	5,097.66	67.8313	5,097.66	65.6146	5,097.66	66.9492	5,097.66	39.9691	5,097.66	64.3911	5,097.66	39.4975
5,279.3	81.6683	5,279.3	80.9074	5,279.3	81.7583	5,279.3	79.9311	5,279.3	80.8922	5,279.3	79.6131	5,279.3	79.8516	5,279.3	80.0476	5,279.3	79.7433	5,279.3	79.4318	5,279.3	80.0166	5,279.3	77.4652	5,279.3	79.3578	5,279.3	74.9232	5,279.3	78.1829	5,279.3	72.4197	5,279.3	75.0862	5,279.3	69.5526	5,279.3	72.7433	5,279.3	66.4095	5,279.3	70.7427	5,279.3	64.4266	5,279.3	67.9323	5,279.3	61.6863	5,279.3	65.6288	5,279.3	56.7729	5,279.3	61.5203	5,279.3	66.322	5,279.3	59.316	5,279.3	64.2776	5,279.3	66.5734	5,279.3	64.0672	5,279.3	65.1414	5,279.3	52.4146	5,279.3	63.9621	5,279.3	32.0269
5,463.87	82.0159	5,463.87	81.1479	5,463.87	81.8056	5,463.87	80.3426	5,463.87	80.9531	5,463.87	80.06	5,463.87	79.9738	5,463.87	79.4039	5,463.87	79.5256	5,463.87	78.0249	5,463.87	79.476	5,463.87	76.2594	5,463.87	78.7131	5,463.87	73.7898	5,463.87	76.8906	5,463.87	71.4458	5,463.87	74.6857	5,463.87	68.7288	5,463.87	72.4397	5,463.87	66.8572	5,463.87	69.2738	5,463.87	65.7016	5,463.87	68.0545	5,463.87	62.6612	5,463.87	65.6982	5,463.87	55.7543	5,463.87	63.4169	5,463.87	66.0943	5,463.87	54.8705	5,463.87	65.59	5,463.87	65.7275	5,463.87	62.1367	5,463.87	65.0831	5,463.87	45.0344	5,463.87	62.737	5,463.87	45.2251
5,657.23	81.3926	5,657.23	80.9265	5,657.23	81.6132	5,657.23	79.817	5,657.23	80.9339	5,657.23	78.5114	5,657.23	79.7254	5,657.23	78.3061	5,657.23	78.8969	5,657.23	77.6162	5,657.23	78.7059	5,657.23	76.1882	5,657.23	77.8032	5,657.23	74.1636	5,657.23	76.429	5,657.23	72.429	5,657.23	73.7254	5,657.23	69.6209	5,657.23	70.7609	5,657.23	66.7647	5,657.23	68.374	5,657.23	64.8971	5,657.23	65.7044	5,657.23	63.4728	5,657.23	63.6516	5,657.23	57.6715	5,657.23	61.3969	5,657.23	63.9612	5,657.23	60.0604	5,657.23	64.6066	5,657.23	60.3117	5,657.23	62.3909	5,657.23	62.9968	5,657.23	53.1496	5,657.23	60.014	5,657.23	35.1754
5,856.45	81.4113	5,856.45	80.9545	5,856.45	81.2784	5,856.45	79.8922	5,856.45	81.0035	5,856.45	79.1066	5,856.45	79.9835	5,856.45	78.7625	5,856.45	78.7777	5,856.45	78.3761	5,856.45	78.482	5,856.45	77.1387	5,856.45	78.1955	5,856.45	74.8164	5,856.45	76.8918	5,856.45	72.6443	5,856.45	74.4546	5,856.45	69.1563	5,856.45	72.1175	5,856.45	66.271	5,856.45	68.7944	5,856.45	63.3083	5,856.45	66.657	5,856.45	61.4891	5,856.45	64.48	5,856.45	60.971	5,856.45	62.7314	5,856.45	61.1089	5,856.45	62.8081	5,856.45	63.9581	5,856.45	64.2552	5,856.45	62.6196	5,856.45	65.144	5,856.45	46.7323	5,856.45	60.9455	5,856.45	43.1228
6,061.52	81.582	6,061.52	81.5549	6,061.52	81.6594	6,061.52	80.6078	6,061.52	81.4523	6,061.52	79.2261	6,061.52	80.0839	6,061.52	78.8824	6,061.52	78.8583	6,061.52	78.6748	6,061.52	78.7549	6,061.52	77.5498	6,061.52	78.5093	6,061.52	75.4119	6,061.52	77.4366	6,061.52	72.6335	6,061.52	74.607	6,061.52	68.7396	6,061.52	71.8718	6,061.52	65.6069	6,061.52	68.7626	6,061.52	64.4462	6,061.52	65.5964	6,061.52	62.2122	6,061.52	62.9612	6,061.52	61.0874	6,061.52	59.6046	6,061.52	62.9164	6,061.52	61.5019	6,061.52	63.3424	6,061.52	61.5689	6,061.52	62.0305	6,061.52	64.0057	6,061.52	51.5444	6,061.52	58.6738	6,061.52	47.7605
6,275.39	81.9913	6,275.39	81.8346	6,275.39	82.1025	6,275.39	80.9156	6,275.39	81.8469	6,275.39	79.4535	6,275.39	80.5929	6,275.39	78.9215	6,275.39	79.2522	6,275.39	78.8943	6,275.39	79.0567	6,275.39	77.7544	6,275.39	79.1142	6,275.39	75.2368	6,275.39	78.0276	6,275.39	72.4912	6,275.39	75.3172	6,275.39	69.1071	6,275.39	72.7161	6,275.39	67.5201	6,275.39	69.2956	6,275.39	64.9417	6,275.39	66.5767	6,275.39	60.8851	6,275.39	64.1065	6,275.39	61.8391	6,275.39	61.2664	6,275.39	61.5065	6,275.39	62.6422	6,275.39	63.4578	6,275.39	63.3265	6,275.39	60.7859	6,275.39	65.1369	6,275.39	46.1094	6,275.39	60.8283	6,275.39	47.4563
6,498.05	81.5008	6,498.05	81.8808	6,498.05	81.5145	6,498.05	80.8377	6,498.05	82.0658	6,498.05	79.3712	6,498.05	80.9561	6,498.05	78.9898	6,498.05	79.4884	6,498.05	78.8815	6,498.05	79.3067	6,498.05	77.5135	6,498.05	78.9823	6,498.05	74.9861	6,498.05	77.6533	6,498.05	72.1171	6,498.05	75.4264	6,498.05	69.1215	6,498.05	73.0571	6,498.05	65.5032	6,498.05	69.6352	6,498.05	63.0144	6,498.05	66.5993	6,498.05	59.3597	6,498.05	63.7874	6,498.05	59.8326	6,498.05	56.8466	6,498.05	61.7088	6,498.05	62.1622	6,498.05	62.5289	6,498.05	61.3146	6,498.05	59.0492	6,498.05	64.4486	6,498.05	42.1412	6,498.05	58.4143	6,498.05	41.9813
6,726.56	81.5209	6,726.56	81.7484	6,726.56	81.6381	6,726.56	80.9021	6,726.56	81.6603	6,726.56	79.3604	6,726.56	80.4091	6,726.56	78.7885	6,726.56	79.0547	6,726.56	78.463	6,726.56	78.6109	6,726.56	76.83	6,726.56	78.3315	6,726.56	73.9581	6,726.56	77.0637	6,726.56	71.0388	6,726.56	74.4277	6,726.56	67.8404	6,726.56	71.39	6,726.56	65.2625	6,726.56	68.2437	6,726.56	62.9204	6,726.56	65.673	6,726.56	56.897	6,726.56	63.762	6,726.56	60.5841	6,726.56	59.2971	6,726.56	60.0393	6,726.56	60.761	6,726.56	62.5021	6,726.56	60.8364	6,726.56	58.4257	6,726.56	63.3418	6,726.56	44.152	6,726.56	58.9106	6,726.56	46.8826
6,963.87	81.2239	6,963.87	81.4302	6,963.87	81.3336	6,963.87	80.4024	6,963.87	81.476	6,963.87	78.7812	6,963.87	80.1911	6,963.87	77.9257	6,963.87	78.9533	6,963.87	77.4612	6,963.87	78.145	6,963.87	76.0528	6,963.87	77.6164	6,963.87	73.2684	6,963.87	76.4456	6,963.87	70.4908	6,963.87	73.9418	6,963.87	67.8055	6,963.87	71.1734	6,963.87	64.7135	6,963.87	68.0676	6,963.87	62.3573	6,963.87	63.7437	6,963.87	57.8389	6,963.87	61.9818	6,963.87	57.3224	6,963.87	56.0167	6,963.87	60.3289	6,963.87	60.3401	6,963.87	61.8413	6,963.87	58.3527	6,963.87	59.2229	6,963.87	63.3437	6,963.87	44.3533	6,963.87	57.2413	6,963.87	47.4798
7,209.96	80.9582	7,209.96	80.9647	7,209.96	81.1215	7,209.96	79.9889	7,209.96	80.8488	7,209.96	78.1758	7,209.96	79.7783	7,209.96	77.1205	7,209.96	78.5277	7,209.96	76.8507	7,209.96	77.593	7,209.96	75.2452	7,209.96	77.2234	7,209.96	72.7476	7,209.96	76.0339	7,209.96	70.4624	7,209.96	73.0232	7,209.96	67.2467	7,209.96	69.3981	7,209.96	63.4025	7,209.96	67.3414	7,209.96	61.8494	7,209.96	63.6285	7,209.96	57.1458	7,209.96	60.8826	7,209.96	57.6092	7,209.96	56.4852	7,209.96	58.7425	7,209.96	59.5304	7,209.96	61.3162	7,209.96	58.2686	7,209.96	55.8949	7,209.96	62.2246	7,209.96	41.5563	7,209.96	57.8707	7,209.96	46.844
7,464.84	80.9734	7,464.84	80.7141	7,464.84	81.1086	7,464.84	79.7599	7,464.84	80.8583	7,464.84	78.1928	7,464.84	79.9781	7,464.84	76.5928	7,464.84	78.6438	7,464.84	76.2594	7,464.84	77.3232	7,464.84	74.8685	7,464.84	76.8227	7,464.84	72.2738	7,464.84	75.5769	7,464.84	69.6929	7,464.84	72.423	7,464.84	66.6366	7,464.84	69.4211	7,464.84	62.9728	7,464.84	66.6394	7,464.84	60.7405	7,464.84	62.5747	7,464.84	54.5183	7,464.84	59.7257	7,464.84	55.914	7,464.84	57.196	7,464.84	55.9486	7,464.84	56.9566	7,464.84	60.1923	7,464.84	55.4587	7,464.84	54.2714	7,464.84	61.4378	7,464.84	47.0832	7,464.84	55.9318	7,464.84	46.9968
7,728.52	81.2577	7,728.52	80.6369	7,728.52	81.6027	7,728.52	79.8182	7,728.52	81.1879	7,728.52	78.046	7,728.52	80.2443	7,728.52	76.2517	7,728.52	78.715	7,728.52	75.8289	7,728.52	77.1984	7,728.52	74.543	7,728.52	76.7547	7,728.52	72.1247	7,728.52	75.6566	7,728.52	68.6633	7,728.52	72.413	7,728.52	65.7769	7,728.52	69.4042	7,728.52	62.3266	7,728.52	66.5816	7,728.52	59.4387	7,728.52	62.6023	7,728.52	55.4594	7,728.52	60.4605	7,728.52	56.3721	7,728.52	56.8745	7,728.52	51.7306	7,728.52	59.8915	7,728.52	58.8948	7,728.52	49.0789	7,728.52	54.416	7,728.52	60.8691	7,728.52	47.2967	7,728.52	56	7,728.52	44.2025
8,000.98	81.6591	8,000.98	81.0255	8,000.98	81.851	8,000.98	80.2529	8,000.98	81.5971	8,000.98	78.4673	8,000.98	80.9211	8,000.98	76.4387	8,000.98	79.1894	8,000.98	75.9593	8,000.98	77.5567	8,000.98	74.234	8,000.98	77.1152	8,000.98	71.881	8,000.98	75.6639	8,000.98	68.2138	8,000.98	72.3798	8,000.98	64.9136	8,000.98	69.1214	8,000.98	61.2139	8,000.98	66.2281	8,000.98	58.0095	8,000.98	62.5401	8,000.98	54.0949	8,000.98	59.4463	8,000.98	58.1308	8,000.98	57.1777	8,000.98	45.4749	8,000.98	58.4484	8,000.98	58.8991	8,000.98	49.1909	8,000.98	53.933	8,000.98	59.9957	8,000.98	36.8713	8,000.98	55.695	8,000.98	42.3314
8,282.23	82.0023	8,282.23	81.2506	8,282.23	82.1425	8,282.23	80.6282	8,282.23	81.7432	8,282.23	78.8504	8,282.23	81.1934	8,282.23	76.6722	8,282.23	79.678	8,282.23	75.9337	8,282.23	77.9087	8,282.23	74.3809	8,282.23	77.2521	8,282.23	71.4958	8,282.23	75.7574	8,282.23	67.4744	8,282.23	72.6341	8,282.23	64.9114	8,282.23	69.0923	8,282.23	61.725	8,282.23	65.7285	8,282.23	58.0231	8,282.23	62.9365	8,282.23	53.2926	8,282.23	59.9742	8,282.23	59.0751	8,282.23	57.8527	8,282.23	45.1404	8,282.23	59.1679	8,282.23	57.2188	8,282.23	50.5005	8,282.23	52.4746	8,282.23	60.4833	8,282.23	35.873	8,282.23	55.5797	8,282.23	40.6852
8,575.2	81.6909	8,575.2	81.136	8,575.2	81.7582	8,575.2	80.7049	8,575.2	81.4981	8,575.2	78.83	8,575.2	81.1386	8,575.2	76.743	8,575.2	79.7547	8,575.2	75.6453	8,575.2	78.0653	8,575.2	73.7957	8,575.2	77.0894	8,575.2	70.8822	8,575.2	75.3734	8,575.2	66.7834	8,575.2	72.0843	8,575.2	63.6163	8,575.2	67.9899	8,575.2	60.7653	8,575.2	65.6992	8,575.2	57.7446	8,575.2	62.8254	8,575.2	53.7933	8,575.2	58.3402	8,575.2	56.5687	8,575.2	57.5405	8,575.2	47.6685	8,575.2	58.4831	8,575.2	57.6881	8,575.2	51.495	8,575.2	50.2046	8,575.2	59.5326	8,575.2	41.2192	8,575.2	55.6303	8,575.2	40.908
8,876.95	81.3513	8,876.95	80.9494	8,876.95	81.4215	8,876.95	80.4702	8,876.95	81.117	8,876.95	78.2759	8,876.95	80.7558	8,876.95	76.3134	8,876.95	79.3175	8,876.95	75.0498	8,876.95	77.6192	8,876.95	73.0904	8,876.95	76.563	8,876.95	70.2209	8,876.95	74.8458	8,876.95	66.7823	8,876.95	71.3134	8,876.95	63.4616	8,876.95	67.3566	8,876.95	60.8936	8,876.95	65.1516	8,876.95	56.9025	8,876.95	62.9842	8,876.95	53.3385	8,876.95	58.1188	8,876.95	54.8817	8,876.95	57.3359	8,876.95	45.2987	8,876.95	56.9842	8,876.95	57.0074	8,876.95	48.0891	8,876.95	50.3926	8,876.95	58.1886	8,876.95	33.0701	8,876.95	54.1516	8,876.95	42.0855
9,190.43	80.9217	9,190.43	80.4206	9,190.43	81.1886	9,190.43	79.8584	9,190.43	80.7523	9,190.43	77.5684	9,190.43	80.145	9,190.43	75.5877	9,190.43	78.6452	9,190.43	74.1458	9,190.43	76.8187	9,190.43	72.416	9,190.43	75.6505	9,190.43	69.5824	9,190.43	74.0705	9,190.43	65.8748	9,190.43	70.5364	9,190.43	62.42	9,190.43	67.1182	9,190.43	60.8774	9,190.43	63.8698	9,190.43	55.8492	9,190.43	62.7494	9,190.43	53.0762	9,190.43	57.1153	9,190.43	53.5596	9,190.43	57.3598	9,190.43	44.0829	9,190.43	52.9576	9,190.43	55.6817	9,190.43	47.2237	9,190.43	47.5155	9,190.43	56.5586	9,190.43	40.5124	9,190.43	52.6714	9,190.43	41.6774
9,512.7	80.9036	9,512.7	80.2246	9,512.7	81.2534	9,512.7	79.4387	9,512.7	80.5721	9,512.7	77.1684	9,512.7	79.6743	9,512.7	75.2109	9,512.7	78.1186	9,512.7	73.41	9,512.7	76.196	9,512.7	71.8074	9,512.7	74.7064	9,512.7	68.8736	9,512.7	72.9982	9,512.7	64.4279	9,512.7	70.0617	9,512.7	60.8412	9,512.7	66.6473	9,512.7	59.4327	9,512.7	62.0804	9,512.7	53.7762	9,512.7	62.0263	9,512.7	52.6947	9,512.7	56.5685	9,512.7	52.1436	9,512.7	56.3945	9,512.7	44.6432	9,512.7	52.3146	9,512.7	55.3511	9,512.7	47.135	9,512.7	44.8706	9,512.7	55.3373	9,512.7	39.3211	9,512.7	51.0591	9,512.7	40.0194
9,849.61	81.2569	9,849.61	80.3475	9,849.61	81.5842	9,849.61	79.3572	9,849.61	80.6991	9,849.61	77.3297	9,849.61	79.5158	9,849.61	75.2768	9,849.61	77.7871	9,849.61	73.261	9,849.61	75.8265	9,849.61	71.3952	9,849.61	74.1877	9,849.61	68.1843	9,849.61	72.2376	9,849.61	63.4749	9,849.61	69.6525	9,849.61	60.0567	9,849.61	65.113	9,849.61	57.9017	9,849.61	60.1017	9,849.61	50.512	9,849.61	60.5436	9,849.61	53.2259	9,849.61	54.8414	9,849.61	48.6753	9,849.61	54.1048	9,849.61	43.3602	9,849.61	49.1015	9,849.61	54.9546	9,849.61	47.8163	9,849.61	40.0197	9,849.61	53.8646	9,849.61	41.1457	9,849.61	49.7835	9,849.61	39.198
10,195.3	81.6122	10,195.3	80.7258	10,195.3	81.8594	10,195.3	79.6381	10,195.3	81.0529	10,195.3	77.6766	10,195.3	79.8606	10,195.3	75.1653	10,195.3	78.0532	10,195.3	73.0429	10,195.3	75.8188	10,195.3	70.7319	10,195.3	73.932	10,195.3	67.7509	10,195.3	72.0051	10,195.3	63.2068	10,195.3	69.0447	10,195.3	59.4772	10,195.3	63.8912	10,195.3	57.5005	10,195.3	60.4174	10,195.3	51.3587	10,195.3	59.0052	10,195.3	52.7633	10,195.3	52.9929	10,195.3	47.9719	10,195.3	52.8254	10,195.3	41.6168	10,195.3	46.427	10,195.3	53.8251	10,195.3	46.0277	10,195.3	37.3391	10,195.3	52.4932	10,195.3	36.3164	10,195.3	48.2275	10,195.3	37.3631
10,555.7	81.8624	10,555.7	80.9914	10,555.7	82.0946	10,555.7	79.7777	10,555.7	81.4261	10,555.7	77.437	10,555.7	80.208	10,555.7	74.6387	10,555.7	78.3024	10,555.7	72.6271	10,555.7	75.7964	10,555.7	69.9094	10,555.7	73.8428	10,555.7	66.6353	10,555.7	71.5299	10,555.7	61.9528	10,555.7	67.7387	10,555.7	58.8437	10,555.7	63.826	10,555.7	56.5542	10,555.7	60.4639	10,555.7	50.6351	10,555.7	58.0146	10,555.7	51.2423	10,555.7	54.2265	10,555.7	46.0483	10,555.7	52.9075	10,555.7	43.0123	10,555.7	49.4973	10,555.7	52.5382	10,555.7	46.2358	10,555.7	31.4976	10,555.7	51.2227	10,555.7	36.4728	10,555.7	47.3115	10,555.7	31.3587
10,927.7	82.0971	10,927.7	81.0482	10,927.7	82.3253	10,927.7	79.6951	10,927.7	81.4246	10,927.7	76.8865	10,927.7	80.1654	10,927.7	73.9432	10,927.7	78.135	10,927.7	71.5431	10,927.7	75.3373	10,927.7	68.3536	10,927.7	73.1084	10,927.7	65.0736	10,927.7	70.1759	10,927.7	60.9284	10,927.7	66.3094	10,927.7	58.4851	10,927.7	63.3058	10,927.7	55.9597	10,927.7	59.2305	10,927.7	49.273	10,927.7	57.9338	10,927.7	51.7842	10,927.7	54.7306	10,927.7	43.1843	10,927.7	51.7533	10,927.7	45.8316	10,927.7	48.4272	10,927.7	51.0902	10,927.7	45.0031	10,927.7	37.8884	10,927.7	49.9652	10,927.7	38.0276	10,927.7	45.2679	10,927.7	38.2245
11,314.5	81.8684	11,314.5	80.9463	11,314.5	82.1185	11,314.5	79.4916	11,314.5	81.1952	11,314.5	76.3329	11,314.5	79.7218	11,314.5	73.2456	11,314.5	77.4312	11,314.5	70.175	11,314.5	74.4784	11,314.5	67.0802	11,314.5	71.7177	11,314.5	64.1984	11,314.5	68.1957	11,314.5	60.6178	11,314.5	65.1011	11,314.5	58.2693	11,314.5	62.2128	11,314.5	55.8982	11,314.5	58.0267	11,314.5	50.7895	11,314.5	57.5363	11,314.5	51.2773	11,314.5	53.8399	11,314.5	46.7468	11,314.5	50.4119	11,314.5	49.1287	11,314.5	47.292	11,314.5	49.1763	11,314.5	45.7641	11,314.5	38.2449	11,314.5	48.9791	11,314.5	28.822	11,314.5	42.4264	11,314.5	33.534
11,712.9	81.7049	11,712.9	80.8291	11,712.9	81.9321	11,712.9	79.2258	11,712.9	80.9154	11,712.9	75.7909	11,712.9	79.3342	11,712.9	72.541	11,712.9	76.6217	11,712.9	68.961	11,712.9	73.3678	11,712.9	66.4087	11,712.9	69.9694	11,712.9	63.721	11,712.9	66.7385	11,712.9	60.8749	11,712.9	64.5565	11,712.9	57.8591	11,712.9	60.3548	11,712.9	54.9796	11,712.9	56.5776	11,712.9	51.6848	11,712.9	54.7983	11,712.9	51.5915	11,712.9	50.6288	11,712.9	48.8706	11,712.9	48.3209	11,712.9	51.7023	11,712.9	45.8375	11,712.9	50.3363	11,712.9	45.3108	11,712.9	36.286	11,712.9	49.6329	11,712.9	31.3434	11,712.9	38.9809	11,712.9	40.6651
12,126	82.0502	12,126	81.1784	12,126	82.1205	12,126	79.344	12,126	81.0933	12,126	75.8028	12,126	79.3826	12,126	72.0097	12,126	76.4329	12,126	68.8309	12,126	72.5975	12,126	65.9869	12,126	69.2687	12,126	64.0765	12,126	66.1907	12,126	61.7356	12,126	63.6824	12,126	58.4133	12,126	59.7561	12,126	53.9579	12,126	56.9979	12,126	53.171	12,126	53.7738	12,126	51.9814	12,126	51.7796	12,126	47.8101	12,126	50.0783	12,126	51.6694	12,126	45.7925	12,126	51.7642	12,126	47.3188	12,126	37.3817	12,126	49.5002	12,126	36.5248	12,126	38.4127	12,126	43.3735
12,553.7	82.2051	12,553.7	81.2589	12,553.7	82.2507	12,553.7	79.335	12,553.7	81.2412	12,553.7	75.5653	12,553.7	79.4745	12,553.7	71.9697	12,553.7	76.2943	12,553.7	68.5848	12,553.7	72.5622	12,553.7	65.8284	12,553.7	69.2846	12,553.7	63.9633	12,553.7	65.882	12,553.7	63.2706	12,553.7	64.7555	12,553.7	60.2085	12,553.7	61.601	12,553.7	55.2396	12,553.7	58.5296	12,553.7	54.4387	12,553.7	55.0102	12,553.7	53.1382	12,553.7	53.4364	12,553.7	45.2188	12,553.7	50.0375	12,553.7	50.4581	12,553.7	45.9619	12,553.7	51.1918	12,553.7	48.3884	12,553.7	38.0765	12,553.7	51.1139	12,553.7	32.8897	12,553.7	43.5854	12,553.7	41.1958
12,996.1	82.1174	12,996.1	81.0818	12,996.1	82.2296	12,996.1	79.085	12,996.1	81.1147	12,996.1	75.3467	12,996.1	79.0829	12,996.1	71.9393	12,996.1	75.9244	12,996.1	68.6584	12,996.1	72.2125	12,996.1	66.503	12,996.1	68.8935	12,996.1	65.9602	12,996.1	66.3564	12,996.1	65.271	12,996.1	66.596	12,996.1	61.0268	12,996.1	61.9328	12,996.1	56.9052	12,996.1	60.7215	12,996.1	55.0657	12,996.1	55.398	12,996.1	53.1911	12,996.1	53.3267	12,996.1	48.3297	12,996.1	49.2194	12,996.1	53.1785	12,996.1	42.9875	12,996.1	49.5942	12,996.1	51.0026	12,996.1	40.0901	12,996.1	48.6224	12,996.1	35.3613	12,996.1	49.4114	12,996.1	41.6857
13,453.1	81.6749	13,453.1	80.8592	13,453.1	81.8613	13,453.1	78.9724	13,453.1	80.7639	13,453.1	75.244	13,453.1	78.6474	13,453.1	71.8825	13,453.1	75.5141	13,453.1	69.8158	13,453.1	71.7557	13,453.1	68.1198	13,453.1	69.1973	13,453.1	68.8608	13,453.1	68.3746	13,453.1	67.2518	13,453.1	67.2602	13,453.1	62.5893	13,453.1	63.6525	13,453.1	56.2163	13,453.1	63.2502	13,453.1	55.5542	13,453.1	55.0146	13,453.1	53.6286	13,453.1	53.9065	13,453.1	45.7454	13,453.1	51.8636	13,453.1	56.0454	13,453.1	44.5162	13,453.1	49.226	13,453.1	50.4407	13,453.1	41.9949	13,453.1	47.6105	13,453.1	23.2983	13,453.1	51.1104	13,453.1	43.469
13,927.7	81.1457	13,927.7	80.3891	13,927.7	81.2693	13,927.7	78.7962	13,927.7	80.0692	13,927.7	75.1304	13,927.7	78.2052	13,927.7	72.7149	13,927.7	75.0812	13,927.7	70.9756	13,927.7	71.5336	13,927.7	69.8712	13,927.7	70.7837	13,927.7	69.8093	13,927.7	69.4675	13,927.7	68.2962	13,927.7	67.4527	13,927.7	64.4416	13,927.7	66.1461	13,927.7	56.6222	13,927.7	64.1578	13,927.7	57.0806	13,927.7	55.4213	13,927.7	53.7683	13,927.7	55.4328	13,927.7	41.5461	13,927.7	53.1024	13,927.7	55.154	13,927.7	45.2803	13,927.7	50.7444	13,927.7	46.1019	13,927.7	47.084	13,927.7	48.0568	13,927.7	41.9924	13,927.7	50.5824	13,927.7	43.8176
14,419.9	80.7145	14,419.9	79.9538	14,419.9	80.7114	14,419.9	78.5239	14,419.9	79.66	14,419.9	75.3132	14,419.9	78.0499	14,419.9	74.2526	14,419.9	75.3242	14,419.9	72.2911	14,419.9	73.1336	14,419.9	71.4727	14,419.9	72.5732	14,419.9	70.0857	14,419.9	70.4992	14,419.9	69.1973	14,419.9	68.4021	14,419.9	64.8952	14,419.9	67.5586	14,419.9	59.0417	14,419.9	64.5786	14,419.9	58.0885	14,419.9	57.473	14,419.9	53.2347	14,419.9	56.5929	14,419.9	42.885	14,419.9	54.6563	14,419.9	53.7687	14,419.9	49.2818	14,419.9	48.6042	14,419.9	49.7623	14,419.9	49.9825	14,419.9	43.3234	14,419.9	44.1552	14,419.9	49.5504	14,419.9	42.5233
14,929.7	80.4967	14,929.7	80.0719	14,929.7	80.5663	14,929.7	79.1147	14,929.7	79.6959	14,929.7	76.672	14,929.7	78.5526	14,929.7	75.9426	14,929.7	76.7876	14,929.7	74.1456	14,929.7	75.3253	14,929.7	72.6004	14,929.7	74.3283	14,929.7	71.438	14,929.7	72.0541	14,929.7	69.5559	14,929.7	69.9001	14,929.7	65.0073	14,929.7	68.5498	14,929.7	59.0096	14,929.7	64.9897	14,929.7	57.888	14,929.7	58.2374	14,929.7	54.7179	14,929.7	57.5239	14,929.7	29.3701	14,929.7	55.1736	14,929.7	52.1597	14,929.7	48.3916	14,929.7	46.6301	14,929.7	52.7787	14,929.7	50.3589	14,929.7	34.3025	14,929.7	45.9202	14,929.7	47.4239	14,929.7	41.1045
15,454.1	80.5169	15,454.1	80.544	15,454.1	80.6459	15,454.1	80.0814	15,454.1	80.1196	15,454.1	78.2653	15,454.1	79.5123	15,454.1	77.1284	15,454.1	78.1013	15,454.1	75.0992	15,454.1	76.6127	15,454.1	72.7545	15,454.1	75.2179	15,454.1	71.1147	15,454.1	72.4406	15,454.1	68.634	15,454.1	70.0673	15,454.1	64.423	15,454.1	67.93	15,454.1	57.5926	15,454.1	63.915	15,454.1	56.6347	15,454.1	56.2145	15,454.1	54.6072	15,454.1	56.8575	15,454.1	38.2979	15,454.1	53.1133	15,454.1	52.4212	15,454.1	38.2019	15,454.1	48.3199	15,454.1	50.7379	15,454.1	49.5194	15,454.1	40.0181	15,454.1	47.6678	15,454.1	48.9987	15,454.1	41.722
15,999	79.8799	15,999	79.811	15,999	80.0059	15,999	79.4021	15,999	79.5105	15,999	77.3424	15,999	78.9149	15,999	75.7744	15,999	77.3923	15,999	73.0306	15,999	75.1867	15,999	69.8378	15,999	72.7862	15,999	67.0069	15,999	69.2548	15,999	64.0278	15,999	65.5121	15,999	59.7657	15,999	62.9834	15,999	53.4044	15,999	58.8276	15,999	52.3506	15,999	50.581	15,999	50.8433	15,999	51.108	15,999	40.2262	15,999	46.7923	15,999	48.7473	15,999	36.5155	15,999	45.69	15,999	43.7725	15,999	46.3036	15,999	40.095	15,999	44.0152	15,999	43.2472	15,999	37.0253
16,564.5	78.6943	16,564.5	78.2201	16,564.5	78.8459	16,564.5	77.2241	16,564.5	78.0573	16,564.5	74.4273	16,564.5	77.0747	16,564.5	72.1847	16,564.5	74.8737	16,564.5	68.4791	16,564.5	71.5363	16,564.5	63.8077	16,564.5	67.9009	16,564.5	59.9097	16,564.5	62.8881	16,564.5	55.2385	16,564.5	56.761	16,564.5	51.1198	16,564.5	53.7445	16,564.5	43.3933	16,564.5	48.8805	16,564.5	43.6189	16,564.5	37.8536	16,564.5	42.7525	16,564.5	40.1911	16,564.5	37.7242	16,564.5	37.9707	16,564.5	39.0795	16,564.5	31.8322	16,564.5	38.0073	16,564.5	40.2664	16,564.5	37.4659	16,564.5	33.6075	16,564.5	36.222	16,564.5	23.6357	16,564.5	33.2035
17,147.5	77.945	17,147.5	77.0511	17,147.5	78.1074	17,147.5	75.312	17,147.5	76.9765	17,147.5	71.5069	17,147.5	75.3744	17,147.5	68.171	17,147.5	72.2926	17,147.5	62.9	17,147.5	67.7014	17,147.5	56.8285	17,147.5	62.6788	17,147.5	52.0911	17,147.5	55.6148	17,147.5	45.0603	17,147.5	40.4712	17,147.5	40.9835	17,147.5	38.7858	17,147.5	28.8017	17,147.5	33.9703	17,147.5	28.6491	17,147.5	31.5867	17,147.5	34.4136	17,147.5	17.4796	17,147.5	37.4339	17,147.5	28.0105	17,147.5	29.7542	17,147.5	32.6484	17,147.5	8.53949	17,147.5	37.3946	17,147.5	29.5868	17,147.5	34.5569	17,147.5	29.7517	17,147.5	34.5449	17,147.5	24.177
17,753.9	77.0894	17,753.9	75.9651	17,753.9	77.207	17,753.9	73.6204	17,753.9	75.7906	17,753.9	68.781	17,753.9	73.6471	17,753.9	64.1875	17,753.9	69.5316	17,753.9	57.2555	17,753.9	63.7331	17,753.9	52.2406	17,753.9	56.9373	17,753.9	51.9697	17,753.9	50.5894	17,753.9	49.5697	17,753.9	45.1432	17,753.9	44.5039	17,753.9	43.6219	17,753.9	36.8518	17,753.9	43.5558	17,753.9	36.3772	17,753.9	33.5445	17,753.9	34.7642	17,753.9	36.072	17,753.9	37.0903	17,753.9	20.3797	17,753.9	36.9931	17,753.9	31.8878	17,753.9	30.7543	17,753.9	33.9862	17,753.9	32.4924	17,753.9	36.8664	17,753.9	24.9243	17,753.9	33.8633	17,753.9	12.5563
18,377.9	75.7176	18,377.9	74.3451	18,377.9	75.8935	18,377.9	71.292	18,377.9	74.3761	18,377.9	65.3739	18,377.9	71.674	18,377.9	59.5583	18,377.9	66.4424	18,377.9	53.8285	18,377.9	59.4583	18,377.9	52.2996	18,377.9	52.7238	18,377.9	53.3665	18,377.9	51.1919	18,377.9	51.3376	18,377.9	45.035	18,377.9	46.2215	18,377.9	49.8181	18,377.9	36.2722	18,377.9	45.7245	18,377.9	39.5884	18,377.9	35.0396	18,377.9	35.6933	18,377.9	39.9884	18,377.9	35.1987	18,377.9	31.649	18,377.9	37.6204	18,377.9	30.5685	18,377.9	32.3232	18,377.9	31.0064	18,377.9	35.5966	18,377.9	38.5073	18,377.9	36.6344	18,377.9	29.5065	18,377.9	27.461
19,028.3	74.8106	19,028.3	72.9531	19,028.3	75.0654	19,028.3	68.9279	19,028.3	73.3016	19,028.3	61.042	19,028.3	69.9454	19,028.3	54.8429	19,028.3	63.4252	19,028.3	54.4314	19,028.3	56.1568	19,028.3	54.5536	19,028.3	54.3195	19,028.3	54.7603	19,028.3	54.3282	19,028.3	51.6949	19,028.3	51.6331	19,028.3	46.5007	19,028.3	53.0485	19,028.3	37.2781	19,028.3	48.7422	19,028.3	40.7986	19,028.3	31.317	19,028.3	39.1656	19,028.3	40.1074	19,028.3	27.3581	19,028.3	35.2976	19,028.3	38.6423	19,028.3	35.5378	19,028.3	33.1433	19,028.3	32.144	19,028.3	36.7943	19,028.3	37.5869	19,028.3	36.7132	19,028.3	26.4777	19,028.3	28.1092
19,699.2	74.2056	19,699.2	72.0993	19,699.2	74.4203	19,699.2	67.0795	19,699.2	72.2452	19,699.2	55.3837	19,699.2	67.7603	19,699.2	52.1841	19,699.2	58.2981	19,699.2	55.5405	19,699.2	54.2486	19,699.2	56.1665	19,699.2	56.6311	19,699.2	55.3695	19,699.2	56.7608	19,699.2	52.9841	19,699.2	55.2282	19,699.2	48.8025	19,699.2	54.2594	19,699.2	37.9291	19,699.2	51.0559	19,699.2	41.8342	19,699.2	19.0066	19,699.2	41.3476	19,699.2	41.796	19,699.2	28.1543	19,699.2	35.3078	19,699.2	42.4731	19,699.2	37.3322	19,699.2	35.717	19,699.2	34.1109	19,699.2	38.0375	19,699.2	38.5191	19,699.2	35.2854	19,699.2	38.4261	19,699.2	32.8128
19,998	73.8659	19,998	71.7951	19,998	73.9836	19,998	66.3222	19,998	71.7167	19,998	51.7825	19,998	66.7199	19,998	51.29	19,998	54.3625	19,998	56.1522	19,998	54.3441	19,998	56.5183	19,998	57.2506	19,998	55.8491	19,998	57.7001	19,998	53.8609	19,998	55.9579	19,998	49.6549	19,998	54.2145	19,998	36.4237	19,998	52.1946	19,998	42.5951	19,998	28.3247	19,998	40.3782	19,998	42.8729	19,998	31.899	19,998	34.743	19,998	42.6155	19,998	39.0079	19,998	35.6619	19,998	32.2637	19,998	40.6849	19,998	39.2716	19,998	32.2038	19,998	42.547	19,998	33.6377
