"SPL Vertical"
"On-Axis"		"10°"		"-10°"		"20°"		"-20°"		"30°"		"-30°"		"40°"		"-40°"		"50°"		"-50°"		"60°"		"-60°"		"70°"		"-70°"		"80°"		"-80°"		"90°"		"-90°"		"100°"		"-100°"		"110°"		"-110°"		"120°"		"-120°"		"130°"		"-130°"		"140°"		"-140°"		"150°"		"-150°"		"160°"		"-160°"		"170°"		"-170°"		"180°"
"Frequency / Hz"	"Sound Pressure Level / dB (re 20 µPa/V)  [2.83  V @ 1. m]"	"Frequency / Hz"	"Sound Pressure Level / dB (re 20 µPa/V)  [2.83  V @ 1. m]"	"Frequency / Hz"	"Sound Pressure Level / dB (re 20 µPa/V)  [2.83  V @ 1. m]"	"Frequency / Hz"	"Sound Pressure Level / dB (re 20 µPa/V)  [2.83  V @ 1. m]"	"Frequency / Hz"	"Sound Pressure Level / dB (re 20 µPa/V)  [2.83  V @ 1. m]"	"Frequency / Hz"	"Sound Pressure Level / dB (re 20 µPa/V)  [2.83  V @ 1. m]"	"Frequency / Hz"	"Sound Pressure Level / dB (re 20 µPa/V)  [2.83  V @ 1. m]"	"Frequency / Hz"	"Sound Pressure Level / dB (re 20 µPa/V)  [2.83  V @ 1. m]"	"Frequency / Hz"	"Sound Pressure Level / dB (re 20 µPa/V)  [2.83  V @ 1. m]"	"Frequency / Hz"	"Sound Pressure Level / dB (re 20 µPa/V)  [2.83  V @ 1. m]"	"Frequency / Hz"	"Sound Pressure Level / dB (re 20 µPa/V)  [2.83  V @ 1. m]"	"Frequency / Hz"	"Sound Pressure Level / dB (re 20 µPa/V)  [2.83  V @ 1. m]"	"Frequency / Hz"	"Sound Pressure Level / dB (re 20 µPa/V)  [2.83  V @ 1. m]"	"Frequency / Hz"	"Sound Pressure Level / dB (re 20 µPa/V)  [2.83  V @ 1. m]"	"Frequency / Hz"	"Sound Pressure Level / dB (re 20 µPa/V)  [2.83  V @ 1. m]"	"Frequency / Hz"	"Sound Pressure Level / dB (re 20 µPa/V)  [2.83  V @ 1. m]"	"Frequency / Hz"	"Sound Pressure Level / dB (re 20 µPa/V)  [2.83  V @ 1. m]"	"Frequency / Hz"	"Sound Pressure Level / dB (re 20 µPa/V)  [2.83  V @ 1. m]"	"Frequency / Hz"	"Sound Pressure Level / dB (re 20 µPa/V)  [2.83  V @ 1. m]"	"Frequency / Hz"	"Sound Pressure Level / dB (re 20 µPa/V)  [2.83  V @ 1. m]"	"Frequency / Hz"	"Sound Pressure Level / dB (re 20 µPa/V)  [2.83  V @ 1. m]"	"Frequency / Hz"	"Sound Pressure Level / dB (re 20 µPa/V)  [2.83  V @ 1. m]"	"Frequency / Hz"	"Sound Pressure Level / dB (re 20 µPa/V)  [2.83  V @ 1. m]"	"Frequency / Hz"	"Sound Pressure Level / dB (re 20 µPa/V)  [2.83  V @ 1. m]"	"Frequency / Hz"	"Sound Pressure Level / dB (re 20 µPa/V)  [2.83  V @ 1. m]"	"Frequency / Hz"	"Sound Pressure Level / dB (re 20 µPa/V)  [2.83  V @ 1. m]"	"Frequency / Hz"	"Sound Pressure Level / dB (re 20 µPa/V)  [2.83  V @ 1. m]"	"Frequency / Hz"	"Sound Pressure Level / dB (re 20 µPa/V)  [2.83  V @ 1. m]"	"Frequency / Hz"	"Sound Pressure Level / dB (re 20 µPa/V)  [2.83  V @ 1. m]"	"Frequency / Hz"	"Sound Pressure Level / dB (re 20 µPa/V)  [2.83  V @ 1. m]"	"Frequency / Hz"	"Sound Pressure Level / dB (re 20 µPa/V)  [2.83  V @ 1. m]"	"Frequency / Hz"	"Sound Pressure Level / dB (re 20 µPa/V)  [2.83  V @ 1. m]"	"Frequency / Hz"	"Sound Pressure Level / dB (re 20 µPa/V)  [2.83  V @ 1. m]"	"Frequency / Hz"	"Sound Pressure Level / dB (re 20 µPa/V)  [2.83  V @ 1. m]"	"Frequency / Hz"	"Sound Pressure Level / dB (re 20 µPa/V)  [2.83  V @ 1. m]"	"Frequency / Hz"	"Sound Pressure Level / dB (re 20 µPa/V)  [2.83  V @ 1. m]"
20.1416	49.1658	20.1416	49.3025	20.1416	48.9816	20.1416	49.3932	20.1416	48.7494	20.1416	49.4405	20.1416	48.4706	20.1416	49.4475	20.1416	48.148	20.1416	49.4174	20.1416	47.7865	20.1416	49.3532	20.1416	47.3934	20.1416	49.2568	20.1416	46.9789	20.1416	49.1292	20.1416	46.5569	20.1416	48.97	20.1416	46.1452	20.1416	48.7777	20.1416	45.7658	20.1416	48.5502	20.1416	45.4436	20.1416	48.2852	20.1416	45.204	20.1416	47.9814	20.1416	45.069	20.1416	47.6393	20.1416	45.0526	20.1416	47.2632	20.1416	45.157	20.1416	46.8617	20.1416	45.3722	20.1416	46.4491	20.1416	45.6775	20.1416	46.0459
20.5078	47.9823	20.5078	48.117	20.5078	47.8043	20.5078	48.2096	20.5078	47.5833	20.5078	48.2623	20.5078	47.3209	20.5078	48.2775	20.5078	47.0203	20.5078	48.2582	20.5078	46.6867	20.5078	48.2068	20.5078	46.3274	20.5078	48.1251	20.5078	45.952	20.5078	48.0137	20.5078	45.5732	20.5078	47.8723	20.5078	45.2071	20.5078	47.6994	20.5078	44.873	20.5078	47.4929	20.5078	44.5923	20.5078	47.2508	20.5078	44.3868	20.5078	46.972	20.5078	44.2753	20.5078	46.6573	20.5078	44.2695	20.5078	46.311	20.5078	44.3712	20.5078	45.9414	20.5078	44.5717	20.5078	45.5619	20.5078	44.853	20.5078	45.1915
21.2402	46.4092	21.2402	46.582	21.2402	46.2023	21.2402	46.7208	21.2402	45.9632	21.2402	46.8265	21.2402	45.6958	21.2402	46.9011	21.2402	45.4066	21.2402	46.9467	21.2402	45.1045	21.2402	46.9653	21.2402	44.8015	21.2402	46.9583	21.2402	44.5118	21.2402	46.9262	21.2402	44.2511	21.2402	46.8685	21.2402	44.0354	21.2402	46.7839	21.2402	43.8788	21.2402	46.6702	21.2402	43.7921	21.2402	46.5253	21.2402	43.7812	21.2402	46.3472	21.2402	43.8467	21.2402	46.1354	21.2402	43.9838	21.2402	45.8911	21.2402	44.1835	21.2402	45.6183	21.2402	44.433	21.2402	45.3241	21.2402	44.7169	21.2402	45.0191
21.9727	51.2329	21.9727	51.2748	21.9727	51.1866	21.9727	51.3123	21.9727	51.1366	21.9727	51.3458	21.9727	51.0839	21.9727	51.376	21.9727	51.0303	21.9727	51.4038	21.9727	50.978	21.9727	51.4297	21.9727	50.9297	21.9727	51.4541	21.9727	50.8881	21.9727	51.4767	21.9727	50.856	21.9727	51.4968	21.9727	50.8362	21.9727	51.513	21.9727	50.8309	21.9727	51.5234	21.9727	50.8418	21.9727	51.5257	21.9727	50.8696	21.9727	51.5177	21.9727	50.9139	21.9727	51.4975	21.9727	50.973	21.9727	51.4635	21.9727	51.0439	21.9727	51.4156	21.9727	51.1225	21.9727	51.3545	21.9727	51.2038	21.9727	51.2827
22.7051	39.9475	22.7051	39.9868	22.7051	39.9159	22.7051	40.0292	22.7051	39.8979	22.7051	40.0722	22.7051	39.8997	22.7051	40.1153	22.7051	39.9259	22.7051	40.1604	22.7051	39.9789	22.7051	40.2102	22.7051	40.0582	22.7051	40.2684	22.7051	40.1607	22.7051	40.3384	22.7051	40.2819	22.7051	40.4226	22.7051	40.417	22.7051	40.5223	22.7051	40.561	22.7051	40.6365	22.7051	40.7092	22.7051	40.7623	22.7051	40.8566	22.7051	40.8942	22.7051	40.9973	22.7051	41.0247	22.7051	41.1244	22.7051	41.1446	22.7051	41.2301	22.7051	41.2444	22.7051	41.3068	22.7051	41.3155	22.7051	41.3484	22.7051	41.3513
23.8037	43.7332	23.8037	43.825	23.8037	43.608	23.8037	43.8826	23.8037	43.4512	23.8037	43.9068	23.8037	43.2665	23.8037	43.8993	23.8037	43.0587	23.8037	43.8621	23.8037	42.8341	23.8037	43.7979	23.8037	42.6	23.8037	43.7088	23.8037	42.3641	23.8037	43.597	23.8037	42.1348	23.8037	43.4639	23.8037	41.9206	23.8037	43.3108	23.8037	41.7297	23.8037	43.139	23.8037	41.5701	23.8037	42.95	23.8037	41.4488	23.8037	42.7464	23.8037	41.3719	23.8037	42.5321	23.8037	41.3433	23.8037	42.3128	23.8037	41.3647	23.8037	42.0958	23.8037	41.4352	23.8037	41.8901	23.8037	41.5509	23.8037	41.7053
24.5361	42.2849	24.5361	42.3996	24.5361	42.128	24.5361	42.472	24.5361	41.9301	24.5361	42.5035	24.5361	41.6938	24.5361	42.496	24.5361	41.4237	24.5361	42.4517	24.5361	41.1256	24.5361	42.373	24.5361	40.8071	24.5361	42.2618	24.5361	40.4774	24.5361	42.1195	24.5361	40.1469	24.5361	41.947	24.5361	39.8278	24.5361	41.7447	24.5361	39.5333	24.5361	41.5131	24.5361	39.2778	24.5361	41.2533	24.5361	39.0755	24.5361	40.9678	24.5361	38.9398	24.5361	40.6613	24.5361	38.8806	24.5361	40.3413	24.5361	38.9034	24.5361	40.0186	24.5361	39.0072	24.5361	39.7072	24.5361	39.1847	24.5361	39.4234
25.2686	41.5873	25.2686	41.7048	25.2686	41.4317	25.2686	41.7842	25.2686	41.2395	25.2686	41.8266	25.2686	41.0139	25.2686	41.8337	25.2686	40.7593	25.2686	41.8079	25.2686	40.4821	25.2686	41.7512	25.2686	40.1897	25.2686	41.6654	25.2686	39.891	25.2686	41.5515	25.2686	39.5957	25.2686	41.4098	25.2686	39.3148	25.2686	41.24	25.2686	39.0601	25.2686	41.0419	25.2686	38.8439	25.2686	40.8155	25.2686	38.6786	25.2686	40.5622	25.2686	38.5756	25.2686	40.2856	25.2686	38.5434	25.2686	39.992	25.2686	38.5863	25.2686	39.6911	25.2686	38.7029	25.2686	39.3959	25.2686	38.8855	25.2686	39.1218
26.3672	40.4787	26.3672	40.5848	26.3672	40.3338	26.3672	40.652	26.3672	40.1518	26.3672	40.6814	26.3672	39.9359	26.3672	40.6748	26.3672	39.6908	26.3672	40.6346	26.3672	39.4227	26.3672	40.5635	26.3672	39.1392	26.3672	40.4635	26.3672	38.8486	26.3672	40.3364	26.3672	38.5606	26.3672	40.1831	26.3672	38.2854	26.3672	40.0043	26.3672	38.0339	26.3672	39.8002	26.3672	37.8175	26.3672	39.5717	26.3672	37.6476	26.3672	39.3208	26.3672	37.5345	26.3672	39.0514	26.3672	37.4865	26.3672	38.77	26.3672	37.5083	26.3672	38.4863	26.3672	37.5996	26.3672	38.2128	26.3672	37.755	26.3672	37.9639
27.0996	40.5775	27.0996	40.6606	27.0996	40.4592	27.0996	40.7088	27.0996	40.3064	27.0996	40.7235	27.0996	40.1214	27.0996	40.7068	27.0996	39.9076	27.0996	40.6615	27.0996	39.67	27.0996	40.5899	27.0996	39.4146	27.0996	40.494	27.0996	39.1489	27.0996	40.3754	27.0996	38.8815	27.0996	40.2346	27.0996	38.6222	27.0996	40.0717	27.0996	38.3816	27.0996	39.8864	27.0996	38.1714	27.0996	39.6793	27.0996	38.0026	27.0996	39.4517	27.0996	37.8859	27.0996	39.2073	27.0996	37.8291	27.0996	38.9522	27.0996	37.8372	27.0996	38.6955	27.0996	37.9101	27.0996	38.4493	27.0996	38.0432	27.0996	38.2271
28.1982	44.8288	28.1982	44.8592	28.1982	44.7809	28.1982	44.8724	28.1982	44.716	28.1982	44.869	28.1982	44.6352	28.1982	44.8503	28.1982	44.5403	28.1982	44.8179	28.1982	44.4337	28.1982	44.773	28.1982	44.3182	28.1982	44.7171	28.1982	44.197	28.1982	44.651	28.1982	44.0739	28.1982	44.5752	28.1982	43.9528	28.1982	44.4903	28.1982	43.8384	28.1982	44.3963	28.1982	43.7352	28.1982	44.294	28.1982	43.6482	28.1982	44.1847	28.1982	43.582	28.1982	44.0706	28.1982	43.5406	28.1982	43.9552	28.1982	43.5268	28.1982	43.8433	28.1982	43.5416	28.1982	43.7402	28.1982	43.5843	28.1982	43.652
29.2969	45.6987	29.2969	45.7013	29.2969	45.6774	29.2969	45.6861	29.2969	45.637	29.2969	45.6541	29.2969	45.5776	29.2969	45.6068	29.2969	45.4997	29.2969	45.5458	29.2969	45.4043	29.2969	45.4725	29.2969	45.2932	29.2969	45.3884	29.2969	45.1685	29.2969	45.2946	29.2969	45.0335	29.2969	45.1921	29.2969	44.8919	29.2969	45.0819	29.2969	44.7488	29.2969	44.9653	29.2969	44.6098	29.2969	44.844	29.2969	44.4811	29.2969	44.7205	29.2969	44.3692	29.2969	44.5983	29.2969	44.2803	29.2969	44.4823	29.2969	44.2194	29.2969	44.3778	29.2969	44.1898	29.2969	44.2911	29.2969	44.193	29.2969	44.2278
30.0293	48.3231	30.0293	48.3188	30.0293	48.3184	30.0293	48.3058	30.0293	48.3046	30.0293	48.2848	30.0293	48.2816	30.0293	48.2565	30.0293	48.25	30.0293	48.2218	30.0293	48.2099	30.0293	48.1816	30.0293	48.1621	30.0293	48.1366	30.0293	48.1073	30.0293	48.0875	30.0293	48.0465	30.0293	48.0349	30.0293	47.9809	30.0293	47.9793	30.0293	47.9124	30.0293	47.9213	30.0293	47.8432	30.0293	47.8618	30.0293	47.7762	30.0293	47.8022	30.0293	47.7145	30.0293	47.7445	30.0293	47.6615	30.0293	47.6913	30.0293	47.6203	30.0293	47.6457	30.0293	47.5937	30.0293	47.6107	30.0293	47.5832	30.0293	47.5892
31.1279	50.7487	31.1279	50.7125	31.1279	50.7724	31.1279	50.6652	31.1279	50.7824	31.1279	50.6085	31.1279	50.7779	31.1279	50.544	31.1279	50.7584	31.1279	50.4736	31.1279	50.7236	31.1279	50.3991	31.1279	50.6741	31.1279	50.3222	31.1279	50.6107	31.1279	50.2446	31.1279	50.5351	31.1279	50.168	31.1279	50.4495	31.1279	50.0939	31.1279	50.3569	31.1279	50.0237	31.1279	50.2606	31.1279	49.959	31.1279	50.1645	31.1279	49.9016	31.1279	50.0726	31.1279	49.8533	31.1279	49.9886	31.1279	49.8161	31.1279	49.916	31.1279	49.792	31.1279	49.8577	31.1279	49.7831	31.1279	49.8155	31.1279	49.7907
32.2266	53.9761	32.2266	53.9474	32.2266	53.9956	32.2266	53.9105	32.2266	54.0049	32.2266	53.8669	32.2266	54.0031	32.2266	53.8179	32.2266	53.9898	32.2266	53.765	32.2266	53.9648	32.2266	53.7096	32.2266	53.9283	32.2266	53.653	32.2266	53.8811	32.2266	53.5965	32.2266	53.8243	32.2266	53.5412	32.2266	53.7598	32.2266	53.4881	32.2266	53.6898	32.2266	53.4382	32.2266	53.6171	32.2266	53.3924	32.2266	53.5447	32.2266	53.3517	32.2266	53.4759	32.2266	53.3174	32.2266	53.4135	32.2266	53.2908	32.2266	53.3602	32.2266	53.2732	32.2266	53.3179	32.2266	53.2661	32.2266	53.2879	32.2266	53.2708
33.3252	56.3842	33.3252	56.3423	33.3252	56.4162	33.3252	56.2922	33.3252	56.4371	33.3252	56.2355	33.3252	56.4457	33.3252	56.1739	33.3252	56.4412	33.3252	56.1091	33.3252	56.423	33.3252	56.0427	33.3252	56.3912	33.3252	55.9764	33.3252	56.3464	33.3252	55.9117	33.3252	56.2897	33.3252	55.8498	33.3252	56.2228	33.3252	55.792	33.3252	56.1481	33.3252	55.7396	33.3252	56.0683	33.3252	55.6937	33.3252	55.9867	33.3252	55.6557	33.3252	55.9066	33.3252	55.6269	33.3252	55.8311	33.3252	55.6084	33.3252	55.7632	33.3252	55.6016	33.3252	55.7054	33.3252	55.6074	33.3252	55.6595	33.3252	55.6267
34.79	58.8292	34.79	58.7963	34.79	58.8548	34.79	58.7573	34.79	58.8717	34.79	58.7138	34.79	58.8789	34.79	58.6672	34.79	58.8758	34.79	58.619	34.79	58.862	34.79	58.5707	34.79	58.8376	34.79	58.5235	34.79	58.8031	34.79	58.4784	34.79	58.7598	34.79	58.4364	34.79	58.7091	34.79	58.3981	34.79	58.6532	34.79	58.3643	34.79	58.5945	34.79	58.3354	34.79	58.5356	34.79	58.3118	34.79	58.4789	34.79	58.294	34.79	58.4267	34.79	58.2826	34.79	58.381	34.79	58.2783	34.79	58.3431	34.79	58.2817	34.79	58.3138	34.79	58.2933
35.8887	60.7285	35.8887	60.6895	35.8887	60.7583	35.8887	60.6429	35.8887	60.7776	35.8887	60.5906	35.8887	60.7853	35.8887	60.5344	35.8887	60.7807	35.8887	60.4759	35.8887	60.7634	35.8887	60.4171	35.8887	60.7337	35.8887	60.3595	35.8887	60.6924	35.8887	60.3045	35.8887	60.641	35.8887	60.2533	35.8887	60.5813	35.8887	60.2071	35.8887	60.5158	35.8887	60.1665	35.8887	60.4472	35.8887	60.1324	35.8887	60.3785	35.8887	60.1052	35.8887	60.3124	35.8887	60.0854	35.8887	60.2514	35.8887	60.0737	35.8887	60.1977	35.8887	60.0705	35.8887	60.1526	35.8887	60.0763	35.8887	60.1172	35.8887	60.0918
36.9873	62.3511	36.9873	62.3076	36.9873	62.3852	36.9873	62.2566	36.9873	62.4086	36.9873	62.1997	36.9873	62.4198	36.9873	62.1389	36.9873	62.4181	36.9873	62.0758	36.9873	62.4028	36.9873	62.0122	36.9873	62.374	36.9873	61.9498	36.9873	62.3323	36.9873	61.8898	36.9873	62.2789	36.9873	61.8337	36.9873	62.2157	36.9873	61.7825	36.9873	62.1452	36.9873	61.7372	36.9873	62.0702	36.9873	61.6988	36.9873	61.9939	36.9873	61.6682	36.9873	61.9193	36.9873	61.6461	36.9873	61.8494	36.9873	61.6334	36.9873	61.7868	36.9873	61.6309	36.9873	61.7334	36.9873	61.6393	36.9873	61.6906	36.9873	61.6592
38.4521	64.4996	38.4521	64.4565	38.4521	64.5356	38.4521	64.4078	38.4521	64.5632	38.4521	64.3552	38.4521	64.581	38.4521	64.3004	38.4521	64.5881	38.4521	64.245	38.4521	64.5841	38.4521	64.1906	38.4521	64.5686	38.4521	64.1387	38.4521	64.5421	38.4521	64.0905	38.4521	64.5052	38.4521	64.0471	38.4521	64.4595	38.4521	64.0096	38.4521	64.4065	38.4521	63.9787	38.4521	64.3485	38.4521	63.9551	38.4521	64.2877	38.4521	63.9391	38.4521	64.2266	38.4521	63.9313	38.4521	64.1674	38.4521	63.9318	38.4521	64.1122	38.4521	63.9409	38.4521	64.0627	38.4521	63.9588	38.4521	64.02	38.4521	63.9852
39.917	66.0822	39.917	66.0404	39.917	66.1163	39.917	65.9923	39.917	66.1413	39.917	65.9395	39.917	66.156	39.917	65.8839	39.917	66.1596	39.917	65.8271	39.917	66.1518	39.917	65.7707	39.917	66.1327	39.917	65.7163	39.917	66.1026	39.917	65.6652	39.917	66.0627	39.917	65.6188	39.917	66.0143	39.917	65.5781	39.917	65.9594	39.917	65.544	39.917	65.8999	39.917	65.5172	39.917	65.8383	39.917	65.4984	39.917	65.7767	39.917	65.4881	39.917	65.7174	39.917	65.4866	39.917	65.6622	39.917	65.4941	39.917	65.6129	39.917	65.5107	39.917	65.5706	39.917	65.5363
41.3818	67.6468	41.3818	67.6012	41.3818	67.6844	41.3818	67.5492	41.3818	67.7125	41.3818	67.4924	41.3818	67.7299	41.3818	67.4325	41.3818	67.7356	41.3818	67.3713	41.3818	67.7291	41.3818	67.3103	41.3818	67.7102	41.3818	67.2511	41.3818	67.6792	41.3818	67.195	41.3818	67.6369	41.3818	67.1435	41.3818	67.5847	41.3818	67.0976	41.3818	67.5244	41.3818	67.0584	41.3818	67.4582	41.3818	67.0269	41.3818	67.3886	41.3818	67.004	41.3818	67.3183	41.3818	66.9903	41.3818	67.25	41.3818	66.9868	41.3818	67.186	41.3818	66.9938	41.3818	67.1287	41.3818	67.0117	41.3818	67.0797	41.3818	67.0404
42.8467	68.8165	42.8467	68.7736	42.8467	68.8524	42.8467	68.7251	42.8467	68.8797	42.8467	68.6727	42.8467	68.8974	42.8467	68.6183	42.8467	68.9045	42.8467	68.5636	42.8467	68.9006	42.8467	68.5101	42.8467	68.8857	42.8467	68.4594	42.8467	68.8604	42.8467	68.4129	42.8467	68.8255	42.8467	68.3717	42.8467	68.7823	42.8467	68.3368	42.8467	68.7327	42.8467	68.3088	42.8467	68.6786	42.8467	68.2882	42.8467	68.6221	42.8467	68.2756	42.8467	68.5652	42.8467	68.271	42.8467	68.5098	42.8467	68.2746	42.8467	68.4576	42.8467	68.2863	42.8467	68.4102	42.8467	68.3061	42.8467	68.3686	42.8467	68.3337
44.3115	69.9307	44.3115	69.8838	44.3115	69.9705	44.3115	69.8314	44.3115	70.0017	44.3115	69.7754	44.3115	70.023	44.3115	69.7177	44.3115	70.0335	44.3115	69.6601	44.3115	70.0329	44.3115	69.6043	44.3115	70.021	44.3115	69.5521	44.3115	69.9983	44.3115	69.5048	44.3115	69.9657	44.3115	69.4637	44.3115	69.9244	44.3115	69.4297	44.3115	69.8763	44.3115	69.4036	44.3115	69.823	44.3115	69.3859	44.3115	69.7665	44.3115	69.377	44.3115	69.7089	44.3115	69.3768	44.3115	69.6518	44.3115	69.3854	44.3115	69.5971	44.3115	69.4024	44.3115	69.5462	44.3115	69.4277	44.3115	69.5003	44.3115	69.4605
45.7764	71.0506	45.7764	71.003	45.7764	71.0919	45.7764	70.9505	45.7764	71.1252	45.7764	70.895	45.7764	71.1493	45.7764	70.8381	45.7764	71.1634	45.7764	70.7816	45.7764	71.1667	45.7764	70.7271	45.7764	71.1592	45.7764	70.6763	45.7764	71.1411	45.7764	70.6305	45.7764	71.113	45.7764	70.5909	45.7764	71.076	45.7764	70.5586	45.7764	71.0316	45.7764	70.5344	45.7764	70.9815	45.7764	70.519	45.7764	70.9273	45.7764	70.5126	45.7764	70.8709	45.7764	70.5155	45.7764	70.8141	45.7764	70.5275	45.7764	70.7585	45.7764	70.5484	45.7764	70.7058	45.7764	70.5774	45.7764	70.6572	45.7764	70.614
47.2412	72.1498	47.2412	72.1029	47.2412	72.1878	47.2412	72.0487	47.2412	72.2152	47.2412	71.9891	47.2412	72.2309	47.2412	71.9259	47.2412	72.234	47.2412	71.8612	47.2412	72.2241	47.2412	71.7967	47.2412	72.2011	47.2412	71.7342	47.2412	72.1659	47.2412	71.6754	47.2412	72.1195	47.2412	71.6217	47.2412	72.0638	47.2412	71.5744	47.2412	72.0008	47.2412	71.5347	47.2412	71.933	47.2412	71.5035	47.2412	71.863	47.2412	71.4815	47.2412	71.7934	47.2412	71.4692	47.2412	71.7265	47.2412	71.4671	47.2412	71.6644	47.2412	71.4754	47.2412	71.6089	47.2412	71.494	47.2412	71.5614	47.2412	71.5228
49.0723	72.9831	49.0723	72.9356	49.0723	73.0225	49.0723	72.8816	49.0723	73.0522	49.0723	72.823	49.0723	73.071	49.0723	72.7616	49.0723	73.0782	49.0723	72.6994	49.0723	73.0732	49.0723	72.6382	49.0723	73.0562	49.0723	72.5797	49.0723	73.0276	49.0723	72.5255	49.0723	72.9886	49.0723	72.4771	49.0723	72.9406	49.0723	72.4357	49.0723	72.8854	49.0723	72.4022	49.0723	72.825	49.0723	72.3774	49.0723	72.7617	49.0723	72.362	49.0723	72.6976	49.0723	72.3564	49.0723	72.6349	49.0723	72.3605	49.0723	72.5752	49.0723	72.3746	49.0723	72.5205	49.0723	72.3982	49.0723	72.4719	49.0723	72.4308
50.9033	73.9211	50.9033	73.8745	50.9033	73.9608	50.9033	73.8229	50.9033	73.9923	50.9033	73.768	50.9033	74.0143	50.9033	73.7117	50.9033	74.0259	50.9033	73.6558	50.9033	74.0267	50.9033	73.602	50.9033	74.0166	50.9033	73.552	50.9033	73.9962	50.9033	73.5072	50.9033	73.9663	50.9033	73.4687	50.9033	73.9281	50.9033	73.4375	50.9033	73.8833	50.9033	73.4142	50.9033	73.8335	50.9033	73.3994	50.9033	73.7806	50.9033	73.3931	50.9033	73.7262	50.9033	73.3955	50.9033	73.6721	50.9033	73.4064	50.9033	73.6197	50.9033	73.4254	50.9033	73.5704	50.9033	73.452	50.9033	73.5253	50.9033	73.4855
52.7344	74.6998	52.7344	74.6541	52.7344	74.7387	52.7344	74.6031	52.7344	74.7692	52.7344	74.5487	52.7344	74.7902	52.7344	74.4927	52.7344	74.801	52.7344	74.4369	52.7344	74.801	52.7344	74.3831	52.7344	74.7904	52.7344	74.333	52.7344	74.7698	52.7344	74.288	52.7344	74.74	52.7344	74.2493	52.7344	74.7024	52.7344	74.218	52.7344	74.6585	52.7344	74.1947	52.7344	74.61	52.7344	74.18	52.7344	74.5586	52.7344	74.1742	52.7344	74.5058	52.7344	74.1771	52.7344	74.4532	52.7344	74.1886	52.7344	74.402	52.7344	74.2083	52.7344	74.3536	52.7344	74.2354	52.7344	74.309	52.7344	74.2693
54.5654	75.528	54.5654	75.4849	54.5654	75.5626	54.5654	75.4347	54.5654	75.5873	54.5654	75.3791	54.5654	75.6012	54.5654	75.3202	54.5654	75.6039	54.5654	75.2597	54.5654	75.5952	54.5654	75.1997	54.5654	75.5756	54.5654	75.1421	54.5654	75.546	54.5654	75.0887	54.5654	75.5076	54.5654	75.041	54.5654	75.462	54.5654	75.0005	54.5654	75.4109	54.5654	74.9683	54.5654	75.3562	54.5654	74.9451	54.5654	75.2997	54.5654	74.9315	54.5654	75.243	54.5654	74.9276	54.5654	75.1876	54.5654	74.9333	54.5654	75.1347	54.5654	74.9483	54.5654	75.0857	54.5654	74.9718	54.5654	75.0415	54.5654	75.0032
56.3965	76.0937	56.3965	76.0459	56.3965	76.1321	56.3965	75.9905	56.3965	76.1596	56.3965	75.9292	56.3965	76.1753	56.3965	75.8641	56.3965	76.1783	56.3965	75.7973	56.3965	76.1686	56.3965	75.7309	56.3965	76.1466	56.3965	75.6668	56.3965	76.1129	56.3965	75.6069	56.3965	76.0692	56.3965	75.5528	56.3965	76.0169	56.3965	75.5062	56.3965	75.9582	56.3965	75.4682	56.3965	75.8951	56.3965	75.4398	56.3965	75.8298	56.3965	75.4217	56.3965	75.7642	56.3965	75.4144	56.3965	75.7001	56.3965	75.418	56.3965	75.6393	56.3965	75.4323	56.3965	75.5832	56.3965	75.4568	56.3965	75.5333	56.3965	75.4908
58.2275	76.4044	58.2275	76.357	58.2275	76.4415	58.2275	76.3011	58.2275	76.467	58.2275	76.2386	58.2275	76.4797	58.2275	76.1717	58.2275	76.479	58.2275	76.1024	58.2275	76.4649	58.2275	76.033	58.2275	76.4379	58.2275	75.9656	58.2275	76.399	58.2275	75.902	58.2275	76.3499	58.2275	75.8442	58.2275	76.2925	58.2275	75.7937	58.2275	76.229	58.2275	75.7518	58.2275	76.1619	58.2275	75.7197	58.2275	76.0933	58.2275	75.6981	58.2275	76.0254	58.2275	75.6875	58.2275	75.96	58.2275	75.688	58.2275	75.8987	58.2275	75.6995	58.2275	75.8431	58.2275	75.7215	58.2275	75.7942	58.2275	75.7533
60.4248	77.4234	60.4248	77.3798	60.4248	77.4594	60.4248	77.3302	60.4248	77.4863	60.4248	77.2766	60.4248	77.5029	60.4248	77.2208	60.4248	77.5085	60.4248	77.1647	60.4248	77.5027	60.4248	77.1099	60.4248	77.4858	60.4248	77.0583	60.4248	77.4584	60.4248	77.011	60.4248	77.4219	60.4248	76.9694	60.4248	77.3778	60.4248	76.9345	60.4248	77.328	60.4248	76.9069	60.4248	77.2745	60.4248	76.8871	60.4248	77.2193	60.4248	76.8756	60.4248	77.1642	60.4248	76.8723	60.4248	77.1109	60.4248	76.8773	60.4248	77.0606	60.4248	76.8903	60.4248	77.0146	60.4248	76.9111	60.4248	76.9738	60.4248	76.9391
62.6221	77.7304	62.6221	77.6839	62.6221	77.7694	62.6221	77.6314	62.6221	77.7993	62.6221	77.5751	62.6221	77.8189	62.6221	77.5168	62.6221	77.8275	62.6221	77.4586	62.6221	77.8248	62.6221	77.4024	62.6221	77.811	62.6221	77.35	62.6221	77.787	62.6221	77.3029	62.6221	77.754	62.6221	77.2625	62.6221	77.7135	62.6221	77.2299	62.6221	77.6673	62.6221	77.2059	62.6221	77.6172	62.6221	77.1909	62.6221	77.5649	62.6221	77.1851	62.6221	77.5121	62.6221	77.1882	62.6221	77.4601	62.6221	77.2	62.6221	77.41	62.6221	77.2198	62.6221	77.3627	62.6221	77.2468	62.6221	77.3191	62.6221	77.2802
64.8193	78.1231	64.8193	78.0769	64.8193	78.1604	64.8193	78.0236	64.8193	78.1873	64.8193	77.9653	64.8193	78.2029	64.8193	77.9038	64.8193	78.2065	64.8193	77.8415	64.8193	78.1981	64.8193	77.7804	64.8193	78.1782	64.8193	77.7225	64.8193	78.1479	64.8193	77.6696	64.8193	78.1087	64.8193	77.6232	64.8193	78.0623	64.8193	77.5846	64.8193	78.0108	64.8193	77.5548	64.8193	77.9561	64.8193	77.5343	64.8193	77.9	64.8193	77.5236	64.8193	77.844	64.8193	77.5226	64.8193	77.7895	64.8193	77.5309	64.8193	77.7375	64.8193	77.5482	64.8193	77.689	64.8193	77.5735	64.8193	77.6448	64.8193	77.606
67.0166	78.5805	67.0166	78.5341	67.0166	78.6174	67.0166	78.48	67.0166	78.6431	67.0166	78.4202	67.0166	78.6564	67.0166	78.357	67.0166	78.6568	67.0166	78.2924	67.0166	78.6441	67.0166	78.2287	67.0166	78.6189	67.0166	78.1677	67.0166	78.5823	67.0166	78.1113	67.0166	78.536	67.0166	78.061	67.0166	78.4822	67.0166	78.0179	67.0166	78.4231	67.0166	77.9832	67.0166	78.3612	67.0166	77.9575	67.0166	78.2987	67.0166	77.9412	67.0166	78.2376	67.0166	77.9344	67.0166	78.1794	67.0166	77.937	67.0166	78.1253	67.0166	77.9488	67.0166	78.0765	67.0166	77.9692	67.0166	78.0337	67.0166	77.9977
69.2139	78.9299	69.2139	78.8814	69.2139	78.9697	69.2139	78.8262	69.2139	78.9991	69.2139	78.7663	69.2139	79.0169	69.2139	78.704	69.2139	79.0222	69.2139	78.6416	69.2139	79.0149	69.2139	78.5811	69.2139	78.9954	69.2139	78.5245	69.2139	78.9649	69.2139	78.4735	69.2139	78.9247	69.2139	78.4294	69.2139	78.8769	69.2139	78.3934	69.2139	78.8238	69.2139	78.3661	69.2139	78.7675	69.2139	78.3479	69.2139	78.71	69.2139	78.339	69.2139	78.6532	69.2139	78.339	69.2139	78.5986	69.2139	78.3477	69.2139	78.5471	69.2139	78.3645	69.2139	78.4996	69.2139	78.3888	69.2139	78.457	69.2139	78.4198
71.7773	79.3135	71.7773	79.2636	71.7773	79.3542	71.7773	79.2066	71.7773	79.3843	71.7773	79.1447	71.7773	79.4024	71.7773	79.0802	71.7773	79.4078	71.7773	79.0155	71.7773	79.4005	71.7773	78.9528	71.7773	79.3809	71.7773	78.8942	71.7773	79.3502	71.7773	78.8416	71.7773	79.3101	71.7773	78.7963	71.7773	79.2625	71.7773	78.7597	71.7773	79.2095	71.7773	78.7325	71.7773	79.1534	71.7773	78.715	71.7773	79.0961	71.7773	78.7074	71.7773	79.0392	71.7773	78.7093	71.7773	78.9841	71.7773	78.7202	71.7773	78.9318	71.7773	78.7394	71.7773	78.8832	71.7773	78.7662	71.7773	78.8388	71.7773	78.7996
74.3408	79.749	74.3408	79.6993	74.3408	79.7888	74.3408	79.6417	74.3408	79.817	74.3408	79.5785	74.3408	79.8322	74.3408	79.5121	74.3408	79.8338	74.3408	79.4449	74.3408	79.8216	74.3408	79.3792	74.3408	79.7963	74.3408	79.3171	74.3408	79.7591	74.3408	79.2604	74.3408	79.7119	74.3408	79.2109	74.3408	79.6572	74.3408	79.1696	74.3408	79.5973	74.3408	79.1375	74.3408	79.5349	74.3408	79.115	74.3408	79.4723	74.3408	79.1022	74.3408	79.4114	74.3408	79.099	74.3408	79.3537	74.3408	79.105	74.3408	79.3003	74.3408	79.1197	74.3408	79.2518	74.3408	79.1424	74.3408	79.209	74.3408	79.1723
76.9043	79.9592	76.9043	79.9072	76.9043	80.0012	76.9043	79.8473	76.9043	80.0312	76.9043	79.7819	76.9043	80.0478	76.9043	79.7132	76.9043	80.05	76.9043	79.6438	76.9043	80.0376	76.9043	79.5757	76.9043	80.0109	76.9043	79.511	76.9043	79.9709	76.9043	79.4514	76.9043	79.9195	76.9043	79.3983	76.9043	79.8589	76.9043	79.3529	76.9043	79.7918	76.9043	79.316	76.9043	79.721	76.9043	79.288	76.9043	79.6495	76.9043	79.2694	76.9043	79.5796	76.9043	79.2602	76.9043	79.5137	76.9043	79.2605	76.9043	79.4534	76.9043	79.2703	76.9043	79.4001	76.9043	79.2893	76.9043	79.3546	76.9043	79.3175
79.834	79.8451	79.834	79.7944	79.834	79.8867	79.834	79.7368	79.834	79.9175	79.834	79.6744	79.834	79.9362	79.834	79.6099	79.834	79.9422	79.834	79.5455	79.834	79.9353	79.834	79.4835	79.834	79.916	79.834	79.426	79.834	79.8854	79.834	79.3747	79.834	79.8452	79.834	79.331	79.834	79.7975	79.834	79.2959	79.834	79.7443	79.834	79.27	79.834	79.6879	79.834	79.2536	79.834	79.6303	79.834	79.2465	79.834	79.5733	79.834	79.2485	79.834	79.5182	79.834	79.2591	79.834	79.4661	79.834	79.2776	79.834	79.4178	79.834	79.3034	79.834	79.3742	79.834	79.3359
82.3975	79.7956	82.3975	79.7396	82.3975	79.8407	82.3975	79.675	82.3975	79.8731	82.3975	79.6043	82.3975	79.8913	82.3975	79.53	82.3975	79.8945	82.3975	79.4547	82.3975	79.8824	82.3975	79.381	82.3975	79.8557	82.3975	79.3111	82.3975	79.8155	82.3975	79.2473	82.3975	79.7637	82.3975	79.1912	82.3975	79.7027	82.3975	79.1443	82.3975	79.6354	82.3975	79.1075	82.3975	79.5645	82.3975	79.0815	82.3975	79.4928	82.3975	79.0665	82.3975	79.4225	82.3975	79.0623	82.3975	79.3556	82.3975	79.0687	82.3975	79.2935	82.3975	79.0851	82.3975	79.2373	82.3975	79.1109	82.3975	79.1876	82.3975	79.1453
85.3271	80.4482	85.3271	80.3937	85.3271	80.4991	85.3271	80.3376	85.3271	80.5443	85.3271	80.2818	85.3271	80.5817	85.3271	80.2279	85.3271	80.6096	85.3271	80.1773	85.3271	80.6263	85.3271	80.1307	85.3271	80.6308	85.3271	80.0891	85.3271	80.6225	85.3271	80.0526	85.3271	80.6015	85.3271	80.0217	85.3271	80.5682	85.3271	79.9965	85.3271	80.5239	85.3271	79.9772	85.3271	80.4705	85.3271	79.9643	85.3271	80.4101	85.3271	79.9582	85.3271	80.3455	85.3271	79.9595	85.3271	80.2794	85.3271	79.9692	85.3271	80.2147	85.3271	79.9877	85.3271	80.154	85.3271	80.0157	85.3271	80.0996	85.3271	80.0531
88.2568	79.8366	88.2568	79.7919	88.2568	79.8775	88.2568	79.7453	88.2568	79.9134	88.2568	79.6997	88.2568	79.9442	88.2568	79.6583	88.2568	79.9705	88.2568	79.6245	88.2568	79.9935	88.2568	79.6016	88.2568	80.015	88.2568	79.5921	88.2568	80.0366	88.2568	79.5981	88.2568	80.0598	88.2568	79.6202	88.2568	80.0853	88.2568	79.6579	88.2568	80.1127	88.2568	79.7095	88.2568	80.141	88.2568	79.772	88.2568	80.1681	88.2568	79.8419	88.2568	80.1912	88.2568	79.915	88.2568	80.2074	88.2568	79.9868	88.2568	80.214	88.2568	80.0533	88.2568	80.2086	88.2568	80.111	88.2568	80.1898	88.2568	80.1571
91.5527	80.8981	91.5527	80.8466	91.5527	80.9337	91.5527	80.7809	91.5527	80.9521	91.5527	80.7035	91.5527	80.9529	91.5527	80.6173	91.5527	80.9364	91.5527	80.5254	91.5527	80.9039	91.5527	80.4311	91.5527	80.8572	91.5527	80.3377	91.5527	80.7987	91.5527	80.2485	91.5527	80.731	91.5527	80.1664	91.5527	80.6569	91.5527	80.0941	91.5527	80.579	91.5527	80.0337	91.5527	80.4994	91.5527	79.9872	91.5527	80.42	91.5527	79.9556	91.5527	80.3422	91.5527	79.9396	91.5527	80.2673	91.5527	79.939	91.5527	80.1963	91.5527	79.9533	91.5527	80.1305	91.5527	79.9812	91.5527	80.0716	91.5527	80.0213
94.8486	81.1559	94.8486	81.0974	94.8486	81.2002	94.8486	81.0273	94.8486	81.2286	94.8486	80.9485	94.8486	81.2396	94.8486	80.8638	94.8486	81.2328	94.8486	80.7763	94.8486	81.2087	94.8486	80.6888	94.8486	81.1683	94.8486	80.6039	94.8486	81.1137	94.8486	80.5239	94.8486	81.0474	94.8486	80.4509	94.8486	80.9723	94.8486	80.3866	94.8486	80.8913	94.8486	80.3323	94.8486	80.8072	94.8486	80.2894	94.8486	80.7224	94.8486	80.2589	94.8486	80.6393	94.8486	80.2417	94.8486	80.5595	94.8486	80.2382	94.8486	80.485	94.8486	80.2487	94.8486	80.4174	94.8486	80.2728	94.8486	80.3585	94.8486	80.3098
98.1445	81.2204	98.1445	81.1591	98.1445	81.2696	98.1445	81.0885	98.1445	81.3048	98.1445	81.0116	98.1445	81.3242	98.1445	80.9314	98.1445	81.3271	98.1445	80.851	98.1445	81.3137	98.1445	80.7733	98.1445	81.2849	98.1445	80.7008	98.1445	81.2422	98.1445	80.6355	98.1445	81.1881	98.1445	80.5792	98.1445	81.1253	98.1445	80.533	98.1445	81.0566	98.1445	80.4975	98.1445	80.9849	98.1445	80.4732	98.1445	80.9125	98.1445	80.46	98.1445	80.8414	98.1445	80.4579	98.1445	80.7732	98.1445	80.4666	98.1445	80.7092	98.1445	80.4856	98.1445	80.6502	98.1445	80.5143	98.1445	80.5975	98.1445	80.5518
101.44	81.0127	101.44	80.9528	101.44	81.0664	101.44	80.8893	101.44	81.1113	101.44	80.8251	101.44	81.1454	101.44	80.7629	101.44	81.1674	101.44	80.7053	101.44	81.1764	101.44	80.6543	101.44	81.1724	101.44	80.6116	101.44	81.1562	101.44	80.578	101.44	81.1292	101.44	80.5542	101.44	81.0933	101.44	80.5401	101.44	81.0507	101.44	80.5352	101.44	81.004	101.44	80.5387	101.44	80.9552	101.44	80.5499	101.44	80.9061	101.44	80.5678	101.44	80.8579	101.44	80.5913	101.44	80.8117	101.44	80.6195	101.44	80.7677	101.44	80.6518	101.44	80.7262	101.44	80.6875
105.103	80.9505	105.103	80.8859	105.103	81.0077	105.103	80.817	105.103	81.0551	105.103	80.7472	105.103	81.0916	105.103	80.6805	105.103	81.1166	105.103	80.6207	105.103	81.1306	105.103	80.5712	105.103	81.1348	105.103	80.5347	105.103	81.1309	105.103	80.5131	105.103	81.1208	105.103	80.5071	105.103	81.1062	105.103	80.5161	105.103	81.0886	105.103	80.5387	105.103	81.0691	105.103	80.5728	105.103	81.0479	105.103	80.6154	105.103	81.0251	105.103	80.6638	105.103	80.9999	105.103	80.7149	105.103	80.9716	105.103	80.7662	105.103	80.9394	105.103	80.8155	105.103	80.9027	105.103	80.8613
108.765	80.9985	108.765	80.9321	108.765	81.0518	108.765	80.8556	108.765	81.0901	108.765	80.7726	108.765	81.1128	108.765	80.6874	108.765	81.12	108.765	80.6046	108.765	81.1131	108.765	80.5287	108.765	81.094	108.765	80.4636	108.765	81.0655	108.765	80.4127	108.765	81.0303	108.765	80.3778	108.765	80.9912	108.765	80.36	108.765	80.9505	108.765	80.3587	108.765	80.9096	108.765	80.3725	108.765	80.8696	108.765	80.399	108.765	80.8303	108.765	80.4353	108.765	80.7913	108.765	80.4783	108.765	80.7515	108.765	80.5252	108.765	80.7103	108.765	80.5734	108.765	80.6668	108.765	80.621
112.793	80.9542	112.793	80.8857	112.793	81.0099	112.793	80.807	112.793	81.051	112.793	80.7217	112.793	81.0767	112.793	80.6338	112.793	81.0872	112.793	80.5479	112.793	81.0836	112.793	80.4685	112.793	81.0677	112.793	80.3997	112.793	81.0416	112.793	80.345	112.793	81.008	112.793	80.3069	112.793	80.9693	112.793	80.2866	112.793	80.9276	112.793	80.2839	112.793	80.8846	112.793	80.2975	112.793	80.8413	112.793	80.3251	112.793	80.7979	112.793	80.3636	112.793	80.7543	112.793	80.4097	112.793	80.7097	112.793	80.4604	112.793	80.6636	112.793	80.5128	112.793	80.6154	112.793	80.5649
116.455	80.8872	116.455	80.8122	116.455	80.9473	116.455	80.7248	116.455	80.991	116.455	80.6286	116.455	81.0177	116.455	80.5281	116.455	81.0283	116.455	80.4281	116.455	81.0242	116.455	80.3341	116.455	81.0079	116.455	80.2511	116.455	80.982	116.455	80.1837	116.455	80.9493	116.455	80.1355	116.455	80.9124	116.455	80.1089	116.455	80.8731	116.455	80.1044	116.455	80.8325	116.455	80.1211	116.455	80.7907	116.455	80.1565	116.455	80.7473	116.455	80.2069	116.455	80.7013	116.455	80.268	116.455	80.6515	116.455	80.3352	116.455	80.597	116.455	80.4046	116.455	80.5373	116.455	80.4727
120.85	80.9037	120.85	80.8435	120.85	80.9471	120.85	80.7687	120.85	80.9727	120.85	80.6824	120.85	80.9804	120.85	80.5882	120.85	80.9711	120.85	80.4906	120.85	80.9466	120.85	80.3941	120.85	80.9095	120.85	80.3033	120.85	80.8627	120.85	80.2224	120.85	80.8094	120.85	80.1552	120.85	80.7523	120.85	80.1043	120.85	80.6938	120.85	80.0714	120.85	80.6354	120.85	80.0569	120.85	80.5781	120.85	80.0598	120.85	80.522	120.85	80.0783	120.85	80.4669	120.85	80.1095	120.85	80.4123	120.85	80.1505	120.85	80.3579	120.85	80.1982	120.85	80.3035	120.85	80.2498
124.878	80.8059	124.878	80.7447	124.878	80.851	124.878	80.6693	124.878	80.8788	124.878	80.5825	124.878	80.8894	124.878	80.4878	124.878	80.8836	124.878	80.3894	124.878	80.863	124.878	80.2915	124.878	80.8298	124.878	80.1986	124.878	80.7865	124.878	80.115	124.878	80.7356	124.878	80.0442	124.878	80.6793	124.878	79.9892	124.878	80.6195	124.878	79.9517	124.878	80.5576	124.878	79.9325	124.878	80.4946	124.878	79.9311	124.878	80.4309	124.878	79.946	124.878	80.367	124.878	79.975	124.878	80.3032	124.878	80.0152	124.878	80.2402	124.878	80.0642	124.878	80.1785	124.878	80.1193
129.272	80.6371	129.272	80.5785	129.272	80.6824	129.272	80.5082	129.272	80.714	129.272	80.4288	129.272	80.7322	129.272	80.3436	129.272	80.7384	129.272	80.2562	129.272	80.7344	129.272	80.171	129.272	80.7226	129.272	80.0922	129.272	80.7051	129.272	80.0237	129.272	80.6835	129.272	79.9692	129.272	80.6587	129.272	79.9313	129.272	80.6308	129.272	79.9118	129.272	80.599	129.272	79.9114	129.272	80.5623	129.272	79.9294	129.272	80.5193	129.272	79.9642	129.272	80.4694	129.272	80.013	129.272	80.4124	129.272	80.0727	129.272	80.3491	129.272	80.1396	129.272	80.2809	129.272	80.2101
134.033	80.6119	134.033	80.5552	134.033	80.6531	134.033	80.4849	134.033	80.6783	134.033	80.4038	134.033	80.6881	134.033	80.3157	134.033	80.6844	134.033	80.225	134.033	80.6699	134.033	80.1364	134.033	80.6477	134.033	80.0548	134.033	80.6211	134.033	79.9846	134.033	80.5928	134.033	79.9295	134.033	80.5644	134.033	79.8923	134.033	80.5363	134.033	79.8746	134.033	80.5078	134.033	79.8766	134.033	80.4773	134.033	79.8974	134.033	80.4428	134.033	79.9345	134.033	80.4027	134.033	79.9848	134.033	80.3556	134.033	80.0445	134.033	80.3015	134.033	80.1096	134.033	80.2411	134.033	80.1762
138.794	80.498	138.794	80.4362	138.794	80.5419	138.794	80.3584	138.794	80.5674	138.794	80.2676	138.794	80.5756	138.794	80.1678	138.794	80.5685	138.794	80.0636	138.794	80.5496	138.794	79.9605	138.794	80.5227	138.794	79.8639	138.794	80.4917	138.794	79.779	138.794	80.4598	138.794	79.7107	138.794	80.4291	138.794	79.6628	138.794	80.3997	138.794	79.6378	138.794	80.3703	138.794	79.6367	138.794	80.3387	138.794	79.6586	138.794	80.302	138.794	79.7011	138.794	80.2575	138.794	79.7604	138.794	80.2037	138.794	79.8318	138.794	80.1404	138.794	79.9102	138.794	80.0685	138.794	79.9906
143.555	80.4114	143.555	80.3473	143.555	80.456	143.555	80.2659	143.555	80.48	143.555	80.1706	143.555	80.4836	143.555	80.0651	143.555	80.4681	143.555	79.954	143.555	80.4363	143.555	79.8421	143.555	80.3919	143.555	79.7344	143.555	80.3391	143.555	79.6359	143.555	80.2823	143.555	79.5513	143.555	80.2247	143.555	79.4847	143.555	80.1687	143.555	79.4394	143.555	80.1149	143.555	79.4172	143.555	80.0624	143.555	79.4184	143.555	80.0092	143.555	79.4418	143.555	79.9532	143.555	79.4842	143.555	79.8926	143.555	79.5417	143.555	79.8265	143.555	79.6093	143.555	79.7557	143.555	79.6821
148.682	80.0502	148.682	79.994	148.682	80.0907	148.682	79.9239	148.682	80.1149	148.682	79.8425	148.682	80.123	148.682	79.7531	148.682	80.1168	148.682	79.6593	148.682	80.0986	148.682	79.565	148.682	80.0714	148.682	79.4743	148.682	80.0383	148.682	79.3909	148.682	80.0018	148.682	79.3188	148.682	79.9635	148.682	79.2612	148.682	79.9237	148.682	79.2212	148.682	79.8819	148.682	79.2008	148.682	79.8367	148.682	79.2008	148.682	79.7863	148.682	79.2209	148.682	79.7297	148.682	79.2592	148.682	79.6664	148.682	79.3127	148.682	79.5971	148.682	79.3775	148.682	79.5238	148.682	79.4493
153.809	79.721	153.809	79.6658	153.809	79.7636	153.809	79.6005	153.809	79.7926	153.809	79.5287	153.809	79.8086	153.809	79.4546	153.809	79.8139	153.809	79.3828	153.809	79.8118	153.809	79.3177	153.809	79.8067	153.809	79.2634	153.809	79.8025	153.809	79.2231	153.809	79.8025	153.809	79.1995	153.809	79.8079	153.809	79.194	153.809	79.8181	153.809	79.2075	153.809	79.8303	153.809	79.2394	153.809	79.8403	153.809	79.2881	153.809	79.8434	153.809	79.351	153.809	79.8354	153.809	79.4242	153.809	79.8131	153.809	79.503	153.809	79.7754	153.809	79.5823	153.809	79.7227	153.809	79.6571
159.302	79.6612	159.302	79.6029	159.302	79.6979	159.302	79.526	159.302	79.7118	159.302	79.4352	159.302	79.7038	159.302	79.3359	159.302	79.6766	159.302	79.2343	159.302	79.635	159.302	79.1366	159.302	79.585	159.302	79.0487	159.302	79.5333	159.302	78.9759	159.302	79.486	159.302	78.9222	159.302	79.4476	159.302	78.8907	159.302	79.4204	159.302	78.8825	159.302	79.404	159.302	78.8974	159.302	79.3954	159.302	78.933	159.302	79.3899	159.302	78.9854	159.302	79.3822	159.302	79.0494	159.302	79.3671	159.302	79.1189	159.302	79.341	159.302	79.1875	159.302	79.3019	159.302	79.25
164.795	79.7215	164.795	79.6687	164.795	79.7528	164.795	79.5967	164.795	79.7619	164.795	79.5095	164.795	79.7503	164.795	79.4122	164.795	79.7214	164.795	79.3105	164.795	79.6799	164.795	79.2107	164.795	79.6318	164.795	79.1185	164.795	79.5829	164.795	79.0393	164.795	79.5382	164.795	78.9773	164.795	79.501	164.795	78.9358	164.795	79.4723	164.795	78.9164	164.795	79.4508	164.795	78.9192	164.795	79.4334	164.795	78.9427	164.795	79.4162	164.795	78.9837	164.795	79.3951	164.795	79.0377	164.795	79.3668	164.795	79.0997	164.795	79.3294	164.795	79.1641	164.795	79.2822	164.795	79.2263
170.654	79.643	170.654	79.5859	170.654	79.6795	170.654	79.5111	170.654	79.6943	170.654	79.4231	170.654	79.6884	170.654	79.327	170.654	79.6645	170.654	79.229	170.654	79.6274	170.654	79.1348	170.654	79.5828	170.654	79.0499	170.654	79.5368	170.654	78.979	170.654	79.4948	170.654	78.9259	170.654	79.4603	170.654	78.8928	170.654	79.4345	170.654	78.8809	170.654	79.4161	170.654	78.8897	170.654	79.4019	170.654	78.9176	170.654	79.3878	170.654	78.9614	170.654	79.3693	170.654	79.017	170.654	79.3431	170.654	79.0794	170.654	79.3071	170.654	79.1439	170.654	79.2609	170.654	79.2056
176.88	79.6344	176.88	79.5759	176.88	79.6719	176.88	79.499	176.88	79.6876	176.88	79.4083	176.88	79.6832	176.88	79.3096	176.88	79.6623	176.88	79.2094	176.88	79.6303	176.88	79.1146	176.88	79.5935	176.88	79.0315	176.88	79.5582	176.88	78.9656	176.88	79.5295	176.88	78.9212	176.88	79.5103	176.88	78.9007	176.88	79.5008	176.88	78.9047	176.88	79.4984	176.88	78.9321	176.88	79.4991	176.88	78.9796	176.88	79.4978	176.88	79.0425	176.88	79.4896	176.88	79.1154	176.88	79.4709	176.88	79.1923	176.88	79.4392	176.88	79.2674	176.88	79.394	176.88	79.3359
183.105	79.676	183.105	79.6198	183.105	79.7084	183.105	79.5428	183.105	79.7164	183.105	79.4498	183.105	79.7021	183.105	79.347	183.105	79.6702	183.105	79.2416	183.105	79.6277	183.105	79.1406	183.105	79.5828	183.105	79.0512	183.105	79.5439	183.105	78.9796	183.105	79.5175	183.105	78.9307	183.105	79.5075	183.105	78.9081	183.105	79.5133	183.105	78.9132	183.105	79.5308	183.105	78.9455	183.105	79.5532	183.105	79.0021	183.105	79.5725	183.105	79.0779	183.105	79.5811	183.105	79.1663	183.105	79.5735	183.105	79.2597	183.105	79.5463	183.105	79.3507	183.105	79.4986	183.105	79.4321
189.331	79.5562	189.331	79.4889	189.331	79.597	189.331	79.399	189.331	79.6099	189.331	79.2926	189.331	79.5964	189.331	79.1769	189.331	79.5605	189.331	79.0603	189.331	79.5093	189.331	78.9512	189.331	79.4513	189.331	78.8572	189.331	79.396	189.331	78.7851	189.331	79.3518	189.331	78.7397	189.331	79.3247	189.331	78.7239	189.331	79.3166	189.331	78.7381	189.331	79.3252	189.331	78.7804	189.331	79.3447	189.331	78.8464	189.331	79.367	189.331	78.9298	189.331	79.3836	189.331	79.023	189.331	79.3873	189.331	79.1176	189.331	79.3726	189.331	79.2057	189.331	79.337	189.331	79.2805
196.289	79.6489	196.289	79.5862	196.289	79.6822	196.289	79.497	196.289	79.6855	196.289	79.3866	196.289	79.6612	196.289	79.2618	196.289	79.6142	196.289	79.1306	196.289	79.5517	196.289	79.0015	196.289	79.4826	196.289	78.8831	196.289	79.4158	196.289	78.7831	196.289	79.359	196.289	78.708	196.289	79.3172	196.289	78.6627	196.289	79.2916	196.289	78.6495	196.289	79.28	196.289	78.6679	196.289	79.2773	196.289	78.7146	196.289	79.2769	196.289	78.7836	196.289	79.2721	196.289	78.8668	196.289	79.2571	196.289	78.9558	196.289	79.2276	196.289	79.0421	196.289	79.1816	196.289	79.1189
202.881	79.7484	202.881	79.6863	202.881	79.7807	202.881	79.5978	202.881	79.7827	202.881	79.4884	202.881	79.7568	202.881	79.3654	202.881	79.7087	202.881	79.2369	202.881	79.6465	202.881	79.1118	202.881	79.58	202.881	78.9984	202.881	79.5194	202.881	78.9045	202.881	79.4731	202.881	78.8365	202.881	79.446	202.881	78.799	202.881	79.4385	202.881	78.7941	202.881	79.4466	202.881	78.8214	202.881	79.4629	202.881	78.8775	202.881	79.4787	202.881	78.9564	202.881	79.4858	202.881	79.05	202.881	79.4774	202.881	79.1494	202.881	79.4495	202.881	79.2457	202.881	79.4004	202.881	79.3313
210.205	79.6488	210.205	79.587	210.205	79.6795	210.205	79.4976	210.205	79.6786	210.205	79.3862	210.205	79.6488	210.205	79.2604	210.205	79.5957	210.205	79.1286	210.205	79.5282	210.205	78.9999	210.205	79.4568	210.205	78.8833	210.205	79.3926	210.205	78.787	210.205	79.3449	210.205	78.718	210.205	79.3193	210.205	78.6816	210.205	79.3166	210.205	78.6804	210.205	79.3324	210.205	78.714	210.205	79.3587	210.205	78.7787	210.205	79.3857	210.205	78.8675	210.205	79.4039	210.205	78.9713	210.205	79.4054	210.205	79.0796	210.205	79.3849	210.205	79.1825	210.205	79.34	210.205	79.2714
217.529	79.481	217.529	79.4213	217.529	79.5076	217.529	79.3321	217.529	79.5003	217.529	79.2197	217.529	79.4622	217.529	79.0922	217.529	79.3999	217.529	78.9585	217.529	79.3233	217.529	78.8281	217.529	79.2448	217.529	78.7099	217.529	79.177	217.529	78.6124	217.529	79.1306	217.529	78.5429	217.529	79.1116	217.529	78.507	217.529	79.1203	217.529	78.5077	217.529	79.1509	217.529	78.5451	217.529	79.1935	217.529	78.6156	217.529	79.2361	217.529	78.7122	217.529	79.2675	217.529	78.8249	217.529	79.2787	217.529	78.9425	217.529	79.2637	217.529	79.0536	217.529	79.22	217.529	79.1485
225.22	79.5983	225.22	79.5363	225.22	79.6218	225.22	79.4402	225.22	79.6056	225.22	79.3173	225.22	79.5527	225.22	79.1765	225.22	79.47	225.22	79.0281	225.22	79.3685	225.22	78.8825	225.22	79.262	225.22	78.7498	225.22	79.1654	225.22	78.639	225.22	79.0921	225.22	78.5581	225.22	79.0508	225.22	78.513	225.22	79.0436	225.22	78.5071	225.22	79.066	225.22	78.5405	225.22	79.1077	225.22	78.609	225.22	79.1557	225.22	78.7047	225.22	79.1971	225.22	78.8166	225.22	79.2209	225.22	78.9322	225.22	79.2193	225.22	79.039	225.22	79.188	225.22	79.1267
233.276	79.5355	233.276	79.4701	233.276	79.5599	233.276	79.3684	233.276	79.5419	233.276	79.2379	233.276	79.4839	233.276	79.0881	233.276	79.3927	233.276	78.9291	233.276	79.2791	233.276	78.7719	233.276	79.1572	233.276	78.6265	233.276	79.0427	233.276	78.5023	233.276	78.9501	233.276	78.4074	233.276	78.8898	233.276	78.3481	233.276	78.8651	233.276	78.3282	233.276	78.8724	233.276	78.3482	233.276	78.9016	233.276	78.4049	233.276	78.94	233.276	78.4908	233.276	78.9741	233.276	78.595	233.276	78.9928	233.276	78.705	233.276	78.9879	233.276	78.8083	233.276	78.9552	233.276	78.8941
241.333	79.2961	241.333	79.2242	241.333	79.3298	241.333	79.1196	241.333	79.323	241.333	78.9901	241.333	79.2772	241.333	78.845	241.333	79.1979	241.333	78.6944	241.333	79.0948	241.333	78.5481	241.333	78.9809	241.333	78.4155	241.333	78.8711	241.333	78.3048	241.333	78.7796	241.333	78.2227	241.333	78.7169	241.333	78.1744	241.333	78.6872	241.333	78.1625	241.333	78.688	241.333	78.1871	241.333	78.7105	241.333	78.2443	241.333	78.7429	241.333	78.3271	241.333	78.7728	241.333	78.4254	241.333	78.7896	241.333	78.5277	241.333	78.7856	241.333	78.6227	241.333	78.7563	241.333	78.701
250.122	79.115	250.122	79.0291	250.122	79.1562	250.122	78.9047	250.122	79.1507	250.122	78.7512	250.122	79.1007	250.122	78.5801	250.122	79.0137	250.122	78.4041	250.122	78.9016	250.122	78.2363	250.122	78.7801	250.122	78.0886	250.122	78.6666	250.122	77.9718	250.122	78.5772	250.122	77.8943	250.122	78.5229	250.122	77.8618	250.122	78.5076	250.122	77.8763	250.122	78.5268	250.122	77.9355	250.122	78.5699	250.122	78.0322	250.122	78.6231	250.122	78.1551	250.122	78.6722	250.122	78.2902	250.122	78.705	250.122	78.4225	250.122	78.7121	250.122	78.539	250.122	78.6876	250.122	78.6294
258.911	79.2812	258.911	79.201	258.911	79.3139	258.911	79.0787	258.911	79.2975	258.911	78.9229	258.911	79.2348	258.911	78.7443	258.911	79.1334	258.911	78.555	258.911	79.0053	258.911	78.3676	258.911	78.8663	258.911	78.1943	258.911	78.7341	258.911	78.0463	258.911	78.6251	258.911	77.9335	258.911	78.5508	258.911	77.8637	258.911	78.5157	258.911	77.8417	258.911	78.5156	258.911	77.8678	258.911	78.54	258.911	77.9373	258.911	78.575	258.911	78.0405	258.911	78.6065	258.911	78.1636	258.911	78.6224	258.911	78.2914	258.911	78.6139	258.911	78.4095	258.911	78.5759	258.911	78.5068
268.066	79.13	268.066	79.0424	268.066	79.169	268.066	78.9116	268.066	79.1583	268.066	78.7465	268.066	79.1014	268.066	78.5585	268.066	79.0072	268.066	78.361	268.066	78.8893	268.066	78.1683	268.066	78.7655	268.066	77.9946	268.066	78.655	268.066	77.8537	268.066	78.5748	268.066	77.7575	268.066	78.536	268.066	77.7154	268.066	78.5408	268.066	77.7317	268.066	78.5821	268.066	77.8051	268.066	78.6459	268.066	77.9272	268.066	78.7156	268.066	78.0835	268.066	78.7749	268.066	78.256	268.066	78.8105	268.066	78.4258	268.066	78.8123	268.066	78.5763	268.066	78.7746	268.066	78.695
277.222	79.3036	277.222	79.2293	277.222	79.3284	277.222	79.111	277.222	79.3026	277.222	78.957	277.222	79.23	277.222	78.7779	277.222	79.1199	277.222	78.5849	277.222	78.9872	277.222	78.3893	277.222	78.8508	277.222	78.2024	277.222	78.7313	277.222	78.0354	277.222	78.6467	277.222	77.9003	277.222	78.608	277.222	77.8089	277.222	78.6162	277.222	77.7717	277.222	78.6618	277.222	77.7951	277.222	78.7282	277.222	77.8785	277.222	78.7961	277.222	78.0124	277.222	78.8477	277.222	78.1801	277.222	78.8688	277.222	78.3604	277.222	78.8498	277.222	78.5323	277.222	78.7862	277.222	78.6783
287.109	79.139	287.109	79.0561	287.109	79.1664	287.109	78.9247	287.109	79.136	287.109	78.7559	287.109	79.0517	287.109	78.5634	287.109	78.9236	287.109	78.3623	287.109	78.7688	287.109	78.1676	287.109	78.6093	287.109	77.9928	287.109	78.4703	287.109	77.8502	287.109	78.3742	287.109	77.7498	287.109	78.3351	287.109	77.6995	287.109	78.3547	287.109	77.7044	287.109	78.422	287.109	77.7651	287.109	78.5172	287.109	77.8761	287.109	78.6179	287.109	78.0257	287.109	78.7034	287.109	78.1971	287.109	78.7578	287.109	78.3708	287.109	78.7703	287.109	78.5278	287.109	78.7354	287.109	78.6529
297.363	79.2756	297.363	79.1917	297.363	79.2963	297.363	79.0513	297.363	79.2523	297.363	78.8661	297.363	79.1484	297.363	78.6506	297.363	78.9963	297.363	78.4217	297.363	78.8145	297.363	78.1968	297.363	78.6269	297.363	77.9926	297.363	78.4605	297.363	77.825	297.363	78.3397	297.363	77.7081	297.363	78.2803	297.363	77.6531	297.363	78.2857	297.363	77.6666	297.363	78.3466	297.363	77.7482	297.363	78.4445	297.363	77.8884	297.363	78.5575	297.363	78.0691	297.363	78.6645	297.363	78.2666	297.363	78.7474	297.363	78.4558	297.363	78.7919	297.363	78.6149	297.363	78.7873	297.363	78.7281
307.617	79.4875	307.617	79.4041	307.617	79.5057	307.617	79.2636	307.617	79.4559	307.617	79.0773	307.617	79.3412	307.617	78.859	307.617	79.1718	307.617	78.6233	307.617	78.9659	307.617	78.3845	307.617	78.7489	307.617	78.1562	307.617	78.5511	307.617	77.9514	307.617	78.4012	307.617	77.7831	307.617	78.319	307.617	77.6646	307.617	78.3085	307.617	77.6077	307.617	78.357	307.617	77.62	307.617	78.4407	307.617	77.7009	307.617	78.533	307.617	77.8391	307.617	78.6104	307.617	78.0141	307.617	78.6558	307.617	78.2006	307.617	78.6581	307.617	78.374	307.617	78.6114	307.617	78.515
318.604	79.1354	318.604	79.0383	318.604	79.1671	318.604	78.8855	318.604	79.1293	318.604	78.6903	318.604	79.0241	318.604	78.4682	318.604	78.8612	318.604	78.2353	318.604	78.6586	318.604	78.0066	318.604	78.4429	318.604	77.7959	318.604	78.2459	318.604	77.6154	318.604	78.0992	318.604	77.4768	318.604	78.0255	318.604	77.3914	318.604	78.0306	318.604	77.3691	318.604	78.102	318.604	77.4151	318.604	78.2138	318.604	77.5265	318.604	78.336	318.604	77.6903	318.604	78.4421	318.604	77.8852	318.604	78.5122	318.604	78.0853	318.604	78.5334	318.604	78.2662	318.604	78.4991	318.604	78.4082
329.956	78.8753	329.956	78.7694	329.956	78.9165	329.956	78.6091	329.956	78.8881	329.956	78.4084	329.956	78.7915	329.956	78.1837	329.956	78.6356	329.956	77.9521	329.956	78.4377	329.956	77.7294	329.956	78.2236	329.956	77.529	329.956	78.025	329.956	77.362	329.956	77.8744	329.956	77.2382	329.956	77.7958	329.956	77.1669	329.956	77.7969	329.956	77.1557	329.956	77.8662	329.956	77.2089	329.956	77.9781	329.956	77.3236	329.956	78.1022	329.956	77.4877	329.956	78.2112	329.956	77.6807	329.956	78.2848	329.956	77.8778	329.956	78.31	329.956	78.0549	329.956	78.2797	329.956	78.193
341.675	79.0416	341.675	78.9366	341.675	79.0778	341.675	78.7735	341.675	79.0401	341.675	78.5675	341.675	78.9306	341.675	78.3366	341.675	78.759	341.675	78.0994	341.675	78.5436	341.675	77.8729	341.675	78.3113	341.675	77.6712	341.675	78.095	341.675	77.5062	341.675	77.9283	341.675	77.388	341.675	77.8374	341.675	77.3263	341.675	77.8323	341.675	77.329	341.675	77.9043	341.675	77.3995	341.675	78.0292	341.675	77.5329	341.675	78.1765	341.675	77.7141	341.675	78.3165	341.675	77.9195	341.675	78.425	341.675	78.1217	341.675	78.4845	341.675	78.295	341.675	78.484	341.675	78.4197
353.394	78.9629	353.394	78.8596	353.394	78.9921	353.394	78.6916	353.394	78.9445	353.394	78.473	353.394	78.8242	353.394	78.2216	353.394	78.644	353.394	77.957	353.394	78.4257	353.394	77.6985	353.394	78.1995	353.394	77.4645	353.394	78.0008	353.394	77.2717	353.394	77.8635	353.394	77.1363	353.394	77.8103	353.394	77.073	353.394	77.8452	353.394	77.0934	353.394	77.9535	353.394	77.2009	353.394	78.1073	353.394	77.3871	353.394	78.2755	353.394	77.6298	353.394	78.4298	353.394	77.8971	353.394	78.5471	353.394	78.1542	353.394	78.6096	353.394	78.3705	353.394	78.6043	353.394	78.5242
365.845	79.0116	365.845	78.9153	365.845	79.0202	365.845	78.7451	365.845	78.9345	365.845	78.5204	365.845	78.7571	365.845	78.263	365.845	78.5023	365.845	77.9942	365.845	78.198	365.845	77.7328	365.845	77.8869	365.845	77.4941	365.845	77.6228	365.845	77.2918	365.845	77.4595	365.845	77.1408	365.845	77.4316	365.845	77.0587	365.845	77.5395	365.845	77.0632	365.845	77.7495	365.845	77.1654	365.845	78.0105	365.845	77.3609	365.845	78.2722	365.845	77.6272	365.845	78.4964	365.845	77.9273	365.845	78.658	365.845	78.2198	365.845	78.7415	365.845	78.468	365.845	78.7384	365.845	78.6457
379.028	79.3395	379.028	79.195	379.028	79.3866	379.028	78.9671	379.028	79.329	379.028	78.6757	379.028	79.1668	379.028	78.3448	379.028	78.9091	379.028	78.0002	379.028	78.5754	379.028	77.6658	379.028	78.1984	379.028	77.362	379.028	77.8246	379.028	77.1057	379.028	77.5094	379.028	76.9122	379.028	77.305	379.028	76.7978	379.028	77.2423	379.028	76.7786	379.028	77.318	379.028	76.8645	379.028	77.498	379.028	77.0508	379.028	77.7325	379.028	77.3132	379.028	77.9716	379.028	77.6119	379.028	78.1735	379.028	77.9007	379.028	78.3068	379.028	78.1379	379.028	78.3501	379.028	78.2931
392.212	79.2877	392.212	79.1294	392.212	79.3552	392.212	78.8956	392.212	79.3239	392.212	78.6066	392.212	79.1932	392.212	78.2857	392.212	78.9722	392.212	77.9563	392.212	78.6803	392.212	77.6383	392.212	78.3489	392.212	77.3472	392.212	78.0201	392.212	77.0952	392.212	77.7414	392.212	76.8954	392.212	77.5543	392.212	76.7649	392.212	77.4803	392.212	76.724	392.212	77.5145	392.212	76.7885	392.212	77.6304	392.212	76.959	392.212	77.792	392.212	77.2129	392.212	77.9637	392.212	77.5083	392.212	78.1141	392.212	77.7955	392.212	78.2155	392.212	78.0305	392.212	78.2443	392.212	78.184
406.128	79.2639	406.128	79.1244	406.128	79.3026	406.128	78.8994	406.128	79.2343	406.128	78.6109	406.128	79.0622	406.128	78.2852	406.128	78.8009	406.128	77.9491	406.128	78.4782	406.128	77.6247	406.128	78.1363	406.128	77.3285	406.128	77.829	406.128	77.0724	406.128	77.6121	406.128	76.8695	406.128	77.5249	406.128	76.739	406.128	77.5736	406.128	76.7056	406.128	77.7296	406.128	76.7904	406.128	77.9448	406.128	76.9962	406.128	78.171	406.128	77.298	406.128	78.3713	406.128	77.6482	406.128	78.5198	406.128	77.9915	406.128	78.5975	406.128	78.2805	406.128	78.5892	406.128	78.484
420.41	79.3623	420.41	79.1615	420.41	79.4512	420.41	78.868	420.41	79.4178	420.41	78.5092	420.41	79.2604	420.41	78.1184	420.41	78.9872	420.41	77.7302	420.41	78.6182	420.41	77.3731	420.41	78.1892	420.41	77.0643	420.41	77.7543	420.41	76.8091	420.41	77.3818	420.41	76.6078	420.41	77.1377	420.41	76.4652	420.41	77.0591	420.41	76.3974	420.41	77.1361	420.41	76.4282	420.41	77.3201	420.41	76.5743	420.41	77.5505	420.41	76.8283	420.41	77.7753	420.41	77.1521	420.41	77.9562	420.41	77.4882	420.41	78.0644	420.41	77.779	420.41	78.0777	420.41	77.9823
435.425	79.4966	435.425	79.317	435.425	79.5649	435.425	79.0417	435.425	79.5151	435.425	78.6944	435.425	79.3484	435.425	78.3055	435.425	79.0754	435.425	77.9082	435.425	78.7174	435.425	77.5329	435.425	78.3097	435.425	77.2016	435.425	77.9031	435.425	76.9268	435.425	77.5592	435.425	76.7154	435.425	77.3361	435.425	76.5761	435.425	77.2657	435.425	76.5239	435.425	77.339	435.425	76.5758	435.425	77.513	435.425	76.7394	435.425	77.7324	435.425	77.0003	435.425	77.9469	435.425	77.3199	435.425	78.1183	435.425	77.6459	435.425	78.2176	435.425	77.9273	435.425	78.2241	435.425	78.1266
450.806	79.225	450.806	79.0374	450.806	79.2935	450.806	78.7457	450.806	79.2363	450.806	78.3733	450.806	79.0543	450.806	77.9517	450.806	78.7572	450.806	77.5179	450.806	78.3667	450.806	77.1089	450.806	77.9205	450.806	76.7556	450.806	77.4753	450.806	76.4795	450.806	77.1017	450.806	76.2944	450.806	76.8654	450.806	76.2116	450.806	76.7986	450.806	76.2428	450.806	76.8857	450.806	76.3941	450.806	77.0775	450.806	76.6557	450.806	77.3198	450.806	76.9941	450.806	77.5703	450.806	77.3561	450.806	77.798	450.806	77.6835	450.806	77.9743	450.806	77.9275	450.806	78.0697	450.806	78.0584
466.553	79.1694	466.553	78.9918	466.553	79.2355	466.553	78.7163	466.553	79.1845	466.553	78.3641	466.553	79.018	466.553	77.9636	466.553	78.7455	466.553	77.5476	466.553	78.3875	466.553	77.1479	466.553	77.9787	466.553	76.7901	466.553	77.571	466.553	76.492	466.553	77.2297	466.553	76.2683	466.553	77.016	466.553	76.1379	466.553	76.9616	466.553	76.1258	466.553	77.0524	466.553	76.2528	466.553	77.2405	466.553	76.5172	466.553	77.4717	466.553	76.8821	466.553	77.704	466.553	77.2839	466.553	77.9086	466.553	77.6525	466.553	78.06	466.553	77.9325	466.553	78.1305	466.553	78.0934
483.032	79.4713	483.032	79.2479	483.032	79.5669	483.032	78.9128	483.032	79.5266	483.032	78.4908	483.032	79.3497	483.032	78.0141	483.032	79.0444	483.032	77.5185	483.032	78.6318	483.032	77.0376	483.032	78.1536	483.032	76.5965	483.032	77.6785	483.032	76.2119	483.032	77.2987	483.032	75.9011	483.032	77.1016	483.032	75.6947	483.032	77.1235	483.032	75.6399	483.032	77.3256	483.032	75.7822	483.032	77.6223	483.032	76.1296	483.032	77.9313	483.032	76.6305	483.032	78.1998	483.032	77.1909	483.032	78.4007	483.032	77.7138	483.032	78.5158	483.032	78.1287	483.032	78.5236	483.032	78.4
499.878	79.6393	499.878	79.3635	499.878	79.7896	499.878	78.9799	499.878	79.804	499.878	78.5141	499.878	79.6779	499.878	77.9996	499.878	79.4136	499.878	77.4742	499.878	79.0231	499.878	76.9732	499.878	78.5345	499.878	76.521	499.878	78.001	499.878	76.1284	499.878	77.5051	499.878	75.8002	499.878	77.146	499.878	75.5503	499.878	76.9979	499.878	75.4136	499.878	77.064	499.878	75.4393	499.878	77.276	499.878	75.6604	499.878	77.5404	499.878	76.0588	499.878	77.7827	499.878	76.5613	499.878	77.9573	499.878	77.0723	499.878	78.0363	499.878	77.51	499.878	77.998	499.878	77.8244
517.456	79.6427	517.456	79.4495	517.456	79.7162	517.456	79.1428	517.456	79.6694	517.456	78.7364	517.456	79.5055	517.456	78.2529	517.456	79.2316	517.456	77.7221	517.456	78.8612	517.456	77.1759	517.456	78.4184	517.456	76.6417	517.456	77.9439	517.456	76.1388	517.456	77.4968	517.456	75.6854	517.456	77.1462	517.456	75.3149	517.456	76.9468	517.456	75.0899	517.456	76.9126	517.456	75.0894	517.456	77.014	517.456	75.3578	517.456	77.2001	517.456	75.853	517.456	77.4224	517.456	76.4567	517.456	77.6379	517.456	77.0349	517.456	77.8007	517.456	77.4874	517.456	77.8587	517.456	77.7638
535.767	79.5136	535.767	79.4393	535.767	79.4733	535.767	79.2554	535.767	79.3186	535.767	78.9736	535.767	79.0545	535.767	78.6143	535.767	78.6951	535.767	78.2064	535.767	78.2688	535.767	77.7819	535.767	77.8262	535.767	77.3662	535.767	77.4409	535.767	76.969	535.767	77.1939	535.767	76.5858	535.767	77.1372	535.767	76.2137	535.767	77.2596	535.767	75.8774	535.767	77.492	535.767	75.6493	535.767	77.7494	535.767	75.6319	535.767	77.9702	535.767	75.888	535.767	78.1274	535.767	76.3721	535.767	78.2143	535.767	76.9495	535.767	78.2208	535.767	77.4809	535.767	78.1205	535.767	77.8797
554.81	79.3493	554.81	79.1802	554.81	79.4115	554.81	78.9204	554.81	79.3522	554.81	78.5882	554.81	79.1597	554.81	78.2073	554.81	78.8293	554.81	77.8084	554.81	78.3697	554.81	77.4237	554.81	77.8113	554.81	77.0755	554.81	77.218	554.81	76.764	554.81	76.6952	554.81	76.467	554.81	76.3745	554.81	76.1588	554.81	76.351	554.81	75.8417	554.81	76.6118	554.81	75.5745	554.81	77.039	554.81	75.4719	554.81	77.4886	554.81	75.6406	554.81	77.8548	554.81	76.0817	554.81	78.0809	554.81	76.6737	554.81	78.1423	554.81	77.2601	554.81	78.0266	554.81	77.7285
574.219	79.09	574.219	78.8959	574.219	79.1524	574.219	78.5919	574.219	79.0712	574.219	78.2079	574.219	78.8469	574.219	77.7823	574.219	78.4946	574.219	77.3598	574.219	78.0457	574.219	76.9859	574.219	77.5488	574.219	76.6932	574.219	77.0664	574.219	76.4868	574.219	76.6653	574.219	76.3418	574.219	76.399	574.219	76.2185	574.219	76.2892	574.219	76.0898	574.219	76.3231	574.219	75.9651	574.219	76.4674	574.219	75.8967	574.219	76.684	574.219	75.9563	574.219	76.9321	574.219	76.1807	574.219	77.1617	574.219	76.5294	574.219	77.3136	574.219	76.9011	574.219	77.3331	574.219	77.1908
594.727	79.8941	594.727	79.6919	594.727	79.9082	594.727	79.3246	594.727	79.7247	594.727	78.8299	594.727	79.3496	594.727	78.2631	594.727	78.8087	594.727	77.6957	594.727	78.1563	594.727	77.2026	594.727	77.484	594.727	76.8349	594.727	76.9176	594.727	76.5924	594.727	76.5798	594.727	76.4243	594.727	76.5199	594.727	76.2635	594.727	76.6781	594.727	76.0711	594.727	76.935	594.727	75.8698	594.727	77.1908	594.727	75.7508	594.727	77.4021	594.727	75.8285	594.727	77.5692	594.727	76.1475	594.727	77.6964	594.727	76.6273	594.727	77.7604	594.727	77.1196	594.727	77.7105	594.727	77.4996
615.601	79.901	615.601	79.7088	615.601	79.9214	615.601	79.3782	615.601	79.7442	615.601	78.9492	615.601	79.3536	615.601	78.4698	615.601	78.7518	615.601	77.9946	615.601	77.9741	615.601	77.5775	615.601	77.1152	615.601	77.2558	615.601	76.3538	615.601	77.0333	615.601	75.9194	615.601	76.879	615.601	75.9441	615.601	76.7466	615.601	76.3395	615.601	76.6066	615.601	76.89	615.601	76.4724	615.601	77.4177	615.601	76.4071	615.601	77.8368	615.601	76.4934	615.601	78.1269	615.601	76.7694	615.601	78.2925	615.601	77.1853	615.601	78.3344	615.601	77.6309	615.601	78.2414	615.601	78.0025
637.207	79.1217	637.207	78.7648	637.207	79.3329	637.207	78.3064	637.207	79.3619	637.207	77.7997	637.207	79.1795	637.207	77.3069	637.207	78.7648	637.207	76.8968	637.207	78.1092	637.207	76.6307	637.207	77.2295	637.207	76.5382	637.207	76.2026	637.207	76.5977	637.207	75.2297	637.207	76.7429	637.207	74.6571	637.207	76.8937	637.207	74.7589	637.207	76.9931	637.207	75.4234	637.207	77.0322	637.207	76.2989	637.207	77.0603	637.207	77.1275	637.207	77.1667	637.207	77.8082	637.207	77.424	637.207	78.3137	637.207	77.8195	637.207	78.6248	637.207	78.2484	637.207	78.7163	637.207	78.5789
659.912	79.263	659.912	78.8825	659.912	79.4403	659.912	78.3145	659.912	79.4081	659.912	77.5898	659.912	79.167	659.912	76.7656	659.912	78.7215	659.912	75.9416	659.912	78.0805	659.912	75.2628	659.912	77.2632	659.912	74.8742	659.912	76.32	659.912	74.8237	659.912	75.3734	659.912	75.0197	659.912	74.6606	659.912	75.3108	659.912	74.4694	659.912	75.5947	659.912	74.8924	659.912	75.8638	659.912	75.7134	659.912	76.1886	659.912	76.6348	659.912	76.6491	659.912	77.4697	659.912	77.249	659.912	78.1365	659.912	77.8894	659.912	78.5948	659.912	78.4283	659.912	78.8095	659.912	78.7532
682.983	80.2528	682.983	79.8043	682.983	80.4553	682.983	79.1325	682.983	80.4055	682.983	78.2793	682.983	80.111	682.983	77.3075	682.983	79.5906	682.983	76.3058	682.983	78.8734	682.983	75.3943	682.983	78.0034	682.983	74.7126	682.983	77.0506	682.983	74.363	682.983	76.1271	682.983	74.3354	682.983	75.3962	682.983	74.5102	682.983	75.0392	682.983	74.7541	682.983	75.1534	682.983	75.009	682.983	75.6629	682.983	75.3118	682.983	76.3693	682.983	75.7432	682.983	77.0774	682.983	76.3331	682.983	77.657	682.983	77.0018	682.983	78.0331	682.983	77.6041	682.983	78.1595	682.983	78.0125
707.153	80.8453	707.153	80.4166	707.153	81.008	707.153	79.7377	707.153	80.9071	707.153	78.848	707.153	80.5557	707.153	77.8154	707.153	79.9727	707.153	76.7385	707.153	79.1819	707.153	75.7407	707.153	78.2209	707.153	74.9461	707.153	77.1566	707.153	74.4337	707.153	76.0984	707.153	74.1991	707.153	75.1917	707.153	74.1654	707.153	74.5871	707.153	74.2463	707.153	74.4039	707.153	74.4195	707.153	74.6991	707.153	74.7589	707.153	75.4214	707.153	75.3718	707.153	76.3895	707.153	76.2499	707.153	77.3584	707.153	77.2104	707.153	78.1121	707.153	78.0109	707.153	78.5064	707.153	78.4715
732.056	79.5006	732.056	79.0431	732.056	79.8037	732.056	78.4466	732.056	79.9293	732.056	77.7245	732.056	79.8478	732.056	76.8998	732.056	79.5292	732.056	76.0257	732.056	78.9565	732.056	75.2058	732.056	78.1484	732.056	74.5836	732.056	77.1901	732.056	74.2636	732.056	76.2561	732.056	74.2115	732.056	75.5696	732.056	74.2598	732.056	75.2646	732.056	74.2227	732.056	75.2984	732.056	74.0123	732.056	75.5542	732.056	73.7321	732.056	75.9587	732.056	73.7239	732.056	76.4636	732.056	74.3189	732.056	76.9777	732.056	75.3774	732.056	77.36	732.056	76.4365	732.056	77.461	732.056	77.1659
757.69	80.0198	757.69	79.5339	757.69	80.3448	757.69	78.9003	757.69	80.4869	757.69	78.1292	757.69	80.4147	757.69	77.2379	757.69	80.0915	757.69	76.2651	757.69	79.4876	757.69	75.2912	757.69	78.6004	757.69	74.4594	757.69	77.493	757.69	73.958	757.69	76.3506	757.69	73.9026	757.69	75.4898	757.69	74.1982	757.69	75.1651	757.69	74.5953	757.69	75.3189	757.69	74.8756	757.69	75.7212	757.69	74.9693	757.69	76.2395	757.69	74.9921	757.69	76.8192	757.69	75.2	757.69	77.3522	757.69	75.7652	757.69	77.6758	757.69	76.5532	757.69	77.6592	757.69	77.2593
784.424	80.3182	784.424	79.9258	784.424	80.4678	784.424	79.2976	784.424	80.3784	784.424	78.4571	784.424	80.0597	784.424	77.4532	784.424	79.5262	784.424	76.3734	784.424	78.7971	784.424	75.3556	784.424	77.9027	784.424	74.5768	784.424	76.9028	784.424	74.1801	784.424	75.9125	784.424	74.1651	784.424	75.1028	784.424	74.3694	784.424	74.613	784.424	74.5778	784.424	74.4266	784.424	74.6444	784.424	74.4132	784.424	74.5671	784.424	74.5256	784.424	74.5242	784.424	74.8709	784.424	74.7884	784.424	75.5003	784.424	75.4293	784.424	76.2012	784.424	76.1661	784.424	76.6481	784.424	76.6385
812.256	79.7313	812.256	79.0937	812.256	80.1991	812.256	78.3304	812.256	80.4479	812.256	77.4659	812.256	80.4324	812.256	76.4943	812.256	80.1122	812.256	75.3848	812.256	79.4489	812.256	74.1269	812.256	78.4097	812.256	72.8382	812.256	77.0005	812.256	71.9129	812.256	75.3659	812.256	71.8571	812.256	73.953	812.256	72.5882	812.256	73.3769	812.256	73.4773	812.256	73.6769	812.256	74.0558	812.256	74.3245	812.256	74.1801	812.256	74.9648	812.256	73.9641	812.256	75.5111	812.256	73.776	812.256	75.9318	812.256	74.0541	812.256	76.1487	812.256	74.7975	812.256	76.053	812.256	75.5757
840.82	79.5203	840.82	79.2082	840.82	79.7996	840.82	78.872	840.82	80.0059	840.82	78.4814	840.82	80.085	840.82	77.9793	840.82	79.9776	840.82	77.3022	840.82	79.6147	840.82	76.3994	840.82	78.9175	840.82	75.2626	840.82	77.8237	840.82	74.0028	840.82	76.3527	840.82	72.9581	840.82	74.7206	840.82	72.562	840.82	73.407	840.82	72.819	840.82	72.8151	840.82	73.2943	840.82	72.8306	840.82	73.6777	840.82	73.2076	840.82	73.9723	840.82	73.9026	840.82	74.3569	840.82	74.7968	840.82	74.9369	840.82	75.5916	840.82	75.5747	840.82	76.0279	840.82	76.0041
870.483	79.4321	870.483	79.2346	870.483	79.5407	870.483	78.9103	870.483	79.593	870.483	78.4318	870.483	79.5935	870.483	77.7887	870.483	79.5014	870.483	76.9876	870.483	79.2347	870.483	76.0452	870.483	78.7027	870.483	74.9961	870.483	77.8543	870.483	73.9431	870.483	76.7404	870.483	73.1202	870.483	75.5872	870.483	72.7798	870.483	74.7682	870.483	72.8702	870.483	74.4718	870.483	73.0377	870.483	74.4638	870.483	73.0032	870.483	74.4591	870.483	72.8144	870.483	74.4668	870.483	72.8821	870.483	74.6684	870.483	73.5454	870.483	75.0512	870.483	74.4901	870.483	75.3182	870.483	75.162
901.245	79.6991	901.245	79.5041	901.245	79.7404	901.245	79.128	901.245	79.6635	901.245	78.5575	901.245	79.495	901.245	77.7926	901.245	79.2333	901.245	76.8435	901.245	78.8442	901.245	75.7263	901.245	78.2794	901.245	74.4763	901.245	77.5047	901.245	73.2182	901.245	76.527	901.245	72.2803	901.245	75.4256	901.245	72.0584	901.245	74.3878	901.245	72.48	901.245	73.6728	901.245	73.0185	901.245	73.4261	901.245	73.2636	901.245	73.5611	901.245	73.1422	901.245	73.9111	901.245	72.9382	901.245	74.3494	901.245	73.1368	901.245	74.7252	901.245	73.8173	901.245	74.832	901.245	74.5113
933.105	79.6198	933.105	79.3935	933.105	79.7255	933.105	79.0214	933.105	79.7183	933.105	78.4648	933.105	79.5838	933.105	77.6808	933.105	79.2832	933.105	76.6465	933.105	78.766	933.105	75.3964	933.105	78.0086	933.105	74.0646	933.105	77.0822	933.105	72.9183	933.105	76.2221	933.105	72.3207	933.105	75.7517	933.105	72.462	933.105	75.7269	933.105	73.0654	933.105	75.8063	933.105	73.6152	933.105	75.6379	933.105	73.7316	933.105	75.1391	933.105	73.2753	933.105	74.4895	933.105	72.4388	933.105	73.9749	933.105	71.9015	933.105	73.709	933.105	72.2361	933.105	73.4756	933.105	72.9706
966.064	79.1944	966.064	78.967	966.064	79.3125	966.064	78.6084	966.064	79.3464	966.064	78.0971	966.064	79.2938	966.064	77.4003	966.064	79.0937	966.064	76.4878	966.064	78.6351	966.064	75.3696	966.064	77.8104	966.064	74.1083	966.064	76.5902	966.064	72.7905	966.064	75.1379	966.064	71.5846	966.064	73.9202	966.064	70.9574	966.064	73.3855	966.064	71.3901	966.064	73.326	966.064	72.4657	966.064	73.2931	966.064	73.35	966.064	73.2249	966.064	73.6118	966.064	73.2549	966.064	73.247	966.064	73.3607	966.064	72.6674	966.064	73.4031	966.064	72.5182	966.064	73.2566	966.064	72.8772
1,000.12	79.2922	1,000.12	79.0512	1,000.12	79.4273	1,000.12	78.7101	1,000.12	79.4494	1,000.12	78.2458	1,000.12	79.348	1,000.12	77.5994	1,000.12	79.0848	1,000.12	76.7208	1,000.12	78.5815	1,000.12	75.6227	1,000.12	77.733	1,000.12	74.3704	1,000.12	76.4499	1,000.12	72.9925	1,000.12	74.7889	1,000.12	71.4678	1,000.12	73.2668	1,000.12	70.0533	1,000.12	72.7713	1,000.12	69.7275	1,000.12	73.1623	1,000.12	70.8839	1,000.12	73.5243	1,000.12	72.3052	1,000.12	73.545	1,000.12	73.1084	1,000.12	73.4211	1,000.12	73.1712	1,000.12	73.3615	1,000.12	72.837	1,000.12	73.3445	1,000.12	72.691	1,000.12	73.2223	1,000.12	72.9309
1,035.28	78.356	1,035.28	78.3988	1,035.28	78.3024	1,035.28	78.3	1,035.28	78.3007	1,035.28	77.91	1,035.28	78.3303	1,035.28	77.1116	1,035.28	78.3057	1,035.28	75.863	1,035.28	78.104	1,035.28	74.2394	1,035.28	77.5856	1,035.28	72.4697	1,035.28	76.6162	1,035.28	70.9322	1,035.28	75.1499	1,035.28	70.045	1,035.28	73.4874	1,035.28	70.0132	1,035.28	72.4891	1,035.28	70.6174	1,035.28	72.537	1,035.28	71.391	1,035.28	72.8643	1,035.28	71.9755	1,035.28	73.023	1,035.28	72.2551	1,035.28	73.1769	1,035.28	72.3457	1,035.28	73.4371	1,035.28	72.5128	1,035.28	73.645	1,035.28	72.9059	1,035.28	73.6379	1,035.28	73.3622
1,071.9	79.5895	1,071.9	79.553	1,071.9	79.5473	1,071.9	79.3689	1,071.9	79.474	1,071.9	78.9488	1,071.9	79.3878	1,071.9	78.214	1,071.9	79.2472	1,071.9	77.1497	1,071.9	78.9342	1,071.9	75.8603	1,071.9	78.2803	1,071.9	74.5361	1,071.9	77.1146	1,071.9	73.2289	1,071.9	75.3748	1,071.9	71.6696	1,071.9	73.4655	1,071.9	69.6309	1,071.9	72.5701	1,071.9	68.2591	1,071.9	72.9662	1,071.9	69.6132	1,071.9	73.4648	1,071.9	71.8311	1,071.9	73.53	1,071.9	73.2275	1,071.9	73.3593	1,071.9	73.669	1,071.9	73.2853	1,071.9	73.5112	1,071.9	73.3929	1,071.9	73.3399	1,071.9	73.496	1,071.9	73.4249
1,109.62	80.4282	1,109.62	80.1464	1,109.62	80.2805	1,109.62	79.4697	1,109.62	79.7345	1,109.62	78.4317	1,109.62	78.9553	1,109.62	77.0432	1,109.62	78.2418	1,109.62	75.3441	1,109.62	77.8384	1,109.62	73.5235	1,109.62	77.6322	1,109.62	71.959	1,109.62	77.1963	1,109.62	70.8322	1,109.62	76.1609	1,109.62	69.6707	1,109.62	74.5407	1,109.62	67.858	1,109.62	73.1309	1,109.62	66.2476	1,109.62	72.9849	1,109.62	67.8363	1,109.62	73.5435	1,109.62	70.7761	1,109.62	73.9335	1,109.62	72.733	1,109.62	74.2108	1,109.62	73.5389	1,109.62	74.5955	1,109.62	73.6822	1,109.62	74.9052	1,109.62	73.915	1,109.62	74.8763	1,109.62	74.4556
1,148.8	78.6067	1,148.8	78.3852	1,148.8	78.7797	1,148.8	78.107	1,148.8	78.8575	1,148.8	77.6766	1,148.8	78.776	1,148.8	76.9215	1,148.8	78.469	1,148.8	75.6479	1,148.8	77.8752	1,148.8	73.769	1,148.8	76.9359	1,148.8	71.6315	1,148.8	75.5696	1,148.8	70.2746	1,148.8	73.7059	1,148.8	69.9537	1,148.8	71.6587	1,148.8	69.3438	1,148.8	70.8498	1,148.8	67.4209	1,148.8	71.9236	1,148.8	65.2524	1,148.8	73.2611	1,148.8	67.7694	1,148.8	74.0203	1,148.8	71.1984	1,148.8	74.2367	1,148.8	72.8323	1,148.8	74.1035	1,148.8	73.0187	1,148.8	73.7518	1,148.8	72.7171	1,148.8	73.2836	1,148.8	72.8255
1,189.09	78.909	1,189.09	78.8927	1,189.09	78.763	1,189.09	78.5528	1,189.09	78.5645	1,189.09	77.7805	1,189.09	78.3055	1,189.09	76.5521	1,189.09	77.9219	1,189.09	74.8879	1,189.09	77.4015	1,189.09	72.8298	1,189.09	76.7592	1,189.09	70.5489	1,189.09	75.8821	1,189.09	68.8731	1,189.09	74.4708	1,189.09	69.0758	1,189.09	72.2479	1,189.09	69.8955	1,189.09	69.8099	1,189.09	69.3688	1,189.09	69.6012	1,189.09	66.8226	1,189.09	71.1636	1,189.09	65.7768	1,189.09	72.3277	1,189.09	69.8187	1,189.09	72.9998	1,189.09	72.6982	1,189.09	73.5167	1,189.09	73.7592	1,189.09	73.774	1,189.09	73.7512	1,189.09	73.6891	1,189.09	73.5803
1,231.2	78.8701	1,231.2	78.5718	1,231.2	78.9137	1,231.2	77.9785	1,231.2	78.7258	1,231.2	77.1321	1,231.2	78.2659	1,231.2	76.1833	1,231.2	77.5085	1,231.2	75.2516	1,231.2	76.5598	1,231.2	74.2033	1,231.2	75.6447	1,231.2	72.6705	1,231.2	74.8612	1,231.2	70.6097	1,231.2	73.9311	1,231.2	69.4627	1,231.2	72.3441	1,231.2	70.1813	1,231.2	69.9579	1,231.2	70.5773	1,231.2	68.5887	1,231.2	69.25	1,231.2	70.2223	1,231.2	66.2377	1,231.2	72.1972	1,231.2	66.6957	1,231.2	73.2962	1,231.2	70.5339	1,231.2	73.7459	1,231.2	72.7827	1,231.2	73.8571	1,231.2	73.5951	1,231.2	73.8128	1,231.2	73.7546
1,274.41	79.0517	1,274.41	78.7037	1,274.41	79.0384	1,274.41	77.9941	1,274.41	78.7355	1,274.41	76.9944	1,274.41	78.2752	1,274.41	75.8602	1,274.41	77.7891	1,274.41	74.7683	1,274.41	77.3097	1,274.41	73.6689	1,274.41	76.6984	1,274.41	72.0966	1,274.41	75.6678	1,274.41	69.5282	1,274.41	73.9167	1,274.41	67.5056	1,274.41	71.4218	1,274.41	69.4045	1,274.41	69.2607	1,274.41	71.4583	1,274.41	69.4306	1,274.41	71.6553	1,274.41	70.8713	1,274.41	69.7744	1,274.41	71.8905	1,274.41	66.8423	1,274.41	72.4974	1,274.41	68.7268	1,274.41	73.2981	1,274.41	72.2223	1,274.41	74.2562	1,274.41	74.1584	1,274.41	74.8807	1,274.41	74.9106
1,319.46	80.1385	1,319.46	79.7564	1,319.46	80.1867	1,319.46	79.0907	1,319.46	79.8901	1,319.46	78.2458	1,319.46	79.2582	1,319.46	77.3465	1,319.46	78.3487	1,319.46	76.4785	1,319.46	77.2931	1,319.46	75.5887	1,319.46	76.2082	1,319.46	74.3306	1,319.46	75.0297	1,319.46	72.0816	1,319.46	73.5142	1,319.46	68.5647	1,319.46	71.4496	1,319.46	67.3444	1,319.46	68.9819	1,319.46	70.0739	1,319.46	67.5617	1,319.46	71.6664	1,319.46	68.9044	1,319.46	71.3599	1,319.46	71.0562	1,319.46	69.5798	1,319.46	72.4925	1,319.46	68.6195	1,319.46	73.1422	1,319.46	70.4962	1,319.46	73.3926	1,319.46	72.4189	1,319.46	73.5201	1,319.46	73.3349
1,365.97	79.4534	1,365.97	79.4146	1,365.97	79.4889	1,365.97	79.2306	1,365.97	79.5557	1,365.97	78.7466	1,365.97	79.5244	1,365.97	77.8959	1,365.97	79.1863	1,365.97	76.8278	1,365.97	78.3962	1,365.97	75.8452	1,365.97	77.1281	1,365.97	74.8092	1,365.97	75.4693	1,365.97	72.8043	1,365.97	73.5726	1,365.97	68.7381	1,365.97	71.4493	1,365.97	65.9168	1,365.97	68.8321	1,365.97	69.6997	1,365.97	66.0966	1,365.97	71.9654	1,365.97	66.7178	1,365.97	72.2612	1,365.97	69.7303	1,365.97	70.9946	1,365.97	71.7238	1,365.97	68.8953	1,365.97	72.6385	1,365.97	69.138	1,365.97	73.0967	1,365.97	71.431	1,365.97	73.3074	1,365.97	72.9034
1,414.31	80.6058	1,414.31	80.1025	1,414.31	80.8549	1,414.31	79.4796	1,414.31	80.671	1,414.31	78.7337	1,414.31	79.9664	1,414.31	77.73	1,414.31	78.8869	1,414.31	76.4024	1,414.31	77.8193	1,414.31	75.041	1,414.31	77.0503	1,414.31	73.9537	1,414.31	76.3557	1,414.31	72.4502	1,414.31	75.1784	1,414.31	69.1863	1,414.31	73.1057	1,414.31	63.5821	1,414.31	70.1466	1,414.31	64.4508	1,414.31	67.174	1,414.31	68.803	1,414.31	66.6651	1,414.31	71.3032	1,414.31	68.8319	1,414.31	72.1028	1,414.31	71.1347	1,414.31	71.4733	1,414.31	72.707	1,414.31	71.0386	1,414.31	73.6753	1,414.31	72.3893	1,414.31	74.1465	1,414.31	73.7887
1,464.11	80.4808	1,464.11	80.1257	1,464.11	80.5797	1,464.11	79.6393	1,464.11	80.4015	1,464.11	79.0439	1,464.11	79.9506	1,464.11	78.0033	1,464.11	79.2366	1,464.11	76.0694	1,464.11	78.3205	1,464.11	73.2131	1,464.11	77.2809	1,464.11	70.6969	1,464.11	76.1238	1,464.11	69.2925	1,464.11	74.7091	1,464.11	66.6144	1,464.11	72.9501	1,464.11	59.6119	1,464.11	71.0553	1,464.11	53.7836	1,464.11	69.7144	1,464.11	66.554	1,464.11	69.7495	1,464.11	71.0404	1,464.11	70.3583	1,464.11	72.3193	1,464.11	71.4117	1,464.11	71.4769	1,464.11	72.6945	1,464.11	70.2219	1,464.11	73.2647	1,464.11	70.8262	1,464.11	73.0566	1,464.11	72.2127
1,515.75	81.586	1,515.75	80.8033	1,515.75	81.6628	1,515.75	79.4916	1,515.75	81.0539	1,515.75	78.047	1,515.75	79.9451	1,515.75	76.7	1,515.75	78.6612	1,515.75	74.9549	1,515.75	77.5153	1,515.75	71.9363	1,515.75	76.5707	1,515.75	67.4874	1,515.75	75.5275	1,515.75	64.1285	1,515.75	74.1166	1,515.75	63.1219	1,515.75	72.5692	1,515.75	62.2038	1,515.75	71.2823	1,515.75	56.482	1,515.75	70.1814	1,515.75	57.9352	1,515.75	69.3339	1,515.75	67.1273	1,515.75	70.192	1,515.75	69.8904	1,515.75	71.8535	1,515.75	70.1995	1,515.75	72.1563	1,515.75	69.8855	1,515.75	71.2445	1,515.75	69.7768	1,515.75	70.2872	1,515.75	69.852
1,569.21	81.5815	1,569.21	80.8579	1,569.21	81.522	1,569.21	79.2673	1,569.21	80.965	1,569.21	77.1246	1,569.21	80.1734	1,569.21	75.2018	1,569.21	79.1352	1,569.21	73.8133	1,569.21	77.647	1,569.21	72.025	1,569.21	75.8021	1,569.21	69.1784	1,569.21	74.2726	1,569.21	66.8252	1,569.21	73.5086	1,569.21	68.0956	1,569.21	72.8522	1,569.21	70.1171	1,569.21	71.3468	1,569.21	69.1979	1,569.21	69.1453	1,569.21	62.0232	1,569.21	68.1183	1,569.21	58.8946	1,569.21	68.2634	1,569.21	68.1522	1,569.21	69.2413	1,569.21	70.062	1,569.21	70.5199	1,569.21	69.3726	1,569.21	71.2107	1,569.21	69.278	1,569.21	71.2264	1,569.21	70.5395
1,624.51	80.066	1,624.51	79.5835	1,624.51	80.2881	1,624.51	78.788	1,624.51	80.1828	1,624.51	77.4872	1,624.51	79.5569	1,624.51	75.5669	1,624.51	78.2365	1,624.51	73.3295	1,624.51	76.3442	1,624.51	70.9844	1,624.51	74.4462	1,624.51	68.2457	1,624.51	73.16	1,624.51	64.9461	1,624.51	72.3578	1,624.51	66.3353	1,624.51	71.443	1,624.51	70.3755	1,624.51	70.1992	1,624.51	71.3941	1,624.51	69.0718	1,624.51	69.2201	1,624.51	68.6274	1,624.51	63.6208	1,624.51	69.0248	1,624.51	67.2627	1,624.51	70.6948	1,624.51	71.281	1,624.51	72.8368	1,624.51	71.7464	1,624.51	74.2196	1,624.51	72.0926	1,624.51	74.5894	1,624.51	73.7592
1,681.64	78.4234	1,681.64	78.1789	1,681.64	78.586	1,681.64	77.4836	1,681.64	78.7356	1,681.64	75.9845	1,681.64	78.5637	1,681.64	73.7559	1,681.64	77.6827	1,681.64	71.7424	1,681.64	75.8648	1,681.64	70.9073	1,681.64	73.1771	1,681.64	70.298	1,681.64	70.6255	1,681.64	67.6813	1,681.64	69.7194	1,681.64	59.9959	1,681.64	69.7134	1,681.64	63.3526	1,681.64	69.8325	1,681.64	68.5477	1,681.64	70.306	1,681.64	70.0014	1,681.64	71.0245	1,681.64	69.0361	1,681.64	71.1952	1,681.64	67.9632	1,681.64	71.6176	1,681.64	69.2004	1,681.64	72.5012	1,681.64	69.1065	1,681.64	72.4317	1,681.64	68.0554	1,681.64	71.3954	1,681.64	69.5324
1,740.97	77.5983	1,740.97	76.3822	1,740.97	78.2151	1,740.97	74.8559	1,740.97	78.3025	1,740.97	73.582	1,740.97	78.0337	1,740.97	72.7446	1,740.97	77.3794	1,740.97	71.8551	1,740.97	76.0932	1,740.97	70.9932	1,740.97	73.9039	1,740.97	70.5306	1,740.97	70.7806	1,740.97	69.2315	1,740.97	67.8761	1,740.97	65.1476	1,740.97	67.1122	1,740.97	55.3779	1,740.97	67.2601	1,740.97	64.4428	1,740.97	67.704	1,740.97	68.7346	1,740.97	69.0155	1,740.97	69.2537	1,740.97	69.0834	1,740.97	67.6458	1,740.97	68.705	1,740.97	65.9906	1,740.97	69.5896	1,740.97	66.4992	1,740.97	69.6167	1,740.97	67.5709	1,740.97	68.6869	1,740.97	68.0428
1,802.49	78.6467	1,802.49	77.2446	1,802.49	79.2402	1,802.49	75.8249	1,802.49	78.795	1,802.49	75.0241	1,802.49	77.7499	1,802.49	74.2791	1,802.49	76.887	1,802.49	72.4322	1,802.49	76.2875	1,802.49	68.9493	1,802.49	75.146	1,802.49	65.7898	1,802.49	72.7989	1,802.49	65.0872	1,802.49	69.6047	1,802.49	62.5379	1,802.49	67.0833	1,802.49	49.9968	1,802.49	65.5508	1,802.49	56.2372	1,802.49	65.1158	1,802.49	62.2591	1,802.49	67.3128	1,802.49	66.7804	1,802.49	68.962	1,802.49	69.4018	1,802.49	70.0484	1,802.49	69.9793	1,802.49	71.8429	1,802.49	69.6538	1,802.49	72.7944	1,802.49	70.1132	1,802.49	72.5749	1,802.49	71.5312
1,866.21	80.5317	1,866.21	79.4394	1,866.21	81.3052	1,866.21	78.4643	1,866.21	81.1809	1,866.21	77.2249	1,866.21	80.1779	1,866.21	75.0543	1,866.21	78.8391	1,866.21	71.3602	1,866.21	77.7251	1,866.21	65.9677	1,866.21	76.4799	1,866.21	58.7076	1,866.21	74.1627	1,866.21	47.9916	1,866.21	70.8391	1,866.21	47.9976	1,866.21	68.6975	1,866.21	52.5441	1,866.21	68.4546	1,866.21	62.4484	1,866.21	67.2839	1,866.21	65.3055	1,866.21	68.41	1,866.21	66.9447	1,866.21	70.2616	1,866.21	67.9439	1,866.21	69.4949	1,866.21	67.8842	1,866.21	69.1035	1,866.21	67.1664	1,866.21	69.4966	1,866.21	66.5184	1,866.21	68.7089	1,866.21	67.2345
1,931.76	81.7577	1,931.76	81.2274	1,931.76	82.2273	1,931.76	80.1103	1,931.76	82.4261	1,931.76	77.6568	1,931.76	81.9011	1,931.76	73.718	1,931.76	80.4017	1,931.76	69.09	1,931.76	78.2856	1,931.76	64.6859	1,931.76	76.3228	1,931.76	58.8999	1,931.76	74.2679	1,931.76	55.5369	1,931.76	71.3871	1,931.76	55.0649	1,931.76	68.1671	1,931.76	60.5787	1,931.76	67.919	1,931.76	66.4913	1,931.76	67.6748	1,931.76	67.843	1,931.76	66.8191	1,931.76	64.9529	1,931.76	69.5008	1,931.76	59.5179	1,931.76	70.7718	1,931.76	66.4067	1,931.76	70.811	1,931.76	68.9448	1,931.76	70.9406	1,931.76	68.134	1,931.76	69.9405	1,931.76	68.0126
1,999.88	80.3027	1,999.88	79.9941	1,999.88	80.9961	1,999.88	79.1429	1,999.88	81.7288	1,999.88	76.802	1,999.88	81.5298	1,999.88	73.2534	1,999.88	80.024	1,999.88	71.5386	1,999.88	77.4927	1,999.88	70.754	1,999.88	74.9859	1,999.88	66.974	1,999.88	73.0403	1,999.88	55.6716	1,999.88	70.5655	1,999.88	52.5293	1,999.88	67.308	1,999.88	48.7924	1,999.88	65.7391	1,999.88	52.0655	1,999.88	64.9786	1,999.88	57.4041	1,999.88	64.3763	1,999.88	51.468	1,999.88	67.6053	1,999.88	55.3243	1,999.88	69.2064	1,999.88	63.6667	1,999.88	69.5691	1,999.88	65.6935	1,999.88	69.9198	1,999.88	65.7071	1,999.88	69.098	1,999.88	67.02
2,070.56	80.8804	2,070.56	79.8167	2,070.56	80.9557	2,070.56	77.4802	2,070.56	80.9146	2,070.56	74.8153	2,070.56	80.8899	2,070.56	73.7684	2,070.56	80.0884	2,070.56	73.1672	2,070.56	77.9352	2,070.56	70.1543	2,070.56	74.7753	2,070.56	64.3291	2,070.56	72.0951	2,070.56	65.2675	2,070.56	70.0906	2,070.56	65.9799	2,070.56	66.8259	2,070.56	62.8423	2,070.56	62.3778	2,070.56	55.0725	2,070.56	62.6614	2,070.56	51.5893	2,070.56	63.4309	2,070.56	53.6796	2,070.56	65.4477	2,070.56	49.702	2,070.56	67.8715	2,070.56	59.797	2,070.56	68.4782	2,070.56	64.5874	2,070.56	68.4755	2,070.56	65.4741	2,070.56	67.6163	2,070.56	65.8734
2,143.43	79.616	2,143.43	78.4508	2,143.43	79.7974	2,143.43	76.4125	2,143.43	79.302	2,143.43	73.9924	2,143.43	78.5073	2,143.43	71.5965	2,143.43	77.4621	2,143.43	69.3952	2,143.43	75.8933	2,143.43	67.2506	2,143.43	73.6862	2,143.43	66.5778	2,143.43	71.3402	2,143.43	66.8927	2,143.43	69.4889	2,143.43	65.8364	2,143.43	67.5481	2,143.43	63.3353	2,143.43	64.6933	2,143.43	60.2691	2,143.43	61.2116	2,143.43	58.995	2,143.43	62.0881	2,143.43	58.5057	2,143.43	65.0295	2,143.43	51.3404	2,143.43	67.8178	2,143.43	58.7027	2,143.43	68.4426	2,143.43	65.3608	2,143.43	66.9889	2,143.43	66.5465	2,143.43	65.2608	2,143.43	65.1697
2,219.24	78.9953	2,219.24	77.9052	2,219.24	79.2282	2,219.24	76.0936	2,219.24	78.6738	2,219.24	73.7276	2,219.24	77.6886	2,219.24	70.5473	2,219.24	76.5376	2,219.24	66.5892	2,219.24	74.8702	2,219.24	63.7272	2,219.24	72.2503	2,219.24	63.9333	2,219.24	69.2949	2,219.24	64.4783	2,219.24	67.4969	2,219.24	64.6364	2,219.24	66.7041	2,219.24	63.6717	2,219.24	65.9975	2,219.24	60.8831	2,219.24	65.2119	2,219.24	56.934	2,219.24	64.7208	2,219.24	62.3261	2,219.24	65.36	2,219.24	62.6694	2,219.24	67.5342	2,219.24	55.886	2,219.24	68.5448	2,219.24	64.2544	2,219.24	68.0002	2,219.24	67.6732	2,219.24	67.2144	2,219.24	67.6224
2,297.24	77.6511	2,297.24	76.9864	2,297.24	78.1593	2,297.24	76.1934	2,297.24	78.1426	2,297.24	74.5657	2,297.24	77.4196	2,297.24	71.9082	2,297.24	75.9251	2,297.24	70.101	2,297.24	73.6002	2,297.24	69.5323	2,297.24	70.2441	2,297.24	68.0154	2,297.24	66.3759	2,297.24	64.1713	2,297.24	65.6494	2,297.24	61.502	2,297.24	66.4814	2,297.24	63.8527	2,297.24	66.1215	2,297.24	65.183	2,297.24	66.3978	2,297.24	61.7337	2,297.24	67.4251	2,297.24	62.5761	2,297.24	66.8307	2,297.24	65.3241	2,297.24	68.4594	2,297.24	61.8423	2,297.24	69.8531	2,297.24	61.6565	2,297.24	68.7849	2,297.24	67.1466	2,297.24	67.4585	2,297.24	67.8705
2,378.54	75.439	2,378.54	74.7892	2,378.54	75.4649	2,378.54	73.4858	2,378.54	75.0977	2,378.54	72.1752	2,378.54	74.4226	2,378.54	71.4317	2,378.54	73.4634	2,378.54	69.9214	2,378.54	72.1052	2,378.54	66.3045	2,378.54	69.7705	2,378.54	61.2274	2,378.54	65.8038	2,378.54	61.6682	2,378.54	62.2355	2,378.54	63.1356	2,378.54	62.827	2,378.54	62.1299	2,378.54	62.2027	2,378.54	61.5032	2,378.54	61.644	2,378.54	56.996	2,378.54	64.9568	2,378.54	58.5634	2,378.54	65.4603	2,378.54	64.8889	2,378.54	67.2223	2,378.54	65.4318	2,378.54	69.0449	2,378.54	62.6106	2,378.54	68.5022	2,378.54	65.9119	2,378.54	67.8241	2,378.54	67.9193
2,462.4	77.1091	2,462.4	76.269	2,462.4	77.3032	2,462.4	75.2476	2,462.4	76.697	2,462.4	74.2352	2,462.4	75.7166	2,462.4	72.6868	2,462.4	74.97	2,462.4	69.7713	2,462.4	74.3094	2,462.4	66.4066	2,462.4	72.8654	2,462.4	65.4013	2,462.4	69.9762	2,462.4	64.8241	2,462.4	65.7479	2,462.4	63.4949	2,462.4	64.5117	2,462.4	61.4706	2,462.4	65.4734	2,462.4	61.3454	2,462.4	64.1969	2,462.4	61.2049	2,462.4	64.5647	2,462.4	54.228	2,462.4	63.6553	2,462.4	60.9156	2,462.4	64.1047	2,462.4	65.7719	2,462.4	66.0371	2,462.4	65.7463	2,462.4	65.1707	2,462.4	65.2462	2,462.4	64.7244	2,462.4	65.5445
2,549.19	79.3019	2,549.19	79.5245	2,549.19	79.1131	2,549.19	79.0241	2,549.19	78.8722	2,549.19	77.3243	2,549.19	77.8646	2,549.19	74.5421	2,549.19	76.2179	2,549.19	72.4865	2,549.19	75.1023	2,549.19	72.8233	2,549.19	74.4704	2,549.19	72.5224	2,549.19	72.9691	2,549.19	70.1937	2,549.19	69.7099	2,549.19	66.0604	2,549.19	66.4171	2,549.19	63.1352	2,549.19	66.1473	2,549.19	64.0814	2,549.19	66.7346	2,549.19	64.4191	2,549.19	68.0395	2,549.19	62.0193	2,549.19	66.1772	2,549.19	60.7948	2,549.19	65.0177	2,549.19	63.4624	2,549.19	67.4557	2,549.19	67.2999	2,549.19	66.7496	2,549.19	69.1647	2,549.19	65.9059	2,549.19	67.9736
2,638.92	80.9733	2,638.92	81.2069	2,638.92	80.4147	2,638.92	80.3561	2,638.92	80.0432	2,638.92	78.2458	2,638.92	79.3073	2,638.92	75.7882	2,638.92	77.6341	2,638.92	74.9219	2,638.92	75.6422	2,638.92	74.7184	2,638.92	74.5338	2,638.92	72.9892	2,638.92	73.7004	2,638.92	68.9157	2,638.92	71.593	2,638.92	64.8683	2,638.92	67.2536	2,638.92	64.5757	2,638.92	63.5986	2,638.92	66.0419	2,638.92	65.766	2,638.92	65.0354	2,638.92	67.8941	2,638.92	61.4368	2,638.92	66.6953	2,638.92	63.2048	2,638.92	64.5957	2,638.92	64.0555	2,638.92	65.8692	2,638.92	65.1371	2,638.92	64.7737	2,638.92	68.5475	2,638.92	65.0739	2,638.92	68.1096
2,731.93	80.0742	2,731.93	79.9582	2,731.93	79.5574	2,731.93	78.8483	2,731.93	78.6228	2,731.93	76.8173	2,731.93	77.5003	2,731.93	75.2263	2,731.93	76.3291	2,731.93	74.5593	2,731.93	74.9922	2,731.93	73.0949	2,731.93	73.6733	2,731.93	70.8271	2,731.93	72.8234	2,731.93	70.3615	2,731.93	71.6338	2,731.93	70.0312	2,731.93	68.0985	2,731.93	68.2237	2,731.93	62.8957	2,731.93	66.9118	2,731.93	66.6078	2,731.93	65.2153	2,731.93	68.7777	2,731.93	61.5482	2,731.93	67.78	2,731.93	65.5167	2,731.93	67.0741	2,731.93	68.4924	2,731.93	66.7793	2,731.93	66.9161	2,731.93	64.0755	2,731.93	68.3846	2,731.93	64.9613	2,731.93	68.4131
2,828.25	76.9472	2,828.25	77.1187	2,828.25	76.3299	2,828.25	76.3024	2,828.25	75.8542	2,828.25	74.7819	2,828.25	75.1504	2,828.25	73.6667	2,828.25	73.7205	2,828.25	72.7042	2,828.25	71.8729	2,828.25	71.4246	2,828.25	70.2921	2,828.25	70.8642	2,828.25	68.7376	2,828.25	70.4663	2,828.25	66.9283	2,828.25	67.8642	2,828.25	64.1411	2,828.25	62.9052	2,828.25	56.3853	2,828.25	61.737	2,828.25	64.1028	2,828.25	63.0685	2,828.25	68.5042	2,828.25	61.209	2,828.25	67.1522	2,828.25	63.4431	2,828.25	66.6188	2,828.25	66.8222	2,828.25	66.7522	2,828.25	66.5018	2,828.25	63.8559	2,828.25	67.8176	2,828.25	65.7293	2,828.25	68.376
2,928.22	78.7783	2,928.22	78.6092	2,928.22	77.0798	2,928.22	76.9541	2,928.22	74.9996	2,928.22	75.157	2,928.22	74.507	2,928.22	73.9842	2,928.22	74.3026	2,928.22	72.6878	2,928.22	73.5699	2,928.22	71.9248	2,928.22	73.0104	2,928.22	71.8642	2,928.22	71.5624	2,928.22	70.4182	2,928.22	67.0295	2,928.22	66.7928	2,928.22	59.7268	2,928.22	63.1183	2,928.22	52.3372	2,928.22	62.0418	2,928.22	56.4643	2,928.22	62.1195	2,928.22	66.733	2,928.22	58.613	2,928.22	67.0025	2,928.22	62.8196	2,928.22	65.4317	2,928.22	68.0821	2,928.22	66.2426	2,928.22	67.7637	2,928.22	64.4154	2,928.22	68.8575	2,928.22	68.0268	2,928.22	70.508
3,031.49	81.0426	3,031.49	80.3355	3,031.49	79.9493	3,031.49	78.4455	3,031.49	78.1289	3,031.49	77.3679	3,031.49	77.4601	3,031.49	76.8349	3,031.49	77.2546	3,031.49	75.655	3,031.49	75.7891	3,031.49	74.235	3,031.49	73.5838	3,031.49	72.6625	3,031.49	71.915	3,031.49	69.9454	3,031.49	69.1973	3,031.49	67.6608	3,031.49	65.0637	3,031.49	67.9561	3,031.49	59.3586	3,031.49	68.724	3,031.49	59.0955	3,031.49	67.9982	3,031.49	66.5913	3,031.49	62.7243	3,031.49	67.1115	3,031.49	60.4653	3,031.49	63.7738	3,031.49	67.8273	3,031.49	65.295	3,031.49	68.9741	3,031.49	65.0753	3,031.49	68.9934	3,031.49	67.3933	3,031.49	69.4665
3,138.43	81.6921	3,138.43	81.2025	3,138.43	81.085	3,138.43	80.5494	3,138.43	79.2849	3,138.43	80.1269	3,138.43	78.078	3,138.43	79.2404	3,138.43	78.5852	3,138.43	77.2491	3,138.43	78.0045	3,138.43	73.6954	3,138.43	75.5148	3,138.43	69.4448	3,138.43	72.1369	3,138.43	68.5992	3,138.43	70.2316	3,138.43	69.2281	3,138.43	67.187	3,138.43	67.501	3,138.43	56.0124	3,138.43	68.0694	3,138.43	59.2909	3,138.43	68.1868	3,138.43	65.8615	3,138.43	64.2903	3,138.43	67.7087	3,138.43	58.2164	3,138.43	64.1387	3,138.43	67.8728	3,138.43	65.3481	3,138.43	68.175	3,138.43	65.6578	3,138.43	67.098	3,138.43	66.3523	3,138.43	67.285
3,249.02	80.5674	3,249.02	80.6481	3,249.02	79.5502	3,249.02	79.3313	3,249.02	77.695	3,249.02	77.4744	3,249.02	74.7442	3,249.02	76.5375	3,249.02	72.9902	3,249.02	75.0622	3,249.02	74.4532	3,249.02	70.4092	3,249.02	74.7179	3,249.02	66.6736	3,249.02	70.6634	3,249.02	67.9209	3,249.02	62.8264	3,249.02	66.2526	3,249.02	60.61	3,249.02	60.2979	3,249.02	58.5769	3,249.02	55.5982	3,249.02	57.7591	3,249.02	61.9762	3,249.02	64.4477	3,249.02	63.4136	3,249.02	62.7067	3,249.02	57.7041	3,249.02	62.1049	3,249.02	61.682	3,249.02	57.4693	3,249.02	63.029	3,249.02	57.6136	3,249.02	64.027	3,249.02	63.6923	3,249.02	66.1347
3,363.65	75.7451	3,363.65	74.9128	3,363.65	74.4889	3,363.65	73.4879	3,363.65	71.4941	3,363.65	72.7565	3,363.65	69.1628	3,363.65	71.384	3,363.65	69.245	3,363.65	68.9518	3,363.65	69.608	3,363.65	69.369	3,363.65	69.8804	3,363.65	70.5479	3,363.65	68.9305	3,363.65	68.0673	3,363.65	66.7055	3,363.65	62.268	3,363.65	66.0062	3,363.65	57.3647	3,363.65	62.424	3,363.65	50.011	3,363.65	57.6552	3,363.65	59.4203	3,363.65	64.5855	3,363.65	61.6186	3,363.65	65.1142	3,363.65	55.9567	3,363.65	64.5579	3,363.65	63.3916	3,363.65	62.3862	3,363.65	66.8079	3,363.65	56.9056	3,363.65	67.0305	3,363.65	62.5476	3,363.65	67.3483
3,482.3	77.0194	3,482.3	76.348	3,482.3	76.7502	3,482.3	76.0332	3,482.3	74.8491	3,482.3	75.6359	3,482.3	71.3748	3,482.3	74.1381	3,482.3	70.4471	3,482.3	72.6698	3,482.3	71.2987	3,482.3	70.8095	3,482.3	70.8973	3,482.3	67.4082	3,482.3	69.2494	3,482.3	68.1395	3,482.3	69.4795	3,482.3	69.1756	3,482.3	70.717	3,482.3	66.9321	3,482.3	67.8887	3,482.3	63.3983	3,482.3	56.3457	3,482.3	65.4316	3,482.3	61.652	3,482.3	65.3227	3,482.3	66.312	3,482.3	62.9931	3,482.3	64.9699	3,482.3	65.6289	3,482.3	65.1222	3,482.3	68.4454	3,482.3	64.2674	3,482.3	68.8076	3,482.3	65.305	3,482.3	67.7478
3,604.98	82.1356	3,604.98	81.7316	3,604.98	81.8035	3,604.98	80.8961	3,604.98	80.024	3,604.98	79.3139	3,604.98	77.0498	3,604.98	77.0452	3,604.98	75.686	3,604.98	73.4461	3,604.98	75.3095	3,604.98	71.3993	3,604.98	71.7874	3,604.98	67.1323	3,604.98	62.6437	3,604.98	64.7737	3,604.98	66.1847	3,604.98	68.5733	3,604.98	71.2807	3,604.98	65.5705	3,604.98	66.0422	3,604.98	62.1426	3,604.98	59.8633	3,604.98	64.3467	3,604.98	61.7202	3,604.98	66.3259	3,604.98	68.2134	3,604.98	64.7371	3,604.98	65.8348	3,604.98	64.3109	3,604.98	65.28	3,604.98	67.023	3,604.98	65.3199	3,604.98	66.5944	3,604.98	68.9681	3,604.98	68.4929
3,732.06	79.5675	3,732.06	79.2619	3,732.06	78.4932	3,732.06	77.3595	3,732.06	78.3148	3,732.06	76.5401	3,732.06	77.7624	3,732.06	75.7354	3,732.06	74.4304	3,732.06	71.2565	3,732.06	69.6863	3,732.06	66.2264	3,732.06	69.6806	3,732.06	67.7864	3,732.06	70.5604	3,732.06	67.7286	3,732.06	67.7254	3,732.06	63.4626	3,732.06	64.9372	3,732.06	59.3297	3,732.06	63.6763	3,732.06	63.4887	3,732.06	54.5879	3,732.06	59.8193	3,732.06	58.1181	3,732.06	64.0437	3,732.06	61.9462	3,732.06	63.0735	3,732.06	60.7866	3,732.06	59.5303	3,732.06	55.0537	3,732.06	65.1387	3,732.06	56.4266	3,732.06	66.6161	3,732.06	65.8182	3,732.06	68.0752
3,863.89	67.838	3,863.89	67.6576	3,863.89	67.7013	3,863.89	67.5006	3,863.89	65.6664	3,863.89	65.3752	3,863.89	63.3475	3,863.89	62.8492	3,863.89	63.1943	3,863.89	64.7403	3,863.89	62.953	3,863.89	65.4716	3,863.89	61.2729	3,863.89	61.5621	3,863.89	60.8293	3,863.89	58.4346	3,863.89	63.9547	3,863.89	60.3159	3,863.89	63.3079	3,863.89	62.2491	3,863.89	54.8191	3,863.89	57.5375	3,863.89	51.509	3,863.89	58.0643	3,863.89	56.3133	3,863.89	61.5438	3,863.89	56.8832	3,863.89	60.787	3,863.89	52.5354	3,863.89	58.7621	3,863.89	56.7582	3,863.89	63.2714	3,863.89	60.1346	3,863.89	64.432	3,863.89	63.3378	3,863.89	64.8248
4,000.12	82.5589	4,000.12	83.0364	4,000.12	82.1173	4,000.12	82.1347	4,000.12	81.369	4,000.12	79.563	4,000.12	78.8397	4,000.12	78.3102	4,000.12	76.4177	4,000.12	79.2342	4,000.12	77.4372	4,000.12	78.6511	4,000.12	78.8001	4,000.12	76.4298	4,000.12	77.028	4,000.12	74.6723	4,000.12	73.7254	4,000.12	72.3192	4,000.12	71.3041	4,000.12	67.2695	4,000.12	65.5481	4,000.12	61.6388	4,000.12	59.3833	4,000.12	57.7732	4,000.12	64.0868	4,000.12	63.6842	4,000.12	61.6314	4,000.12	67.6445	4,000.12	56.8577	4,000.12	64.9417	4,000.12	59.8949	4,000.12	68.6276	4,000.12	63.7336	4,000.12	68.724	4,000.12	67.3048	4,000.12	68.3273
4,141.11	82.3665	4,141.11	82.8616	4,141.11	81.4707	4,141.11	82.2198	4,141.11	79.9154	4,141.11	80.3648	4,141.11	77.5009	4,141.11	79.8605	4,141.11	76.2471	4,141.11	80.4307	4,141.11	77.1565	4,141.11	79.7487	4,141.11	77.2174	4,141.11	77.7683	4,141.11	74.698	4,141.11	75.241	4,141.11	70.7167	4,141.11	71.0574	4,141.11	67.8975	4,141.11	66.0147	4,141.11	64.9539	4,141.11	64.8732	4,141.11	61.0522	4,141.11	63.8641	4,141.11	62.1537	4,141.11	66.2148	4,141.11	63.5215	4,141.11	67.5042	4,141.11	60.4278	4,141.11	66.2647	4,141.11	58.5227	4,141.11	68.0888	4,141.11	62.4529	4,141.11	69.3957	4,141.11	66.1739	4,141.11	69.1035
4,287.23	77.8565	4,287.23	78.4585	4,287.23	76.6152	4,287.23	77.3813	4,287.23	75.1104	4,287.23	75.8561	4,287.23	72.901	4,287.23	76.7153	4,287.23	71.799	4,287.23	77.4386	4,287.23	72.7455	4,287.23	75.9167	4,287.23	71.9487	4,287.23	73.0125	4,287.23	68.0269	4,287.23	71.5661	4,287.23	65.8137	4,287.23	69.3482	4,287.23	68.2321	4,287.23	65.1818	4,287.23	67.3446	4,287.23	62.3525	4,287.23	58.8531	4,287.23	61.1601	4,287.23	48.7253	4,287.23	62.8146	4,287.23	58.6614	4,287.23	64.3693	4,287.23	59.5874	4,287.23	63.0982	4,287.23	52.9672	4,287.23	64.9961	4,287.23	61.6685	4,287.23	65.883	4,287.23	65.7719	4,287.23	66.367
4,438.11	83.1258	4,438.11	82.3673	4,438.11	81.9692	4,438.11	80.8091	4,438.11	78.9015	4,438.11	80.336	4,438.11	75.6637	4,438.11	80.1073	4,438.11	76.1392	4,438.11	78.7989	4,438.11	77.966	4,438.11	77.2108	4,438.11	77.2901	4,438.11	76.2987	4,438.11	73.8374	4,438.11	74.5477	4,438.11	70.4552	4,438.11	70.2368	4,438.11	68.9883	4,438.11	64.9142	4,438.11	66.0683	4,438.11	63.3801	4,438.11	49.6355	4,438.11	62.7698	4,438.11	63.6094	4,438.11	63.7673	4,438.11	59.1221	4,438.11	67.3245	4,438.11	60.6044	4,438.11	67.2379	4,438.11	59.5571	4,438.11	68.0203	4,438.11	63.8433	4,438.11	70.9668	4,438.11	66.9689	4,438.11	69.8488
4,594.85	81.7807	4,594.85	81.4446	4,594.85	80.9847	4,594.85	80.6755	4,594.85	79.2207	4,594.85	80.6551	4,594.85	76.8658	4,594.85	80.8049	4,594.85	75.9142	4,594.85	79.6267	4,594.85	76.5718	4,594.85	76.8228	4,594.85	76.0929	4,594.85	73.9856	4,594.85	73.4178	4,594.85	71.8978	4,594.85	71.9181	4,594.85	68.8619	4,594.85	72.6576	4,594.85	65.0225	4,594.85	70.6581	4,594.85	63.8398	4,594.85	61.1283	4,594.85	62.4615	4,594.85	65.2574	4,594.85	60.9938	4,594.85	65.5025	4,594.85	65.3893	4,594.85	64.1042	4,594.85	66.3298	4,594.85	61.8782	4,594.85	67.8487	4,594.85	62.1296	4,594.85	69.8306	4,594.85	63.6246	4,594.85	68.2136
4,756.71	81.0062	4,756.71	80.7583	4,756.71	80.425	4,756.71	80.1205	4,756.71	78.5941	4,756.71	79.9199	4,756.71	75.5249	4,756.71	79.6705	4,756.71	74.5508	4,756.71	78.2732	4,756.71	76.7267	4,756.71	75.8286	4,756.71	77.2598	4,756.71	74.5083	4,756.71	75.5712	4,756.71	73.936	4,756.71	74.5582	4,756.71	71.3924	4,756.71	74.2277	4,756.71	67.2936	4,756.71	72.0872	4,756.71	66.2569	4,756.71	65.9857	4,756.71	66.5828	4,756.71	65.9667	4,756.71	60.7763	4,756.71	65.6951	4,756.71	64.4716	4,756.71	64.4971	4,756.71	66.2413	4,756.71	60.6945	4,756.71	66.4398	4,756.71	63.5149	4,756.71	70.2281	4,756.71	64.7507	4,756.71	69.4038
4,924.44	83.0544	4,924.44	82.6198	4,924.44	82.7215	4,924.44	82.3441	4,924.44	80.819	4,924.44	82.3626	4,924.44	77.3668	4,924.44	81.5887	4,924.44	75.8011	4,924.44	79.4583	4,924.44	77.6272	4,924.44	76.5249	4,924.44	77.4549	4,924.44	74.4813	4,924.44	76.0313	4,924.44	72.6691	4,924.44	75.3025	4,924.44	69.3652	4,924.44	74.9931	4,924.44	63.8635	4,924.44	72.9973	4,924.44	62.6172	4,924.44	66.5563	4,924.44	66.2287	4,924.44	65.1888	4,924.44	63.2206	4,924.44	66.3965	4,924.44	60.5872	4,924.44	65.5178	4,924.44	66.7567	4,924.44	56.1425	4,924.44	66.258	4,924.44	57.4364	4,924.44	69.4194	4,924.44	63.2185	4,924.44	69.2462
5,098.39	82.0429	5,098.39	81.742	5,098.39	82.2353	5,098.39	81.9849	5,098.39	81.4805	5,098.39	81.9312	5,098.39	79.3722	5,098.39	80.688	5,098.39	76.8157	5,098.39	78.1046	5,098.39	77	5,098.39	75.0163	5,098.39	77.9809	5,098.39	73.3252	5,098.39	77.5702	5,098.39	72.5105	5,098.39	76.4274	5,098.39	70.4978	5,098.39	74.8279	5,098.39	66.5469	5,098.39	71.936	5,098.39	61.67	5,098.39	66.0088	5,098.39	66.2844	5,098.39	59.8989	5,098.39	64.6316	5,098.39	60.4587	5,098.39	61.1164	5,098.39	62.4536	5,098.39	64.4804	5,098.39	55.5263	5,098.39	66.6376	5,098.39	55.16	5,098.39	69.4895	5,098.39	63.7003	5,098.39	69.3428
5,278.2	79.8666	5,278.2	79.8671	5,278.2	80.7544	5,278.2	80.465	5,278.2	80.6642	5,278.2	80.111	5,278.2	78.8303	5,278.2	78.6252	5,278.2	76.9868	5,278.2	76.7108	5,278.2	77.2193	5,278.2	75.0379	5,278.2	76.8982	5,278.2	73.5737	5,278.2	75.2591	5,278.2	71.841	5,278.2	74.1867	5,278.2	70.3834	5,278.2	74.115	5,278.2	67.5795	5,278.2	72.8402	5,278.2	58.5787	5,278.2	67.5637	5,278.2	67.8641	5,278.2	59.5856	5,278.2	68.0135	5,278.2	58.0822	5,278.2	60.9993	5,278.2	61.0423	5,278.2	67.3358	5,278.2	57.3865	5,278.2	65.7523	5,278.2	46.3566	5,278.2	70.3929	5,278.2	65.3054	5,278.2	70.6098
5,464.23	81.9608	5,464.23	81.2712	5,464.23	82.7564	5,464.23	80.9902	5,464.23	82.5866	5,464.23	80.2955	5,464.23	81.1204	5,464.23	78.6108	5,464.23	78.8235	5,464.23	76.1527	5,464.23	77.2298	5,464.23	74.7079	5,464.23	76.2486	5,464.23	74.5597	5,464.23	75.0488	5,464.23	72.926	5,464.23	73.257	5,464.23	70.0505	5,464.23	71.658	5,464.23	67.5767	5,464.23	71.0828	5,464.23	61.3113	5,464.23	64.8676	5,464.23	62.2664	5,464.23	54.8016	5,464.23	67.7293	5,464.23	49.7771	5,464.23	59.5653	5,464.23	59.4895	5,464.23	66.8871	5,464.23	62.1039	5,464.23	67.0352	5,464.23	53.8715	5,464.23	68.9428	5,464.23	63.2356	5,464.23	68.6486
5,656.86	81.7475	5,656.86	81.4011	5,656.86	82.5991	5,656.86	81.5304	5,656.86	82.4961	5,656.86	80.7536	5,656.86	80.758	5,656.86	79.0228	5,656.86	78.3444	5,656.86	77.713	5,656.86	77.1965	5,656.86	76.8385	5,656.86	76.7791	5,656.86	75.1982	5,656.86	75.8385	5,656.86	72.4848	5,656.86	73.4995	5,656.86	69.5627	5,656.86	70.1546	5,656.86	67.4944	5,656.86	68.7329	5,656.86	63.5204	5,656.86	64.9093	5,656.86	55.9595	5,656.86	61.7222	5,656.86	64.1576	5,656.86	58.5976	5,656.86	60.9019	5,656.86	55.1573	5,656.86	62.3837	5,656.86	61.5147	5,656.86	65.5055	5,656.86	56.9131	5,656.86	67.871	5,656.86	62.1093	5,656.86	67.4995
5,856.45	80.3232	5,856.45	79.8179	5,856.45	80.6506	5,856.45	79.2032	5,856.45	79.9301	5,856.45	77.9694	5,856.45	77.8616	5,856.45	76.24	5,856.45	75.6336	5,856.45	74.699	5,856.45	74.8399	5,856.45	73.7555	5,856.45	74.4829	5,856.45	72.8766	5,856.45	73.3114	5,856.45	70.7886	5,856.45	71.0536	5,856.45	67.4257	5,856.45	66.608	5,856.45	64.7042	5,856.45	61.721	5,856.45	61.6595	5,856.45	59.9661	5,856.45	49.1456	5,856.45	57.9224	5,856.45	61.3191	5,856.45	59.6607	5,856.45	60.1844	5,856.45	52.5895	5,856.45	62.1146	5,856.45	56.194	5,856.45	64.1293	5,856.45	56.5073	5,856.45	67.7675	5,856.45	63.1547	5,856.45	67.5931
6,062.99	81.0113	6,062.99	80.7982	6,062.99	81.8904	6,062.99	80.6856	6,062.99	81.6583	6,062.99	79.2401	6,062.99	79.5495	6,062.99	77.4371	6,062.99	76.6775	6,062.99	76.6932	6,062.99	76.1226	6,062.99	75.7122	6,062.99	76.571	6,062.99	73.7929	6,062.99	75.4455	6,062.99	70.8183	6,062.99	73.4763	6,062.99	66.8588	6,062.99	70.1695	6,062.99	64.1517	6,062.99	66.1527	6,062.99	63.3797	6,062.99	60.0861	6,062.99	57.0594	6,062.99	57.8819	6,062.99	57.6389	6,062.99	61.7953	6,062.99	60.0965	6,062.99	61.614	6,062.99	61.96	6,062.99	59.8475	6,062.99	63.9159	6,062.99	53.6655	6,062.99	66.8371	6,062.99	62.4018	6,062.99	67.2139
6,276.86	81.1602	6,276.86	81.1931	6,276.86	81.705	6,276.86	80.7131	6,276.86	81.7806	6,276.86	79.1735	6,276.86	80.2733	6,276.86	78.1157	6,276.86	77.3357	6,276.86	77.1227	6,276.86	74.7006	6,276.86	74.3993	6,276.86	73.9397	6,276.86	70.4989	6,276.86	73.3833	6,276.86	66.6295	6,276.86	73.1358	6,276.86	61.9058	6,276.86	70.9409	6,276.86	58.3046	6,276.86	66.965	6,276.86	59.3954	6,276.86	59.3703	6,276.86	58.2402	6,276.86	51.1835	6,276.86	52.3252	6,276.86	58.4257	6,276.86	56.8253	6,276.86	62.5191	6,276.86	60.6204	6,276.86	61.4671	6,276.86	62.841	6,276.86	56.2237	6,276.86	66.3821	6,276.86	62.5734	6,276.86	66.3661
6,498.05	79.307	6,498.05	79.4333	6,498.05	79.3345	6,498.05	78.3335	6,498.05	79.5258	6,498.05	76.6726	6,498.05	78.4833	6,498.05	76.125	6,498.05	75.8926	6,498.05	74.7649	6,498.05	72.1428	6,498.05	71.3278	6,498.05	70.1128	6,498.05	67.3885	6,498.05	71.2805	6,498.05	63.0302	6,498.05	72.3974	6,498.05	55.0405	6,498.05	69.9141	6,498.05	48.2028	6,498.05	64.8788	6,498.05	53.7591	6,498.05	57.7071	6,498.05	58.4993	6,498.05	43.9812	6,498.05	53.7311	6,498.05	49.0862	6,498.05	52.7573	6,498.05	60.0361	6,498.05	59.3287	6,498.05	61.2113	6,498.05	61.5682	6,498.05	55.0031	6,498.05	66.1797	6,498.05	62.1154	6,498.05	66.3086
6,727.29	81.3703	6,727.29	81.2106	6,727.29	81.3738	6,727.29	80.2764	6,727.29	81.1845	6,727.29	79.3114	6,727.29	80.1056	6,727.29	78.5502	6,727.29	78.4937	6,727.29	75.8138	6,727.29	75.6857	6,727.29	70.2278	6,727.29	72.6705	6,727.29	65.5976	6,727.29	73.2607	6,727.29	62.1113	6,727.29	73.9967	6,727.29	57.5604	6,727.29	71.6678	6,727.29	56.7958	6,727.29	67.612	6,727.29	45.2435	6,727.29	61.6886	6,727.29	56.4875	6,727.29	57.9852	6,727.29	57.8731	6,727.29	54.4082	6,727.29	39.5984	6,727.29	52.6998	6,727.29	57.2064	6,727.29	59.2635	6,727.29	61.0009	6,727.29	55.77	6,727.29	64.8869	6,727.29	62.1235	6,727.29	66.2665
6,964.23	80.5392	6,964.23	79.9948	6,964.23	79.8887	6,964.23	78.7323	6,964.23	78.9379	6,964.23	78.1569	6,964.23	78.4061	6,964.23	77.0274	6,964.23	77.6709	6,964.23	73.2834	6,964.23	75.5374	6,964.23	68.0254	6,964.23	73.4475	6,964.23	64.9786	6,964.23	73.3378	6,964.23	59.6517	6,964.23	72.4205	6,964.23	56.8266	6,964.23	67.6294	6,964.23	59.4668	6,964.23	62.5359	6,964.23	55.6352	6,964.23	60.9943	6,964.23	38.2896	6,964.23	55.2645	6,964.23	51.1377	6,964.23	53.0665	6,964.23	46.9722	6,964.23	36.1062	6,964.23	50.2758	6,964.23	47.0831	6,964.23	56.5348	6,964.23	56.3146	6,964.23	61.5027	6,964.23	62.3758	6,964.23	63.923
7,209.96	79.3696	7,209.96	79.112	7,209.96	78.829	7,209.96	78.5495	7,209.96	77.7714	7,209.96	77.7826	7,209.96	76.9174	7,209.96	75.6802	7,209.96	76.2211	7,209.96	70.8449	7,209.96	75.3319	7,209.96	64.7524	7,209.96	75.044	7,209.96	64.7972	7,209.96	74.8395	7,209.96	62.5165	7,209.96	73.0638	7,209.96	58.9556	7,209.96	67.1265	7,209.96	59.019	7,209.96	45.6128	7,209.96	57.9491	7,209.96	54.8157	7,209.96	51.2069	7,209.96	57.3711	7,209.96	47.4638	7,209.96	55.9249	7,209.96	55.0276	7,209.96	57.9448	7,209.96	54.8253	7,209.96	58.5797	7,209.96	49.2961	7,209.96	53.3095	7,209.96	58.2637	7,209.96	64.8141	7,209.96	64.6199
7,464.11	80.5538	7,464.11	80.8419	7,464.11	79.9804	7,464.11	80.584	7,464.11	79.1464	7,464.11	79.2205	7,464.11	78.5473	7,464.11	76.072	7,464.11	78.4145	7,464.11	70.9655	7,464.11	78.3068	7,464.11	69.5259	7,464.11	78.0777	7,464.11	68.6326	7,464.11	77.2957	7,464.11	63.1636	7,464.11	74.9767	7,464.11	60.1104	7,464.11	69.4737	7,464.11	62.4402	7,464.11	54.7224	7,464.11	61.3893	7,464.11	54.7119	7,464.11	58.7036	7,464.11	57.9168	7,464.11	57.11	7,464.11	49.9565	7,464.11	56.0549	7,464.11	58.2648	7,464.11	57.9021	7,464.11	59.076	7,464.11	41.0818	7,464.11	52.2854	7,464.11	56.0417	7,464.11	64.9141	7,464.11	64.5704
7,727.42	79.2971	7,727.42	79.8479	7,727.42	78.2542	7,727.42	79.3773	7,727.42	77.2068	7,727.42	77.5242	7,727.42	76.803	7,727.42	74.4507	7,727.42	76.9982	7,727.42	71.7019	7,727.42	77.3275	7,727.42	71.56	7,727.42	77.4237	7,727.42	70.2427	7,727.42	76.7648	7,727.42	65.1477	7,727.42	74.7777	7,727.42	60.2875	7,727.42	70.296	7,727.42	59.4037	7,727.42	61.4678	7,727.42	58.7882	7,727.42	54.6728	7,727.42	58.5743	7,727.42	48.1824	7,727.42	56.5881	7,727.42	53.5885	7,727.42	56.2105	7,727.42	58.9289	7,727.42	58.7938	7,727.42	61.7432	7,727.42	48.5969	7,727.42	42.7412	7,727.42	54.2196	7,727.42	64.4682	7,727.42	63.6996
7,999.88	80.1842	7,999.88	81.0136	7,999.88	79.0503	7,999.88	80.4413	7,999.88	78.2313	7,999.88	78.0751	7,999.88	77.8855	7,999.88	75.527	7,999.88	77.8817	7,999.88	74.1579	7,999.88	77.8612	7,999.88	72.5739	7,999.88	77.2703	7,999.88	69.9797	7,999.88	76.0859	7,999.88	66.5533	7,999.88	74.6923	7,999.88	64.5754	7,999.88	72.2508	7,999.88	63.3351	7,999.88	66.9106	7,999.88	55.3651	7,999.88	52.4489	7,999.88	59.0646	7,999.88	58.0259	7,999.88	57.2444	7,999.88	55.7877	7,999.88	56.6662	7,999.88	59.0638	7,999.88	56.9312	7,999.88	58.9529	7,999.88	52.583	7,999.88	56.5621	7,999.88	55.771	7,999.88	66.623	7,999.88	66.0708
8,282.23	81.1726	8,282.23	82.2783	8,282.23	80.0782	8,282.23	81.5965	8,282.23	80.0367	8,282.23	79.4117	8,282.23	80.0209	8,282.23	77.9686	8,282.23	79.4337	8,282.23	76.0775	8,282.23	78.585	8,282.23	73.8074	8,282.23	77.1936	8,282.23	73.0402	8,282.23	74.8863	8,282.23	70.5314	8,282.23	72.5325	8,282.23	67.8001	8,282.23	70.1189	8,282.23	65.8435	8,282.23	64.4707	8,282.23	59.5946	8,282.23	47.4144	8,282.23	57.374	8,282.23	55.587	8,282.23	58.2047	8,282.23	61.3253	8,282.23	58.9193	8,282.23	61.8293	8,282.23	59.8914	8,282.23	62.0886	8,282.23	49.5714	8,282.23	54.3678	8,282.23	55.4098	8,282.23	65.6162	8,282.23	65.8118
8,574.1	79.4361	8,574.1	80.4552	8,574.1	78.3257	8,574.1	79.3546	8,574.1	78.0369	8,574.1	77.4678	8,574.1	77.2866	8,574.1	76.6308	8,574.1	76.1584	8,574.1	73.399	8,574.1	74.835	8,574.1	72.1328	8,574.1	72.5405	8,574.1	73.6859	8,574.1	69.8108	8,574.1	70.388	8,574.1	68.9411	8,574.1	65.6178	8,574.1	68.9119	8,574.1	65.826	8,574.1	66.1153	8,574.1	62.2355	8,574.1	57.4492	8,574.1	54.6248	8,574.1	61.8326	8,574.1	54.3676	8,574.1	63.897	8,574.1	60.4196	8,574.1	62.3222	8,574.1	59.0554	8,574.1	61.5134	8,574.1	53.0558	8,574.1	53.4594	8,574.1	55.8552	8,574.1	66.3147	8,574.1	67.226
8,876.59	82.0101	8,876.59	83.3754	8,876.59	79.8093	8,876.59	82.7571	8,876.59	78.7188	8,876.59	82.069	8,876.59	78.9171	8,876.59	80.5273	8,876.59	79.43	8,876.59	76.2291	8,876.59	78.4407	8,876.59	76.7585	8,876.59	76.2023	8,876.59	77.1715	8,876.59	74.7329	8,876.59	72.7533	8,876.59	73.0625	8,876.59	67.7675	8,876.59	70.8504	8,876.59	67.0995	8,876.59	65.6621	8,876.59	65.4068	8,876.59	60.5879	8,876.59	56.6048	8,876.59	59.795	8,876.59	61.2747	8,876.59	61.0939	8,876.59	60.151	8,876.59	61.7145	8,876.59	61.821	8,876.59	57.8328	8,876.59	43.8751	8,876.59	55.4877	8,876.59	55.3821	8,876.59	66.6338	8,876.59	67.8565
9,189.7	78.7932	9,189.7	81.2037	9,189.7	76.0175	9,189.7	81.3732	9,189.7	76.4653	9,189.7	81.1071	9,189.7	78.4986	9,189.7	78.9107	9,189.7	79.3887	9,189.7	75.2787	9,189.7	78.3371	9,189.7	78.0129	9,189.7	76.5924	9,189.7	77.0256	9,189.7	75.0256	9,189.7	71.5706	9,189.7	71.3548	9,189.7	69.8364	9,189.7	64.44	9,189.7	67.4412	9,189.7	66.9616	9,189.7	65.2604	9,189.7	68.547	9,189.7	59.2006	9,189.7	57.1295	9,189.7	62.5115	9,189.7	60.7114	9,189.7	61.901	9,189.7	61.6671	9,189.7	64.6999	9,189.7	60.6558	9,189.7	39.9705	9,189.7	53.0271	9,189.7	56.4321	9,189.7	65.755	9,189.7	67.9825
9,513.79	78.5425	9,513.79	80.8038	9,513.79	77.2421	9,513.79	81.2829	9,513.79	77.982	9,513.79	81.0848	9,513.79	79.1614	9,513.79	79.5308	9,513.79	79.1996	9,513.79	79.1648	9,513.79	77.3806	9,513.79	80.5087	9,513.79	75.4812	9,513.79	78.3602	9,513.79	73.9447	9,513.79	74.9553	9,513.79	70.8488	9,513.79	73.1082	9,513.79	70.5206	9,513.79	69.0736	9,513.79	72.907	9,513.79	67.3168	9,513.79	70.0039	9,513.79	53.575	9,513.79	52.3729	9,513.79	62.3955	9,513.79	63.0893	9,513.79	61.8401	9,513.79	60.94	9,513.79	65.1724	9,513.79	55.2736	9,513.79	55.181	9,513.79	56.1238	9,513.79	60.7902	9,513.79	66.1977	9,513.79	67.7011
9,849.24	75.0347	9,849.24	75.0943	9,849.24	75.4858	9,849.24	74.8496	9,849.24	74.8263	9,849.24	75.8041	9,849.24	73.0496	9,849.24	76.4568	9,849.24	70.2167	9,849.24	77.4216	9,849.24	67.9204	9,849.24	78.5254	9,849.24	68.607	9,849.24	76.8078	9,849.24	68.4437	9,849.24	73.9162	9,849.24	67.6308	9,849.24	70.9629	9,849.24	69.2946	9,849.24	66.4119	9,849.24	69.795	9,849.24	64.5214	9,849.24	63.9221	9,849.24	60.6029	9,849.24	53.7544	9,849.24	62.6252	9,849.24	59.5178	9,849.24	63.6046	9,849.24	56.4842	9,849.24	65.132	9,849.24	43.4284	9,849.24	55.056	9,849.24	56.5532	9,849.24	60.7634	9,849.24	63.5769	9,849.24	65.4508
10,196.4	75.411	10,196.4	75.4024	10,196.4	72.6566	10,196.4	76.4528	10,196.4	70.9626	10,196.4	79.4372	10,196.4	74.9722	10,196.4	79.7536	10,196.4	77.9225	10,196.4	80.0068	10,196.4	78.8443	10,196.4	80.6123	10,196.4	77.8547	10,196.4	79.0735	10,196.4	75.2893	10,196.4	76.6415	10,196.4	73.3263	10,196.4	73.5282	10,196.4	74.2936	10,196.4	68.0748	10,196.4	74.5767	10,196.4	67.8856	10,196.4	69.7794	10,196.4	53.4857	10,196.4	42.3242	10,196.4	63.0032	10,196.4	62.3561	10,196.4	62.5248	10,196.4	61.6591	10,196.4	63.934	10,196.4	52.2734	10,196.4	57.3796	10,196.4	58.3862	10,196.4	61.1137	10,196.4	64.7291	10,196.4	65.4103
10,556	49.9508	10,556	65.283	10,556	67.6807	10,556	72.5624	10,556	74.0837	10,556	77.0756	10,556	76.5437	10,556	78.0696	10,556	76.9063	10,556	78.8293	10,556	75.7843	10,556	78.5585	10,556	74.4209	10,556	75.9143	10,556	72.2234	10,556	72.8709	10,556	68.5256	10,556	69.2612	10,556	68.0316	10,556	59.9694	10,556	69.8965	10,556	63.2588	10,556	66.7872	10,556	58.5411	10,556	48.2143	10,556	60.1241	10,556	57.3932	10,556	60.7968	10,556	56.1368	10,556	60.4451	10,556	50.9998	10,556	55.6509	10,556	54.7812	10,556	57.9346	10,556	57.4918	10,556	60.2715
10,928.5	75.0474	10,928.5	71.6786	10,928.5	78.3598	10,928.5	74.4757	10,928.5	80.0046	10,928.5	79.331	10,928.5	79.3069	10,928.5	80.7559	10,928.5	77.181	10,928.5	81.4312	10,928.5	75.1532	10,928.5	80.935	10,928.5	72.9357	10,928.5	78.1263	10,928.5	68.6045	10,928.5	75.0601	10,928.5	65.8434	10,928.5	71.9048	10,928.5	70.0664	10,928.5	59.9248	10,928.5	72.6613	10,928.5	61.2865	10,928.5	69.249	10,928.5	55.6177	10,928.5	52.5477	10,928.5	61.688	10,928.5	58.1889	10,928.5	62.2655	10,928.5	53.8008	10,928.5	60.5948	10,928.5	55.4677	10,928.5	51.4898	10,928.5	53.8039	10,928.5	59.0041	10,928.5	60.4421	10,928.5	61.3958
11,313.7	79.3301	11,313.7	78.2485	11,313.7	79.3685	11,313.7	77.0215	11,313.7	79.0717	11,313.7	78.2147	11,313.7	77.924	11,313.7	79.3938	11,313.7	76.1855	11,313.7	79.6338	11,313.7	74.8238	11,313.7	79.1132	11,313.7	71.9462	11,313.7	77.5203	11,313.7	66.5267	11,313.7	75.0245	11,313.7	64.6502	11,313.7	70.7854	11,313.7	67.2037	11,313.7	58.9541	11,313.7	69.5368	11,313.7	61.1101	11,313.7	65.0838	11,313.7	58.5313	11,313.7	41.3817	11,313.7	60.8237	11,313.7	58.5242	11,313.7	61.8734	11,313.7	61.5296	11,313.7	57.9783	11,313.7	50.0045	11,313.7	54.2751	11,313.7	53.3995	11,313.7	57.3601	11,313.7	58.4017	11,313.7	57.9104
11,712.5	83.4296	11,712.5	83.4485	11,712.5	83.0376	11,712.5	83.3186	11,712.5	82.5124	11,712.5	83.3077	11,712.5	82.0504	11,712.5	82.5542	11,712.5	81.1243	11,712.5	80.8587	11,712.5	79.1964	11,712.5	79.1564	11,712.5	76.4738	11,712.5	77.1327	11,712.5	72.9022	11,712.5	73.6809	11,712.5	68.6135	11,712.5	66.7396	11,712.5	67.5153	11,712.5	42.6381	11,712.5	69.5846	11,712.5	57.541	11,712.5	66.613	11,712.5	57.508	11,712.5	54.1519	11,712.5	57.8475	11,712.5	62.5236	11,712.5	58.6058	11,712.5	60.8949	11,712.5	46.6318	11,712.5	40.3286	11,712.5	53.3107	11,712.5	52.659	11,712.5	53.8226	11,712.5	54.1496	11,712.5	58.3413
12,125.6	80.5043	12,125.6	80.1969	12,125.6	80.0118	12,125.6	79.8235	12,125.6	78.9544	12,125.6	79.523	12,125.6	77.9542	12,125.6	78.5599	12,125.6	77.2686	12,125.6	76.7069	12,125.6	76.0917	12,125.6	74.1157	12,125.6	73.1981	12,125.6	70.5285	12,125.6	68.9353	12,125.6	65.717	12,125.6	66.4945	12,125.6	59.5477	12,125.6	66.1201	12,125.6	51.8561	12,125.6	66.7932	12,125.6	53.7604	12,125.6	63.2181	12,125.6	54.288	12,125.6	41.1531	12,125.6	52.5589	12,125.6	53.0496	12,125.6	52.8421	12,125.6	37.1768	12,125.6	47.7107	12,125.6	47.6253	12,125.6	51.09	12,125.6	40.496	12,125.6	54.0207	12,125.6	51.5692	12,125.6	39.5097
12,553.3	79.9191	12,553.3	79.346	12,553.3	79.5938	12,553.3	78.5379	12,553.3	78.4391	12,553.3	77.586	12,553.3	77.3291	12,553.3	75.507	12,553.3	76.4915	12,553.3	72.4662	12,553.3	74.7623	12,553.3	70.74	12,553.3	71.295	12,553.3	67.8762	12,553.3	68.1721	12,553.3	63.2064	12,553.3	65.9779	12,553.3	57.9449	12,553.3	63.8673	12,553.3	47.4999	12,553.3	61.1218	12,553.3	46.7153	12,553.3	54.0098	12,553.3	49.4329	12,553.3	16.4044	12,553.3	51.1346	12,553.3	51.7905	12,553.3	47.124	12,553.3	51.1194	12,553.3	48.3919	12,553.3	44.7776	12,553.3	52.3787	12,553.3	41.3293	12,553.3	47.9899	12,553.3	53.8144	12,553.3	53.9222
12,996.1	75.9987	12,996.1	75.6302	12,996.1	75.5185	12,996.1	74.6266	12,996.1	74.5735	12,996.1	73.8297	12,996.1	73.7924	12,996.1	72.1859	12,996.1	72.1958	12,996.1	70.3828	12,996.1	71.0466	12,996.1	70.9573	12,996.1	67.897	12,996.1	66.8678	12,996.1	61.377	12,996.1	58.4577	12,996.1	62.4061	12,996.1	58.8562	12,996.1	62.8638	12,996.1	55.9478	12,996.1	60.9312	12,996.1	50.6704	12,996.1	57.7774	12,996.1	51.1264	12,996.1	51.0358	12,996.1	56.8916	12,996.1	50.7962	12,996.1	53.0201	12,996.1	56.7066	12,996.1	55.9369	12,996.1	42.3479	12,996.1	49.4479	12,996.1	51.9059	12,996.1	45.4925	12,996.1	57.0053	12,996.1	55.9917
13,454.2	77.192	13,454.2	76.3008	13,454.2	78.3517	13,454.2	76.9962	13,454.2	78.0003	13,454.2	77.2543	13,454.2	76.4081	13,454.2	75.0142	13,454.2	74.6457	13,454.2	72.5528	13,454.2	72.2516	13,454.2	70.8242	13,454.2	67.7538	13,454.2	64.4451	13,454.2	61.8774	13,454.2	54.1701	13,454.2	63.7665	13,454.2	53.3412	13,454.2	66.4809	13,454.2	48.0373	13,454.2	65.8106	13,454.2	49.7689	13,454.2	60.339	13,454.2	54.412	13,454.2	43.6105	13,454.2	54.7472	13,454.2	53.4315	13,454.2	52.4077	13,454.2	49.7044	13,454.2	55.0185	13,454.2	53.6898	13,454.2	47.2657	13,454.2	50.0815	13,454.2	44.6301	13,454.2	58.223	13,454.2	58.7746
13,928.8	79.6025	13,928.8	77.7902	13,928.8	80.0197	13,928.8	77.8762	13,928.8	77.5317	13,928.8	78.0997	13,928.8	74.1816	13,928.8	74.4674	13,928.8	73.1805	13,928.8	68.2773	13,928.8	72.3815	13,928.8	70.4985	13,928.8	67.0288	13,928.8	67.2843	13,928.8	61.1031	13,928.8	59.5679	13,928.8	63.3424	13,928.8	52.6736	13,928.8	66.274	13,928.8	47.8012	13,928.8	65.5463	13,928.8	51.1419	13,928.8	60.96	13,928.8	50.2841	13,928.8	50.0252	13,928.8	44.791	13,928.8	52.7366	13,928.8	49.2762	13,928.8	50.944	13,928.8	54.3245	13,928.8	51.5509	13,928.8	49.8314	13,928.8	54.4354	13,928.8	43.9833	13,928.8	59.1611	13,928.8	56.1398
14,419.9	81.6491	14,419.9	80.4443	14,419.9	81.1536	14,419.9	79.504	14,419.9	78.1212	14,419.9	79.1287	14,419.9	73.798	14,419.9	77.715	14,419.9	71.8363	14,419.9	76.0917	14,419.9	71.9816	14,419.9	73.3622	14,419.9	71.4135	14,419.9	67.9969	14,419.9	68.8483	14,419.9	62.789	14,419.9	65.2991	14,419.9	59.0283	14,419.9	65.6092	14,419.9	52.4411	14,419.9	66.9003	14,419.9	50.4927	14,419.9	62.783	14,419.9	49.7962	14,419.9	46.0375	14,419.9	44.6454	14,419.9	50.5754	14,419.9	47.4273	14,419.9	43.5707	14,419.9	39.5129	14,419.9	46.0597	14,419.9	46.6031	14,419.9	50.1533	14,419.9	41.2089	14,419.9	55.4015	14,419.9	50.2195
14,928.6	77.3557	14,928.6	76.9688	14,928.6	75.7306	14,928.6	75.3425	14,928.6	72.0257	14,928.6	73.628	14,928.6	69.2196	14,928.6	71.9525	14,928.6	70.0206	14,928.6	69.888	14,928.6	70.346	14,928.6	66.9682	14,928.6	68.1749	14,928.6	61.238	14,928.6	62.3249	14,928.6	54.7805	14,928.6	59.2943	14,928.6	53.0159	14,928.6	61.4265	14,928.6	50.3884	14,928.6	62.9084	14,928.6	47.3353	14,928.6	58.3156	14,928.6	50.7283	14,928.6	40.1883	14,928.6	36.1699	14,928.6	47.7425	14,928.6	42.8943	14,928.6	47.628	14,928.6	35.3873	14,928.6	39.985	14,928.6	42.3546	14,928.6	48.4904	14,928.6	46.879	14,928.6	50.9382	14,928.6	41.2232
15,454.8	74.2201	15,454.8	73.7691	15,454.8	73.1929	15,454.8	72.9607	15,454.8	70.6067	15,454.8	71.7712	15,454.8	68.8695	15,454.8	69.8797	15,454.8	67.1909	15,454.8	67.2559	15,454.8	65.3118	15,454.8	64.7156	15,454.8	58.923	15,454.8	60.7196	15,454.8	51.0044	15,454.8	56.8212	15,454.8	48.0143	15,454.8	53.4129	15,454.8	51.8662	15,454.8	49.3747	15,454.8	54.5047	15,454.8	46.5681	15,454.8	52.0963	15,454.8	47.3293	15,454.8	39.2284	15,454.8	46.2746	15,454.8	49.024	15,454.8	37.522	15,454.8	50.1535	15,454.8	47.8837	15,454.8	32.8416	15,454.8	45.9457	15,454.8	46.6166	15,454.8	35.3669	15,454.8	43.4371	15,454.8	43.1929
16,000.1	79.5009	16,000.1	78.6971	16,000.1	78.513	16,000.1	76.6635	16,000.1	76.1422	16,000.1	74.8876	16,000.1	72.8682	16,000.1	73.0439	16,000.1	69.0408	16,000.1	70.2867	16,000.1	65.4264	16,000.1	68.2994	16,000.1	59.706	16,000.1	64.133	16,000.1	49.4754	16,000.1	54.2432	16,000.1	55.0103	16,000.1	52.7638	16,000.1	55.0711	16,000.1	52.0469	16,000.1	57.4807	16,000.1	44.6008	16,000.1	56.5376	16,000.1	50.5309	16,000.1	49.256	16,000.1	36.3135	16,000.1	39.7409	16,000.1	40.3559	16,000.1	42.045	16,000.1	41.4539	16,000.1	33.223	16,000.1	36.7504	16,000.1	40.8621	16,000.1	41.9257	16,000.1	45.3215	16,000.1	42.0678
16,564.1	78.1526	16,564.1	77.6966	16,564.1	77.1129	16,564.1	76.4831	16,564.1	74.6367	16,564.1	74.6405	16,564.1	71.8885	16,564.1	71.1324	16,564.1	69.1481	16,564.1	66.0102	16,564.1	64.4539	16,564.1	61.8752	16,564.1	59.7947	16,564.1	56.0829	16,564.1	59.2221	16,564.1	53.8728	16,564.1	56.6706	16,564.1	55.6844	16,564.1	50.8435	16,564.1	50.3427	16,564.1	52.7797	16,564.1	30.0082	16,564.1	55.4565	16,564.1	47.9041	16,564.1	46.599	16,564.1	45.5194	16,564.1	45.4913	16,564.1	43.1162	16,564.1	39.4389	16,564.1	39.084	16,564.1	42.4204	16,564.1	45.4966	16,564.1	41.6472	16,564.1	33.5033	16,564.1	45.2307	16,564.1	39.678
17,148.2	71.6322	17,148.2	68.9136	17,148.2	71.8755	17,148.2	66.3319	17,148.2	68.5128	17,148.2	65.3019	17,148.2	64.4897	17,148.2	62.0197	17,148.2	63.7854	17,148.2	54.6285	17,148.2	62.083	17,148.2	47.3288	17,148.2	54.8302	17,148.2	47.9216	17,148.2	48.5429	17,148.2	48.6779	17,148.2	52.0613	17,148.2	49.1468	17,148.2	47.2438	17,148.2	43.0798	17,148.2	41.8658	17,148.2	39.6008	17,148.2	45.6979	17,148.2	49.2778	17,148.2	42.6581	17,148.2	42.1836	17,148.2	41.7951	17,148.2	39.7065	17,148.2	36.7038	17,148.2	44.207	17,148.2	36.9857	17,148.2	38.9345	17,148.2	45.992	17,148.2	47.7725	17,148.2	51.197	17,148.2	44.2715
17,753.2	68.287	17,753.2	66.9936	17,753.2	68.3793	17,753.2	63.78	17,753.2	65.9707	17,753.2	58.2454	17,753.2	58.2079	17,753.2	51.91	17,753.2	48.1911	17,753.2	44.6347	17,753.2	47.3916	17,753.2	39.6355	17,753.2	45.3578	17,753.2	47.3571	17,753.2	43.9336	17,753.2	45.6505	17,753.2	35.5071	17,753.2	45.1872	17,753.2	36.215	17,753.2	44.6473	17,753.2	35.7864	17,753.2	36.5753	17,753.2	33.8688	17,753.2	47.3244	17,753.2	36.1184	17,753.2	48.1984	17,753.2	42.1623	17,753.2	41.4954	17,753.2	41.0684	17,753.2	46.2265	17,753.2	40.8283	17,753.2	43.0573	17,753.2	41.4569	17,753.2	38.2001	17,753.2	35.7044	17,753.2	43.2349
18,379	70.1786	18,379	68.9147	18,379	69.9111	18,379	67.3902	18,379	66.3955	18,379	64.4491	18,379	59.3572	18,379	58.3733	18,379	55.2472	18,379	55.5431	18,379	54.8703	18,379	56.7541	18,379	50.033	18,379	54.6245	18,379	44.8449	18,379	48.9083	18,379	36.4179	18,379	42.3539	18,379	39.6949	18,379	25.7486	18,379	46.3615	18,379	42.7665	18,379	43.6014	18,379	50.4498	18,379	39.4045	18,379	48.7739	18,379	40.0123	18,379	43.7491	18,379	25.8494	18,379	41.7022	18,379	40.0057	18,379	35.9204	18,379	45.7623	18,379	45.1417	18,379	43.9236	18,379	39.1106
19,027.2	68.9981	19,027.2	70.9393	19,027.2	65.0764	19,027.2	70.0364	19,027.2	61.2788	19,027.2	65.5354	19,027.2	59.2724	19,027.2	57.1435	19,027.2	54.6401	19,027.2	50.1522	19,027.2	44.9047	19,027.2	49.5762	19,027.2	39.329	19,027.2	47.1046	19,027.2	39.6814	19,027.2	49.0099	19,027.2	40.3134	19,027.2	47.8176	19,027.2	48.189	19,027.2	40.4762	19,027.2	49.71	19,027.2	43.1297	19,027.2	45.5894	19,027.2	49.049	19,027.2	34.2263	19,027.2	47.8534	19,027.2	41.6516	19,027.2	39.8236	19,027.2	38.592	19,027.2	33.9379	19,027.2	38.8644	19,027.2	40.9616	19,027.2	34.4374	19,027.2	39.5574	19,027.2	40.7525	19,027.2	42.9636
19,698.5	55.9945	19,698.5	56.2706	19,698.5	54.5258	19,698.5	52.7669	19,698.5	54.6799	19,698.5	48.7258	19,698.5	53.4828	19,698.5	51.1925	19,698.5	47.3599	19,698.5	49.2331	19,698.5	34.3399	19,698.5	42.0082	19,698.5	32.1971	19,698.5	35.6841	19,698.5	38.2396	19,698.5	42.6609	19,698.5	24.2284	19,698.5	36.6884	19,698.5	43.4506	19,698.5	37.2294	19,698.5	42.6537	19,698.5	40.2577	19,698.5	38.4397	19,698.5	47.034	19,698.5	35.9878	19,698.5	45.9603	19,698.5	32.0266	19,698.5	39.9547	19,698.5	40.4032	19,698.5	35.9125	19,698.5	36.9872	19,698.5	25.3412	19,698.5	25.0687	19,698.5	32.2933	19,698.5	13.4042	19,698.5	22.2734
19,999.9	53.371	19,999.9	39.3006	19,999.9	55.9992	19,999.9	56.1745	19,999.9	52.1871	19,999.9	55.6571	19,999.9	50.9739	19,999.9	48.5005	19,999.9	57.0784	19,999.9	32.1393	19,999.9	55.2397	19,999.9	38.6758	19,999.9	44.3042	19,999.9	53.3709	19,999.9	53.311	19,999.9	52.906	19,999.9	33.7115	19,999.9	50.4781	19,999.9	47.4999	19,999.9	45.1959	19,999.9	44.09	19,999.9	46.0148	19,999.9	47.0526	19,999.9	49.8187	19,999.9	34.1209	19,999.9	58.0341	19,999.9	32.3646	19,999.9	50.0583	19,999.9	45.3557	19,999.9	51.968	19,999.9	44.2022	19,999.9	27.7652	19,999.9	47.0363	19,999.9	51.65	19,999.9	50.3723	19,999.9	38.8152
