"SPL Horizontal"
"On-Axis"		"10°"		"-10°"		"20°"		"-20°"		"30°"		"-30°"		"40°"		"-40°"		"50°"		"-50°"		"60°"		"-60°"		"70°"		"-70°"		"80°"		"-80°"		"90°"		"-90°"		"100°"		"-100°"		"110°"		"-110°"		"120°"		"-120°"		"130°"		"-130°"		"140°"		"-140°"		"150°"		"-150°"		"160°"		"-160°"		"170°"		"-170°"		"180°"
"Frequency / Hz"	"Sound Pressure Level / dB (re 20 µPa/V)  [2.83  V @ 1. m]"	"Frequency / Hz"	"Sound Pressure Level / dB (re 20 µPa/V)  [2.83  V @ 1. m]"	"Frequency / Hz"	"Sound Pressure Level / dB (re 20 µPa/V)  [2.83  V @ 1. m]"	"Frequency / Hz"	"Sound Pressure Level / dB (re 20 µPa/V)  [2.83  V @ 1. m]"	"Frequency / Hz"	"Sound Pressure Level / dB (re 20 µPa/V)  [2.83  V @ 1. m]"	"Frequency / Hz"	"Sound Pressure Level / dB (re 20 µPa/V)  [2.83  V @ 1. m]"	"Frequency / Hz"	"Sound Pressure Level / dB (re 20 µPa/V)  [2.83  V @ 1. m]"	"Frequency / Hz"	"Sound Pressure Level / dB (re 20 µPa/V)  [2.83  V @ 1. m]"	"Frequency / Hz"	"Sound Pressure Level / dB (re 20 µPa/V)  [2.83  V @ 1. m]"	"Frequency / Hz"	"Sound Pressure Level / dB (re 20 µPa/V)  [2.83  V @ 1. m]"	"Frequency / Hz"	"Sound Pressure Level / dB (re 20 µPa/V)  [2.83  V @ 1. m]"	"Frequency / Hz"	"Sound Pressure Level / dB (re 20 µPa/V)  [2.83  V @ 1. m]"	"Frequency / Hz"	"Sound Pressure Level / dB (re 20 µPa/V)  [2.83  V @ 1. m]"	"Frequency / Hz"	"Sound Pressure Level / dB (re 20 µPa/V)  [2.83  V @ 1. m]"	"Frequency / Hz"	"Sound Pressure Level / dB (re 20 µPa/V)  [2.83  V @ 1. m]"	"Frequency / Hz"	"Sound Pressure Level / dB (re 20 µPa/V)  [2.83  V @ 1. m]"	"Frequency / Hz"	"Sound Pressure Level / dB (re 20 µPa/V)  [2.83  V @ 1. m]"	"Frequency / Hz"	"Sound Pressure Level / dB (re 20 µPa/V)  [2.83  V @ 1. m]"	"Frequency / Hz"	"Sound Pressure Level / dB (re 20 µPa/V)  [2.83  V @ 1. m]"	"Frequency / Hz"	"Sound Pressure Level / dB (re 20 µPa/V)  [2.83  V @ 1. m]"	"Frequency / Hz"	"Sound Pressure Level / dB (re 20 µPa/V)  [2.83  V @ 1. m]"	"Frequency / Hz"	"Sound Pressure Level / dB (re 20 µPa/V)  [2.83  V @ 1. m]"	"Frequency / Hz"	"Sound Pressure Level / dB (re 20 µPa/V)  [2.83  V @ 1. m]"	"Frequency / Hz"	"Sound Pressure Level / dB (re 20 µPa/V)  [2.83  V @ 1. m]"	"Frequency / Hz"	"Sound Pressure Level / dB (re 20 µPa/V)  [2.83  V @ 1. m]"	"Frequency / Hz"	"Sound Pressure Level / dB (re 20 µPa/V)  [2.83  V @ 1. m]"	"Frequency / Hz"	"Sound Pressure Level / dB (re 20 µPa/V)  [2.83  V @ 1. m]"	"Frequency / Hz"	"Sound Pressure Level / dB (re 20 µPa/V)  [2.83  V @ 1. m]"	"Frequency / Hz"	"Sound Pressure Level / dB (re 20 µPa/V)  [2.83  V @ 1. m]"	"Frequency / Hz"	"Sound Pressure Level / dB (re 20 µPa/V)  [2.83  V @ 1. m]"	"Frequency / Hz"	"Sound Pressure Level / dB (re 20 µPa/V)  [2.83  V @ 1. m]"	"Frequency / Hz"	"Sound Pressure Level / dB (re 20 µPa/V)  [2.83  V @ 1. m]"	"Frequency / Hz"	"Sound Pressure Level / dB (re 20 µPa/V)  [2.83  V @ 1. m]"	"Frequency / Hz"	"Sound Pressure Level / dB (re 20 µPa/V)  [2.83  V @ 1. m]"	"Frequency / Hz"	"Sound Pressure Level / dB (re 20 µPa/V)  [2.83  V @ 1. m]"	"Frequency / Hz"	"Sound Pressure Level / dB (re 20 µPa/V)  [2.83  V @ 1. m]"
20.1416	49.1658	20.1416	49.1746	20.1416	49.1182	20.1416	49.148	20.1416	49.0285	20.1416	49.0896	20.1416	48.8946	20.1416	49.0025	20.1416	48.7154	20.1416	48.8895	20.1416	48.492	20.1416	48.7529	20.1416	48.2275	20.1416	48.5945	20.1416	47.9282	20.1416	48.4157	20.1416	47.6031	20.1416	48.2178	20.1416	47.2645	20.1416	48.0019	20.1416	46.9273	20.1416	47.7692	20.1416	46.6084	20.1416	47.5214	20.1416	46.3254	20.1416	47.2615	20.1416	46.095	20.1416	46.9944	20.1416	45.9315	20.1416	46.7275	20.1416	45.8445	20.1416	46.4712	20.1416	45.8375	20.1416	46.2389	20.1416	45.9076	20.1416	46.0459
20.5078	47.9823	20.5078	47.9836	20.5078	47.9445	20.5078	47.9518	20.5078	47.8677	20.5078	47.8902	20.5078	47.7499	20.5078	47.8019	20.5078	47.5909	20.5078	47.6897	20.5078	47.3919	20.5078	47.5563	20.5078	47.1565	20.5078	47.4036	20.5078	46.8909	20.5078	47.2337	20.5078	46.6037	20.5078	47.0483	20.5078	46.3061	20.5078	46.8491	20.5078	46.0113	20.5078	46.6379	20.5078	45.7336	20.5078	46.417	20.5078	45.4876	20.5078	46.1898	20.5078	45.2867	20.5078	45.9609	20.5078	45.1416	20.5078	45.7371	20.5078	45.0594	20.5078	45.5271	20.5078	45.0425	20.5078	45.3414	20.5078	45.0886	20.5078	45.1915
21.2402	46.4092	21.2402	46.3083	21.2402	46.4819	21.2402	46.184	21.2402	46.5231	21.2402	46.0419	21.2402	46.5306	21.2402	45.8885	21.2402	46.5039	21.2402	45.7302	21.2402	46.4446	21.2402	45.5736	21.2402	46.3556	21.2402	45.4249	21.2402	46.2417	21.2402	45.2894	21.2402	46.1093	21.2402	45.1715	21.2402	45.9654	21.2402	45.0743	21.2402	45.8178	21.2402	44.9995	21.2402	45.6737	21.2402	44.9473	21.2402	45.5388	21.2402	44.9171	21.2402	45.4173	21.2402	44.9071	21.2402	45.3108	21.2402	44.9149	21.2402	45.2193	21.2402	44.9377	21.2402	45.1414	21.2402	44.9731	21.2402	45.0751	21.2402	45.0191
21.9727	51.2329	21.9727	51.2721	21.9727	51.1922	21.9727	51.31	21.9727	51.1501	21.9727	51.3468	21.9727	51.1069	21.9727	51.3825	21.9727	51.0638	21.9727	51.417	21.9727	51.0222	21.9727	51.4494	21.9727	50.9842	21.9727	51.4789	21.9727	50.9523	21.9727	51.5039	21.9727	50.9288	21.9727	51.5229	21.9727	50.9161	21.9727	51.5342	21.9727	50.9157	21.9727	51.5364	21.9727	50.9286	21.9727	51.5285	21.9727	50.9546	21.9727	51.5102	21.9727	50.9927	21.9727	51.4814	21.9727	51.0409	21.9727	51.443	21.9727	51.0968	21.9727	51.396	21.9727	51.1575	21.9727	51.3419	21.9727	51.2204	21.9727	51.2827
22.7051	39.9475	22.7051	40.1277	22.7051	39.7719	22.7051	40.3105	22.7051	39.604	22.7051	40.494	22.7051	39.4493	22.7051	40.6757	22.7051	39.3164	22.7051	40.8521	22.7051	39.2171	22.7051	41.0188	22.7051	39.165	22.7051	41.1711	22.7051	39.1733	22.7051	41.3043	22.7051	39.2502	22.7051	41.4146	22.7051	39.3962	22.7051	41.4995	22.7051	39.6021	22.7051	41.5582	22.7051	39.851	22.7051	41.5916	22.7051	40.1218	22.7051	41.6018	22.7051	40.3937	22.7051	41.5915	22.7051	40.6496	22.7051	41.5622	22.7051	40.8773	22.7051	41.5141	22.7051	41.0707	22.7051	41.4451	22.7051	41.2279	22.7051	41.3513
23.8037	43.7332	23.8037	43.696	23.8037	43.7435	23.8037	43.6348	23.8037	43.7241	23.8037	43.5527	23.8037	43.6733	23.8037	43.4527	23.8037	43.5902	23.8037	43.338	23.8037	43.4752	23.8037	43.2114	23.8037	43.3303	23.8037	43.0755	23.8037	43.1593	23.8037	42.933	23.8037	42.968	23.8037	42.7863	23.8037	42.7637	23.8037	42.6375	23.8037	42.5552	23.8037	42.4889	23.8037	42.352	23.8037	42.3425	23.8037	42.1635	23.8037	42.2008	23.8037	41.9983	23.8037	42.067	23.8037	41.8638	23.8037	41.9451	23.8037	41.7653	23.8037	41.8403	23.8037	41.706	23.8037	41.7583	23.8037	41.6866	23.8037	41.7053
24.5361	42.2849	24.5361	42.3486	24.5361	42.1852	24.5361	42.3784	24.5361	42.0476	24.5361	42.3764	24.5361	41.8709	24.5361	42.3446	24.5361	41.6552	24.5361	42.2844	24.5361	41.4021	24.5361	42.1968	24.5361	41.1157	24.5361	42.0822	24.5361	40.8028	24.5361	41.9409	24.5361	40.4732	24.5361	41.7727	24.5361	40.1403	24.5361	41.5777	24.5361	39.8201	24.5361	41.3562	24.5361	39.5307	24.5361	41.1095	24.5361	39.2904	24.5361	40.8403	24.5361	39.1154	24.5361	40.5533	24.5361	39.018	24.5361	40.2562	24.5361	39.0041	24.5361	39.9594	24.5361	39.0729	24.5361	39.6765	24.5361	39.2169	24.5361	39.4234
25.2686	41.5873	25.2686	41.601	25.2686	41.544	25.2686	41.5883	25.2686	41.4683	25.2686	41.5523	25.2686	41.3577	25.2686	41.4957	25.2686	41.2111	25.2686	41.4203	25.2686	41.0289	25.2686	41.3274	25.2686	40.8134	25.2686	41.2174	25.2686	40.5696	25.2686	41.0901	25.2686	40.3048	25.2686	40.945	25.2686	40.0295	25.2686	40.7813	25.2686	39.7562	25.2686	40.5988	25.2686	39.4996	25.2686	40.3983	25.2686	39.2744	25.2686	40.1822	25.2686	39.0948	25.2686	39.9552	25.2686	38.972	25.2686	39.7246	25.2686	38.9135	25.2686	39.5005	25.2686	38.9216	25.2686	39.2951	25.2686	38.9936	25.2686	39.1218
26.3672	40.4787	26.3672	40.4712	26.3672	40.4543	26.3672	40.4353	26.3672	40.3954	26.3672	40.374	26.3672	40.2999	26.3672	40.2903	26.3672	40.1668	26.3672	40.1868	26.3672	39.997	26.3672	40.0658	26.3672	39.793	26.3672	39.9287	26.3672	39.56	26.3672	39.7771	26.3672	39.3054	26.3672	39.6119	26.3672	39.039	26.3672	39.4343	26.3672	38.7727	26.3672	39.2455	26.3672	38.5196	26.3672	39.0474	26.3672	38.2929	26.3672	38.8431	26.3672	38.1046	26.3672	38.6376	26.3672	37.9646	26.3672	38.4376	26.3672	37.8796	26.3672	38.2518	26.3672	37.8524	26.3672	38.0904	26.3672	37.882	26.3672	37.9639
27.0996	40.5775	27.0996	40.5727	27.0996	40.5503	27.0996	40.5382	27.0996	40.4893	27.0996	40.4767	27.0996	40.3936	27.0996	40.391	27.0996	40.2636	27.0996	40.2841	27.0996	40.101	27.0996	40.159	27.0996	39.9094	27.0996	40.0182	27.0996	39.6939	27.0996	39.8646	27.0996	39.4618	27.0996	39.7004	27.0996	39.2217	27.0996	39.528	27.0996	38.9838	27.0996	39.3491	27.0996	38.7586	27.0996	39.166	27.0996	38.5568	27.0996	38.9814	27.0996	38.3879	27.0996	38.7993	27.0996	38.26	27.0996	38.6251	27.0996	38.1786	27.0996	38.466	27.0996	38.1466	27.0996	38.3305	27.0996	38.1639	27.0996	38.2271
28.1982	44.8288	28.1982	44.8778	28.1982	44.7667	28.1982	44.9135	28.1982	44.6913	28.1982	44.936	28.1982	44.6028	28.1982	44.9447	28.1982	44.5018	28.1982	44.9389	28.1982	44.3898	28.1982	44.9174	28.1982	44.2687	28.1982	44.8791	28.1982	44.1417	28.1982	44.823	28.1982	44.0129	28.1982	44.7486	28.1982	43.8871	28.1982	44.6563	28.1982	43.7697	28.1982	44.5474	28.1982	43.6664	28.1982	44.4244	28.1982	43.5825	28.1982	44.2909	28.1982	43.5227	28.1982	44.1516	28.1982	43.4902	28.1982	44.0121	28.1982	43.4873	28.1982	43.8784	28.1982	43.5142	28.1982	43.7565	28.1982	43.57	28.1982	43.652
29.2969	45.6987	29.2969	45.7172	29.2969	45.6627	29.2969	45.7191	29.2969	45.6086	29.2969	45.7053	29.2969	45.536	29.2969	45.6762	29.2969	45.4452	29.2969	45.6323	29.2969	45.3371	29.2969	45.5738	29.2969	45.2139	29.2969	45.5006	29.2969	45.0784	29.2969	45.4129	29.2969	44.9349	29.2969	45.3109	29.2969	44.7883	29.2969	45.1958	29.2969	44.6445	29.2969	45.0693	29.2969	44.5096	29.2969	44.9345	29.2969	44.3898	29.2969	44.7953	29.2969	44.2909	29.2969	44.6568	29.2969	44.2175	29.2969	44.5248	29.2969	44.1733	29.2969	44.4055	29.2969	44.1602	29.2969	44.3048	29.2969	44.1787	29.2969	44.2278
30.0293	48.3231	30.0293	48.2942	30.0293	48.344	30.0293	48.2588	30.0293	48.3553	30.0293	48.2183	30.0293	48.3558	30.0293	48.174	30.0293	48.3443	30.0293	48.1268	30.0293	48.3206	30.0293	48.0774	30.0293	48.2847	30.0293	48.0261	30.0293	48.2373	30.0293	47.9732	30.0293	48.1796	30.0293	47.9189	30.0293	48.1135	30.0293	47.8637	30.0293	48.0413	30.0293	47.8084	30.0293	47.9657	30.0293	47.7545	30.0293	47.8897	30.0293	47.7039	30.0293	47.8162	30.0293	47.659	30.0293	47.7485	30.0293	47.6227	30.0293	47.6896	30.0293	47.5975	30.0293	47.642	30.0293	47.5858	30.0293	47.6081	30.0293	47.5892
31.1279	50.7487	31.1279	50.7554	31.1279	50.7294	31.1279	50.7499	31.1279	50.6974	31.1279	50.7327	31.1279	50.6527	31.1279	50.7045	31.1279	50.596	31.1279	50.6658	31.1279	50.5283	31.1279	50.6173	31.1279	50.451	31.1279	50.5598	31.1279	50.3664	31.1279	50.4942	31.1279	50.277	31.1279	50.4214	31.1279	50.1859	31.1279	50.3429	31.1279	50.0967	31.1279	50.2602	31.1279	50.0126	31.1279	50.1757	31.1279	49.9371	31.1279	50.0919	31.1279	49.8732	31.1279	50.0118	31.1279	49.8232	31.1279	49.9387	31.1279	49.789	31.1279	49.8757	31.1279	49.7719	31.1279	49.8256	31.1279	49.7725	31.1279	49.7907
32.2266	53.9761	32.2266	53.9802	32.2266	53.9628	32.2266	53.9752	32.2266	53.9399	32.2266	53.9616	32.2266	53.9077	32.2266	53.9398	32.2266	53.8665	32.2266	53.9104	32.2266	53.8172	32.2266	53.8738	32.2266	53.7608	32.2266	53.8308	32.2266	53.6988	32.2266	53.7818	32.2266	53.6333	32.2266	53.7279	32.2266	53.5665	32.2266	53.67	32.2266	53.5008	32.2266	53.6094	32.2266	53.4388	32.2266	53.5477	32.2266	53.3828	32.2266	53.4869	32.2266	53.3352	32.2266	53.4291	32.2266	53.2977	32.2266	53.3765	32.2266	53.2719	32.2266	53.3313	32.2266	53.2586	32.2266	53.2955	32.2266	53.2582	32.2266	53.2708
33.3252	56.3842	33.3252	56.3741	33.3252	56.3842	33.3252	56.3547	33.3252	56.374	33.3252	56.3266	33.3252	56.3532	33.3252	56.2905	33.3252	56.3222	33.3252	56.2474	33.3252	56.2814	33.3252	56.1981	33.3252	56.2315	33.3252	56.1437	33.3252	56.1739	33.3252	56.0853	33.3252	56.1102	33.3252	56.0242	33.3252	56.0423	33.3252	55.9617	33.3252	55.9725	33.3252	55.8994	33.3252	55.9032	33.3252	55.8391	33.3252	55.8369	33.3252	55.7826	33.3252	55.7763	33.3252	55.732	33.3252	55.7236	33.3252	55.6894	33.3252	55.6808	33.3252	55.6566	33.3252	55.6497	33.3252	55.6353	33.3252	55.6315	33.3252	55.6267
34.79	58.8292	34.79	58.8197	34.79	58.831	34.79	58.8028	34.79	58.8248	34.79	58.7793	34.79	58.8105	34.79	58.7497	34.79	58.7886	34.79	58.7149	34.79	58.7595	34.79	58.676	34.79	58.7239	34.79	58.6338	34.79	58.6832	34.79	58.5894	34.79	58.6384	34.79	58.5441	34.79	58.5912	34.79	58.4989	34.79	58.5431	34.79	58.4552	34.79	58.4956	34.79	58.4143	34.79	58.4504	34.79	58.3774	34.79	58.4087	34.79	58.3459	34.79	58.3719	34.79	58.3209	34.79	58.3411	34.79	58.3034	34.79	58.3173	34.79	58.2941	34.79	58.3012	34.79	58.2933
35.8887	60.7285	35.8887	60.7247	35.8887	60.7225	35.8887	60.7116	35.8887	60.7069	35.8887	60.6896	35.8887	60.6819	35.8887	60.6594	35.8887	60.6481	35.8887	60.6219	35.8887	60.6064	35.8887	60.5783	35.8887	60.5581	35.8887	60.5299	35.8887	60.5047	35.8887	60.478	35.8887	60.4481	35.8887	60.4241	35.8887	60.3901	35.8887	60.3699	35.8887	60.3328	35.8887	60.3168	35.8887	60.2783	35.8887	60.2665	35.8887	60.2283	35.8887	60.2204	35.8887	60.1846	35.8887	60.1797	35.8887	60.1482	35.8887	60.1456	35.8887	60.1203	35.8887	60.1192	35.8887	60.1014	35.8887	60.101	35.8887	60.0919	35.8887	60.0918
36.9873	62.3511	36.9873	62.347	36.9873	62.3453	36.9873	62.3334	36.9873	62.3297	36.9873	62.3106	36.9873	62.3046	36.9873	62.2792	36.9873	62.2705	36.9873	62.2401	36.9873	62.2282	36.9873	62.1942	36.9873	62.1789	36.9873	62.1428	36.9873	62.1238	36.9873	62.087	36.9873	62.0648	36.9873	62.0285	36.9873	62.0036	36.9873	61.9689	36.9873	61.9422	36.9873	61.9099	36.9873	61.8827	36.9873	61.8533	36.9873	61.8269	36.9873	61.8011	36.9873	61.7768	36.9873	61.7549	36.9873	61.734	36.9873	61.7164	36.9873	61.6999	36.9873	61.6869	36.9873	61.6756	36.9873	61.6676	36.9873	61.6618	36.9873	61.6592
38.4521	64.4996	38.4521	64.5004	38.4521	64.4912	38.4521	64.4936	38.4521	64.4752	38.4521	64.4798	38.4521	64.4518	38.4521	64.4593	38.4521	64.4216	38.4521	64.4329	38.4521	64.3854	38.4521	64.4012	38.4521	64.3441	38.4521	64.3652	38.4521	64.299	38.4521	64.3258	38.4521	64.2517	38.4521	64.2839	38.4521	64.2039	38.4521	64.2407	38.4521	64.1571	38.4521	64.1974	38.4521	64.1132	38.4521	64.155	38.4521	64.0736	38.4521	64.1149	38.4521	64.0399	38.4521	64.078	38.4521	64.013	38.4521	64.0457	38.4521	63.9937	38.4521	64.0188	38.4521	63.9826	38.4521	63.9984	38.4521	63.9798	38.4521	63.9852
39.917	66.0822	39.917	66.0766	39.917	66.0798	39.917	66.0632	39.917	66.0693	39.917	66.0424	39.917	66.0509	39.917	66.015	39.917	66.025	39.917	65.9815	39.917	65.9924	39.917	65.9431	39.917	65.954	39.917	65.9008	39.917	65.911	39.917	65.8556	39.917	65.8646	39.917	65.809	39.917	65.8165	39.917	65.7622	39.917	65.768	39.917	65.7166	39.917	65.7209	39.917	65.6736	39.917	65.6766	39.917	65.6345	39.917	65.6366	39.917	65.6007	39.917	65.6021	39.917	65.5732	39.917	65.574	39.917	65.5528	39.917	65.5534	39.917	65.5404	39.917	65.5407	39.917	65.5363
41.3818	67.6468	41.3818	67.6471	41.3818	67.6379	41.3818	67.6389	41.3818	67.6204	41.3818	67.6225	41.3818	67.5947	41.3818	67.5984	41.3818	67.5615	41.3818	67.5673	41.3818	67.5215	41.3818	67.53	41.3818	67.4758	41.3818	67.4873	41.3818	67.4259	41.3818	67.4405	41.3818	67.3731	41.3818	67.3905	41.3818	67.3191	41.3818	67.3387	41.3818	67.2657	41.3818	67.2865	41.3818	67.2144	41.3818	67.2355	41.3818	67.1671	41.3818	67.1871	41.3818	67.1253	41.3818	67.1432	41.3818	67.0904	41.3818	67.1052	41.3818	67.0636	41.3818	67.0746	41.3818	67.046	41.3818	67.0528	41.3818	67.0381	41.3818	67.0404
42.8467	68.8165	42.8467	68.8147	42.8467	68.8108	42.8467	68.8054	42.8467	68.7976	42.8467	68.7891	42.8467	68.7772	42.8467	68.7664	42.8467	68.7502	42.8467	68.7381	42.8467	68.7175	42.8467	68.705	42.8467	68.6801	42.8467	68.6682	42.8467	68.6393	42.8467	68.6288	42.8467	68.5964	42.8467	68.588	42.8467	68.5528	42.8467	68.5469	42.8467	68.5102	42.8467	68.5066	42.8467	68.4698	42.8467	68.4684	42.8467	68.4329	42.8467	68.4332	42.8467	68.4007	42.8467	68.4021	42.8467	68.374	42.8467	68.3759	42.8467	68.3535	42.8467	68.3554	42.8467	68.3399	42.8467	68.3412	42.8467	68.3332	42.8467	68.3337
44.3115	69.9307	44.3115	69.9279	44.3115	69.9261	44.3115	69.9179	44.3115	69.914	44.3115	69.9011	44.3115	69.8947	44.3115	69.8783	44.3115	69.8688	44.3115	69.8501	44.3115	69.837	44.3115	69.8176	44.3115	69.8004	44.3115	69.7818	44.3115	69.7602	44.3115	69.7437	44.3115	69.7177	44.3115	69.7044	44.3115	69.6746	44.3115	69.665	44.3115	69.6324	44.3115	69.6265	44.3115	69.5924	44.3115	69.5901	44.3115	69.556	44.3115	69.5566	44.3115	69.5244	44.3115	69.5268	44.3115	69.4984	44.3115	69.5017	44.3115	69.4787	44.3115	69.4819	44.3115	69.4658	44.3115	69.4681	44.3115	69.4597	44.3115	69.4605
45.7764	71.0506	45.7764	71.0465	45.7764	71.0479	45.7764	71.0356	45.7764	71.0384	45.7764	71.0185	45.7764	71.0222	45.7764	70.9958	45.7764	70.9999	45.7764	70.9682	45.7764	70.9721	45.7764	70.9366	45.7764	70.9398	45.7764	70.902	45.7764	70.9039	45.7764	70.8655	45.7764	70.8658	45.7764	70.8282	45.7764	70.8267	45.7764	70.7911	45.7764	70.788	45.7764	70.7554	45.7764	70.7508	45.7764	70.722	45.7764	70.7163	45.7764	70.6919	45.7764	70.6857	45.7764	70.6658	45.7764	70.6598	45.7764	70.6444	45.7764	70.6393	45.7764	70.6284	45.7764	70.6247	45.7764	70.6182	45.7764	70.6162	45.7764	70.614
47.2412	72.1498	47.2412	72.1451	47.2412	72.145	47.2412	72.1311	47.2412	72.1305	47.2412	72.1083	47.2412	72.1069	47.2412	72.0774	47.2412	72.0748	47.2412	72.0394	47.2412	72.035	47.2412	71.9955	47.2412	71.9889	47.2412	71.9471	47.2412	71.9378	47.2412	71.8956	47.2412	71.8834	47.2412	71.8424	47.2412	71.8275	47.2412	71.7892	47.2412	71.7719	47.2412	71.7373	47.2412	71.7183	47.2412	71.6883	47.2412	71.6686	47.2412	71.6436	47.2412	71.6243	47.2412	71.6043	47.2412	71.5868	47.2412	71.5717	47.2412	71.5572	47.2412	71.5467	47.2412	71.5364	47.2412	71.5302	47.2412	71.5248	47.2412	71.5228
49.0723	72.9831	49.0723	72.9783	49.0723	72.9794	49.0723	72.9652	49.0723	72.9672	49.0723	72.9441	49.0723	72.9468	49.0723	72.9159	49.0723	72.9189	49.0723	72.8814	49.0723	72.8843	49.0723	72.8418	49.0723	72.8441	49.0723	72.7981	49.0723	72.7995	49.0723	72.7518	49.0723	72.752	49.0723	72.7043	49.0723	72.7032	49.0723	72.657	49.0723	72.6545	49.0723	72.6113	49.0723	72.6076	49.0723	72.5685	49.0723	72.5639	49.0723	72.5298	49.0723	72.5248	49.0723	72.4964	49.0723	72.4914	49.0723	72.469	49.0723	72.4647	49.0723	72.4486	49.0723	72.4454	49.0723	72.4358	49.0723	72.4341	49.0723	72.4308
50.9033	73.9211	50.9033	73.914	50.9033	73.9211	50.9033	73.9002	50.9033	73.914	50.9033	73.8801	50.9033	73.9002	50.9033	73.8543	50.9033	73.88	50.9033	73.824	50.9033	73.8541	50.9033	73.7899	50.9033	73.8235	50.9033	73.7534	50.9033	73.7892	50.9033	73.7155	50.9033	73.7524	50.9033	73.6775	50.9033	73.7142	50.9033	73.6405	50.9033	73.6759	50.9033	73.6056	50.9033	73.6387	50.9033	73.5738	50.9033	73.6036	50.9033	73.546	50.9033	73.5718	50.9033	73.5227	50.9033	73.544	50.9033	73.5047	50.9033	73.5209	50.9033	73.4923	50.9033	73.5033	50.9033	73.4859	50.9033	73.4914	50.9033	73.4855
52.7344	74.6998	52.7344	74.6914	52.7344	74.701	52.7344	74.6761	52.7344	74.695	52.7344	74.6545	52.7344	74.682	52.7344	74.6272	52.7344	74.6626	52.7344	74.5953	52.7344	74.6374	52.7344	74.5599	52.7344	74.6075	52.7344	74.5223	52.7344	74.5738	52.7344	74.4836	52.7344	74.5377	52.7344	74.4453	52.7344	74.5002	52.7344	74.4084	52.7344	74.4627	52.7344	74.3743	52.7344	74.4261	52.7344	74.3437	52.7344	74.3917	52.7344	74.3176	52.7344	74.3602	52.7344	74.2965	52.7344	74.3324	52.7344	74.2809	52.7344	74.309	52.7344	74.2711	52.7344	74.2904	52.7344	74.2673	52.7344	74.277	52.7344	74.2693
54.5654	75.528	54.5654	75.5281	54.5654	75.5191	54.5654	75.5193	54.5654	75.5015	54.5654	75.502	54.5654	75.4759	54.5654	75.477	54.5654	75.4432	54.5654	75.4451	54.5654	75.4045	54.5654	75.4075	54.5654	75.3613	54.5654	75.3658	54.5654	75.3151	54.5654	75.3213	54.5654	75.2675	54.5654	75.2755	54.5654	75.2202	54.5654	75.23	54.5654	75.1749	54.5654	75.1861	54.5654	75.1328	54.5654	75.1451	54.5654	75.0953	54.5654	75.1079	54.5654	75.0633	54.5654	75.0754	54.5654	75.0376	54.5654	75.0482	54.5654	75.0185	54.5654	75.0269	54.5654	75.0065	54.5654	75.0118	54.5654	75.0014	54.5654	75.0032
56.3965	76.0937	56.3965	76.0921	56.3965	76.0858	56.3965	76.081	56.3965	76.0684	56.3965	76.0608	56.3965	76.0422	56.3965	76.0324	56.3965	76.0079	56.3965	75.9966	56.3965	75.9665	56.3965	75.9547	56.3965	75.9194	56.3965	75.9081	56.3965	75.8681	56.3965	75.8582	56.3965	75.8144	56.3965	75.8066	56.3965	75.7601	56.3965	75.7549	56.3965	75.7069	56.3965	75.7046	56.3965	75.6566	56.3965	75.6572	56.3965	75.6108	56.3965	75.6137	56.3965	75.571	56.3965	75.5755	56.3965	75.5383	56.3965	75.5433	56.3965	75.5135	56.3965	75.5181	56.3965	75.4972	56.3965	75.5004	56.3965	75.4896	56.3965	75.4908
58.2275	76.4044	58.2275	76.4021	58.2275	76.3962	58.2275	76.3896	58.2275	76.3778	58.2275	76.3672	58.2275	76.3496	58.2275	76.3359	58.2275	76.3126	58.2275	76.2966	58.2275	76.2681	58.2275	76.2508	58.2275	76.2173	58.2275	76.1998	58.2275	76.1621	58.2275	76.1453	58.2275	76.1044	58.2275	76.0891	58.2275	76.0461	58.2275	76.0328	58.2275	75.989	58.2275	75.9783	58.2275	75.9352	58.2275	75.927	58.2275	75.8862	58.2275	75.8804	58.2275	75.8435	58.2275	75.8397	58.2275	75.8081	58.2275	75.806	58.2275	75.781	58.2275	75.78	58.2275	75.7627	58.2275	75.7623	58.2275	75.7534	58.2275	75.7533
60.4248	77.4234	60.4248	77.4195	60.4248	77.4195	60.4248	77.4081	60.4248	77.4079	60.4248	77.3898	60.4248	77.3886	60.4248	77.3654	60.4248	77.3622	60.4248	77.3357	60.4248	77.3294	60.4248	77.302	60.4248	77.2914	60.4248	77.2653	60.4248	77.2493	60.4248	77.2266	60.4248	77.2047	60.4248	77.1872	60.4248	77.1592	60.4248	77.148	60.4248	77.1143	60.4248	77.11	60.4248	77.0719	60.4248	77.0739	60.4248	77.0333	60.4248	77.0406	60.4248	77.0001	60.4248	77.0108	60.4248	76.9732	60.4248	76.985	60.4248	76.9535	60.4248	76.964	60.4248	76.9412	60.4248	76.9485	60.4248	76.9365	60.4248	76.9391
62.6221	77.7304	62.6221	77.7247	62.6221	77.7285	62.6221	77.7114	62.6221	77.719	62.6221	77.6912	62.6221	77.7023	62.6221	77.6647	62.6221	77.679	62.6221	77.633	62.6221	77.65	62.6221	77.5972	62.6221	77.6165	62.6221	77.5587	62.6221	77.5795	62.6221	77.5188	62.6221	77.5406	62.6221	77.4789	62.6221	77.5009	62.6221	77.4402	62.6221	77.4618	62.6221	77.404	62.6221	77.4245	62.6221	77.3713	62.6221	77.39	62.6221	77.3428	62.6221	77.3593	62.6221	77.3192	62.6221	77.3329	62.6221	77.3009	62.6221	77.3115	62.6221	77.2882	62.6221	77.2954	62.6221	77.2813	62.6221	77.285	62.6221	77.2802
64.8193	78.1231	64.8193	78.114	64.8193	78.1232	64.8193	78.0964	64.8193	78.1145	64.8193	78.0709	64.8193	78.0973	64.8193	78.0385	64.8193	78.0723	64.8193	78.0005	64.8193	78.0404	64.8193	77.9581	64.8193	78.0029	64.8193	77.913	64.8193	77.9611	64.8193	77.8669	64.8193	77.9167	64.8193	77.8211	64.8193	77.871	64.8193	77.7773	64.8193	77.8258	64.8193	77.7366	64.8193	77.7822	64.8193	77.7001	64.8193	77.7417	64.8193	77.6688	64.8193	77.7052	64.8193	77.6433	64.8193	77.6735	64.8193	77.6241	64.8193	77.6474	64.8193	77.6114	64.8193	77.6272	64.8193	77.6053	64.8193	77.6133	64.8193	77.606
67.0166	78.5805	67.0166	78.5727	67.0166	78.5787	67.0166	78.5554	67.0166	78.5671	67.0166	78.5293	67.0166	78.5463	67.0166	78.4954	67.0166	78.5169	67.0166	78.455	67.0166	78.48	67.0166	78.4094	67.0166	78.4369	67.0166	78.3603	67.0166	78.3891	67.0166	78.3094	67.0166	78.3384	67.0166	78.2584	67.0166	78.2863	67.0166	78.2089	67.0166	78.2348	67.0166	78.1624	67.0166	78.1854	67.0166	78.12	67.0166	78.1397	67.0166	78.0829	67.0166	78.099	67.0166	78.0519	67.0166	78.0643	67.0166	78.0275	67.0166	78.0365	67.0166	78.0101	67.0166	78.0159	67.0166	78.0002	67.0166	78.003	67.0166	77.9977
69.2139	78.9299	69.2139	78.9171	69.2139	78.934	69.2139	78.8959	69.2139	78.9291	69.2139	78.867	69.2139	78.9158	69.2139	78.8314	69.2139	78.8945	69.2139	78.7904	69.2139	78.8662	69.2139	78.7455	69.2139	78.8319	69.2139	78.6983	69.2139	78.7929	69.2139	78.6506	69.2139	78.7507	69.2139	78.6041	69.2139	78.7066	69.2139	78.5604	69.2139	78.6621	69.2139	78.5208	69.2139	78.6185	69.2139	78.4865	69.2139	78.577	69.2139	78.4583	69.2139	78.5387	69.2139	78.4368	69.2139	78.5044	69.2139	78.4222	69.2139	78.4749	69.2139	78.4146	69.2139	78.4507	69.2139	78.4139	69.2139	78.4322	69.2139	78.4198
71.7773	79.3135	71.7773	79.3027	71.7773	79.3151	71.7773	79.2829	71.7773	79.3079	71.7773	79.2548	71.7773	79.2922	71.7773	79.2192	71.7773	79.2688	71.7773	79.1775	71.7773	79.239	71.7773	79.1312	71.7773	79.2038	71.7773	79.0821	71.7773	79.1646	71.7773	79.0321	71.7773	79.1228	71.7773	78.9831	71.7773	79.0799	71.7773	78.9371	71.7773	79.0369	71.7773	78.8957	71.7773	78.9952	71.7773	78.8603	71.7773	78.9556	71.7773	78.8317	71.7773	78.9189	71.7773	78.8105	71.7773	78.8859	71.7773	78.797	71.7773	78.8569	71.7773	78.7909	71.7773	78.8326	71.7773	78.7919	71.7773	78.8133	71.7773	78.7996
74.3408	79.749	74.3408	79.746	74.3408	79.7426	74.3408	79.7334	74.3408	79.727	74.3408	79.7118	74.3408	79.7027	74.3408	79.6816	74.3408	79.6708	74.3408	79.6441	74.3408	79.6322	74.3408	79.6003	74.3408	79.5883	74.3408	79.5519	74.3408	79.5408	74.3408	79.5005	74.3408	79.4911	74.3408	79.4481	74.3408	79.4409	74.3408	79.3964	74.3408	79.3918	74.3408	79.3473	74.3408	79.3454	74.3408	79.3023	74.3408	79.3028	74.3408	79.2628	74.3408	79.2651	74.3408	79.2299	74.3408	79.2331	74.3408	79.2041	74.3408	79.2075	74.3408	79.1859	74.3408	79.1887	74.3408	79.1753	74.3408	79.1769	74.3408	79.1723
76.9043	79.9592	76.9043	79.9529	76.9043	79.9561	76.9043	79.9371	76.9043	79.9438	76.9043	79.9122	76.9043	79.9226	76.9043	79.8789	76.9043	79.8934	76.9043	79.8379	76.9043	79.8568	76.9043	79.7905	76.9043	79.8141	76.9043	79.738	76.9043	79.7664	76.9043	79.6822	76.9043	79.7149	76.9043	79.6248	76.9043	79.6611	76.9043	79.5676	76.9043	79.6065	76.9043	79.5126	76.9043	79.5526	76.9043	79.4617	76.9043	79.5009	76.9043	79.4164	76.9043	79.453	76.9043	79.3784	76.9043	79.4104	76.9043	79.3487	76.9043	79.3744	76.9043	79.3284	76.9043	79.3464	76.9043	79.3179	76.9043	79.3271	76.9043	79.3175
79.834	79.8451	79.834	79.8393	79.834	79.8425	79.834	79.8253	79.834	79.8319	79.834	79.8034	79.834	79.8137	79.834	79.7743	79.834	79.7887	79.834	79.739	79.834	79.7578	79.834	79.6987	79.834	79.7222	79.834	79.6546	79.834	79.6829	79.834	79.6084	79.834	79.6414	79.834	79.5618	79.834	79.5988	79.834	79.5162	79.834	79.5563	79.834	79.4733	79.834	79.515	79.834	79.4344	79.834	79.476	79.834	79.4009	79.834	79.4402	79.834	79.3736	79.834	79.4084	79.834	79.3531	79.834	79.3814	79.834	79.34	79.834	79.3599	79.834	79.3342	79.834	79.3446	79.834	79.3359
82.3975	79.7956	82.3975	79.7925	82.3975	79.7885	82.3975	79.7791	82.3975	79.7716	82.3975	79.7559	82.3975	79.7454	82.3975	79.7234	82.3975	79.7109	82.3975	79.6825	82.3975	79.6693	82.3975	79.6346	82.3975	79.6219	82.3975	79.5811	82.3975	79.5703	82.3975	79.5239	82.3975	79.5161	82.3975	79.4647	82.3975	79.461	82.3975	79.4057	82.3975	79.4066	82.3975	79.349	82.3975	79.3544	82.3975	79.2965	82.3975	79.3058	82.3975	79.2499	82.3975	79.2619	82.3975	79.2109	82.3975	79.2237	82.3975	79.1804	82.3975	79.1922	82.3975	79.1591	82.3975	79.1682	82.3975	79.1474	82.3975	79.1524	82.3975	79.1453
85.3271	80.4482	85.3271	80.4369	85.3271	80.4568	85.3271	80.4233	85.3271	80.4624	85.3271	80.4075	85.3271	80.4642	85.3271	80.3897	85.3271	80.4617	85.3271	80.3697	85.3271	80.4543	85.3271	80.3473	85.3271	80.4414	85.3271	80.3223	85.3271	80.4225	85.3271	80.2946	85.3271	80.3976	85.3271	80.2643	85.3271	80.3666	85.3271	80.2317	85.3271	80.3302	85.3271	80.1976	85.3271	80.2895	85.3271	80.1631	85.3271	80.2461	85.3271	80.1299	85.3271	80.2019	85.3271	80.1	85.3271	80.1593	85.3271	80.0755	85.3271	80.121	85.3271	80.0585	85.3271	80.0893	85.3271	80.0507	85.3271	80.0662	85.3271	80.0531
88.2568	79.8366	88.2568	79.8325	88.2568	79.8387	88.2568	79.8267	88.2568	79.8391	88.2568	79.8202	88.2568	79.8388	88.2568	79.8145	88.2568	79.8393	88.2568	79.8113	88.2568	79.8421	88.2568	79.8125	88.2568	79.8492	88.2568	79.8198	88.2568	79.8621	88.2568	79.8343	88.2568	79.8817	88.2568	79.8568	88.2568	79.9084	88.2568	79.8868	88.2568	79.9413	88.2568	79.9234	88.2568	79.9791	88.2568	79.9647	88.2568	80.0193	88.2568	80.008	88.2568	80.0591	88.2568	80.0506	88.2568	80.0956	88.2568	80.0893	88.2568	80.1258	88.2568	80.1215	88.2568	80.1471	88.2568	80.1447	88.2568	80.1579	88.2568	80.1571
91.5527	80.8981	91.5527	80.8797	91.5527	80.9017	91.5527	80.8471	91.5527	80.8904	91.5527	80.8017	91.5527	80.8645	91.5527	80.7451	91.5527	80.8251	91.5527	80.6795	91.5527	80.7736	91.5527	80.6071	91.5527	80.7119	91.5527	80.5306	91.5527	80.6424	91.5527	80.4525	91.5527	80.5675	91.5527	80.3754	91.5527	80.49	91.5527	80.3017	91.5527	80.4123	91.5527	80.2334	91.5527	80.337	91.5527	80.1725	91.5527	80.2663	91.5527	80.1204	91.5527	80.202	91.5527	80.0782	91.5527	80.1457	91.5527	80.0468	91.5527	80.0987	91.5527	80.0267	91.5527	80.0619	91.5527	80.0181	91.5527	80.0359	91.5527	80.0213
94.8486	81.1559	94.8486	81.1379	94.8486	81.1606	94.8486	81.1073	94.8486	81.1519	94.8486	81.065	94.8486	81.1302	94.8486	81.0125	94.8486	81.0963	94.8486	80.9515	94.8486	81.0513	94.8486	80.8842	94.8486	80.9968	94.8486	80.8126	94.8486	80.9343	94.8486	80.739	94.8486	80.8659	94.8486	80.6656	94.8486	80.7936	94.8486	80.5946	94.8486	80.7195	94.8486	80.5277	94.8486	80.6458	94.8486	80.4669	94.8486	80.5746	94.8486	80.4138	94.8486	80.5081	94.8486	80.3699	94.8486	80.4483	94.8486	80.3366	94.8486	80.397	94.8486	80.3149	94.8486	80.3561	94.8486	80.3059	94.8486	80.3267	94.8486	80.3098
98.1445	81.2204	98.1445	81.2097	98.1445	81.2197	98.1445	81.1878	98.1445	81.2082	98.1445	81.1551	98.1445	81.1864	98.1445	81.1128	98.1445	81.1556	98.1445	81.0624	98.1445	81.1169	98.1445	81.0058	98.1445	81.0719	98.1445	80.9452	98.1445	81.022	98.1445	80.883	98.1445	80.9686	98.1445	80.8215	98.1445	80.9134	98.1445	80.7629	98.1445	80.8577	98.1445	80.709	98.1445	80.8028	98.1445	80.6613	98.1445	80.7502	98.1445	80.621	98.1445	80.7013	98.1445	80.589	98.1445	80.6572	98.1445	80.5658	98.1445	80.6192	98.1445	80.5518	98.1445	80.5885	98.1445	80.5471	98.1445	80.5658	98.1445	80.5518
101.44	81.0127	101.44	81.0212	101.44	80.9978	101.44	81.0226	101.44	80.9775	101.44	81.0168	101.44	80.953	101.44	81.0039	101.44	80.9257	101.44	80.9844	101.44	80.897	101.44	80.9593	101.44	80.8684	101.44	80.9295	101.44	80.8411	101.44	80.8967	101.44	80.8159	101.44	80.8622	101.44	80.7933	101.44	80.8277	101.44	80.7735	101.44	80.7948	101.44	80.7563	101.44	80.7648	101.44	80.7414	101.44	80.7389	101.44	80.7282	101.44	80.7179	101.44	80.7165	101.44	80.7025	101.44	80.7062	101.44	80.6925	101.44	80.6976	101.44	80.6877	101.44	80.6911	101.44	80.6875
105.103	80.9505	105.103	80.9495	105.103	80.9445	105.103	80.9414	105.103	80.9323	105.103	80.9269	105.103	80.9152	105.103	80.9072	105.103	80.8954	105.103	80.8842	105.103	80.875	105.103	80.8599	105.103	80.8564	105.103	80.8365	105.103	80.8417	105.103	80.8159	105.103	80.8324	105.103	80.7999	105.103	80.8289	105.103	80.7894	105.103	80.8313	105.103	80.785	105.103	80.8382	105.103	80.7868	105.103	80.8478	105.103	80.7939	105.103	80.8582	105.103	80.8052	105.103	80.867	105.103	80.8194	105.103	80.8725	105.103	80.8346	105.103	80.8736	105.103	80.8491	105.103	80.8697	105.103	80.8613
108.765	80.9985	108.765	80.9975	108.765	80.9869	108.765	80.9843	108.765	80.9635	108.765	80.9598	108.765	80.9301	108.765	80.9258	108.765	80.889	108.765	80.8847	108.765	80.8432	108.765	80.8394	108.765	80.7963	108.765	80.7929	108.765	80.7515	108.765	80.7481	108.765	80.7117	108.765	80.7074	108.765	80.6791	108.765	80.6728	108.765	80.6549	108.765	80.6455	108.765	80.639	108.765	80.6261	108.765	80.6302	108.765	80.6141	108.765	80.6266	108.765	80.6087	108.765	80.6262	108.765	80.6084	108.765	80.6267	108.765	80.6115	108.765	80.6265	108.765	80.6163	108.765	80.6247	108.765	80.621
112.793	80.9542	112.793	80.938	112.793	80.9577	112.793	80.9101	112.793	80.9485	112.793	80.8721	112.793	80.9275	112.793	80.8264	112.793	80.8964	112.793	80.776	112.793	80.8575	112.793	80.7242	112.793	80.8136	112.793	80.6743	112.793	80.7676	112.793	80.6295	112.793	80.7227	112.793	80.5922	112.793	80.6815	112.793	80.564	112.793	80.6462	112.793	80.5454	112.793	80.618	112.793	80.5359	112.793	80.5974	112.793	80.5341	112.793	80.5838	112.793	80.5379	112.793	80.576	112.793	80.5448	112.793	80.5721	112.793	80.5526	112.793	80.5701	112.793	80.5597	112.793	80.5682	112.793	80.5649
116.455	80.8872	116.455	80.8847	116.455	80.8762	116.455	80.869	116.455	80.8522	116.455	80.8411	116.455	80.8168	116.455	80.803	116.455	80.7724	116.455	80.7572	116.455	80.7219	116.455	80.7067	116.455	80.6688	116.455	80.655	116.455	80.6167	116.455	80.6052	116.455	80.569	116.455	80.5605	116.455	80.5285	116.455	80.5232	116.455	80.497	116.455	80.4948	116.455	80.4754	116.455	80.4757	116.455	80.4632	116.455	80.4654	116.455	80.4588	116.455	80.462	116.455	80.4599	116.455	80.4634	116.455	80.464	116.455	80.4672	116.455	80.4687	116.455	80.4708	116.455	80.472	116.455	80.4727
120.85	80.9037	120.85	80.8947	120.85	80.898	120.85	80.8717	120.85	80.8776	120.85	80.8361	120.85	80.8433	120.85	80.7897	120.85	80.7967	120.85	80.7351	120.85	80.74	120.85	80.675	120.85	80.6759	120.85	80.6123	120.85	80.6078	120.85	80.55	120.85	80.5392	120.85	80.4909	120.85	80.4735	120.85	80.4371	120.85	80.4139	120.85	80.3903	120.85	80.3625	120.85	80.3513	120.85	80.3209	120.85	80.3201	120.85	80.2895	120.85	80.2962	120.85	80.2678	120.85	80.2783	120.85	80.2545	120.85	80.2652	120.85	80.2481	120.85	80.2559	120.85	80.247	120.85	80.2498
124.878	80.8059	124.878	80.7917	124.878	80.8054	124.878	80.7636	124.878	80.79	124.878	80.723	124.878	80.7601	124.878	80.6722	124.878	80.7171	124.878	80.6137	124.878	80.6628	124.878	80.5502	124.878	80.5998	124.878	80.485	124.878	80.5309	124.878	80.4208	124.878	80.4597	124.878	80.3604	124.878	80.3896	124.878	80.3058	124.878	80.3239	124.878	80.2586	124.878	80.2654	124.878	80.2195	124.878	80.2164	124.878	80.1883	124.878	80.1779	124.878	80.1644	124.878	80.1499	124.878	80.1465	124.878	80.1316	124.878	80.1336	124.878	80.1215	124.878	80.1246	124.878	80.1179	124.878	80.1193
129.272	80.6371	129.272	80.6259	129.272	80.6363	129.272	80.6033	129.272	80.624	129.272	80.5707	129.272	80.601	129.272	80.5301	129.272	80.5689	129.272	80.4839	129.272	80.53	129.272	80.4351	129.272	80.4864	129.272	80.3866	129.272	80.4408	129.272	80.3411	129.272	80.3956	129.272	80.3008	129.272	80.3531	129.272	80.2673	129.272	80.3153	129.272	80.2415	129.272	80.2834	129.272	80.2233	129.272	80.2582	129.272	80.2121	129.272	80.2397	129.272	80.2066	129.272	80.2272	129.272	80.2051	129.272	80.2194	129.272	80.206	129.272	80.2149	129.272	80.208	129.272	80.2122	129.272	80.2101
134.033	80.6119	134.033	80.6104	134.033	80.6002	134.033	80.596	134.033	80.5761	134.033	80.5698	134.033	80.5413	134.033	80.5336	134.033	80.4979	134.033	80.4902	134.033	80.4488	134.033	80.4426	134.033	80.397	134.033	80.3942	134.033	80.3456	134.033	80.348	134.033	80.2973	134.033	80.3064	134.033	80.2546	134.033	80.2712	134.033	80.2193	134.033	80.2433	134.033	80.1923	134.033	80.2225	134.033	80.1739	134.033	80.208	134.033	80.1633	134.033	80.1982	134.033	80.1594	134.033	80.1916	134.033	80.1605	134.033	80.1865	134.033	80.1647	134.033	80.1816	134.033	80.1704	134.033	80.1762
138.794	80.498	138.794	80.502	138.794	80.4789	138.794	80.4908	138.794	80.4457	138.794	80.4653	138.794	80.4004	138.794	80.4274	138.794	80.3458	138.794	80.3798	138.794	80.285	138.794	80.3259	138.794	80.2217	138.794	80.2695	138.794	80.1596	138.794	80.2144	138.794	80.1021	138.794	80.1638	138.794	80.052	138.794	80.1203	138.794	80.0116	138.794	80.0852	138.794	79.982	138.794	80.0586	138.794	79.9632	138.794	80.0396	138.794	79.9545	138.794	80.0264	138.794	79.954	138.794	80.0168	138.794	79.9597	138.794	80.0086	138.794	79.9691	138.794	80.0001	138.794	79.9799	138.794	79.9906
143.555	80.4114	143.555	80.4073	143.555	80.3981	143.555	80.3862	143.555	80.368	143.555	80.3494	143.555	80.3223	143.555	80.2992	143.555	80.2635	143.555	80.2384	143.555	80.1944	143.555	80.1703	143.555	80.1187	143.555	80.0985	143.555	80.0403	143.555	80.027	143.555	79.9631	143.555	79.959	143.555	79.8907	143.555	79.8976	143.555	79.8263	143.555	79.8447	143.555	79.7723	143.555	79.8011	143.555	79.73	143.555	79.7667	143.555	79.6998	143.555	79.7404	143.555	79.681	143.555	79.7203	143.555	79.6719	143.555	79.7048	143.555	79.6704	143.555	79.6923	143.555	79.6744	143.555	79.6821
148.682	80.0502	148.682	80.0467	148.682	80.0413	148.682	80.0314	148.682	80.0198	148.682	80.0057	148.682	79.9864	148.682	79.9712	148.682	79.9423	148.682	79.9302	148.682	79.8893	148.682	79.8849	148.682	79.8298	148.682	79.8374	148.682	79.7664	148.682	79.7899	148.682	79.7019	148.682	79.7439	148.682	79.6392	148.682	79.7004	148.682	79.5809	148.682	79.6599	148.682	79.5295	148.682	79.6226	148.682	79.4871	148.682	79.5879	148.682	79.4549	148.682	79.5554	148.682	79.4339	148.682	79.525	148.682	79.4238	148.682	79.4966	148.682	79.4239	148.682	79.471	148.682	79.433	148.682	79.4493
153.809	79.721	153.809	79.7129	153.809	79.7187	153.809	79.6945	153.809	79.7069	153.809	79.6673	153.809	79.6877	153.809	79.6335	153.809	79.6638	153.809	79.5963	153.809	79.6385	153.809	79.5592	153.809	79.6151	153.809	79.5259	153.809	79.5963	153.809	79.5001	153.809	79.584	153.809	79.4844	153.809	79.5794	153.809	79.4804	153.809	79.5821	153.809	79.4883	153.809	79.5912	153.809	79.5067	153.809	79.6048	153.809	79.5329	153.809	79.6209	153.809	79.5634	153.809	79.637	153.809	79.5943	153.809	79.6508	153.809	79.6218	153.809	79.6599	153.809	79.6434	153.809	79.6624	153.809	79.6571
159.302	79.6612	159.302	79.6573	159.302	79.646	159.302	79.6351	159.302	79.6122	159.302	79.5969	159.302	79.5621	159.302	79.5457	159.302	79.4992	159.302	79.4856	159.302	79.4286	159.302	79.4212	159.302	79.3564	159.302	79.357	159.302	79.2888	159.302	79.2977	159.302	79.2318	159.302	79.2472	159.302	79.1899	159.302	79.2086	159.302	79.1653	159.302	79.1838	159.302	79.1578	159.302	79.173	159.302	79.1649	159.302	79.1749	159.302	79.1822	159.302	79.1867	159.302	79.2043	159.302	79.2045	159.302	79.226	159.302	79.2238	159.302	79.2425	159.302	79.2401	159.302	79.251	159.302	79.25
164.795	79.7215	164.795	79.7113	164.795	79.7145	164.795	79.6848	164.795	79.6906	164.795	79.6439	164.795	79.6512	164.795	79.5914	164.795	79.5991	164.795	79.531	164.795	79.5378	164.795	79.4668	164.795	79.4719	164.795	79.4029	164.795	79.4062	164.795	79.3435	164.795	79.3454	164.795	79.292	164.795	79.2936	164.795	79.2508	164.795	79.2536	164.795	79.2213	164.795	79.2267	164.795	79.2036	164.795	79.2122	164.795	79.1965	164.795	79.208	164.795	79.1978	164.795	79.2109	164.795	79.2044	164.795	79.2172	164.795	79.2133	164.795	79.2234	164.795	79.2213	164.795	79.2269	164.795	79.2263
170.654	79.643	170.654	79.6271	170.654	79.6426	170.654	79.5959	170.654	79.626	170.654	79.5517	170.654	79.5944	170.654	79.4976	170.654	79.5504	170.654	79.4374	170.654	79.4973	170.654	79.3754	170.654	79.4393	170.654	79.3156	170.654	79.3811	170.654	79.2621	170.654	79.3269	170.654	79.2177	170.654	79.2806	170.654	79.1844	170.654	79.2447	170.654	79.1631	170.654	79.2202	170.654	79.1532	170.654	79.2066	170.654	79.1531	170.654	79.2018	170.654	79.1604	170.654	79.2029	170.654	79.1721	170.654	79.2066	170.654	79.1852	170.654	79.2097	170.654	79.1971	170.654	79.2098	170.654	79.2056
176.88	79.6344	176.88	79.6147	176.88	79.6375	176.88	79.58	176.88	79.6241	176.88	79.5329	176.88	79.5956	176.88	79.4773	176.88	79.5549	176.88	79.4181	176.88	79.5058	176.88	79.3601	176.88	79.4531	176.88	79.3083	176.88	79.4016	176.88	79.2665	176.88	79.356	176.88	79.2374	176.88	79.3199	176.88	79.2221	176.88	79.2957	176.88	79.2201	176.88	79.284	176.88	79.2294	176.88	79.2834	176.88	79.2469	176.88	79.2914	176.88	79.2689	176.88	79.3044	176.88	79.2919	176.88	79.3185	176.88	79.3123	176.88	79.3302	176.88	79.3276	176.88	79.3366	176.88	79.3359
183.105	79.676	183.105	79.6646	183.105	79.6689	183.105	79.6355	183.105	79.644	183.105	79.5911	183.105	79.6036	183.105	79.5353	183.105	79.5514	183.105	79.473	183.105	79.4923	183.105	79.4101	183.105	79.4319	183.105	79.3522	183.105	79.376	183.105	79.305	183.105	79.3301	183.105	79.2725	183.105	79.2983	183.105	79.257	183.105	79.283	183.105	79.2586	183.105	79.2842	183.105	79.2754	183.105	79.2998	183.105	79.3033	183.105	79.3257	183.105	79.3373	183.105	79.3569	183.105	79.3719	183.105	79.3876	183.105	79.4019	183.105	79.4129	183.105	79.4229	183.105	79.4286	183.105	79.4321
189.331	79.5562	189.331	79.5346	189.331	79.5573	189.331	79.4936	189.331	79.5384	189.331	79.4361	189.331	79.5015	189.331	79.3665	189.331	79.4502	189.331	79.2906	189.331	79.3892	189.331	79.2152	189.331	79.3243	189.331	79.1473	189.331	79.2617	189.331	79.0933	189.331	79.2076	189.331	79.0579	189.331	79.1672	189.331	79.0437	189.331	79.144	189.331	79.0504	189.331	79.139	189.331	79.075	189.331	79.1507	189.331	79.1125	189.331	79.1751	189.331	79.1567	189.331	79.2063	189.331	79.201	189.331	79.238	189.331	79.2393	189.331	79.2639	189.331	79.2668	189.331	79.2792	189.331	79.2805
196.289	79.6489	196.289	79.638	196.289	79.6375	196.289	79.6047	196.289	79.6049	196.289	79.551	196.289	79.5543	196.289	79.4803	196.289	79.4895	196.289	79.3976	196.289	79.4157	196.289	79.3091	196.289	79.3385	196.289	79.2217	196.289	79.2638	196.289	79.1424	196.289	79.1969	196.289	79.0774	196.289	79.1422	196.289	79.0311	196.289	79.1028	196.289	79.0054	196.289	79.0795	196.289	78.9995	196.289	79.0713	196.289	79.0102	196.289	79.0754	196.289	79.0321	196.289	79.0873	196.289	79.0593	196.289	79.1021	196.289	79.0858	196.289	79.1148	196.289	79.1067	196.289	79.1213	196.289	79.1189
202.881	79.7484	202.881	79.7333	202.881	79.7413	202.881	79.6963	202.881	79.7135	202.881	79.6396	202.881	79.6678	202.881	79.567	202.881	79.6088	202.881	79.484	202.881	79.5415	202.881	79.3972	202.881	79.4721	202.881	79.314	202.881	79.4065	202.881	79.2415	202.881	79.3499	202.881	79.1859	202.881	79.3066	202.881	79.1513	202.881	79.279	202.881	79.1389	202.881	79.2672	202.881	79.1472	202.881	79.2695	202.881	79.1719	202.881	79.2823	202.881	79.2072	202.881	79.3006	202.881	79.2464	202.881	79.3191	202.881	79.2832	202.881	79.3329	202.881	79.3127	202.881	79.3378	202.881	79.3313
210.205	79.6488	210.205	79.6432	210.205	79.6316	210.205	79.6152	210.205	79.5929	210.205	79.5668	210.205	79.5358	210.205	79.5019	210.205	79.4649	210.205	79.4254	210.205	79.3862	210.205	79.3435	210.205	79.3068	210.205	79.2632	210.205	79.2339	210.205	79.1916	210.205	79.174	210.205	79.1349	210.205	79.1323	210.205	79.098	210.205	79.1115	210.205	79.0831	210.205	79.1113	210.205	79.0895	210.205	79.1288	210.205	79.1135	210.205	79.1588	210.205	79.1493	210.205	79.1946	210.205	79.1896	210.205	79.2292	210.205	79.2272	210.205	79.2564	210.205	79.2559	210.205	79.2714	210.205	79.2714
217.529	79.481	217.529	79.473	217.529	79.4643	217.529	79.4413	217.529	79.4239	217.529	79.3889	217.529	79.363	217.529	79.3204	217.529	79.2865	217.529	79.242	217.529	79.2011	217.529	79.1609	217.529	79.1146	217.529	79.0845	217.529	79.0351	217.529	79.0201	217.529	78.9701	217.529	78.9733	217.529	78.9257	217.529	78.948	217.529	78.9051	217.529	78.945	217.529	78.9087	217.529	78.9623	217.529	78.9334	217.529	78.9951	217.529	78.9736	217.529	79.0367	217.529	79.0219	217.529	79.0796	217.529	79.0701	217.529	79.1163	217.529	79.1109	217.529	79.1407	217.529	79.1382	217.529	79.1485
225.22	79.5983	225.22	79.5955	225.22	79.5729	225.22	79.5653	225.22	79.5207	225.22	79.5104	225.22	79.4449	225.22	79.4351	225.22	79.3507	225.22	79.3456	225.22	79.2454	225.22	79.2492	225.22	79.1374	225.22	79.1545	225.22	79.0364	225.22	79.0698	225.22	78.9514	225.22	79.0027	225.22	78.8904	225.22	78.9588	225.22	78.8583	225.22	78.9406	225.22	78.8559	225.22	78.9471	225.22	78.8802	225.22	78.9735	225.22	78.9244	225.22	79.0126	225.22	78.9792	225.22	79.0556	225.22	79.0348	225.22	79.0936	225.22	79.082	225.22	79.1191	225.22	79.114	225.22	79.1267
233.276	79.5355	233.276	79.5156	233.276	79.526	233.276	79.4678	233.276	79.4874	233.276	79.3953	233.276	79.4221	233.276	79.3034	233.276	79.3343	233.276	79.1988	233.276	79.2301	233.276	79.0891	233.276	79.117	233.276	78.9831	233.276	79.0038	233.276	78.8889	233.276	78.8996	233.276	78.8139	233.276	78.8132	233.276	78.7632	233.276	78.7514	233.276	78.7388	233.276	78.7181	233.276	78.7395	233.276	78.7133	233.276	78.7605	233.276	78.7327	233.276	78.7946	233.276	78.7686	233.276	78.8329	233.276	78.8115	233.276	78.8668	233.276	78.8518	233.276	78.8888	233.276	78.8811	233.276	78.8941
241.333	79.2961	241.333	79.2788	241.333	79.2859	241.333	79.2351	241.333	79.2492	241.333	79.1681	241.333	79.1889	241.333	79.0826	241.333	79.1096	241.333	78.9853	241.333	79.0174	241.333	78.8838	241.333	78.9193	241.333	78.7865	241.333	78.8228	241.333	78.7012	241.333	78.7352	241.333	78.6347	241.333	78.6627	241.333	78.5911	241.333	78.6099	241.333	78.5716	241.333	78.5791	241.333	78.5742	241.333	78.5702	241.333	78.5937	241.333	78.5802	241.333	78.6234	241.333	78.604	241.333	78.6553	241.333	78.6348	241.333	78.6823	241.333	78.6654	241.333	78.6986	241.333	78.6891	241.333	78.701
250.122	79.115	250.122	79.0979	250.122	79.0987	250.122	79.0484	250.122	79.0509	250.122	78.9699	250.122	78.9759	250.122	78.8683	250.122	78.8806	250.122	78.7517	250.122	78.7739	250.122	78.6301	250.122	78.6659	250.122	78.5146	250.122	78.5669	250.122	78.4165	250.122	78.4857	250.122	78.3453	250.122	78.429	250.122	78.3075	250.122	78.4001	250.122	78.3047	250.122	78.3985	250.122	78.3335	250.122	78.4207	250.122	78.3857	250.122	78.4601	250.122	78.4506	250.122	78.5086	250.122	78.5165	250.122	78.5576	250.122	78.5728	250.122	78.5984	250.122	78.612	250.122	78.6241	250.122	78.6294
258.911	79.2812	258.911	79.2625	258.911	79.2636	258.911	79.2085	258.911	79.2111	258.911	79.1226	258.911	79.1275	258.911	79.0102	258.911	79.0193	258.911	78.8791	258.911	78.8949	258.911	78.7386	258.911	78.765	258.911	78.5994	258.911	78.6408	258.911	78.4728	258.911	78.5331	258.911	78.3689	258.911	78.4506	258.911	78.2959	258.911	78.3982	258.911	78.2578	258.911	78.3764	258.911	78.2543	258.911	78.3815	258.911	78.28	258.911	78.406	258.911	78.3261	258.911	78.4406	258.911	78.3818	258.911	78.4757	258.911	78.436	258.911	78.5025	258.911	78.4798	258.911	78.5141	258.911	78.5068
268.066	79.13	268.066	79.1194	268.066	79.1044	268.066	79.0746	268.066	79.0436	268.066	79	268.066	78.9518	268.066	78.9023	268.066	78.8362	268.066	78.79	268.066	78.7074	268.066	78.6729	268.066	78.5781	268.066	78.5612	268.066	78.4625	268.066	78.4647	268.066	78.3734	268.066	78.3921	268.066	78.3206	268.066	78.3495	268.066	78.3082	268.066	78.3396	268.066	78.3342	268.066	78.3613	268.066	78.3904	268.066	78.4093	268.066	78.4649	268.066	78.4748	268.066	78.5442	268.066	78.5469	268.066	78.6156	268.066	78.6141	268.066	78.6686	268.066	78.6662	268.066	78.6961	268.066	78.695
277.222	79.3036	277.222	79.2719	277.222	79.3003	277.222	79.2071	277.222	79.2617	277.222	79.1125	277.222	79.1895	277.222	78.994	277.222	79.0873	277.222	78.8597	277.222	78.9615	277.222	78.72	277.222	78.8214	277.222	78.5875	277.222	78.6793	277.222	78.4748	277.222	78.5492	277.222	78.393	277.222	78.4452	277.222	78.3491	277.222	78.3782	277.222	78.3445	277.222	78.3537	277.222	78.3748	277.222	78.3699	277.222	78.4306	277.222	78.4182	277.222	78.4998	277.222	78.4856	277.222	78.5695	277.222	78.5572	277.222	78.628	277.222	78.6195	277.222	78.6663	277.222	78.662	277.222	78.6783
287.109	79.139	287.109	79.1192	287.109	79.1194	287.109	79.0615	287.109	79.062	287.109	78.9706	287.109	78.9711	287.109	78.8542	287.109	78.8537	287.109	78.7226	287.109	78.7193	287.109	78.588	287.109	78.579	287.109	78.4635	287.109	78.4454	287.109	78.3615	287.109	78.3319	287.109	78.292	287.109	78.2503	287.109	78.2609	287.109	78.2094	287.109	78.2688	287.109	78.2122	287.109	78.3109	287.109	78.2552	287.109	78.3776	287.109	78.3283	287.109	78.4565	287.109	78.4172	287.109	78.5344	287.109	78.5064	287.109	78.5991	287.109	78.5817	287.109	78.6408	287.109	78.6327	287.109	78.6529
297.363	79.2756	297.363	79.2708	297.363	79.2341	297.363	79.2213	297.363	79.1479	297.363	79.1317	297.363	79.022	297.363	79.0092	297.363	78.8653	297.363	78.864	297.363	78.6903	297.363	78.7085	297.363	78.5123	297.363	78.5578	297.363	78.3486	297.363	78.4274	297.363	78.2158	297.363	78.332	297.363	78.1275	297.363	78.2821	297.363	78.092	297.363	78.2817	297.363	78.1103	297.363	78.3266	297.363	78.1763	297.363	78.4055	297.363	78.2772	297.363	78.5018	297.363	78.3965	297.363	78.5972	297.363	78.5162	297.363	78.6747	297.363	78.6195	297.363	78.7211	297.363	78.6931	297.363	78.7281
307.617	79.4875	307.617	79.4547	307.617	79.474	307.617	79.3775	307.617	79.4153	307.617	79.2599	307.617	79.3145	307.617	79.1091	307.617	79.1773	307.617	78.9348	307.617	79.0119	307.617	78.7499	307.617	78.8291	307.617	78.5696	307.617	78.6421	307.617	78.41	307.617	78.4661	307.617	78.2862	307.617	78.317	307.617	78.209	307.617	78.2088	307.617	78.1826	307.617	78.1508	307.617	78.203	307.617	78.1449	307.617	78.2589	307.617	78.1844	307.617	78.3343	307.617	78.2557	307.617	78.4116	307.617	78.341	307.617	78.4748	307.617	78.4221	307.617	78.5117	307.617	78.4836	307.617	78.515
318.604	79.1354	318.604	79.1046	318.604	79.1179	318.604	79.0268	318.604	79.0542	318.604	78.9063	318.604	78.949	318.604	78.7503	318.604	78.8107	318.604	78.5692	318.604	78.6505	318.604	78.3767	318.604	78.4824	318.604	78.1894	318.604	78.3221	318.604	78.0255	318.604	78.1851	318.604	77.9027	318.604	78.0848	318.604	77.8343	318.604	78.0298	318.604	77.8261	318.604	78.0224	318.604	77.8741	318.604	78.0576	318.604	77.9652	318.604	78.1246	318.604	78.0801	318.604	78.2084	318.604	78.1982	318.604	78.2926	318.604	78.3006	318.604	78.3618	318.604	78.3733	318.604	78.4032	318.604	78.4082
329.956	78.8753	329.956	78.8474	329.956	78.86	329.956	78.7778	329.956	78.8021	329.956	78.6705	329.956	78.7046	329.956	78.5316	329.956	78.5733	329.956	78.3703	329.956	78.4167	329.956	78.1987	329.956	78.2465	329.956	78.0318	329.956	78.0771	329.956	77.8863	329.956	77.9247	329.956	77.7783	329.956	77.8051	329.956	77.72	329.956	77.7311	329.956	77.7161	329.956	77.7094	329.956	77.7621	329.956	77.7385	329.956	77.8453	329.956	77.8088	329.956	77.9473	329.956	77.9046	329.956	78.0483	329.956	78.0072	329.956	78.1307	329.956	78.0986	329.956	78.1814	329.956	78.1638	329.956	78.193
341.675	79.0416	341.675	79.0245	341.675	79.0099	341.675	78.9596	341.675	78.932	341.675	78.8515	341.675	78.8146	341.675	78.7074	341.675	78.6684	341.675	78.5369	341.675	78.5076	341.675	78.3517	341.675	78.348	341.675	78.1656	341.675	78.2056	341.675	77.9945	341.675	78.0939	341.675	77.8554	341.675	78.0223	341.675	77.765	341.675	77.9949	341.675	77.7352	341.675	78.0106	341.675	77.7694	341.675	78.0634	341.675	77.86	341.675	78.1428	341.675	77.9886	341.675	78.2351	341.675	78.1309	341.675	78.3241	341.675	78.2624	341.675	78.3935	341.675	78.3629	341.675	78.4287	341.675	78.4197
353.394	78.9629	353.394	78.9427	353.394	78.9354	353.394	78.877	353.394	78.86	353.394	78.7704	353.394	78.7385	353.394	78.6304	353.394	78.5758	353.394	78.4678	353.394	78.3812	353.394	78.2971	353.394	78.1702	353.394	78.135	353.394	77.9646	353.394	77.9986	353.394	77.7912	353.394	77.9029	353.394	77.6768	353.394	77.8579	353.394	77.6405	353.394	77.8673	353.394	77.6868	353.394	77.9275	353.394	77.8037	353.394	78.0283	353.394	77.9657	353.394	78.154	353.394	78.1425	353.394	78.2853	353.394	78.3051	353.394	78.4023	353.394	78.4312	353.394	78.4867	353.394	78.5062	353.394	78.5242
365.845	79.0116	365.845	78.96	365.845	79.0058	365.845	78.8538	365.845	78.9434	365.845	78.6998	365.845	78.8296	365.845	78.5085	365.845	78.6737	365.845	78.2945	365.845	78.4889	365.845	78.0773	365.845	78.2924	365.845	77.8803	365.845	78.1041	365.845	77.7293	365.845	77.9456	365.845	77.6471	365.845	77.8367	365.845	77.6473	365.845	77.7921	365.845	77.7285	365.845	77.8173	365.845	77.8745	365.845	77.9064	365.845	78.0582	365.845	78.0434	365.845	78.2494	365.845	78.2051	365.845	78.4209	365.845	78.3667	365.845	78.5519	365.845	78.5052	365.845	78.6289	365.845	78.6023	365.845	78.6457
379.028	79.3395	379.028	79.318	379.028	79.294	379.028	79.2304	379.028	79.1834	379.028	79.0795	379.028	79.0127	379.028	78.8707	379.028	78.7907	379.028	78.6124	379.028	78.531	379.028	78.3181	379.028	78.2517	379.028	78.008	379.028	77.9763	379.028	77.7108	379.028	77.7314	379.028	77.4623	379.028	77.5443	379.028	77.299	379.028	77.4382	379.028	77.247	379.028	77.4251	379.028	77.3105	379.028	77.5017	379.028	77.4685	379.028	77.6483	379.028	77.6816	379.028	77.8332	379.028	77.905	379.028	78.0199	379.028	78.0988	379.028	78.1748	379.028	78.2338	379.028	78.2714	379.028	78.2931
392.212	79.2877	392.212	79.2603	392.212	79.2631	392.212	79.1852	392.212	79.185	392.212	79.0678	392.212	79.0541	392.212	78.9151	392.212	78.875	392.212	78.7346	392.212	78.656	392.212	78.5346	392.212	78.4106	392.212	78.3248	392.212	78.1571	392.212	78.1171	392.212	77.9186	392.212	77.9272	392.212	77.7203	392.212	77.774	392.212	77.5852	392.212	77.677	392.212	77.5288	392.212	77.6502	392.212	77.5535	392.212	77.6953	392.212	77.6471	392.212	77.7975	392.212	77.7847	392.212	77.9289	392.212	77.9352	392.212	78.0559	392.212	78.0674	392.212	78.1479	392.212	78.1557	392.212	78.184
406.128	79.2639	406.128	79.2063	406.128	79.259	406.128	79.0899	406.128	79.1921	406.128	78.9221	406.128	79.0674	406.128	78.7146	406.128	78.8928	406.128	78.4836	406.128	78.6805	406.128	78.2484	406.128	78.4476	406.128	78.0312	406.128	78.2152	406.128	77.854	406.128	78.0081	406.128	77.735	406.128	77.8513	406.128	77.6856	406.128	77.7646	406.128	77.7074	406.128	77.7573	406.128	77.7918	406.128	77.8244	406.128	77.9218	406.128	77.9478	406.128	78.0753	406.128	78.1003	406.128	78.2286	406.128	78.2529	406.128	78.3592	406.128	78.3793	406.128	78.4485	406.128	78.4601	406.128	78.484
420.41	79.3623	420.41	79.3254	420.41	79.3235	420.41	79.2136	420.41	79.2124	420.41	79.0321	420.41	79.036	420.41	78.7909	420.41	78.8048	420.41	78.5052	420.41	78.5328	420.41	78.1956	420.41	78.2376	420.41	77.8871	420.41	77.9406	420.41	77.6079	420.41	77.6666	420.41	77.3868	420.41	77.4417	420.41	77.2478	420.41	77.2898	420.41	77.2045	420.41	77.2269	420.41	77.2544	420.41	77.2549	420.41	77.3784	420.41	77.3594	420.41	77.5447	420.41	77.5131	420.41	77.7172	420.41	77.6819	420.41	77.8625	420.41	77.8328	420.41	77.9558	420.41	77.9389	420.41	77.9823
435.425	79.4966	435.425	79.4605	435.425	79.4647	435.425	79.3566	435.425	79.3662	435.425	79.1863	435.425	79.2042	435.425	78.9529	435.425	78.9851	435.425	78.6636	435.425	78.7193	435.425	78.3322	435.425	78.4227	435.425	77.9818	435.425	78.1173	435.425	77.6464	435.425	77.8316	435.425	77.3673	435.425	77.5976	435.425	77.1842	435.425	77.445	435.425	77.1216	435.425	77.3923	435.425	77.1785	435.425	77.4385	435.425	77.329	435.425	77.5623	435.425	77.532	435.425	77.7283	435.425	77.7444	435.425	77.8973	435.425	77.93	435.425	78.0349	435.425	78.0627	435.425	78.1161	435.425	78.1266
450.806	79.225	450.806	79.2035	450.806	79.1701	450.806	79.1078	450.806	79.0397	450.806	78.9434	450.806	78.8386	450.806	78.7194	450.806	78.5759	450.806	78.4486	450.806	78.2667	450.806	78.1488	450.806	77.933	450.806	77.8425	450.806	77.6035	450.806	77.5572	450.806	77.3122	450.806	77.3243	450.806	77.0931	450.806	77.1743	450.806	76.9729	450.806	77.1288	450.806	76.9633	450.806	77.1914	450.806	77.057	450.806	77.343	450.806	77.2294	450.806	77.5457	450.806	77.4456	450.806	77.7542	450.806	77.6678	450.806	77.927	450.806	77.8612	450.806	78.0339	450.806	77.9979	450.806	78.0584
466.553	79.1694	466.553	79.1072	466.553	79.1675	466.553	78.9879	466.553	79.0969	466.553	78.8195	466.553	78.9566	466.553	78.6092	466.553	78.7504	466.553	78.3646	466.553	78.4876	466.553	78.0947	466.553	78.1839	466.553	77.8139	466.553	77.8624	466.553	77.5447	466.553	77.5536	466.553	77.3178	466.553	77.2943	466.553	77.1666	466.553	77.1216	466.553	77.1165	466.553	77.0627	466.553	77.1734	466.553	77.1235	466.553	77.32	466.553	77.2838	466.553	77.5208	466.553	77.5028	466.553	77.7337	466.553	77.7315	466.553	77.9192	466.553	77.9254	466.553	78.046	466.553	78.052	466.553	78.0934
483.032	79.4713	483.032	79.4164	483.032	79.4375	483.032	79.278	483.032	79.314	483.032	79.0655	483.032	79.1053	483.032	78.7916	483.032	78.8222	483.032	78.4716	483.032	78.4833	483.032	78.1229	483.032	78.1165	483.032	77.7664	483.032	77.7589	483.032	77.4291	483.032	77.4527	483.032	77.1476	483.032	77.2378	483.032	76.9661	483.032	77.1419	483.032	76.9242	483.032	77.1713	483.032	77.036	483.032	77.3099	483.032	77.2761	483.032	77.525	483.032	77.5871	483.032	77.7759	483.032	77.9015	483.032	78.0219	483.032	78.1628	483.032	78.2264	483.032	78.3344	483.032	78.3599	483.032	78.4
499.878	79.6393	499.878	79.5952	499.878	79.5876	499.878	79.4515	499.878	79.446	499.878	79.2084	499.878	79.2209	499.878	78.8739	499.878	78.9192	499.878	78.4675	499.878	78.5503	499.878	78.0214	499.878	78.1286	499.878	77.58	499.878	77.6784	499.878	77.1923	499.878	77.2383	499.878	76.9007	499.878	76.862	499.878	76.7301	499.878	76.6093	499.878	76.6852	499.878	76.5249	499.878	76.7534	499.878	76.6149	499.878	76.9116	499.878	76.8402	499.878	77.1286	499.878	77.1332	499.878	77.3672	499.878	77.4236	499.878	77.5868	499.878	77.6556	499.878	77.7493	499.878	77.7941	499.878	77.8244
517.456	79.6427	517.456	79.5899	517.456	79.6076	517.456	79.45	517.456	79.4835	517.456	79.2236	517.456	79.2711	517.456	78.911	517.456	78.9741	517.456	78.5153	517.456	78.6006	517.456	78.047	517.456	78.1647	517.456	77.5316	517.456	77.6884	517.456	77.0162	517.456	77.2052	517.456	76.5719	517.456	76.7628	517.456	76.2789	517.456	76.4219	517.456	76.1941	517.456	76.2434	517.456	76.3182	517.456	76.2621	517.456	76.595	517.456	76.4634	517.456	76.9416	517.456	76.7843	517.456	77.2804	517.456	77.1402	517.456	77.5533	517.456	77.454	517.456	77.7218	517.456	77.6716	517.456	77.7638
535.767	79.5136	535.767	79.4886	535.767	79.4701	535.767	79.3996	535.767	79.3537	535.767	79.2481	535.767	79.1627	535.767	79.032	535.767	78.9002	535.767	78.7478	535.767	78.5761	535.767	78.3947	535.767	78.207	535.767	77.9813	535.767	77.8169	535.767	77.5327	535.767	77.4369	535.767	77.0947	535.767	77.1049	535.767	76.732	535.767	76.8619	535.767	76.5127	535.767	76.7442	535.767	76.482	535.767	76.77	535.767	76.6361	535.767	76.9277	535.767	76.9211	535.767	77.1747	535.767	77.2563	535.767	77.45	535.767	77.5632	535.767	77.6906	535.767	77.7824	535.767	77.8449	535.767	77.8797
554.81	79.3493	554.81	79.2685	554.81	79.3541	554.81	79.1169	554.81	79.2799	554.81	78.9007	554.81	79.1254	554.81	78.6258	554.81	78.8922	554.81	78.2958	554.81	78.5848	554.81	77.9139	554.81	78.2121	554.81	77.4873	554.81	77.7897	554.81	77.0373	554.81	77.3434	554.81	76.6094	554.81	76.913	554.81	76.2743	554.81	76.5548	554.81	76.1078	554.81	76.3334	554.81	76.1515	554.81	76.2995	554.81	76.3846	554.81	76.4586	554.81	76.7335	554.81	76.7598	554.81	77.1089	554.81	77.1154	554.81	77.4333	554.81	77.4358	554.81	77.6511	554.81	77.653	554.81	77.7285
574.219	79.09	574.219	79.0397	574.219	79.0612	574.219	78.9115	574.219	78.952	574.219	78.7096	574.219	78.7622	574.219	78.4433	574.219	78.4945	574.219	78.1279	574.219	78.1591	574.219	77.7817	574.219	77.7764	574.219	77.4215	574.219	77.3779	574.219	77.0605	574.219	77.0032	574.219	76.7135	574.219	76.6932	574.219	76.4066	574.219	76.4812	574.219	76.1833	574.219	76.3856	574.219	76.0932	574.219	76.4053	574.219	76.1621	574.219	76.5205	574.219	76.3669	574.219	76.697	574.219	76.6408	574.219	76.8929	574.219	76.9054	574.219	77.0649	574.219	77.0995	574.219	77.1741	574.219	77.1908
594.727	79.8941	594.727	79.842	594.727	79.8601	594.727	79.7074	594.727	79.7385	594.727	79.4934	594.727	79.5312	594.727	79.2026	594.727	79.2433	594.727	78.8383	594.727	78.8815	594.727	78.4099	594.727	78.4542	594.727	77.9383	594.727	77.9734	594.727	77.4595	594.727	77.4612	594.727	77.0216	594.727	76.9584	594.727	76.675	594.727	76.5293	594.727	76.459	594.727	76.2517	594.727	76.3929	594.727	76.1843	594.727	76.4725	594.727	76.3289	594.727	76.6697	594.727	76.6214	594.727	76.9341	594.727	76.9634	594.727	77.2015	594.727	77.2617	594.727	77.407	594.727	77.4511	594.727	77.4996
615.601	79.901	615.601	79.7904	615.601	79.9074	615.601	79.5818	615.601	79.8128	615.601	79.289	615.601	79.628	615.601	78.9326	615.601	79.3681	615.601	78.538	615.601	79.048	615.601	78.1341	615.601	78.6794	615.601	77.7518	615.601	78.2726	615.601	77.4206	615.601	77.8452	615.601	77.1659	615.601	77.4329	615.601	77.0077	615.601	77.0928	615.601	76.9597	615.601	76.8892	615.601	77.0257	615.601	76.8602	615.601	77.1913	615.601	76.993	615.601	77.4202	615.601	77.2302	615.601	77.6606	615.601	77.5006	615.601	77.8607	615.601	77.7442	615.601	77.9816	615.601	77.9197	615.601	78.0025
637.207	79.1217	637.207	79.1447	637.207	79.018	637.207	79.0872	637.207	78.8332	637.207	78.9471	637.207	78.5705	637.207	78.7222	637.207	78.2445	637.207	78.4125	637.207	77.886	637.207	78.0252	637.207	77.5405	637.207	77.5827	637.207	77.256	637.207	77.1334	637.207	77.0671	637.207	76.7551	637.207	76.9866	637.207	76.5392	637.207	77.0121	637.207	76.5468	637.207	77.1355	637.207	76.7689	637.207	77.3442	637.207	77.1342	637.207	77.615	637.207	77.5517	637.207	77.9123	637.207	77.9459	637.207	78.1937	637.207	78.2662	637.207	78.4186	637.207	78.4822	637.207	78.5543	637.207	78.5789
659.912	79.263	659.912	79.1066	659.912	79.323	659.912	78.8629	659.912	79.2712	659.912	78.5352	659.912	79.0908	659.912	78.123	659.912	78.7701	659.912	77.6282	659.912	78.3109	659.912	77.0618	659.912	77.7373	659.912	76.4532	659.912	77.1038	659.912	75.8656	659.912	76.4993	659.912	75.4096	659.912	76.0395	659.912	75.2257	659.912	75.8356	659.912	75.4055	659.912	75.9429	659.912	75.9085	659.912	76.3264	659.912	76.5855	659.912	76.8799	659.912	77.2792	659.912	77.4784	659.912	77.8839	659.912	78.0192	659.912	78.3452	659.912	78.4337	659.912	78.6387	659.912	78.6838	659.912	78.7532
682.983	80.2528	682.983	80.1981	682.983	80.155	682.983	79.9886	682.983	79.9167	682.983	79.6356	682.983	79.5533	682.983	79.1602	682.983	79.0744	682.983	78.5864	682.983	78.4786	682.983	77.9326	682.983	77.7578	682.983	77.2111	682.983	76.9159	682.983	76.4438	682.983	76.0024	682.983	75.6989	682.983	75.154	682.983	75.1253	682.983	74.5968	682.983	74.9207	682.983	74.5273	682.983	75.1811	682.983	74.9348	682.983	75.7885	682.983	75.6176	682.983	76.513	682.983	76.3598	682.983	77.169	682.983	77.0238	682.983	77.6577	682.983	77.5402	682.983	77.9414	682.983	77.8754	682.983	78.0125
707.153	80.8453	707.153	80.8403	707.153	80.6964	707.153	80.6763	707.153	80.4029	707.153	80.3511	707.153	79.9818	707.153	79.8674	707.153	79.4603	707.153	79.2355	707.153	78.8706	707.153	78.4753	707.153	78.2336	707.153	77.6182	707.153	77.5441	707.153	76.7135	707.153	76.7734	707.153	75.8435	707.153	75.9059	707.153	75.1423	707.153	75.0092	707.153	74.7832	707.153	74.3134	707.153	74.8934	707.153	74.1714	707.153	75.4453	707.153	74.7376	707.153	76.2605	707.153	75.7522	707.153	77.1199	707.153	76.826	707.153	77.8461	707.153	77.7035	707.153	78.3203	707.153	78.2661	707.153	78.4715
732.056	79.5006	732.056	79.4621	732.056	79.4814	732.056	79.3801	732.056	79.3741	732.056	79.2452	732.056	79.1448	732.056	79.0272	732.056	78.7698	732.056	78.6869	732.056	78.245	732.056	78.1894	732.056	77.5911	732.056	77.5152	732.056	76.8502	732.056	76.6683	732.056	76.076	732.056	75.6924	732.056	75.326	732.056	74.7049	732.056	74.6719	732.056	73.9361	732.056	74.2269	732.056	73.6711	732.056	74.1381	732.056	74.018	732.056	74.4844	732.056	74.7807	732.056	75.166	732.056	75.6556	732.056	75.954	732.056	76.4191	732.056	76.6308	732.056	76.9446	732.056	77.0568	732.056	77.1659
757.69	80.0198	757.69	79.9577	757.69	79.9864	757.69	79.7964	757.69	79.8634	757.69	79.5348	757.69	79.656	757.69	79.1731	757.69	79.3615	757.69	78.7141	757.69	78.9607	757.69	78.1639	757.69	78.4179	757.69	77.5316	757.69	77.6964	757.69	76.8269	757.69	76.7904	757.69	76.0696	757.69	75.7677	757.69	75.327	757.69	74.8056	757.69	74.7734	757.69	74.1645	757.69	74.6562	757.69	74.0404	757.69	75.0604	757.69	74.4147	757.69	75.7661	757.69	75.0955	757.69	76.4682	757.69	75.8596	757.69	76.9835	757.69	76.5343	757.69	77.2499	757.69	77.0161	757.69	77.2593
784.424	80.3182	784.424	80.242	784.424	80.2549	784.424	80.0312	784.424	80.0552	784.424	79.7014	784.424	79.7277	784.424	79.2781	784.424	79.2849	784.424	78.7872	784.424	78.7403	784.424	78.2381	784.424	78.1041	784.424	77.6102	784.424	77.3784	784.424	76.8602	784.424	76.5646	784.424	75.9569	784.424	75.6913	784.424	74.9403	784.424	74.8596	784.424	73.9949	784.424	74.2585	784.424	73.461	784.424	74.0691	784.424	73.6079	784.424	74.3051	784.424	74.3203	784.424	74.8167	784.424	75.2238	784.424	75.4321	784.424	76.0039	784.424	76.0172	784.424	76.4944	784.424	76.4548	784.424	76.6385
812.256	79.7313	812.256	79.7428	812.256	79.6077	812.256	79.6434	812.256	79.3712	812.256	79.4302	812.256	79.0287	812.256	79.0953	812.256	78.5989	812.256	78.6289	812.256	78.1058	812.256	78.024	812.256	77.5603	812.256	77.281	812.256	76.9417	812.256	76.4119	812.256	76.2015	812.256	75.4468	812.256	75.3028	812.256	74.458	812.256	74.2992	812.256	73.6078	812.256	73.4342	812.256	73.1547	812.256	73.0978	812.256	73.2699	812.256	73.4316	812.256	73.8168	812.256	74.1223	812.256	74.4851	812.256	74.7954	812.256	75.0482	812.256	75.2753	812.256	75.4163	812.256	75.5309	812.256	75.5757
840.82	79.5203	840.82	79.3223	840.82	79.6489	840.82	79.0766	840.82	79.6611	840.82	78.7753	840.82	79.5007	840.82	78.3924	840.82	79.1259	840.82	77.9007	840.82	78.5293	840.82	77.2847	840.82	77.7473	840.82	76.5431	840.82	76.8507	840.82	75.689	840.82	75.919	840.82	74.757	840.82	75.0092	840.82	73.824	840.82	74.1462	840.82	73.0426	840.82	73.3589	840.82	72.6533	840.82	72.7681	840.82	72.8621	840.82	72.6361	840.82	73.5994	840.82	73.146	840.82	74.5374	840.82	74.088	840.82	75.3569	840.82	75.043	840.82	75.8735	840.82	75.7205	840.82	76.0041
870.483	79.4321	870.483	79.4308	870.483	79.3037	870.483	79.2879	870.483	79.0706	870.483	79.0099	870.483	78.7612	870.483	78.6131	870.483	78.3941	870.483	78.1074	870.483	77.966	870.483	77.4841	870.483	77.446	870.483	76.7207	870.483	76.7838	870.483	75.794	870.483	75.9354	870.483	74.6899	870.483	74.8967	870.483	73.4291	870.483	73.7494	870.483	72.1543	870.483	72.7161	870.483	71.2678	870.483	72.1586	870.483	71.2674	870.483	72.3299	870.483	72.0998	870.483	73.0633	870.483	73.2127	870.483	73.9492	870.483	74.1875	870.483	74.6771	870.483	74.8545	870.483	75.099	870.483	75.162
901.245	79.6991	901.245	79.6197	901.245	79.6081	901.245	79.393	901.245	79.3358	901.245	79.0445	901.245	78.8926	901.245	78.5953	901.245	78.3093	901.245	78.0544	901.245	77.6254	901.245	77.4102	901.245	76.8706	901.245	76.6316	901.245	76.0558	901.245	75.6932	901.245	75.1799	901.245	74.6206	901.245	74.2458	901.245	73.521	901.245	73.2782	901.245	72.5531	901.245	72.3572	901.245	71.8574	901.245	71.6758	901.245	71.5514	901.245	71.5294	901.245	71.7461	901.245	72.0581	901.245	72.4173	901.245	72.9971	901.245	73.3096	901.245	73.9004	901.245	74.0898	901.245	74.45	901.245	74.5113
933.105	79.6198	933.105	79.472	933.105	79.6678	933.105	79.2337	933.105	79.5929	933.105	78.9149	933.105	79.3642	933.105	78.5374	933.105	78.9687	933.105	78.1186	933.105	78.4331	933.105	77.6385	933.105	77.8082	933.105	77.0285	933.105	77.1104	933.105	76.195	933.105	76.2829	933.105	75.0544	933.105	75.2387	933.105	73.5664	933.105	73.9628	933.105	71.831	933.105	72.6092	933.105	70.3395	933.105	71.5343	933.105	69.9527	933.105	71.1182	933.105	70.7036	933.105	71.3868	933.105	71.7097	933.105	71.9809	933.105	72.4454	933.105	72.5332	933.105	72.8422	933.105	72.8709	933.105	72.9706
966.064	79.1944	966.064	79.146	966.064	79.137	966.064	78.9878	966.064	78.9799	966.064	78.711	966.064	78.7256	966.064	78.3017	966.064	78.3642	966.064	77.762	966.064	77.878	966.064	77.1295	966.064	77.2623	966.064	76.4604	966.064	76.5488	966.064	75.774	966.064	75.7998	966.064	75.017	966.064	75.0496	966.064	74.0969	966.064	74.2507	966.064	72.9548	966.064	73.3416	966.064	71.6509	966.064	72.4309	966.064	70.491	966.064	71.8737	966.064	70.0349	966.064	71.922	966.064	70.5233	966.064	72.3588	966.064	71.4799	966.064	72.8014	966.064	72.3494	966.064	73.0126	966.064	72.8772
1,000.12	79.2922	1,000.12	79.1496	1,000.12	79.2364	1,000.12	78.8209	1,000.12	78.9829	1,000.12	78.3401	1,000.12	78.5496	1,000.12	77.7694	1,000.12	77.9883	1,000.12	77.1861	1,000.12	77.3816	1,000.12	76.6481	1,000.12	76.7909	1,000.12	76.1564	1,000.12	76.1937	1,000.12	75.6468	1,000.12	75.4999	1,000.12	75.0197	1,000.12	74.6378	1,000.12	74.1969	1,000.12	73.6197	1,000.12	73.1994	1,000.12	72.5517	1,000.12	72.2465	1,000.12	71.6479	1,000.12	71.7392	1,000.12	71.2323	1,000.12	71.86	1,000.12	71.4696	1,000.12	72.2956	1,000.12	72.0647	1,000.12	72.6693	1,000.12	72.5908	1,000.12	72.8667	1,000.12	72.8663	1,000.12	72.9309
1,035.28	78.356	1,035.28	78.2438	1,035.28	78.4276	1,035.28	78.027	1,035.28	78.4778	1,035.28	77.657	1,035.28	78.4545	1,035.28	77.1526	1,035.28	78.2646	1,035.28	76.6034	1,035.28	77.8354	1,035.28	76.0835	1,035.28	77.1569	1,035.28	75.5398	1,035.28	76.2766	1,035.28	74.8293	1,035.28	75.2501	1,035.28	73.8992	1,035.28	74.1034	1,035.28	72.9088	1,035.28	72.8714	1,035.28	72.0996	1,035.28	71.6991	1,035.28	71.4826	1,035.28	70.8824	1,035.28	70.9318	1,035.28	70.6979	1,035.28	70.6638	1,035.28	71.1345	1,035.28	71.1144	1,035.28	71.9088	1,035.28	72.0931	1,035.28	72.6944	1,035.28	72.9635	1,035.28	73.2385	1,035.28	73.3622
1,071.9	79.5895	1,071.9	79.4777	1,071.9	79.5427	1,071.9	79.2236	1,071.9	79.327	1,071.9	78.8324	1,071.9	78.9553	1,071.9	78.293	1,071.9	78.4684	1,071.9	77.5958	1,071.9	77.9123	1,071.9	76.7764	1,071.9	77.3013	1,071.9	75.9423	1,071.9	76.6031	1,071.9	75.2121	1,071.9	75.7581	1,071.9	74.5861	1,071.9	74.712	1,071.9	73.9522	1,071.9	73.4415	1,071.9	73.2841	1,071.9	72.009	1,071.9	72.8066	1,071.9	70.7228	1,071.9	72.8278	1,071.9	70.2181	1,071.9	73.2661	1,071.9	70.7614	1,071.9	73.6927	1,071.9	71.7431	1,071.9	73.8271	1,071.9	72.5667	1,071.9	73.6876	1,071.9	73.0894	1,071.9	73.4249
1,109.62	80.4282	1,109.62	80.2528	1,109.62	80.4292	1,109.62	79.8884	1,109.62	80.2707	1,109.62	79.3486	1,109.62	79.9499	1,109.62	78.6886	1,109.62	79.4547	1,109.62	77.9872	1,109.62	78.7876	1,109.62	77.2959	1,109.62	77.9785	1,109.62	76.5839	1,109.62	77.0625	1,109.62	75.7398	1,109.62	76.0443	1,109.62	74.6385	1,109.62	74.8892	1,109.62	73.2535	1,109.62	73.5535	1,109.62	71.8055	1,109.62	72.0474	1,109.62	70.8128	1,109.62	70.5749	1,109.62	70.6902	1,109.62	69.7421	1,109.62	71.3267	1,109.62	70.205	1,109.62	72.3598	1,109.62	71.6119	1,109.62	73.425	1,109.62	73.0735	1,109.62	74.1999	1,109.62	74.0786	1,109.62	74.4556
1,148.8	78.6067	1,148.8	78.6746	1,148.8	78.476	1,148.8	78.6108	1,148.8	78.2875	1,148.8	78.3138	1,148.8	77.9945	1,148.8	77.7144	1,148.8	77.5386	1,148.8	76.8396	1,148.8	76.9002	1,148.8	75.8316	1,148.8	76.1279	1,148.8	74.8533	1,148.8	75.3061	1,148.8	73.9081	1,148.8	74.4577	1,148.8	72.8544	1,148.8	73.4906	1,148.8	71.6822	1,148.8	72.2923	1,148.8	70.698	1,148.8	70.9178	1,148.8	70.3298	1,148.8	69.755	1,148.8	70.7001	1,148.8	69.3716	1,148.8	71.5399	1,148.8	69.8596	1,148.8	72.4025	1,148.8	70.7632	1,148.8	72.9341	1,148.8	71.6637	1,148.8	73.0429	1,148.8	72.3647	1,148.8	72.8255
1,189.09	78.909	1,189.09	78.7151	1,189.09	78.8902	1,189.09	78.35	1,189.09	78.658	1,189.09	77.8903	1,189.09	78.2274	1,189.09	77.3709	1,189.09	77.6146	1,189.09	76.7255	1,189.09	76.8366	1,189.09	75.8699	1,189.09	75.9207	1,189.09	74.836	1,189.09	74.9354	1,189.09	73.7723	1,189.09	73.9914	1,189.09	72.7633	1,189.09	73.1365	1,189.09	71.7053	1,189.09	72.2649	1,189.09	70.4947	1,189.09	71.255	1,189.09	69.3996	1,189.09	70.2355	1,189.09	69.2291	1,189.09	69.6473	1,189.09	70.3323	1,189.09	69.8702	1,189.09	71.8582	1,189.09	70.8131	1,189.09	73.0321	1,189.09	72.0075	1,189.09	73.6089	1,189.09	73.0089	1,189.09	73.5803
1,231.2	78.8701	1,231.2	78.887	1,231.2	78.6802	1,231.2	78.6696	1,231.2	78.3756	1,231.2	78.1895	1,231.2	77.9902	1,231.2	77.4795	1,231.2	77.5269	1,231.2	76.6394	1,231.2	76.9641	1,231.2	75.8119	1,231.2	76.2633	1,231.2	75.0824	1,231.2	75.374	1,231.2	74.3694	1,231.2	74.2649	1,231.2	73.4681	1,231.2	72.979	1,231.2	72.1826	1,231.2	71.6037	1,231.2	70.4573	1,231.2	70.1396	1,231.2	68.7653	1,231.2	68.7254	1,231.2	68.6278	1,231.2	68.3791	1,231.2	70.3634	1,231.2	69.7335	1,231.2	72.2511	1,231.2	71.435	1,231.2	73.4334	1,231.2	72.623	1,231.2	73.8628	1,231.2	73.3333	1,231.2	73.7546
1,274.41	79.0517	1,274.41	78.9794	1,274.41	79.0366	1,274.41	78.7945	1,274.41	78.9563	1,274.41	78.5173	1,274.41	78.7545	1,274.41	78.15	1,274.41	78.3161	1,274.41	77.6292	1,274.41	77.5471	1,274.41	76.9028	1,274.41	76.4543	1,274.41	76.0297	1,274.41	75.2326	1,274.41	75.1354	1,274.41	74.2287	1,274.41	74.1992	1,274.41	73.5091	1,274.41	72.9772	1,274.41	72.5736	1,274.41	71.2627	1,274.41	70.8574	1,274.41	69.2551	1,274.41	68.4977	1,274.41	68.0413	1,274.41	67.3942	1,274.41	69.0181	1,274.41	68.8336	1,274.41	71.2901	1,274.41	71.0199	1,274.41	73.3272	1,274.41	72.9662	1,274.41	74.5765	1,274.41	74.3368	1,274.41	74.9106
1,319.46	80.1385	1,319.46	80.0982	1,319.46	79.9419	1,319.46	79.8399	1,319.46	79.5008	1,319.46	79.3844	1,319.46	78.8367	1,319.46	78.7442	1,319.46	78.0385	1,319.46	77.9301	1,319.46	77.2515	1,319.46	76.9772	1,319.46	76.5141	1,319.46	75.9503	1,319.46	75.6397	1,319.46	74.8803	1,319.46	74.4277	1,319.46	73.6794	1,319.46	72.9931	1,319.46	72.1636	1,319.46	71.7249	1,319.46	70.1655	1,319.46	70.5116	1,319.46	67.7485	1,319.46	68.5868	1,319.46	66.2826	1,319.46	66.3317	1,319.46	68.0171	1,319.46	67.4174	1,319.46	70.7285	1,319.46	70.2299	1,319.46	72.52	1,319.46	72.0271	1,319.46	73.2866	1,319.46	72.9297	1,319.46	73.3349
1,365.97	79.4534	1,365.97	79.4664	1,365.97	79.3679	1,365.97	79.3805	1,365.97	79.2243	1,365.97	79.1607	1,365.97	78.9696	1,365.97	78.7468	1,365.97	78.4899	1,365.97	78.0833	1,365.97	77.7156	1,365.97	77.1704	1,365.97	76.7022	1,365.97	76.0929	1,365.97	75.6202	1,365.97	74.9838	1,365.97	74.641	1,365.97	73.8897	1,365.97	73.7462	1,365.97	72.6702	1,365.97	72.6525	1,365.97	71.0889	1,365.97	70.9717	1,365.97	68.9013	1,365.97	68.4004	1,365.97	65.9262	1,365.97	65.2371	1,365.97	64.1456	1,365.97	64.8889	1,365.97	67.0117	1,365.97	68.1356	1,365.97	70.1697	1,365.97	70.9594	1,365.97	72.0983	1,365.97	72.5495	1,365.97	72.9034
1,414.31	80.6058	1,414.31	80.4452	1,414.31	80.5769	1,414.31	80.1272	1,414.31	80.3437	1,414.31	79.7174	1,414.31	79.8879	1,414.31	79.2656	1,414.31	79.2262	1,414.31	78.7058	1,414.31	78.4538	1,414.31	77.8439	1,414.31	77.66	1,414.31	76.566	1,414.31	76.7507	1,414.31	75.1172	1,414.31	75.5206	1,414.31	73.9466	1,414.31	74.0379	1,414.31	72.8818	1,414.31	72.7443	1,414.31	71.2064	1,414.31	71.6227	1,414.31	68.4994	1,414.31	69.8134	1,414.31	65.1429	1,414.31	66.3732	1,414.31	64.4031	1,414.31	62.4692	1,414.31	67.9733	1,414.31	65.78	1,414.31	71.4265	1,414.31	70.0471	1,414.31	73.4027	1,414.31	72.6577	1,414.31	73.7887
1,464.11	80.4808	1,464.11	80.5259	1,464.11	80.3074	1,464.11	80.4245	1,464.11	80.0539	1,464.11	80.1398	1,464.11	79.7238	1,464.11	79.6147	1,464.11	79.216	1,464.11	78.8492	1,464.11	78.4529	1,464.11	77.8971	1,464.11	77.4922	1,464.11	76.7604	1,464.11	76.4626	1,464.11	75.3924	1,464.11	75.4254	1,464.11	73.8602	1,464.11	74.3351	1,464.11	72.2827	1,464.11	73.0732	1,464.11	70.5136	1,464.11	71.4507	1,464.11	68.4284	1,464.11	69.3901	1,464.11	66.81	1,464.11	67.4876	1,464.11	66.8104	1,464.11	66.8847	1,464.11	67.6853	1,464.11	67.5939	1,464.11	69.1032	1,464.11	69.5569	1,464.11	71.085	1,464.11	71.6087	1,464.11	72.2127
1,515.75	81.586	1,515.75	81.4569	1,515.75	81.5117	1,515.75	81.1971	1,515.75	81.1669	1,515.75	80.819	1,515.75	80.5428	1,515.75	80.277	1,515.75	79.7241	1,515.75	79.5427	1,515.75	78.8966	1,515.75	78.6165	1,515.75	78.2104	1,515.75	77.4592	1,515.75	77.5227	1,515.75	76.0145	1,515.75	76.471	1,515.75	74.3683	1,515.75	74.9522	1,515.75	72.7757	1,515.75	73.4029	1,515.75	71.268	1,515.75	72.1237	1,515.75	69.3676	1,515.75	70.3566	1,515.75	66.5209	1,515.75	67.3302	1,515.75	63.7376	1,515.75	65.4342	1,515.75	65.1383	1,515.75	67.1529	1,515.75	67.9886	1,515.75	68.5675	1,515.75	69.5706	1,515.75	69.3423	1,515.75	69.852
1,569.21	81.5815	1,569.21	81.606	1,569.21	81.343	1,569.21	81.3631	1,569.21	81.0731	1,569.21	80.9132	1,569.21	80.8859	1,569.21	80.3351	1,569.21	80.6323	1,569.21	79.666	1,569.21	80.0769	1,569.21	78.8862	1,569.21	79.2109	1,569.21	77.9416	1,569.21	78.2991	1,569.21	76.8218	1,569.21	77.5398	1,569.21	75.6267	1,569.21	76.7501	1,569.21	74.4803	1,569.21	75.6848	1,569.21	73.272	1,569.21	74.3581	1,569.21	71.3949	1,569.21	72.6352	1,569.21	67.557	1,569.21	69.6483	1,569.21	62.0311	1,569.21	65.7892	1,569.21	66.9124	1,569.21	67.3865	1,569.21	70.1892	1,569.21	69.6031	1,569.21	70.8208	1,569.21	70.2671	1,569.21	70.5395
1,624.51	80.066	1,624.51	79.9083	1,624.51	80.0661	1,624.51	79.673	1,624.51	79.9176	1,624.51	79.4439	1,624.51	79.6813	1,624.51	79.1828	1,624.51	79.3788	1,624.51	78.7593	1,624.51	78.9891	1,624.51	78.1323	1,624.51	78.5232	1,624.51	77.3939	1,624.51	78.001	1,624.51	76.6294	1,624.51	77.311	1,624.51	75.8478	1,624.51	76.253	1,624.51	75.0205	1,624.51	74.9131	1,624.51	74.0257	1,624.51	73.7762	1,624.51	72.6404	1,624.51	72.6037	1,624.51	70.7519	1,624.51	70.0473	1,624.51	68.3659	1,624.51	64.8706	1,624.51	66.5683	1,624.51	65.1046	1,624.51	68.8873	1,624.51	70.6468	1,624.51	72.1547	1,624.51	73.369	1,624.51	73.7592
1,681.64	78.4234	1,681.64	78.0092	1,681.64	78.5473	1,681.64	77.6438	1,681.64	78.3055	1,681.64	77.5038	1,681.64	77.9485	1,681.64	77.3714	1,681.64	77.7131	1,681.64	77.0102	1,681.64	77.4481	1,681.64	76.5273	1,681.64	76.8047	1,681.64	76.1796	1,681.64	75.7232	1,681.64	75.8303	1,681.64	74.6562	1,681.64	75.0952	1,681.64	74.0303	1,681.64	74.05	1,681.64	73.3064	1,681.64	73.1372	1,681.64	71.6782	1,681.64	71.9712	1,681.64	69.4068	1,681.64	69.7768	1,681.64	67.711	1,681.64	67.1809	1,681.64	65.8019	1,681.64	65.6636	1,681.64	61.8402	1,681.64	65.0474	1,681.64	65.0959	1,681.64	66.9439	1,681.64	69.3327	1,681.64	69.5324
1,740.97	77.5983	1,740.97	77.6742	1,740.97	77.5399	1,740.97	77.6209	1,740.97	77.626	1,740.97	77.2583	1,740.97	77.9044	1,740.97	76.6668	1,740.97	78.1088	1,740.97	76.288	1,740.97	77.8498	1,740.97	76.2231	1,740.97	77.0655	1,740.97	75.9493	1,740.97	76.0579	1,740.97	75.1511	1,740.97	74.876	1,740.97	74.0476	1,740.97	73.2145	1,740.97	72.6987	1,740.97	71.3356	1,740.97	70.8092	1,740.97	70.0356	1,740.97	68.6378	1,740.97	68.8352	1,740.97	66.16	1,740.97	65.9717	1,740.97	62.1373	1,740.97	61.232	1,740.97	61.6986	1,740.97	61.8781	1,740.97	66.6319	1,740.97	64.0945	1,740.97	68.6966	1,740.97	66.0038	1,740.97	68.0428
1,802.49	78.6467	1,802.49	78.4082	1,802.49	78.7779	1,802.49	78.0843	1,802.49	78.6638	1,802.49	77.6877	1,802.49	78.2516	1,802.49	77.3336	1,802.49	77.7758	1,802.49	77.0859	1,802.49	77.5398	1,802.49	76.8668	1,802.49	77.4279	1,802.49	76.5235	1,802.49	76.9438	1,802.49	75.8792	1,802.49	75.6969	1,802.49	74.8321	1,802.49	73.8079	1,802.49	73.3865	1,802.49	72.0615	1,802.49	71.4123	1,802.49	70.9561	1,802.49	68.7592	1,802.49	69.7512	1,802.49	66.2525	1,802.49	67.792	1,802.49	64.9145	1,802.49	65.2564	1,802.49	63.3585	1,802.49	62.1304	1,802.49	65.1644	1,802.49	63.9321	1,802.49	69.9474	1,802.49	69.4377	1,802.49	71.5312
1,866.21	80.5317	1,866.21	80.7524	1,866.21	80.2377	1,866.21	80.6832	1,866.21	79.9122	1,866.21	80.204	1,866.21	79.4483	1,866.21	79.4734	1,866.21	78.7436	1,866.21	78.6937	1,866.21	77.7854	1,866.21	77.8441	1,866.21	76.7385	1,866.21	76.9286	1,866.21	75.8929	1,866.21	76.0047	1,866.21	75.3033	1,866.21	74.7276	1,866.21	74.619	1,866.21	72.7717	1,866.21	73.5305	1,866.21	70.6446	1,866.21	72.1746	1,866.21	69.3657	1,866.21	70.8935	1,866.21	68.3295	1,866.21	69.3006	1,866.21	66.2078	1,866.21	66.4402	1,866.21	65.7316	1,866.21	64.9481	1,866.21	67.3166	1,866.21	66.8146	1,866.21	67.5018	1,866.21	67.4527	1,866.21	67.2345
1,931.76	81.7577	1,931.76	81.843	1,931.76	81.3161	1,931.76	81.6313	1,931.76	80.544	1,931.76	81.1247	1,931.76	79.5361	1,931.76	80.2153	1,931.76	78.3554	1,931.76	78.8911	1,931.76	77.112	1,931.76	77.3969	1,931.76	76.094	1,931.76	75.9771	1,931.76	75.5083	1,931.76	74.619	1,931.76	75.1871	1,931.76	73.3882	1,931.76	74.8725	1,931.76	72.4665	1,931.76	74.375	1,931.76	71.4956	1,931.76	73.4194	1,931.76	69.8165	1,931.76	71.8415	1,931.76	67.5161	1,931.76	69.8843	1,931.76	65.2286	1,931.76	67.4558	1,931.76	62.5961	1,931.76	63.768	1,931.76	62.4134	1,931.76	64.1915	1,931.76	65.8665	1,931.76	67.533	1,931.76	68.0126
1,999.88	80.3027	1,999.88	80.259	1,999.88	79.9804	1,999.88	79.8641	1,999.88	79.3331	1,999.88	79.1461	1,999.88	78.4823	1,999.88	78.1954	1,999.88	77.5001	1,999.88	77.1721	1,999.88	76.3329	1,999.88	76.194	1,999.88	75.0285	1,999.88	75.2453	1,999.88	73.8969	1,999.88	74.2602	1,999.88	73.0875	1,999.88	73.2634	1,999.88	72.3825	1,999.88	72.3073	1,999.88	71.7844	1,999.88	71.2757	1,999.88	71.2956	1,999.88	69.8112	1,999.88	70.3009	1,999.88	67.5229	1,999.88	68.1735	1,999.88	64.3835	1,999.88	64.7562	1,999.88	62.2931	1,999.88	60.4309	1,999.88	64.0493	1,999.88	61.5008	1,999.88	66.3556	1,999.88	65.4411	1,999.88	67.02
2,070.56	80.8804	2,070.56	80.5232	2,070.56	80.8571	2,070.56	79.8663	2,070.56	80.4793	2,070.56	79.0491	2,070.56	79.7763	2,070.56	78.069	2,070.56	78.7598	2,070.56	76.8336	2,070.56	77.4875	2,070.56	75.4428	2,070.56	76.0701	2,070.56	74.2119	2,070.56	74.6677	2,070.56	73.2997	2,070.56	73.4601	2,070.56	72.56	2,070.56	72.5568	2,070.56	71.8253	2,070.56	71.9493	2,070.56	70.9121	2,070.56	71.3541	2,070.56	69.3812	2,070.56	70.2684	2,070.56	66.6433	2,070.56	68.3334	2,070.56	62.3942	2,070.56	65.5447	2,070.56	59.4206	2,070.56	62.3536	2,070.56	62.4896	2,070.56	61.5073	2,070.56	65.2868	2,070.56	64.1819	2,070.56	65.8734
2,143.43	79.616	2,143.43	79.1508	2,143.43	80.1734	2,143.43	78.8147	2,143.43	80.6027	2,143.43	78.2876	2,143.43	80.8211	2,143.43	77.3751	2,143.43	80.7837	2,143.43	76.2393	2,143.43	80.3667	2,143.43	75.0381	2,143.43	79.523	2,143.43	73.7693	2,143.43	78.4697	2,143.43	72.6514	2,143.43	77.5421	2,143.43	72.0639	2,143.43	76.7421	2,143.43	71.8321	2,143.43	75.8412	2,143.43	71.4282	2,143.43	74.789	2,143.43	70.6969	2,143.43	73.3172	2,143.43	69.4457	2,143.43	70.9737	2,143.43	66.8484	2,143.43	67.8619	2,143.43	62.6104	2,143.43	64.8144	2,143.43	62.5893	2,143.43	63.1482	2,143.43	64.8582	2,143.43	63.986	2,143.43	65.1697
2,219.24	78.9953	2,219.24	78.6571	2,219.24	79.5439	2,219.24	78.8191	2,219.24	79.5478	2,219.24	78.8143	2,219.24	79.1601	2,219.24	78.3871	2,219.24	79.112	2,219.24	77.8758	2,219.24	79.2441	2,219.24	77.3069	2,219.24	78.8617	2,219.24	76.4358	2,219.24	78.0061	2,219.24	75.5096	2,219.24	77.0166	2,219.24	74.8941	2,219.24	75.4983	2,219.24	74.3849	2,219.24	73.5734	2,219.24	73.7883	2,219.24	72.6945	2,219.24	72.9238	2,219.24	72.687	2,219.24	71.4357	2,219.24	71.5183	2,219.24	69.146	2,219.24	68.4038	2,219.24	66.0043	2,219.24	64.7121	2,219.24	64.4417	2,219.24	63.9447	2,219.24	66.6735	2,219.24	66.205	2,219.24	67.6224
2,297.24	77.6511	2,297.24	77.6683	2,297.24	77.7814	2,297.24	77.8278	2,297.24	77.8408	2,297.24	77.893	2,297.24	77.7901	2,297.24	77.7661	2,297.24	77.7863	2,297.24	77.4971	2,297.24	77.8063	2,297.24	76.9799	2,297.24	77.5994	2,297.24	76.0309	2,297.24	76.9652	2,297.24	74.7438	2,297.24	75.8578	2,297.24	73.434	2,297.24	74.3924	2,297.24	72.3177	2,297.24	72.84	2,297.24	71.4757	2,297.24	71.3464	2,297.24	70.7809	2,297.24	69.8313	2,297.24	69.7776	2,297.24	68.2919	2,297.24	67.8805	2,297.24	66.5034	2,297.24	65.0985	2,297.24	64.1698	2,297.24	64.3988	2,297.24	64.153	2,297.24	66.6268	2,297.24	66.8235	2,297.24	67.8705
2,378.54	75.439	2,378.54	75.3805	2,378.54	75.2812	2,378.54	75.0777	2,378.54	75.0248	2,378.54	74.7063	2,378.54	74.6223	2,378.54	74.5083	2,378.54	73.9688	2,378.54	74.4194	2,378.54	73.3069	2,378.54	74.0542	2,378.54	72.964	2,378.54	73.0924	2,378.54	72.5747	2,378.54	71.5987	2,378.54	71.5682	2,378.54	70.0096	2,378.54	70.3034	2,378.54	68.8488	2,378.54	69.5578	2,378.54	67.994	2,378.54	68.7617	2,378.54	66.8824	2,378.54	66.813	2,378.54	65.5628	2,378.54	63.5786	2,378.54	64.0254	2,378.54	61.1622	2,378.54	62.2948	2,378.54	61.0607	2,378.54	63.9154	2,378.54	63.0687	2,378.54	67.1073	2,378.54	66.1899	2,378.54	67.9193
2,462.4	77.1091	2,462.4	76.8077	2,462.4	77.6321	2,462.4	76.7675	2,462.4	77.7508	2,462.4	76.5125	2,462.4	77.295	2,462.4	76.1321	2,462.4	76.6943	2,462.4	76.1326	2,462.4	76.1714	2,462.4	76.2072	2,462.4	75.2363	2,462.4	75.6467	2,462.4	73.4954	2,462.4	74.4564	2,462.4	71.3756	2,462.4	72.5334	2,462.4	69.42	2,462.4	69.4438	2,462.4	67.8573	2,462.4	67.0594	2,462.4	67.2549	2,462.4	67.2465	2,462.4	67.2609	2,462.4	67.392	2,462.4	66.5699	2,462.4	66.4801	2,462.4	64.6545	2,462.4	65.1669	2,462.4	61.4268	2,462.4	63.1004	2,462.4	60.7186	2,462.4	63.7184	2,462.4	64.4465	2,462.4	65.5445
2,549.19	79.3019	2,549.19	79.002	2,549.19	80.1006	2,549.19	79.4261	2,549.19	80.1994	2,549.19	79.4606	2,549.19	79.2523	2,549.19	79.0023	2,549.19	78.0534	2,549.19	78.3675	2,549.19	77.0167	2,549.19	77.1275	2,549.19	75.1459	2,549.19	75.0853	2,549.19	71.9788	2,549.19	73.1049	2,549.19	69.8165	2,549.19	71.3103	2,549.19	69.7946	2,549.19	68.5176	2,549.19	69.1237	2,549.19	66.6039	2,549.19	68.2516	2,549.19	67.8571	2,549.19	69.09	2,549.19	67.7547	2,549.19	68.1871	2,549.19	64.8679	2,549.19	65.4811	2,549.19	64.457	2,549.19	63.8696	2,549.19	64.6988	2,549.19	63.7933	2,549.19	66.3869	2,549.19	66.6572	2,549.19	67.9736
2,638.92	80.9733	2,638.92	81.1182	2,638.92	80.4485	2,638.92	80.4406	2,638.92	79.9832	2,638.92	79.0849	2,638.92	79.4631	2,638.92	77.672	2,638.92	78.6597	2,638.92	76.5546	2,638.92	77.7664	2,638.92	75.4946	2,638.92	77.0173	2,638.92	74.3373	2,638.92	76.2232	2,638.92	73.2973	2,638.92	75.1679	2,638.92	72.4065	2,638.92	73.7417	2,638.92	71.5007	2,638.92	71.6659	2,638.92	70.478	2,638.92	69.1544	2,638.92	68.9507	2,638.92	66.9109	2,638.92	66.424	2,638.92	64.649	2,638.92	62.8865	2,638.92	62.7057	2,638.92	61.214	2,638.92	61.9839	2,638.92	63.9468	2,638.92	63.6169	2,638.92	66.9383	2,638.92	66.8824	2,638.92	68.1096
2,731.93	80.0742	2,731.93	79.4569	2,731.93	80.1431	2,731.93	78.6133	2,731.93	79.5388	2,731.93	77.681	2,731.93	78.5913	2,731.93	76.697	2,731.93	77.791	2,731.93	75.8961	2,731.93	77.2387	2,731.93	75.4371	2,731.93	76.737	2,731.93	74.9953	2,731.93	76.2259	2,731.93	74.1272	2,731.93	75.6613	2,731.93	72.7349	2,731.93	74.8304	2,731.93	71.0869	2,731.93	73.7208	2,731.93	69.2434	2,731.93	72.7476	2,731.93	67.0267	2,731.93	72.0438	2,731.93	65.0922	2,731.93	70.6849	2,731.93	63.6955	2,731.93	67.6581	2,731.93	63.7557	2,731.93	64.8801	2,731.93	67.253	2,731.93	65.1722	2,731.93	69.17	2,731.93	66.4846	2,731.93	68.4131
2,828.25	76.9472	2,828.25	76.5028	2,828.25	77.3497	2,828.25	76.1679	2,828.25	77.4284	2,828.25	75.8968	2,828.25	77.0806	2,828.25	75.6238	2,828.25	76.391	2,828.25	75.2802	2,828.25	75.4302	2,828.25	74.8568	2,828.25	74.2104	2,828.25	74.4235	2,828.25	72.802	2,828.25	73.6611	2,828.25	71.3498	2,828.25	71.7763	2,828.25	70.02	2,828.25	68.5664	2,828.25	69.0259	2,828.25	66.185	2,828.25	68.4445	2,828.25	66.2353	2,828.25	68.0542	2,828.25	66.1639	2,828.25	67.1011	2,828.25	64.4217	2,828.25	64.1248	2,828.25	63.1799	2,828.25	60.7716	2,828.25	65.0722	2,828.25	64.6711	2,828.25	67.2597	2,828.25	67.8083	2,828.25	68.376
2,928.22	78.7783	2,928.22	78.6429	2,928.22	78.6373	2,928.22	78.1845	2,928.22	78.4126	2,928.22	77.6659	2,928.22	78.077	2,928.22	77.147	2,928.22	77.4092	2,928.22	76.3695	2,928.22	76.2783	2,928.22	75.1419	2,928.22	74.7656	2,928.22	73.412	2,928.22	73.0756	2,928.22	71.4427	2,928.22	71.5364	2,928.22	69.7787	2,928.22	70.336	2,928.22	68.3898	2,928.22	69.3448	2,928.22	66.9494	2,928.22	68.758	2,928.22	66.9813	2,928.22	68.0994	2,928.22	67.4224	2,928.22	66.3717	2,928.22	64.3778	2,928.22	63.5805	2,928.22	61.3775	2,928.22	58.2618	2,928.22	65.976	2,928.22	61.3129	2,928.22	69.2616	2,928.22	68.5503	2,928.22	70.508
3,031.49	81.0426	3,031.49	81.512	3,031.49	80.3098	3,031.49	81.4556	3,031.49	79.7161	3,031.49	81.0634	3,031.49	79.3041	3,031.49	80.5979	3,031.49	78.9932	3,031.49	79.9179	3,031.49	78.8775	3,031.49	78.8392	3,031.49	78.7865	3,031.49	77.6558	3,031.49	78.2041	3,031.49	76.6751	3,031.49	76.9661	3,031.49	75.7744	3,031.49	75.3247	3,031.49	74.5899	3,031.49	73.1649	3,031.49	72.6868	3,031.49	70.4344	3,031.49	70.5298	3,031.49	68.383	3,031.49	68.8959	3,031.49	67.4926	3,031.49	64.9372	3,031.49	66.5548	3,031.49	57.0669	3,031.49	64.6343	3,031.49	64.5557	3,031.49	62.1245	3,031.49	68.7924	3,031.49	66.8164	3,031.49	69.4665
3,138.43	81.6921	3,138.43	82.8179	3,138.43	81.1187	3,138.43	83.2238	3,138.43	80.9569	3,138.43	82.456	3,138.43	79.9238	3,138.43	81.1574	3,138.43	78.4574	3,138.43	79.9212	3,138.43	78.6441	3,138.43	78.7373	3,138.43	79.7137	3,138.43	77.6334	3,138.43	79.2585	3,138.43	76.7605	3,138.43	77.4203	3,138.43	75.8581	3,138.43	75.1203	3,138.43	74.5899	3,138.43	72.8898	3,138.43	72.3707	3,138.43	71.5566	3,138.43	69.0949	3,138.43	72.0562	3,138.43	67.1699	3,138.43	71.8609	3,138.43	65.3377	3,138.43	69.5881	3,138.43	57.9799	3,138.43	66.4149	3,138.43	63.4137	3,138.43	65.238	3,138.43	66.9719	3,138.43	66.4621	3,138.43	67.285
3,249.02	80.5674	3,249.02	80.8412	3,249.02	80.3868	3,249.02	80.3293	3,249.02	79.8871	3,249.02	78.5216	3,249.02	78.2427	3,249.02	75.0727	3,249.02	76.008	3,249.02	71.6394	3,249.02	74.5966	3,249.02	71.6843	3,249.02	73.5874	3,249.02	72.5518	3,249.02	72.4569	3,249.02	71.2076	3,249.02	70.2425	3,249.02	69.3161	3,249.02	63.9629	3,249.02	68.9804	3,249.02	63.5875	3,249.02	67.2024	3,249.02	68.2414	3,249.02	64.0674	3,249.02	68.7168	3,249.02	64.1269	3,249.02	66.2807	3,249.02	63.5247	3,249.02	64.0765	3,249.02	56.7813	3,249.02	58.8707	3,249.02	61.9114	3,249.02	58.3338	3,249.02	64.7212	3,249.02	65.4155	3,249.02	66.1347
3,363.65	75.7451	3,363.65	76.8585	3,363.65	74.9645	3,363.65	76.973	3,363.65	75.5651	3,363.65	76.6294	3,363.65	76.1498	3,363.65	76.3833	3,363.65	75.4119	3,363.65	75.6459	3,363.65	73.4299	3,363.65	74.1555	3,363.65	71.569	3,363.65	72.7032	3,363.65	70.0257	3,363.65	71.0449	3,363.65	67.8546	3,363.65	68.3137	3,363.65	66.0248	3,363.65	65.6888	3,363.65	65.5617	3,363.65	64.2819	3,363.65	62.5154	3,363.65	63.9285	3,363.65	63.5097	3,363.65	64.8631	3,363.65	66.8927	3,363.65	63.554	3,363.65	64.9321	3,363.65	58.9854	3,363.65	57.1455	3,363.65	61.5467	3,363.65	62.6788	3,363.65	65.3041	3,363.65	67.1258	3,363.65	67.3483
3,482.3	77.0194	3,482.3	79.4334	3,482.3	74.9519	3,482.3	80.2878	3,482.3	74.9079	3,482.3	80.5103	3,482.3	74.2422	3,482.3	81.2101	3,482.3	72.8731	3,482.3	80.9158	3,482.3	74.8292	3,482.3	78.057	3,482.3	77.9879	3,482.3	74.0076	3,482.3	79.4121	3,482.3	72.9482	3,482.3	78.8796	3,482.3	72.879	3,482.3	76.7834	3,482.3	70.7487	3,482.3	72.4462	3,482.3	69.0929	3,482.3	64.7656	3,482.3	68.5845	3,482.3	58.1892	3,482.3	68.568	3,482.3	61.5275	3,482.3	69.3412	3,482.3	66.1628	3,482.3	64.9922	3,482.3	65.2204	3,482.3	60.9072	3,482.3	59.6643	3,482.3	66.2595	3,482.3	66.8183	3,482.3	67.7478
3,604.98	82.1356	3,604.98	82.4939	3,604.98	80.2169	3,604.98	82.4327	3,604.98	78.1963	3,604.98	82.8987	3,604.98	77.6426	3,604.98	82.4634	3,604.98	77.5009	3,604.98	80.2875	3,604.98	76.5279	3,604.98	78.1716	3,604.98	76.9168	3,604.98	77.0897	3,604.98	78.8092	3,604.98	75.8204	3,604.98	78.0536	3,604.98	74.4965	3,604.98	74.4058	3,604.98	73.2097	3,604.98	71.0859	3,604.98	70.4609	3,604.98	72.176	3,604.98	70.5717	3,604.98	69.6718	3,604.98	70.6497	3,604.98	70.4374	3,604.98	67.6324	3,604.98	68.8234	3,604.98	63.7813	3,604.98	60.6082	3,604.98	57.6906	3,604.98	55.7383	3,604.98	67.0128	3,604.98	62.8305	3,604.98	68.4929
3,732.06	79.5675	3,732.06	79.2635	3,732.06	74.7475	3,732.06	78.725	3,732.06	62.2098	3,732.06	78.7052	3,732.06	73.731	3,732.06	77.7315	3,732.06	70.2216	3,732.06	74.5316	3,732.06	65.061	3,732.06	72.7126	3,732.06	71.2814	3,732.06	72.5861	3,732.06	70.5624	3,732.06	70.6645	3,732.06	70.3575	3,732.06	68.9858	3,732.06	69.143	3,732.06	69.2312	3,732.06	68.8543	3,732.06	68.2101	3,732.06	68.1565	3,732.06	65.4302	3,732.06	61.3165	3,732.06	64.5616	3,732.06	65.5667	3,732.06	62.8896	3,732.06	63.9828	3,732.06	59.8066	3,732.06	58.4634	3,732.06	63.827	3,732.06	51.7727	3,732.06	68.9981	3,732.06	60.1985	3,732.06	68.0752
3,863.89	67.838	3,863.89	69.017	3,863.89	63.6999	3,863.89	70.8209	3,863.89	62.2998	3,863.89	73.8379	3,863.89	63.8896	3,863.89	75.3898	3,863.89	65.4126	3,863.89	73.6939	3,863.89	62.914	3,863.89	68.6453	3,863.89	57.5379	3,863.89	63.6023	3,863.89	56.4794	3,863.89	64.9543	3,863.89	59.9286	3,863.89	67.169	3,863.89	59.2837	3,863.89	66.5011	3,863.89	61.1159	3,863.89	63.6082	3,863.89	63.1874	3,863.89	62.8164	3,863.89	61.1663	3,863.89	63.0356	3,863.89	57.607	3,863.89	60.9577	3,863.89	57.1781	3,863.89	57.0073	3,863.89	55.6343	3,863.89	54.1057	3,863.89	51.8816	3,863.89	63.1327	3,863.89	58.4417	3,863.89	64.8248
4,000.12	82.5589	4,000.12	82.6636	4,000.12	82.9521	4,000.12	82.3157	4,000.12	83.2913	4,000.12	81.5702	4,000.12	81.8774	4,000.12	80.7016	4,000.12	78.3497	4,000.12	78.7579	4,000.12	75.5434	4,000.12	76.0769	4,000.12	75.4491	4,000.12	75.3053	4,000.12	73.934	4,000.12	75.7675	4,000.12	70.5671	4,000.12	74.5439	4,000.12	69.1194	4,000.12	72.103	4,000.12	70.232	4,000.12	69.573	4,000.12	70.3041	4,000.12	64.4482	4,000.12	68.3786	4,000.12	61.5399	4,000.12	66.619	4,000.12	67.1461	4,000.12	66.2407	4,000.12	66.4493	4,000.12	62.9044	4,000.12	61.2135	4,000.12	58.962	4,000.12	66.4653	4,000.12	65.7019	4,000.12	68.3273
4,141.11	82.3665	4,141.11	82.0702	4,141.11	81.9518	4,141.11	80.6751	4,141.11	81.5601	4,141.11	78.9395	4,141.11	81.3807	4,141.11	78.0824	4,141.11	81.389	4,141.11	78.1609	4,141.11	80.8627	4,141.11	78.3759	4,141.11	78.1159	4,141.11	78.711	4,141.11	71.8968	4,141.11	78.1651	4,141.11	67.8365	4,141.11	75.6954	4,141.11	71.8448	4,141.11	72.364	4,141.11	73.8935	4,141.11	70.0944	4,141.11	73.0685	4,141.11	68.2051	4,141.11	69.7346	4,141.11	66.1114	4,141.11	62.9441	4,141.11	64.5642	4,141.11	66.8673	4,141.11	65.049	4,141.11	65.2991	4,141.11	64.872	4,141.11	61.4486	4,141.11	66.0674	4,141.11	68.963	4,141.11	69.1035
4,287.23	77.8565	4,287.23	77.0199	4,287.23	78.8254	4,287.23	76.8718	4,287.23	79.118	4,287.23	77.2645	4,287.23	78.5499	4,287.23	77.6964	4,287.23	77.4487	4,287.23	77.5479	4,287.23	75.5885	4,287.23	75.8808	4,287.23	72.8258	4,287.23	73.3765	4,287.23	70.3703	4,287.23	70.4711	4,287.23	68.9352	4,287.23	68.0533	4,287.23	69.2072	4,287.23	68.9938	4,287.23	70.6493	4,287.23	68.6961	4,287.23	69.3248	4,287.23	65.1532	4,287.23	65.056	4,287.23	62.4508	4,287.23	61.1274	4,287.23	58.0612	4,287.23	55.8603	4,287.23	48.5055	4,287.23	54.8024	4,287.23	55.8787	4,287.23	56.8879	4,287.23	64.3961	4,287.23	63.179	4,287.23	66.367
4,438.11	83.1258	4,438.11	84.2503	4,438.11	81.5856	4,438.11	84.0999	4,438.11	79.8907	4,438.11	82.1101	4,438.11	77.9201	4,438.11	78.2855	4,438.11	76.5176	4,438.11	74.3853	4,438.11	75.8759	4,438.11	72.4997	4,438.11	74.3916	4,438.11	70.7622	4,438.11	71.2277	4,438.11	70.4737	4,438.11	69.2398	4,438.11	71.222	4,438.11	69.0193	4,438.11	71.0233	4,438.11	67.4417	4,438.11	69.4961	4,438.11	67.2053	4,438.11	65.8109	4,438.11	65.8849	4,438.11	61.9437	4,438.11	64.7308	4,438.11	63.9893	4,438.11	66.7827	4,438.11	65.8811	4,438.11	63.8635	4,438.11	60.8412	4,438.11	60.493	4,438.11	66.0622	4,438.11	68.4266	4,438.11	69.8488
4,594.85	81.7807	4,594.85	79.9565	4,594.85	81.6828	4,594.85	77.2665	4,594.85	80.1041	4,594.85	75.9087	4,594.85	77.7392	4,594.85	75.5933	4,594.85	74.8714	4,594.85	75.7597	4,594.85	73.8386	4,594.85	76.6525	4,594.85	75.2598	4,594.85	76.8477	4,594.85	76.0701	4,594.85	75.1148	4,594.85	74.7874	4,594.85	72.2482	4,594.85	72.3471	4,594.85	68.8801	4,594.85	70.5198	4,594.85	66.5978	4,594.85	69.4324	4,594.85	66.3572	4,594.85	67.3162	4,594.85	65.9103	4,594.85	64.2265	4,594.85	65.9823	4,594.85	67.2822	4,594.85	63.4801	4,594.85	66.1875	4,594.85	61.526	4,594.85	55.8883	4,594.85	67.2175	4,594.85	64.9296	4,594.85	68.2136
4,756.71	81.0062	4,756.71	81.5638	4,756.71	80.5507	4,756.71	81.5315	4,756.71	81.2526	4,756.71	81.3588	4,756.71	82.1779	4,756.71	80.9965	4,756.71	81.9851	4,756.71	79.6295	4,756.71	80.5446	4,756.71	77.4318	4,756.71	78.1708	4,756.71	75.2348	4,756.71	75.4503	4,756.71	73.0709	4,756.71	72.6238	4,756.71	71.8944	4,756.71	70.8551	4,756.71	71.8253	4,756.71	71.4806	4,756.71	70.9293	4,756.71	71.3128	4,756.71	67.3053	4,756.71	68.2248	4,756.71	63.9325	4,756.71	63.3122	4,756.71	61.3109	4,756.71	58.6229	4,756.71	60.2981	4,756.71	56.8644	4,756.71	53.8903	4,756.71	57.8444	4,756.71	65.1742	4,756.71	66.4005	4,756.71	69.4038
4,924.44	83.0544	4,924.44	82.6958	4,924.44	83.4112	4,924.44	82.8224	4,924.44	82.6112	4,924.44	82.5031	4,924.44	80.8708	4,924.44	81.0965	4,924.44	79.7418	4,924.44	78.4615	4,924.44	79.0688	4,924.44	75.449	4,924.44	77.2292	4,924.44	74.477	4,924.44	74.5302	4,924.44	74.775	4,924.44	73.0947	4,924.44	74.1312	4,924.44	72.7967	4,924.44	72.0967	4,924.44	71.7805	4,924.44	69.947	4,924.44	69.0653	4,924.44	66.7723	4,924.44	64.9636	4,924.44	63.4065	4,924.44	61.3756	4,924.44	64.9758	4,924.44	65.6952	4,924.44	62.9874	4,924.44	65.7461	4,924.44	59.5054	4,924.44	56.7049	4,924.44	65.4041	4,924.44	68.04	4,924.44	69.2462
5,098.39	82.0429	5,098.39	81.0076	5,098.39	82.0762	5,098.39	78.8317	5,098.39	81.3032	5,098.39	76.2362	5,098.39	80.0157	5,098.39	75.515	5,098.39	78.2164	5,098.39	76.1149	5,098.39	76.2493	5,098.39	75.8446	5,098.39	74.9371	5,098.39	73.6833	5,098.39	73.2804	5,098.39	70.0536	5,098.39	69.7383	5,098.39	67.7794	5,098.39	65.77	5,098.39	67.4287	5,098.39	64.5666	5,098.39	67.3996	5,098.39	66.2722	5,098.39	67.1404	5,098.39	67.6461	5,098.39	62.5991	5,098.39	64.5676	5,098.39	59.9467	5,098.39	59.0087	5,098.39	64.0365	5,098.39	60.5975	5,098.39	51.3057	5,098.39	42.4672	5,098.39	66.5668	5,098.39	65.0949	5,098.39	69.3428
5,278.2	79.8666	5,278.2	80.1512	5,278.2	79.5713	5,278.2	80.1647	5,278.2	79.5128	5,278.2	80.1123	5,278.2	79.195	5,278.2	79.5952	5,278.2	78.3854	5,278.2	77.8778	5,278.2	77.4594	5,278.2	75.5744	5,278.2	76.4264	5,278.2	74.4352	5,278.2	75.0824	5,278.2	74.2705	5,278.2	73.9303	5,278.2	73.1099	5,278.2	73.1224	5,278.2	71.0753	5,278.2	71.48	5,278.2	69.3581	5,278.2	69.9957	5,278.2	68.3652	5,278.2	68.6267	5,278.2	67.2864	5,278.2	64.815	5,278.2	64.3844	5,278.2	62.3664	5,278.2	65.7103	5,278.2	63.5768	5,278.2	60.9005	5,278.2	59.0539	5,278.2	67.919	5,278.2	63.938	5,278.2	70.6098
5,464.23	81.9608	5,464.23	81.8272	5,464.23	81.5717	5,464.23	81.4546	5,464.23	80.6823	5,464.23	80.5958	5,464.23	80.05	5,464.23	78.8282	5,464.23	79.5608	5,464.23	76.5052	5,464.23	78.2066	5,464.23	75.0185	5,464.23	75.7096	5,464.23	73.8239	5,464.23	72.7222	5,464.23	72.601	5,464.23	69.7962	5,464.23	70.6887	5,464.23	68.6904	5,464.23	67.8838	5,464.23	69.0354	5,464.23	67.0182	5,464.23	67.587	5,464.23	67.7398	5,464.23	67.3325	5,464.23	66.3386	5,464.23	66.8307	5,464.23	65.5512	5,464.23	63.2181	5,464.23	64.0167	5,464.23	64.9934	5,464.23	55.3224	5,464.23	56.1402	5,464.23	63.4663	5,464.23	66.0874	5,464.23	68.6486
5,656.86	81.7475	5,656.86	81.0843	5,656.86	82.1383	5,656.86	79.7958	5,656.86	81.7456	5,656.86	77.9025	5,656.86	80.0894	5,656.86	76.7226	5,656.86	77.3558	5,656.86	76.3517	5,656.86	75.3764	5,656.86	75.3449	5,656.86	75.072	5,656.86	72.9905	5,656.86	74.5257	5,656.86	70.3188	5,656.86	72.5788	5,656.86	69.3965	5,656.86	70.3012	5,656.86	69.1323	5,656.86	67.5597	5,656.86	67.2357	5,656.86	65.5397	5,656.86	65.5342	5,656.86	66.3181	5,656.86	62.5296	5,656.86	64.9847	5,656.86	60.301	5,656.86	63.8367	5,656.86	63.9337	5,656.86	63.9535	5,656.86	56.3961	5,656.86	56.7393	5,656.86	64.5887	5,656.86	61.1821	5,656.86	67.4995
5,856.45	80.3232	5,856.45	80.7132	5,856.45	79.3107	5,856.45	80.3687	5,856.45	78.5219	5,856.45	79.5828	5,856.45	78.4519	5,856.45	78.0225	5,856.45	78.3916	5,856.45	75.5308	5,856.45	77.649	5,856.45	73.447	5,856.45	75.7325	5,856.45	72.7895	5,856.45	73.5831	5,856.45	72.1988	5,856.45	71.5634	5,856.45	70.3862	5,856.45	69.8897	5,856.45	67.8907	5,856.45	69.0737	5,856.45	66.2606	5,856.45	67.4158	5,856.45	67.1935	5,856.45	65.5178	5,856.45	66.6752	5,856.45	63.7503	5,856.45	61.5117	5,856.45	58.4769	5,856.45	63.5922	5,856.45	62.8941	5,856.45	56.7575	5,856.45	59.2657	5,856.45	62.9718	5,856.45	61.8378	5,856.45	67.5931
6,062.99	81.0113	6,062.99	80.369	6,062.99	81.7442	6,062.99	80.0137	6,062.99	81.7277	6,062.99	79.3492	6,062.99	80.7523	6,062.99	78.4994	6,062.99	79.393	6,062.99	77.9012	6,062.99	78.0916	6,062.99	76.9735	6,062.99	76.3798	6,062.99	75.0456	6,062.99	74.0505	6,062.99	72.7641	6,062.99	71.6321	6,062.99	71.5512	6,062.99	70.8791	6,062.99	70.1483	6,062.99	70.329	6,062.99	66.8495	6,062.99	67.882	6,062.99	65.6897	6,062.99	66.0858	6,062.99	64.2528	6,062.99	65.3652	6,062.99	60.6995	6,062.99	61.7467	6,062.99	64.0235	6,062.99	64.4079	6,062.99	60.3496	6,062.99	60.161	6,062.99	60.2046	6,062.99	62.1493	6,062.99	67.2139
6,276.86	81.1602	6,276.86	80.6663	6,276.86	80.9663	6,276.86	79.7767	6,276.86	80.0698	6,276.86	78.8041	6,276.86	78.6185	6,276.86	77.6805	6,276.86	77.055	6,276.86	76.3322	6,276.86	76.0216	6,276.86	75.0927	6,276.86	75.4065	6,276.86	73.9528	6,276.86	74.378	6,276.86	72.33	6,276.86	72.2949	6,276.86	70.6602	6,276.86	70.1095	6,276.86	69.0785	6,276.86	69.3235	6,276.86	65.4153	6,276.86	67.6033	6,276.86	62.602	6,276.86	65.3412	6,276.86	63.8698	6,276.86	64.9716	6,276.86	58.9268	6,276.86	59.3015	6,276.86	62.0833	6,276.86	62.6465	6,276.86	61.4945	6,276.86	59.7739	6,276.86	59.693	6,276.86	60.9232	6,276.86	66.3661
6,498.05	79.307	6,498.05	79.1889	6,498.05	79.2016	6,498.05	78.7051	6,498.05	78.8048	6,498.05	77.914	6,498.05	78.0504	6,498.05	77.1372	6,498.05	77.3027	6,498.05	76.437	6,498.05	76.6546	6,498.05	75.5081	6,498.05	75.5648	6,498.05	74.1513	6,498.05	73.623	6,498.05	72.1422	6,498.05	70.9801	6,498.05	69.9348	6,498.05	69.1193	6,498.05	68.9792	6,498.05	69.1803	6,498.05	66.8921	6,498.05	67.4373	6,498.05	61.7643	6,498.05	64.2946	6,498.05	63.6057	6,498.05	64.4284	6,498.05	58.2022	6,498.05	59.1177	6,498.05	62.1383	6,498.05	60.5666	6,498.05	60.4822	6,498.05	60.2189	6,498.05	59.5048	6,498.05	59.0577	6,498.05	66.3086
6,727.29	81.3703	6,727.29	80.753	6,727.29	81.1977	6,727.29	79.7885	6,727.29	80.3529	6,727.29	79.0766	6,727.29	79.3206	6,727.29	78.5697	6,727.29	78.3332	6,727.29	77.7543	6,727.29	77.2933	6,727.29	76.7446	6,727.29	76.2712	6,727.29	75.911	6,727.29	75.2415	6,727.29	74.7177	6,727.29	73.5925	6,727.29	72.8218	6,727.29	71.1808	6,727.29	71.6636	6,727.29	70.1821	6,727.29	70.1787	6,727.29	69.7557	6,727.29	66.7663	6,727.29	66.6958	6,727.29	65.5337	6,727.29	65.9909	6,727.29	61.0546	6,727.29	62.9304	6,727.29	61.3525	6,727.29	63.5757	6,727.29	64.1239	6,727.29	63.9354	6,727.29	56.611	6,727.29	58.5258	6,727.29	66.2665
6,964.23	80.5392	6,964.23	80.2921	6,964.23	80.0312	6,964.23	79.4595	6,964.23	79.0999	6,964.23	78.6242	6,964.23	77.9785	6,964.23	77.8654	6,964.23	76.6879	6,964.23	76.6784	6,964.23	75.367	6,964.23	75.006	6,964.23	74.2614	6,964.23	73.7099	6,964.23	73.3923	6,964.23	72.6995	6,964.23	72.0489	6,964.23	70.7079	6,964.23	69.9739	6,964.23	68.7695	6,964.23	69.0204	6,964.23	67.4007	6,964.23	68.3067	6,964.23	64.1665	6,964.23	65.6815	6,964.23	64.9958	6,964.23	64.5548	6,964.23	62.1484	6,964.23	60.6196	6,964.23	60.068	6,964.23	59.4973	6,964.23	62.5819	6,964.23	60.2079	6,964.23	56.1739	6,964.23	56.9932	6,964.23	63.923
7,209.96	79.3696	7,209.96	79.1514	7,209.96	79.0926	7,209.96	78.5205	7,209.96	78.3954	7,209.96	77.8512	7,209.96	77.5798	7,209.96	77.4076	7,209.96	76.9061	7,209.96	76.6885	7,209.96	76.138	7,209.96	75.2725	7,209.96	74.8153	7,209.96	73.8144	7,209.96	73.1023	7,209.96	72.9138	7,209.96	71.7285	7,209.96	71.4626	7,209.96	70.1441	7,209.96	69.7279	7,209.96	67.9752	7,209.96	68.6912	7,209.96	67.1003	7,209.96	65.4834	7,209.96	65.3001	7,209.96	63.936	7,209.96	64.8649	7,209.96	61.0193	7,209.96	62.5773	7,209.96	59.6774	7,209.96	59.8785	7,209.96	63.8249	7,209.96	63.5353	7,209.96	56.3724	7,209.96	55.3611	7,209.96	64.6199
7,464.11	80.5538	7,464.11	80.1672	7,464.11	80.8368	7,464.11	80.1014	7,464.11	80.5323	7,464.11	80.1839	7,464.11	79.4409	7,464.11	79.8601	7,464.11	77.9405	7,464.11	78.8047	7,464.11	76.7355	7,464.11	77.0425	7,464.11	75.8419	7,464.11	75.1729	7,464.11	74.5924	7,464.11	73.82	7,464.11	72.5628	7,464.11	71.9019	7,464.11	70.299	7,464.11	69.2626	7,464.11	69.2334	7,464.11	67.597	7,464.11	68.6601	7,464.11	64.8097	7,464.11	65.8585	7,464.11	66.229	7,464.11	64.0926	7,464.11	65.152	7,464.11	62.459	7,464.11	58.8476	7,464.11	59.6247	7,464.11	63.9084	7,464.11	64.152	7,464.11	59.3705	7,464.11	58.52	7,464.11	64.5704
7,727.42	79.2971	7,727.42	79.6041	7,727.42	78.4705	7,727.42	79.3447	7,727.42	77.292	7,727.42	78.8119	7,727.42	76.1429	7,727.42	78.2968	7,727.42	75.607	7,727.42	77.5336	7,727.42	75.5618	7,727.42	76.1389	7,727.42	75.2498	7,727.42	74.4286	7,727.42	74.0926	7,727.42	73.2054	7,727.42	72.475	7,727.42	72.0482	7,727.42	70.9876	7,727.42	70.6288	7,727.42	69.2664	7,727.42	69.8371	7,727.42	68.5595	7,727.42	66.381	7,727.42	67.1537	7,727.42	60.3116	7,727.42	64.3037	7,727.42	60.7345	7,727.42	62.9905	7,727.42	59.8002	7,727.42	57.6499	7,727.42	62.7274	7,727.42	61.7338	7,727.42	57.2176	7,727.42	58.2553	7,727.42	63.6996
7,999.88	80.1842	7,999.88	79.9557	7,999.88	79.871	7,999.88	79.6446	7,999.88	79.1656	7,999.88	79.5516	7,999.88	78.8682	7,999.88	79.4127	7,999.88	79.1484	7,999.88	78.9406	7,999.88	79.3277	7,999.88	78.021	7,999.88	78.8707	7,999.88	76.4995	7,999.88	77.3864	7,999.88	74.7002	7,999.88	75.3004	7,999.88	72.7159	7,999.88	73.7001	7,999.88	69.678	7,999.88	71.8399	7,999.88	67.8238	7,999.88	70.0027	7,999.88	67.2547	7,999.88	68.4851	7,999.88	66.0632	7,999.88	65.8299	7,999.88	63.4365	7,999.88	64.6177	7,999.88	59.6064	7,999.88	59.8192	7,999.88	64.7943	7,999.88	65.2126	7,999.88	60.8448	7,999.88	59.2316	7,999.88	66.0708
8,282.23	81.1726	8,282.23	81.4916	8,282.23	79.6313	8,282.23	80.7576	8,282.23	77.5307	8,282.23	79.6125	8,282.23	76.3927	8,282.23	78.6037	8,282.23	76.5768	8,282.23	77.7725	8,282.23	77.2073	8,282.23	76.6864	8,282.23	77.5254	8,282.23	75.0357	8,282.23	76.5506	8,282.23	73.3842	8,282.23	74.1848	8,282.23	72.2792	8,282.23	72.5354	8,282.23	70.6658	8,282.23	71.8326	8,282.23	69.3349	8,282.23	70.5806	8,282.23	67.1022	8,282.23	68.5703	8,282.23	63.6436	8,282.23	65.6087	8,282.23	62.81	8,282.23	63.8583	8,282.23	58.5848	8,282.23	60.3044	8,282.23	63.6215	8,282.23	65.5253	8,282.23	59.9709	8,282.23	60.9463	8,282.23	65.8118
8,574.1	79.4361	8,574.1	79.8142	8,574.1	78.7236	8,574.1	79.9169	8,574.1	78.3467	8,574.1	79.7395	8,574.1	78.4569	8,574.1	78.8046	8,574.1	78.809	8,574.1	77.4661	8,574.1	79.3587	8,574.1	76.7614	8,574.1	79.574	8,574.1	76.2081	8,574.1	78.3239	8,574.1	74.6362	8,574.1	75.541	8,574.1	72.0503	8,574.1	73.7229	8,574.1	69.0147	8,574.1	72.8804	8,574.1	67.1578	8,574.1	71.4266	8,574.1	66.8635	8,574.1	70.2745	8,574.1	65.2569	8,574.1	66.4605	8,574.1	61.3074	8,574.1	65.638	8,574.1	60.7369	8,574.1	58.409	8,574.1	63.2498	8,574.1	65.7276	8,574.1	60.5899	8,574.1	61.7721	8,574.1	67.226
8,876.59	82.0101	8,876.59	82.2546	8,876.59	80.6182	8,876.59	81.2414	8,876.59	79.6906	8,876.59	79.89	8,876.59	80.3374	8,876.59	79.0284	8,876.59	80.8232	8,876.59	78.6322	8,876.59	80.5629	8,876.59	78.2297	8,876.59	80.3966	8,876.59	76.9402	8,876.59	79.5873	8,876.59	74.9228	8,876.59	76.9897	8,876.59	73.6331	8,876.59	74.6025	8,876.59	72.1513	8,876.59	73.9007	8,876.59	70.1426	8,876.59	72.0686	8,876.59	68.601	8,876.59	71.28	8,876.59	66.6721	8,876.59	66.8208	8,876.59	65.2272	8,876.59	64.8548	8,876.59	60.1092	8,876.59	57.9488	8,876.59	65.7012	8,876.59	66.7783	8,876.59	58.947	8,876.59	62.7854	8,876.59	67.8565
9,189.7	78.7932	9,189.7	79.2948	9,189.7	77.4501	9,189.7	79.0002	9,189.7	77.1371	9,189.7	78.8216	9,189.7	79.0411	9,189.7	78.6551	9,189.7	81.1036	9,189.7	78.6432	9,189.7	81.9221	9,189.7	78.8828	9,189.7	81.7467	9,189.7	78.6129	9,189.7	80.4082	9,189.7	77.3352	9,189.7	77.6441	9,189.7	74.7544	9,189.7	75.9472	9,189.7	71.7499	9,189.7	75.5218	9,189.7	69.8436	9,189.7	72.7668	9,189.7	68.3357	9,189.7	71.527	9,189.7	67.4165	9,189.7	68.8244	9,189.7	64.8747	9,189.7	67.2347	9,189.7	61.2705	9,189.7	57.3544	9,189.7	64.7436	9,189.7	64.5865	9,189.7	57.0893	9,189.7	61.8381	9,189.7	67.9825
9,513.79	78.5425	9,513.79	78.5975	9,513.79	77.7581	9,513.79	78.971	9,513.79	78.9188	9,513.79	80.4503	9,513.79	81.3955	9,513.79	81.4144	9,513.79	82.8709	9,513.79	81.6483	9,513.79	82.8553	9,513.79	81.5386	9,513.79	82.1712	9,513.79	80.0422	9,513.79	81.2425	9,513.79	76.8166	9,513.79	78.8721	9,513.79	75.6323	9,513.79	75.3532	9,513.79	75.7057	9,513.79	74.2657	9,513.79	73.2127	9,513.79	72.7878	9,513.79	71.2871	9,513.79	70.6369	9,513.79	67.6206	9,513.79	68.1571	9,513.79	69.094	9,513.79	66.8109	9,513.79	61.6719	9,513.79	61.0333	9,513.79	67.6434	9,513.79	67.1952	9,513.79	49.6657	9,513.79	61.921	9,513.79	67.7011
9,849.24	75.0347	9,849.24	76.2066	9,849.24	73.6974	9,849.24	77.1426	9,849.24	75.518	9,849.24	77.8827	9,849.24	77.8054	9,849.24	78.3253	9,849.24	79.3638	9,849.24	79.0456	9,849.24	80.0831	9,849.24	79.3936	9,849.24	79.9397	9,849.24	78.7011	9,849.24	78.5059	9,849.24	77.095	9,849.24	75.2611	9,849.24	74.9928	9,849.24	72.4868	9,849.24	72.5223	9,849.24	72.1075	9,849.24	70.0472	9,849.24	69.6564	9,849.24	69.0916	9,849.24	68.3367	9,849.24	66.6095	9,849.24	63.3095	9,849.24	64.7457	9,849.24	67.13	9,849.24	62.9298	9,849.24	56.2049	9,849.24	66.1609	9,849.24	63.4808	9,849.24	45.0098	9,849.24	56.903	9,849.24	65.4508
10,196.4	75.411	10,196.4	75.7373	10,196.4	76.2578	10,196.4	78.1358	10,196.4	79.373	10,196.4	81.26	10,196.4	81.0971	10,196.4	82.8149	10,196.4	81.3903	10,196.4	82.8772	10,196.4	81.051	10,196.4	82.2086	10,196.4	80.5736	10,196.4	80.8755	10,196.4	79.4601	10,196.4	78.2647	10,196.4	76.476	10,196.4	76.2362	10,196.4	73.2266	10,196.4	76.286	10,196.4	73.4486	10,196.4	74.3519	10,196.4	71.3083	10,196.4	71.7413	10,196.4	69.8182	10,196.4	67.5529	10,196.4	64.909	10,196.4	67.6556	10,196.4	66.1671	10,196.4	65.6862	10,196.4	63.9272	10,196.4	68.2763	10,196.4	65.6871	10,196.4	44.4852	10,196.4	55.6316	10,196.4	65.4103
10,556	49.9508	10,556	62.9039	10,556	65.6403	10,556	73.7981	10,556	73.8512	10,556	78.3861	10,556	76.8454	10,556	80.0195	10,556	78.0712	10,556	80.0048	10,556	78.4045	10,556	78.8551	10,556	78.0217	10,556	77.3252	10,556	76.5728	10,556	75.7	10,556	73.2516	10,556	73.9097	10,556	70.4209	10,556	72.8202	10,556	71.1474	10,556	70.6588	10,556	68.3813	10,556	67.9566	10,556	67.0982	10,556	65.7644	10,556	59.6442	10,556	63.2627	10,556	63.7884	10,556	63.5144	10,556	58.5018	10,556	66.2538	10,556	62.953	10,556	55.0687	10,556	51.174	10,556	60.2715
10,928.5	75.0474	10,928.5	75.4204	10,928.5	77.4827	10,928.5	78.2954	10,928.5	80.2674	10,928.5	80.8068	10,928.5	81.1921	10,928.5	82.2492	10,928.5	81.3585	10,928.5	82.4062	10,928.5	81.1364	10,928.5	81.3977	10,928.5	80.1799	10,928.5	80.1204	10,928.5	78.9452	10,928.5	78.303	10,928.5	76.7272	10,928.5	75.5838	10,928.5	72.8729	10,928.5	74.6979	10,928.5	72.324	10,928.5	72.9215	10,928.5	70.2216	10,928.5	69.2794	10,928.5	68.5971	10,928.5	66.8346	10,928.5	65.2431	10,928.5	65.2909	10,928.5	62.1012	10,928.5	64.3966	10,928.5	61.6468	10,928.5	67.0476	10,928.5	64.7054	10,928.5	50.8858	10,928.5	57.9587	10,928.5	61.3958
11,313.7	79.3301	11,313.7	79.2568	11,313.7	80.3211	11,313.7	80.9232	11,313.7	81.5454	11,313.7	82.4599	11,313.7	82.1242	11,313.7	82.8922	11,313.7	82.0522	11,313.7	82.6732	11,313.7	81.2493	11,313.7	81.6868	11,313.7	79.9814	11,313.7	80.0566	11,313.7	78.7115	11,313.7	78.2174	11,313.7	76.5335	11,313.7	75.3609	11,313.7	72.96	11,313.7	72.5576	11,313.7	72.4205	11,313.7	70.1731	11,313.7	69.5808	11,313.7	65.8536	11,313.7	66.8087	11,313.7	64.4786	11,313.7	62.8573	11,313.7	61.499	11,313.7	61.3878	11,313.7	62.6696	11,313.7	60.6433	11,313.7	65.4178	11,313.7	63.9529	11,313.7	56.0177	11,313.7	55.4814	11,313.7	57.9104
11,712.5	83.4296	11,712.5	83.7095	11,712.5	84.0431	11,712.5	84.5237	11,712.5	84.7913	11,712.5	85.1536	11,712.5	84.6011	11,712.5	85.2277	11,712.5	83.1663	11,712.5	84.172	11,712.5	81.0532	11,712.5	81.9197	11,712.5	78.9941	11,712.5	79.9034	11,712.5	77.1864	11,712.5	78.475	11,712.5	74.9344	11,712.5	76.3358	11,712.5	72.089	11,712.5	74.2103	11,712.5	70.5336	11,712.5	72.0254	11,712.5	66.8237	11,712.5	68.6144	11,712.5	64.1395	11,712.5	64.4735	11,712.5	61.637	11,712.5	63.0275	11,712.5	60.6186	11,712.5	62.4749	11,712.5	56.409	11,712.5	65.8708	11,712.5	61.2885	11,712.5	53.1924	11,712.5	52.4383	11,712.5	58.3413
12,125.6	80.5043	12,125.6	80.4443	12,125.6	81.1347	12,125.6	81.0438	12,125.6	82.4176	12,125.6	81.6901	12,125.6	82.9421	12,125.6	82.2527	12,125.6	81.6928	12,125.6	82.2868	12,125.6	79.2515	12,125.6	80.6291	12,125.6	76.6156	12,125.6	77.2647	12,125.6	73.6697	12,125.6	74.8719	12,125.6	70.6116	12,125.6	73.498	12,125.6	67.0113	12,125.6	71.2385	12,125.6	65.7398	12,125.6	69.0092	12,125.6	64.0643	12,125.6	64.8206	12,125.6	58.7231	12,125.6	63.8527	12,125.6	54.9367	12,125.6	59.5689	12,125.6	54.2384	12,125.6	58.7597	12,125.6	53.6011	12,125.6	59.8904	12,125.6	53.4676	12,125.6	53.0544	12,125.6	52.9757	12,125.6	39.5097
12,553.3	79.9191	12,553.3	79.2309	12,553.3	78.0247	12,553.3	77.9888	12,553.3	76.0942	12,553.3	78.6948	12,553.3	77.4865	12,553.3	78.271	12,553.3	78.5089	12,553.3	76.3718	12,553.3	76.5061	12,553.3	75.618	12,553.3	72.743	12,553.3	73.6135	12,553.3	69.3529	12,553.3	68.7608	12,553.3	64.9667	12,553.3	66.7296	12,553.3	61.3307	12,553.3	66.0251	12,553.3	62.7731	12,553.3	62.3042	12,553.3	56.5511	12,553.3	60.1252	12,553.3	56.8561	12,553.3	60.9089	12,553.3	42.9372	12,553.3	59.3548	12,553.3	55.4951	12,553.3	52.9682	12,553.3	47.5534	12,553.3	58.093	12,553.3	52.9411	12,553.3	45.028	12,553.3	50.3872	12,553.3	53.9222
12,996.1	75.9987	12,996.1	77.5894	12,996.1	75.5971	12,996.1	80.0593	12,996.1	78.0852	12,996.1	81.3962	12,996.1	79.6452	12,996.1	80.8331	12,996.1	78.6636	12,996.1	78.7824	12,996.1	76.457	12,996.1	76.2718	12,996.1	75.141	12,996.1	73.0108	12,996.1	73.5724	12,996.1	68.6941	12,996.1	69.2637	12,996.1	65.6136	12,996.1	65.735	12,996.1	63.5914	12,996.1	64.119	12,996.1	62.0014	12,996.1	60.7634	12,996.1	60.5515	12,996.1	55.0617	12,996.1	53.2482	12,996.1	55.2733	12,996.1	56.3239	12,996.1	53.4936	12,996.1	49.7941	12,996.1	51.6415	12,996.1	56.8481	12,996.1	52.9063	12,996.1	17.4452	12,996.1	57.1258	12,996.1	55.9917
13,454.2	77.192	13,454.2	77.2266	13,454.2	79.0975	13,454.2	79.4134	13,454.2	79.5077	13,454.2	80.36	13,454.2	77.3989	13,454.2	79.46	13,454.2	75.6497	13,454.2	76.9051	13,454.2	76.3274	13,454.2	73.8009	13,454.2	76.258	13,454.2	71.9434	13,454.2	72.6784	13,454.2	69.7978	13,454.2	67.5849	13,454.2	65.7804	13,454.2	64.9876	13,454.2	64.6482	13,454.2	63.9587	13,454.2	58.7019	13,454.2	61.7609	13,454.2	58.6145	13,454.2	58.2598	13,454.2	53.335	13,454.2	58.0549	13,454.2	58.1906	13,454.2	59.565	13,454.2	49.3848	13,454.2	56.4068	13,454.2	59.3207	13,454.2	52.3477	13,454.2	42.3906	13,454.2	54.375	13,454.2	58.7746
13,928.8	79.6025	13,928.8	77.6617	13,928.8	80.2544	13,928.8	77.3695	13,928.8	79.8478	13,928.8	78.5354	13,928.8	78.299	13,928.8	78.5077	13,928.8	76.8484	13,928.8	77.2772	13,928.8	76.3423	13,928.8	74.631	13,928.8	74.4708	13,928.8	70.6791	13,928.8	70.1091	13,928.8	65.7673	13,928.8	67.0717	13,928.8	62.6092	13,928.8	63.0196	13,928.8	61.7242	13,928.8	59.807	13,928.8	60.4849	13,928.8	59.5754	13,928.8	57.4064	13,928.8	54.1322	13,928.8	58.6461	13,928.8	56.3502	13,928.8	57.6637	13,928.8	54.9842	13,928.8	53.3945	13,928.8	54.1997	13,928.8	56.956	13,928.8	49.8068	13,928.8	52.3029	13,928.8	49.1469	13,928.8	56.1398
14,419.9	81.6491	14,419.9	79.9137	14,419.9	81.4328	14,419.9	78.0277	14,419.9	80.4942	14,419.9	78.4596	14,419.9	79.636	14,419.9	78.6936	14,419.9	78.4413	14,419.9	77.3074	14,419.9	76.503	14,419.9	74.5225	14,419.9	73.638	14,419.9	71.279	14,419.9	69.4547	14,419.9	68.7485	14,419.9	64.2948	14,419.9	65.9041	14,419.9	59.8188	14,419.9	63.4083	14,419.9	56.8513	14,419.9	61.4445	14,419.9	53.8361	14,419.9	58.2566	14,419.9	51.6017	14,419.9	59.0985	14,419.9	50.2728	14,419.9	54.2855	14,419.9	50.9997	14,419.9	52.4461	14,419.9	48.1775	14,419.9	53.3318	14,419.9	44.2935	14,419.9	49.1322	14,419.9	44.6385	14,419.9	50.2195
14,928.6	77.3557	14,928.6	76.4141	14,928.6	76.6659	14,928.6	74.4865	14,928.6	75.4133	14,928.6	74.3124	14,928.6	75.2874	14,928.6	75.6513	14,928.6	75.617	14,928.6	75.7643	14,928.6	74.6038	14,928.6	74.0289	14,928.6	71.756	14,928.6	70.7841	14,928.6	67.9253	14,928.6	66.7429	14,928.6	63.354	14,928.6	63.7928	14,928.6	54.8095	14,928.6	61.222	14,928.6	52.9897	14,928.6	56.6837	14,928.6	47.6869	14,928.6	53.389	14,928.6	43.5745	14,928.6	52.7617	14,928.6	45.1569	14,928.6	51.4544	14,928.6	39.0841	14,928.6	47.3643	14,928.6	33.9904	14,928.6	48.6931	14,928.6	45.9631	14,928.6	38.1013	14,928.6	43.8769	14,928.6	41.2232
15,454.8	74.2201	15,454.8	73.5261	15,454.8	73.6183	15,454.8	72.0967	15,454.8	73.6081	15,454.8	70.1374	15,454.8	74.0058	15,454.8	68.9086	15,454.8	72.0573	15,454.8	68.5736	15,454.8	69.2876	15,454.8	67.7243	15,454.8	67.2674	15,454.8	65.081	15,454.8	63.8752	15,454.8	62.0188	15,454.8	58.7079	15,454.8	60.7062	15,454.8	48.5105	15,454.8	55.7397	15,454.8	45.5691	15,454.8	54.3399	15,454.8	37.9272	15,454.8	52.6341	15,454.8	42.4437	15,454.8	53.3096	15,454.8	40.3944	15,454.8	53.1525	15,454.8	37.6995	15,454.8	51.0312	15,454.8	50.2789	15,454.8	50.643	15,454.8	41.3633	15,454.8	47.262	15,454.8	47.4065	15,454.8	43.1929
16,000.1	79.5009	16,000.1	77.6813	16,000.1	79.2054	16,000.1	75.3324	16,000.1	77.8337	16,000.1	75.3142	16,000.1	77.0795	16,000.1	75.4304	16,000.1	76.4072	16,000.1	74.3319	16,000.1	74.2347	16,000.1	72.311	16,000.1	70.08	16,000.1	68.9159	16,000.1	63.1753	16,000.1	65.6327	16,000.1	54.5456	16,000.1	62.5192	16,000.1	52.2902	16,000.1	56.5961	16,000.1	51.1374	16,000.1	54.0992	16,000.1	44.327	16,000.1	51.9598	16,000.1	36.6769	16,000.1	53.4907	16,000.1	38.9076	16,000.1	47.7645	16,000.1	47.9075	16,000.1	47.0711	16,000.1	43.3085	16,000.1	47.5746	16,000.1	44.6631	16,000.1	41.8307	16,000.1	41.5666	16,000.1	42.0678
16,564.1	78.1526	16,564.1	77.1668	16,564.1	77.416	16,564.1	75.4582	16,564.1	75.9496	16,564.1	73.5566	16,564.1	75.9038	16,564.1	71.9091	16,564.1	75.3521	16,564.1	70.448	16,564.1	73.0169	16,564.1	68.1606	16,564.1	68.8112	16,564.1	65.9375	16,564.1	62.1623	16,564.1	62.3841	16,564.1	54.1457	16,564.1	55.4471	16,564.1	52.3891	16,564.1	51.0007	16,564.1	54.5154	16,564.1	38.1572	16,564.1	52.8173	16,564.1	48.4856	16,564.1	48.7096	16,564.1	47.0624	16,564.1	47.6829	16,564.1	45.2062	16,564.1	37.3031	16,564.1	42.7784	16,564.1	50.5818	16,564.1	42.1543	16,564.1	44.6046	16,564.1	46.0728	16,564.1	39.6487	16,564.1	39.678
17,148.2	71.6322	17,148.2	72.0981	17,148.2	71.4156	17,148.2	70.0028	17,148.2	72.6239	17,148.2	65.976	17,148.2	71.2352	17,148.2	63.2888	17,148.2	67.5051	17,148.2	61.6049	17,148.2	65.9431	17,148.2	59.8415	17,148.2	66.1349	17,148.2	57.4597	17,148.2	63.7157	17,148.2	54.2199	17,148.2	59.5731	17,148.2	52.786	17,148.2	55.9564	17,148.2	38.3083	17,148.2	51.3317	17,148.2	42.9453	17,148.2	49.7184	17,148.2	36.7585	17,148.2	33.9777	17,148.2	44.6603	17,148.2	45.3591	17,148.2	37.7913	17,148.2	40.0557	17,148.2	38.1591	17,148.2	36.863	17,148.2	44.7638	17,148.2	44.3276	17,148.2	21.8451	17,148.2	42.6398	17,148.2	44.2715
17,753.2	68.287	17,753.2	68.8004	17,753.2	66.2175	17,753.2	64.4007	17,753.2	66.0868	17,753.2	62.2429	17,753.2	64.1084	17,753.2	54.579	17,753.2	63.6278	17,753.2	54.0809	17,753.2	63.7967	17,753.2	57.9734	17,753.2	60.2387	17,753.2	55.3746	17,753.2	57.9687	17,753.2	54.0013	17,753.2	56.4797	17,753.2	51.6676	17,753.2	50.2109	17,753.2	48.2518	17,753.2	52.9874	17,753.2	42.1059	17,753.2	46.1751	17,753.2	44.8734	17,753.2	48.9127	17,753.2	40.1587	17,753.2	38.7908	17,753.2	44.1598	17,753.2	48.8903	17,753.2	36.1989	17,753.2	46.5146	17,753.2	44.5427	17,753.2	45.9226	17,753.2	43.2042	17,753.2	43.643	17,753.2	43.2349
18,379	70.1786	18,379	69.1205	18,379	69.7562	18,379	65.8284	18,379	70.2187	18,379	63.1922	18,379	69.2912	18,379	61.5243	18,379	65.401	18,379	60.1292	18,379	63.5931	18,379	60.6908	18,379	61.574	18,379	59.5037	18,379	58.2963	18,379	56.7932	18,379	58.6374	18,379	55.5841	18,379	53.5894	18,379	49.9335	18,379	53.4089	18,379	47.8889	18,379	46.0018	18,379	48.0755	18,379	49.4786	18,379	36.9587	18,379	46.6912	18,379	38.8347	18,379	50.2555	18,379	41.1201	18,379	47.0715	18,379	44.624	18,379	40.1726	18,379	46.186	18,379	46.202	18,379	39.1106
19,027.2	68.9981	19,027.2	66.0154	19,027.2	69.9735	19,027.2	62.6376	19,027.2	69.6027	19,027.2	64.0994	19,027.2	67.6579	19,027.2	63.3624	19,027.2	64.6148	19,027.2	59.8571	19,027.2	62.503	19,027.2	62.0761	19,027.2	62.3833	19,027.2	60.3662	19,027.2	63.3522	19,027.2	61.8841	19,027.2	60.0539	19,027.2	59.4711	19,027.2	55.617	19,027.2	57.0238	19,027.2	54.5966	19,027.2	51.0739	19,027.2	51.3472	19,027.2	54.1337	19,027.2	49.7967	19,027.2	44.7968	19,027.2	48.0285	19,027.2	51.0266	19,027.2	50.1166	19,027.2	32.9788	19,027.2	48.7133	19,027.2	46.6076	19,027.2	42.9273	19,027.2	30.984	19,027.2	43.9631	19,027.2	42.9636
19,698.5	55.9945	19,698.5	49.352	19,698.5	59.742	19,698.5	48.5219	19,698.5	61.1642	19,698.5	51.3096	19,698.5	60.0184	19,698.5	53.6647	19,698.5	52.1058	19,698.5	41.4785	19,698.5	46.5051	19,698.5	45.2379	19,698.5	52.0141	19,698.5	50.1216	19,698.5	56.4223	19,698.5	52.8376	19,698.5	52.7936	19,698.5	49.2921	19,698.5	45.7397	19,698.5	49.5942	19,698.5	49.9069	19,698.5	42.2086	19,698.5	44.9828	19,698.5	48.7904	19,698.5	45.4927	19,698.5	43.1427	19,698.5	44.003	19,698.5	48.6697	19,698.5	44.2541	19,698.5	36.5395	19,698.5	41.83	19,698.5	34.9076	19,698.5	32.2224	19,698.5	35.7628	19,698.5	40.0167	19,698.5	22.2734
19,999.9	53.371	19,999.9	57.2315	19,999.9	60.2469	19,999.9	57.9093	19,999.9	64.7295	19,999.9	53.6239	19,999.9	64.3821	19,999.9	57.9209	19,999.9	53.8059	19,999.9	47.9859	19,999.9	50.6835	19,999.9	41.7765	19,999.9	51.9672	19,999.9	60.58	19,999.9	55.0863	19,999.9	61.9494	19,999.9	44.9319	19,999.9	54.4854	19,999.9	54.6203	19,999.9	62.0877	19,999.9	47.4253	19,999.9	59.4926	19,999.9	49.0184	19,999.9	49.4237	19,999.9	47.3135	19,999.9	52.5567	19,999.9	44.6616	19,999.9	53.3963	19,999.9	44.8092	19,999.9	44.442	19,999.9	51.802	19,999.9	49.2397	19,999.9	38.2481	19,999.9	51.6486	19,999.9	51.9158	19,999.9	38.8152
