"SPL Vertical"
"On-Axis"		"10°"		"-10°"		"20°"		"-20°"		"30°"		"-30°"		"40°"		"-40°"		"50°"		"-50°"		"60°"		"-60°"		"70°"		"-70°"		"80°"		"-80°"		"90°"		"-90°"		"100°"		"-100°"		"110°"		"-110°"		"120°"		"-120°"		"130°"		"-130°"		"140°"		"-140°"		"150°"		"-150°"		"160°"		"-160°"		"170°"		"-170°"		"180°"
"Frequency / Hz"	"Sound Pressure Level / dB (re 20 µPa/V)  [2.83  V @ 1. m]"	"Frequency / Hz"	"Sound Pressure Level / dB (re 20 µPa/V)  [2.83  V @ 1. m]"	"Frequency / Hz"	"Sound Pressure Level / dB (re 20 µPa/V)  [2.83  V @ 1. m]"	"Frequency / Hz"	"Sound Pressure Level / dB (re 20 µPa/V)  [2.83  V @ 1. m]"	"Frequency / Hz"	"Sound Pressure Level / dB (re 20 µPa/V)  [2.83  V @ 1. m]"	"Frequency / Hz"	"Sound Pressure Level / dB (re 20 µPa/V)  [2.83  V @ 1. m]"	"Frequency / Hz"	"Sound Pressure Level / dB (re 20 µPa/V)  [2.83  V @ 1. m]"	"Frequency / Hz"	"Sound Pressure Level / dB (re 20 µPa/V)  [2.83  V @ 1. m]"	"Frequency / Hz"	"Sound Pressure Level / dB (re 20 µPa/V)  [2.83  V @ 1. m]"	"Frequency / Hz"	"Sound Pressure Level / dB (re 20 µPa/V)  [2.83  V @ 1. m]"	"Frequency / Hz"	"Sound Pressure Level / dB (re 20 µPa/V)  [2.83  V @ 1. m]"	"Frequency / Hz"	"Sound Pressure Level / dB (re 20 µPa/V)  [2.83  V @ 1. m]"	"Frequency / Hz"	"Sound Pressure Level / dB (re 20 µPa/V)  [2.83  V @ 1. m]"	"Frequency / Hz"	"Sound Pressure Level / dB (re 20 µPa/V)  [2.83  V @ 1. m]"	"Frequency / Hz"	"Sound Pressure Level / dB (re 20 µPa/V)  [2.83  V @ 1. m]"	"Frequency / Hz"	"Sound Pressure Level / dB (re 20 µPa/V)  [2.83  V @ 1. m]"	"Frequency / Hz"	"Sound Pressure Level / dB (re 20 µPa/V)  [2.83  V @ 1. m]"	"Frequency / Hz"	"Sound Pressure Level / dB (re 20 µPa/V)  [2.83  V @ 1. m]"	"Frequency / Hz"	"Sound Pressure Level / dB (re 20 µPa/V)  [2.83  V @ 1. m]"	"Frequency / Hz"	"Sound Pressure Level / dB (re 20 µPa/V)  [2.83  V @ 1. m]"	"Frequency / Hz"	"Sound Pressure Level / dB (re 20 µPa/V)  [2.83  V @ 1. m]"	"Frequency / Hz"	"Sound Pressure Level / dB (re 20 µPa/V)  [2.83  V @ 1. m]"	"Frequency / Hz"	"Sound Pressure Level / dB (re 20 µPa/V)  [2.83  V @ 1. m]"	"Frequency / Hz"	"Sound Pressure Level / dB (re 20 µPa/V)  [2.83  V @ 1. m]"	"Frequency / Hz"	"Sound Pressure Level / dB (re 20 µPa/V)  [2.83  V @ 1. m]"	"Frequency / Hz"	"Sound Pressure Level / dB (re 20 µPa/V)  [2.83  V @ 1. m]"	"Frequency / Hz"	"Sound Pressure Level / dB (re 20 µPa/V)  [2.83  V @ 1. m]"	"Frequency / Hz"	"Sound Pressure Level / dB (re 20 µPa/V)  [2.83  V @ 1. m]"	"Frequency / Hz"	"Sound Pressure Level / dB (re 20 µPa/V)  [2.83  V @ 1. m]"	"Frequency / Hz"	"Sound Pressure Level / dB (re 20 µPa/V)  [2.83  V @ 1. m]"	"Frequency / Hz"	"Sound Pressure Level / dB (re 20 µPa/V)  [2.83  V @ 1. m]"	"Frequency / Hz"	"Sound Pressure Level / dB (re 20 µPa/V)  [2.83  V @ 1. m]"	"Frequency / Hz"	"Sound Pressure Level / dB (re 20 µPa/V)  [2.83  V @ 1. m]"	"Frequency / Hz"	"Sound Pressure Level / dB (re 20 µPa/V)  [2.83  V @ 1. m]"	"Frequency / Hz"	"Sound Pressure Level / dB (re 20 µPa/V)  [2.83  V @ 1. m]"	"Frequency / Hz"	"Sound Pressure Level / dB (re 20 µPa/V)  [2.83  V @ 1. m]"
20.5078	36.5312	20.5078	36.528	20.5078	36.5434	20.5078	36.5341	20.5078	36.5634	20.5078	36.5487	20.5078	36.5897	20.5078	36.5706	20.5078	36.6202	20.5078	36.5977	20.5078	36.6529	20.5078	36.628	20.5078	36.6859	20.5078	36.6593	20.5078	36.7177	20.5078	36.6898	20.5078	36.7473	20.5078	36.7181	20.5078	36.7741	20.5078	36.7434	20.5078	36.7978	20.5078	36.7654	20.5078	36.818	20.5078	36.7844	20.5078	36.8348	20.5078	36.8006	20.5078	36.8478	20.5078	36.8148	20.5078	36.857	20.5078	36.8274	20.5078	36.8622	20.5078	36.8386	20.5078	36.8636	20.5078	36.8483	20.5078	36.8614	20.5078	36.8561
21.9727	36.3736	21.9727	36.367	21.9727	36.3889	21.9727	36.3694	21.9727	36.4121	21.9727	36.3804	21.9727	36.4418	21.9727	36.399	21.9727	36.4761	21.9727	36.4238	21.9727	36.5131	21.9727	36.4533	21.9727	36.5508	21.9727	36.4856	21.9727	36.5873	21.9727	36.5192	21.9727	36.6211	21.9727	36.5525	21.9727	36.6511	21.9727	36.5841	21.9727	36.6765	21.9727	36.6131	21.9727	36.6968	21.9727	36.6388	21.9727	36.7122	21.9727	36.6608	21.9727	36.7229	21.9727	36.6791	21.9727	36.7292	21.9727	36.6941	21.9727	36.7318	21.9727	36.7062	21.9727	36.7313	21.9727	36.7157	21.9727	36.7283	21.9727	36.723
23.4375	33.2812	23.4375	33.2844	23.4375	33.2627	23.4375	33.2724	23.4375	33.2292	23.4375	33.2457	23.4375	33.1811	23.4375	33.2047	23.4375	33.1192	23.4375	33.1504	23.4375	33.0446	23.4375	33.0842	23.4375	32.9591	23.4375	33.0078	23.4375	32.8649	23.4375	32.9232	23.4375	32.7649	23.4375	32.8328	23.4375	32.6628	23.4375	32.7394	23.4375	32.5624	23.4375	32.6457	23.4375	32.468	23.4375	32.5548	23.4375	32.3832	23.4375	32.4693	23.4375	32.3115	23.4375	32.3918	23.4375	32.2552	23.4375	32.3246	23.4375	32.2158	23.4375	32.2694	23.4375	32.1937	23.4375	32.2276	23.4375	32.1888	23.4375	32.2004
24.9023	38.1501	24.9023	38.1401	24.9023	38.1632	24.9023	38.1339	24.9023	38.179	24.9023	38.1318	24.9023	38.197	24.9023	38.1343	24.9023	38.2168	24.9023	38.1418	24.9023	38.2381	24.9023	38.1541	24.9023	38.2607	24.9023	38.1711	24.9023	38.2844	24.9023	38.1926	24.9023	38.309	24.9023	38.2179	24.9023	38.3341	24.9023	38.2464	24.9023	38.3592	24.9023	38.2773	24.9023	38.3838	24.9023	38.3094	24.9023	38.407	24.9023	38.3417	24.9023	38.4277	24.9023	38.3728	24.9023	38.445	24.9023	38.4013	24.9023	38.4575	24.9023	38.4258	24.9023	38.4644	24.9023	38.4451	24.9023	38.4647	24.9023	38.4583
26.3672	38.1487	26.3672	38.1688	26.3672	38.1192	26.3672	38.1796	26.3672	38.0809	26.3672	38.1815	26.3672	38.0344	26.3672	38.175	26.3672	37.9811	26.3672	38.1608	26.3672	37.9225	26.3672	38.1397	26.3672	37.8603	26.3672	38.1122	26.3672	37.7965	26.3672	38.0788	26.3672	37.7331	26.3672	38.0399	26.3672	37.6724	26.3672	37.9958	26.3672	37.6165	26.3672	37.9469	26.3672	37.5679	26.3672	37.8937	26.3672	37.5285	26.3672	37.837	26.3672	37.5006	26.3672	37.7781	26.3672	37.4856	26.3672	37.7186	26.3672	37.4843	26.3672	37.6608	26.3672	37.497	26.3672	37.6072	26.3672	37.5229	26.3672	37.5603
27.832	41.4949	27.832	41.5016	27.832	41.499	27.832	41.5183	27.832	41.5138	27.832	41.5445	27.832	41.5393	27.832	41.5791	27.832	41.5749	27.832	41.6214	27.832	41.6197	27.832	41.6703	27.832	41.6725	27.832	41.7249	27.832	41.732	27.832	41.7843	27.832	41.7968	27.832	41.8475	27.832	41.8653	27.832	41.9133	27.832	41.9356	27.832	41.98	27.832	42.0059	27.832	42.046	27.832	42.0738	27.832	42.1091	27.832	42.1368	27.832	42.1667	27.832	42.1924	27.832	42.2162	27.832	42.2378	27.832	42.2552	27.832	42.2708	27.832	42.2814	27.832	42.2896	27.832	42.2932
29.2969	41.7649	29.2969	41.7802	29.2969	41.7473	29.2969	41.7927	29.2969	41.7277	29.2969	41.8018	29.2969	41.7068	29.2969	41.8074	29.2969	41.6849	29.2969	41.8094	29.2969	41.6626	29.2969	41.8076	29.2969	41.6404	29.2969	41.8023	29.2969	41.619	29.2969	41.7939	29.2969	41.5991	29.2969	41.7827	29.2969	41.5814	29.2969	41.7692	29.2969	41.5669	29.2969	41.7537	29.2969	41.5563	29.2969	41.7365	29.2969	41.5503	29.2969	41.718	29.2969	41.5496	29.2969	41.6984	29.2969	41.5541	29.2969	41.6778	29.2969	41.5635	29.2969	41.6565	29.2969	41.5773	29.2969	41.6351	29.2969	41.5945	29.2969	41.6141
30.7617	42.5495	30.7617	42.5313	30.7617	42.5647	30.7617	42.5108	30.7617	42.5763	30.7617	42.4888	30.7617	42.5837	30.7617	42.466	30.7617	42.5865	30.7617	42.443	30.7617	42.5846	30.7617	42.4202	30.7617	42.578	30.7617	42.398	30.7617	42.5668	30.7617	42.3765	30.7617	42.5511	30.7617	42.356	30.7617	42.5315	30.7617	42.3369	30.7617	42.5083	30.7617	42.3195	30.7617	42.4823	30.7617	42.3045	30.7617	42.4542	30.7617	42.2926	30.7617	42.4251	30.7617	42.2846	30.7617	42.396	30.7617	42.2811	30.7617	42.368	30.7617	42.2828	30.7617	42.3424	30.7617	42.2899	30.7617	42.3203	30.7617	42.3026
32.2266	43.6311	32.2266	43.6358	32.2266	43.6229	32.2266	43.6372	32.2266	43.6113	32.2266	43.6353	32.2266	43.5963	32.2266	43.6301	32.2266	43.578	32.2266	43.6217	32.2266	43.5567	32.2266	43.6101	32.2266	43.5326	32.2266	43.5954	32.2266	43.5062	32.2266	43.5777	32.2266	43.4783	32.2266	43.5572	32.2266	43.4497	32.2266	43.5342	32.2266	43.4214	32.2266	43.5092	32.2266	43.3948	32.2266	43.4827	32.2266	43.3711	32.2266	43.4554	32.2266	43.3515	32.2266	43.4283	32.2266	43.3371	32.2266	43.4023	32.2266	43.3288	32.2266	43.3785	32.2266	43.3269	32.2266	43.3581	32.2266	43.3314	32.2266	43.342
33.6914	45.0783	33.6914	45.0713	33.6914	45.0849	33.6914	45.0643	33.6914	45.0909	33.6914	45.0575	33.6914	45.0961	33.6914	45.0512	33.6914	45.1006	33.6914	45.0457	33.6914	45.1041	33.6914	45.0413	33.6914	45.1069	33.6914	45.038	33.6914	45.109	33.6914	45.0359	33.6914	45.1102	33.6914	45.035	33.6914	45.1108	33.6914	45.0355	33.6914	45.1107	33.6914	45.0372	33.6914	45.1097	33.6914	45.0402	33.6914	45.1079	33.6914	45.0444	33.6914	45.1052	33.6914	45.0497	33.6914	45.1014	33.6914	45.0559	33.6914	45.0967	33.6914	45.0628	33.6914	45.091	33.6914	45.0701	33.6914	45.0845	33.6914	45.0774
35.1562	45.7093	35.1562	45.7043	35.1562	45.7132	35.1562	45.6986	35.1562	45.7158	35.1562	45.6926	35.1562	45.7169	35.1562	45.6865	35.1562	45.7162	35.1562	45.6807	35.1562	45.7138	35.1562	45.6754	35.1562	45.7098	35.1562	45.6708	35.1562	45.7046	35.1562	45.667	35.1562	45.6984	35.1562	45.6642	35.1562	45.6919	35.1562	45.6623	35.1562	45.6856	35.1562	45.6613	35.1562	45.6799	35.1562	45.6612	35.1562	45.6752	35.1562	45.6618	35.1562	45.6717	35.1562	45.6629	35.1562	45.6694	35.1562	45.6642	35.1562	45.6682	35.1562	45.6654	35.1562	45.6676	35.1562	45.6664	35.1562	45.6674	35.1562	45.667
36.6211	47.3421	36.6211	47.3372	36.6211	47.3417	36.6211	47.3273	36.6211	47.336	36.6211	47.3127	36.6211	47.3252	36.6211	47.2941	36.6211	47.3097	36.6211	47.2721	36.6211	47.2901	36.6211	47.2474	36.6211	47.2671	36.6211	47.2208	36.6211	47.2414	36.6211	47.1931	36.6211	47.2139	36.6211	47.165	36.6211	47.1854	36.6211	47.1372	36.6211	47.1568	36.6211	47.1107	36.6211	47.129	36.6211	47.0861	36.6211	47.1028	36.6211	47.0643	36.6211	47.0789	36.6211	47.0458	36.6211	47.0581	36.6211	47.0313	36.6211	47.0408	36.6211	47.0211	36.6211	47.0277	36.6211	47.0156	36.6211	47.0189	36.6211	47.0149
38.0859	47.6293	38.0859	47.6303	38.0859	47.6264	38.0859	47.6291	38.0859	47.6215	38.0859	47.626	38.0859	47.615	38.0859	47.6208	38.0859	47.6072	38.0859	47.614	38.0859	47.5982	38.0859	47.6057	38.0859	47.5884	38.0859	47.5963	38.0859	47.5782	38.0859	47.5862	38.0859	47.5679	38.0859	47.5757	38.0859	47.5579	38.0859	47.5653	38.0859	47.5486	38.0859	47.5555	38.0859	47.5402	38.0859	47.5464	38.0859	47.533	38.0859	47.5384	38.0859	47.5271	38.0859	47.5317	38.0859	47.5226	38.0859	47.5262	38.0859	47.5194	38.0859	47.5221	38.0859	47.5176	38.0859	47.5192	38.0859	47.517	38.0859	47.5175
39.5508	49.0235	39.5508	49.0221	39.5508	49.0278	39.5508	49.0239	39.5508	49.0347	39.5508	49.0289	39.5508	49.0438	39.5508	49.0367	39.5508	49.0546	39.5508	49.0472	39.5508	49.0664	39.5508	49.0599	39.5508	49.0789	39.5508	49.0742	39.5508	49.0916	39.5508	49.0895	39.5508	49.1043	39.5508	49.1053	39.5508	49.1166	39.5508	49.121	39.5508	49.1284	39.5508	49.1361	39.5508	49.1397	39.5508	49.1501	39.5508	49.1504	39.5508	49.1625	39.5508	49.1603	39.5508	49.1729	39.5508	49.1692	39.5508	49.1811	39.5508	49.177	39.5508	49.1866	39.5508	49.1832	39.5508	49.1896	39.5508	49.1876	39.5508	49.1898
41.0156	49.2717	41.0156	49.2594	41.0156	49.2795	41.0156	49.243	41.0156	49.2826	41.0156	49.2228	41.0156	49.2807	41.0156	49.1993	41.0156	49.2737	41.0156	49.173	41.0156	49.2617	41.0156	49.1443	41.0156	49.2447	41.0156	49.1139	41.0156	49.223	41.0156	49.0826	41.0156	49.1972	41.0156	49.051	41.0156	49.1677	41.0156	49.0202	41.0156	49.1354	41.0156	48.991	41.0156	49.1013	41.0156	48.9646	41.0156	49.0664	41.0156	48.9417	41.0156	49.0321	41.0156	48.9236	41.0156	48.9996	41.0156	48.9109	41.0156	48.9702	41.0156	48.9045	41.0156	48.9451	41.0156	48.9047	41.0156	48.9254	41.0156	48.9117
42.4805	50.2209	42.4805	50.1986	42.4805	50.2434	42.4805	50.1769	42.4805	50.2655	42.4805	50.1558	42.4805	50.2866	42.4805	50.1355	42.4805	50.306	42.4805	50.1162	42.4805	50.3228	42.4805	50.098	42.4805	50.3362	42.4805	50.0811	42.4805	50.3453	42.4805	50.066	42.4805	50.3494	42.4805	50.0531	42.4805	50.3481	42.4805	50.0431	42.4805	50.3411	42.4805	50.0366	42.4805	50.3281	42.4805	50.0345	42.4805	50.3096	42.4805	50.0372	42.4805	50.2859	42.4805	50.0454	42.4805	50.2581	42.4805	50.0591	42.4805	50.2272	42.4805	50.0783	42.4805	50.1946	42.4805	50.1024	42.4805	50.1619	42.4805	50.1307
43.9453	51.1863	43.9453	51.1803	43.9453	51.1867	43.9453	51.1689	43.9453	51.1818	43.9453	51.1522	43.9453	51.1718	43.9453	51.1308	43.9453	51.1571	43.9453	51.1053	43.9453	51.1382	43.9453	51.0764	43.9453	51.1157	43.9453	51.0449	43.9453	51.0901	43.9453	51.0119	43.9453	51.0621	43.9453	50.9781	43.9453	51.0322	43.9453	50.9448	43.9453	51.001	43.9453	50.9128	43.9453	50.9693	43.9453	50.8833	43.9453	50.9379	43.9453	50.8572	43.9453	50.9076	43.9453	50.8356	43.9453	50.8794	43.9453	50.8194	43.9453	50.8544	43.9453	50.8092	43.9453	50.8337	43.9453	50.8055	43.9453	50.8181	43.9453	50.8086
45.4102	51.4217	45.4102	51.4208	45.4102	51.421	45.4102	51.4179	45.4102	51.4187	45.4102	51.413	45.4102	51.4152	45.4102	51.4061	45.4102	51.4108	45.4102	51.3972	45.4102	51.4057	45.4102	51.3865	45.4102	51.4002	45.4102	51.3745	45.4102	51.3944	45.4102	51.3617	45.4102	51.3885	45.4102	51.3486	45.4102	51.3826	45.4102	51.3359	45.4102	51.3766	45.4102	51.3244	45.4102	51.3704	45.4102	51.3148	45.4102	51.3638	45.4102	51.3077	45.4102	51.3566	45.4102	51.3034	45.4102	51.3487	45.4102	51.3022	45.4102	51.3403	45.4102	51.304	45.4102	51.3315	45.4102	51.3084	45.4102	51.3229	45.4102	51.3149
46.875	52.6005	46.875	52.6062	46.875	52.59	46.875	52.6067	46.875	52.5748	46.875	52.6021	46.875	52.5554	46.875	52.5923	46.875	52.5323	46.875	52.5774	46.875	52.5059	46.875	52.5579	46.875	52.4769	46.875	52.5341	46.875	52.446	46.875	52.5065	46.875	52.4139	46.875	52.476	46.875	52.3816	46.875	52.4433	46.875	52.35	46.875	52.4094	46.875	52.32	46.875	52.3754	46.875	52.2927	46.875	52.3424	46.875	52.269	46.875	52.3117	46.875	52.2499	46.875	52.2843	46.875	52.2362	46.875	52.2614	46.875	52.2284	46.875	52.2438	46.875	52.227	46.875	52.2322
48.3398	53.3386	48.3398	53.3397	48.3398	53.3332	48.3398	53.3366	48.3398	53.3234	48.3398	53.3293	48.3398	53.3095	48.3398	53.3181	48.3398	53.2917	48.3398	53.3031	48.3398	53.2704	48.3398	53.2848	48.3398	53.2461	48.3398	53.2635	48.3398	53.2194	48.3398	53.2396	48.3398	53.1912	48.3398	53.2138	48.3398	53.1622	48.3398	53.1865	48.3398	53.1335	48.3398	53.1587	48.3398	53.1061	48.3398	53.1311	48.3398	53.0809	48.3398	53.1046	48.3398	53.0589	48.3398	53.0802	48.3398	53.0409	48.3398	53.0587	48.3398	53.0275	48.3398	53.0409	48.3398	53.0193	48.3398	53.0277	48.3398	53.0166	48.3398	53.0194
51.2695	55.0741	51.2695	55.0688	51.2695	55.0747	51.2695	55.059	51.2695	55.0706	51.2695	55.045	51.2695	55.0617	51.2695	55.0274	51.2695	55.0483	51.2695	55.0065	51.2695	55.0309	51.2695	54.9829	51.2695	55.0101	51.2695	54.9572	51.2695	54.9865	51.2695	54.93	51.2695	54.9609	51.2695	54.9022	51.2695	54.934	51.2695	54.8745	51.2695	54.9067	51.2695	54.8478	51.2695	54.8798	51.2695	54.8231	51.2695	54.8539	51.2695	54.8011	51.2695	54.8298	51.2695	54.7829	51.2695	54.808	51.2695	54.7689	51.2695	54.7893	51.2695	54.7598	51.2695	54.7742	51.2695	54.7558	51.2695	54.7633	51.2695	54.7571
52.7344	55.6912	52.7344	55.6932	52.7344	55.6861	52.7344	55.692	52.7344	55.678	52.7344	55.6875	52.7344	55.667	52.7344	55.68	52.7344	55.6535	52.7344	55.6696	52.7344	55.638	52.7344	55.6564	52.7344	55.6208	52.7344	55.6409	52.7344	55.6026	52.7344	55.6234	52.7344	55.5838	52.7344	55.6045	52.7344	55.5652	52.7344	55.5847	52.7344	55.5473	52.7344	55.5649	52.7344	55.5306	52.7344	55.5456	52.7344	55.5155	52.7344	55.5277	52.7344	55.5025	52.7344	55.5118	52.7344	55.4918	52.7344	55.4984	52.7344	55.4836	52.7344	55.4879	52.7344	55.4782	52.7344	55.4806	52.7344	55.4758	52.7344	55.4766
54.1992	56.216	54.1992	56.2194	54.1992	56.2076	54.1992	56.2178	54.1992	56.1943	54.1992	56.2111	54.1992	56.1765	54.1992	56.1995	54.1992	56.1545	54.1992	56.183	54.1992	56.1287	54.1992	56.162	54.1992	56.0998	54.1992	56.1367	54.1992	56.0684	54.1992	56.1078	54.1992	56.0355	54.1992	56.0758	54.1992	56.0018	54.1992	56.0416	54.1992	55.9684	54.1992	56.0062	54.1992	55.9364	54.1992	55.9708	54.1992	55.9067	54.1992	55.9367	54.1992	55.8803	54.1992	55.9053	54.1992	55.8583	54.1992	55.8777	54.1992	55.8415	54.1992	55.8553	54.1992	55.8308	54.1992	55.839	54.1992	55.8266	54.1992	55.8293
55.6641	56.9136	55.6641	56.9182	55.6641	56.9072	55.6641	56.9207	55.6641	56.8991	55.6641	56.9211	55.6641	56.8897	55.6641	56.9191	55.6641	56.8791	55.6641	56.9147	55.6641	56.8678	55.6641	56.9079	55.6641	56.8559	55.6641	56.8989	55.6641	56.844	55.6641	56.8879	55.6641	56.8322	55.6641	56.8752	55.6641	56.821	55.6641	56.8613	55.6641	56.8106	55.6641	56.8469	55.6641	56.8013	55.6641	56.8325	55.6641	56.7931	55.6641	56.8187	55.6641	56.7862	55.6641	56.8062	55.6641	56.7807	55.6641	56.7954	55.6641	56.7768	55.6641	56.7866	55.6641	56.7746	55.6641	56.7802	55.6641	56.7743	55.6641	56.7761
58.5938	58.2901	58.5938	58.2907	58.5938	58.2851	58.5938	58.2869	58.5938	58.2759	58.5938	58.2785	58.5938	58.2627	58.5938	58.2657	58.5938	58.246	58.5938	58.2487	58.5938	58.2261	58.5938	58.2278	58.5938	58.2037	58.5938	58.2035	58.5938	58.1794	58.5938	58.1765	58.5938	58.1539	58.5938	58.1477	58.5938	58.128	58.5938	58.1181	58.5938	58.1023	58.5938	58.0888	58.5938	58.0777	58.5938	58.0611	58.5938	58.0546	58.5938	58.036	58.5938	58.0335	58.5938	58.0145	58.5938	58.0151	58.5938	57.9975	58.5938	57.9998	58.5938	57.9855	58.5938	57.988	58.5938	57.9786	58.5938	57.9802	58.5938	57.977
60.0586	59.091	60.0586	59.0975	60.0586	59.0799	60.0586	59.099	60.0586	59.0644	60.0586	59.0952	60.0586	59.0451	60.0586	59.0861	60.0586	59.0225	60.0586	59.0718	60.0586	58.9972	60.0586	59.0525	60.0586	58.97	60.0586	59.0285	60.0586	58.9416	60.0586	59.0007	60.0586	58.9127	60.0586	58.9697	60.0586	58.8842	60.0586	58.9367	60.0586	58.8566	60.0586	58.9028	60.0586	58.8307	60.0586	58.8693	60.0586	58.807	60.0586	58.8375	60.0586	58.7862	60.0586	58.8088	60.0586	58.7687	60.0586	58.7844	60.0586	58.7551	60.0586	58.765	60.0586	58.7461	60.0586	58.7514	60.0586	58.7421	60.0586	58.7438
62.9883	59.9396	62.9883	59.9447	62.9883	59.9287	62.9883	59.9438	62.9883	59.9122	62.9883	59.937	62.9883	59.8909	62.9883	59.9246	62.9883	59.8656	62.9883	59.9071	62.9883	59.8374	62.9883	59.8853	62.9883	59.8074	62.9883	59.8598	62.9883	59.777	62.9883	59.8318	62.9883	59.7472	62.9883	59.8021	62.9883	59.7191	62.9883	59.7719	62.9883	59.6936	62.9883	59.7421	62.9883	59.6713	62.9883	59.7139	62.9883	59.6525	62.9883	59.6882	62.9883	59.6374	62.9883	59.6656	62.9883	59.6258	62.9883	59.6468	62.9883	59.6178	62.9883	59.6321	62.9883	59.6133	62.9883	59.6215	62.9883	59.6123	62.9883	59.615
64.4531	60.4542	64.4531	60.4584	64.4531	60.4451	64.4531	60.4576	64.4531	60.4315	64.4531	60.4519	64.4531	60.4137	64.4531	60.4414	64.4531	60.3924	64.4531	60.4264	64.4531	60.3684	64.4531	60.4076	64.4531	60.3427	64.4531	60.3854	64.4531	60.3161	64.4531	60.3605	64.4531	60.2897	64.4531	60.3339	64.4531	60.2642	64.4531	60.3063	64.4531	60.2404	64.4531	60.2788	64.4531	60.2189	64.4531	60.2523	64.4531	60.2002	64.4531	60.2278	64.4531	60.1845	64.4531	60.206	64.4531	60.172	64.4531	60.1877	64.4531	60.1628	64.4531	60.1734	64.4531	60.1571	64.4531	60.1631	64.4531	60.1551	64.4531	60.1571
67.3828	61.7534	67.3828	61.7546	67.3828	61.7477	67.3828	61.7511	67.3828	61.7376	67.3828	61.743	67.3828	61.7237	67.3828	61.7305	67.3828	61.7063	67.3828	61.7139	67.3828	61.6861	67.3828	61.6937	67.3828	61.6639	67.3828	61.6706	67.3828	61.6404	67.3828	61.6454	67.3828	61.6165	67.3828	61.6188	67.3828	61.5928	67.3828	61.5919	67.3828	61.5701	67.3828	61.5656	67.3828	61.5489	67.3828	61.541	67.3828	61.5295	67.3828	61.5189	67.3828	61.5123	67.3828	61.5003	67.3828	61.4975	67.3828	61.4856	67.3828	61.4853	67.3828	61.4752	67.3828	61.476	67.3828	61.4692	67.3828	61.47	67.3828	61.4676
68.8477	62.2792	68.8477	62.2809	68.8477	62.2737	68.8477	62.2788	68.8477	62.2646	68.8477	62.2727	68.8477	62.2524	68.8477	62.2628	68.8477	62.2376	68.8477	62.2494	68.8477	62.2206	68.8477	62.2328	68.8477	62.2023	68.8477	62.2135	68.8477	62.1833	68.8477	62.1922	68.8477	62.1643	68.8477	62.1697	68.8477	62.146	68.8477	62.1469	68.8477	62.1287	68.8477	62.1247	68.8477	62.1129	68.8477	62.1042	68.8477	62.0985	68.8477	62.086	68.8477	62.0857	68.8477	62.0711	68.8477	62.0746	68.8477	62.0598	68.8477	62.065	68.8477	62.0524	68.8477	62.0573	68.8477	62.0488	68.8477	62.0517	68.8477	62.0487
71.7773	63.1677	71.7773	63.1737	71.7773	63.1581	71.7773	63.1758	71.7773	63.1456	71.7773	63.1737	71.7773	63.1307	71.7773	63.1676	71.7773	63.1145	71.7773	63.1575	71.7773	63.0977	71.7773	63.144	71.7773	63.0812	71.7773	63.1278	71.7773	63.0659	71.7773	63.1095	71.7773	63.0524	71.7773	63.0903	71.7773	63.0411	71.7773	63.071	71.7773	63.0321	71.7773	63.0527	71.7773	63.0253	71.7773	63.0364	71.7773	63.0202	71.7773	63.0228	71.7773	63.0163	71.7773	63.0123	71.7773	63.0129	71.7773	63.0052	71.7773	63.0097	71.7773	63.0014	71.7773	63.0066	71.7773	63.0003	71.7773	63.0036	71.7773	63.0013
74.707	64.1809	74.707	64.1878	74.707	64.1702	74.707	64.1906	74.707	64.1564	74.707	64.1892	74.707	64.14	74.707	64.1836	74.707	64.1219	74.707	64.174	74.707	64.1029	74.707	64.1608	74.707	64.0841	74.707	64.1447	74.707	64.0662	74.707	64.1263	74.707	64.0501	74.707	64.1065	74.707	64.0363	74.707	64.0864	74.707	64.025	74.707	64.0668	74.707	64.0163	74.707	64.0486	74.707	64.0098	74.707	64.0327	74.707	64.0051	74.707	64.0196	74.707	64.0017	74.707	64.0097	74.707	63.9992	74.707	64.0027	74.707	63.9975	74.707	63.9986	74.707	63.9965	74.707	63.9967
77.6367	65.0858	77.6367	65.094	77.6367	65.0732	77.6367	65.0974	77.6367	65.0567	77.6367	65.0958	77.6367	65.0373	77.6367	65.0892	77.6367	65.0159	77.6367	65.0778	77.6367	64.9937	77.6367	65.0623	77.6367	64.9718	77.6367	65.0433	77.6367	64.9514	77.6367	65.0216	77.6367	64.9335	77.6367	64.9986	77.6367	64.9186	77.6367	64.9752	77.6367	64.9072	77.6367	64.9528	77.6367	64.8989	77.6367	64.9326	77.6367	64.8934	77.6367	64.9154	77.6367	64.89	77.6367	64.9018	77.6367	64.8877	77.6367	64.8921	77.6367	64.886	77.6367	64.8861	77.6367	64.8845	77.6367	64.8831	77.6367	64.8831	77.6367	64.8824
79.1016	65.5414	79.1016	65.5488	79.1016	65.5297	79.1016	65.5515	79.1016	65.5144	79.1016	65.5494	79.1016	65.4963	79.1016	65.5425	79.1016	65.4762	79.1016	65.5309	79.1016	65.4555	79.1016	65.5153	79.1016	65.4351	79.1016	65.4963	79.1016	65.4161	79.1016	65.4749	79.1016	65.3995	79.1016	65.4521	79.1016	65.3858	79.1016	65.4292	79.1016	65.3753	79.1016	65.4075	79.1016	65.3677	79.1016	65.388	79.1016	65.3626	79.1016	65.3719	79.1016	65.3591	79.1016	65.3596	79.1016	65.3565	79.1016	65.3513	79.1016	65.354	79.1016	65.3468	79.1016	65.3514	79.1016	65.3455	79.1016	65.3487	79.1016	65.3465
82.0312	66.4199	82.0312	66.4286	82.0312	66.4061	82.0312	66.4318	82.0312	66.3878	82.0312	66.4292	82.0312	66.366	82.0312	66.421	82.0312	66.3419	82.0312	66.4074	82.0312	66.3166	82.0312	66.3891	82.0312	66.2917	82.0312	66.3668	82.0312	66.2684	82.0312	66.3417	82.0312	66.2477	82.0312	66.3149	82.0312	66.2306	82.0312	66.2878	82.0312	66.2172	82.0312	66.262	82.0312	66.2074	82.0312	66.2386	82.0312	66.2007	82.0312	66.2188	82.0312	66.1961	82.0312	66.2033	82.0312	66.1927	82.0312	66.1924	82.0312	66.1899	82.0312	66.1859	82.0312	66.1872	82.0312	66.1831	82.0312	66.1847	82.0312	66.183
84.9609	67.3265	84.9609	67.3329	84.9609	67.3156	84.9609	67.3344	84.9609	67.3007	84.9609	67.3308	84.9609	67.2827	84.9609	67.3223	84.9609	67.2624	84.9609	67.3091	84.9609	67.2411	84.9609	67.2919	84.9609	67.2201	84.9609	67.2714	84.9609	67.2004	84.9609	67.2486	84.9609	67.1832	84.9609	67.2247	84.9609	67.1692	84.9609	67.2011	84.9609	67.1586	84.9609	67.1791	84.9609	67.1512	84.9609	67.1599	84.9609	67.1464	84.9609	67.1444	84.9609	67.1432	84.9609	67.1333	84.9609	67.1408	84.9609	67.1267	84.9609	67.1381	84.9609	67.1241	84.9609	67.1349	84.9609	67.1247	84.9609	67.1311	84.9609	67.1274
87.8906	68.0886	87.8906	68.0973	87.8906	68.0734	87.8906	68.0992	87.8906	68.0527	87.8906	68.094	87.8906	68.0276	87.8906	68.0821	87.8906	68	87.8906	68.0642	87.8906	67.9714	87.8906	68.0412	87.8906	67.9439	87.8906	68.0144	87.8906	67.9191	87.8906	67.9853	87.8906	67.8985	87.8906	67.9556	87.8906	67.8829	87.8906	67.927	87.8906	67.8724	87.8906	67.9011	87.8906	67.8665	87.8906	67.8794	87.8906	67.8641	87.8906	67.8629	87.8906	67.8637	87.8906	67.852	87.8906	67.8638	87.8906	67.8465	87.8906	67.8632	87.8906	67.8457	87.8906	67.861	87.8906	67.8482	87.8906	67.8573	87.8906	67.8526
90.8203	68.8617	90.8203	68.8733	90.8203	68.8458	90.8203	68.8801	90.8203	68.8263	90.8203	68.8818	90.8203	68.8043	90.8203	68.8784	90.8203	68.7811	90.8203	68.8701	90.8203	68.7581	90.8203	68.8573	90.8203	68.737	90.8203	68.8408	90.8203	68.719	90.8203	68.8214	90.8203	68.7054	90.8203	68.8006	90.8203	68.6968	90.8203	68.7794	90.8203	68.6932	90.8203	68.7595	90.8203	68.694	90.8203	68.7422	90.8203	68.6979	90.8203	68.7285	90.8203	68.7036	90.8203	68.719	90.8203	68.7093	90.8203	68.7137	90.8203	68.7137	90.8203	68.712	90.8203	68.7161	90.8203	68.7129	90.8203	68.7162	90.8203	68.7147
95.2148	70.193	95.2148	70.2045	95.2148	70.1755	95.2148	70.2096	95.2148	70.153	95.2148	70.2079	95.2148	70.1265	95.2148	70.1994	95.2148	70.0977	95.2148	70.1843	95.2148	70.068	95.2148	70.1633	95.2148	70.0394	95.2148	70.1375	95.2148	70.0136	95.2148	70.108	95.2148	69.9921	95.2148	70.0767	95.2148	69.9757	95.2148	70.0453	95.2148	69.9649	95.2148	70.016	95.2148	69.959	95.2148	69.9903	95.2148	69.957	95.2148	69.9699	95.2148	69.9572	95.2148	69.9555	95.2148	69.958	95.2148	69.9471	95.2148	69.9579	95.2148	69.9442	95.2148	69.9563	95.2148	69.9454	95.2148	69.953	95.2148	69.9489
98.1445	70.9523	98.1445	70.9661	98.1445	70.9306	98.1445	70.9715	98.1445	70.9021	98.1445	70.9682	98.1445	70.868	98.1445	70.9564	98.1445	70.8302	98.1445	70.9364	98.1445	70.7906	98.1445	70.909	98.1445	70.7515	98.1445	70.8755	98.1445	70.7152	98.1445	70.8373	98.1445	70.6835	98.1445	70.7964	98.1445	70.6577	98.1445	70.7549	98.1445	70.6384	98.1445	70.7151	98.1445	70.6252	98.1445	70.6792	98.1445	70.617	98.1445	70.649	98.1445	70.6124	98.1445	70.6257	98.1445	70.6094	98.1445	70.6097	98.1445	70.6069	98.1445	70.6007	98.1445	70.6039	98.1445	70.5973	98.1445	70.6006	98.1445	70.5979
101.074	71.5557	101.074	71.5781	101.074	71.5264	101.074	71.5927	101.074	71.4912	101.074	71.5989	101.074	71.4519	101.074	71.5969	101.074	71.4104	101.074	71.5867	101.074	71.369	101.074	71.5689	101.074	71.3302	101.074	71.5444	101.074	71.2963	101.074	71.5145	101.074	71.2691	101.074	71.4808	101.074	71.2498	101.074	71.4451	101.074	71.2386	101.074	71.4095	101.074	71.2348	101.074	71.376	101.074	71.2369	101.074	71.3464	101.074	71.2428	101.074	71.322	101.074	71.2504	101.074	71.3032	101.074	71.258	101.074	71.2899	101.074	71.2645	101.074	71.281	101.074	71.2699	101.074	71.2749
105.469	72.7311	105.469	72.7512	105.469	72.7027	105.469	72.7623	105.469	72.6666	105.469	72.7646	105.469	72.6244	105.469	72.7582	105.469	72.5781	105.469	72.7439	105.469	72.5301	105.469	72.7225	105.469	72.4832	105.469	72.6953	105.469	72.4405	105.469	72.6637	105.469	72.4046	105.469	72.6293	105.469	72.3775	105.469	72.594	105.469	72.3603	105.469	72.5596	105.469	72.3528	105.469	72.5279	105.469	72.3538	105.469	72.5	105.469	72.3612	105.469	72.4767	105.469	72.3726	105.469	72.4581	105.469	72.3857	105.469	72.4435	105.469	72.3985	105.469	72.4316	105.469	72.4102	105.469	72.421
108.398	73.4182	108.398	73.4387	108.398	73.3886	108.398	73.4498	108.398	73.3507	108.398	73.4514	108.398	73.3057	108.398	73.4439	108.398	73.2555	108.398	73.4279	108.398	73.2027	108.398	73.4041	108.398	73.1501	108.398	73.3737	108.398	73.1008	108.398	73.3379	108.398	73.0577	108.398	73.2987	108.398	73.0232	108.398	73.2577	108.398	72.9989	108.398	73.2171	108.398	72.9849	108.398	73.1788	108.398	72.9804	108.398	73.1445	108.398	72.9836	108.398	73.115	108.398	72.9921	108.398	73.0907	108.398	73.0036	108.398	73.0712	108.398	73.0162	108.398	73.0553	108.398	73.0289	108.398	73.0417
112.793	74.5298	112.793	74.5471	112.793	74.5039	112.793	74.5554	112.793	74.47	112.793	74.5547	112.793	74.4291	112.793	74.5452	112.793	74.3827	112.793	74.5272	112.793	74.3328	112.793	74.5013	112.793	74.2818	112.793	74.4683	112.793	74.2324	112.793	74.4296	112.793	74.187	112.793	74.3865	112.793	74.148	112.793	74.3411	112.793	74.1168	112.793	74.2954	112.793	74.0941	112.793	74.2516	112.793	74.0797	112.793	74.2116	112.793	74.0723	112.793	74.1768	112.793	74.0706	112.793	74.148	112.793	74.0728	112.793	74.1252	112.793	74.0779	112.793	74.1079	112.793	74.0852	112.793	74.0949
117.188	75.4733	117.188	75.4954	117.188	75.4422	117.188	75.5083	117.188	75.4031	117.188	75.5116	117.188	75.3573	117.188	75.5057	117.188	75.3067	117.188	75.4908	117.188	75.2537	117.188	75.4676	117.188	75.2012	117.188	75.4372	117.188	75.1523	117.188	75.4009	117.188	75.1096	117.188	75.3603	117.188	75.0754	117.188	75.3173	117.188	75.051	117.188	75.274	117.188	75.0365	117.188	75.2324	117.188	75.0308	117.188	75.1945	117.188	75.0322	117.188	75.1615	117.188	75.0383	117.188	75.134	117.188	75.0473	117.188	75.112	117.188	75.0576	117.188	75.0946	117.188	75.0686	117.188	75.0806
120.117	76.1243	120.117	76.1435	120.117	76.095	120.117	76.1525	120.117	76.0562	120.117	76.1515	120.117	76.0094	120.117	76.1411	120.117	75.9566	120.117	76.1222	120.117	75.9005	120.117	76.0961	120.117	75.8444	120.117	76.0641	120.117	75.7918	120.117	76.0279	120.117	75.7458	120.117	75.989	120.117	75.7092	120.117	75.9493	120.117	75.6836	120.117	75.9106	120.117	75.6694	120.117	75.8744	120.117	75.6655	120.117	75.8421	120.117	75.6701	120.117	75.8141	120.117	75.6805	120.117	75.7907	120.117	75.6943	120.117	75.7712	120.117	75.7094	120.117	75.7545	120.117	75.7244	120.117	75.7393
124.512	76.9614	124.512	76.9773	124.512	76.9383	124.512	76.9856	124.512	76.909	124.512	76.9863	124.512	76.875	124.512	76.9797	124.512	76.8382	124.512	76.9665	124.512	76.8012	124.512	76.9478	124.512	76.7665	124.512	76.9248	124.512	76.7369	124.512	76.8991	124.512	76.7145	124.512	76.8725	124.512	76.701	124.512	76.8468	124.512	76.6966	124.512	76.8238	124.512	76.7008	124.512	76.8049	124.512	76.7116	124.512	76.7912	124.512	76.7266	124.512	76.7828	124.512	76.7428	124.512	76.7791	124.512	76.7576	124.512	76.7787	124.512	76.7691	124.512	76.7795	124.512	76.7762	124.512	76.7793
128.906	77.96	128.906	77.9759	128.906	77.9352	128.906	77.9825	128.906	77.9025	128.906	77.9797	128.906	77.8633	128.906	77.9678	128.906	77.8196	128.906	77.9473	128.906	77.7738	128.906	77.9191	128.906	77.7288	128.906	77.8848	128.906	77.6876	128.906	77.8459	128.906	77.6526	128.906	77.8048	128.906	77.626	128.906	77.7639	128.906	77.6085	128.906	77.7255	128.906	77.5998	128.906	77.6919	128.906	77.5984	128.906	77.6648	128.906	77.6022	128.906	77.645	128.906	77.6084	128.906	77.6324	128.906	77.6146	128.906	77.6257	128.906	77.6193	128.906	77.6232	128.906	77.6218	128.906	77.6226
133.301	78.7826	133.301	78.7952	133.301	78.7608	133.301	78.7983	133.301	78.7308	133.301	78.7916	133.301	78.6942	133.301	78.7755	133.301	78.653	133.301	78.7507	133.301	78.6099	133.301	78.7182	133.301	78.5677	133.301	78.6796	133.301	78.5296	133.301	78.637	133.301	78.4982	133.301	78.5929	133.301	78.4752	133.301	78.5502	133.301	78.4613	133.301	78.5117	133.301	78.4558	133.301	78.4799	133.301	78.4567	133.301	78.4568	133.301	78.4613	133.301	78.4431	133.301	78.4665	133.301	78.4384	133.301	78.4698	133.301	78.4409	133.301	78.4694	133.301	78.4482	133.301	78.4649	133.301	78.4571
139.16	79.9085	139.16	79.922	139.16	79.8865	139.16	79.9266	139.16	79.8568	139.16	79.922	139.16	79.8209	139.16	79.9084	139.16	79.7806	139.16	79.8862	139.16	79.7385	139.16	79.8564	139.16	79.6976	139.16	79.8202	139.16	79.6609	139.16	79.7796	139.16	79.6311	139.16	79.7369	139.16	79.6101	139.16	79.6951	139.16	79.5984	139.16	79.6572	139.16	79.5952	139.16	79.6258	139.16	79.5985	139.16	79.6029	139.16	79.6053	139.16	79.5895	139.16	79.6125	139.16	79.5852	139.16	79.6172	139.16	79.5883	139.16	79.6176	139.16	79.5961	139.16	79.6134	139.16	79.6055
143.555	80.7277	143.555	80.7412	143.555	80.7031	143.555	80.7432	143.555	80.6687	143.555	80.7335	143.555	80.6261	143.555	80.7124	143.555	80.5778	143.555	80.6808	143.555	80.527	143.555	80.6398	143.555	80.4771	143.555	80.5916	143.555	80.4319	143.555	80.5388	143.555	80.3946	143.555	80.4846	143.555	80.3674	143.555	80.4327	143.555	80.351	143.555	80.3866	143.555	80.3445	143.555	80.3496	143.555	80.3455	143.555	80.3236	143.555	80.3506	143.555	80.3096	143.555	80.3561	143.555	80.3068	143.555	80.3588	143.555	80.3128	143.555	80.3568	143.555	80.3243	143.555	80.3493	143.555	80.3377
147.949	81.3745	147.949	81.3898	147.949	81.3476	147.949	81.3928	147.949	81.3106	147.949	81.3834	147.949	81.2658	147.949	81.3621	147.949	81.2162	147.949	81.3299	147.949	81.1655	147.949	81.2886	147.949	81.118	147.949	81.2404	147.949	81.0775	147.949	81.1883	147.949	81.0473	147.949	81.1357	147.949	81.0292	147.949	81.0867	147.949	81.0234	147.949	81.0449	147.949	81.028	147.949	81.0135	147.949	81.0396	147.949	80.9947	147.949	81.0541	147.949	80.989	147.949	81.0669	147.949	80.995	147.949	81.0742	147.949	81.0098	147.949	81.0738	147.949	81.0294	147.949	81.065	147.949	81.0492
153.809	82.2936	153.809	82.3081	153.809	82.2677	153.809	82.3106	153.809	82.2317	153.809	82.3011	153.809	82.1877	153.809	82.2801	153.809	82.1386	153.809	82.2486	153.809	82.0882	153.809	82.2082	153.809	82.0405	153.809	82.161	153.809	81.9995	153.809	82.11	153.809	81.9687	153.809	82.0585	153.809	81.9501	153.809	82.0104	153.809	81.944	153.809	81.9695	153.809	81.9487	153.809	81.9391	153.809	81.961	153.809	81.9214	153.809	81.9764	153.809	81.9167	153.809	81.9906	153.809	81.9236	153.809	81.9995	153.809	81.9391	153.809	82.0007	153.809	81.9589	153.809	81.9932	153.809	81.9783
159.668	83.1352	159.668	83.1541	159.668	83.1047	159.668	83.1601	159.668	83.0647	159.668	83.1524	159.668	83.0183	159.668	83.1311	159.668	82.9694	159.668	83.0968	159.668	82.9226	159.668	83.0509	159.668	82.8824	159.668	82.9959	159.668	82.8531	159.668	82.9352	159.668	82.8375	159.668	82.8733	159.668	82.8364	159.668	82.8156	159.668	82.8482	159.668	82.7677	159.668	82.8692	159.668	82.7345	159.668	82.894	159.668	82.7194	159.668	82.9167	159.668	82.7235	159.668	82.9317	159.668	82.745	159.668	82.9348	159.668	82.7797	159.668	82.9239	159.668	82.8214	159.668	82.8991	159.668	82.8633
165.527	83.9332	165.527	83.9652	165.527	83.8879	165.527	83.9829	165.527	83.8313	165.527	83.9856	165.527	83.7666	165.527	83.9734	165.527	83.698	165.527	83.9468	165.527	83.6306	165.527	83.9069	165.527	83.5703	165.527	83.8557	165.527	83.5226	165.527	83.7962	165.527	83.4919	165.527	83.7325	165.527	83.4804	165.527	83.6695	165.527	83.4872	165.527	83.6128	165.527	83.5089	165.527	83.5677	165.527	83.5395	165.527	83.538	165.527	83.5722	165.527	83.5257	165.527	83.6002	165.527	83.5299	165.527	83.6182	165.527	83.547	165.527	83.6232	165.527	83.5712	165.527	83.615	165.527	83.596
171.387	84.6036	171.387	84.6336	171.387	84.5601	171.387	84.649	171.387	84.5048	171.387	84.6495	171.387	84.4407	171.387	84.635	171.387	84.3716	171.387	84.6059	171.387	84.3028	171.387	84.5636	171.387	84.2401	171.387	84.5097	171.387	84.1892	171.387	84.4475	171.387	84.1548	171.387	84.381	171.387	84.1394	171.387	84.3155	171.387	84.1426	171.387	84.2566	171.387	84.161	171.387	84.2098	171.387	84.1891	171.387	84.1791	171.387	84.2198	171.387	84.1664	171.387	84.2465	171.387	84.1708	171.387	84.2635	171.387	84.1884	171.387	84.2677	171.387	84.2134	171.387	84.2587	171.387	84.239
177.246	85.1517	177.246	85.1807	177.246	85.1079	177.246	85.194	177.246	85.0515	177.246	85.191	177.246	84.9855	177.246	85.1719	177.246	84.9144	177.246	85.1371	177.246	84.8437	177.246	85.0882	177.246	84.7797	177.246	85.0274	177.246	84.7286	177.246	84.9582	177.246	84.6952	177.246	84.8854	177.246	84.6819	177.246	84.8149	177.246	84.6881	177.246	84.753	177.246	84.7097	177.246	84.7057	177.246	84.7406	177.246	84.6772	177.246	84.7731	177.246	84.6693	177.246	84.7998	177.246	84.6806	177.246	84.8151	177.246	84.7064	177.246	84.8155	177.246	84.7401	177.246	84.8009	177.246	84.774
183.105	85.6849	183.105	85.7105	183.105	85.6436	183.105	85.7194	183.105	85.5887	183.105	85.711	183.105	85.5233	183.105	85.6851	183.105	85.4516	183.105	85.6423	183.105	85.3794	183.105	85.584	183.105	85.3128	183.105	85.5125	183.105	85.2581	183.105	85.4317	183.105	85.2203	183.105	85.3472	183.105	85.202	183.105	85.2656	183.105	85.2027	183.105	85.1945	183.105	85.2186	183.105	85.1406	183.105	85.2435	183.105	85.1091	183.105	85.2698	183.105	85.1019	183.105	85.29	183.105	85.117	183.105	85.2984	183.105	85.1493	183.105	85.2915	183.105	85.191	183.105	85.2688	183.105	85.2334
188.965	86.0508	188.965	86.0932	188.965	85.9924	188.965	86.1176	188.965	85.9212	188.965	86.1228	188.965	85.8414	188.965	86.1077	188.965	85.7586	188.965	86.072	188.965	85.6799	188.965	86.0164	188.965	85.6126	188.965	85.9426	188.965	85.5635	188.965	85.8544	188.965	85.5372	188.965	85.7578	188.965	85.5349	188.965	85.6607	188.965	85.5539	188.965	85.5727	188.965	85.5877	188.965	85.5032	188.965	85.6279	188.965	85.4598	188.965	85.6648	188.965	85.4461	188.965	85.6903	188.965	85.4612	188.965	85.6981	188.965	85.4993	188.965	85.6854	188.965	85.551	188.965	85.653	188.965	85.6056
196.289	86.4984	196.289	86.5612	196.289	86.4174	196.289	86.6038	196.289	86.3214	196.289	86.6248	196.289	86.2151	196.289	86.6231	196.289	86.1054	196.289	86.598	196.289	86.0011	196.289	86.5492	196.289	85.9122	196.289	86.4778	196.289	85.8479	196.289	86.3866	196.289	85.8147	196.289	86.2808	196.289	85.8143	196.289	86.1684	196.289	85.8429	196.289	86.0595	196.289	85.8916	196.289	85.9653	196.289	85.9486	196.289	85.8958	196.289	86.0015	196.289	85.8579	196.289	86.0398	196.289	85.8533	196.289	86.0562	196.289	85.8774	196.289	86.0481	196.289	85.921	196.289	86.0178	196.289	85.972
203.613	86.673	203.613	86.7447	203.613	86.5814	203.613	86.7959	203.613	86.4712	203.613	86.827	203.613	86.3461	203.613	86.838	203.613	86.2123	203.613	86.829	203.613	86.0789	203.613	86.8001	203.613	85.9575	203.613	86.7518	203.613	85.8605	203.613	86.6858	203.613	85.7986	203.613	86.6054	203.613	85.778	203.613	86.5159	203.613	85.7984	203.613	86.4246	203.613	85.8524	203.613	86.34	203.613	85.9277	203.613	86.2699	203.613	86.01	203.613	86.2204	203.613	86.0857	203.613	86.1933	203.613	86.1448	203.613	86.1858	203.613	86.1824	203.613	86.1909	203.613	86.1987	203.613	86.1986
210.938	86.9267	210.938	86.9862	210.938	86.8442	210.938	87.0229	210.938	86.7395	210.938	87.0374	210.938	86.6156	210.938	87.0303	210.938	86.478	210.938	87.002	210.938	86.3353	210.938	86.9529	210.938	86.1991	210.938	86.8842	210.938	86.0822	210.938	86.7982	210.938	85.9966	210.938	86.6991	210.938	85.9503	210.938	86.593	210.938	85.9449	210.938	86.4882	210.938	85.9753	210.938	86.3936	210.938	86.0305	210.938	86.3175	210.938	86.097	210.938	86.2655	210.938	86.1611	210.938	86.2389	210.938	86.2123	210.938	86.2337	210.938	86.2444	210.938	86.2419	210.938	86.2566	210.938	86.253
218.262	86.9778	218.262	87.0392	218.262	86.8948	218.262	87.0788	218.262	86.7917	218.262	87.0967	218.262	86.6721	218.262	87.0935	218.262	86.5425	218.262	87.0691	218.262	86.4125	218.262	87.024	218.262	86.294	218.262	86.9591	218.262	86.2001	218.262	86.8769	218.262	86.1414	218.262	86.7817	218.262	86.124	218.262	86.6806	218.262	86.1468	218.262	86.5827	218.262	86.202	218.262	86.498	218.262	86.2765	218.262	86.4356	218.262	86.3552	218.262	86.4011	218.262	86.4244	218.262	86.3951	218.262	86.4736	218.262	86.4124	218.262	86.4976	218.262	86.4431	218.262	86.4964	218.262	86.4751
225.586	87.0511	225.586	87.1227	225.586	86.9541	225.586	87.1699	225.586	86.8316	225.586	87.1941	225.586	86.6861	225.586	87.1963	225.586	86.5238	225.586	87.1764	225.586	86.3553	225.586	87.1339	225.586	86.1956	225.586	87.0685	225.586	86.0618	225.586	86.9809	225.586	85.9701	225.586	86.8738	225.586	85.9308	225.586	86.7534	225.586	85.9448	225.586	86.6286	225.586	86.0032	225.586	86.5112	225.586	86.0892	225.586	86.4134	225.586	86.1834	225.586	86.345	225.586	86.2676	225.586	86.3103	225.586	86.329	225.586	86.3065	225.586	86.3611	225.586	86.3239	225.586	86.3651	225.586	86.3485
232.91	86.9943	232.91	87.0656	232.91	86.8978	232.91	87.1151	232.91	86.7736	232.91	87.1458	232.91	86.6214	232.91	87.1601	232.91	86.4451	232.91	87.1586	232.91	86.2533	232.91	87.1408	232.91	86.0604	232.91	87.1053	232.91	85.8852	232.91	87.0511	232.91	85.7476	232.91	86.9781	232.91	85.6641	232.91	86.8882	232.91	85.6424	232.91	86.7863	232.91	85.679	232.91	86.6794	232.91	85.7602	232.91	86.5762	232.91	85.8664	232.91	86.4847	232.91	85.9779	232.91	86.4102	232.91	86.0792	232.91	86.3534	232.91	86.1615	232.91	86.3094	232.91	86.2233	232.91	86.2696
241.699	86.8137	241.699	86.848	241.699	86.7558	241.699	86.8629	241.699	86.6708	241.699	86.8626	241.699	86.5572	241.699	86.8503	241.699	86.4164	241.699	86.8285	241.699	86.2543	241.699	86.7986	241.699	86.0816	241.699	86.7613	241.699	85.9139	241.699	86.7172	241.699	85.7696	241.699	86.6673	241.699	85.6663	241.699	86.613	241.699	85.616	241.699	86.5566	241.699	85.6221	241.699	86.5011	241.699	85.6778	241.699	86.4491	241.699	85.7686	241.699	86.4026	241.699	85.8771	241.699	86.3613	241.699	85.9868	241.699	86.3226	241.699	86.0858	241.699	86.2815	241.699	86.1677	241.699	86.2318
250.488	86.8363	250.488	86.8345	250.488	86.8118	250.488	86.8087	250.488	86.7591	250.488	86.7612	250.488	86.678	250.488	86.6946	250.488	86.5701	250.488	86.6114	250.488	86.4405	250.488	86.5148	250.488	86.2979	250.488	86.4096	250.488	86.1544	250.488	86.3017	250.488	86.0242	250.488	86.199	250.488	85.9211	250.488	86.1098	250.488	85.8553	250.488	86.0417	250.488	85.8308	250.488	86	250.488	85.8447	250.488	85.9858	250.488	85.8872	250.488	85.9956	250.488	85.9452	250.488	86.0216	250.488	86.0047	250.488	86.0534	250.488	86.0537	250.488	86.0801	250.488	86.084	250.488	86.0923
259.277	86.8221	259.277	86.8354	259.277	86.7787	259.277	86.82	259.277	86.7051	259.277	86.7773	259.277	86.6028	259.277	86.7088	259.277	86.4763	259.277	86.6163	259.277	86.3334	259.277	86.502	259.277	86.1852	259.277	86.3701	259.277	86.0453	259.277	86.2269	259.277	85.9274	259.277	86.0819	259.277	85.8427	259.277	85.9472	259.277	85.7971	259.277	85.8357	259.277	85.7898	259.277	85.759	259.277	85.8134	259.277	85.7235	259.277	85.8561	259.277	85.7286	259.277	85.904	259.277	85.7663	259.277	85.9438	259.277	85.823	259.277	85.9652	259.277	85.8832	259.277	85.9618	259.277	85.9329
268.066	86.5851	268.066	86.6116	268.066	86.5286	268.066	86.6086	268.066	86.4432	268.066	86.5767	268.066	86.3322	268.066	86.5164	268.066	86.202	268.066	86.4278	268.066	86.0628	268.066	86.3116	268.066	85.9274	268.066	86.1701	268.066	85.8096	268.066	86.0092	268.066	85.7215	268.066	85.8395	268.066	85.6703	268.066	85.6764	268.066	85.6568	268.066	85.5384	268.066	85.6749	268.066	85.4427	268.066	85.7137	268.066	85.4002	268.066	85.7597	268.066	85.4119	268.066	85.7997	268.066	85.468	268.066	85.8223	268.066	85.5517	268.066	85.8193	268.066	85.6434	268.066	85.7868	268.066	85.726
276.855	86.5508	276.855	86.6331	276.855	86.4465	276.855	86.692	276.855	86.3221	276.855	86.7254	276.855	86.1818	276.855	86.7296	276.855	86.0338	276.855	86.699	276.855	85.8898	276.855	86.6277	276.855	85.7645	276.855	86.5112	276.855	85.6723	276.855	86.3494	276.855	85.6232	276.855	86.1488	276.855	85.6197	276.855	85.925	276.855	85.6553	276.855	85.702	276.855	85.7164	276.855	85.5094	276.855	85.7855	276.855	85.3752	276.855	85.8453	276.855	85.3173	276.855	85.881	276.855	85.3366	276.855	85.8823	276.855	85.4175	276.855	85.8438	276.855	85.5339	276.855	85.7665	276.855	85.658
287.109	86.4111	287.109	86.4783	287.109	86.3063	287.109	86.5092	287.109	86.1655	287.109	86.506	287.109	85.9943	287.109	86.4708	287.109	85.8045	287.109	86.4051	287.109	85.6145	287.109	86.3101	287.109	85.4483	287.109	86.1875	287.109	85.3305	287.109	86.0406	287.109	85.2795	287.109	85.8763	287.109	85.3005	287.109	85.7063	287.109	85.3831	287.109	85.5471	287.109	85.5045	287.109	85.4185	287.109	85.6368	287.109	85.3387	287.109	85.7537	287.109	85.3191	287.109	85.8352	287.109	85.3598	287.109	85.8692	287.109	85.4488	287.109	85.8517	287.109	85.5653	287.109	85.7868	287.109	85.6855
297.363	86.4325	297.363	86.541	297.363	86.2874	297.363	86.6178	297.363	86.1016	297.363	86.6663	297.363	85.8748	297.363	86.6871	297.363	85.6138	297.363	86.6775	297.363	85.3358	297.363	86.6321	297.363	85.0692	297.363	86.5449	297.363	84.8506	297.363	86.4122	297.363	84.7149	297.363	86.2353	297.363	84.6831	297.363	86.0232	297.363	84.7522	297.363	85.7945	297.363	84.8964	297.363	85.5757	297.363	85.0773	297.363	85.3966	297.363	85.256	297.363	85.2822	297.363	85.4015	297.363	85.2434	297.363	85.494	297.363	85.2725	297.363	85.5257	297.363	85.3459	297.363	85.5002	297.363	85.4321
307.617	86.153	307.617	86.193	307.617	86.0761	307.617	86.2037	307.617	85.9559	307.617	86.192	307.617	85.7901	307.617	86.1624	307.617	85.5824	307.617	86.1163	307.617	85.3451	307.617	86.0518	307.617	85.1003	307.617	85.9651	307.617	84.8773	307.617	85.8531	307.617	84.7075	307.617	85.7158	307.617	84.6143	307.617	85.5588	307.617	84.605	307.617	85.3946	307.617	84.6686	307.617	85.2416	307.617	84.7801	307.617	85.1199	307.617	84.9094	307.617	85.0451	307.617	85.0288	307.617	85.0224	307.617	85.118	307.617	85.0438	307.617	85.1659	307.617	85.091	307.617	85.1709	307.617	85.1406
319.336	86.1039	319.336	86.1798	319.336	85.988	319.336	86.2222	319.336	85.8269	319.336	86.2362	319.336	85.6194	319.336	86.2238	319.336	85.3722	319.336	86.1838	319.336	85.1022	319.336	86.1118	319.336	84.8381	319.336	86.003	319.336	84.6172	319.336	85.8543	319.336	84.4756	319.336	85.6685	319.336	84.4356	319.336	85.4562	319.336	84.495	319.336	85.2376	319.336	84.629	319.336	85.04	319.336	84.7992	319.336	84.892	319.336	84.9671	319.336	84.8148	319.336	85.1016	319.336	84.8139	319.336	85.1832	319.336	84.8767	319.336	85.2038	319.336	84.977	319.336	85.1661	319.336	85.0831
329.59	86.0127	329.59	86.085	329.59	85.9018	329.59	86.1256	329.59	85.7457	329.59	86.1393	329.59	85.5409	329.59	86.1274	329.59	85.2907	329.59	86.0873	329.59	85.0085	329.59	86.0137	329.59	84.7201	329.59	85.9007	329.59	84.4618	329.59	85.7452	329.59	84.2735	329.59	85.5498	329.59	84.1849	329.59	85.3258	329.59	84.2034	329.59	85.0942	329.59	84.3105	329.59	84.8832	329.59	84.47	329.59	84.7223	329.59	84.6412	329.59	84.6332	329.59	84.7892	329.59	84.6209	329.59	84.8899	329.59	84.6721	329.59	84.9316	329.59	84.7592	329.59	84.9144	329.59	84.8498
341.309	86.0005	341.309	86.1081	341.309	85.8548	341.309	86.1833	341.309	85.6667	341.309	86.23	341.309	85.4379	341.309	86.248	341.309	85.1796	341.309	86.2316	341.309	84.9155	341.309	86.1705	341.309	84.6807	341.309	86.0533	341.309	84.5146	341.309	85.8716	341.309	84.4469	341.309	85.6253	341.309	84.4843	341.309	85.3281	341.309	84.6072	341.309	85.0109	341.309	84.7787	341.309	84.7194	341.309	84.9581	341.309	84.5051	341.309	85.1108	341.309	84.4069	341.309	85.2121	341.309	84.4342	341.309	85.2471	341.309	84.5628	341.309	85.2099	341.309	84.7478	341.309	85.1034	341.309	84.9409
353.027	85.8263	353.027	85.9531	353.027	85.6588	353.027	86.0528	353.027	85.4374	353.027	86.135	353.027	85.155	353.027	86.2019	353.027	84.8164	353.027	86.247	353.027	84.4459	353.027	86.2562	353.027	84.0905	353.027	86.2115	353.027	83.8153	353.027	86.0962	353.027	83.6817	353.027	85.9007	353.027	83.7173	353.027	85.628	353.027	83.8989	353.027	85.2986	353.027	84.166	353.027	84.9516	353.027	84.4499	353.027	84.6415	353.027	84.6949	353.027	84.4241	353.027	84.8651	353.027	84.3355	353.027	84.9433	353.027	84.3751	353.027	84.9274	353.027	84.5065	353.027	84.8295	353.027	84.6756
366.211	85.6172	366.211	85.686	366.211	85.4993	366.211	85.7354	366.211	85.3011	366.211	85.7892	366.211	84.9952	366.211	85.8612	366.211	84.5644	366.211	85.9518	366.211	84.0125	366.211	86.0476	366.211	83.3808	366.211	86.1253	366.211	82.7662	366.211	86.1575	366.211	82.3184	366.211	86.12	366.211	82.1799	366.211	85.9981	366.211	82.3848	366.211	85.7907	366.211	82.831	366.211	85.5143	366.211	83.3621	366.211	85.203	366.211	83.8521	366.211	84.9058	366.211	84.23	366.211	84.6739	366.211	84.47	366.211	84.5418	366.211	84.5789	366.211	84.5104	366.211	84.5874	366.211	84.5445
379.395	85.6031	379.395	85.4985	379.395	85.6573	379.395	85.3655	379.395	85.6395	379.395	85.225	379.395	85.5301	379.395	85.095	379.395	85.3143	379.395	84.9891	379.395	84.9864	379.395	84.9137	379.395	84.5567	379.395	84.8675	379.395	84.0598	379.395	84.8418	379.395	83.5614	379.395	84.8237	379.395	83.1532	379.395	84.8012	379.395	82.926	379.395	84.7674	379.395	82.925	379.395	84.7233	379.395	83.1233	379.395	84.6771	379.395	83.4413	379.395	84.6399	379.395	83.7903	379.395	84.6192	379.395	84.1026	379.395	84.613	379.395	84.3412	379.395	84.6069	379.395	84.496	379.395	84.577
392.578	85.6509	392.578	85.6343	392.578	85.6231	392.578	85.5857	392.578	85.539	392.578	85.5151	392.578	85.3902	392.578	85.4278	392.578	85.1756	392.578	85.3231	392.578	84.9042	392.578	85.1951	392.578	84.5985	392.578	85.0348	392.578	84.2938	392.578	84.8358	392.578	84.0329	392.578	84.5986	392.578	83.8546	392.578	84.3367	392.578	83.7806	392.578	84.0784	392.578	83.8081	392.578	83.8637	392.578	83.9122	392.578	83.7327	392.578	84.0558	392.578	83.709	392.578	84.1995	392.578	83.787	392.578	84.3093	392.578	83.9339	392.578	84.3604	392.578	84.1026	392.578	84.3399	392.578	84.2486
405.762	85.5489	405.762	85.6245	405.762	85.4169	405.762	85.669	405.762	85.2036	405.762	85.7027	405.762	84.891	405.762	85.7365	405.762	84.4764	405.762	85.7683	405.762	83.9848	405.762	85.7839	405.762	83.4818	405.762	85.7604	405.762	83.0757	405.762	85.6729	405.762	82.884	405.762	85.5027	405.762	82.9651	405.762	85.2441	405.762	83.2749	405.762	84.9114	405.762	83.7011	405.762	84.5427	405.762	84.1297	405.762	84.1998	405.762	84.4811	405.762	83.9555	405.762	84.7121	405.762	83.8657	405.762	84.8064	405.762	83.9406	405.762	84.7675	405.762	84.138	405.762	84.6153	405.762	84.3868
420.41	85.4581	420.41	85.4343	420.41	85.4372	420.41	85.3893	420.41	85.3474	420.41	85.3423	420.41	85.1676	420.41	85.3054	420.41	84.8847	420.41	85.2809	420.41	84.5003	420.41	85.2602	420.41	84.0405	420.41	85.2262	420.41	83.563	420.41	85.1579	420.41	83.1554	420.41	85.0375	420.41	82.9086	420.41	84.8569	420.41	82.8732	420.41	84.6237	420.41	83.0299	420.41	84.3642	420.41	83.306	420.41	84.1204	420.41	83.6151	420.41	83.9401	420.41	83.8872	420.41	83.858	420.41	84.0783	420.41	83.878	420.41	84.1691	420.41	83.97	420.41	84.1628	420.41	84.0826
435.059	85.2407	435.059	85.278	435.059	85.1393	435.059	85.2936	435.059	84.9323	435.059	85.3247	435.059	84.5842	435.059	85.3963	435.059	84.0759	435.059	85.5135	435.059	83.4231	435.059	85.6592	435.059	82.7069	435.059	85.7973	435.059	82.1004	435.059	85.8842	435.059	81.8268	435.059	85.8815	435.059	82.0041	435.059	85.7656	435.059	82.5333	435.059	85.5348	435.059	83.2032	435.059	85.2131	435.059	83.8405	435.059	84.8523	435.059	84.35	435.059	84.5275	435.059	84.6924	435.059	84.317	435.059	84.8603	435.059	84.268	435.059	84.8677	435.059	84.3691	435.059	84.7483	435.059	84.5571
451.172	85.4982	451.172	85.3183	451.172	85.5943	451.172	85.0948	451.172	85.5661	451.172	84.8682	451.172	85.3733	451.172	84.6789	451.172	84.9775	451.172	84.5626	451.172	84.3484	451.172	84.5404	451.172	83.4776	451.172	84.6082	451.172	82.4094	451.172	84.7332	451.172	81.2965	451.172	84.866	451.172	80.449	451.172	84.9579	451.172	80.2174	451.172	84.9769	451.172	80.6583	451.172	84.9139	451.172	81.4749	451.172	84.7844	451.172	82.3411	451.172	84.6226	451.172	83.0761	451.172	84.4708	451.172	83.6171	451.172	84.3605	451.172	83.9655	451.172	84.2957	451.172	84.1568	451.172	84.246
465.82	85.451	465.82	85.2814	465.82	85.5425	465.82	85.0645	465.82	85.5235	465.82	84.8291	465.82	85.3601	465.82	84.6042	465.82	85.0203	465.82	84.4191	465.82	84.4803	465.82	84.3002	465.82	83.7362	465.82	84.2621	465.82	82.8263	465.82	84.2979	465.82	81.8642	465.82	84.3787	465.82	81.0661	465.82	84.4648	465.82	80.6949	465.82	84.5218	465.82	80.8703	465.82	84.5319	465.82	81.4527	465.82	84.4971	465.82	82.1879	465.82	84.4352	465.82	82.8815	465.82	84.3698	465.82	83.4374	465.82	84.3161	465.82	83.8292	465.82	84.2698	465.82	84.0718	465.82	84.203
483.398	85.645	483.398	85.4115	483.398	85.811	483.398	85.1323	483.398	85.8812	483.398	84.823	483.398	85.8222	483.398	84.496	483.398	85.599	483.398	84.1668	483.398	85.1799	483.398	83.8598	483.398	84.5458	483.398	83.6085	483.398	83.7069	483.398	83.4444	483.398	82.7315	483.398	83.382	483.398	81.7838	483.398	83.4112	483.398	81.128	483.398	83.5057	483.398	80.9974	483.398	83.6371	483.398	81.3865	483.398	83.7851	483.398	82.0647	483.398	83.9376	483.398	82.7875	483.398	84.084	483.398	83.407	483.398	84.208	483.398	83.8627	483.398	84.2831	483.398	84.1456	483.398	84.2748
499.512	85.6957	499.512	85.6213	499.512	85.7304	499.512	85.5175	499.512	85.7087	499.512	85.3866	499.512	85.6109	499.512	85.2231	499.512	85.4182	499.512	85.0158	499.512	85.1173	499.512	84.7533	499.512	84.7072	499.512	84.43	499.512	84.2068	499.512	84.0516	499.512	83.6619	499.512	83.6397	499.512	83.1468	499.512	83.2343	499.512	82.7524	499.512	82.892	499.512	82.5557	499.512	82.6745	499.512	82.5821	499.512	82.6265	499.512	82.7902	499.512	82.7503	499.512	83.0935	499.512	82.9977	499.512	83.3977	499.512	83.2899	499.512	83.6278	499.512	83.5467	499.512	83.7372	499.512	83.7074
517.09	85.4182	517.09	85.4864	517.09	85.2845	517.09	85.5276	517.09	85.0491	517.09	85.5737	517.09	84.689	517.09	85.6394	517.09	84.2079	517.09	85.7155	517.09	83.6527	517.09	85.769	517.09	83.1258	517.09	85.7514	517.09	82.7643	517.09	85.6124	517.09	82.6679	517.09	85.3134	517.09	82.8298	517.09	84.8381	517.09	83.1531	517.09	84.2035	517.09	83.525	517.09	83.4776	517.09	83.8628	517.09	82.7977	517.09	84.117	517.09	82.3528	517.09	84.2596	517.09	82.2817	517.09	84.2744	517.09	82.5577	517.09	84.152	517.09	83.0185	517.09	83.8891	517.09	83.4967
536.133	85.2727	536.133	84.9139	536.133	85.4903	536.133	84.5014	536.133	85.4915	536.133	84.148	536.133	85.2001	536.133	83.99	536.133	84.5264	536.133	84.1397	536.133	83.358	536.133	84.5967	536.133	81.5662	536.133	85.2229	536.133	79.1202	536.133	85.8298	536.133	76.7824	536.133	86.2722	536.133	76.9525	536.133	86.472	536.133	79.2957	536.133	86.3982	536.133	81.5733	536.133	86.0514	536.133	83.2415	536.133	85.4701	536.133	84.3369	536.133	84.758	536.133	84.9462	536.133	84.1075	536.133	85.1452	536.133	83.7505	536.133	85.0114	536.133	83.8051	536.133	84.6415	536.133	84.1739
555.176	85.8896	555.176	85.4065	555.176	86.2686	555.176	84.8273	555.176	86.5129	555.176	84.1447	555.176	86.5699	555.176	83.3685	555.176	86.3661	555.176	82.5942	555.176	85.8107	555.176	82.0705	555.176	84.799	555.176	82.0968	555.176	83.219	555.176	82.6972	555.176	80.9848	555.176	83.5679	555.176	78.2783	555.176	84.3911	555.176	76.58	555.176	84.9923	555.176	77.8424	555.176	85.3096	555.176	80.2537	555.176	85.3507	555.176	82.2332	555.176	85.179	555.176	83.5662	555.176	84.9089	555.176	84.3381	555.176	84.679	555.176	84.6759	555.176	84.5903	555.176	84.7232	555.176	84.6412
574.219	85.9789	574.219	85.7109	574.219	86.2034	574.219	85.3914	574.219	86.3655	574.219	84.9832	574.219	86.4246	574.219	84.4313	574.219	86.3217	574.219	83.6976	574.219	85.9813	574.219	82.8308	574.219	85.3136	574.219	82.0654	574.219	84.2198	574.219	81.8034	574.219	82.6067	574.219	82.2433	574.219	80.4501	574.219	83.1027	574.219	78.1246	574.219	83.9652	574.219	77.1687	574.219	84.5925	574.219	78.5742	574.219	84.9188	574.219	80.6595	574.219	84.9821	574.219	82.3338	574.219	84.8793	574.219	83.4469	574.219	84.7269	574.219	84.089	574.219	84.6082	574.219	84.399	574.219	84.5267
594.727	86.1085	594.727	85.8502	594.727	86.2948	594.727	85.5232	594.727	86.3815	594.727	85.0998	594.727	86.326	594.727	84.5354	594.727	86.0737	594.727	83.817	594.727	85.5546	594.727	83.0372	594.727	84.6809	594.727	82.4426	594.727	83.3568	594.727	82.3134	594.727	81.5197	594.727	82.678	594.727	79.3096	594.727	83.2738	594.727	77.5913	594.727	83.8077	594.727	77.8457	594.727	84.1149	594.727	79.6189	594.727	84.1675	594.727	81.472	594.727	84.0451	594.727	82.8727	594.727	83.8934	594.727	83.7582	594.727	83.85	594.727	84.1911	594.727	83.96	594.727	84.2771	594.727	84.1497
615.234	86.436	615.234	86.1264	615.234	86.6884	615.234	85.7353	615.234	86.8701	615.234	85.1901	615.234	86.9428	615.234	84.3777	615.234	86.8486	615.234	83.179	615.234	86.5033	615.234	81.5651	615.234	85.7845	615.234	79.8871	615.234	84.5221	615.234	79.2882	615.234	82.4788	615.234	80.4583	615.234	79.2679	615.234	82.2727	615.234	74.222	615.234	83.7771	615.234	70.9587	615.234	84.733	615.234	76.347	615.234	85.1802	615.234	80.4277	615.234	85.258	615.234	82.9	615.234	85.1598	615.234	84.3369	615.234	85.0809	615.234	85.0591	615.234	85.1272	615.234	85.2959	615.234	85.2523
637.207	85.9294	637.207	85.9083	637.207	86.0121	637.207	85.9181	637.207	86.1498	637.207	85.8782	637.207	86.3134	637.207	85.663	637.207	86.4576	637.207	85.1209	637.207	86.5113	637.207	84.0939	637.207	86.3669	637.207	82.43	637.207	85.8859	637.207	80.0586	637.207	84.9201	637.207	77.6191	637.207	83.3161	637.207	77.6531	637.207	80.8393	637.207	80.0627	637.207	76.9292	637.207	82.2934	637.207	71.2031	637.207	83.7524	637.207	73.7586	637.207	84.5655	637.207	79.001	637.207	84.9458	637.207	82.0451	637.207	85.0876	637.207	83.7476	637.207	85.1093	637.207	84.6248	637.207	85.0012
659.18	85.7998	659.18	85.7008	659.18	85.8579	659.18	85.5899	659.18	85.8329	659.18	85.4642	659.18	85.6927	659.18	85.2852	659.18	85.4318	659.18	84.9912	659.18	85.0683	659.18	84.5234	659.18	84.6225	659.18	83.8562	659.18	84.0901	659.18	83.0232	659.18	83.4333	659.18	82.1444	659.18	82.6072	659.18	81.4465	659.18	81.6123	659.18	81.1766	659.18	80.5804	659.18	81.3799	659.18	79.9216	659.18	81.8661	659.18	80.1834	659.18	82.4377	659.18	81.2721	659.18	83.0026	659.18	82.5133	659.18	83.5154	659.18	83.4539	659.18	83.9111	659.18	83.9717	659.18	84.0964
682.617	85.9759	682.617	85.6647	682.617	86.2295	682.617	85.3115	682.617	86.3842	682.617	84.8939	682.617	86.39	682.617	84.3583	682.617	86.1939	682.617	83.6544	682.617	85.7338	682.617	82.7928	682.617	84.9337	682.617	81.9122	682.617	83.717	682.617	81.2974	682.617	82.0511	682.617	81.2268	682.617	80.0542	682.617	81.6801	682.617	78.2539	682.617	82.3269	682.617	77.7696	682.617	82.845	682.617	79.0379	682.617	83.1151	682.617	80.9695	682.617	83.2148	682.617	82.654	682.617	83.3293	682.617	83.8105	682.617	83.6026	682.617	84.4294	682.617	84.0125	682.617	84.5887	682.617	84.4011
707.52	85.2947	707.52	85.1361	707.52	85.487	707.52	85.0156	707.52	85.6705	707.52	84.8805	707.52	85.791	707.52	84.6277	707.52	85.7919	707.52	84.1374	707.52	85.6034	707.52	83.3124	707.52	85.1279	707.52	82.1108	707.52	84.2431	707.52	80.6249	707.52	82.8284	707.52	79.3765	707.52	80.7812	707.52	79.3713	707.52	77.9709	707.52	80.5637	707.52	74.4432	707.52	81.8478	707.52	73.4669	707.52	82.6763	707.52	77.2351	707.52	83.0579	707.52	80.6033	707.52	83.2211	707.52	82.701	707.52	83.4245	707.52	83.8118	707.52	83.7661	707.52	84.2041	707.52	84.1086
732.422	85.0812	732.422	84.9595	732.422	85.2368	732.422	84.8881	732.422	85.3824	732.422	84.8398	732.422	85.4669	732.422	84.7392	732.422	85.4472	732.422	84.4734	732.422	85.2848	732.422	83.9194	732.422	84.9264	732.422	82.9752	732.422	84.2899	732.422	81.6182	732.422	83.2788	732.422	80.1384	732.422	81.8047	732.422	79.5263	732.422	79.7579	732.422	80.426	732.422	77.097	732.422	81.8183	732.422	75.3546	732.422	82.8139	732.422	77.484	732.422	83.2749	732.422	80.5246	732.422	83.4033	732.422	82.5779	732.422	83.4931	732.422	83.6705	732.422	83.7148	732.422	84.0553	732.422	83.9832
757.324	85.1215	757.324	84.8749	757.324	85.3777	757.324	84.6879	757.324	85.584	757.324	84.5699	757.324	85.6979	757.324	84.471	757.324	85.6979	757.324	84.2881	757.324	85.558	757.324	83.8986	757.324	85.2145	757.324	83.1885	757.324	84.5588	757.324	82.0529	757.324	83.4715	757.324	80.5004	757.324	81.8544	757.324	79.1368	757.324	79.5932	757.324	79.2349	757.324	76.7355	757.324	80.5258	757.324	75.5471	757.324	81.7156	757.324	78.3238	757.324	82.385	757.324	81.2629	757.324	82.6832	757.324	83.0756	757.324	82.9208	757.324	83.9235	757.324	83.3064	757.324	84.0711	757.324	83.7741
785.156	84.7843	785.156	84.5452	785.156	85.0243	785.156	84.3239	785.156	85.2125	785.156	84.0983	785.156	85.2823	785.156	83.8238	785.156	85.1669	785.156	83.4495	785.156	84.7973	785.156	82.9266	785.156	84.1039	785.156	82.2151	785.156	83.0369	785.156	81.3154	785.156	81.5966	785.156	80.4008	785.156	79.8405	785.156	80.0007	785.156	77.7857	785.156	80.5254	785.156	75.3548	785.156	81.4968	785.156	73.8121	785.156	82.2509	785.156	76.0462	785.156	82.5633	785.156	79.2283	785.156	82.5377	785.156	81.3605	785.156	82.4411	785.156	82.4628	785.156	82.5101	785.156	82.817	785.156	82.7243
811.523	84.5761	811.523	84.4227	811.523	84.8195	811.523	84.4038	811.523	85.0795	811.523	84.5279	811.523	85.2893	811.523	84.7619	811.523	85.4254	811.523	85.0094	811.523	85.5026	811.523	85.1131	811.523	85.5165	811.523	84.8571	811.523	85.3816	811.523	83.9001	811.523	84.9786	811.523	81.6721	811.523	84.2263	811.523	77.219	811.523	82.8849	811.523	72.6112	811.523	80.1566	811.523	77.8568	811.523	73.776	811.523	81.7002	811.523	67.0018	811.523	83.5501	811.523	77.4799	811.523	84.2042	811.523	81.2453	811.523	84.1659	811.523	82.8162	811.523	83.8713	811.523	83.3971	811.523	83.624
840.82	84.5318	840.82	84.2308	840.82	84.8498	840.82	83.9596	840.82	85.1245	840.82	83.7521	840.82	85.2472	840.82	83.7473	840.82	85.1072	840.82	84.1403	840.82	84.6746	840.82	84.9259	840.82	84.1333	840.82	85.7782	840.82	83.8854	840.82	86.2533	840.82	84.1033	840.82	85.9667	840.82	84.4753	840.82	84.5999	840.82	84.5614	840.82	81.8273	840.82	83.9024	840.82	77.601	840.82	81.9923	840.82	75.984	840.82	78.5061	840.82	79.1857	840.82	75.7896	840.82	81.6225	840.82	78.2562	840.82	82.8494	840.82	80.9656	840.82	83.2872	840.82	82.483	840.82	83.1703
870.117	84.6028	870.117	84.44	870.117	84.8506	870.117	84.27	870.117	85.1916	870.117	83.9794	870.117	85.5199	870.117	83.5006	870.117	85.6329	870.117	82.9026	870.117	85.2751	870.117	82.4678	870.117	84.2253	870.117	82.5233	870.117	82.5027	870.117	83.0058	870.117	80.7251	870.117	83.4586	870.117	80.0028	870.117	83.4637	870.117	80.4881	870.117	82.8646	870.117	81.1697	870.117	81.7986	870.117	81.3253	870.117	80.7423	870.117	81.1124	870.117	80.3764	870.117	81.2834	870.117	80.877	870.117	82.0426	870.117	81.7505	870.117	82.8122	870.117	82.5499	870.117	83.1771	870.117	83.0653
900.879	85.0627	900.879	84.9831	900.879	85.0647	900.879	84.8239	900.879	85.0222	900.879	84.6135	900.879	84.9687	900.879	84.3969	900.879	84.8773	900.879	84.2208	900.879	84.6342	900.879	84.1132	900.879	84.1089	900.879	84.0507	900.879	83.3028	900.879	83.9201	900.879	82.4546	900.879	83.5432	900.879	81.8796	900.879	82.7909	900.879	81.5384	900.879	81.6978	900.879	80.9565	900.879	80.514	900.879	79.7583	900.879	79.6493	900.879	78.4915	900.879	79.438	900.879	78.8158	900.879	79.8884	900.879	80.4699	900.879	80.7456	900.879	81.8604	900.879	81.6733	900.879	82.47	900.879	82.3411
933.105	85.3171	933.105	85.0445	933.105	85.585	933.105	84.7928	933.105	85.824	933.105	84.5521	933.105	86.0254	933.105	84.2534	933.105	86.1468	933.105	83.7842	933.105	86.0215	933.105	83.0652	933.105	85.3441	933.105	82.1857	933.105	83.7963	933.105	81.5313	933.105	81.2817	933.105	81.5364	933.105	78.3933	933.105	82.0499	933.105	77.3063	933.105	82.5518	933.105	79.08	933.105	82.742	933.105	81.1132	933.105	82.5362	933.105	82.2722	933.105	82.0044	933.105	82.7894	933.105	81.4736	933.105	83.0888	933.105	81.4289	933.105	83.279	933.105	81.9788	933.105	83.1893	933.105	82.7073
965.332	85.8187	965.332	85.6635	965.332	85.9735	965.332	85.471	965.332	86.1344	965.332	85.2478	965.332	86.2419	965.332	85.1002	965.332	86.1871	965.332	85.15	965.332	85.8587	965.332	85.3318	965.332	85.2084	965.332	85.3965	965.332	84.3077	965.332	85.0626	965.332	83.3421	965.332	84.0793	965.332	82.3945	965.332	82.4489	965.332	80.9598	965.332	81.067	965.332	77.8873	965.332	81.3728	965.332	72.71	965.332	82.6141	965.332	75.2453	965.332	83.4243	965.332	79.7852	965.332	83.5409	965.332	82.1193	965.332	83.2794	965.332	83.1242	965.332	83.1013	965.332	83.3464	965.332	83.2021
1,000.49	86.2099	1,000.49	85.956	1,000.49	86.4652	1,000.49	85.6371	1,000.49	86.7481	1,000.49	85.1514	1,000.49	87.0278	1,000.49	84.4471	1,000.49	87.1761	1,000.49	83.7411	1,000.49	86.9794	1,000.49	83.6006	1,000.49	86.2754	1,000.49	84.2827	1,000.49	85.1945	1,000.49	85.2097	1,000.49	84.2877	1,000.49	85.6482	1,000.49	84.0539	1,000.49	85.2309	1,000.49	84.1531	1,000.49	84.0055	1,000.49	83.6809	1,000.49	82.5031	1,000.49	81.9646	1,000.49	81.7357	1,000.49	79.1981	1,000.49	82.0201	1,000.49	78.3323	1,000.49	82.5325	1,000.49	80.484	1,000.49	82.8395	1,000.49	82.3214	1,000.49	83.0611	1,000.49	83.1422	1,000.49	83.2515
1,035.64	85.8645	1,035.64	85.7484	1,035.64	85.8666	1,035.64	85.4792	1,035.64	85.8412	1,035.64	85.0076	1,035.64	85.8926	1,035.64	84.2222	1,035.64	85.9958	1,035.64	82.9985	1,035.64	85.8721	1,035.64	81.44	1,035.64	85.0894	1,035.64	80.3429	1,035.64	83.3545	1,035.64	80.768	1,035.64	80.922	1,035.64	82.1238	1,035.64	79.0641	1,035.64	83.269	1,035.64	79.2474	1,035.64	83.841	1,035.64	80.4424	1,035.64	83.8931	1,035.64	80.9288	1,035.64	83.6431	1,035.64	80.649	1,035.64	83.3904	1,035.64	80.7328	1,035.64	83.3116	1,035.64	81.7042	1,035.64	83.3828	1,035.64	82.7895	1,035.64	83.5219	1,035.64	83.4318	1,035.64	83.6079
1,072.27	85.8321	1,072.27	85.7029	1,072.27	85.9269	1,072.27	85.5169	1,072.27	86.0146	1,072.27	85.199	1,072.27	86.1359	1,072.27	84.6051	1,072.27	86.2563	1,072.27	83.6027	1,072.27	86.1642	1,072.27	82.2416	1,072.27	85.5359	1,072.27	80.9672	1,072.27	84.1924	1,072.27	80.573	1,072.27	82.375	1,072.27	81.2409	1,072.27	80.8178	1,072.27	82.2086	1,072.27	80.5895	1,072.27	82.9276	1,072.27	81.4564	1,072.27	83.3045	1,072.27	81.793	1,072.27	83.3502	1,072.27	81.1517	1,072.27	83.0658	1,072.27	80.5607	1,072.27	82.5676	1,072.27	81.1994	1,072.27	82.2132	1,072.27	82.3315	1,072.27	82.3553	1,072.27	82.917	1,072.27	82.7912
1,108.89	85.6024	1,108.89	85.4981	1,108.89	85.7784	1,108.89	85.4254	1,108.89	86.0589	1,108.89	85.2935	1,108.89	86.4304	1,108.89	84.9186	1,108.89	86.7349	1,108.89	84.0933	1,108.89	86.6381	1,108.89	82.752	1,108.89	85.7554	1,108.89	81.087	1,108.89	83.868	1,108.89	79.3871	1,108.89	81.2013	1,108.89	78.0723	1,108.89	78.2284	1,108.89	78.1735	1,108.89	75.2459	1,108.89	79.7555	1,108.89	75.7456	1,108.89	81.6197	1,108.89	78.3055	1,108.89	83.0947	1,108.89	79.6122	1,108.89	83.9637	1,108.89	80.2168	1,108.89	84.197	1,108.89	80.9165	1,108.89	83.915	1,108.89	81.7325	1,108.89	83.3768	1,108.89	82.3755	1,108.89	82.8564
1,148.44	85.611	1,148.44	85.6855	1,148.44	85.5757	1,148.44	85.6553	1,148.44	85.715	1,148.44	85.4064	1,148.44	86.0465	1,148.44	84.8834	1,148.44	86.391	1,148.44	84.1288	1,148.44	86.441	1,148.44	83.2698	1,148.44	85.914	1,148.44	82.3968	1,148.44	84.7542	1,148.44	81.3077	1,148.44	83.2306	1,148.44	79.5805	1,148.44	81.1919	1,148.44	77.6842	1,148.44	77.167	1,148.44	78.2448	1,148.44	72.1429	1,148.44	80.7459	1,148.44	76.8036	1,148.44	82.5505	1,148.44	79.9907	1,148.44	83.1678	1,148.44	81.4293	1,148.44	82.962	1,148.44	82.3016	1,148.44	82.5827	1,148.44	82.905	1,148.44	82.5779	1,148.44	83.1142	1,148.44	82.9053
1,189.45	86.7662	1,189.45	86.6618	1,189.45	86.5439	1,189.45	86.2647	1,189.45	86.1948	1,189.45	85.6385	1,189.45	86.1155	1,189.45	84.7218	1,189.45	86.4524	1,189.45	83.45	1,189.45	86.7723	1,189.45	82.127	1,189.45	86.465	1,189.45	81.4415	1,189.45	85.3645	1,189.45	81.4104	1,189.45	83.9897	1,189.45	81.1116	1,189.45	82.5217	1,189.45	79.749	1,189.45	79.7247	1,189.45	77.3639	1,189.45	73.444	1,189.45	76.7221	1,189.45	64.7255	1,189.45	79.4938	1,189.45	74.1948	1,189.45	81.8054	1,189.45	78.5574	1,189.45	82.8186	1,189.45	81.0721	1,189.45	83.0272	1,189.45	82.457	1,189.45	82.9911	1,189.45	82.9787	1,189.45	83.0177
1,230.47	86.5626	1,230.47	86.3547	1,230.47	86.5833	1,230.47	85.9731	1,230.47	86.4781	1,230.47	85.2835	1,230.47	86.4283	1,230.47	84.0081	1,230.47	86.477	1,230.47	82.1278	1,230.47	86.3409	1,230.47	80.4522	1,230.47	85.7031	1,230.47	80.2359	1,230.47	84.7578	1,230.47	81.2485	1,230.47	84.2774	1,230.47	81.8797	1,230.47	84.1125	1,230.47	81.0099	1,230.47	82.7603	1,230.47	78.3058	1,230.47	78.6443	1,230.47	75.9759	1,230.47	67.2353	1,230.47	78.7179	1,230.47	70.3409	1,230.47	81.2954	1,230.47	77.9659	1,230.47	82.2931	1,230.47	81.3074	1,230.47	82.4669	1,230.47	82.8972	1,230.47	82.6122	1,230.47	83.325	1,230.47	83.037
1,274.41	86.7027	1,274.41	86.3804	1,274.41	86.8271	1,274.41	85.9819	1,274.41	86.6753	1,274.41	85.4192	1,274.41	86.357	1,274.41	84.5782	1,274.41	86.012	1,274.41	83.6353	1,274.41	85.6913	1,274.41	82.9979	1,274.41	85.2805	1,274.41	82.438	1,274.41	84.6553	1,274.41	81.0619	1,274.41	84.0677	1,274.41	79.2919	1,274.41	83.426	1,274.41	78.702	1,274.41	82.1205	1,274.41	78.726	1,274.41	79.9589	1,274.41	78.6361	1,274.41	76.7816	1,274.41	79.0183	1,274.41	72.4826	1,274.41	80.1335	1,274.41	74.3737	1,274.41	81.3071	1,274.41	79.3844	1,274.41	82.1976	1,274.41	82.1319	1,274.41	82.8206	1,274.41	83.1817	1,274.41	83.227
1,319.82	86.0398	1,319.82	86.2145	1,319.82	86.078	1,319.82	86.4168	1,319.82	86.305	1,319.82	86.129	1,319.82	86.6643	1,319.82	85.0204	1,319.82	86.8836	1,319.82	83.5718	1,319.82	86.5975	1,319.82	83.0133	1,319.82	85.7335	1,319.82	83.4217	1,319.82	84.7366	1,319.82	83.3044	1,319.82	84.1474	1,319.82	81.6422	1,319.82	83.3458	1,319.82	78.4759	1,319.82	81.0483	1,319.82	74.2841	1,319.82	76.5015	1,319.82	72.7186	1,319.82	70.6896	1,319.82	76.8511	1,319.82	71.6917	1,319.82	79.8264	1,319.82	75.8452	1,319.82	81.3966	1,319.82	79.1499	1,319.82	82.1646	1,319.82	81.3519	1,319.82	82.528	1,319.82	82.4461	1,319.82	82.6962
1,366.7	85.6211	1,366.7	85.8815	1,366.7	85.5639	1,366.7	86.0997	1,366.7	85.7289	1,366.7	85.8309	1,366.7	86.0799	1,366.7	84.7972	1,366.7	86.4201	1,366.7	83.3172	1,366.7	86.2929	1,366.7	82.0859	1,366.7	85.3774	1,366.7	81.3084	1,366.7	84.1693	1,366.7	81.7023	1,366.7	83.7679	1,366.7	82.4773	1,366.7	83.8899	1,366.7	82.1976	1,366.7	83.0006	1,366.7	79.9634	1,366.7	79.9319	1,366.7	73.5058	1,366.7	73.6085	1,366.7	72.5652	1,366.7	71.1167	1,366.7	78.9116	1,366.7	77.3366	1,366.7	81.1465	1,366.7	80.3313	1,366.7	81.43	1,366.7	81.4819	1,366.7	81.1626	1,366.7	81.6424	1,366.7	81.3262
1,413.57	85.4817	1,413.57	85.6143	1,413.57	85.5711	1,413.57	85.688	1,413.57	85.8018	1,413.57	85.3314	1,413.57	86.0323	1,413.57	84.5564	1,413.57	86.1433	1,413.57	84.0288	1,413.57	85.8684	1,413.57	84.0696	1,413.57	84.9047	1,413.57	83.1011	1,413.57	83.5867	1,413.57	80.4602	1,413.57	82.8846	1,413.57	79.3752	1,413.57	83.2229	1,413.57	80.5759	1,413.57	83.7945	1,413.57	81.1044	1,413.57	83.1106	1,413.57	79.0772	1,413.57	80.1601	1,413.57	74.8416	1,413.57	74.1627	1,413.57	76.003	1,413.57	73.2029	1,413.57	78.85	1,413.57	78.3242	1,413.57	79.7918	1,413.57	80.5877	1,413.57	79.8506	1,413.57	80.8937	1,413.57	80.2769
1,463.38	85.6516	1,463.38	86.0938	1,463.38	85.4175	1,463.38	86.1066	1,463.38	85.608	1,463.38	85.189	1,463.38	85.9148	1,463.38	83.7245	1,463.38	85.8822	1,463.38	83.2402	1,463.38	85.4201	1,463.38	84.0224	1,463.38	84.7659	1,463.38	84.1158	1,463.38	84.043	1,463.38	81.9803	1,463.38	83.489	1,463.38	78.1838	1,463.38	82.835	1,463.38	76.5348	1,463.38	82.0581	1,463.38	78.0781	1,463.38	81.8185	1,463.38	78.3367	1,463.38	81.1739	1,463.38	76.5713	1,463.38	78.8521	1,463.38	76.2405	1,463.38	70.9037	1,463.38	78.7793	1,463.38	71.8993	1,463.38	80.8465	1,463.38	79.6273	1,463.38	81.7745	1,463.38	81.8129	1,463.38	82.1128
1,516.11	85.889	1,516.11	86.3087	1,516.11	85.4656	1,516.11	86.2631	1,516.11	85.3683	1,516.11	85.4174	1,516.11	85.575	1,516.11	84.0075	1,516.11	85.6628	1,516.11	82.9017	1,516.11	85.1726	1,516.11	82.4641	1,516.11	84.0591	1,516.11	81.8672	1,516.11	82.9902	1,516.11	79.8804	1,516.11	82.6523	1,516.11	77.4707	1,516.11	82.2432	1,516.11	76.4534	1,516.11	81.3733	1,516.11	76.1091	1,516.11	80.6743	1,516.11	75.6494	1,516.11	80.0115	1,516.11	74.965	1,516.11	78.1136	1,516.11	76.1382	1,516.11	71.0217	1,516.11	78.4752	1,516.11	71.6857	1,516.11	80.0664	1,516.11	79.2361	1,516.11	80.8788	1,516.11	81.3825	1,516.11	81.4506
1,568.85	85.2859	1,568.85	85.7046	1,568.85	84.8422	1,568.85	85.7568	1,568.85	84.6295	1,568.85	85.2304	1,568.85	84.7686	1,568.85	84.4134	1,568.85	85.0379	1,568.85	83.5892	1,568.85	84.8379	1,568.85	82.1013	1,568.85	83.7765	1,568.85	79.8231	1,568.85	82.524	1,568.85	78.3447	1,568.85	82.2158	1,568.85	79.5102	1,568.85	82.0238	1,568.85	80.0884	1,568.85	80.7207	1,568.85	77.2362	1,568.85	78.4186	1,568.85	70.4835	1,568.85	76.066	1,568.85	69.0656	1,568.85	73.4822	1,568.85	74.9871	1,568.85	70.1624	1,568.85	77.8427	1,568.85	74.337	1,568.85	78.5115	1,568.85	78.6051	1,568.85	78.8613	1,568.85	80.071	1,568.85	79.7445
1,624.51	83.9359	1,624.51	83.9639	1,624.51	83.9537	1,624.51	83.8562	1,624.51	84.135	1,624.51	83.6366	1,624.51	84.3085	1,624.51	83.4761	1,624.51	83.9859	1,624.51	82.9495	1,624.51	83.0603	1,624.51	81.3055	1,624.51	82.3535	1,624.51	78.9719	1,624.51	82.251	1,624.51	78.2584	1,624.51	82.1626	1,624.51	78.8303	1,624.51	81.0964	1,624.51	79.3296	1,624.51	79.1275	1,624.51	78.8812	1,624.51	78.6375	1,624.51	76.8058	1,624.51	78.7287	1,624.51	73.0036	1,624.51	76.9199	1,624.51	72.3539	1,624.51	68.4197	1,624.51	77.1029	1,624.51	69.8528	1,624.51	78.5658	1,624.51	77.0724	1,624.51	78.1736	1,624.51	78.4799	1,624.51	78.1092
1,681.64	83.7586	1,681.64	84.2231	1,681.64	83.5832	1,681.64	84.5359	1,681.64	84.0005	1,681.64	84.5424	1,681.64	84.6603	1,681.64	84.2227	1,681.64	84.6469	1,681.64	83.0452	1,681.64	83.1836	1,681.64	80.4678	1,681.64	80.5443	1,681.64	77.95	1,681.64	79.0628	1,681.64	78.0639	1,681.64	79.8346	1,681.64	78.2137	1,681.64	79.7926	1,681.64	76.2778	1,681.64	77.119	1,681.64	74.9921	1,681.64	74.9156	1,681.64	75.3406	1,681.64	76.5907	1,681.64	75.121	1,681.64	77.3756	1,681.64	74.1755	1,681.64	73.1851	1,681.64	75.7716	1,681.64	66.5591	1,681.64	77.3051	1,681.64	74.3154	1,681.64	77.393	1,681.64	76.4673	1,681.64	76.923
1,741.7	84.1723	1,741.7	84.2097	1,741.7	84.1012	1,741.7	84.1427	1,741.7	84.2224	1,741.7	84.223	1,741.7	84.5689	1,741.7	84.2687	1,741.7	84.6707	1,741.7	83.2755	1,741.7	83.6861	1,741.7	81.0944	1,741.7	81.2326	1,741.7	79.732	1,741.7	79.1143	1,741.7	79.6938	1,741.7	79.9629	1,741.7	79.2889	1,741.7	80.5814	1,741.7	76.9677	1,741.7	77.5111	1,741.7	73.7945	1,741.7	70.5125	1,741.7	71.1782	1,741.7	68.9174	1,741.7	71.1653	1,741.7	74.0489	1,741.7	73.9403	1,741.7	71.1217	1,741.7	76.4185	1,741.7	68.8608	1,741.7	77.5978	1,741.7	75.0174	1,741.7	77.6833	1,741.7	76.9639	1,741.7	77.4203
1,803.22	85.2981	1,803.22	86.0984	1,803.22	84.7579	1,803.22	86.2873	1,803.22	84.8057	1,803.22	85.5305	1,803.22	84.9392	1,803.22	84.1224	1,803.22	84.535	1,803.22	82.4117	1,803.22	83.349	1,803.22	80.4018	1,803.22	81.892	1,803.22	78.5586	1,803.22	81.2537	1,803.22	78.4147	1,803.22	81.8996	1,803.22	79.0961	1,803.22	81.9621	1,803.22	78.6974	1,803.22	79.9775	1,803.22	76.7879	1,803.22	76.6257	1,803.22	73.4311	1,803.22	71.6536	1,803.22	68.6243	1,803.22	71.3922	1,803.22	71.0414	1,803.22	71.5606	1,803.22	74.9956	1,803.22	72.4766	1,803.22	76.5181	1,803.22	76.2385	1,803.22	77.2877	1,803.22	78.0295	1,803.22	78.0552
1,866.21	85.5712	1,866.21	86.9469	1,866.21	84.9992	1,866.21	87.6049	1,866.21	85.5694	1,866.21	86.4543	1,866.21	86.2084	1,866.21	83.3056	1,866.21	85.9448	1,866.21	80.6721	1,866.21	84.1465	1,866.21	80.7496	1,866.21	80.9857	1,866.21	80.6397	1,866.21	78.7743	1,866.21	79.5299	1,866.21	79.707	1,866.21	79.2382	1,866.21	80.7557	1,866.21	79.182	1,866.21	79.9437	1,866.21	78.1732	1,866.21	78.6328	1,866.21	75.8938	1,866.21	74.5238	1,866.21	70.9253	1,866.21	70.6441	1,866.21	68.7889	1,866.21	71.4295	1,866.21	74.9768	1,866.21	71.4862	1,866.21	76.5979	1,866.21	75.7435	1,866.21	76.79	1,866.21	78.2561	1,866.21	77.8763
1,932.13	86.4967	1,932.13	87.6597	1,932.13	85.3896	1,932.13	87.7986	1,932.13	85.4132	1,932.13	86.3744	1,932.13	86.0975	1,932.13	84.1538	1,932.13	86.3071	1,932.13	82.8606	1,932.13	85.2461	1,932.13	81.1476	1,932.13	82.6155	1,932.13	79.1523	1,932.13	79.8419	1,932.13	79.1171	1,932.13	79.5465	1,932.13	79.192	1,932.13	80.6719	1,932.13	77.7842	1,932.13	81.1666	1,932.13	77.0708	1,932.13	80.5803	1,932.13	76.9627	1,932.13	76.9127	1,932.13	73.635	1,932.13	66.306	1,932.13	66.6777	1,932.13	70.0647	1,932.13	73.7248	1,932.13	74.019	1,932.13	76.5377	1,932.13	77.0906	1,932.13	76.8989	1,932.13	78.6228	1,932.13	77.868
1,999.51	88.0572	1,999.51	88.4985	1,999.51	86.6407	1,999.51	87.3609	1,999.51	85.9782	1,999.51	85.0694	1,999.51	86.7164	1,999.51	84.1253	1,999.51	87.1599	1,999.51	84.573	1,999.51	85.9288	1,999.51	82.731	1,999.51	83.0214	1,999.51	80.6158	1,999.51	80.6104	1,999.51	81.8463	1,999.51	79.6649	1,999.51	82.1172	1,999.51	79.0744	1,999.51	79.6833	1,999.51	79.6414	1,999.51	78.016	1,999.51	80.6374	1,999.51	78.0993	1,999.51	78.4025	1,999.51	74.9967	1,999.51	68.993	1,999.51	66.6726	1,999.51	63.3632	1,999.51	72.5882	1,999.51	73.5883	1,999.51	76.3072	1,999.51	77.7868	1,999.51	76.9079	1,999.51	79.1076	1,999.51	78.0603
2,069.82	89.6389	2,069.82	89.3887	2,069.82	88.5307	2,069.82	87.6453	2,069.82	87.188	2,069.82	85.9822	2,069.82	87.0063	2,069.82	86.1913	2,069.82	87.2729	2,069.82	86.0503	2,069.82	86.1522	2,069.82	84.004	2,069.82	83.4391	2,069.82	81.8902	2,069.82	81.1938	2,069.82	81.1078	2,069.82	79.688	2,069.82	79.1667	2,069.82	77.4833	2,069.82	76.5449	2,069.82	77.5186	2,069.82	77.3239	2,069.82	79.1219	2,069.82	78.5986	2,069.82	78.1253	2,069.82	76.4273	2,069.82	73.4305	2,069.82	68.764	2,069.82	47.4922	2,069.82	73.5203	2,069.82	74.9799	2,069.82	77.6679	2,069.82	79.8891	2,069.82	77.3158	2,069.82	80.2041	2,069.82	77.9786
2,143.07	89.4411	2,143.07	89.306	2,143.07	88.9418	2,143.07	88.5426	2,143.07	88.1152	2,143.07	87.8946	2,143.07	87.4938	2,143.07	87.4856	2,143.07	87.1135	2,143.07	86.0323	2,143.07	85.7405	2,143.07	82.9554	2,143.07	82.7785	2,143.07	80.833	2,143.07	80.7674	2,143.07	80.319	2,143.07	80.5791	2,143.07	79.343	2,143.07	78.9432	2,143.07	77.8774	2,143.07	76.9672	2,143.07	77.7283	2,143.07	77.3995	2,143.07	77.7721	2,143.07	77.7691	2,143.07	76.2513	2,143.07	75.6615	2,143.07	70.5092	2,143.07	64.8954	2,143.07	72.0732	2,143.07	74.8636	2,143.07	76.9317	2,143.07	80.4435	2,143.07	76.4641	2,143.07	79.8301	2,143.07	76.0421
2,219.24	87.9939	2,219.24	88.0714	2,219.24	87.5615	2,219.24	87.8741	2,219.24	86.947	2,219.24	87.4	2,219.24	86.573	2,219.24	85.9939	2,219.24	86.2023	2,219.24	83.2426	2,219.24	84.4671	2,219.24	81.2966	2,219.24	80.7273	2,219.24	80.5309	2,219.24	77.8166	2,219.24	77.5122	2,219.24	76.9859	2,219.24	74.1678	2,219.24	76.669	2,219.24	76.5861	2,219.24	76.7547	2,219.24	77.9052	2,219.24	76.627	2,219.24	76.6583	2,219.24	76.2927	2,219.24	74.8866	2,219.24	75.7654	2,219.24	70.3388	2,219.24	69.2142	2,219.24	69.7355	2,219.24	71.5011	2,219.24	76.2384	2,219.24	78.1686	2,219.24	77.2237	2,219.24	77.7828	2,219.24	76.0935
2,296.88	85.8875	2,296.88	85.789	2,296.88	85.4834	2,296.88	85.307	2,296.88	84.6861	2,296.88	84.412	2,296.88	84.006	2,296.88	82.6431	2,296.88	83.6464	2,296.88	80.0468	2,296.88	82.3167	2,296.88	77.6381	2,296.88	79.1619	2,296.88	74.75	2,296.88	76.6179	2,296.88	73.2262	2,296.88	74.1109	2,296.88	74.6493	2,296.88	70.8203	2,296.88	75.0144	2,296.88	69.932	2,296.88	73.9945	2,296.88	71.4625	2,296.88	73.8028	2,296.88	74.0658	2,296.88	74.0303	2,296.88	75.7542	2,296.88	69.908	2,296.88	71.8163	2,296.88	66.8512	2,296.88	65.4108	2,296.88	74.0633	2,296.88	75.5992	2,296.88	76.1454	2,296.88	76.1006	2,296.88	75.4142
2,378.91	84.6726	2,378.91	84.9036	2,378.91	84.6808	2,378.91	84.5801	2,378.91	84.4104	2,378.91	82.9067	2,378.91	83.3388	2,378.91	80.7681	2,378.91	81.568	2,378.91	79.6804	2,378.91	79.7588	2,378.91	79.1726	2,378.91	77.2926	2,378.91	78.8479	2,378.91	76.906	2,378.91	77.7559	2,378.91	78.3859	2,378.91	75.9233	2,378.91	77.8532	2,378.91	73.9473	2,378.91	75.7576	2,378.91	74.1129	2,378.91	73.4081	2,378.91	75.3695	2,378.91	72.8891	2,378.91	75.071	2,378.91	75.2365	2,378.91	71.2108	2,378.91	72.7311	2,378.91	64.1943	2,378.91	55.7483	2,378.91	72.8789	2,378.91	73.4466	2,378.91	75.937	2,378.91	75.5582	2,378.91	75.7868
2,462.4	84.1099	2,462.4	84.8926	2,462.4	83.7276	2,462.4	84.3081	2,462.4	84.3415	2,462.4	82.3432	2,462.4	84.5289	2,462.4	81.2003	2,462.4	83.2115	2,462.4	81.2328	2,462.4	80.3163	2,462.4	80.4144	2,462.4	77.5693	2,462.4	77.9116	2,462.4	77.6481	2,462.4	75.0888	2,462.4	77.0293	2,462.4	73.9686	2,462.4	75.1754	2,462.4	73.77	2,462.4	76.2374	2,462.4	73.9821	2,462.4	76.7916	2,462.4	75.123	2,462.4	74.939	2,462.4	75.3901	2,462.4	74.9751	2,462.4	72.4509	2,462.4	73.2095	2,462.4	66.9144	2,462.4	56.1987	2,462.4	72.3533	2,462.4	72.1545	2,462.4	74.6599	2,462.4	74.1494	2,462.4	74.316
2,548.83	85.3807	2,548.83	85.8266	2,548.83	84.3119	2,548.83	85.035	2,548.83	83.921	2,548.83	83.9591	2,548.83	84.1965	2,548.83	83.553	2,548.83	83.7519	2,548.83	82.3311	2,548.83	81.233	2,548.83	80.1387	2,548.83	76.4129	2,548.83	78.9874	2,548.83	74.6481	2,548.83	76.5492	2,548.83	76.1208	2,548.83	71.3623	2,548.83	74.0814	2,548.83	71.2313	2,548.83	71.8925	2,548.83	74.6474	2,548.83	72.5286	2,548.83	75.4052	2,548.83	73.4446	2,548.83	74.6018	2,548.83	74.1174	2,548.83	72.2006	2,548.83	71.2197	2,548.83	68.2571	2,548.83	56.6802	2,548.83	72.3061	2,548.83	70.5048	2,548.83	74.864	2,548.83	74.5251	2,548.83	75.3473
2,639.65	86.3205	2,639.65	86.7064	2,639.65	85.3885	2,639.65	86.2179	2,639.65	84.3695	2,639.65	85.1339	2,639.65	83.8157	2,639.65	83.4497	2,639.65	83.4677	2,639.65	80.8578	2,639.65	81.1112	2,639.65	78.9963	2,639.65	76.5205	2,639.65	77.2134	2,639.65	77.7391	2,639.65	73.6562	2,639.65	78.7	2,639.65	74.1241	2,639.65	74.5006	2,639.65	73.9612	2,639.65	66.4399	2,639.65	73.4443	2,639.65	63.5296	2,639.65	73.8574	2,639.65	62.9283	2,639.65	74.532	2,639.65	67.3191	2,639.65	71.5994	2,639.65	67.072	2,639.65	66.8986	2,639.65	56.399	2,639.65	73.0806	2,639.65	71.564	2,639.65	74.8602	2,639.65	75.5806	2,639.65	75.242
2,731.93	85.6786	2,731.93	86.4636	2,731.93	85.2419	2,731.93	86.1345	2,731.93	85.1083	2,731.93	84.5449	2,731.93	84.2641	2,731.93	82.7472	2,731.93	82.8828	2,731.93	80.3991	2,731.93	80.7414	2,731.93	78.2986	2,731.93	77.1189	2,731.93	78.1723	2,731.93	76.4957	2,731.93	77.402	2,731.93	76.1268	2,731.93	75.2045	2,731.93	73.0942	2,731.93	72.9112	2,731.93	72.8022	2,731.93	71.5589	2,731.93	72.6049	2,731.93	72.7081	2,731.93	66.7984	2,731.93	74.1968	2,731.93	68.6312	2,731.93	72.116	2,731.93	68.6117	2,731.93	61.3691	2,731.93	50.3549	2,731.93	71.4095	2,731.93	72.6974	2,731.93	74.1628	2,731.93	75.6722	2,731.93	74.2608
2,828.61	85.9493	2,828.61	86.6	2,828.61	84.9601	2,828.61	85.597	2,828.61	85.226	2,828.61	83.8793	2,828.61	85.2203	2,828.61	82.016	2,828.61	83.6395	2,828.61	79.4992	2,828.61	80.228	2,828.61	77.8329	2,828.61	74.9411	2,828.61	76.3947	2,828.61	76.5687	2,828.61	75.3111	2,828.61	76.4079	2,828.61	73.4422	2,828.61	71.9405	2,828.61	68.8008	2,828.61	73.8201	2,828.61	67.9408	2,828.61	76.1149	2,828.61	70.3311	2,828.61	71.1716	2,828.61	72.6103	2,828.61	63.077	2,828.61	72.7767	2,828.61	68.7721	2,828.61	65.9154	2,828.61	60.033	2,828.61	69.6579	2,828.61	70.3391	2,828.61	73.3464	2,828.61	73.7634	2,828.61	72.5324
2,928.22	86.663	2,928.22	87.2223	2,928.22	85.1824	2,928.22	86.1302	2,928.22	84.7571	2,928.22	84.1659	2,928.22	85.0482	2,928.22	82.1631	2,928.22	83.8044	2,928.22	79.5844	2,928.22	79.8997	2,928.22	77.5883	2,928.22	75.6162	2,928.22	76.6889	2,928.22	75.7596	2,928.22	74.2636	2,928.22	71.9886	2,928.22	68.11	2,928.22	68.2928	2,928.22	68.5915	2,928.22	74.5784	2,928.22	70.779	2,928.22	75.1868	2,928.22	72.0505	2,928.22	71.5229	2,928.22	72.4175	2,928.22	65.3464	2,928.22	71.7253	2,928.22	67.1173	2,928.22	65.6204	2,928.22	60.2275	2,928.22	66.7819	2,928.22	67.4441	2,928.22	71.7842	2,928.22	71.133	2,928.22	71.0474
3,030.76	86.4769	3,030.76	86.8926	3,030.76	85.2864	3,030.76	85.8724	3,030.76	84.7105	3,030.76	83.8902	3,030.76	84.7715	3,030.76	81.1588	3,030.76	83.5921	3,030.76	78.4982	3,030.76	79.1944	3,030.76	77.5672	3,030.76	73.0781	3,030.76	73.2763	3,030.76	74.0952	3,030.76	64.7827	3,030.76	69.8012	3,030.76	70.6753	3,030.76	70.056	3,030.76	71.1278	3,030.76	73.682	3,030.76	68.6214	3,030.76	72.7717	3,030.76	69.0366	3,030.76	70.8629	3,030.76	70.2328	3,030.76	68.2919	3,030.76	70.3379	3,030.76	65.6334	3,030.76	64.2852	3,030.76	60.8882	3,030.76	66.5182	3,030.76	66.9914	3,030.76	72.0455	3,030.76	71.734	3,030.76	71.9234
3,137.7	86.6108	3,137.7	87.102	3,137.7	85.064	3,137.7	85.5862	3,137.7	84.6019	3,137.7	83.2337	3,137.7	84.9415	3,137.7	81.1427	3,137.7	83.541	3,137.7	78.2059	3,137.7	78.5511	3,137.7	75.714	3,137.7	74.3178	3,137.7	71.2103	3,137.7	74.1875	3,137.7	71.335	3,137.7	67.987	3,137.7	71.8707	3,137.7	68.5972	3,137.7	68.4815	3,137.7	71.7714	3,137.7	64.6384	3,137.7	71.7177	3,137.7	67.1217	3,137.7	71.995	3,137.7	69.8877	3,137.7	69.5077	3,137.7	71.2529	3,137.7	67.9186	3,137.7	67.8108	3,137.7	59.5327	3,137.7	59.4405	3,137.7	68.0898	3,137.7	70.1286	3,137.7	71.693	3,137.7	71.0487
3,249.02	87.5288	3,249.02	87.3125	3,249.02	86.0311	3,249.02	85.2633	3,249.02	84.644	3,249.02	83.1724	3,249.02	84.7097	3,249.02	80.4907	3,249.02	83.5316	3,249.02	77.4953	3,249.02	78.4743	3,249.02	76.0843	3,249.02	73.7646	3,249.02	74.7499	3,249.02	74.7555	3,249.02	75.1292	3,249.02	72.2257	3,249.02	71.6185	3,249.02	70.4811	3,249.02	66.8892	3,249.02	68.597	3,249.02	68.2568	3,249.02	72.036	3,249.02	69.7251	3,249.02	73.2871	3,249.02	70.9442	3,249.02	68.8268	3,249.02	71.676	3,249.02	68.8016	3,249.02	69.173	3,249.02	64.2279	3,249.02	61.644	3,249.02	65.8845	3,249.02	68.8952	3,249.02	70.1844	3,249.02	69.6068
3,363.28	86.9563	3,363.28	86.828	3,363.28	86.2155	3,363.28	85.3763	3,363.28	85.357	3,363.28	83.0635	3,363.28	84.8797	3,363.28	79.9142	3,363.28	83.1046	3,363.28	77.619	3,363.28	77.0609	3,363.28	76.9036	3,363.28	73.9918	3,363.28	75.7571	3,363.28	75.5378	3,363.28	72.6101	3,363.28	72.4372	3,363.28	68.2138	3,363.28	70.4782	3,363.28	69.9049	3,363.28	67.2815	3,363.28	68.8567	3,363.28	68.4526	3,363.28	68.302	3,363.28	70.6586	3,363.28	70.3326	3,363.28	65.6631	3,363.28	70.7307	3,363.28	66.8834	3,363.28	69.0881	3,363.28	65.615	3,363.28	63.9325	3,363.28	63.844	3,363.28	67.4744	3,363.28	68.5948	3,363.28	68.3512
3,481.93	86.6285	3,481.93	86.1742	3,481.93	85.697	3,481.93	84.0817	3,481.93	84.9525	3,481.93	81.6511	3,481.93	84.8941	3,481.93	79.4877	3,481.93	82.9863	3,481.93	77.8305	3,481.93	76.713	3,481.93	76.9746	3,481.93	74.6602	3,481.93	74.6201	3,481.93	75.073	3,481.93	71.0243	3,481.93	70.5253	3,481.93	70.7997	3,481.93	65.6097	3,481.93	71.1482	3,481.93	66.701	3,481.93	68.0687	3,481.93	70.2258	3,481.93	65.4626	3,481.93	70.5994	3,481.93	68.7819	3,481.93	64.7397	3,481.93	69.6951	3,481.93	60.9892	3,481.93	68.1446	3,481.93	62.9555	3,481.93	65.232	3,481.93	64.8029	3,481.93	66.5457	3,481.93	67.9101	3,481.93	66.901
3,604.98	86.7145	3,604.98	86.4594	3,604.98	85.6909	3,604.98	84.1606	3,604.98	84.898	3,604.98	81.8761	3,604.98	84.6442	3,604.98	79.8603	3,604.98	83.0755	3,604.98	78.6837	3,604.98	77.8813	3,604.98	77.2162	3,604.98	75.826	3,604.98	74.0876	3,604.98	75.288	3,604.98	75.5008	3,604.98	68.5239	3,604.98	73.4559	3,604.98	58.0152	3,604.98	69.6788	3,604.98	55.3867	3,604.98	69.6364	3,604.98	66.6387	3,604.98	67.6598	3,604.98	65.912	3,604.98	69.4542	3,604.98	62.0093	3,604.98	69.9146	3,604.98	59.7232	3,604.98	66.1901	3,604.98	62.8314	3,604.98	66.0812	3,604.98	66.6698	3,604.98	68.2961	3,604.98	67.6373	3,604.98	66.1458
3,732.42	87.134	3,732.42	86.5395	3,732.42	86.058	3,732.42	84.3267	3,732.42	84.9229	3,732.42	82.618	3,732.42	84.4942	3,732.42	80.7279	3,732.42	82.9076	3,732.42	79.4998	3,732.42	77.8931	3,732.42	77.2928	3,732.42	75.6676	3,732.42	74.5238	3,732.42	74.1373	3,732.42	74.5874	3,732.42	68.0037	3,732.42	71.0501	3,732.42	68.5363	3,732.42	68.4214	3,732.42	63.1043	3,732.42	69.4421	3,732.42	64.1395	3,732.42	67.4847	3,732.42	58.0944	3,732.42	67.904	3,732.42	64.9978	3,732.42	70.2847	3,732.42	60.7149	3,732.42	66.7432	3,732.42	54.5158	3,732.42	63.6821	3,732.42	66.8309	3,732.42	68.5826	3,732.42	68.1148	3,732.42	66.954
3,864.26	86.3344	3,864.26	85.9949	3,864.26	85.341	3,864.26	83.7455	3,864.26	84.9068	3,864.26	82.3773	3,864.26	84.5489	3,864.26	80.2992	3,864.26	82.8812	3,864.26	78.2147	3,864.26	77.2794	3,864.26	75.5423	3,864.26	74.3108	3,864.26	73.8711	3,864.26	72.8849	3,864.26	72.9224	3,864.26	69.5672	3,864.26	67.3302	3,864.26	69.5466	3,864.26	66.2065	3,864.26	67.0318	3,864.26	67.0738	3,864.26	66.2536	3,864.26	65.2717	3,864.26	66.1345	3,864.26	65.7098	3,864.26	63.8115	3,864.26	68.6938	3,864.26	62.7362	3,864.26	66.9316	3,864.26	55.9489	3,864.26	59.691	3,864.26	65.7961	3,864.26	66.698	3,864.26	67.4095	3,864.26	65.0267
4,000.49	86.3447	4,000.49	85.2318	4,000.49	85.2288	4,000.49	83.0913	4,000.49	84.5297	4,000.49	81.8652	4,000.49	85.1614	4,000.49	78.4214	4,000.49	83.9193	4,000.49	76.5179	4,000.49	77.469	4,000.49	73.6932	4,000.49	76.0622	4,000.49	70.6544	4,000.49	75.32	4,000.49	68.2235	4,000.49	71.0013	4,000.49	65.6857	4,000.49	69.9304	4,000.49	64.3593	4,000.49	69.7829	4,000.49	61.8294	4,000.49	65.9224	4,000.49	62.715	4,000.49	67.7171	4,000.49	61.7858	4,000.49	60.5658	4,000.49	65.0263	4,000.49	62.1118	4,000.49	64.7489	4,000.49	61.3465	4,000.49	57.4826	4,000.49	63.3096	4,000.49	66.6517	4,000.49	65.7367	4,000.49	65.64
4,141.11	85.5875	4,141.11	84.8702	4,141.11	85.3693	4,141.11	83.4027	4,141.11	85.0915	4,141.11	81.4387	4,141.11	85.326	4,141.11	78.4827	4,141.11	83.7459	4,141.11	76.901	4,141.11	77.4252	4,141.11	74.0278	4,141.11	76.367	4,141.11	69.0505	4,141.11	73.5093	4,141.11	68.2097	4,141.11	71.5087	4,141.11	69.19	4,141.11	72.4745	4,141.11	64.5618	4,141.11	69.5058	4,141.11	62.093	4,141.11	57.2751	4,141.11	64.0588	4,141.11	63.5698	4,141.11	62.1689	4,141.11	58.9419	4,141.11	64.2787	4,141.11	60.1674	4,141.11	65.2046	4,141.11	57.6329	4,141.11	56.0126	4,141.11	63.3904	4,141.11	65.3802	4,141.11	65.5773	4,141.11	65.4256
4,287.6	86.291	4,287.6	85.3349	4,287.6	85.5236	4,287.6	83.8867	4,287.6	85.4383	4,287.6	82.4959	4,287.6	85.9642	4,287.6	78.5921	4,287.6	84.2287	4,287.6	76.2456	4,287.6	78.0357	4,287.6	71.2609	4,287.6	75.0751	4,287.6	70.2405	4,287.6	71.2371	4,287.6	67.7887	4,287.6	73.0449	4,287.6	62.345	4,287.6	72.8386	4,287.6	62.7989	4,287.6	67.0864	4,287.6	59.0984	4,287.6	64.1719	4,287.6	60.3499	4,287.6	62.9216	4,287.6	60.9342	4,287.6	60.9509	4,287.6	63.7594	4,287.6	59.6201	4,287.6	65.6028	4,287.6	54.7794	4,287.6	59.2967	4,287.6	63.5036	4,287.6	64.5638	4,287.6	65.6636	4,287.6	66.4237
4,438.48	86.1044	4,438.48	85.7028	4,438.48	85.0038	4,438.48	84.5142	4,438.48	84.7164	4,438.48	82.0128	4,438.48	85.4276	4,438.48	77.8059	4,438.48	84.0384	4,438.48	75.6681	4,438.48	77.283	4,438.48	71.9224	4,438.48	72.0014	4,438.48	71.6503	4,438.48	70.7423	4,438.48	66.2538	4,438.48	71.8877	4,438.48	67.4104	4,438.48	66.8255	4,438.48	65.0925	4,438.48	58.2937	4,438.48	60.5835	4,438.48	65.5394	4,438.48	58.9268	4,438.48	66.2039	4,438.48	59.7618	4,438.48	61.8507	4,438.48	61.1304	4,438.48	55.5122	4,438.48	65.8501	4,438.48	56.4022	4,438.48	60.995	4,438.48	62.8356	4,438.48	63.2091	4,438.48	65.4701	4,438.48	65.0512
4,595.21	85.9061	4,595.21	85.267	4,595.21	84.2123	4,595.21	83.8984	4,595.21	83.7637	4,595.21	80.6554	4,595.21	85.2832	4,595.21	76.4834	4,595.21	84.074	4,595.21	74.4822	4,595.21	75.7271	4,595.21	71.4287	4,595.21	74.3327	4,595.21	68.904	4,595.21	73.1601	4,595.21	65.7873	4,595.21	71.2461	4,595.21	67.0326	4,595.21	52.5316	4,595.21	60.8024	4,595.21	49.1221	4,595.21	63.4275	4,595.21	67.1616	4,595.21	60.3846	4,595.21	64.4845	4,595.21	59.0771	4,595.21	65.3629	4,595.21	62.2808	4,595.21	61.3861	4,595.21	62.4785	4,595.21	61.7903	4,595.21	64.0354	4,595.21	59.6802	4,595.21	58.7674	4,595.21	61.8605	4,595.21	64.4348
4,756.35	85.7844	4,756.35	85.0244	4,756.35	84.0751	4,756.35	82.9867	4,756.35	82.4892	4,756.35	79.8226	4,756.35	84.9127	4,756.35	77.8105	4,756.35	83.5074	4,756.35	75.2643	4,756.35	73.4138	4,756.35	72.2847	4,756.35	75.9473	4,756.35	71.1949	4,756.35	73.65	4,756.35	69.1828	4,756.35	66.7438	4,756.35	65.9341	4,756.35	63.6055	4,756.35	62.8108	4,756.35	58.9154	4,756.35	59.3743	4,756.35	61.4281	4,756.35	59.2172	4,756.35	55.2081	4,756.35	59.2001	4,756.35	63.2283	4,756.35	60.45	4,756.35	61.7057	4,756.35	63.7418	4,756.35	57.9682	4,756.35	64.2473	4,756.35	56.6122	4,756.35	61.644	4,756.35	60.0086	4,756.35	63.6651
4,924.8	85.4565	4,924.8	84.7287	4,924.8	83.835	4,924.8	83.5477	4,924.8	81.8987	4,924.8	81.4427	4,924.8	83.6832	4,924.8	79.1858	4,924.8	81.5133	4,924.8	76.8078	4,924.8	69.5399	4,924.8	74.4031	4,924.8	74.7356	4,924.8	71.9098	4,924.8	69.898	4,924.8	67.7346	4,924.8	64.0163	4,924.8	66.9981	4,924.8	62.5598	4,924.8	64.0107	4,924.8	50.3677	4,924.8	62.7785	4,924.8	55.1445	4,924.8	62.3542	4,924.8	63.3694	4,924.8	58.8672	4,924.8	63.3066	4,924.8	61.8036	4,924.8	54.3696	4,924.8	62.2986	4,924.8	52.8244	4,924.8	63.2539	4,924.8	56.4269	4,924.8	62.1287	4,924.8	58.2399	4,924.8	63.3284
5,097.66	85.561	5,097.66	84.6629	5,097.66	83.5035	5,097.66	83.3717	5,097.66	80.9156	5,097.66	81.2525	5,097.66	82.9622	5,097.66	78.6542	5,097.66	80.2827	5,097.66	76.3598	5,097.66	71.4402	5,097.66	73.032	5,097.66	73.7777	5,097.66	69.5789	5,097.66	64.426	5,097.66	66.0833	5,097.66	64.7382	5,097.66	64.6477	5,097.66	54.8799	5,097.66	60.4812	5,097.66	54.2008	5,097.66	58.6839	5,097.66	62.758	5,097.66	56.0414	5,097.66	65.2677	5,097.66	55.4771	5,097.66	65.3579	5,097.66	57.3778	5,097.66	59.089	5,097.66	59.329	5,097.66	56.0927	5,097.66	57.7257	5,097.66	51.1977	5,097.66	58.0218	5,097.66	54.7004	5,097.66	58.6935
5,277.83	85.1111	5,277.83	84.2251	5,277.83	84.0941	5,277.83	82.6093	5,277.83	82.022	5,277.83	79.6166	5,277.83	83.2563	5,277.83	76.6894	5,277.83	81.3743	5,277.83	74.5892	5,277.83	74.5554	5,277.83	69.677	5,277.83	73.3344	5,277.83	66.2785	5,277.83	61.4021	5,277.83	62.7303	5,277.83	64.6572	5,277.83	61.1526	5,277.83	53.1378	5,277.83	49.6016	5,277.83	57.2383	5,277.83	48.1958	5,277.83	63.6156	5,277.83	50.3697	5,277.83	62.9308	5,277.83	42.6622	5,277.83	62.3522	5,277.83	50.5045	5,277.83	53.4201	5,277.83	46.6681	5,277.83	53.3061	5,277.83	49.1806	5,277.83	38.0712	5,277.83	40.6799	5,277.83	43.0006	5,277.83	52.5701
5,463.87	86.6885	5,463.87	84.7147	5,463.87	85.3234	5,463.87	82.9496	5,463.87	82.003	5,463.87	79.5002	5,463.87	83.7887	5,463.87	75.5602	5,463.87	81.6623	5,463.87	70.8945	5,463.87	72.9869	5,463.87	64.5206	5,463.87	70.0409	5,463.87	62.8661	5,463.87	60.7887	5,463.87	56.0788	5,463.87	62.83	5,463.87	56.1185	5,463.87	45.6987	5,463.87	54.8065	5,463.87	59.3462	5,463.87	51.6274	5,463.87	58.8565	5,463.87	51.9052	5,463.87	58.9565	5,463.87	52.7814	5,463.87	60.5258	5,463.87	27.166	5,463.87	54.9026	5,463.87	55.7997	5,463.87	54.4206	5,463.87	51.8731	5,463.87	43.711	5,463.87	58.3742	5,463.87	52.9731	5,463.87	57.9516
5,657.23	88.161	5,657.23	86.5565	5,657.23	87.1096	5,657.23	83.9314	5,657.23	83.9415	5,657.23	78.6525	5,657.23	84.1276	5,657.23	72.6412	5,657.23	80.9307	5,657.23	64.6942	5,657.23	66.3635	5,657.23	59.5061	5,657.23	62.3217	5,657.23	61.644	5,657.23	63.8608	5,657.23	63.9046	5,657.23	60.0098	5,657.23	63.0794	5,657.23	58.2209	5,657.23	62.1989	5,657.23	45.6103	5,657.23	60.9954	5,657.23	57.364	5,657.23	59.5755	5,657.23	47.7089	5,657.23	61.5358	5,657.23	56.9388	5,657.23	53.8983	5,657.23	54.9701	5,657.23	61.7076	5,657.23	49.2807	5,657.23	59.3396	5,657.23	57.3248	5,657.23	62.3253	5,657.23	62.5698	5,657.23	63.1621
5,856.45	89.2969	5,856.45	87.4126	5,856.45	88.0253	5,856.45	84.6454	5,856.45	84.1501	5,856.45	77.7886	5,856.45	83.8502	5,856.45	68.8392	5,856.45	78.2288	5,856.45	60.1925	5,856.45	58.8791	5,856.45	68.5705	5,856.45	59.1287	5,856.45	69.5114	5,856.45	69.1115	5,856.45	68.8794	5,856.45	63.6537	5,856.45	65.9475	5,856.45	61.4271	5,856.45	65.8816	5,856.45	62.5846	5,856.45	64.1576	5,856.45	57.3606	5,856.45	62.3408	5,856.45	60.5941	5,856.45	64.9166	5,856.45	62.4806	5,856.45	60.6277	5,856.45	63.2974	5,856.45	65.1262	5,856.45	50.9966	5,856.45	65.0572	5,856.45	57.7105	5,856.45	66.2809	5,856.45	64.0943	5,856.45	66.3595
6,062.99	88.9554	6,062.99	87.1723	6,062.99	87.7526	6,062.99	84.2929	6,062.99	84.1016	6,062.99	77.2847	6,062.99	83.3058	6,062.99	72.1996	6,062.99	78.1901	6,062.99	71.2573	6,062.99	69.0834	6,062.99	73.2719	6,062.99	69.9393	6,062.99	70.8889	6,062.99	71.7628	6,062.99	69.3691	6,062.99	68.7808	6,062.99	67.8459	6,062.99	68.3129	6,062.99	65.5862	6,062.99	63.9133	6,062.99	63.1934	6,062.99	62.3748	6,062.99	63.4101	6,062.99	65.1175	6,062.99	64.4146	6,062.99	65.5099	6,062.99	62.3181	6,062.99	63.1819	6,062.99	65.6805	6,062.99	56.4496	6,062.99	66.9262	6,062.99	55.9834	6,062.99	66.7669	6,062.99	63.4147	6,062.99	67.2161
6,276.86	88.0592	6,276.86	86.4741	6,276.86	86.9396	6,276.86	83.7232	6,276.86	82.8943	6,276.86	76.9013	6,276.86	82.5924	6,276.86	75.8676	6,276.86	78.6702	6,276.86	74.2351	6,276.86	72.6684	6,276.86	74.157	6,276.86	73.1763	6,276.86	72.252	6,276.86	72.3996	6,276.86	71.2576	6,276.86	70.1757	6,276.86	66.3103	6,276.86	68.4881	6,276.86	65.166	6,276.86	63.7052	6,276.86	60.7624	6,276.86	62.8109	6,276.86	61.6032	6,276.86	66.4119	6,276.86	63.3654	6,276.86	66.8701	6,276.86	59.1296	6,276.86	65.0379	6,276.86	64.6711	6,276.86	55.8727	6,276.86	66.7494	6,276.86	57.7261	6,276.86	64.0608	6,276.86	60.2701	6,276.86	66.3193
6,498.05	86.6198	6,498.05	85.2931	6,498.05	85.5014	6,498.05	82.4539	6,498.05	82.1257	6,498.05	77.6099	6,498.05	82.4468	6,498.05	76.1794	6,498.05	79.2208	6,498.05	74.7186	6,498.05	73.8154	6,498.05	73.6775	6,498.05	73.7013	6,498.05	70.8327	6,498.05	72.0592	6,498.05	66.7412	6,498.05	69.0554	6,498.05	65.1231	6,498.05	64.734	6,498.05	63.1522	6,498.05	63.7029	6,498.05	57.5905	6,498.05	65.8201	6,498.05	57.5673	6,498.05	68.4563	6,498.05	61.427	6,498.05	68.2014	6,498.05	56.692	6,498.05	64.5634	6,498.05	61.6385	6,498.05	54.3173	6,498.05	65.2006	6,498.05	59.0228	6,498.05	64.8196	6,498.05	61.2751	6,498.05	64.7634
6,726.56	85.6365	6,726.56	84.4032	6,726.56	84.3135	6,726.56	81.311	6,726.56	81.6283	6,726.56	77.3963	6,726.56	82.6593	6,726.56	76.654	6,726.56	79.8314	6,726.56	73.9637	6,726.56	74.0854	6,726.56	70.945	6,726.56	73.9437	6,726.56	67.4006	6,726.56	68.6528	6,726.56	66.9139	6,726.56	64.3573	6,726.56	62.4734	6,726.56	65.4533	6,726.56	61.1949	6,726.56	65.2252	6,726.56	56.8001	6,726.56	64.8342	6,726.56	49.8116	6,726.56	67.8953	6,726.56	59.9168	6,726.56	68.1742	6,726.56	49.5003	6,726.56	64.18	6,726.56	59.9239	6,726.56	57.6749	6,726.56	61.3669	6,726.56	57.8823	6,726.56	63.464	6,726.56	61.8195	6,726.56	62.747
6,963.87	85.3451	6,963.87	83.5277	6,963.87	83.8661	6,963.87	80.9052	6,963.87	81.0175	6,963.87	77.2075	6,963.87	83.0517	6,963.87	75.8525	6,963.87	80.5395	6,963.87	71.8564	6,963.87	74.0124	6,963.87	68.1504	6,963.87	73.2969	6,963.87	63.4932	6,963.87	64.1484	6,963.87	59.9928	6,963.87	62.0771	6,963.87	59.0876	6,963.87	64.1603	6,963.87	59.6277	6,963.87	63.219	6,963.87	59.5707	6,963.87	66.058	6,963.87	41.2067	6,963.87	67.6467	6,963.87	55.0601	6,963.87	68.1517	6,963.87	50.3196	6,963.87	62.1339	6,963.87	57.2279	6,963.87	58.6218	6,963.87	55.5095	6,963.87	54.3146	6,963.87	60.9705	6,963.87	60.2113	6,963.87	61.6467
7,209.96	84.8354	7,209.96	82.6549	7,209.96	83.7231	7,209.96	81.138	7,209.96	80.278	7,209.96	77.6507	7,209.96	82.6377	7,209.96	75.0643	7,209.96	80.3027	7,209.96	68.3921	7,209.96	73.739	7,209.96	65.134	7,209.96	71.9971	7,209.96	61.1382	7,209.96	65.4213	7,209.96	63.1654	7,209.96	63.317	7,209.96	58.7952	7,209.96	63.1865	7,209.96	59.5898	7,209.96	61.642	7,209.96	60.3925	7,209.96	65.8678	7,209.96	56.7795	7,209.96	65.2113	7,209.96	55.0419	7,209.96	66.6274	7,209.96	54.3644	7,209.96	60.5543	7,209.96	43.3763	7,209.96	48.7843	7,209.96	52.8297	7,209.96	56.8585	7,209.96	56.3897	7,209.96	54.8553	7,209.96	60.5117
7,464.84	85.8203	7,464.84	84.7192	7,464.84	84.491	7,464.84	83.5229	7,464.84	80.2849	7,464.84	79.2085	7,464.84	81.8593	7,464.84	75.4777	7,464.84	79.2823	7,464.84	69.5397	7,464.84	71.5235	7,464.84	66.4859	7,464.84	69.0612	7,464.84	63.7591	7,464.84	63.4191	7,464.84	62.6632	7,464.84	58.8766	7,464.84	62.119	7,464.84	53.2543	7,464.84	58.4201	7,464.84	56.2884	7,464.84	60.7792	7,464.84	60.3449	7,464.84	58.1027	7,464.84	52.351	7,464.84	53.7539	7,464.84	59.972	7,464.84	58.25	7,464.84	59.1951	7,464.84	47.6564	7,464.84	47.6415	7,464.84	53.8738	7,464.84	37.2519	7,464.84	60.8499	7,464.84	52.7618	7,464.84	59.5853
7,727.05	87.8037	7,727.05	86.9364	7,727.05	86.0262	7,727.05	85.2097	7,727.05	81.1963	7,727.05	80.2991	7,727.05	81.2538	7,727.05	76.347	7,727.05	78.5996	7,727.05	69.8172	7,727.05	67.2831	7,727.05	66.8215	7,727.05	66.0684	7,727.05	64.3374	7,727.05	57.0943	7,727.05	63.5186	7,727.05	57.7915	7,727.05	63.4108	7,727.05	51.815	7,727.05	60.1163	7,727.05	54.4664	7,727.05	60.725	7,727.05	49.5859	7,727.05	59.3976	7,727.05	59.758	7,727.05	55.3199	7,727.05	58.433	7,727.05	58.178	7,727.05	59.7413	7,727.05	55.4507	7,727.05	45.6735	7,727.05	53.871	7,727.05	41.5517	7,727.05	62.113	7,727.05	54.2581	7,727.05	60.9008
7,999.51	89.2682	7,999.51	88.372	7,999.51	87.4174	7,999.51	86.1077	7,999.51	82.712	7,999.51	80.7536	7,999.51	81.6109	7,999.51	76.5169	7,999.51	77.4371	7,999.51	67.6048	7,999.51	59.3442	7,999.51	66.2912	7,999.51	70.1724	7,999.51	66.1488	7,999.51	67.4314	7,999.51	65.2397	7,999.51	65.184	7,999.51	64.4398	7,999.51	61.8454	7,999.51	61.5886	7,999.51	61.8854	7,999.51	62.6929	7,999.51	64.7148	7,999.51	61.3448	7,999.51	69.1834	7,999.51	57.804	7,999.51	64.1667	7,999.51	56.506	7,999.51	60.4347	7,999.51	58.4025	7,999.51	45.4062	7,999.51	51.479	7,999.51	48.7743	7,999.51	62.9167	7,999.51	57.3444	7,999.51	61.3901
8,282.23	89.2197	8,282.23	88.0985	8,282.23	87.0859	8,282.23	85.7349	8,282.23	82.7625	8,282.23	80.5436	8,282.23	81.0025	8,282.23	74.9906	8,282.23	72.7411	8,282.23	65.2326	8,282.23	65.3388	8,282.23	70.6911	8,282.23	72.8237	8,282.23	70.9986	8,282.23	68.4406	8,282.23	69.283	8,282.23	72.6417	8,282.23	67.6773	8,282.23	67.425	8,282.23	63.2306	8,282.23	67.6325	8,282.23	62.7661	8,282.23	72.7915	8,282.23	63.1334	8,282.23	74.7298	8,282.23	58.8049	8,282.23	72.0449	8,282.23	60.6915	8,282.23	66.1731	8,282.23	56.7587	8,282.23	33.108	8,282.23	62.0852	8,282.23	53.7666	8,282.23	63.2816	8,282.23	62.9517	8,282.23	62.365
8,573.73	87.7652	8,573.73	86.3512	8,573.73	85.755	8,573.73	84.5414	8,573.73	81.9694	8,573.73	78.8581	8,573.73	80.2339	8,573.73	71.0604	8,573.73	69.1261	8,573.73	70.4921	8,573.73	71.6136	8,573.73	72.7032	8,573.73	72.1939	8,573.73	72.2876	8,573.73	72.8674	8,573.73	68.6031	8,573.73	73.1499	8,573.73	67.0591	8,573.73	68.8511	8,573.73	63.227	8,573.73	70.3419	8,573.73	62.3952	8,573.73	74.691	8,573.73	62.7711	8,573.73	75.3391	8,573.73	59.044	8,573.73	73.2008	8,573.73	61.3006	8,573.73	68.5254	8,573.73	54.7234	8,573.73	48.5416	8,573.73	62.6294	8,573.73	57.1668	8,573.73	65.2304	8,573.73	61.0567	8,573.73	61.6198
8,876.95	86.0706	8,876.95	84.5266	8,876.95	84.5308	8,876.95	83.2214	8,876.95	81.2017	8,876.95	75.9486	8,876.95	80.9989	8,876.95	69.9311	8,876.95	69.3384	8,876.95	73.7079	8,876.95	74.9733	8,876.95	73.3617	8,876.95	71.4514	8,876.95	72.0873	8,876.95	74.594	8,876.95	69.1487	8,876.95	69.6689	8,876.95	65.9507	8,876.95	68.6705	8,876.95	61.7081	8,876.95	68.4935	8,876.95	61.4531	8,876.95	73.8921	8,876.95	61.7357	8,876.95	74.7209	8,876.95	58.4925	8,876.95	72.1701	8,876.95	59.1183	8,876.95	66.1811	8,876.95	54.7942	8,876.95	53.5767	8,876.95	61.0884	8,876.95	51.216	8,876.95	64.0338	8,876.95	59.1296	8,876.95	61.0163
9,188.96	84.6223	9,188.96	83.4608	9,188.96	82.7736	9,188.96	82.9216	9,188.96	79.8516	9,188.96	72.9605	9,188.96	82.1597	9,188.96	74.1779	9,188.96	70.3592	9,188.96	74.376	9,188.96	76.2883	9,188.96	72.8555	9,188.96	70.9723	9,188.96	69.7559	9,188.96	73.1737	9,188.96	65.9908	9,188.96	66.6587	9,188.96	65.8833	9,188.96	68.4823	9,188.96	60.5218	9,188.96	67.796	9,188.96	59.4429	9,188.96	72.4277	9,188.96	60.2667	9,188.96	74.0962	9,188.96	57.7499	9,188.96	72.5466	9,188.96	59.441	9,188.96	66.598	9,188.96	54.4182	9,188.96	51.024	9,188.96	62.4494	9,188.96	46.4675	9,188.96	63.3979	9,188.96	60.4737	9,188.96	60.1459
9,514.16	83.6181	9,514.16	82.8617	9,514.16	81.5368	9,514.16	82.2673	9,514.16	78.5732	9,514.16	72.8662	9,514.16	82.2089	9,514.16	75.7181	9,514.16	70.0233	9,514.16	75.8437	9,514.16	76.1396	9,514.16	72.4107	9,514.16	72.6038	9,514.16	70.036	9,514.16	71.887	9,514.16	62.9762	9,514.16	69.0584	9,514.16	63.5734	9,514.16	67.9281	9,514.16	60.516	9,514.16	67.3972	9,514.16	57.7769	9,514.16	71.2966	9,514.16	60.1617	9,514.16	74.2919	9,514.16	57.9553	9,514.16	73.182	9,514.16	60.8759	9,514.16	67.5608	9,514.16	57.6473	9,514.16	49.6171	9,514.16	63.9331	9,514.16	55.2706	9,514.16	64.0134	9,514.16	57.1098	9,514.16	58.8514
9,849.61	84.1592	9,849.61	83.6338	9,849.61	82.483	9,849.61	82.0408	9,849.61	77.2149	9,849.61	74.6038	9,849.61	80.4783	9,849.61	77.1155	9,849.61	73.4745	9,849.61	76.9207	9,849.61	77.2739	9,849.61	73.1392	9,849.61	74.8483	9,849.61	70.1296	9,849.61	70.2449	9,849.61	64.4872	9,849.61	66.5691	9,849.61	62.7492	9,849.61	64.2467	9,849.61	62.2811	9,849.61	66.5283	9,849.61	59.3724	9,849.61	70.4402	9,849.61	60.4492	9,849.61	74.536	9,849.61	59.8816	9,849.61	73.6914	9,849.61	60.6962	9,849.61	68.7087	9,849.61	58.9055	9,849.61	55.5743	9,849.61	63.6005	9,849.61	52.19	9,849.61	64.1805	9,849.61	53.2317	9,849.61	59.9775
10,196.8	84.3651	10,196.8	83.7034	10,196.8	83.5396	10,196.8	81.6058	10,196.8	76.199	10,196.8	76.9749	10,196.8	79.7237	10,196.8	78.474	10,196.8	77.7569	10,196.8	79.0103	10,196.8	79.1227	10,196.8	74.3361	10,196.8	75.028	10,196.8	71.7135	10,196.8	70.0861	10,196.8	66.3671	10,196.8	65.5229	10,196.8	65.3473	10,196.8	64.6556	10,196.8	64.0848	10,196.8	67.0625	10,196.8	61.348	10,196.8	71.1576	10,196.8	60.1275	10,196.8	75.697	10,196.8	62.063	10,196.8	75.3134	10,196.8	63.2714	10,196.8	69.4599	10,196.8	61.2261	10,196.8	54.0462	10,196.8	62.1069	10,196.8	55.9525	10,196.8	67.1948	10,196.8	56.6217	10,196.8	60.7697
10,555.7	86.8978	10,555.7	84.6075	10,555.7	86.3665	10,555.7	81.7288	10,555.7	79.6577	10,555.7	80.5335	10,555.7	83.1296	10,555.7	81.9214	10,555.7	81.7139	10,555.7	81.5933	10,555.7	81.1526	10,555.7	76.6254	10,555.7	74.0048	10,555.7	73.9019	10,555.7	71.2471	10,555.7	69.4682	10,555.7	60.9623	10,555.7	68.5275	10,555.7	61.6106	10,555.7	66.2739	10,555.7	68.7053	10,555.7	62.8156	10,555.7	71.5871	10,555.7	63.4592	10,555.7	77.1817	10,555.7	62.6477	10,555.7	77.2638	10,555.7	65.3395	10,555.7	71.0806	10,555.7	62.7916	10,555.7	59.6253	10,555.7	58.0611	10,555.7	39.9899	10,555.7	67.3323	10,555.7	56.3817	10,555.7	63.6168
10,927.7	89.9258	10,927.7	87.0204	10,927.7	89.162	10,927.7	83.9005	10,927.7	82.3147	10,927.7	81.2952	10,927.7	83.9948	10,927.7	82.3884	10,927.7	81.9513	10,927.7	80.6798	10,927.7	79.4437	10,927.7	75.2574	10,927.7	69.4128	10,927.7	72.5541	10,927.7	69.5667	10,927.7	68.3059	10,927.7	59.4652	10,927.7	67.3912	10,927.7	58.4528	10,927.7	64.5095	10,927.7	64.7103	10,927.7	60.4118	10,927.7	68.2001	10,927.7	61.9687	10,927.7	72.5401	10,927.7	60.2347	10,927.7	74.2796	10,927.7	63.5903	10,927.7	69.5179	10,927.7	61.9324	10,927.7	50.9708	10,927.7	55.4301	10,927.7	54.1974	10,927.7	65.5144	10,927.7	53.9834	10,927.7	62.7492
11,313	89.6637	11,313	86.8933	11,313	88.5216	11,313	83.4101	11,313	80.9412	11,313	82.4167	11,313	82.619	11,313	83.4469	11,313	80.8127	11,313	80.3426	11,313	77.5587	11,313	74.9319	11,313	70.3892	11,313	73.8056	11,313	67.84	11,313	69.9373	11,313	67.6948	11,313	68.1115	11,313	58.9063	11,313	65.4307	11,313	61.3279	11,313	61.5906	11,313	61.1897	11,313	62.1062	11,313	72.66	11,313	60.0382	11,313	73.9082	11,313	64.1213	11,313	70.8201	11,313	64.0962	11,313	55.2135	11,313	56.5617	11,313	49.9035	11,313	66.1415	11,313	57.4065	11,313	61.9948
11,712.9	91.5337	11,712.9	89.4008	11,712.9	89.508	11,712.9	85.1367	11,712.9	83.5292	11,712.9	85.3748	11,712.9	80.7335	11,712.9	84.8161	11,712.9	83.2004	11,712.9	82.3184	11,712.9	78.8397	11,712.9	80.095	11,712.9	74.0997	11,712.9	78.8367	11,712.9	75.8456	11,712.9	74.6519	11,712.9	71.7955	11,712.9	71.9237	11,712.9	67.1685	11,712.9	68.4256	11,712.9	66.4538	11,712.9	65.3568	11,712.9	68.8448	11,712.9	64.7862	11,712.9	74.5069	11,712.9	64.5324	11,712.9	76.2422	11,712.9	65.8957	11,712.9	72.1714	11,712.9	67.8097	11,712.9	55.9344	11,712.9	59.6704	11,712.9	52.5911	11,712.9	68.4151	11,712.9	62.6521	11,712.9	67.101
12,126	90.5761	12,126	88.3867	12,126	89.1663	12,126	84.4115	12,126	85.5109	12,126	80.7008	12,126	79.4226	12,126	79.6618	12,126	80.0666	12,126	80.2234	12,126	73.3168	12,126	79.6533	12,126	71.7555	12,126	77.0507	12,126	75.6492	12,126	72.5931	12,126	69.9372	12,126	69.5333	12,126	64.6339	12,126	64.1416	12,126	65.3965	12,126	63.0874	12,126	69.3321	12,126	61.3472	12,126	71.2172	12,126	62.9379	12,126	73.3138	12,126	63.6793	12,126	67.3235	12,126	65.3234	12,126	58.5586	12,126	54.506	12,126	58.1447	12,126	64.7222	12,126	58.2304	12,126	64.7783
12,553.7	88.5986	12,553.7	86.3195	12,553.7	88.8564	12,553.7	83.0876	12,553.7	85.0936	12,553.7	74.1429	12,553.7	79.3112	12,553.7	74.8656	12,553.7	76.6427	12,553.7	77.8745	12,553.7	73.0683	12,553.7	77.8165	12,553.7	73.1972	12,553.7	74.2	12,553.7	72.941	12,553.7	69.4033	12,553.7	68.1089	12,553.7	66.7323	12,553.7	61.0466	12,553.7	60.6653	12,553.7	64.003	12,553.7	59.776	12,553.7	69.5908	12,553.7	57.2087	12,553.7	70.43	12,553.7	58.8974	12,553.7	71.018	12,553.7	62.0098	12,553.7	63.3093	12,553.7	61.6809	12,553.7	56.2892	12,553.7	46.8039	12,553.7	57.6112	12,553.7	61.4749	12,553.7	59.2965	12,553.7	63.0367
12,996.1	86.5151	12,996.1	84.5926	12,996.1	86.2724	12,996.1	78.1436	12,996.1	81.0265	12,996.1	53.5204	12,996.1	69.6835	12,996.1	65.2785	12,996.1	70.5214	12,996.1	73.3672	12,996.1	69.1549	12,996.1	73.423	12,996.1	69.2138	12,996.1	69.4505	12,996.1	67.2532	12,996.1	65.0577	12,996.1	60.4288	12,996.1	62.1727	12,996.1	54.2646	12,996.1	57.4698	12,996.1	61.0534	12,996.1	56.3296	12,996.1	67.4492	12,996.1	52.5526	12,996.1	69.0575	12,996.1	53.4474	12,996.1	68.8153	12,996.1	59.723	12,996.1	58.4181	12,996.1	55.7604	12,996.1	55.6296	12,996.1	54.5569	12,996.1	56.129	12,996.1	55.8842	12,996.1	58.0066	12,996.1	56.0221
13,454.6	86.6893	13,454.6	84.5758	13,454.6	84.7648	13,454.6	79.2366	13,454.6	75.6676	13,454.6	72.1936	13,454.6	65.1069	13,454.6	52.5034	13,454.6	65.2148	13,454.6	71.388	13,454.6	66.6636	13,454.6	72.5106	13,454.6	68.2318	13,454.6	68.7136	13,454.6	59.2912	13,454.6	65.4821	13,454.6	50.0389	13,454.6	62.3929	13,454.6	52.011	13,454.6	57.7157	13,454.6	59.5381	13,454.6	56.6521	13,454.6	66.2094	13,454.6	52.6923	13,454.6	68.7138	13,454.6	54.4398	13,454.6	67.6727	13,454.6	59.2691	13,454.6	54.7924	13,454.6	59.4742	13,454.6	49.552	13,454.6	53.7449	13,454.6	49.754	13,454.6	55.9438	13,454.6	50.1878	13,454.6	53.0134
13,929.2	88.8304	13,929.2	86.1179	13,929.2	86.4248	13,929.2	81.0572	13,929.2	78.8576	13,929.2	73.6962	13,929.2	71.1899	13,929.2	44.4776	13,929.2	69.2055	13,929.2	72.024	13,929.2	67.0189	13,929.2	72.1882	13,929.2	66.7604	13,929.2	67.3592	13,929.2	50.5021	13,929.2	63.6484	13,929.2	57.0291	13,929.2	61.7989	13,929.2	56.3924	13,929.2	55.8234	13,929.2	58.0931	13,929.2	55.9381	13,929.2	65.9938	13,929.2	46.9324	13,929.2	69.1195	13,929.2	52.9047	13,929.2	68.1671	13,929.2	58.4272	13,929.2	57.2173	13,929.2	59.4368	13,929.2	48.7672	13,929.2	48.5592	13,929.2	40.4731	13,929.2	55.1037	13,929.2	50.5178	13,929.2	53.3034
14,419.9	88.7076	14,419.9	85.6706	14,419.9	86.3678	14,419.9	80.1769	14,419.9	79.5001	14,419.9	71.1248	14,419.9	69.6262	14,419.9	44.1977	14,419.9	67.5679	14,419.9	70.6206	14,419.9	64.1267	14,419.9	68.8457	14,419.9	62.9884	14,419.9	63.1443	14,419.9	53.1398	14,419.9	59.6702	14,419.9	58.8809	14,419.9	59.0486	14,419.9	57.0955	14,419.9	53.9983	14,419.9	57.2677	14,419.9	54.6856	14,419.9	64.7473	14,419.9	40.3813	14,419.9	68.7269	14,419.9	50.0246	14,419.9	67.2522	14,419.9	55.4645	14,419.9	58.3877	14,419.9	56.6702	14,419.9	45.8433	14,419.9	44.4079	14,419.9	48.9276	14,419.9	52.498	14,419.9	39.9372	14,419.9	52.0368
14,928.2	86.5362	14,928.2	83.2826	14,928.2	84.7994	14,928.2	78.5107	14,928.2	78.1358	14,928.2	69.9145	14,928.2	67.7548	14,928.2	57.3787	14,928.2	62.9569	14,928.2	66.576	14,928.2	63.7804	14,928.2	63.6699	14,928.2	61.1312	14,928.2	57.5927	14,928.2	52.6482	14,928.2	55.7841	14,928.2	54.8411	14,928.2	54.5876	14,928.2	52.3292	14,928.2	50.4272	14,928.2	55.2355	14,928.2	51.1377	14,928.2	60.3833	14,928.2	19.569	14,928.2	65.0643	14,928.2	48.0594	14,928.2	62.9828	14,928.2	52.4559	14,928.2	53.2613	14,928.2	51.3134	14,928.2	46.5672	14,928.2	41.5759	14,928.2	47.5756	14,928.2	48.2069	14,928.2	46.9664	14,928.2	45.3698
15,455.6	85.1935	15,455.6	81.9211	15,455.6	83.2767	15,455.6	76.4861	15,455.6	74.6873	15,455.6	70.8805	15,455.6	65.5263	15,455.6	67.0374	15,455.6	66.84	15,455.6	65.4497	15,455.6	67.115	15,455.6	63.1364	15,455.6	63.0067	15,455.6	57.5911	15,455.6	59.7595	15,455.6	50.9334	15,455.6	53.2518	15,455.6	46.3628	15,455.6	48.0158	15,455.6	45.8597	15,455.6	50.8155	15,455.6	44.2715	15,455.6	56.3765	15,455.6	33.6689	15,455.6	58.6496	15,455.6	47.1845	15,455.6	58.1126	15,455.6	47.8377	15,455.6	50.9654	15,455.6	38.2011	15,455.6	33.5122	15,455.6	42.3346	15,455.6	37.9955	15,455.6	54.3963	15,455.6	49.4341	15,455.6	42.8848
16,000.5	83.9305	16,000.5	78.902	16,000.5	80.0538	16,000.5	70.2494	16,000.5	68.0738	16,000.5	73.2366	16,000.5	65.8498	16,000.5	72.4107	16,000.5	70.4444	16,000.5	69.0234	16,000.5	68.2968	16,000.5	61.7255	16,000.5	63.3367	16,000.5	59.7102	16,000.5	64.3218	16,000.5	53.2933	16,000.5	63.1128	16,000.5	52.3163	16,000.5	53.6247	16,000.5	41.2372	16,000.5	44.6004	16,000.5	44.8805	16,000.5	55.2184	16,000.5	41.1342	16,000.5	57.5236	16,000.5	29.391	16,000.5	53.0649	16,000.5	41.3055	16,000.5	47.3941	16,000.5	50.8059	16,000.5	44.8609	16,000.5	47.5577	16,000.5	47.2622	16,000.5	50.9596	16,000.5	52.8399	16,000.5	43.8267
16,564.5	84.6735	16,564.5	77.5701	16,564.5	82.024	16,564.5	72.1015	16,564.5	74.206	16,564.5	74.2435	16,564.5	61.6445	16,564.5	73.3046	16,564.5	70.4499	16,564.5	67.9798	16,564.5	68.7315	16,564.5	62.31	16,564.5	63.1551	16,564.5	61.927	16,564.5	65.9996	16,564.5	55.6922	16,564.5	64.3708	16,564.5	54.1612	16,564.5	53.7337	16,564.5	39.3132	16,564.5	52.273	16,564.5	46.1312	16,564.5	47.8709	16,564.5	44.458	16,564.5	59.401	16,564.5	29.8641	16,564.5	52.8983	16,564.5	34.7927	16,564.5	41.1558	16,564.5	54.3327	16,564.5	48.7507	16,564.5	51.8411	16,564.5	49.6306	16,564.5	50.8293	16,564.5	54.4402	16,564.5	46.5648
17,148.9	84.861	17,148.9	74.6611	17,148.9	83.7398	17,148.9	78.2001	17,148.9	77.6838	17,148.9	72.7337	17,148.9	60.5066	17,148.9	72.7915	17,148.9	70.8848	17,148.9	68.3106	17,148.9	72.0809	17,148.9	67.8696	17,148.9	65.0582	17,148.9	62.3477	17,148.9	67.499	17,148.9	53.7422	17,148.9	66.8546	17,148.9	51.0054	17,148.9	57.8552	17,148.9	43.9101	17,148.9	54.6208	17,148.9	45.9037	17,148.9	59.7096	17,148.9	46.8691	17,148.9	58.1151	17,148.9	42.1431	17,148.9	47.9059	17,148.9	48.9922	17,148.9	51.0542	17,148.9	54.6913	17,148.9	53.7836	17,148.9	57.9172	17,148.9	57.2111	17,148.9	53.1223	17,148.9	60.5443	17,148.9	46.8898
17,752.4	81.7589	17,752.4	79.8496	17,752.4	82.2956	17,752.4	79.5056	17,752.4	77.6895	17,752.4	69.7988	17,752.4	61.9539	17,752.4	71.5848	17,752.4	71.2166	17,752.4	69.4668	17,752.4	70.0461	17,752.4	66.821	17,752.4	66.3089	17,752.4	59.6356	17,752.4	66.1211	17,752.4	49.427	17,752.4	66.6275	17,752.4	43.7359	17,752.4	60.5104	17,752.4	47.779	17,752.4	53.0002	17,752.4	40.7916	17,752.4	63.8761	17,752.4	47.7526	17,752.4	62.427	17,752.4	36.7662	17,752.4	62.5049	17,752.4	47.0394	17,752.4	57.8528	17,752.4	53.2446	17,752.4	54.0859	17,752.4	58.9045	17,752.4	52.2376	17,752.4	49.4392	17,752.4	59.9794	17,752.4	44.1581
18,379.4	83.5324	18,379.4	84.3947	18,379.4	80.9155	18,379.4	76.0238	18,379.4	78.8339	18,379.4	62.9868	18,379.4	46.1346	18,379.4	70.3454	18,379.4	67.9148	18,379.4	66.2714	18,379.4	67.8613	18,379.4	46.2258	18,379.4	67.5303	18,379.4	58.4868	18,379.4	65.5763	18,379.4	56.5444	18,379.4	63.4368	18,379.4	51.1595	18,379.4	54.6742	18,379.4	48.1252	18,379.4	53.965	18,379.4	46.9005	18,379.4	64.5463	18,379.4	46.0513	18,379.4	67.1863	18,379.4	46.7189	18,379.4	64.987	18,379.4	51.6758	18,379.4	56.4457	18,379.4	46.9688	18,379.4	47.9132	18,379.4	57.6592	18,379.4	52.5719	18,379.4	49.8388	18,379.4	55.4674	18,379.4	41.5246
19,026.9	83.8837	19,026.9	85.0661	19,026.9	78.906	19,026.9	72.4256	19,026.9	76.0149	19,026.9	61.7749	19,026.9	61.5946	19,026.9	69.4099	19,026.9	61.0047	19,026.9	67.1968	19,026.9	68.4717	19,026.9	66.4253	19,026.9	68.3435	19,026.9	62.8751	19,026.9	58.4093	19,026.9	58.9109	19,026.9	55.2148	19,026.9	52.9275	19,026.9	46.8597	19,026.9	48.1902	19,026.9	55.4057	19,026.9	49.4475	19,026.9	63.7098	19,026.9	42.093	19,026.9	65.9762	19,026.9	51.974	19,026.9	60.8562	19,026.9	55.1453	19,026.9	46.6754	19,026.9	48.7329	19,026.9	54.1973	19,026.9	58.3062	19,026.9	55.4844	19,026.9	47.6529	19,026.9	54.0039	19,026.9	51.988
19,697.8	83.2404	19,697.8	81.8474	19,697.8	80.5141	19,697.8	68.1427	19,697.8	73.3038	19,697.8	63.676	19,697.8	55.213	19,697.8	71.2623	19,697.8	65.0754	19,697.8	69.3342	19,697.8	65.0572	19,697.8	64.6779	19,697.8	63.5043	19,697.8	58.0317	19,697.8	45.1294	19,697.8	54.3851	19,697.8	53.6192	19,697.8	45.8902	19,697.8	48.8777	19,697.8	44.4239	19,697.8	51.1921	19,697.8	48.6293	19,697.8	57.5628	19,697.8	40.2579	19,697.8	60.5451	19,697.8	51.2499	19,697.8	56.8992	19,697.8	53.8388	19,697.8	42.3666	19,697.8	50.4909	19,697.8	54.5674	19,697.8	58.237	19,697.8	56.0824	19,697.8	52.3703	19,697.8	55.1674	19,697.8	54.8521
19,999.5	81.6811	19,999.5	79.9518	19,999.5	79.3894	19,999.5	66.0826	19,999.5	71.6908	19,999.5	62.9406	19,999.5	45.9172	19,999.5	70.2981	19,999.5	65.712	19,999.5	66.5371	19,999.5	61.4877	19,999.5	59.9305	19,999.5	58.806	19,999.5	56.431	19,999.5	49.001	19,999.5	53.717	19,999.5	55.0104	19,999.5	47.4597	19,999.5	43.4509	19,999.5	35.6011	19,999.5	46.9698	19,999.5	47.4188	19,999.5	52.1205	19,999.5	41.3915	19,999.5	57.5856	19,999.5	51.2589	19,999.5	55.9171	19,999.5	52.3174	19,999.5	36.0293	19,999.5	42.4579	19,999.5	51.2945	19,999.5	59.2498	19,999.5	55.3183	19,999.5	48.7273	19,999.5	53.5294	19,999.5	54.5638
