"SPL Horizontal"																																																																							
"On-Axis"		"10°"		"-10°"		"20°"		"-20°"		"30°"		"-30°"		"40°"		"-40°"		"50°"		"-50°"		"60°"		"-60°"		"70°"		"-70°"		"80°"		"-80°"		"90°"		"-90°"		"100°"		"-100°"		"110°"		"-110°"		"120°"		"-120°"		"130°"		"-130°"		"140°"		"-140°"		"150°"		"-150°"		"160°"		"-160°"		"170°"		"-170°"		"180°"	
"Frequency / Hz"	"Sound Pressure Level / dB (re 20 µPa/V)  [2.83  V @ 1. m]"	"Frequency / Hz"	"Sound Pressure Level / dB (re 20 µPa/V)  [2.83  V @ 1. m]"	"Frequency / Hz"	"Sound Pressure Level / dB (re 20 µPa/V)  [2.83  V @ 1. m]"	"Frequency / Hz"	"Sound Pressure Level / dB (re 20 µPa/V)  [2.83  V @ 1. m]"	"Frequency / Hz"	"Sound Pressure Level / dB (re 20 µPa/V)  [2.83  V @ 1. m]"	"Frequency / Hz"	"Sound Pressure Level / dB (re 20 µPa/V)  [2.83  V @ 1. m]"	"Frequency / Hz"	"Sound Pressure Level / dB (re 20 µPa/V)  [2.83  V @ 1. m]"	"Frequency / Hz"	"Sound Pressure Level / dB (re 20 µPa/V)  [2.83  V @ 1. m]"	"Frequency / Hz"	"Sound Pressure Level / dB (re 20 µPa/V)  [2.83  V @ 1. m]"	"Frequency / Hz"	"Sound Pressure Level / dB (re 20 µPa/V)  [2.83  V @ 1. m]"	"Frequency / Hz"	"Sound Pressure Level / dB (re 20 µPa/V)  [2.83  V @ 1. m]"	"Frequency / Hz"	"Sound Pressure Level / dB (re 20 µPa/V)  [2.83  V @ 1. m]"	"Frequency / Hz"	"Sound Pressure Level / dB (re 20 µPa/V)  [2.83  V @ 1. m]"	"Frequency / Hz"	"Sound Pressure Level / dB (re 20 µPa/V)  [2.83  V @ 1. m]"	"Frequency / Hz"	"Sound Pressure Level / dB (re 20 µPa/V)  [2.83  V @ 1. m]"	"Frequency / Hz"	"Sound Pressure Level / dB (re 20 µPa/V)  [2.83  V @ 1. m]"	"Frequency / Hz"	"Sound Pressure Level / dB (re 20 µPa/V)  [2.83  V @ 1. m]"	"Frequency / Hz"	"Sound Pressure Level / dB (re 20 µPa/V)  [2.83  V @ 1. m]"	"Frequency / Hz"	"Sound Pressure Level / dB (re 20 µPa/V)  [2.83  V @ 1. m]"	"Frequency / Hz"	"Sound Pressure Level / dB (re 20 µPa/V)  [2.83  V @ 1. m]"	"Frequency / Hz"	"Sound Pressure Level / dB (re 20 µPa/V)  [2.83  V @ 1. m]"	"Frequency / Hz"	"Sound Pressure Level / dB (re 20 µPa/V)  [2.83  V @ 1. m]"	"Frequency / Hz"	"Sound Pressure Level / dB (re 20 µPa/V)  [2.83  V @ 1. m]"	"Frequency / Hz"	"Sound Pressure Level / dB (re 20 µPa/V)  [2.83  V @ 1. m]"	"Frequency / Hz"	"Sound Pressure Level / dB (re 20 µPa/V)  [2.83  V @ 1. m]"	"Frequency / Hz"	"Sound Pressure Level / dB (re 20 µPa/V)  [2.83  V @ 1. m]"	"Frequency / Hz"	"Sound Pressure Level / dB (re 20 µPa/V)  [2.83  V @ 1. m]"	"Frequency / Hz"	"Sound Pressure Level / dB (re 20 µPa/V)  [2.83  V @ 1. m]"	"Frequency / Hz"	"Sound Pressure Level / dB (re 20 µPa/V)  [2.83  V @ 1. m]"	"Frequency / Hz"	"Sound Pressure Level / dB (re 20 µPa/V)  [2.83  V @ 1. m]"	"Frequency / Hz"	"Sound Pressure Level / dB (re 20 µPa/V)  [2.83  V @ 1. m]"	"Frequency / Hz"	"Sound Pressure Level / dB (re 20 µPa/V)  [2.83  V @ 1. m]"	"Frequency / Hz"	"Sound Pressure Level / dB (re 20 µPa/V)  [2.83  V @ 1. m]"	"Frequency / Hz"	"Sound Pressure Level / dB (re 20 µPa/V)  [2.83  V @ 1. m]"	"Frequency / Hz"	"Sound Pressure Level / dB (re 20 µPa/V)  [2.83  V @ 1. m]"	"Frequency / Hz"	"Sound Pressure Level / dB (re 20 µPa/V)  [2.83  V @ 1. m]"
20.5078	36.5312	20.5078	36.6487	20.5078	36.4303	20.5078	36.7783	20.5078	36.3487	20.5078	36.9143	20.5078	36.2872	20.5078	37.0499	20.5078	36.2454	20.5078	37.1779	20.5078	36.2216	20.5078	37.2913	20.5078	36.2133	20.5078	37.3838	20.5078	36.2181	20.5078	37.4503	20.5078	36.2339	20.5078	37.4876	20.5078	36.2595	20.5078	37.4944	20.5078	36.2943	20.5078	37.4715	20.5078	36.3378	20.5078	37.4218	20.5078	36.39	20.5078	37.3498	20.5078	36.4504	20.5078	37.2613	20.5078	36.5182	20.5078	37.1623	20.5078	36.593	20.5078	37.0588	20.5078	36.6744	20.5078	36.9556	20.5078	36.7621	20.5078	36.8561
21.9727	36.3736	21.9727	36.4711	21.9727	36.2956	21.9727	36.5825	21.9727	36.2412	21.9727	36.7007	21.9727	36.2123	21.9727	36.8185	21.9727	36.2083	21.9727	36.9288	21.9727	36.2267	21.9727	37.0253	21.9727	36.2628	21.9727	37.1032	21.9727	36.3111	21.9727	37.1586	21.9727	36.3652	21.9727	37.1896	21.9727	36.4194	21.9727	37.1954	21.9727	36.469	21.9727	37.1767	21.9727	36.511	21.9727	37.1361	21.9727	36.5447	21.9727	37.0775	21.9727	36.5711	21.9727	37.0063	21.9727	36.5932	21.9727	36.929	21.9727	36.615	21.9727	36.8523	21.9727	36.6413	21.9727	36.7822	21.9727	36.6763	21.9727	36.723
23.4375	33.2812	23.4375	33.254	23.4375	33.2899	23.4375	33.2104	23.4375	33.2785	23.4375	33.153	23.4375	33.2461	23.4375	33.0846	23.4375	33.1926	23.4375	33.0083	23.4375	33.1187	23.4375	32.9274	23.4375	33.0264	23.4375	32.8447	23.4375	32.9189	23.4375	32.763	23.4375	32.8009	23.4375	32.6842	23.4375	32.6782	23.4375	32.6098	23.4375	32.5576	23.4375	32.5405	23.4375	32.4461	23.4375	32.4765	23.4375	32.3496	23.4375	32.4176	23.4375	32.2729	23.4375	32.3635	23.4375	32.2183	23.4375	32.314	23.4375	32.186	23.4375	32.2695	23.4375	32.1744	23.4375	32.231	23.4375	32.1804	23.4375	32.2004
24.9023	38.1501	24.9023	38.188	24.9023	38.1136	24.9023	38.2266	24.9023	38.0793	24.9023	38.2657	24.9023	38.0481	24.9023	38.3047	24.9023	38.0215	24.9023	38.3432	24.9023	38.001	24.9023	38.3807	24.9023	37.9883	24.9023	38.4165	24.9023	37.9851	24.9023	38.4497	24.9023	37.9929	24.9023	38.4793	24.9023	38.0125	24.9023	38.5042	24.9023	38.044	24.9023	38.5236	24.9023	38.0865	24.9023	38.5365	24.9023	38.1377	24.9023	38.5425	24.9023	38.195	24.9023	38.5412	24.9023	38.2547	24.9023	38.5324	24.9023	38.3136	24.9023	38.5158	24.9023	38.3685	24.9023	38.4912	24.9023	38.4172	24.9023	38.4583
26.3672	38.1487	26.3672	38.0817	26.3672	38.2044	26.3672	38.0052	26.3672	38.2479	26.3672	37.9218	26.3672	38.2785	26.3672	37.8344	26.3672	38.2962	26.3672	37.7468	26.3672	38.3012	26.3672	37.6625	26.3672	38.294	26.3672	37.5851	26.3672	38.2751	26.3672	37.5176	26.3672	38.245	26.3672	37.4622	26.3672	38.2044	26.3672	37.4202	26.3672	38.1536	26.3672	37.3921	26.3672	38.0934	26.3672	37.3777	26.3672	38.0248	26.3672	37.3769	26.3672	37.9494	26.3672	37.389	26.3672	37.8693	26.3672	37.4139	26.3672	37.7873	26.3672	37.4511	26.3672	37.7064	26.3672	37.5002	26.3672	37.6298	26.3672	37.5603
27.832	41.4949	27.832	41.4893	27.832	41.5093	27.832	41.4926	27.832	41.532	27.832	41.5049	27.832	41.5625	27.832	41.5257	27.832	41.6006	27.832	41.5546	27.832	41.6462	27.832	41.5912	27.832	41.699	27.832	41.6351	27.832	41.7588	27.832	41.6863	27.832	41.8248	27.832	41.7447	27.832	41.8955	27.832	41.8096	27.832	41.9689	27.832	41.8802	27.832	42.0421	27.832	41.9544	27.832	42.1121	27.832	42.0295	27.832	42.1755	27.832	42.1019	27.832	42.2289	27.832	42.168	27.832	42.2694	27.832	42.2239	27.832	42.2945	27.832	42.2664	27.832	42.3027	27.832	42.2932
29.2969	41.7649	29.2969	41.7491	29.2969	41.7786	29.2969	41.7312	29.2969	41.7901	29.2969	41.7113	29.2969	41.7991	29.2969	41.6894	29.2969	41.8055	29.2969	41.6658	29.2969	41.8093	29.2969	41.641	29.2969	41.8103	29.2969	41.6158	29.2969	41.8087	29.2969	41.5912	29.2969	41.8045	29.2969	41.5686	29.2969	41.7978	29.2969	41.5493	29.2969	41.7885	29.2969	41.5349	29.2969	41.7765	29.2969	41.5264	29.2969	41.7617	29.2969	41.5248	29.2969	41.7437	29.2969	41.5306	29.2969	41.7225	29.2969	41.5434	29.2969	41.6983	29.2969	41.5626	29.2969	41.6714	29.2969	41.5867	29.2969	41.6429	29.2969	41.6141
30.7617	42.5495	30.7617	42.5287	30.7617	42.5647	30.7617	42.5024	30.7617	42.5747	30.7617	42.4711	30.7617	42.58	30.7617	42.4361	30.7617	42.5812	30.7617	42.3988	30.7617	42.5789	30.7617	42.3612	30.7617	42.5738	30.7617	42.3252	30.7617	42.5659	30.7617	42.2927	30.7617	42.5556	30.7617	42.2651	30.7617	42.5426	30.7617	42.2431	30.7617	42.5268	30.7617	42.2275	30.7617	42.5081	30.7617	42.2183	30.7617	42.486	30.7617	42.2159	30.7617	42.4607	30.7617	42.2204	30.7617	42.4321	30.7617	42.2317	30.7617	42.4009	30.7617	42.2498	30.7617	42.3679	30.7617	42.2738	30.7617	42.3345	30.7617	42.3026
32.2266	43.6311	32.2266	43.5929	32.2266	43.665	32.2266	43.5512	32.2266	43.6939	32.2266	43.5071	32.2266	43.7169	32.2266	43.4616	32.2266	43.7336	32.2266	43.4159	32.2266	43.7435	32.2266	43.3713	32.2266	43.7463	32.2266	43.3293	32.2266	43.7419	32.2266	43.2913	32.2266	43.7304	32.2266	43.2587	32.2266	43.7122	32.2266	43.2326	32.2266	43.6875	32.2266	43.2141	32.2266	43.657	32.2266	43.2043	32.2266	43.6211	32.2266	43.2039	32.2266	43.5805	32.2266	43.2135	32.2266	43.5359	32.2266	43.233	32.2266	43.4883	32.2266	43.2618	32.2266	43.439	32.2266	43.2987	32.2266	43.3895	32.2266	43.342
33.6914	45.0783	33.6914	45.0473	33.6914	45.1074	33.6914	45.0149	33.6914	45.1344	33.6914	44.9821	33.6914	45.1591	33.6914	44.9498	33.6914	45.1814	33.6914	44.9197	33.6914	45.2012	33.6914	44.8932	33.6914	45.2181	33.6914	44.872	33.6914	45.2321	33.6914	44.8573	33.6914	45.2425	33.6914	44.8501	33.6914	45.249	33.6914	44.8508	33.6914	45.2511	33.6914	44.8594	33.6914	45.2481	33.6914	44.8757	33.6914	45.2397	33.6914	44.899	33.6914	45.2255	33.6914	44.9282	33.6914	45.2056	33.6914	44.9622	33.6914	45.1801	33.6914	44.9995	33.6914	45.1496	33.6914	45.0384	33.6914	45.115	33.6914	45.0774
35.1562	45.7093	35.1562	45.6709	35.1562	45.7441	35.1562	45.6297	35.1562	45.7751	35.1562	45.5868	35.1562	45.8021	35.1562	45.5437	35.1562	45.825	35.1562	45.5023	35.1562	45.8439	35.1562	45.4646	35.1562	45.8588	35.1562	45.4328	35.1562	45.8697	35.1562	45.4087	35.1562	45.8766	35.1562	45.3941	35.1562	45.8794	35.1562	45.39	35.1562	45.8779	35.1562	45.397	35.1562	45.8716	35.1562	45.4148	35.1562	45.8602	35.1562	45.4427	35.1562	45.8431	35.1562	45.4791	35.1562	45.8198	35.1562	45.5222	35.1562	45.7902	35.1562	45.5694	35.1562	45.7543	35.1562	45.6185	35.1562	45.7129	35.1562	45.667
36.6211	47.3421	36.6211	47.3296	36.6211	47.3493	36.6211	47.3125	36.6211	47.3504	36.6211	47.2919	36.6211	47.3452	36.6211	47.2686	36.6211	47.3336	36.6211	47.2435	36.6211	47.3158	36.6211	47.2173	36.6211	47.2925	36.6211	47.1905	36.6211	47.265	36.6211	47.1636	36.6211	47.2346	36.6211	47.137	36.6211	47.2028	36.6211	47.1112	36.6211	47.1711	36.6211	47.0869	36.6211	47.1409	36.6211	47.0649	36.6211	47.1129	36.6211	47.0459	36.6211	47.088	36.6211	47.0307	36.6211	47.0663	36.6211	47.0198	36.6211	47.048	36.6211	47.0135	36.6211	47.0332	36.6211	47.0119	36.6211	47.0221	36.6211	47.0149
38.0859	47.6293	38.0859	47.602	38.0859	47.6545	38.0859	47.5736	38.0859	47.6768	38.0859	47.5447	38.0859	47.6952	38.0859	47.5164	38.0859	47.7092	38.0859	47.4893	38.0859	47.7182	38.0859	47.4643	38.0859	47.722	38.0859	47.4421	38.0859	47.7209	38.0859	47.4235	38.0859	47.7152	38.0859	47.4093	38.0859	47.7056	38.0859	47.4001	38.0859	47.6927	38.0859	47.3968	38.0859	47.6771	38.0859	47.3996	38.0859	47.6593	38.0859	47.4085	38.0859	47.6395	38.0859	47.4231	38.0859	47.6179	38.0859	47.4426	38.0859	47.5947	38.0859	47.4656	38.0859	47.57	38.0859	47.491	38.0859	47.5441	38.0859	47.5175
39.5508	49.0235	39.5508	48.9998	39.5508	49.0495	39.5508	48.9791	39.5508	49.0768	39.5508	48.9623	39.5508	49.1046	39.5508	48.95	39.5508	49.1318	39.5508	48.9425	39.5508	49.1577	39.5508	48.9402	39.5508	49.1816	39.5508	48.943	39.5508	49.2029	39.5508	48.9509	39.5508	49.2213	39.5508	48.9634	39.5508	49.2363	39.5508	48.9802	39.5508	49.2479	39.5508	49.0008	39.5508	49.2557	39.5508	49.0247	39.5508	49.2594	39.5508	49.0511	39.5508	49.2589	39.5508	49.0792	39.5508	49.254	39.5508	49.1082	39.5508	49.2444	39.5508	49.137	39.5508	49.2303	39.5508	49.1645	39.5508	49.212	39.5508	49.1898
41.0156	49.2717	41.0156	49.2445	41.0156	49.2939	41.0156	49.2132	41.0156	49.3101	41.0156	49.1788	41.0156	49.3196	41.0156	49.1424	41.0156	49.322	41.0156	49.105	41.0156	49.317	41.0156	49.0677	41.0156	49.3046	41.0156	49.0314	41.0156	49.2855	41.0156	48.9969	41.0156	49.2606	41.0156	48.9648	41.0156	49.2309	41.0156	48.9359	41.0156	49.1978	41.0156	48.9109	41.0156	49.1623	41.0156	48.8905	41.0156	49.1253	41.0156	48.8756	41.0156	49.0874	41.0156	48.8673	41.0156	49.0491	41.0156	48.8665	41.0156	49.0111	41.0156	48.8737	41.0156	48.9745	41.0156	48.889	41.0156	48.9408	41.0156	48.9117
42.4805	50.2209	42.4805	50.2095	42.4805	50.2334	42.4805	50.1997	42.4805	50.2465	42.4805	50.1914	42.4805	50.2593	42.4805	50.1847	42.4805	50.271	42.4805	50.1792	42.4805	50.2807	42.4805	50.1743	42.4805	50.2874	42.4805	50.1696	42.4805	50.2904	42.4805	50.1645	42.4805	50.2888	42.4805	50.1588	42.4805	50.2825	42.4805	50.1523	42.4805	50.2716	42.4805	50.1452	42.4805	50.2565	42.4805	50.1379	42.4805	50.2381	42.4805	50.1309	42.4805	50.2175	42.4805	50.1251	42.4805	50.1963	42.4805	50.1214	42.4805	50.1758	42.4805	50.1206	42.4805	50.1574	42.4805	50.1236	42.4805	50.1421	42.4805	50.1307
43.9453	51.1863	43.9453	51.1516	43.9453	51.2159	43.9453	51.1128	43.9453	51.2395	43.9453	51.071	43.9453	51.2565	43.9453	51.0273	43.9453	51.2663	43.9453	50.9828	43.9453	51.2684	43.9453	50.9388	43.9453	51.2627	43.9453	50.8964	43.9453	51.2492	43.9453	50.8568	43.9453	51.2282	43.9453	50.821	43.9453	51.2001	43.9453	50.79	43.9453	51.1657	43.9453	50.7648	43.9453	51.1258	43.9453	50.7464	43.9453	51.0815	43.9453	50.7355	43.9453	51.0343	43.9453	50.7328	43.9453	50.9855	43.9453	50.7388	43.9453	50.9368	43.9453	50.7537	43.9453	50.8899	43.9453	50.7772	43.9453	50.8466	43.9453	50.8086
45.4102	51.4217	45.4102	51.4081	45.4102	51.4334	45.4102	51.3928	45.4102	51.4431	45.4102	51.376	45.4102	51.4505	45.4102	51.358	45.4102	51.4557	45.4102	51.3392	45.4102	51.4586	45.4102	51.3202	45.4102	51.4591	45.4102	51.3016	45.4102	51.4574	45.4102	51.2843	45.4102	51.4536	45.4102	51.2692	45.4102	51.4476	45.4102	51.2572	45.4102	51.4395	45.4102	51.2492	45.4102	51.4296	45.4102	51.2458	45.4102	51.4177	45.4102	51.2474	45.4102	51.404	45.4102	51.2538	45.4102	51.3886	45.4102	51.2646	45.4102	51.3717	45.4102	51.2791	45.4102	51.3534	45.4102	51.2962	45.4102	51.3343	45.4102	51.3149
46.875	52.6005	46.875	52.5826	46.875	52.6143	46.875	52.5611	46.875	52.6236	46.875	52.5364	46.875	52.6281	46.875	52.5088	46.875	52.6273	46.875	52.4789	46.875	52.6211	46.875	52.4471	46.875	52.6092	46.875	52.4139	46.875	52.5918	46.875	52.3799	46.875	52.569	46.875	52.346	46.875	52.5412	46.875	52.3131	46.875	52.5091	46.875	52.2825	46.875	52.4734	46.875	52.2554	46.875	52.4352	46.875	52.2332	46.875	52.3958	46.875	52.2173	46.875	52.3566	46.875	52.2088	46.875	52.3191	46.875	52.2084	46.875	52.2849	46.875	52.2163	46.875	52.2554	46.875	52.2322
48.3398	53.3386	48.3398	53.3161	48.3398	53.3567	48.3398	53.29	48.3398	53.3697	48.3398	53.2612	48.3398	53.3768	48.3398	53.2307	48.3398	53.3777	48.3398	53.1995	48.3398	53.372	48.3398	53.1685	48.3398	53.3596	48.3398	53.1387	48.3398	53.3406	48.3398	53.1108	48.3398	53.3156	48.3398	53.0854	48.3398	53.2856	48.3398	53.0631	48.3398	53.2517	48.3398	53.044	48.3398	53.2155	48.3398	53.0284	48.3398	53.1786	48.3398	53.0166	48.3398	53.1428	48.3398	53.0085	48.3398	53.1093	48.3398	53.0046	48.3398	53.0796	48.3398	53.0048	48.3398	53.0544	48.3398	53.0097	48.3398	53.0343	48.3398	53.0194
51.2695	55.0741	51.2695	55.0453	51.2695	55.0973	51.2695	55.0115	51.2695	55.1145	51.2695	54.9735	51.2695	55.1256	51.2695	54.9323	51.2695	55.1306	51.2695	54.8893	51.2695	55.1297	51.2695	54.846	51.2695	55.123	51.2695	54.8042	51.2695	55.1108	51.2695	54.7653	51.2695	55.0934	51.2695	54.7312	51.2695	55.0711	51.2695	54.7031	51.2695	55.0446	51.2695	54.6823	51.2695	55.0142	51.2695	54.6694	51.2695	54.9805	51.2695	54.6651	51.2695	54.9444	51.2695	54.6691	51.2695	54.9065	51.2695	54.6812	51.2695	54.8677	51.2695	54.7005	51.2695	54.829	51.2695	54.7262	51.2695	54.7918	51.2695	54.7571
52.7344	55.6912	52.7344	55.6749	52.7344	55.7035	52.7344	55.655	52.7344	55.7115	52.7344	55.6321	52.7344	55.7153	52.7344	55.6069	52.7344	55.7148	52.7344	55.5805	52.7344	55.7103	52.7344	55.5537	52.7344	55.7021	52.7344	55.5277	52.7344	55.6905	52.7344	55.5036	52.7344	55.676	52.7344	55.4822	52.7344	55.6591	52.7344	55.4643	52.7344	55.6402	52.7344	55.4506	52.7344	55.6199	52.7344	55.4414	52.7344	55.5986	52.7344	55.4369	52.7344	55.5768	52.7344	55.4369	52.7344	55.555	52.7344	55.4413	52.7344	55.5336	52.7344	55.4498	52.7344	55.5131	52.7344	55.4617	52.7344	55.4939	52.7344	55.4766
54.1992	56.216	54.1992	56.1991	54.1992	56.2286	54.1992	56.1783	54.1992	56.2364	54.1992	56.1543	54.1992	56.2389	54.1992	56.1274	54.1992	56.2358	54.1992	56.0983	54.1992	56.2266	54.1992	56.0675	54.1992	56.2112	54.1992	56.0355	54.1992	56.1895	54.1992	56.0032	54.1992	56.1619	54.1992	55.971	54.1992	56.1291	54.1992	55.9397	54.1992	56.092	54.1992	55.9102	54.1992	56.0521	54.1992	55.8832	54.1992	56.0109	54.1992	55.8598	54.1992	55.9701	54.1992	55.8409	54.1992	55.9316	54.1992	55.8277	54.1992	55.897	54.1992	55.8209	54.1992	55.8677	54.1992	55.8213	54.1992	55.8449	54.1992	55.8293
55.6641	56.9136	55.6641	56.9041	55.6641	56.9216	55.6641	56.8933	55.6641	56.9278	55.6641	56.8818	55.6641	56.9318	55.6641	56.8697	55.6641	56.9335	55.6641	56.8574	55.6641	56.9325	55.6641	56.8451	55.6641	56.9289	55.6641	56.833	55.6641	56.9226	55.6641	56.8214	55.6641	56.9136	55.6641	56.8103	55.6641	56.9023	55.6641	56.7999	55.6641	56.8888	55.6641	56.7905	55.6641	56.8736	55.6641	56.7822	55.6641	56.8574	55.6641	56.7755	55.6641	56.8408	55.6641	56.7705	55.6641	56.8246	55.6641	56.7678	55.6641	56.8093	55.6641	56.7677	55.6641	56.7959	55.6641	56.7705	55.6641	56.7846	55.6641	56.7761
58.5938	58.2901	58.5938	58.2732	58.5938	58.3029	58.5938	58.2532	58.5938	58.3109	58.5938	58.2307	58.5938	58.3134	58.5938	58.2069	58.5938	58.3099	58.5938	58.1823	58.5938	58.3001	58.5938	58.1577	58.5938	58.284	58.5938	58.1337	58.5938	58.262	58.5938	58.1105	58.5938	58.2347	58.5938	58.0884	58.5938	58.2033	58.5938	58.0675	58.5938	58.1691	58.5938	58.0479	58.5938	58.1339	58.5938	58.0297	58.5938	58.0994	58.5938	58.0132	58.5938	58.0671	58.5938	57.999	58.5938	58.0384	58.5938	57.9875	58.5938	58.0146	58.5938	57.9795	58.5938	57.9962	58.5938	57.9758	58.5938	57.9837	58.5938	57.977
60.0586	59.091	60.0586	59.1028	60.0586	59.0745	60.0586	59.1096	60.0586	59.0534	60.0586	59.1113	60.0586	59.0282	60.0586	59.1079	60.0586	58.9995	60.0586	59.0995	60.0586	58.968	60.0586	59.0863	60.0586	58.9344	60.0586	59.0684	60.0586	58.8997	60.0586	59.0462	60.0586	58.8649	60.0586	59.0201	60.0586	58.8313	60.0586	58.9907	60.0586	58.8	60.0586	58.9587	60.0586	58.7721	60.0586	58.9249	60.0586	58.7488	60.0586	58.8903	60.0586	58.7312	60.0586	58.8559	60.0586	58.7198	60.0586	58.8229	60.0586	58.7154	60.0586	58.7924	60.0586	58.7181	60.0586	58.7657	60.0586	58.7277	60.0586	58.7438
62.9883	59.9396	62.9883	59.9408	62.9883	59.9331	62.9883	59.9368	62.9883	59.9214	62.9883	59.9278	62.9883	59.9048	62.9883	59.9142	62.9883	59.8836	62.9883	59.8966	62.9883	59.8588	62.9883	59.8755	62.9883	59.831	62.9883	59.8516	62.9883	59.8013	62.9883	59.8257	62.9883	59.7708	62.9883	59.7986	62.9883	59.7405	62.9883	59.771	62.9883	59.7116	62.9883	59.7438	62.9883	59.6849	62.9883	59.7177	62.9883	59.6615	62.9883	59.6933	62.9883	59.642	62.9883	59.6712	62.9883	59.6269	62.9883	59.652	62.9883	59.6167	62.9883	59.6359	62.9883	59.6113	62.9883	59.6235	62.9883	59.6108	62.9883	59.615
64.4531	60.4542	64.4531	60.4449	64.4531	60.4591	64.4531	60.4316	64.4531	60.4591	64.4531	60.415	64.4531	60.454	64.4531	60.3958	64.4531	60.4438	64.4531	60.3746	64.4531	60.4288	64.4531	60.3522	64.4531	60.4096	64.4531	60.3289	64.4531	60.3866	64.4531	60.3053	64.4531	60.3607	64.4531	60.2819	64.4531	60.3329	64.4531	60.2592	64.4531	60.3042	64.4531	60.2375	64.4531	60.2757	64.4531	60.2174	64.4531	60.2484	64.4531	60.1993	64.4531	60.2234	64.4531	60.1838	64.4531	60.2015	64.4531	60.1714	64.4531	60.1835	64.4531	60.1625	64.4531	60.17	64.4531	60.1576	64.4531	60.1612	64.4531	60.1571
67.3828	61.7534	67.3828	61.7427	67.3828	61.759	67.3828	61.7273	67.3828	61.7592	67.3828	61.7081	67.3828	61.7539	67.3828	61.6857	67.3828	61.7433	67.3828	61.6613	67.3828	61.7278	67.3828	61.6357	67.3828	61.7081	67.3828	61.6099	67.3828	61.6849	67.3828	61.5849	67.3828	61.6593	67.3828	61.5614	67.3828	61.6321	67.3828	61.5401	67.3828	61.6045	67.3828	61.5213	67.3828	61.5774	67.3828	61.5053	67.3828	61.552	67.3828	61.492	67.3828	61.529	67.3828	61.4815	67.3828	61.5092	67.3828	61.4737	67.3828	61.4929	67.3828	61.4686	67.3828	61.4806	67.3828	61.4665	67.3828	61.4722	67.3828	61.4676
68.8477	62.2792	68.8477	62.2738	68.8477	62.2806	68.8477	62.2648	68.8477	62.2776	68.8477	62.2527	68.8477	62.2702	68.8477	62.2382	68.8477	62.2586	68.8477	62.2221	68.8477	62.2431	68.8477	62.2048	68.8477	62.2242	68.8477	62.1871	68.8477	62.2028	68.8477	62.1695	68.8477	62.1797	68.8477	62.1524	68.8477	62.156	68.8477	62.1361	68.8477	62.1326	68.8477	62.1208	68.8477	62.1106	68.8477	62.1065	68.8477	62.0909	68.8477	62.0933	68.8477	62.0743	68.8477	62.0813	68.8477	62.0614	68.8477	62.0706	68.8477	62.0524	68.8477	62.0613	68.8477	62.0475	68.8477	62.0538	68.8477	62.0464	68.8477	62.0487
71.7773	63.1677	71.7773	63.1603	71.7773	63.1715	71.7773	63.1497	71.7773	63.1715	71.7773	63.1365	71.7773	63.1678	71.7773	63.1213	71.7773	63.1605	71.7773	63.1048	71.7773	63.15	71.7773	63.088	71.7773	63.1369	71.7773	63.0715	71.7773	63.1218	71.7773	63.056	71.7773	63.1054	71.7773	63.0422	71.7773	63.0886	71.7773	63.0305	71.7773	63.072	71.7773	63.0209	71.7773	63.0564	71.7773	63.0135	71.7773	63.0423	71.7773	63.0081	71.7773	63.0302	71.7773	63.0043	71.7773	63.0203	71.7773	63.0019	71.7773	63.0126	71.7773	63.0007	71.7773	63.0071	71.7773	63.0005	71.7773	63.0034	71.7773	63.0013
74.707	64.1809	74.707	64.1719	74.707	64.1857	74.707	64.1593	74.707	64.1862	74.707	64.1436	74.707	64.1825	74.707	64.1256	74.707	64.1748	74.707	64.1061	74.707	64.1636	74.707	64.0861	74.707	64.1495	74.707	64.0664	74.707	64.1333	74.707	64.048	74.707	64.1158	74.707	64.0315	74.707	64.0979	74.707	64.0175	74.707	64.0803	74.707	64.0064	74.707	64.0638	74.707	63.9981	74.707	64.0487	74.707	63.9928	74.707	64.0356	74.707	63.99	74.707	64.0244	74.707	63.9894	74.707	64.0152	74.707	63.9905	74.707	64.0076	74.707	63.993	74.707	64.0015	74.707	63.9967
77.6367	65.0858	77.6367	65.0779	77.6367	65.0892	77.6367	65.0659	77.6367	65.0879	77.6367	65.0505	77.6367	65.082	77.6367	65.0323	77.6367	65.0718	77.6367	65.0124	77.6367	65.0577	77.6367	64.9916	77.6367	65.0404	77.6367	64.971	77.6367	65.0208	77.6367	64.9516	77.6367	64.9998	77.6367	64.9341	77.6367	64.9785	77.6367	64.9191	77.6367	64.958	77.6367	64.907	77.6367	64.9391	77.6367	64.8977	77.6367	64.9227	77.6367	64.8911	77.6367	64.9092	77.6367	64.8868	77.6367	64.8988	77.6367	64.8841	77.6367	64.8914	77.6367	64.8827	77.6367	64.8866	77.6367	64.8821	77.6367	64.8838	77.6367	64.8824
79.1016	65.5414	79.1016	65.5323	79.1016	65.5462	79.1016	65.5194	79.1016	65.5466	79.1016	65.5034	79.1016	65.5425	79.1016	65.4851	79.1016	65.534	79.1016	65.4652	79.1016	65.5217	79.1016	65.4448	79.1016	65.5061	79.1016	65.4249	79.1016	65.488	79.1016	65.4061	79.1016	65.4684	79.1016	65.3894	79.1016	65.4482	79.1016	65.3751	79.1016	65.4284	79.1016	65.3637	79.1016	65.4099	79.1016	65.3551	79.1016	65.3935	79.1016	65.3492	79.1016	65.3796	79.1016	65.3456	79.1016	65.3685	79.1016	65.344	79.1016	65.36	79.1016	65.3438	79.1016	65.3538	79.1016	65.3446	79.1016	65.3494	79.1016	65.3465
82.0312	66.4199	82.0312	66.4082	82.0312	66.4263	82.0312	66.3917	82.0312	66.4271	82.0312	66.3711	82.0312	66.4224	82.0312	66.3474	82.0312	66.4126	82.0312	66.3217	82.0312	66.3983	82.0312	66.2953	82.0312	66.3802	82.0312	66.2695	82.0312	66.3593	82.0312	66.2455	82.0312	66.3367	82.0312	66.2241	82.0312	66.3134	82.0312	66.2063	82.0312	66.2906	82.0312	66.1923	82.0312	66.2691	82.0312	66.1823	82.0312	66.2496	82.0312	66.176	82.0312	66.2326	82.0312	66.173	82.0312	66.2182	82.0312	66.1728	82.0312	66.2065	82.0312	66.1747	82.0312	66.1969	82.0312	66.1782	82.0312	66.1892	82.0312	66.183
84.9609	67.3265	84.9609	67.3174	84.9609	67.3306	84.9609	67.3036	84.9609	67.3294	84.9609	67.2858	84.9609	67.3231	84.9609	67.2651	84.9609	67.3122	84.9609	67.2425	84.9609	67.2974	84.9609	67.2195	84.9609	67.2794	84.9609	67.1972	84.9609	67.2594	84.9609	67.1769	84.9609	67.2385	84.9609	67.1594	84.9609	67.2176	84.9609	67.1454	84.9609	67.1979	84.9609	67.1351	84.9609	67.1803	84.9609	67.1282	84.9609	67.1652	84.9609	67.1243	84.9609	67.1531	84.9609	67.1228	84.9609	67.144	84.9609	67.123	84.9609	67.1374	84.9609	67.124	84.9609	67.1328	84.9609	67.1256	84.9609	67.1297	84.9609	67.1274
87.8906	68.0886	87.8906	68.0776	87.8906	68.093	87.8906	68.0602	87.8906	68.0911	87.8906	68.037	87.8906	68.0835	87.8906	68.009	87.8906	68.071	87.8906	67.9776	87.8906	68.0548	87.8906	67.9444	87.8906	68.036	87.8906	67.9112	87.8906	68.0159	87.8906	67.8801	87.8906	67.9956	87.8906	67.8528	87.8906	67.976	87.8906	67.8309	87.8906	67.9578	87.8906	67.8153	87.8906	67.9414	87.8906	67.8065	87.8906	67.9267	87.8906	67.8043	87.8906	67.9135	87.8906	67.8079	87.8906	67.9014	87.8906	67.8158	87.8906	67.8896	87.8906	67.8268	87.8906	67.8778	87.8906	67.8395	87.8906	67.8655	87.8906	67.8526
90.8203	68.8617	90.8203	68.8413	90.8203	68.8769	90.8203	68.8165	90.8203	68.8862	90.8203	68.7887	90.8203	68.8894	90.8203	68.7592	90.8203	68.8867	90.8203	68.7297	90.8203	68.8787	90.8203	68.7017	90.8203	68.8661	90.8203	68.677	90.8203	68.8504	90.8203	68.6568	90.8203	68.8327	90.8203	68.6423	90.8203	68.8146	90.8203	68.6341	90.8203	68.7972	90.8203	68.6323	90.8203	68.7816	90.8203	68.6365	90.8203	68.7684	90.8203	68.6457	90.8203	68.7576	90.8203	68.6585	90.8203	68.7488	90.8203	68.6732	90.8203	68.7411	90.8203	68.6883	90.8203	68.7336	90.8203	68.7024	90.8203	68.725	90.8203	68.7147
95.2148	70.193	95.2148	70.1884	95.2148	70.1907	95.2148	70.1775	95.2148	70.1815	95.2148	70.1612	95.2148	70.1656	95.2148	70.1406	95.2148	70.1437	95.2148	70.117	95.2148	70.1169	95.2148	70.092	95.2148	70.0866	95.2148	70.0671	95.2148	70.0547	95.2148	70.0438	95.2148	70.0231	95.2148	70.0232	95.2148	69.9937	95.2148	70.006	95.2148	69.9684	95.2148	69.9927	95.2148	69.9484	95.2148	69.9828	95.2148	69.9346	95.2148	69.9759	95.2148	69.927	95.2148	69.9707	95.2148	69.9252	95.2148	69.9663	95.2148	69.9279	95.2148	69.9615	95.2148	69.9338	95.2148	69.9558	95.2148	69.9412	95.2148	69.9489
98.1445	70.9523	98.1445	70.9454	98.1445	70.9509	98.1445	70.9304	98.1445	70.941	98.1445	70.9083	98.1445	70.9233	98.1445	70.8801	98.1445	70.8984	98.1445	70.8476	98.1445	70.8676	98.1445	70.8125	98.1445	70.8325	98.1445	70.7766	98.1445	70.7947	98.1445	70.742	98.1445	70.7563	98.1445	70.7102	98.1445	70.7192	98.1445	70.6825	98.1445	70.6852	98.1445	70.6596	98.1445	70.6559	98.1445	70.6417	98.1445	70.6322	98.1445	70.6283	98.1445	70.6146	98.1445	70.6185	98.1445	70.603	98.1445	70.6115	98.1445	70.5966	98.1445	70.606	98.1445	70.5944	98.1445	70.6016	98.1445	70.5952	98.1445	70.5979
101.074	71.5557	101.074	71.5351	101.074	71.569	101.074	71.5078	101.074	71.5747	101.074	71.4751	101.074	71.5727	101.074	71.4384	101.074	71.5635	101.074	71.3996	101.074	71.5478	101.074	71.3608	101.074	71.5266	101.074	71.3241	101.074	71.5013	101.074	71.2914	101.074	71.4732	101.074	71.2645	101.074	71.444	101.074	71.2444	101.074	71.4153	101.074	71.2316	101.074	71.3883	101.074	71.226	101.074	71.3642	101.074	71.2265	101.074	71.3433	101.074	71.232	101.074	71.3258	101.074	71.2409	101.074	71.311	101.074	71.2517	101.074	71.2981	101.074	71.2633	101.074	71.2864	101.074	71.2749
105.469	72.7311	105.469	72.7152	105.469	72.7382	105.469	72.6911	105.469	72.7361	105.469	72.6598	105.469	72.7254	105.469	72.6228	105.469	72.7067	105.469	72.5822	105.469	72.6814	105.469	72.5402	105.469	72.6511	105.469	72.4991	105.469	72.6178	105.469	72.4616	105.469	72.5835	105.469	72.4297	105.469	72.5505	105.469	72.4051	105.469	72.5204	105.469	72.3887	105.469	72.4948	105.469	72.3804	105.469	72.4743	105.469	72.3794	105.469	72.4589	105.469	72.3841	105.469	72.448	105.469	72.3925	105.469	72.4403	105.469	72.4025	105.469	72.4342	105.469	72.4123	105.469	72.4281	105.469	72.421
108.398	73.4182	108.398	73.4071	108.398	73.4203	108.398	73.3874	108.398	73.4133	108.398	73.3601	108.398	73.3974	108.398	73.3264	108.398	73.3734	108.398	73.2879	108.398	73.3425	108.398	73.2465	108.398	73.3064	108.398	73.2045	108.398	73.2669	108.398	73.164	108.398	73.2262	108.398	73.1272	108.398	73.1866	108.398	73.0959	108.398	73.1501	108.398	73.0712	108.398	73.1185	108.398	73.0536	108.398	73.0929	108.398	73.0426	108.398	73.0736	108.398	73.0373	108.398	73.0603	108.398	73.036	108.398	73.0519	108.398	73.0372	108.398	73.047	108.398	73.0394	108.398	73.044	108.398	73.0417
112.793	74.5298	112.793	74.5162	112.793	74.5345	112.793	74.4941	112.793	74.5304	112.793	74.4641	112.793	74.5179	112.793	74.4273	112.793	74.4976	112.793	74.3853	112.793	74.4704	112.793	74.3399	112.793	74.4377	112.793	74.2932	112.793	74.4007	112.793	74.2475	112.793	74.3611	112.793	74.205	112.793	74.3205	112.793	74.1674	112.793	74.2807	112.793	74.1364	112.793	74.2431	112.793	74.1126	112.793	74.209	112.793	74.0961	112.793	74.1793	112.793	74.0864	112.793	74.1543	112.793	74.0825	112.793	74.1339	112.793	74.0833	112.793	74.1176	112.793	74.0877	112.793	74.1048	112.793	74.0949
117.188	75.4733	117.188	75.4682	117.188	75.4694	117.188	75.4547	117.188	75.4565	117.188	75.4335	117.188	75.4352	117.188	75.4059	117.188	75.4063	117.188	75.3733	117.188	75.3711	117.188	75.3373	117.188	75.3314	117.188	75.2998	117.188	75.2893	117.188	75.2626	117.188	75.2467	117.188	75.2273	117.188	75.206	117.188	75.1953	117.188	75.1691	117.188	75.1677	117.188	75.1375	117.188	75.1449	117.188	75.1122	117.188	75.1268	117.188	75.0938	117.188	75.1127	117.188	75.0819	117.188	75.1019	117.188	75.0759	117.188	75.0933	117.188	75.0744	117.188	75.0863	117.188	75.0764	117.188	75.0806
120.117	76.1243	120.117	76.1137	120.117	76.125	120.117	76.094	120.117	76.1154	120.117	76.0663	120.117	76.0958	120.117	76.0326	120.117	76.0673	120.117	75.9947	120.117	76.0312	120.117	75.9549	120.117	75.9894	120.117	75.9154	120.117	75.9444	120.117	75.8783	120.117	75.8985	120.117	75.8454	120.117	75.8544	120.117	75.8181	120.117	75.8146	120.117	75.7967	120.117	75.781	120.117	75.7812	120.117	75.755	120.117	75.7704	120.117	75.7373	120.117	75.7631	120.117	75.7275	120.117	75.7574	120.117	75.7246	120.117	75.7521	120.117	75.7269	120.117	75.7461	120.117	75.7324	120.117	75.7393
124.512	76.9614	124.512	76.9555	124.512	76.9595	124.512	76.9421	124.512	76.95	124.512	76.9219	124.512	76.9338	124.512	76.8963	124.512	76.9121	124.512	76.867	124.512	76.8863	124.512	76.8362	124.512	76.8582	124.512	76.8066	124.512	76.8298	124.512	76.7805	124.512	76.8029	124.512	76.7602	124.512	76.7793	124.512	76.7471	124.512	76.7606	124.512	76.7418	124.512	76.7478	124.512	76.7434	124.512	76.7414	124.512	76.7504	124.512	76.7412	124.512	76.7601	124.512	76.7461	124.512	76.77	124.512	76.7546	124.512	76.7775	124.512	76.7645	124.512	76.7808	124.512	76.7734	124.512	76.7793
128.906	77.96	128.906	77.9461	128.906	77.9638	128.906	77.9231	128.906	77.9573	128.906	77.8926	128.906	77.9407	128.906	77.8564	128.906	77.9151	128.906	77.8168	128.906	77.8821	128.906	77.7764	128.906	77.8436	128.906	77.7375	128.906	77.8022	128.906	77.7025	128.906	77.7605	128.906	77.6732	128.906	77.7211	128.906	77.6506	128.906	77.6864	128.906	77.6349	128.906	77.658	128.906	77.6259	128.906	77.637	128.906	77.622	128.906	77.6234	128.906	77.6217	128.906	77.6164	128.906	77.623	128.906	77.6148	128.906	77.6243	128.906	77.6165	128.906	77.6243	128.906	77.6197	128.906	77.6226
133.301	78.7826	133.301	78.7672	133.301	78.7875	133.301	78.7421	133.301	78.7818	133.301	78.7088	133.301	78.7659	133.301	78.6692	133.301	78.741	133.301	78.6258	133.301	78.7087	133.301	78.5812	133.301	78.6714	133.301	78.5382	133.301	78.6314	133.301	78.4994	133.301	78.5916	133.301	78.4672	133.301	78.5545	133.301	78.443	133.301	78.5223	133.301	78.4275	133.301	78.4966	133.301	78.4206	133.301	78.4782	133.301	78.4209	133.301	78.4667	133.301	78.4266	133.301	78.4612	133.301	78.4351	133.301	78.4596	133.301	78.4443	133.301	78.4597	133.301	78.452	133.301	78.4594	133.301	78.4571
139.16	79.9085	139.16	79.8982	139.16	79.9082	139.16	79.8781	139.16	79.8972	139.16	79.8494	139.16	79.8761	139.16	79.8143	139.16	79.8461	139.16	79.7749	139.16	79.8093	139.16	79.7341	139.16	79.768	139.16	79.6946	139.16	79.7252	139.16	79.659	139.16	79.6837	139.16	79.6295	139.16	79.6466	139.16	79.6076	139.16	79.6161	139.16	79.594	139.16	79.5939	139.16	79.5881	139.16	79.5806	139.16	79.5885	139.16	79.5757	139.16	79.593	139.16	79.5776	139.16	79.5991	139.16	79.5842	139.16	79.6044	139.16	79.5926	139.16	79.6068	139.16	79.6004	139.16	79.6055
143.555	80.7277	143.555	80.7236	143.555	80.7194	143.555	80.7075	143.555	80.699	143.555	80.6805	143.555	80.6676	143.555	80.6444	143.555	80.6267	143.555	80.6015	143.555	80.5787	143.555	80.5546	143.555	80.5263	143.555	80.507	143.555	80.4729	143.555	80.4618	143.555	80.4219	143.555	80.4219	143.555	80.3764	143.555	80.3897	143.555	80.3393	143.555	80.3663	143.555	80.3125	143.555	80.3517	143.555	80.2968	143.555	80.3448	143.555	80.2915	143.555	80.3432	143.555	80.2949	143.555	80.3442	143.555	80.3042	143.555	80.345	143.555	80.3164	143.555	80.3432	143.555	80.3283	143.555	80.3377
147.949	81.3745	147.949	81.3504	147.949	81.3858	147.949	81.3148	147.949	81.3841	147.949	81.2696	147.949	81.3699	147.949	81.2172	147.949	81.3442	147.949	81.161	147.949	81.3092	147.949	81.1046	147.949	81.2674	147.949	81.0518	147.949	81.222	147.949	81.0064	147.949	81.1765	147.949	80.9714	147.949	81.1343	147.949	80.9491	147.949	81.0987	147.949	80.94	147.949	81.0717	147.949	80.9434	147.949	81.0544	147.949	80.9569	147.949	81.0462	147.949	80.977	147.949	81.0452	147.949	80.9998	147.949	81.0484	147.949	81.0213	147.949	81.0523	147.949	81.0384	147.949	81.0534	147.949	81.0492
153.809	82.2936	153.809	82.2725	153.809	82.3017	153.809	82.2398	153.809	82.2966	153.809	82.1975	153.809	82.279	153.809	82.1483	153.809	82.2504	153.809	82.0956	153.809	82.213	153.809	82.043	153.809	82.1698	153.809	81.9943	153.809	82.1238	153.809	81.9528	153.809	82.0786	153.809	81.9213	153.809	82.0374	153.809	81.9014	153.809	82.003	153.809	81.8935	153.809	81.9776	153.809	81.8966	153.809	81.962	153.809	81.9083	153.809	81.956	153.809	81.9254	153.809	81.9576	153.809	81.9441	153.809	81.9641	153.809	81.9608	153.809	81.9719	153.809	81.9727	153.809	81.9775	153.809	81.9783
159.668	83.1352	159.668	83.1126	159.668	83.1434	159.668	83.0769	159.668	83.1368	159.668	83.0306	159.668	83.116	159.668	82.9769	159.668	83.0829	159.668	82.9197	159.668	83.04	159.668	82.8635	159.668	82.9909	159.668	82.8128	159.668	82.9398	159.668	82.7719	159.668	82.8911	159.668	82.744	159.668	82.8489	159.668	82.731	159.668	82.8167	159.668	82.7326	159.668	82.7967	159.668	82.7468	159.668	82.7896	159.668	82.7701	159.668	82.7941	159.668	82.7976	159.668	82.8073	159.668	82.8244	159.668	82.8253	159.668	82.8462	159.668	82.8434	159.668	82.8597	159.668	82.8572	159.668	82.8633
165.527	83.9332	165.527	83.9094	165.527	83.9414	165.527	83.8716	165.527	83.9337	165.527	83.822	165.527	83.9106	165.527	83.7639	165.527	83.8737	165.527	83.7014	165.527	83.8256	165.527	83.6392	165.527	83.7698	165.527	83.582	165.527	83.7105	165.527	83.5346	165.527	83.6524	165.527	83.5006	165.527	83.6004	165.527	83.4822	165.527	83.5586	165.527	83.4797	165.527	83.5302	165.527	83.4911	165.527	83.5165	165.527	83.5126	165.527	83.5168	165.527	83.5389	165.527	83.5287	165.527	83.5646	165.527	83.5476	165.527	83.5847	165.527	83.5685	165.527	83.5957	165.527	83.586	165.527	83.596
171.387	84.6036	171.387	84.5835	171.387	84.6075	171.387	84.5481	171.387	84.5953	171.387	84.4994	171.387	84.5681	171.387	84.4403	171.387	84.5277	171.387	84.3749	171.387	84.4769	171.387	84.3081	171.387	84.4193	171.387	84.2452	171.387	84.359	171.387	84.1916	171.387	84.3006	171.387	84.1516	171.387	84.2487	171.387	84.128	171.387	84.2074	171.387	84.1214	171.387	84.1795	171.387	84.1301	171.387	84.1661	171.387	84.1501	171.387	84.1665	171.387	84.1762	171.387	84.1779	171.387	84.2025	171.387	84.1959	171.387	84.224	171.387	84.2153	171.387	84.2368	171.387	84.231	171.387	84.239
177.246	85.1517	177.246	85.1347	177.246	85.1508	177.246	85.1005	177.246	85.1327	177.246	85.0507	177.246	85.099	177.246	84.9886	177.246	85.0523	177.246	84.9184	177.246	84.9959	177.246	84.8454	177.246	84.9339	177.246	84.7758	177.246	84.8707	177.246	84.7156	177.246	84.8112	177.246	84.6702	177.246	84.7597	177.246	84.6431	177.246	84.7201	177.246	84.6354	177.246	84.695	177.246	84.6453	177.246	84.6852	177.246	84.6684	177.246	84.6895	177.246	84.6987	177.246	84.7048	177.246	84.7295	177.246	84.7262	177.246	84.7549	177.246	84.7484	177.246	84.7704	177.246	84.7658	177.246	84.774
183.105	85.6849	183.105	85.6589	183.105	85.6914	183.105	85.6146	183.105	85.6785	183.105	85.5545	183.105	85.6473	183.105	85.482	183.105	85.6003	183.105	85.402	183.105	85.5408	183.105	85.3199	183.105	85.4733	183.105	85.2418	183.105	85.4031	183.105	85.1739	183.105	85.3356	183.105	85.1215	183.105	85.2762	183.105	85.0882	183.105	85.2292	183.105	85.0755	183.105	85.1974	183.105	85.0821	183.105	85.1818	183.105	85.1041	183.105	85.1807	183.105	85.1356	183.105	85.1906	183.105	85.1698	183.105	85.2063	183.105	85.2005	183.105	85.2221	183.105	85.2226	183.105	85.2325	183.105	85.2334
188.965	86.0508	188.965	86.0285	188.965	86.0532	188.965	85.9873	188.965	86.0357	188.965	85.9296	188.965	85.9995	188.965	85.8586	188.965	85.9468	188.965	85.7792	188.965	85.8807	188.965	85.6971	188.965	85.8057	188.965	85.619	188.965	85.7272	188.965	85.5517	188.965	85.6511	188.965	85.5007	188.965	85.5839	188.965	85.4701	188.965	85.5311	188.965	85.461	188.965	85.4968	188.965	85.4714	188.965	85.4828	188.965	85.4966	188.965	85.4879	188.965	85.5296	188.965	85.508	188.965	85.563	188.965	85.5369	188.965	85.5899	188.965	85.5673	188.965	85.605	188.965	85.592	188.965	85.6056
196.289	86.4984	196.289	86.4711	196.289	86.5035	196.289	86.4229	196.289	86.4864	196.289	86.3563	196.289	86.4483	196.289	86.2752	196.289	86.3913	196.289	86.1847	196.289	86.319	196.289	86.0916	196.289	86.236	196.289	86.0031	196.289	86.1482	196.289	85.9269	196.289	86.0619	196.289	85.8695	196.289	85.9841	196.289	85.8351	196.289	85.921	196.289	85.8247	196.289	85.8774	196.289	85.8358	196.289	85.8556	196.289	85.8626	196.289	85.855	196.289	85.8975	196.289	85.8716	196.289	85.932	196.289	85.8992	196.289	85.959	196.289	85.93	196.289	85.9731	196.289	85.9563	196.289	85.972
203.613	86.673	203.613	86.6515	203.613	86.6737	203.613	86.6097	203.613	86.6539	203.613	86.5494	203.613	86.615	203.613	86.4734	203.613	86.5594	203.613	86.3862	203.613	86.4905	203.613	86.2937	203.613	86.4127	203.613	86.203	203.613	86.3314	203.613	86.1224	203.613	86.2529	203.613	86.0595	203.613	86.1833	203.613	86.0203	203.613	86.1285	203.613	86.0075	203.613	86.0927	203.613	86.0193	203.613	86.0779	203.613	86.0504	203.613	86.083	203.613	86.0921	203.613	86.1037	203.613	86.1352	203.613	86.1332	203.613	86.171	203.613	86.1638	203.613	86.1931	203.613	86.1877	203.613	86.1986
210.938	86.9267	210.938	86.8915	210.938	86.9372	210.938	86.8332	210.938	86.9228	210.938	86.7544	210.938	86.8845	210.938	86.6593	210.938	86.8247	210.938	86.5528	210.938	86.7471	210.938	86.4416	210.938	86.657	210.938	86.333	210.938	86.5604	210.938	86.2352	210.938	86.4646	210.938	86.156	210.938	86.3767	210.938	86.1014	210.938	86.3034	210.938	86.0744	210.938	86.2495	210.938	86.0742	210.938	86.2173	210.938	86.096	210.938	86.2058	210.938	86.132	210.938	86.2106	210.938	86.1733	210.938	86.2252	210.938	86.2112	210.938	86.2418	210.938	86.239	210.938	86.253	210.938	86.253
218.262	86.9778	218.262	86.954	218.262	86.9774	218.262	86.9066	218.262	86.9532	218.262	86.838	218.262	86.9066	218.262	86.7518	218.262	86.8404	218.262	86.6534	218.262	86.7586	218.262	86.5501	218.262	86.6664	218.262	86.4505	218.262	86.5704	218.262	86.3639	218.262	86.4781	218.262	86.2989	218.262	86.3974	218.262	86.2614	218.262	86.3356	218.262	86.2537	218.262	86.2984	218.262	86.273	218.262	86.2877	218.262	86.3124	218.262	86.3019	218.262	86.362	218.262	86.3352	218.262	86.4113	218.262	86.3786	218.262	86.4506	218.262	86.4223	218.262	86.4731	218.262	86.4568	218.262	86.4751
225.586	87.0511	225.586	87.0336	225.586	87.0423	225.586	86.9899	225.586	87.0077	225.586	86.9215	225.586	86.9487	225.586	86.8316	225.586	86.8678	225.586	86.7247	225.586	86.7685	225.586	86.6082	225.586	86.6557	225.586	86.4908	225.586	86.5361	225.586	86.3832	225.586	86.4176	225.586	86.2955	225.586	86.3094	225.586	86.2359	225.586	86.221	225.586	86.2085	225.586	86.1602	225.586	86.2116	225.586	86.1318	225.586	86.2383	225.586	86.1357	225.586	86.2778	225.586	86.1667	225.586	86.3179	225.586	86.2151	225.586	86.3477	225.586	86.269	225.586	86.3592	225.586	86.3166	225.586	86.3485
232.91	86.9943	232.91	86.9756	232.91	86.9897	232.91	86.9337	232.91	86.9621	232.91	86.8698	232.91	86.9124	232.91	86.7861	232.91	86.8424	232.91	86.6862	232.91	86.7548	232.91	86.576	232.91	86.6532	232.91	86.4632	232.91	86.5427	232.91	86.3574	232.91	86.4297	232.91	86.2687	232.91	86.3218	232.91	86.2057	232.91	86.2273	232.91	86.173	232.91	86.1547	232.91	86.1698	232.91	86.1101	232.91	86.1897	232.91	86.0964	232.91	86.2221	232.91	86.111	232.91	86.2552	232.91	86.1467	232.91	86.2783	232.91	86.1926	232.91	86.284	232.91	86.2369	232.91	86.2696
241.699	86.8137	241.699	86.7882	241.699	86.8175	241.699	86.7416	241.699	86.8002	241.699	86.6755	241.699	86.7629	241.699	86.5924	241.699	86.7081	241.699	86.4962	241.699	86.6388	241.699	86.3923	241.699	86.5592	241.699	86.2876	241.699	86.4743	241.699	86.1906	241.699	86.3893	241.699	86.1102	241.699	86.3099	241.699	86.0545	241.699	86.2417	241.699	86.0286	241.699	86.1897	241.699	86.033	241.699	86.1574	241.699	86.0624	241.699	86.1461	241.699	86.1073	241.699	86.1536	241.699	86.156	241.699	86.1744	241.699	86.1975	241.699	86.2003	241.699	86.224	241.699	86.2222	241.699	86.2318
250.488	86.8363	250.488	86.803	250.488	86.8389	250.488	86.7408	250.488	86.8104	250.488	86.6534	250.488	86.7528	250.488	86.5456	250.488	86.67	250.488	86.4236	250.488	86.5683	250.488	86.2949	250.488	86.4553	250.488	86.168	250.488	86.3401	250.488	86.0525	250.488	86.2317	250.488	85.958	250.488	86.1384	250.488	85.8924	250.488	86.0666	250.488	85.8605	250.488	86.0199	250.488	85.8621	250.488	85.9986	250.488	85.8915	250.488	86	250.488	85.9389	250.488	86.0182	250.488	85.9926	250.488	86.0451	250.488	86.0411	250.488	86.0718	250.488	86.0759	250.488	86.0897	250.488	86.0923
259.277	86.8221	259.277	86.7752	259.277	86.8323	259.277	86.6938	259.277	86.806	259.277	86.5818	259.277	86.7454	259.277	86.4454	259.277	86.655	259.277	86.2924	259.277	86.5412	259.277	86.133	259.277	86.4124	259.277	85.9787	259.277	86.278	259.277	85.8418	259.277	86.1482	259.277	85.7341	259.277	86.0331	259.277	85.6643	259.277	85.9412	259.277	85.6362	259.277	85.878	259.277	85.6474	259.277	85.8455	259.277	85.6894	259.277	85.8408	259.277	85.7497	259.277	85.8571	259.277	85.8147	259.277	85.8847	259.277	85.8722	259.277	85.9128	259.277	85.9131	259.277	85.9314	259.277	85.9329
268.066	86.5851	268.066	86.5579	268.066	86.5787	268.066	86.4998	268.066	86.5382	268.066	86.4146	268.066	86.4647	268.066	86.3066	268.066	86.3621	268.066	86.1808	268.066	86.2361	268.066	86.0428	268.066	86.0954	268.066	85.8991	268.066	85.9505	268.066	85.7577	268.066	85.8145	268.066	85.6283	268.066	85.7007	268.066	85.5217	268.066	85.6204	268.066	85.4476	268.066	85.5803	268.066	85.4128	268.066	85.5796	268.066	85.4189	268.066	85.6103	268.066	85.4607	268.066	85.6583	268.066	85.5273	268.066	85.7071	268.066	85.6038	268.066	85.741	268.066	85.6746	268.066	85.7489	268.066	85.726
276.855	86.5508	276.855	86.5227	276.855	86.5571	276.855	86.4691	276.855	86.5434	276.855	86.3862	276.855	86.5086	276.855	86.2722	276.855	86.4497	276.855	86.1291	276.855	86.3633	276.855	85.9644	276.855	86.2473	276.855	85.792	276.855	86.1037	276.855	85.6302	276.855	85.9392	276.855	85.4992	276.855	85.7665	276.855	85.4157	276.855	85.6032	276.855	85.3878	276.855	85.4688	276.855	85.412	276.855	85.3802	276.855	85.474	276.855	85.3468	276.855	85.5528	276.855	85.3672	276.855	85.6258	276.855	85.4291	276.855	85.6742	276.855	85.5126	276.855	85.6861	276.855	85.5955	276.855	85.658
287.109	86.4111	287.109	86.3736	287.109	86.4022	287.109	86.2943	287.109	86.3469	287.109	86.1809	287.109	86.2494	287.109	86.0441	287.109	86.1184	287.109	85.8966	287.109	85.9657	287.109	85.752	287.109	85.805	287.109	85.6239	287.109	85.6509	287.109	85.5242	287.109	85.5169	287.109	85.4605	287.109	85.4148	287.109	85.4352	287.109	85.353	287.109	85.4442	287.109	85.3349	287.109	85.4791	287.109	85.3579	287.109	85.5284	287.109	85.4125	287.109	85.5811	287.109	85.4846	287.109	85.6285	287.109	85.5585	287.109	85.6644	287.109	85.6212	287.109	85.6845	287.109	85.6646	287.109	85.6855
297.363	86.4325	297.363	86.4103	297.363	86.4231	297.363	86.3566	297.363	86.381	297.363	86.2707	297.363	86.3045	297.363	86.1524	297.363	86.1924	297.363	86.0033	297.363	86.0455	297.363	85.8292	297.363	85.8673	297.363	85.6416	297.363	85.6654	297.363	85.4584	297.363	85.4519	297.363	85.3019	297.363	85.2443	297.363	85.1942	297.363	85.0636	297.363	85.1495	297.363	84.9321	297.363	85.1682	297.363	84.8672	297.363	85.2354	297.363	84.8764	297.363	85.3256	297.363	84.9522	297.363	85.4106	297.363	85.0739	297.363	85.4661	297.363	85.2128	297.363	85.4754	297.363	85.3399	297.363	85.4321
307.617	86.153	307.617	86.1052	307.617	86.1634	307.617	86.0214	307.617	86.1371	307.617	85.9051	307.617	86.0766	307.617	85.7615	307.617	85.9864	307.617	85.5969	307.617	85.8717	307.617	85.4195	307.617	85.7387	307.617	85.2395	307.617	85.5942	307.617	85.0698	307.617	85.446	307.617	84.9258	307.617	85.3029	307.617	84.8231	307.617	85.1755	307.617	84.7731	307.617	85.0746	307.617	84.7785	307.617	85.0092	307.617	84.8311	307.617	84.9837	307.617	84.9134	307.617	84.995	307.617	85.003	307.617	85.0326	307.617	85.0792	307.617	85.0807	307.617	85.1272	307.617	85.1218	307.617	85.1406
319.336	86.1039	319.336	86.0581	319.336	86.109	319.336	85.9721	319.336	86.0735	319.336	85.8471	319.336	85.9982	319.336	85.6862	319.336	85.8854	319.336	85.4961	319.336	85.7394	319.336	85.2879	319.336	85.5674	319.336	85.0782	319.336	85.3798	319.336	84.888	319.336	85.1898	319.336	84.739	319.336	85.0138	319.336	84.6484	319.336	84.8692	319.336	84.6232	319.336	84.7719	319.336	84.6578	319.336	84.7323	319.336	84.7361	319.336	84.75	319.336	84.8366	319.336	84.8131	319.336	84.9375	319.336	84.9004	319.336	85.0204	319.336	84.9875	319.336	85.0717	319.336	85.0531	319.336	85.0831
329.59	86.0127	329.59	85.9757	329.59	86.0123	329.59	85.8999	329.59	85.9756	329.59	85.7848	329.59	85.9038	329.59	85.6309	329.59	85.7985	329.59	85.4419	329.59	85.6625	329.59	85.2256	329.59	85.5001	329.59	84.9965	329.59	85.3182	329.59	84.7756	329.59	85.1265	329.59	84.5892	329.59	84.9384	329.59	84.4619	329.59	84.7706	329.59	84.4089	329.59	84.641	329.59	84.429	329.59	84.565	329.59	84.5047	329.59	84.5491	329.59	84.6089	329.59	84.5871	329.59	84.7139	329.59	84.6604	329.59	84.7975	329.59	84.7438	329.59	84.845	329.59	84.8129	329.59	84.8498
341.309	86.0005	341.309	85.9832	341.309	85.9714	341.309	85.9211	341.309	85.8965	341.309	85.8173	341.309	85.7798	341.309	85.6758	341.309	85.6288	341.309	85.501	341.309	85.4539	341.309	85.2991	341.309	85.2671	341.309	85.0795	341.309	85.0805	341.309	84.857	341.309	84.9056	341.309	84.6524	341.309	84.7529	341.309	84.4907	341.309	84.633	341.309	84.3951	341.309	84.5563	341.309	84.3788	341.309	84.5314	341.309	84.4382	341.309	84.5608	341.309	84.5526	341.309	84.6365	341.309	84.6904	341.309	84.7391	341.309	84.8179	341.309	84.8414	341.309	84.9071	341.309	84.9157	341.309	84.9409
353.027	85.8263	353.027	85.8147	353.027	85.8104	353.027	85.7694	353.027	85.7699	353.027	85.6834	353.027	85.7033	353.027	85.5522	353.027	85.6063	353.027	85.3766	353.027	85.4743	353.027	85.1648	353.027	85.306	353.027	84.9333	353.027	85.1046	353.027	84.7064	353.027	84.8792	353.027	84.5127	353.027	84.6447	353.027	84.3792	353.027	84.4227	353.027	84.3225	353.027	84.2397	353.027	84.3422	353.027	84.1234	353.027	84.4205	353.027	84.0932	353.027	84.5278	353.027	84.1505	353.027	84.6312	353.027	84.2743	353.027	84.702	353.027	84.4282	353.027	84.72	353.027	84.5724	353.027	84.6756
366.211	85.6172	366.211	85.5858	366.211	85.6227	366.211	85.5281	366.211	85.5998	366.211	85.4401	366.211	85.5442	366.211	85.3165	366.211	85.4526	366.211	85.1534	366.211	85.3244	366.211	84.9524	366.211	85.1629	366.211	84.725	366.211	84.9765	366.211	84.4944	366.211	84.7788	366.211	84.2945	366.211	84.5869	366.211	84.1614	366.211	84.4196	366.211	84.1192	366.211	84.2926	366.211	84.1676	366.211	84.2161	366.211	84.2793	366.211	84.1923	366.211	84.4116	366.211	84.2168	366.211	84.5232	366.211	84.2801	366.211	84.5862	366.211	84.3681	366.211	84.5912	366.211	84.4632	366.211	84.5445
379.395	85.6031	379.395	85.5651	379.395	85.602	379.395	85.4957	379.395	85.557	379.395	85.4014	379.395	85.4682	379.395	85.2838	379.395	85.3415	379.395	85.1401	379.395	85.1856	379.395	84.9651	379.395	85.0099	379.395	84.7578	379.395	84.8226	379.395	84.5268	379.395	84.6305	379.395	84.2953	379.395	84.4423	379.395	84.0993	379.395	84.2718	379.395	83.9775	379.395	84.1393	379.395	83.9541	379.395	84.0674	379.395	84.0264	379.395	84.0714	379.395	84.165	379.395	84.1485	379.395	84.3265	379.395	84.2749	379.395	84.4684	379.395	84.413	379.395	84.558	379.395	84.5237	379.395	84.577
392.578	85.6509	392.578	85.5929	392.578	85.6566	392.578	85.4879	392.578	85.6086	392.578	85.3452	392.578	85.5097	392.578	85.176	392.578	85.3658	392.578	84.9901	392.578	85.1855	392.578	84.7931	392.578	84.9793	392.578	84.5866	392.578	84.7586	392.578	84.3726	392.578	84.5352	392.578	84.1591	392.578	84.3214	392.578	83.965	392.578	84.132	392.578	83.8185	392.578	83.9851	392.578	83.7465	392.578	83.8988	392.578	83.7614	392.578	83.8843	392.578	83.8513	392.578	83.9369	392.578	83.9832	392.578	84.034	392.578	84.1154	392.578	84.1406	392.578	84.2115	392.578	84.221	392.578	84.2486
405.762	85.5489	405.762	85.5086	405.762	85.539	405.762	85.4154	405.762	85.4842	405.762	85.2705	405.762	85.3905	405.762	85.0806	405.762	85.2638	405.762	84.8568	405.762	85.1097	405.762	84.6147	405.762	84.9337	405.762	84.3736	405.762	84.7415	405.762	84.1559	405.762	84.5383	405.762	83.9863	405.762	84.3315	405.762	83.8864	405.762	84.1332	405.762	83.868	405.762	83.9639	405.762	83.926	405.762	83.8509	405.762	84.0385	405.762	83.8189	405.762	84.1734	405.762	83.8749	405.762	84.2979	405.762	83.9996	405.762	84.3855	405.762	84.1534	405.762	84.4182	405.762	84.2932	405.762	84.3868
420.41	85.4581	420.41	85.4409	420.41	85.4421	420.41	85.3864	420.41	85.3931	420.41	85.2894	420.41	85.3093	420.41	85.1466	420.41	85.1892	420.41	84.9603	420.41	85.035	420.41	84.7401	420.41	84.8529	420.41	84.5031	420.41	84.6524	420.41	84.2713	420.41	84.4439	420.41	84.0689	420.41	84.238	420.41	83.9176	420.41	84.0462	420.41	83.8323	420.41	83.883	420.41	83.8165	420.41	83.7655	420.41	83.8601	420.41	83.7094	420.41	83.9405	420.41	83.7211	420.41	84.0279	420.41	83.7916	420.41	84.0931	420.41	83.8965	420.41	84.1144	420.41	84.0034	420.41	84.0826
435.059	85.2407	435.059	85.2329	435.059	85.2204	435.059	85.1965	435.059	85.1693	435.059	85.1249	435.059	85.0855	435.059	85.0054	435.059	84.9708	435.059	84.8256	435.059	84.8305	435.059	84.5809	435.059	84.6716	435.059	84.2839	435.059	84.5013	435.059	83.9689	435.059	84.3265	435.059	83.6901	435.059	84.1565	435.059	83.5074	435.059	84.0061	435.059	83.4618	435.059	83.8966	435.059	83.5562	435.059	83.8515	435.059	83.7552	435.059	83.8872	435.059	84.0028	435.059	84.0009	435.059	84.2429	435.059	84.1669	435.059	84.4316	435.059	84.3429	435.059	84.5405	435.059	84.4847	435.059	84.5571
451.172	85.4982	451.172	85.4293	451.172	85.509	451.172	85.3155	451.172	85.4525	451.172	85.169	451.172	85.3274	451.172	84.9966	451.172	85.1419	451.172	84.7989	451.172	84.9126	451.172	84.5727	451.172	84.6628	451.172	84.3173	451.172	84.4168	451.172	84.0427	451.172	84.1948	451.172	83.7762	451.172	84.008	451.172	83.5627	451.172	83.8595	451.172	83.4519	451.172	83.7509	451.172	83.4739	451.172	83.6882	451.172	83.6167	451.172	83.6827	451.172	83.8283	451.172	83.742	451.172	84.0408	451.172	83.8584	451.172	84.1978	451.172	84.0065	451.172	84.2678	451.172	84.1486	451.172	84.246
465.82	85.451	465.82	85.395	465.82	85.4533	465.82	85.2935	465.82	85.3969	465.82	85.1546	465.82	85.2817	465.82	84.9829	465.82	85.1129	465.82	84.78	465.82	84.9014	465.82	84.5466	465.82	84.6614	465.82	84.2886	465.82	84.4086	465.82	84.0226	465.82	84.1575	465.82	83.7785	465.82	83.9211	465.82	83.5948	465.82	83.7141	465.82	83.505	465.82	83.5573	465.82	83.522	465.82	83.4768	465.82	83.6301	465.82	83.4927	465.82	83.7928	465.82	83.6037	465.82	83.9664	465.82	83.7794	465.82	84.1117	465.82	83.9694	465.82	84.1974	465.82	84.1224	465.82	84.203
483.398	85.645	483.398	85.547	483.398	85.675	483.398	85.3958	483.398	85.6301	483.398	85.2121	483.398	85.5108	483.398	85.0143	483.398	85.3235	483.398	84.8097	483.398	85.0807	483.398	84.5905	483.398	84.8016	483.398	84.3396	483.398	84.511	483.398	84.0462	483.398	84.2335	483.398	83.7247	483.398	83.9847	483.398	83.427	483.398	83.7693	483.398	83.2344	483.398	83.5888	483.398	83.2172	483.398	83.4567	483.398	83.3831	483.398	83.4044	483.398	83.6666	483.398	83.4641	483.398	83.9679	483.398	83.6375	483.398	84.1996	483.398	83.8798	483.398	84.3079	483.398	84.1162	483.398	84.2748
499.512	85.6957	499.512	85.6122	499.512	85.7152	499.512	85.4713	499.512	85.6656	499.512	85.2803	499.512	85.5447	499.512	85.0477	499.512	85.3563	499.512	84.7844	499.512	85.11	499.512	84.5023	499.512	84.8214	499.512	84.2122	499.512	84.5101	499.512	83.9228	499.512	84.199	499.512	83.6438	499.512	83.9141	499.512	83.3923	499.512	83.6819	499.512	83.1966	499.512	83.5237	499.512	83.0896	499.512	83.4484	499.512	83.0909	499.512	83.4489	499.512	83.1906	499.512	83.5039	499.512	83.3487	499.512	83.5851	499.512	83.5132	499.512	83.663	499.512	83.6405	499.512	83.7109	499.512	83.7074
517.09	85.4182	517.09	85.3577	517.09	85.4225	517.09	85.2446	517.09	85.3658	517.09	85.0791	517.09	85.2474	517.09	84.8594	517.09	85.0743	517.09	84.5874	517.09	84.8617	517.09	84.2739	517.09	84.6291	517.09	83.9403	517.09	84.3925	517.09	83.614	517.09	84.1574	517.09	83.3216	517.09	83.919	517.09	83.0876	517.09	83.6732	517.09	82.9359	517.09	83.4321	517.09	82.8869	517.09	83.2326	517.09	82.9424	517.09	83.1233	517.09	83.0745	517.09	83.1293	517.09	83.2347	517.09	83.2261	517.09	83.3765	517.09	83.354	517.09	83.469	517.09	83.4551	517.09	83.4967
536.133	85.2727	536.133	85.2108	536.133	85.2789	536.133	85.1083	536.133	85.2148	536.133	84.9669	536.133	85.0808	536.133	84.7781	536.133	84.8917	536.133	84.5419	536.133	84.6693	536.133	84.2813	536.133	84.436	536.133	84.0306	536.133	84.2141	536.133	83.808	536.133	84.0227	536.133	83.6039	536.133	83.8716	536.133	83.4071	536.133	83.7572	536.133	83.2421	536.133	83.6683	536.133	83.1724	536.133	83.5982	536.133	83.2563	536.133	83.5551	536.133	83.4896	536.133	83.5634	536.133	83.7943	536.133	83.6501	536.133	84.0604	536.133	83.8178	536.133	84.1981	536.133	84.0205	536.133	84.1739
555.176	85.8896	555.176	85.8164	555.176	85.8466	555.176	85.6455	555.176	85.6876	555.176	85.3991	555.176	85.4385	555.176	85.0936	555.176	85.1425	555.176	84.7442	555.176	84.8416	555.176	84.3755	555.176	84.5626	555.176	84.0217	555.176	84.315	555.176	83.7103	555.176	84.0974	555.176	83.4505	555.176	83.9064	555.176	83.2481	555.176	83.7443	555.176	83.1353	555.176	83.6279	555.176	83.1695	555.176	83.5885	555.176	83.3841	555.176	83.6532	555.176	83.7383	555.176	83.8211	555.176	84.1292	555.176	84.0572	555.176	84.4478	555.176	84.3088	555.176	84.6245	555.176	84.5209	555.176	84.6412
574.219	85.9789	574.219	85.8505	574.219	85.9792	574.219	85.6022	574.219	85.8557	574.219	85.2573	574.219	85.6233	574.219	84.852	574.219	85.3062	574.219	84.4251	574.219	84.9302	574.219	84.0102	574.219	84.5143	574.219	83.6329	574.219	84.0773	574.219	83.3102	574.219	83.6594	574.219	83.0481	574.219	83.3287	574.219	82.8499	574.219	83.1512	574.219	82.7405	574.219	83.1467	574.219	82.7742	574.219	83.2808	574.219	82.9959	574.219	83.4968	574.219	83.3824	574.219	83.7459	574.219	83.8345	574.219	83.9983	574.219	84.2281	574.219	84.2352	574.219	84.4696	574.219	84.4285	574.219	84.5267
594.727	86.1085	594.727	85.9045	594.727	86.2366	594.727	85.6513	594.727	86.2598	594.727	85.3786	594.727	86.1471	594.727	85.118	594.727	85.875	594.727	84.885	594.727	85.4448	594.727	84.6558	594.727	84.9009	594.727	84.3669	594.727	84.3417	594.727	83.9509	594.727	83.8903	594.727	83.3905	594.727	83.6143	594.727	82.7752	594.727	83.463	594.727	82.3225	594.727	83.3192	594.727	82.2683	594.727	83.1174	594.727	82.6409	594.727	82.9177	594.727	83.2278	594.727	82.8659	594.727	83.7815	594.727	83.0517	594.727	84.1501	594.727	83.4208	594.727	84.2725	594.727	83.8329	594.727	84.1497
615.234	86.436	615.234	86.414	615.234	86.4398	615.234	86.312	615.234	86.4235	615.234	86.064	615.234	86.3199	615.234	85.6618	615.234	86.0533	615.234	85.1789	615.234	85.5988	615.234	84.741	615.234	85.0179	615.234	84.4358	615.234	84.4634	615.234	84.2245	615.234	84.1152	615.234	83.9667	615.234	84.0427	615.234	83.5553	615.234	84.1396	615.234	83.0594	615.234	84.2339	615.234	82.7752	615.234	84.2308	615.234	83.0046	615.234	84.165	615.234	83.6758	615.234	84.1632	615.234	84.4359	615.234	84.3306	615.234	85.0073	615.234	84.6496	615.234	85.2786	615.234	85.0031	615.234	85.2523
637.207	85.9294	637.207	85.9946	637.207	85.9311	637.207	86.0497	637.207	86.0001	637.207	85.9988	637.207	86.0413	637.207	85.7778	637.207	85.9159	637.207	85.3747	637.207	85.5242	637.207	84.8326	637.207	84.8618	637.207	84.2465	637.207	84.0435	637.207	83.7336	637.207	83.3023	637.207	83.346	637.207	82.8888	637.207	83.0179	637.207	82.8531	637.207	82.6682	637.207	83.0116	637.207	82.3804	637.207	83.1844	637.207	82.4378	637.207	83.3403	637.207	83.0075	637.207	83.5497	637.207	83.8481	637.207	83.8752	637.207	84.5784	637.207	84.301	637.207	84.9775	637.207	84.727	637.207	85.0012
659.18	85.7998	659.18	85.672	659.18	85.9043	659.18	85.5161	659.18	85.9811	659.18	85.3307	659.18	85.992	659.18	85.1093	659.18	85.8714	659.18	84.8363	659.18	85.566	659.18	84.4963	659.18	85.0663	659.18	84.0867	659.18	84.4209	659.18	83.6257	659.18	83.7438	659.18	83.1469	659.18	83.1834	659.18	82.6841	659.18	82.8247	659.18	82.2692	659.18	82.6229	659.18	81.9719	659.18	82.4877	659.18	81.9319	659.18	82.4239	659.18	82.2666	659.18	82.5413	659.18	82.8949	659.18	82.9019	659.18	83.554	659.18	83.407	659.18	83.9952	659.18	83.8644	659.18	84.0964
682.617	85.9759	682.617	85.9644	682.617	85.9548	682.617	85.8807	682.617	85.917	682.617	85.6918	682.617	85.839	682.617	85.3993	682.617	85.669	682.617	85.0472	682.617	85.3598	682.617	84.6911	682.617	84.9022	682.617	84.3447	682.617	84.3417	682.617	83.9584	682.617	83.7731	682.617	83.4706	682.617	83.3055	682.617	82.8988	682.617	82.9909	682.617	82.4008	682.617	82.7919	682.617	82.221	682.617	82.6678	682.617	82.4816	682.617	82.6789	682.617	83.0382	682.617	82.9297	682.617	83.6299	682.617	83.3943	682.617	84.0829	682.617	83.893	682.617	84.3417	682.617	84.252	682.617	84.4011
707.52	85.2947	707.52	85.3474	707.52	85.2799	707.52	85.3918	707.52	85.3115	707.52	85.377	707.52	85.3282	707.52	85.2457	707.52	85.2342	707.52	84.9361	707.52	84.9676	707.52	84.423	707.52	84.5213	707.52	83.7762	707.52	83.9296	707.52	83.1651	707.52	83.2872	707.52	82.7334	707.52	82.7783	707.52	82.4533	707.52	82.5685	707.52	82.1988	707.52	82.6087	707.52	81.969	707.52	82.6979	707.52	81.9728	707.52	82.7256	707.52	82.3853	707.52	82.7801	707.52	83.0615	707.52	83.0238	707.52	83.6911	707.52	83.4466	707.52	84.0623	707.52	83.8669	707.52	84.1086
732.422	85.0812	732.422	85.1573	732.422	85.0049	732.422	85.1519	732.422	85.0199	732.422	85.0419	732.422	85.1129	732.422	84.8423	732.422	85.1286	732.422	84.5619	732.422	84.8897	732.422	84.1787	732.422	84.3219	732.422	83.6668	732.422	83.5045	732.422	83.0579	732.422	82.6661	732.422	82.4572	732.422	82.073	732.422	81.9484	732.422	81.8135	732.422	81.5248	732.422	81.7712	732.422	81.2364	732.422	81.8493	732.422	81.3366	732.422	82.073	732.422	81.9939	732.422	82.452	732.422	82.9162	732.422	82.8935	732.422	83.6639	732.422	83.316	732.422	84.0173	732.422	83.7	732.422	83.9832
757.324	85.1215	757.324	85.2172	757.324	85.0615	757.324	85.2974	757.324	85.0786	757.324	85.3275	757.324	85.1489	757.324	85.2798	757.324	85.1706	757.324	85.1055	757.324	85.035	757.324	84.73	757.324	84.6758	757.324	84.1056	757.324	84.0586	757.324	83.2854	757.324	83.1887	757.324	82.4363	757.324	82.1806	757.324	81.7281	757.324	81.2998	757.324	81.2028	757.324	80.8105	757.324	80.8423	757.324	80.7524	757.324	80.7532	757.324	81.0108	757.324	81.1454	757.324	81.4898	757.324	82.0078	757.324	82.1166	757.324	82.9766	757.324	82.8076	757.324	83.6356	757.324	83.4309	757.324	83.7741
785.156	84.7843	785.156	84.7461	785.156	84.618	785.156	84.5562	785.156	84.362	785.156	84.35	785.156	84.2004	785.156	84.2015	785.156	84.1707	785.156	84.0517	785.156	84.1351	785.156	83.7745	785.156	83.9385	785.156	83.3027	785.156	83.5091	785.156	82.7002	785.156	82.8802	785.156	82.1166	785.156	82.1905	785.156	81.6393	785.156	81.6088	785.156	81.2385	785.156	81.1888	785.156	80.9359	785.156	80.8815	785.156	80.9375	785.156	80.7494	785.156	81.3701	785.156	80.9889	785.156	81.9879	785.156	81.5724	785.156	82.4634	785.156	82.1787	785.156	82.6931	785.156	82.5706	785.156	82.7243
811.523	84.5761	811.523	84.6651	811.523	84.3751	811.523	84.5126	811.523	84.2197	811.523	84.1329	811.523	84.1914	811.523	83.7479	811.523	84.2093	811.523	83.6136	811.523	84.109	811.523	83.6791	811.523	83.8031	811.523	83.6059	811.523	83.3015	811.523	83.1202	811.523	82.6421	811.523	82.2422	811.523	81.8617	811.523	81.3157	811.523	81.0431	811.523	80.6988	811.523	80.3961	811.523	80.3901	811.523	80.2364	811.523	80.3532	811.523	80.6523	811.523	80.8485	811.523	81.298	811.523	81.9138	811.523	81.8685	811.523	83.0278	811.523	82.4319	811.523	83.659	811.523	83.0921	811.523	83.624
840.82	84.5318	840.82	84.2561	840.82	84.5412	840.82	83.9465	840.82	84.2389	840.82	83.73	840.82	83.825	840.82	83.5143	840.82	83.5111	840.82	83.2112	840.82	83.3142	840.82	82.8962	840.82	83.1045	840.82	82.6143	840.82	82.7193	840.82	82.1722	840.82	82.0519	840.82	81.3727	840.82	81.1889	840.82	80.3721	840.82	80.4288	840.82	79.7385	840.82	79.9321	840.82	79.8814	840.82	79.5086	840.82	80.4336	840.82	79.1689	840.82	80.9395	840.82	79.4804	840.82	81.468	840.82	80.6167	840.82	82.197	840.82	81.9296	840.82	82.8926	840.82	82.8503	840.82	83.1703
870.117	84.6028	870.117	84.4669	870.117	84.7006	870.117	84.3707	870.117	84.6604	870.117	84.2767	870.117	84.4764	870.117	84.076	870.117	84.2146	870.117	83.6884	870.117	83.9175	870.117	83.1489	870.117	83.5852	870.117	82.6349	870.117	83.1961	870.117	82.316	870.117	82.6947	870.117	82.1048	870.117	82.0399	870.117	81.692	870.117	81.3307	870.117	80.8813	870.117	80.7558	870.117	79.9199	870.117	80.3115	870.117	79.6042	870.117	79.889	870.117	80.3478	870.117	79.8261	870.117	81.4557	870.117	80.5934	870.117	82.3344	870.117	81.7963	870.117	82.8846	870.117	82.7231	870.117	83.0653
900.879	85.0627	900.879	84.8734	900.879	85.1152	900.879	84.5776	900.879	85.13	900.879	84.323	900.879	85.1827	900.879	84.2131	900.879	85.188	900.879	84.1415	900.879	85.0167	900.879	83.8719	900.879	84.6585	900.879	83.2715	900.879	84.2045	900.879	82.4709	900.879	83.7129	900.879	81.7659	900.879	83.1282	900.879	81.2895	900.879	82.3641	900.879	80.9676	900.879	81.4675	900.879	80.7218	900.879	80.7513	900.879	80.54	900.879	80.5612	900.879	80.5413	900.879	80.7346	900.879	80.9582	900.879	80.9185	900.879	81.7411	900.879	81.1816	900.879	82.3625	900.879	81.7575	900.879	82.3411
933.105	85.3171	933.105	85.4324	933.105	85.1315	933.105	85.3576	933.105	84.959	933.105	85.1144	933.105	84.8384	933.105	84.9654	933.105	84.7829	933.105	85.0672	933.105	84.7472	933.105	85.134	933.105	84.6535	933.105	84.801	933.105	84.4433	933.105	84.0383	933.105	84.0959	933.105	83.1428	933.105	83.6464	933.105	82.3779	933.105	83.1658	933.105	81.6638	933.105	82.6757	933.105	80.9505	933.105	82.1861	933.105	80.5882	933.105	81.897	933.105	80.8427	933.105	82.0592	933.105	81.4604	933.105	82.4819	933.105	82.0777	933.105	82.7733	933.105	82.4936	933.105	82.8145	933.105	82.7073
965.332	85.8187	965.332	85.4604	965.332	86.0313	965.332	85.2168	965.332	86.0194	965.332	85.1083	965.332	85.9977	965.332	85.0428	965.332	86.0042	965.332	85.0653	965.332	85.8414	965.332	85.1158	965.332	85.4527	965.332	84.8811	965.332	84.9765	965.332	84.1307	965.332	84.5223	965.332	83.058	965.332	84.065	965.332	82.2469	965.332	83.5941	965.332	81.9781	965.332	83.1366	965.332	81.9058	965.332	82.6605	965.332	81.7627	965.332	82.2139	965.332	81.6554	965.332	82.0139	965.332	81.8243	965.332	82.1588	965.332	82.3771	965.332	82.5366	965.332	82.9916	965.332	82.9651	965.332	83.2021
1,000.49	86.2099	1,000.49	85.8728	1,000.49	86.1714	1,000.49	85.3276	1,000.49	85.825	1,000.49	84.8895	1,000.49	85.4879	1,000.49	84.8552	1,000.49	85.3822	1,000.49	85.1622	1,000.49	85.3378	1,000.49	85.4105	1,000.49	85.1276	1,000.49	85.2428	1,000.49	84.808	1,000.49	84.5758	1,000.49	84.513	1,000.49	83.6348	1,000.49	84.1568	1,000.49	82.7802	1,000.49	83.6323	1,000.49	82.1705	1,000.49	83.0511	1,000.49	81.7917	1,000.49	82.6938	1,000.49	81.8058	1,000.49	82.6535	1,000.49	82.304	1,000.49	82.649	1,000.49	82.9182	1,000.49	82.556	1,000.49	83.3294	1,000.49	82.5943	1,000.49	83.4527	1,000.49	82.875	1,000.49	83.2515
1,035.64	85.8645	1,035.64	85.6621	1,035.64	85.975	1,035.64	85.3782	1,035.64	85.842	1,035.64	84.8971	1,035.64	85.5431	1,035.64	84.418	1,035.64	85.3826	1,035.64	84.4469	1,035.64	85.4017	1,035.64	84.9814	1,035.64	85.2664	1,035.64	85.3521	1,035.64	84.7428	1,035.64	85.1441	1,035.64	84.0265	1,035.64	84.4845	1,035.64	83.5192	1,035.64	83.749	1,035.64	83.2568	1,035.64	83.1391	1,035.64	82.8819	1,035.64	82.5976	1,035.64	82.248	1,035.64	82.2195	1,035.64	81.8639	1,035.64	82.2618	1,035.64	82.1811	1,035.64	82.6686	1,035.64	82.812	1,035.64	83.1686	1,035.64	83.3283	1,035.64	83.5204	1,035.64	83.5551	1,035.64	83.6079
1,072.27	85.8321	1,072.27	85.6227	1,072.27	85.7404	1,072.27	85.2863	1,072.27	85.3473	1,072.27	84.8831	1,072.27	84.9374	1,072.27	84.4216	1,072.27	84.763	1,072.27	84.2022	1,072.27	84.7628	1,072.27	84.4928	1,072.27	84.764	1,072.27	84.8093	1,072.27	84.7068	1,072.27	84.4891	1,072.27	84.502	1,072.27	83.4429	1,072.27	83.9776	1,072.27	82.2575	1,072.27	83.1572	1,072.27	81.5953	1,072.27	82.3692	1,072.27	81.3978	1,072.27	81.83	1,072.27	81.4217	1,072.27	81.4065	1,072.27	81.7456	1,072.27	81.3368	1,072.27	82.2871	1,072.27	81.9636	1,072.27	82.7024	1,072.27	82.708	1,072.27	82.8016	1,072.27	82.904	1,072.27	82.7912
1,108.89	85.6024	1,108.89	85.4716	1,108.89	85.637	1,108.89	85.2107	1,108.89	85.4178	1,108.89	84.7931	1,108.89	84.936	1,108.89	84.4766	1,108.89	84.5655	1,108.89	84.4929	1,108.89	84.5654	1,108.89	84.6381	1,108.89	84.6352	1,108.89	84.5758	1,108.89	84.3971	1,108.89	84.2107	1,108.89	83.8691	1,108.89	83.6278	1,108.89	83.3436	1,108.89	82.9438	1,108.89	82.9433	1,108.89	82.1488	1,108.89	82.4576	1,108.89	81.2364	1,108.89	81.8616	1,108.89	80.7547	1,108.89	81.5427	1,108.89	81.2215	1,108.89	81.616	1,108.89	81.9757	1,108.89	82.0477	1,108.89	82.3842	1,108.89	82.7278	1,108.89	82.5597	1,108.89	83.0757	1,108.89	82.8564
1,148.44	85.611	1,148.44	85.5232	1,148.44	85.5213	1,148.44	85.3286	1,148.44	85.2901	1,148.44	84.9937	1,148.44	85.0168	1,148.44	84.3768	1,148.44	84.7554	1,148.44	83.6874	1,148.44	84.4757	1,148.44	83.3844	1,148.44	84.1506	1,148.44	83.3504	1,148.44	83.8791	1,148.44	83.16	1,148.44	83.7165	1,148.44	82.685	1,148.44	83.4978	1,148.44	82.0129	1,148.44	83.0211	1,148.44	81.2385	1,148.44	82.2452	1,148.44	80.5311	1,148.44	81.3782	1,148.44	80.3302	1,148.44	80.8528	1,148.44	80.8287	1,148.44	81.015	1,148.44	81.6129	1,148.44	81.7225	1,148.44	82.2803	1,148.44	82.48	1,148.44	82.7012	1,148.44	82.8866	1,148.44	82.9053
1,189.45	86.7662	1,189.45	86.6545	1,189.45	86.6018	1,189.45	86.2776	1,189.45	86.2243	1,189.45	85.7595	1,189.45	85.7753	1,189.45	85.1719	1,189.45	85.44	1,189.45	84.4448	1,189.45	85.1827	1,189.45	83.6695	1,189.45	84.749	1,189.45	83.1171	1,189.45	84.0997	1,189.45	82.6681	1,189.45	83.555	1,189.45	81.912	1,189.45	83.2575	1,189.45	80.957	1,189.45	82.8854	1,189.45	80.5256	1,189.45	82.1475	1,189.45	80.551	1,189.45	81.204	1,189.45	80.3683	1,189.45	80.6635	1,189.45	80.4753	1,189.45	80.8765	1,189.45	81.4187	1,189.45	81.6594	1,189.45	82.3131	1,189.45	82.5833	1,189.45	82.7368	1,189.45	83.0869	1,189.45	83.0177
1,230.47	86.5626	1,230.47	86.4595	1,230.47	86.2639	1,230.47	85.995	1,230.47	85.8865	1,230.47	85.6013	1,230.47	85.549	1,230.47	85.2019	1,230.47	85.3139	1,230.47	84.5001	1,230.47	85.2453	1,230.47	83.8745	1,230.47	85.1533	1,230.47	83.7106	1,230.47	84.8231	1,230.47	83.5515	1,230.47	84.3192	1,230.47	82.8327	1,230.47	83.8115	1,230.47	81.6322	1,230.47	83.185	1,230.47	80.6529	1,230.47	82.1719	1,230.47	80.1362	1,230.47	80.8956	1,230.47	79.6781	1,230.47	79.9501	1,230.47	80.1097	1,230.47	79.9571	1,230.47	81.5026	1,230.47	81.0444	1,230.47	82.5307	1,230.47	82.3278	1,230.47	82.9195	1,230.47	82.968	1,230.47	83.037
1,274.41	86.7027	1,274.41	86.6384	1,274.41	86.3584	1,274.41	86.0442	1,274.41	85.8114	1,274.41	85.3167	1,274.41	85.3425	1,274.41	85.0241	1,274.41	85.0789	1,274.41	84.7333	1,274.41	84.8042	1,274.41	83.8888	1,274.41	84.4919	1,274.41	83.2789	1,274.41	84.2126	1,274.41	83.4168	1,274.41	83.8509	1,274.41	83.2124	1,274.41	83.5094	1,274.41	82.1141	1,274.41	83.1399	1,274.41	80.5941	1,274.41	82.0977	1,274.41	79.6531	1,274.41	80.2533	1,274.41	79.4515	1,274.41	79.258	1,274.41	79.7235	1,274.41	79.7737	1,274.41	80.8747	1,274.41	81.0223	1,274.41	82.256	1,274.41	82.5139	1,274.41	82.9533	1,274.41	83.2768	1,274.41	83.227
1,319.82	86.0398	1,319.82	86.0361	1,319.82	86.1091	1,319.82	85.7592	1,319.82	86.0052	1,319.82	85.0807	1,319.82	85.4418	1,319.82	84.3266	1,319.82	84.8276	1,319.82	83.8519	1,319.82	84.4036	1,319.82	83.2968	1,319.82	83.8966	1,319.82	82.3725	1,319.82	83.4331	1,319.82	81.9635	1,319.82	83.2501	1,319.82	82.411	1,319.82	83.2276	1,319.82	82.4041	1,319.82	83.0979	1,319.82	81.1248	1,319.82	82.366	1,319.82	79.2704	1,319.82	80.6164	1,319.82	78.802	1,319.82	78.7172	1,319.82	79.0968	1,319.82	78.7208	1,319.82	79.8242	1,319.82	80.2617	1,319.82	81.3452	1,319.82	81.625	1,319.82	82.4741	1,319.82	82.3491	1,319.82	82.6962
1,366.7	85.6211	1,366.7	85.4496	1,366.7	85.5458	1,366.7	85.1875	1,366.7	85.3085	1,366.7	84.8892	1,366.7	85.0665	1,366.7	84.3849	1,366.7	84.7879	1,366.7	83.7253	1,366.7	84.1665	1,366.7	82.9869	1,366.7	83.1115	1,366.7	82.2643	1,366.7	82.2918	1,366.7	81.8792	1,366.7	82.0309	1,366.7	81.4842	1,366.7	81.6611	1,366.7	80.6561	1,366.7	80.9617	1,366.7	79.6274	1,366.7	80.1437	1,366.7	78.5	1,366.7	79.2211	1,366.7	77.3176	1,366.7	78.4357	1,366.7	77.4346	1,366.7	78.2602	1,366.7	78.7321	1,366.7	79.0065	1,366.7	79.9719	1,366.7	80.1211	1,366.7	80.956	1,366.7	80.9439	1,366.7	81.3262
1,413.57	85.4817	1,413.57	85.3334	1,413.57	85.6213	1,413.57	84.8345	1,413.57	85.6837	1,413.57	84.4557	1,413.57	84.955	1,413.57	83.7891	1,413.57	84.0076	1,413.57	82.3968	1,413.57	83.8144	1,413.57	81.5832	1,413.57	83.3142	1,413.57	81.3785	1,413.57	82.0858	1,413.57	80.986	1,413.57	81.4742	1,413.57	80.7189	1,413.57	81.5831	1,413.57	80.1051	1,413.57	81.1188	1,413.57	78.8128	1,413.57	79.4151	1,413.57	77.5692	1,413.57	77.4923	1,413.57	76.3966	1,413.57	77.5286	1,413.57	76.3387	1,413.57	77.601	1,413.57	78.4485	1,413.57	77.4963	1,413.57	79.8968	1,413.57	79.2641	1,413.57	80.1695	1,413.57	80.3247	1,413.57	80.2769
1,463.38	85.6516	1,463.38	85.7297	1,463.38	85.5164	1,463.38	85.7781	1,463.38	85.4576	1,463.38	85.4137	1,463.38	85.427	1,463.38	84.2234	1,463.38	84.9751	1,463.38	82.6749	1,463.38	84.0422	1,463.38	81.5708	1,463.38	83.2477	1,463.38	80.532	1,463.38	82.5467	1,463.38	79.4988	1,463.38	82.1054	1,463.38	79.6643	1,463.38	82.3559	1,463.38	80.1425	1,463.38	82.2292	1,463.38	78.7624	1,463.38	80.598	1,463.38	75.7644	1,463.38	77.7415	1,463.38	74.8433	1,463.38	76.7169	1,463.38	74.1499	1,463.38	77.8259	1,463.38	76.0232	1,463.38	77.6233	1,463.38	80.0219	1,463.38	78.4948	1,463.38	82.1181	1,463.38	80.7125	1,463.38	82.1128
1,516.11	85.889	1,516.11	85.877	1,516.11	85.3749	1,516.11	85.4154	1,516.11	85.2497	1,516.11	85.0065	1,516.11	85.4416	1,516.11	84.3511	1,516.11	84.969	1,516.11	83.3401	1,516.11	83.8424	1,516.11	81.9104	1,516.11	82.7396	1,516.11	79.9327	1,516.11	81.4638	1,516.11	78.9876	1,516.11	80.5475	1,516.11	79.395	1,516.11	81.3211	1,516.11	79.5971	1,516.11	81.8787	1,516.11	78.8326	1,516.11	80.787	1,516.11	76.6311	1,516.11	78.4005	1,516.11	73.7579	1,516.11	76.3216	1,516.11	74.8411	1,516.11	75.8662	1,516.11	75.9436	1,516.11	77.7299	1,516.11	78.396	1,516.11	79.5307	1,516.11	81.1241	1,516.11	80.4934	1,516.11	81.4506
1,568.85	85.2859	1,568.85	84.9491	1,568.85	85.3966	1,568.85	84.7808	1,568.85	84.8677	1,568.85	84.4247	1,568.85	84.3206	1,568.85	83.4287	1,568.85	84.0725	1,568.85	82.4827	1,568.85	82.8735	1,568.85	81.7446	1,568.85	80.9069	1,568.85	80.1146	1,568.85	80.0805	1,568.85	78.6519	1,568.85	79.6237	1,568.85	78.7984	1,568.85	79.2047	1,568.85	79.2499	1,568.85	80.17	1,568.85	78.9848	1,568.85	80.2262	1,568.85	77.9575	1,568.85	78.6236	1,568.85	75.6978	1,568.85	76.6857	1,568.85	73.0368	1,568.85	74.8234	1,568.85	73.8396	1,568.85	74.7442	1,568.85	77.4917	1,568.85	77.5843	1,568.85	79.8435	1,568.85	79.0456	1,568.85	79.7445
1,624.51	83.9359	1,624.51	84.3458	1,624.51	83.7076	1,624.51	84.0208	1,624.51	83.5767	1,624.51	83.7529	1,624.51	82.8764	1,624.51	83.2866	1,624.51	82.698	1,624.51	82.1793	1,624.51	81.8139	1,624.51	81.1826	1,624.51	79.1326	1,624.51	79.202	1,624.51	77.6916	1,624.51	76.9258	1,624.51	77.8745	1,624.51	77.8898	1,624.51	77.0116	1,624.51	78.553	1,624.51	77.7948	1,624.51	78.3519	1,624.51	78.8816	1,624.51	78.0364	1,624.51	77.3415	1,624.51	74.7614	1,624.51	74.6562	1,624.51	71.885	1,624.51	74.5273	1,624.51	74.5571	1,624.51	74.1827	1,624.51	73.589	1,624.51	75.5275	1,624.51	75.6519	1,624.51	78.0973	1,624.51	78.1092
1,681.64	83.7586	1,681.64	83.5989	1,681.64	82.9061	1,681.64	82.5832	1,681.64	82.7262	1,681.64	82.3373	1,681.64	82.5834	1,681.64	82.4672	1,681.64	81.2643	1,681.64	81.5604	1,681.64	80.9451	1,681.64	80.8192	1,681.64	80.6325	1,681.64	79.978	1,681.64	77.9625	1,681.64	77.0199	1,681.64	75.8916	1,681.64	75.9971	1,681.64	76.4085	1,681.64	78.0015	1,681.64	75.9129	1,681.64	76.532	1,681.64	77.3316	1,681.64	75.067	1,681.64	78.0053	1,681.64	74.7378	1,681.64	74.719	1,681.64	67.9876	1,681.64	72.2062	1,681.64	68.763	1,681.64	73.5774	1,681.64	73.8688	1,681.64	74.1483	1,681.64	74.1297	1,681.64	77.6707	1,681.64	76.923
1,741.7	84.1723	1,741.7	83.9047	1,741.7	84.0537	1,741.7	83.7482	1,741.7	84.0493	1,741.7	83.4795	1,741.7	83.836	1,741.7	82.5174	1,741.7	82.3243	1,741.7	81.2203	1,741.7	81.0516	1,741.7	80.1861	1,741.7	80.6077	1,741.7	79.1639	1,741.7	79.1489	1,741.7	77.5629	1,741.7	76.9979	1,741.7	75.7075	1,741.7	75.7489	1,741.7	75.355	1,741.7	76.2311	1,741.7	75.4616	1,741.7	76.9907	1,741.7	75.9173	1,741.7	76.8202	1,741.7	74.0856	1,741.7	75.0758	1,741.7	70.8934	1,741.7	71.3689	1,741.7	70.5111	1,741.7	71.3235	1,741.7	74.6889	1,741.7	75.5437	1,741.7	76.289	1,741.7	78.1611	1,741.7	77.4203
1,803.22	85.2981	1,803.22	85.2051	1,803.22	85.133	1,803.22	84.5249	1,803.22	84.6693	1,803.22	83.5496	1,803.22	84.131	1,803.22	83.0379	1,803.22	83.3556	1,803.22	82.4967	1,803.22	82.7324	1,803.22	81.3735	1,803.22	82.1135	1,803.22	79.7271	1,803.22	80.5744	1,803.22	78.1328	1,803.22	79.5455	1,803.22	76.7693	1,803.22	78.2453	1,803.22	75.7174	1,803.22	76.5634	1,803.22	75.7696	1,803.22	77.404	1,803.22	76.1593	1,803.22	77.0403	1,803.22	74.7571	1,803.22	74.8763	1,803.22	71.9776	1,803.22	72.4252	1,803.22	70.282	1,803.22	71.39	1,803.22	72.7447	1,803.22	75.6255	1,803.22	76.6235	1,803.22	77.5261	1,803.22	78.0552
1,866.21	85.5712	1,866.21	85.6357	1,866.21	85.3797	1,866.21	85.2036	1,866.21	84.9545	1,866.21	84.1906	1,866.21	84.0801	1,866.21	83.1433	1,866.21	83.009	1,866.21	82.6197	1,866.21	82.2698	1,866.21	81.862	1,866.21	81.5146	1,866.21	80.3075	1,866.21	79.9034	1,866.21	78.7531	1,866.21	78.8156	1,866.21	77.3484	1,866.21	77.9136	1,866.21	76.325	1,866.21	75.8148	1,866.21	76.5853	1,866.21	77.0866	1,866.21	76.8465	1,866.21	77.9179	1,866.21	75.7765	1,866.21	75.6601	1,866.21	73.3492	1,866.21	73.5193	1,866.21	71.7818	1,866.21	71.626	1,866.21	73.6158	1,866.21	75.0229	1,866.21	76.3744	1,866.21	77.3618	1,866.21	77.8763
1,932.13	86.4967	1,932.13	86.3165	1,932.13	86.1661	1,932.13	85.5265	1,932.13	85.6316	1,932.13	84.5534	1,932.13	84.8216	1,932.13	83.2931	1,932.13	83.6521	1,932.13	82.347	1,932.13	82.2248	1,932.13	81.6289	1,932.13	81.3855	1,932.13	80.2207	1,932.13	80.238	1,932.13	78.8055	1,932.13	78.4812	1,932.13	77.7091	1,932.13	77.5345	1,932.13	76.8454	1,932.13	76.2444	1,932.13	76.6315	1,932.13	76.4331	1,932.13	76.8949	1,932.13	76.8736	1,932.13	75.8184	1,932.13	75.3559	1,932.13	71.7964	1,932.13	73.5875	1,932.13	70.6981	1,932.13	69.9242	1,932.13	73.9302	1,932.13	73.9764	1,932.13	75.587	1,932.13	77.8354	1,932.13	77.868
1,999.51	88.0572	1,999.51	87.648	1,999.51	87.9577	1,999.51	86.7363	1,999.51	87.6714	1,999.51	86.0734	1,999.51	86.7564	1,999.51	84.6102	1,999.51	85.7405	1,999.51	82.8849	1,999.51	84.1318	1,999.51	81.6271	1,999.51	82.6471	1,999.51	80.1445	1,999.51	81.5929	1,999.51	78.5115	1,999.51	79.6324	1,999.51	76.8888	1,999.51	78.6647	1,999.51	76.2464	1,999.51	77.9221	1,999.51	76.6264	1,999.51	78.2341	1,999.51	76.3892	1,999.51	77.7602	1,999.51	75.1417	1,999.51	75.498	1,999.51	72.2868	1,999.51	75.3092	1,999.51	66.4335	1,999.51	72.1466	1,999.51	72.3426	1,999.51	74.7756	1,999.51	76.5131	1,999.51	78.1428	1,999.51	78.0603
2,069.82	89.6389	2,069.82	89.2609	2,069.82	89.422	2,069.82	88.5388	2,069.82	89.0254	2,069.82	87.7728	2,069.82	88.0872	2,069.82	86.6122	2,069.82	87.148	2,069.82	84.8797	2,069.82	85.4963	2,069.82	82.7036	2,069.82	83.0481	2,069.82	80.7763	2,069.82	82.2764	2,069.82	79.2188	2,069.82	80.6698	2,069.82	78.5491	2,069.82	79.1367	2,069.82	76.9227	2,069.82	78.4255	2,069.82	76.574	2,069.82	77.378	2,069.82	76.8217	2,069.82	78.213	2,069.82	74.7671	2,069.82	76.6356	2,069.82	72.2608	2,069.82	75.0244	2,069.82	66.6877	2,069.82	73.1502	2,069.82	72.3398	2,069.82	73.6852	2,069.82	77.0206	2,069.82	77.8508	2,069.82	77.9786
2,143.07	89.4411	2,143.07	89.2521	2,143.07	89.2704	2,143.07	88.69	2,143.07	88.7793	2,143.07	87.8645	2,143.07	87.5052	2,143.07	86.8832	2,143.07	86.265	2,143.07	85.3972	2,143.07	84.8032	2,143.07	83.5026	2,143.07	82.2496	2,143.07	81.4651	2,143.07	80.3901	2,143.07	79.0707	2,143.07	78.5407	2,143.07	78.0849	2,143.07	77.8366	2,143.07	77.2612	2,143.07	77.5508	2,143.07	77.3714	2,143.07	75.745	2,143.07	78.0391	2,143.07	76.116	2,143.07	76.1241	2,143.07	75.8351	2,143.07	73.139	2,143.07	74.0236	2,143.07	66.8821	2,143.07	71.1022	2,143.07	71.2168	2,143.07	71.2207	2,143.07	75.4541	2,143.07	76.2646	2,143.07	76.0421
2,219.24	87.9939	2,219.24	87.6833	2,219.24	87.805	2,219.24	86.9128	2,219.24	87.2342	2,219.24	85.7574	2,219.24	86.0181	2,219.24	84.6619	2,219.24	84.6787	2,219.24	83.3478	2,219.24	83.5151	2,219.24	81.3857	2,219.24	81.4264	2,219.24	78.8985	2,219.24	78.6599	2,219.24	76.8268	2,219.24	76.1888	2,219.24	75.7522	2,219.24	75.0219	2,219.24	73.9634	2,219.24	75.2129	2,219.24	74.359	2,219.24	74.1594	2,219.24	75.5663	2,219.24	74.1526	2,219.24	74.2658	2,219.24	73.5772	2,219.24	71.8352	2,219.24	68.6274	2,219.24	68.2448	2,219.24	66.3467	2,219.24	68.4593	2,219.24	68.3643	2,219.24	75.0113	2,219.24	74.6521	2,219.24	76.0935
2,296.88	85.8875	2,296.88	85.6616	2,296.88	85.9893	2,296.88	85.0861	2,296.88	85.5206	2,296.88	83.8982	2,296.88	84.2697	2,296.88	82.5641	2,296.88	82.7367	2,296.88	81.1482	2,296.88	81.8154	2,296.88	79.5416	2,296.88	80.6895	2,296.88	77.2604	2,296.88	77.9207	2,296.88	75.8364	2,296.88	75.3996	2,296.88	74.2431	2,296.88	74.3563	2,296.88	72.9097	2,296.88	74.3352	2,296.88	72.7078	2,296.88	74.7842	2,296.88	74.3108	2,296.88	75.2562	2,296.88	74.6814	2,296.88	75.4461	2,296.88	71.7887	2,296.88	71.7114	2,296.88	69.1147	2,296.88	69.8613	2,296.88	68.349	2,296.88	70.5768	2,296.88	73.6261	2,296.88	74.032	2,296.88	75.4142
2,378.91	84.6726	2,378.91	84.5436	2,378.91	84.3473	2,378.91	84.1163	2,378.91	83.8074	2,378.91	83.1786	2,378.91	82.4533	2,378.91	81.53	2,378.91	81.0665	2,378.91	81.0207	2,378.91	80.2222	2,378.91	80.1432	2,378.91	79.2579	2,378.91	78.0091	2,378.91	77.4976	2,378.91	76.559	2,378.91	74.5586	2,378.91	74.4558	2,378.91	72.3841	2,378.91	73.3089	2,378.91	72.8456	2,378.91	73.4534	2,378.91	73.1893	2,378.91	74.4935	2,378.91	74.576	2,378.91	75.407	2,378.91	75.2822	2,378.91	73.8831	2,378.91	71.9495	2,378.91	69.2719	2,378.91	68.8995	2,378.91	66.1403	2,378.91	70.2181	2,378.91	73.329	2,378.91	74.2277	2,378.91	75.7868
2,462.4	84.1099	2,462.4	83.882	2,462.4	83.9517	2,462.4	83.0487	2,462.4	83.0249	2,462.4	81.6905	2,462.4	81.9302	2,462.4	80.4532	2,462.4	80.439	2,462.4	79.5496	2,462.4	78.7774	2,462.4	79.2141	2,462.4	78.2681	2,462.4	78.4148	2,462.4	77.5139	2,462.4	77.0381	2,462.4	76.2452	2,462.4	74.3954	2,462.4	73.0272	2,462.4	72.8473	2,462.4	68.5944	2,462.4	72.5358	2,462.4	70.6369	2,462.4	74.0717	2,462.4	72.4626	2,462.4	75.6928	2,462.4	73.3286	2,462.4	74.1836	2,462.4	69.4673	2,462.4	70.43	2,462.4	68.6118	2,462.4	68.0059	2,462.4	70.2283	2,462.4	74.1487	2,462.4	71.2764	2,462.4	74.316
2,548.83	85.3807	2,548.83	85.1863	2,548.83	85.4121	2,548.83	84.2946	2,548.83	85.1141	2,548.83	83.457	2,548.83	83.4952	2,548.83	81.5741	2,548.83	81.9566	2,548.83	79.6279	2,548.83	79.9769	2,548.83	77.3568	2,548.83	78.7733	2,548.83	75.4425	2,548.83	78.392	2,548.83	75.4025	2,548.83	77.4341	2,548.83	73.6597	2,548.83	76.1416	2,548.83	71.8798	2,548.83	72.8268	2,548.83	69.9912	2,548.83	71.4408	2,548.83	71.3371	2,548.83	73.06	2,548.83	73.5513	2,548.83	71.786	2,548.83	71.6759	2,548.83	72.5509	2,548.83	69.403	2,548.83	69.6327	2,548.83	66.4266	2,548.83	70.9591	2,548.83	74.3639	2,548.83	72.1717	2,548.83	75.3473
2,639.65	86.3205	2,639.65	86.2113	2,639.65	86.3211	2,639.65	85.7222	2,639.65	85.8404	2,639.65	84.6383	2,639.65	84.6181	2,639.65	83.0927	2,639.65	82.9699	2,639.65	81.6453	2,639.65	80.8358	2,639.65	80.0753	2,639.65	78.8151	2,639.65	78.3315	2,639.65	78.258	2,639.65	77.3592	2,639.65	77.9771	2,639.65	75.7468	2,639.65	76.6118	2,639.65	73.2054	2,639.65	74.4219	2,639.65	72.4742	2,639.65	70.7113	2,639.65	72.2485	2,639.65	72.6732	2,639.65	74.2656	2,639.65	73.3173	2,639.65	73.31	2,639.65	70.911	2,639.65	69.7542	2,639.65	69.0779	2,639.65	67.3207	2,639.65	66.4944	2,639.65	72.9528	2,639.65	72.2327	2,639.65	75.242
2,731.93	85.6786	2,731.93	85.5233	2,731.93	85.6947	2,731.93	85.2084	2,731.93	84.9627	2,731.93	84.0295	2,731.93	83.6386	2,731.93	82.4198	2,731.93	82.1513	2,731.93	81.2997	2,731.93	80.5319	2,731.93	79.8569	2,731.93	78.5361	2,731.93	78.4083	2,731.93	76.5267	2,731.93	77.5542	2,731.93	75.5408	2,731.93	76.2005	2,731.93	74.9638	2,731.93	74.7884	2,731.93	72.8864	2,731.93	72.8981	2,731.93	71.6811	2,731.93	70.9112	2,731.93	71.5208	2,731.93	72.2437	2,731.93	71.407	2,731.93	72.5402	2,731.93	71.4089	2,731.93	69.4714	2,731.93	67.8212	2,731.93	68.2875	2,731.93	63.7641	2,731.93	71.4119	2,731.93	70.5165	2,731.93	74.2608
2,828.61	85.9493	2,828.61	85.6926	2,828.61	85.9451	2,828.61	84.9219	2,828.61	85.0774	2,828.61	83.3317	2,828.61	83.5982	2,828.61	81.7338	2,828.61	82.0278	2,828.61	80.5916	2,828.61	80.3498	2,828.61	79.3454	2,828.61	78.7183	2,828.61	78.1855	2,828.61	76.5406	2,828.61	75.8898	2,828.61	74.8375	2,828.61	73.3325	2,828.61	72.0842	2,828.61	72.823	2,828.61	71.3944	2,828.61	71.5059	2,828.61	71.0728	2,828.61	70.7256	2,828.61	69.8147	2,828.61	70.7825	2,828.61	72.521	2,828.61	70.3989	2,828.61	69.5463	2,828.61	68.3367	2,828.61	62.9876	2,828.61	61.6859	2,828.61	61.0506	2,828.61	68.7719	2,828.61	69.6255	2,828.61	72.5324
2,928.22	86.663	2,928.22	86.371	2,928.22	86.5707	2,928.22	85.6719	2,928.22	85.5644	2,928.22	84.0547	2,928.22	83.7818	2,928.22	81.9885	2,928.22	81.8507	2,928.22	80.2941	2,928.22	79.8471	2,928.22	78.3967	2,928.22	78.4797	2,928.22	78.0165	2,928.22	77.2484	2,928.22	76.9018	2,928.22	75.9475	2,928.22	74.1757	2,928.22	74.1329	2,928.22	73.642	2,928.22	72.5398	2,928.22	71.2414	2,928.22	71.6472	2,928.22	69.9094	2,928.22	68.7262	2,928.22	71.2976	2,928.22	70.2445	2,928.22	70.731	2,928.22	70.0763	2,928.22	70.2305	2,928.22	65.8582	2,928.22	66.269	2,928.22	65.5546	2,928.22	68.4075	2,928.22	67.6296	2,928.22	71.0474
3,030.76	86.4769	3,030.76	86.2443	3,030.76	86.475	3,030.76	85.6566	3,030.76	85.2399	3,030.76	83.6619	3,030.76	83.53	3,030.76	81.8017	3,030.76	81.7253	3,030.76	80.4777	3,030.76	79.5426	3,030.76	78.3401	3,030.76	77.6216	3,030.76	76.7999	3,030.76	76.1993	3,030.76	75.0809	3,030.76	75.2843	3,030.76	73.2405	3,030.76	73.2544	3,030.76	72.3426	3,030.76	71.4008	3,030.76	71.1654	3,030.76	71.3102	3,030.76	70.3076	3,030.76	70.0009	3,030.76	71.2384	3,030.76	70.1209	3,030.76	71.3557	3,030.76	70.2222	3,030.76	69.5174	3,030.76	66.0468	3,030.76	66.2699	3,030.76	63.6084	3,030.76	70.7428	3,030.76	67.3487	3,030.76	71.9234
3,137.7	86.6108	3,137.7	86.2437	3,137.7	86.4047	3,137.7	85.4147	3,137.7	85.5152	3,137.7	83.7052	3,137.7	83.9323	3,137.7	81.4511	3,137.7	81.5517	3,137.7	79.8204	3,137.7	79.1708	3,137.7	78.381	3,137.7	77.5375	3,137.7	76.7984	3,137.7	75.2024	3,137.7	74.8634	3,137.7	74.1593	3,137.7	72.6576	3,137.7	72.6018	3,137.7	71.9307	3,137.7	70.6594	3,137.7	70.3092	3,137.7	69.953	3,137.7	69.05	3,137.7	68.1613	3,137.7	70.597	3,137.7	69.7349	3,137.7	70.3812	3,137.7	68.9876	3,137.7	70.3653	3,137.7	65.1536	3,137.7	65.6716	3,137.7	64.6482	3,137.7	68.1113	3,137.7	68.2299	3,137.7	71.0487
3,249.02	87.5288	3,249.02	87.4266	3,249.02	87.3398	3,249.02	86.499	3,249.02	86.2743	3,249.02	84.7142	3,249.02	84.7319	3,249.02	82.6324	3,249.02	82.3088	3,249.02	80.1153	3,249.02	79.0989	3,249.02	77.7107	3,249.02	77.3944	3,249.02	76.3848	3,249.02	75.5226	3,249.02	74.9511	3,249.02	73.355	3,249.02	72.2221	3,249.02	71.4897	3,249.02	71.1614	3,249.02	70.4811	3,249.02	70.102	3,249.02	68.9481	3,249.02	68.7386	3,249.02	66.709	3,249.02	69.3764	3,249.02	67.6468	3,249.02	68.5696	3,249.02	68.2606	3,249.02	69.1567	3,249.02	65.9553	3,249.02	67.3488	3,249.02	64.4877	3,249.02	65.7216	3,249.02	67.0144	3,249.02	69.6068
3,363.28	86.9563	3,363.28	86.9249	3,363.28	86.6453	3,363.28	86.191	3,363.28	85.7144	3,363.28	84.7393	3,363.28	84.3112	3,363.28	82.5947	3,363.28	82.2304	3,363.28	79.9981	3,363.28	79.257	3,363.28	77.3539	3,363.28	76.6032	3,363.28	76.2858	3,363.28	75.1335	3,363.28	74.6036	3,363.28	73.478	3,363.28	72.0607	3,363.28	70.7968	3,363.28	70.6786	3,363.28	69.3669	3,363.28	69.4269	3,363.28	68.9366	3,363.28	69.0417	3,363.28	67.243	3,363.28	68.0179	3,363.28	65.1258	3,363.28	68.5046	3,363.28	68.8283	3,363.28	69.444	3,363.28	67.1764	3,363.28	67.1455	3,363.28	64.3808	3,363.28	64.9713	3,363.28	66.0136	3,363.28	68.3512
3,481.93	86.6285	3,481.93	86.281	3,481.93	86.3774	3,481.93	85.4756	3,481.93	85.3533	3,481.93	83.947	3,481.93	83.9034	3,481.93	81.6814	3,481.93	81.9018	3,481.93	78.6878	3,481.93	79.1926	3,481.93	75.2132	3,481.93	75.8783	3,481.93	74.4846	3,481.93	74.2524	3,481.93	72.478	3,481.93	73.4712	3,481.93	69.6294	3,481.93	71.0063	3,481.93	68.1284	3,481.93	69.2097	3,481.93	67.1252	3,481.93	67.4525	3,481.93	67.6955	3,481.93	67.9441	3,481.93	66.222	3,481.93	66.7513	3,481.93	64.6977	3,481.93	66.8092	3,481.93	67.5868	3,481.93	66.2805	3,481.93	67.3123	3,481.93	63.5448	3,481.93	64.5736	3,481.93	66.7049	3,481.93	66.901
3,604.98	86.7145	3,604.98	86.1586	3,604.98	86.2469	3,604.98	85.2102	3,604.98	85.4864	3,604.98	83.8847	3,604.98	83.9088	3,604.98	81.2983	3,604.98	81.2417	3,604.98	78.136	3,604.98	78.5411	3,604.98	74.6575	3,604.98	75.078	3,604.98	72.3115	3,604.98	72.222	3,604.98	70.6082	3,604.98	71.3456	3,604.98	69.9463	3,604.98	69.0485	3,604.98	65.3043	3,604.98	67.3054	3,604.98	63.1604	3,604.98	64.5452	3,604.98	65.2724	3,604.98	64.4571	3,604.98	63.9294	3,604.98	65.6071	3,604.98	64.7412	3,604.98	64.1658	3,604.98	65.7938	3,604.98	63.8349	3,604.98	64.4089	3,604.98	62.4264	3,604.98	63.7137	3,604.98	66.4009	3,604.98	66.1458
3,732.42	87.134	3,732.42	86.5599	3,732.42	86.9253	3,732.42	85.5497	3,732.42	86.1138	3,732.42	83.8142	3,732.42	84.3614	3,732.42	81.1181	3,732.42	82.084	3,732.42	78.2424	3,732.42	79.4412	3,732.42	74.243	3,732.42	75.9385	3,732.42	68.3569	3,732.42	73.7165	3,732.42	67.2718	3,732.42	72.8576	3,732.42	70.0511	3,732.42	70.4147	3,732.42	66.4677	3,732.42	68.5495	3,732.42	64.4163	3,732.42	66.348	3,732.42	65.2241	3,732.42	65.1749	3,732.42	64.2625	3,732.42	65.7067	3,732.42	65.2613	3,732.42	65.0713	3,732.42	67.1918	3,732.42	65.616	3,732.42	65.4697	3,732.42	62.0157	3,732.42	61.3958	3,732.42	67.091	3,732.42	66.954
3,864.26	86.3344	3,864.26	85.9675	3,864.26	86.1081	3,864.26	84.9774	3,864.26	85.1664	3,864.26	83.1162	3,864.26	83.6308	3,864.26	80.5797	3,864.26	81.4314	3,864.26	78.1576	3,864.26	78.5444	3,864.26	74.8233	3,864.26	75.5774	3,864.26	71.5665	3,864.26	71.685	3,864.26	68.1292	3,864.26	70.3424	3,864.26	68.6634	3,864.26	69.6753	3,864.26	66.7976	3,864.26	68.8021	3,864.26	64.8565	3,864.26	65.4257	3,864.26	64.5212	3,864.26	62.2078	3,864.26	62.7304	3,864.26	64.5076	3,864.26	65.4918	3,864.26	64.6869	3,864.26	66.3046	3,864.26	64.4622	3,864.26	65.3088	3,864.26	60.8787	3,864.26	59.4094	3,864.26	64.0688	3,864.26	65.0267
4,000.49	86.3447	4,000.49	85.9087	4,000.49	86.3722	4,000.49	85.0553	4,000.49	85.3079	4,000.49	82.662	4,000.49	83.783	4,000.49	80.3151	4,000.49	81.5132	4,000.49	77.5899	4,000.49	78.7611	4,000.49	74.3044	4,000.49	75.561	4,000.49	74.0932	4,000.49	72.6774	4,000.49	68.371	4,000.49	71.0337	4,000.49	66.4063	4,000.49	68.0852	4,000.49	67.5627	4,000.49	66.0738	4,000.49	63.3073	4,000.49	65.3268	4,000.49	62.6064	4,000.49	62.5988	4,000.49	59.0709	4,000.49	62.4417	4,000.49	61.7573	4,000.49	63.5517	4,000.49	63.8163	4,000.49	62.5157	4,000.49	63.386	4,000.49	61.989	4,000.49	58.4793	4,000.49	65.976	4,000.49	65.64
4,141.11	85.5875	4,141.11	85.0767	4,141.11	85.8919	4,141.11	84.8524	4,141.11	84.3569	4,141.11	82.6686	4,141.11	83.2631	4,141.11	80.4045	4,141.11	81.2926	4,141.11	76.6098	4,141.11	77.8988	4,141.11	74.4174	4,141.11	74.9249	4,141.11	74.9481	4,141.11	70.6989	4,141.11	70.4636	4,141.11	68.2355	4,141.11	69.2504	4,141.11	68.3138	4,141.11	69.7134	4,141.11	67.2348	4,141.11	67.3679	4,141.11	62.1524	4,141.11	66.1036	4,141.11	62.6794	4,141.11	62.5581	4,141.11	62.231	4,141.11	61.5076	4,141.11	62.143	4,141.11	65.207	4,141.11	59.918	4,141.11	64.2875	4,141.11	59.9713	4,141.11	64.147	4,141.11	65.7943	4,141.11	65.4256
4,287.6	86.291	4,287.6	86.4911	4,287.6	85.336	4,287.6	85.7221	4,287.6	84.2126	4,287.6	84.4358	4,287.6	82.6673	4,287.6	81.6732	4,287.6	79.4243	4,287.6	76.7272	4,287.6	76.8004	4,287.6	76.5105	4,287.6	73.2537	4,287.6	75.0961	4,287.6	70.4985	4,287.6	69.4518	4,287.6	65.6569	4,287.6	70.5633	4,287.6	64.3886	4,287.6	69.1003	4,287.6	68.1756	4,287.6	66.9178	4,287.6	61.2136	4,287.6	66.9254	4,287.6	57.7084	4,287.6	64.5718	4,287.6	60.0307	4,287.6	65.3564	4,287.6	58.5984	4,287.6	65.8501	4,287.6	62.9231	4,287.6	65.4423	4,287.6	58	4,287.6	66.4058	4,287.6	63.8741	4,287.6	66.4237
4,438.48	86.1044	4,438.48	86.4961	4,438.48	84.294	4,438.48	85.0049	4,438.48	83.7731	4,438.48	84.1083	4,438.48	81.5085	4,438.48	81.6972	4,438.48	78.4311	4,438.48	79.1277	4,438.48	75.7606	4,438.48	77.7004	4,438.48	71.8877	4,438.48	74.1497	4,438.48	69.2477	4,438.48	70.3886	4,438.48	67.214	4,438.48	71.715	4,438.48	62.9916	4,438.48	69.0903	4,438.48	63.1899	4,438.48	66.3502	4,438.48	63.6421	4,438.48	64.9103	4,438.48	61.2483	4,438.48	63.4139	4,438.48	62.6489	4,438.48	65.243	4,438.48	51.7944	4,438.48	67.3747	4,438.48	60.869	4,438.48	65.3658	4,438.48	60.0922	4,438.48	65.5746	4,438.48	59.4566	4,438.48	65.0512
4,595.21	85.9061	4,595.21	85.7881	4,595.21	84.9794	4,595.21	84.7568	4,595.21	82.9555	4,595.21	83.25	4,595.21	80.2413	4,595.21	81.7094	4,595.21	77.9159	4,595.21	80.4387	4,595.21	74.7739	4,595.21	76.1287	4,595.21	71.2128	4,595.21	70.2265	4,595.21	68.4575	4,595.21	69.5887	4,595.21	66.9161	4,595.21	70.4138	4,595.21	62.694	4,595.21	67.1601	4,595.21	64.348	4,595.21	65.5026	4,595.21	63.5386	4,595.21	62.9684	4,595.21	56.7295	4,595.21	63.0316	4,595.21	60.0062	4,595.21	63.7755	4,595.21	58.9295	4,595.21	65.5299	4,595.21	60.3059	4,595.21	65.0544	4,595.21	61.0764	4,595.21	63.9819	4,595.21	57.8415	4,595.21	64.4348
4,756.35	85.7844	4,756.35	85.0671	4,756.35	85.7269	4,756.35	84.5606	4,756.35	83.0185	4,756.35	82.3148	4,756.35	80.8038	4,756.35	81.5978	4,756.35	78.166	4,756.35	79.7571	4,756.35	75.1787	4,756.35	73.8149	4,756.35	72.423	4,756.35	72.1125	4,756.35	70.2551	4,756.35	70.0591	4,756.35	66.3399	4,756.35	66.5719	4,756.35	65.1725	4,756.35	65.7066	4,756.35	62.6456	4,756.35	66.1241	4,756.35	61.6106	4,756.35	59.9659	4,756.35	61.9042	4,756.35	61.7272	4,756.35	57.9253	4,756.35	64.2188	4,756.35	58.8332	4,756.35	63.3059	4,756.35	59.0395	4,756.35	64.2095	4,756.35	60.893	4,756.35	63.8468	4,756.35	58.8876	4,756.35	63.6651
4,924.8	85.4565	4,924.8	85.2738	4,924.8	84.6075	4,924.8	84.4432	4,924.8	82.8701	4,924.8	82.6239	4,924.8	81.075	4,924.8	80.9234	4,924.8	78.1807	4,924.8	76.8582	4,924.8	75.7951	4,924.8	73.1988	4,924.8	72.8463	4,924.8	73.1748	4,924.8	70.2204	4,924.8	67.8039	4,924.8	66.669	4,924.8	62.6344	4,924.8	65.6116	4,924.8	63.0125	4,924.8	62.4865	4,924.8	61.7554	4,924.8	61.688	4,924.8	57.3711	4,924.8	60.0653	4,924.8	57.2629	4,924.8	59.29	4,924.8	59.6109	4,924.8	59.8467	4,924.8	61.6747	4,924.8	57.1851	4,924.8	60.8919	4,924.8	60.2882	4,924.8	62.2214	4,924.8	58.5819	4,924.8	63.3284
5,097.66	85.561	5,097.66	85.2289	5,097.66	84.6644	5,097.66	83.3372	5,097.66	83.8437	5,097.66	81.2804	5,097.66	82.3809	5,097.66	78.5899	5,097.66	79.8457	5,097.66	73.1536	5,097.66	77.333	5,097.66	71.2834	5,097.66	73.8133	5,097.66	69.9157	5,097.66	70.2375	5,097.66	62.4826	5,097.66	66.7104	5,097.66	60.0129	5,097.66	64.7477	5,097.66	58.331	5,097.66	61.9444	5,097.66	55.6344	5,097.66	60.51	5,097.66	51.2685	5,097.66	58.9156	5,097.66	45.7196	5,097.66	57.3231	5,097.66	52.4809	5,097.66	59.6259	5,097.66	56.4913	5,097.66	57.8845	5,097.66	51.9896	5,097.66	60.2787	5,097.66	55.2447	5,097.66	57.7307	5,097.66	58.6935
5,277.83	85.1111	5,277.83	84.4358	5,277.83	84.5132	5,277.83	82.1497	5,277.83	83.882	5,277.83	80.1388	5,277.83	82.2027	5,277.83	77.0683	5,277.83	79.5805	5,277.83	72.673	5,277.83	76.7384	5,277.83	71.1302	5,277.83	72.421	5,277.83	67.7291	5,277.83	67.7997	5,277.83	58.6095	5,277.83	63.8674	5,277.83	58.9362	5,277.83	59.9682	5,277.83	53.3571	5,277.83	51.3212	5,277.83	51.3259	5,277.83	52.2657	5,277.83	54.6746	5,277.83	56.821	5,277.83	53.194	5,277.83	50.6618	5,277.83	52.1319	5,277.83	50.1867	5,277.83	46.3604	5,277.83	50.967	5,277.83	45.8003	5,277.83	49.0132	5,277.83	34.8023	5,277.83	55.9937	5,277.83	52.5701
5,463.87	86.6885	5,463.87	85.7803	5,463.87	86.5512	5,463.87	83.9751	5,463.87	85.1147	5,463.87	80.0121	5,463.87	82.8614	5,463.87	75.8694	5,463.87	79.4522	5,463.87	72.2131	5,463.87	75.4549	5,463.87	67.4713	5,463.87	69.9972	5,463.87	64.0165	5,463.87	64.6994	5,463.87	61.8542	5,463.87	59.6605	5,463.87	62.6519	5,463.87	33.2067	5,463.87	60.6679	5,463.87	51.2499	5,463.87	57.9219	5,463.87	46.0554	5,463.87	59.3234	5,463.87	49.55	5,463.87	58.6697	5,463.87	49.3317	5,463.87	58.7996	5,463.87	55.804	5,463.87	55.6497	5,463.87	53.0607	5,463.87	57.3835	5,463.87	50.9743	5,463.87	57.9483	5,463.87	47.7586	5,463.87	57.9516
5,657.23	88.161	5,657.23	87.092	5,657.23	87.4781	5,657.23	84.2533	5,657.23	85.2184	5,657.23	79.6216	5,657.23	81.7166	5,657.23	73.0644	5,657.23	76.7128	5,657.23	66.2692	5,657.23	69.7341	5,657.23	68.2243	5,657.23	64.9692	5,657.23	68.4936	5,657.23	66.6037	5,657.23	68.8096	5,657.23	67.0801	5,657.23	67.6441	5,657.23	64.7822	5,657.23	65.6839	5,657.23	64.5452	5,657.23	63.6855	5,657.23	62.8253	5,657.23	65.0301	5,657.23	59.8051	5,657.23	62.8073	5,657.23	60.4082	5,657.23	62.9693	5,657.23	63.3795	5,657.23	62.1175	5,657.23	62.9017	5,657.23	63.7317	5,657.23	59.931	5,657.23	62.6056	5,657.23	58.1151	5,657.23	63.1621
5,856.45	89.2969	5,856.45	88.2658	5,856.45	88.5444	5,856.45	84.9633	5,856.45	85.5756	5,856.45	78.9463	5,856.45	79.8175	5,856.45	69.4298	5,856.45	69.5182	5,856.45	63.488	5,856.45	61.1405	5,856.45	71.718	5,856.45	69.6296	5,856.45	72.0313	5,856.45	71.0911	5,856.45	71.2543	5,856.45	70.3739	5,856.45	70.5164	5,856.45	69.7681	5,856.45	69.8811	5,856.45	69.213	5,856.45	68.6655	5,856.45	65.8769	5,856.45	66.6046	5,856.45	64.2273	5,856.45	64.7672	5,856.45	64.9714	5,856.45	66.7773	5,856.45	64.8757	5,856.45	66.7868	5,856.45	65.1063	5,856.45	66.1947	5,856.45	66.0803	5,856.45	66.1574	5,856.45	61.5062	5,856.45	66.3595
6,062.99	88.9554	6,062.99	88.0653	6,062.99	87.68	6,062.99	84.4891	6,062.99	84.6018	6,062.99	77.8153	6,062.99	78.4691	6,062.99	69.0458	6,062.99	67.7146	6,062.99	70.7527	6,062.99	70.9901	6,062.99	73.8453	6,062.99	73.0445	6,062.99	72.9829	6,062.99	72.6016	6,062.99	72.1498	6,062.99	70.0413	6,062.99	70.3724	6,062.99	70.0461	6,062.99	69.2488	6,062.99	68.4438	6,062.99	68.6236	6,062.99	64.489	6,062.99	66.6094	6,062.99	66.6014	6,062.99	63.7764	6,062.99	64.7519	6,062.99	67.168	6,062.99	66.5926	6,062.99	67.3769	6,062.99	65.9953	6,062.99	66.6314	6,062.99	66.9701	6,062.99	67.3788	6,062.99	62.887	6,062.99	67.2161
6,276.86	88.0592	6,276.86	87.0076	6,276.86	86.7912	6,276.86	83.373	6,276.86	83.0548	6,276.86	77.6276	6,276.86	76.9848	6,276.86	72.9216	6,276.86	72.2982	6,276.86	74.3741	6,276.86	74.0432	6,276.86	74.9043	6,276.86	73.9442	6,276.86	72.9515	6,276.86	72.9422	6,276.86	72.3465	6,276.86	70.7642	6,276.86	69.682	6,276.86	68.4284	6,276.86	66.9042	6,276.86	66.1949	6,276.86	65.5919	6,276.86	66.1882	6,276.86	65.1155	6,276.86	63.0414	6,276.86	62.8581	6,276.86	63.1048	6,276.86	65.4512	6,276.86	64.7261	6,276.86	67.3314	6,276.86	65.341	6,276.86	66.969	6,276.86	61.8544	6,276.86	66.5307	6,276.86	64.42	6,276.86	66.3193
6,498.05	86.6198	6,498.05	85.5568	6,498.05	85.3887	6,498.05	82.1463	6,498.05	81.7169	6,498.05	77.1283	6,498.05	76.7773	6,498.05	73.5893	6,498.05	73.3308	6,498.05	74.715	6,498.05	73.6943	6,498.05	74.5636	6,498.05	73.3654	6,498.05	72.412	6,498.05	72.1337	6,498.05	70.0745	6,498.05	69.1023	6,498.05	68.4424	6,498.05	68.0088	6,498.05	66.5907	6,498.05	65.8097	6,498.05	62.0833	6,498.05	65.7292	6,498.05	63.5678	6,498.05	62.1296	6,498.05	63.3416	6,498.05	58.9052	6,498.05	64.1661	6,498.05	65.1959	6,498.05	66.6067	6,498.05	65.321	6,498.05	65.8422	6,498.05	61.1252	6,498.05	63.1191	6,498.05	61.2156	6,498.05	64.7634
6,726.56	85.6365	6,726.56	84.8005	6,726.56	84.2656	6,726.56	81.6562	6,726.56	80.9903	6,726.56	76.1209	6,726.56	77.2538	6,726.56	75.0681	6,726.56	74.7794	6,726.56	74.6031	6,726.56	73.4773	6,726.56	73.7208	6,726.56	72.3302	6,726.56	70.8974	6,726.56	70.5393	6,726.56	70.7298	6,726.56	69.0743	6,726.56	70.0117	6,726.56	67.8254	6,726.56	67.2841	6,726.56	65.1408	6,726.56	63.3855	6,726.56	61.6615	6,726.56	62.214	6,726.56	61.3398	6,726.56	60.5805	6,726.56	59.8689	6,726.56	63.8401	6,726.56	61.8879	6,726.56	64.447	6,726.56	59.3661	6,726.56	64.1593	6,726.56	60.5798	6,726.56	60.7554	6,726.56	55.7917	6,726.56	62.747
6,963.87	85.3451	6,963.87	84.9411	6,963.87	83.8887	6,963.87	81.7881	6,963.87	81.5048	6,963.87	78.1145	6,963.87	78.9044	6,963.87	76.4795	6,963.87	76.4206	6,963.87	74.1932	6,963.87	73.793	6,963.87	73.3	6,963.87	71.7225	6,963.87	70.5829	6,963.87	70.2367	6,963.87	69.5898	6,963.87	66.5406	6,963.87	67.2215	6,963.87	65.5272	6,963.87	65.817	6,963.87	64.5767	6,963.87	63.6658	6,963.87	60.9106	6,963.87	63.5409	6,963.87	61.5019	6,963.87	60.9402	6,963.87	59.1322	6,963.87	62.4702	6,963.87	62.6894	6,963.87	61.6325	6,963.87	61.98	6,963.87	61.6181	6,963.87	60.9136	6,963.87	60.305	6,963.87	55.0943	6,963.87	61.6467
7,209.96	84.8354	7,209.96	84.1202	7,209.96	83.9197	7,209.96	81.7424	7,209.96	81.8403	7,209.96	79.1874	7,209.96	79.8719	7,209.96	76.7866	7,209.96	76.7887	7,209.96	73.8386	7,209.96	73.4734	7,209.96	71.7511	7,209.96	70.3717	7,209.96	67.859	7,209.96	68.7173	7,209.96	66.6391	7,209.96	66.7014	7,209.96	63.3252	7,209.96	65.5739	7,209.96	61.4175	7,209.96	62.6839	7,209.96	59.2263	7,209.96	62.1556	7,209.96	61.9324	7,209.96	59.2944	7,209.96	61.2644	7,209.96	54.487	7,209.96	57.7117	7,209.96	57.0494	7,209.96	60.0282	7,209.96	61.5589	7,209.96	60.1355	7,209.96	61.7135	7,209.96	60.8226	7,209.96	57.6215	7,209.96	60.5117
7,464.84	85.8203	7,464.84	85.1946	7,464.84	84.9351	7,464.84	82.9041	7,464.84	83.0375	7,464.84	79.7992	7,464.84	80.6119	7,464.84	76.2738	7,464.84	76.5744	7,464.84	70.766	7,464.84	71.6763	7,464.84	67.7194	7,464.84	67.6168	7,464.84	66.3792	7,464.84	67.0524	7,464.84	65.814	7,464.84	66.9558	7,464.84	62.6721	7,464.84	64.151	7,464.84	61.9886	7,464.84	61.7623	7,464.84	60.1038	7,464.84	61.6272	7,464.84	61.7742	7,464.84	58.3947	7,464.84	59.6521	7,464.84	58.4974	7,464.84	56.1017	7,464.84	58.7358	7,464.84	59.1105	7,464.84	58.2458	7,464.84	59.4709	7,464.84	57.9794	7,464.84	60.3721	7,464.84	58.2519	7,464.84	59.5853
7,727.05	87.8037	7,727.05	86.9025	7,727.05	86.9129	7,727.05	84.2125	7,727.05	84.7851	7,727.05	80.3616	7,727.05	81.7062	7,727.05	74.7205	7,727.05	76.7792	7,727.05	68.1823	7,727.05	70.5697	7,727.05	66.5555	7,727.05	67.0372	7,727.05	67.8719	7,727.05	67.7405	7,727.05	66.8556	7,727.05	67.8652	7,727.05	65.509	7,727.05	65.7886	7,727.05	64.1184	7,727.05	64.2761	7,727.05	63.1272	7,727.05	63.2827	7,727.05	62.9548	7,727.05	61.767	7,727.05	61.0218	7,727.05	59.9171	7,727.05	59.4368	7,727.05	58.7741	7,727.05	59.528	7,727.05	58.7522	7,727.05	59.5387	7,727.05	57.2519	7,727.05	58.949	7,727.05	60.0627	7,727.05	60.9008
7,999.51	89.2682	7,999.51	88.3084	7,999.51	88.3756	7,999.51	85.1704	7,999.51	85.7616	7,999.51	80.4183	7,999.51	81.7328	7,999.51	73.8473	7,999.51	75.4945	7,999.51	69.9387	7,999.51	66.8875	7,999.51	72.5008	7,999.51	69.9214	7,999.51	72.91	7,999.51	70.7012	7,999.51	71.2317	7,999.51	69.9836	7,999.51	69.8515	7,999.51	69.203	7,999.51	67.5307	7,999.51	66.1338	7,999.51	66.2997	7,999.51	66.0095	7,999.51	66.2467	7,999.51	66.7876	7,999.51	64.5557	7,999.51	63.635	7,999.51	61.7451	7,999.51	60.0287	7,999.51	61.9956	7,999.51	60.9767	7,999.51	58.5764	7,999.51	54.1419	7,999.51	60.2103	7,999.51	59.0514	7,999.51	61.3901
8,282.23	89.2197	8,282.23	88.2977	8,282.23	88.1153	8,282.23	85.2098	8,282.23	85.0681	8,282.23	80.3374	8,282.23	81.0108	8,282.23	72.7101	8,282.23	71.5457	8,282.23	74.0569	8,282.23	71.7452	8,282.23	76.6114	8,282.23	74.3255	8,282.23	75.1061	8,282.23	74.0869	8,282.23	73.4312	8,282.23	73.1874	8,282.23	71.569	8,282.23	72.0129	8,282.23	70.084	8,282.23	67.8022	8,282.23	67.6297	8,282.23	65.7356	8,282.23	67.3874	8,282.23	65.311	8,282.23	67.122	8,282.23	64.0364	8,282.23	64.0592	8,282.23	62.2085	8,282.23	64.885	8,282.23	61.3233	8,282.23	64.0501	8,282.23	58.1631	8,282.23	62.2888	8,282.23	57.9049	8,282.23	62.365
8,573.73	87.7652	8,573.73	87.0367	8,573.73	86.5769	8,573.73	84.3759	8,573.73	83.8479	8,573.73	79.2448	8,573.73	78.6539	8,573.73	74.3442	8,573.73	71.1689	8,573.73	76.5052	8,573.73	75.6189	8,573.73	77.7037	8,573.73	77.664	8,573.73	76.105	8,573.73	76.1841	8,573.73	74.9189	8,573.73	73.2352	8,573.73	71.0029	8,573.73	72.1714	8,573.73	69.0548	8,573.73	69.6985	8,573.73	67.7619	8,573.73	66.2548	8,573.73	67.0399	8,573.73	66.7166	8,573.73	67.3431	8,573.73	65.9425	8,573.73	65.6891	8,573.73	65.2296	8,573.73	64.8431	8,573.73	62.4783	8,573.73	63.4805	8,573.73	59.7188	8,573.73	61.7613	8,573.73	57.6361	8,573.73	61.6198
8,876.95	86.0706	8,876.95	85.7283	8,876.95	85.2324	8,876.95	82.8584	8,876.95	82.7948	8,876.95	78.1293	8,876.95	78.4026	8,876.95	74.561	8,876.95	74.226	8,876.95	77.834	8,876.95	77.6639	8,876.95	77.8829	8,876.95	78.1996	8,876.95	76.3929	8,876.95	76.0395	8,876.95	74.6279	8,876.95	73.5851	8,876.95	71.4188	8,876.95	72.374	8,876.95	69.8829	8,876.95	68.9491	8,876.95	65.5069	8,876.95	65.8506	8,876.95	66.4264	8,876.95	64.7483	8,876.95	67.2555	8,876.95	64.1765	8,876.95	64.9204	8,876.95	62.215	8,876.95	63.9918	8,876.95	62.9496	8,876.95	61.982	8,876.95	57.7308	8,876.95	60.7296	8,876.95	58.6809	8,876.95	61.0163
9,188.96	84.6223	9,188.96	84.197	9,188.96	84.0825	9,188.96	82.6125	9,188.96	82.195	9,188.96	78.5183	9,188.96	78.4604	9,188.96	76.365	9,188.96	75.5914	9,188.96	78.7004	9,188.96	78.4314	9,188.96	78.5926	9,188.96	78.4329	9,188.96	76.3368	9,188.96	75.3551	9,188.96	73.1027	9,188.96	73.5194	9,188.96	71.0178	9,188.96	69.8791	9,188.96	68.6096	9,188.96	65.8607	9,188.96	63.82	9,188.96	65.514	9,188.96	65.266	9,188.96	63.5393	9,188.96	66.7077	9,188.96	61.5419	9,188.96	63.824	9,188.96	61.2939	9,188.96	62.4875	9,188.96	59.3957	9,188.96	61.3663	9,188.96	58.7025	9,188.96	60.773	9,188.96	54.2515	9,188.96	60.1459
9,514.16	83.6181	9,514.16	83.904	9,514.16	83.2272	9,514.16	82.0051	9,514.16	82.2602	9,514.16	77.8242	9,514.16	77.9375	9,514.16	77.8841	9,514.16	77.1778	9,514.16	79.5773	9,514.16	79.457	9,514.16	78.7942	9,514.16	78.449	9,514.16	75.4061	9,514.16	75.6601	9,514.16	72.6632	9,514.16	71.7207	9,514.16	67.8075	9,514.16	68.9052	9,514.16	66.3234	9,514.16	66.2756	9,514.16	65.1662	9,514.16	61.1773	9,514.16	65.3502	9,514.16	63.8799	9,514.16	65.0571	9,514.16	65.4425	9,514.16	60.9009	9,514.16	61.7634	9,514.16	62.632	9,514.16	53.6965	9,514.16	59.4925	9,514.16	56.3028	9,514.16	59.9487	9,514.16	55.0017	9,514.16	58.8514
9,849.61	84.1592	9,849.61	84.051	9,849.61	84.056	9,849.61	82.2987	9,849.61	81.9803	9,849.61	78.554	9,849.61	78.2246	9,849.61	78.25	9,849.61	79.0776	9,849.61	80.3172	9,849.61	80.9913	9,849.61	78.3937	9,849.61	79.5616	9,849.61	73.828	9,849.61	74.1687	9,849.61	69.8404	9,849.61	70.9091	9,849.61	67.2079	9,849.61	68.475	9,849.61	62.969	9,849.61	66.6194	9,849.61	62.6434	9,849.61	62.4265	9,849.61	64.1458	9,849.61	63.5277	9,849.61	65.0249	9,849.61	64.5201	9,849.61	63.2613	9,849.61	62.1298	9,849.61	59.9272	9,849.61	60.4723	9,849.61	55.8881	9,849.61	56.3015	9,849.61	58.6311	9,849.61	53.6131	9,849.61	59.9775
10,196.8	84.3651	10,196.8	84.7736	10,196.8	84.2409	10,196.8	83.0245	10,196.8	83.1926	10,196.8	78.5443	10,196.8	80.2854	10,196.8	80.5404	10,196.8	82.6183	10,196.8	81.4517	10,196.8	82.1622	10,196.8	78.8137	10,196.8	78.5742	10,196.8	73.059	10,196.8	71.873	10,196.8	70.8507	10,196.8	71.2264	10,196.8	67.1874	10,196.8	67.3092	10,196.8	65.1513	10,196.8	67.9723	10,196.8	63.4206	10,196.8	65.7083	10,196.8	67.254	10,196.8	64.7057	10,196.8	67.3032	10,196.8	64.7392	10,196.8	65.3074	10,196.8	62.6351	10,196.8	62.5635	10,196.8	61.8879	10,196.8	60.7448	10,196.8	52.2439	10,196.8	61.2583	10,196.8	58.0697	10,196.8	60.7697
10,555.7	86.8978	10,555.7	86.0677	10,555.7	86.6269	10,555.7	83.2951	10,555.7	84.8958	10,555.7	80.8654	10,555.7	84.6246	10,555.7	83.8976	10,555.7	85.5233	10,555.7	83.5984	10,555.7	83.8395	10,555.7	79.1747	10,555.7	79.324	10,555.7	72.3336	10,555.7	74.011	10,555.7	70.3884	10,555.7	74.6958	10,555.7	71.2856	10,555.7	72.3074	10,555.7	68.4566	10,555.7	72.4339	10,555.7	65.3494	10,555.7	68.5785	10,555.7	67.4582	10,555.7	66.9015	10,555.7	67.9459	10,555.7	68.2523	10,555.7	66.6321	10,555.7	62.3029	10,555.7	64.0265	10,555.7	64.9605	10,555.7	60.3602	10,555.7	59.2876	10,555.7	61.7374	10,555.7	60.6134	10,555.7	63.6168
10,927.7	89.9258	10,927.7	88.4807	10,927.7	88.9308	10,927.7	85.1459	10,927.7	86.7349	10,927.7	83.2418	10,927.7	85.4256	10,927.7	83.5494	10,927.7	84.7238	10,927.7	81.8862	10,927.7	81.6786	10,927.7	77.4086	10,927.7	76.4016	10,927.7	73.9812	10,927.7	73.9334	10,927.7	72.5546	10,927.7	73.1961	10,927.7	71.3196	10,927.7	70.6389	10,927.7	66.9305	10,927.7	69.6156	10,927.7	64.8367	10,927.7	68.0575	10,927.7	66.3357	10,927.7	66.9523	10,927.7	65.3444	10,927.7	64.8796	10,927.7	63.6797	10,927.7	64.062	10,927.7	62.1928	10,927.7	61.9902	10,927.7	52.9009	10,927.7	56.5379	10,927.7	59.6914	10,927.7	58.7809	10,927.7	62.7492
11,313	89.6637	11,313	88.0302	11,313	88.5086	11,313	84.4584	11,313	86.3698	11,313	83.2403	11,313	85.6944	11,313	83.6762	11,313	84.6899	11,313	81.1456	11,313	80.9917	11,313	76.7627	11,313	78.113	11,313	73.9107	11,313	76.9987	11,313	72.7619	11,313	75.4771	11,313	71.5433	11,313	73.5846	11,313	69.1231	11,313	70.7314	11,313	67.5394	11,313	68.5944	11,313	66.9394	11,313	68.1078	11,313	65.8431	11,313	65.7966	11,313	64.6757	11,313	65.8106	11,313	64.3336	11,313	65.4347	11,313	53.9383	11,313	55.8211	11,313	59.5979	11,313	60.0902	11,313	61.9948
11,712.9	91.5337	11,712.9	89.3349	11,712.9	89.6429	11,712.9	85.786	11,712.9	86.7739	11,712.9	85.3248	11,712.9	86.4672	11,712.9	85.0949	11,712.9	84.9546	11,712.9	82.759	11,712.9	81.8387	11,712.9	81.3301	11,712.9	80.4551	11,712.9	80.6113	11,712.9	80.268	11,712.9	78.1394	11,712.9	78.404	11,712.9	75.4824	11,712.9	75.7381	11,712.9	72.9487	11,712.9	72.762	11,712.9	70.8182	11,712.9	70.2286	11,712.9	69.985	11,712.9	68.5851	11,712.9	69.0269	11,712.9	66.3368	11,712.9	67.2862	11,712.9	65.0725	11,712.9	67.745	11,712.9	64.2054	11,712.9	61.772	11,712.9	59.7301	11,712.9	63.6874	11,712.9	64.9884	11,712.9	67.101
12,126	90.5761	12,126	88.9729	12,126	89.4332	12,126	85.2318	12,126	86.631	12,126	81.8776	12,126	82.6526	12,126	79.9499	12,126	78.3956	12,126	79.7053	12,126	74.525	12,126	80.7852	12,126	77.2185	12,126	79.2944	12,126	78.087	12,126	76.6749	12,126	75.5849	12,126	72.8219	12,126	72.8406	12,126	69.1822	12,126	69.298	12,126	66.1605	12,126	67.1152	12,126	66.7818	12,126	63.9113	12,126	66.067	12,126	62.7176	12,126	63.2633	12,126	60.9618	12,126	59.3276	12,126	56.8542	12,126	60.997	12,126	59.2912	12,126	61.4511	12,126	64.0842	12,126	64.7783
12,553.7	88.5986	12,553.7	87.4465	12,553.7	88.6345	12,553.7	82.6297	12,553.7	86.1378	12,553.7	76.5905	12,553.7	77.9362	12,553.7	76.3518	12,553.7	67.3171	12,553.7	79.0861	12,553.7	66.7123	12,553.7	79.2963	12,553.7	74.5403	12,553.7	76.1292	12,553.7	76.2065	12,553.7	72.737	12,553.7	73.7453	12,553.7	68.0326	12,553.7	70.9731	12,553.7	64.3024	12,553.7	67.807	12,553.7	63.3387	12,553.7	65.5801	12,553.7	64.7854	12,553.7	61.0977	12,553.7	62.7963	12,553.7	62.7605	12,553.7	59.7661	12,553.7	62.6048	12,553.7	59.4578	12,553.7	58.5888	12,553.7	58.7401	12,553.7	60.4456	12,553.7	61.1422	12,553.7	63.139	12,553.7	63.0367
12,996.1	86.5151	12,996.1	82.6805	12,996.1	86.8839	12,996.1	70.4497	12,996.1	83.7779	12,996.1	68.241	12,996.1	72.7242	12,996.1	74.3604	12,996.1	70.9707	12,996.1	76.8498	12,996.1	68.6875	12,996.1	74.967	12,996.1	66.7453	12,996.1	71.6415	12,996.1	71.9478	12,996.1	67.9826	12,996.1	70.8707	12,996.1	64.8165	12,996.1	68.3266	12,996.1	64.4385	12,996.1	66.4492	12,996.1	61.7225	12,996.1	63.9796	12,996.1	62.1063	12,996.1	58.5833	12,996.1	61.009	12,996.1	60.3162	12,996.1	56.9155	12,996.1	60.6582	12,996.1	58.4669	12,996.1	58.1036	12,996.1	51.6861	12,996.1	60.8457	12,996.1	61.7551	12,996.1	58.3176	12,996.1	56.0221
13,454.6	86.6893	13,454.6	84.6702	13,454.6	85.129	13,454.6	79.1562	13,454.6	78.5689	13,454.6	64.9593	13,454.6	67.6262	13,454.6	69.7934	13,454.6	69.7905	13,454.6	71.5421	13,454.6	69.0191	13,454.6	72.5714	13,454.6	58.853	13,454.6	71.4782	13,454.6	62.0983	13,454.6	68.1272	13,454.6	63.2543	13,454.6	65.6933	13,454.6	61.1526	13,454.6	61.1911	13,454.6	59.1411	13,454.6	59.8357	13,454.6	57.5348	13,454.6	60.363	13,454.6	55.6997	13,454.6	60.7008	13,454.6	54.7997	13,454.6	57.1359	13,454.6	54.5362	13,454.6	56.3809	13,454.6	50.9017	13,454.6	53.8852	13,454.6	53.8375	13,454.6	59.2886	13,454.6	34.1291	13,454.6	53.0134
13,929.2	88.8304	13,929.2	86.6519	13,929.2	86.4526	13,929.2	79.3809	13,929.2	78.4726	13,929.2	65.5315	13,929.2	64.9776	13,929.2	67.4531	13,929.2	68.7236	13,929.2	73.1009	13,929.2	72.064	13,929.2	72.243	13,929.2	67.7742	13,929.2	66.6219	13,929.2	42.123	13,929.2	63.1136	13,929.2	59.1794	13,929.2	59.5807	13,929.2	60.7782	13,929.2	60.2464	13,929.2	59.1004	13,929.2	57.2224	13,929.2	58.7891	13,929.2	58.904	13,929.2	55.559	13,929.2	57.3481	13,929.2	51.299	13,929.2	53.9623	13,929.2	53.3004	13,929.2	48.213	13,929.2	50.2349	13,929.2	52.2004	13,929.2	42.6562	13,929.2	56.3387	13,929.2	48.3683	13,929.2	53.3034
14,419.9	88.7076	14,419.9	86.2727	14,419.9	86.0726	14,419.9	78.1546	14,419.9	77.8256	14,419.9	62.7392	14,419.9	51.3279	14,419.9	70.6137	14,419.9	71.3473	14,419.9	73.7317	14,419.9	73.0678	14,419.9	70.5891	14,419.9	68.4614	14,419.9	61.4733	14,419.9	53.1942	14,419.9	56.2907	14,419.9	59.5704	14,419.9	58.1163	14,419.9	61.8694	14,419.9	58.1521	14,419.9	59.5935	14,419.9	53.6088	14,419.9	58.818	14,419.9	54.5453	14,419.9	53.2917	14,419.9	53.8235	14,419.9	49.7744	14,419.9	46.5736	14,419.9	54.5143	14,419.9	43.0486	14,419.9	49.0749	14,419.9	46.0693	14,419.9	47.4742	14,419.9	48.2064	14,419.9	45.8105	14,419.9	52.0368
14,928.2	86.5362	14,928.2	84.0031	14,928.2	83.8221	14,928.2	75.871	14,928.2	74.7407	14,928.2	52.2803	14,928.2	59.3635	14,928.2	70.1948	14,928.2	71.0564	14,928.2	70.9255	14,928.2	71.2153	14,928.2	65.7169	14,928.2	65.8584	14,928.2	55.9744	14,928.2	44.6213	14,928.2	50.3922	14,928.2	53.1357	14,928.2	48.043	14,928.2	56.5585	14,928.2	49.2595	14,928.2	53.6072	14,928.2	44.5195	14,928.2	54.2786	14,928.2	39.7674	14,928.2	48.1402	14,928.2	45.2112	14,928.2	43.0936	14,928.2	26.5618	14,928.2	49.3392	14,928.2	39.1836	14,928.2	43.7992	14,928.2	42.4171	14,928.2	46.8448	14,928.2	33.0194	14,928.2	41.1871	14,928.2	45.3698
15,455.6	85.1935	15,455.6	82.7278	15,455.6	82.2984	15,455.6	74.4498	15,455.6	71.7981	15,455.6	61.8862	15,455.6	67.5294	15,455.6	71.8439	15,455.6	73.6872	15,455.6	69.6703	15,455.6	71.9736	15,455.6	65.913	15,455.6	64.5045	15,455.6	65.3225	15,455.6	55.0062	15,455.6	64.0834	15,455.6	58.9465	15,455.6	59.2609	15,455.6	59.3408	15,455.6	56.2698	15,455.6	53.9319	15,455.6	51.5114	15,455.6	54.6786	15,455.6	51.5494	15,455.6	47.1645	15,455.6	47.0756	15,455.6	42.7397	15,455.6	51.3781	15,455.6	52.2189	15,455.6	45.2769	15,455.6	45.1347	15,455.6	46.7132	15,455.6	52.4558	15,455.6	46.3069	15,455.6	43.5448	15,455.6	42.8848
16,000.5	83.9305	16,000.5	81.768	16,000.5	80.7221	16,000.5	72.4307	16,000.5	69.9639	16,000.5	65.9467	16,000.5	68.0992	16,000.5	71.9289	16,000.5	73.4857	16,000.5	69.9084	16,000.5	71.6536	16,000.5	66.2601	16,000.5	65.1691	16,000.5	62.3424	16,000.5	46.5417	16,000.5	59.4694	16,000.5	34.3577	16,000.5	55.6152	16,000.5	41.7287	16,000.5	49.0892	16,000.5	39.9106	16,000.5	47.0336	16,000.5	43.0995	16,000.5	44.4234	16,000.5	50.7959	16,000.5	37.0274	16,000.5	49.9133	16,000.5	47.7651	16,000.5	51.4626	16,000.5	44.1062	16,000.5	45.9595	16,000.5	47.62	16,000.5	54.5042	16,000.5	51.9674	16,000.5	46.4899	16,000.5	43.8267
16,564.5	84.6735	16,564.5	81.1132	16,564.5	79.2105	16,564.5	66.2886	16,564.5	60.0817	16,564.5	63.6329	16,564.5	68.9791	16,564.5	68.9839	16,564.5	70.0583	16,564.5	70.319	16,564.5	70.2189	16,564.5	69.245	16,564.5	68.8291	16,564.5	65.951	16,564.5	65.0924	16,564.5	62.2056	16,564.5	59.3234	16,564.5	59.1871	16,564.5	57.5987	16,564.5	58.1089	16,564.5	52.3307	16,564.5	57.8738	16,564.5	55.761	16,564.5	52.596	16,564.5	56.1304	16,564.5	52.2088	16,564.5	55.7201	16,564.5	44.9348	16,564.5	47.2339	16,564.5	45.8533	16,564.5	49.703	16,564.5	50.1638	16,564.5	53.2867	16,564.5	53.5908	16,564.5	53.4711	16,564.5	46.5648
17,148.9	84.861	17,148.9	80.4133	17,148.9	78.0477	17,148.9	64.3343	17,148.9	70.7248	17,148.9	64.6481	17,148.9	64.3285	17,148.9	65.3398	17,148.9	67.7248	17,148.9	67.6887	17,148.9	72.0585	17,148.9	71.406	17,148.9	69.9964	17,148.9	70.8354	17,148.9	65.8197	17,148.9	68.3795	17,148.9	58.2073	17,148.9	64.9823	17,148.9	60.3857	17,148.9	62.613	17,148.9	57.1593	17,148.9	63.1186	17,148.9	56.8424	17,148.9	57.8959	17,148.9	57.3033	17,148.9	54.9737	17,148.9	57.7764	17,148.9	49.0572	17,148.9	49.4871	17,148.9	47.7983	17,148.9	47.7245	17,148.9	47.3433	17,148.9	53.3869	17,148.9	50.7888	17,148.9	56.9672	17,148.9	46.8898
17,752.4	81.7589	17,752.4	72.7822	17,752.4	79.7592	17,752.4	62.6751	17,752.4	75.6161	17,752.4	64.8808	17,752.4	62.5053	17,752.4	65.7361	17,752.4	65.636	17,752.4	69.8145	17,752.4	71.8548	17,752.4	71.4034	17,752.4	69.2236	17,752.4	68.2101	17,752.4	66.0776	17,752.4	65.2792	17,752.4	63.852	17,752.4	61.8192	17,752.4	62.7838	17,752.4	58.1983	17,752.4	60.1375	17,752.4	58.4949	17,752.4	58.6877	17,752.4	50.7663	17,752.4	59.9926	17,752.4	51.196	17,752.4	58.8451	17,752.4	51.3371	17,752.4	54.3394	17,752.4	44.4076	17,752.4	40.8074	17,752.4	40.663	17,752.4	58.5225	17,752.4	53.0319	17,752.4	60.257	17,752.4	44.1581
18,379.4	83.5324	18,379.4	79.9077	18,379.4	82.617	18,379.4	72.5619	18,379.4	76.1617	18,379.4	69.7643	18,379.4	67.9027	18,379.4	69.1779	18,379.4	70.2266	18,379.4	72.4455	18,379.4	74.0481	18,379.4	70.7538	18,379.4	69.2847	18,379.4	63.4303	18,379.4	65.5138	18,379.4	59.6687	18,379.4	59.2671	18,379.4	58.8289	18,379.4	60.6616	18,379.4	53.7554	18,379.4	53.3997	18,379.4	54.373	18,379.4	54.0396	18,379.4	46.2578	18,379.4	57.1266	18,379.4	43.1326	18,379.4	49.6685	18,379.4	46.2718	18,379.4	39.1408	18,379.4	41.6256	18,379.4	41.1218	18,379.4	48.3414	18,379.4	58.8164	18,379.4	54.6686	18,379.4	54.189	18,379.4	41.5246
19,026.9	83.8837	19,026.9	80.8077	19,026.9	82.5254	19,026.9	61.7482	19,026.9	70.602	19,026.9	75.4711	19,026.9	72.5255	19,026.9	71.0567	19,026.9	72.1596	19,026.9	73.6194	19,026.9	75.1123	19,026.9	68.1815	19,026.9	68.5715	19,026.9	54.3026	19,026.9	61.1178	19,026.9	50.0884	19,026.9	58.4732	19,026.9	35.4889	19,026.9	51.8236	19,026.9	51.2598	19,026.9	52.1823	19,026.9	41.1066	19,026.9	56.0448	19,026.9	53.4455	19,026.9	53.7265	19,026.9	38.8691	19,026.9	50.389	19,026.9	46.2711	19,026.9	53.7173	19,026.9	52.9717	19,026.9	47.3701	19,026.9	52.2658	19,026.9	58.2913	19,026.9	55.7923	19,026.9	49.7019	19,026.9	51.988
19,697.8	83.2404	19,697.8	80.3279	19,697.8	80.8682	19,697.8	64.944	19,697.8	57.0441	19,697.8	75.0089	19,697.8	72.3529	19,697.8	69.9284	19,697.8	71.3014	19,697.8	71.6886	19,697.8	73.9044	19,697.8	60.0643	19,697.8	65.7153	19,697.8	59.6247	19,697.8	62.8888	19,697.8	59.6517	19,697.8	61.4358	19,697.8	48.1799	19,697.8	57.0302	19,697.8	52.7465	19,697.8	51.5274	19,697.8	45.1516	19,697.8	58.223	19,697.8	53.6987	19,697.8	52.3529	19,697.8	41.8403	19,697.8	54.9469	19,697.8	49.9322	19,697.8	55.6672	19,697.8	53.0927	19,697.8	46.9137	19,697.8	53.0775	19,697.8	52.4282	19,697.8	54.8379	19,697.8	56.1221	19,697.8	54.8521
19,999.5	81.6811	19,999.5	79.0441	19,999.5	79.3975	19,999.5	68.0552	19,999.5	64.2911	19,999.5	74.1933	19,999.5	71.8557	19,999.5	70.0602	19,999.5	70.4049	19,999.5	70.7201	19,999.5	72.951	19,999.5	56.46	19,999.5	64.16	19,999.5	60.9076	19,999.5	61.8796	19,999.5	59.9482	19,999.5	61.8703	19,999.5	49.0755	19,999.5	55.6543	19,999.5	52.3599	19,999.5	48.7368	19,999.5	45.4393	19,999.5	59.3152	19,999.5	52.298	19,999.5	47.9649	19,999.5	43.3633	19,999.5	57.3899	19,999.5	45.3537	19,999.5	54.4597	19,999.5	51.5979	19,999.5	40.0288	19,999.5	47.8886	19,999.5	50.3843	19,999.5	55.4937	19,999.5	57.4911	19,999.5	54.5638
