"SPL Vertical"
"On-Axis"		"10°"		"-10°"		"20°"		"-20°"		"30°"		"-30°"		"40°"		"-40°"		"50°"		"-50°"		"60°"		"-60°"		"70°"		"-70°"		"80°"		"-80°"		"90°"		"-90°"		"100°"		"-100°"		"110°"		"-110°"		"120°"		"-120°"		"130°"		"-130°"		"140°"		"-140°"		"150°"		"-150°"		"160°"		"-160°"		"170°"		"-170°"		"180°"
"Frequency / Hz"	"Sound Pressure Level / dB (re 20 µPa/V)  [2.83  V @ 1. m]"	"Frequency / Hz"	"Sound Pressure Level / dB (re 20 µPa/V)  [2.83  V @ 1. m]"	"Frequency / Hz"	"Sound Pressure Level / dB (re 20 µPa/V)  [2.83  V @ 1. m]"	"Frequency / Hz"	"Sound Pressure Level / dB (re 20 µPa/V)  [2.83  V @ 1. m]"	"Frequency / Hz"	"Sound Pressure Level / dB (re 20 µPa/V)  [2.83  V @ 1. m]"	"Frequency / Hz"	"Sound Pressure Level / dB (re 20 µPa/V)  [2.83  V @ 1. m]"	"Frequency / Hz"	"Sound Pressure Level / dB (re 20 µPa/V)  [2.83  V @ 1. m]"	"Frequency / Hz"	"Sound Pressure Level / dB (re 20 µPa/V)  [2.83  V @ 1. m]"	"Frequency / Hz"	"Sound Pressure Level / dB (re 20 µPa/V)  [2.83  V @ 1. m]"	"Frequency / Hz"	"Sound Pressure Level / dB (re 20 µPa/V)  [2.83  V @ 1. m]"	"Frequency / Hz"	"Sound Pressure Level / dB (re 20 µPa/V)  [2.83  V @ 1. m]"	"Frequency / Hz"	"Sound Pressure Level / dB (re 20 µPa/V)  [2.83  V @ 1. m]"	"Frequency / Hz"	"Sound Pressure Level / dB (re 20 µPa/V)  [2.83  V @ 1. m]"	"Frequency / Hz"	"Sound Pressure Level / dB (re 20 µPa/V)  [2.83  V @ 1. m]"	"Frequency / Hz"	"Sound Pressure Level / dB (re 20 µPa/V)  [2.83  V @ 1. m]"	"Frequency / Hz"	"Sound Pressure Level / dB (re 20 µPa/V)  [2.83  V @ 1. m]"	"Frequency / Hz"	"Sound Pressure Level / dB (re 20 µPa/V)  [2.83  V @ 1. m]"	"Frequency / Hz"	"Sound Pressure Level / dB (re 20 µPa/V)  [2.83  V @ 1. m]"	"Frequency / Hz"	"Sound Pressure Level / dB (re 20 µPa/V)  [2.83  V @ 1. m]"	"Frequency / Hz"	"Sound Pressure Level / dB (re 20 µPa/V)  [2.83  V @ 1. m]"	"Frequency / Hz"	"Sound Pressure Level / dB (re 20 µPa/V)  [2.83  V @ 1. m]"	"Frequency / Hz"	"Sound Pressure Level / dB (re 20 µPa/V)  [2.83  V @ 1. m]"	"Frequency / Hz"	"Sound Pressure Level / dB (re 20 µPa/V)  [2.83  V @ 1. m]"	"Frequency / Hz"	"Sound Pressure Level / dB (re 20 µPa/V)  [2.83  V @ 1. m]"	"Frequency / Hz"	"Sound Pressure Level / dB (re 20 µPa/V)  [2.83  V @ 1. m]"	"Frequency / Hz"	"Sound Pressure Level / dB (re 20 µPa/V)  [2.83  V @ 1. m]"	"Frequency / Hz"	"Sound Pressure Level / dB (re 20 µPa/V)  [2.83  V @ 1. m]"	"Frequency / Hz"	"Sound Pressure Level / dB (re 20 µPa/V)  [2.83  V @ 1. m]"	"Frequency / Hz"	"Sound Pressure Level / dB (re 20 µPa/V)  [2.83  V @ 1. m]"	"Frequency / Hz"	"Sound Pressure Level / dB (re 20 µPa/V)  [2.83  V @ 1. m]"	"Frequency / Hz"	"Sound Pressure Level / dB (re 20 µPa/V)  [2.83  V @ 1. m]"	"Frequency / Hz"	"Sound Pressure Level / dB (re 20 µPa/V)  [2.83  V @ 1. m]"	"Frequency / Hz"	"Sound Pressure Level / dB (re 20 µPa/V)  [2.83  V @ 1. m]"	"Frequency / Hz"	"Sound Pressure Level / dB (re 20 µPa/V)  [2.83  V @ 1. m]"	"Frequency / Hz"	"Sound Pressure Level / dB (re 20 µPa/V)  [2.83  V @ 1. m]"	"Frequency / Hz"	"Sound Pressure Level / dB (re 20 µPa/V)  [2.83  V @ 1. m]"
20.5078	50.9977	20.5078	51.2921	20.5078	50.7441	20.5078	51.6063	20.5078	50.5503	20.5078	51.9211	20.5078	50.4302	20.5078	52.2221	20.5078	50.3908	20.5078	52.5015	20.5078	50.4326	20.5078	52.7574	20.5078	50.5503	20.5078	52.9931	20.5078	50.7347	20.5078	53.2143	20.5078	50.9743	20.5078	53.4267	20.5078	51.2564	20.5078	53.6332	20.5078	51.5687	20.5078	53.8316	20.5078	51.9	20.5078	54.0137	20.5078	52.2405	20.5078	54.166	20.5078	52.5822	20.5078	54.2724	20.5078	52.9177	20.5078	54.3182	20.5078	53.2398	20.5078	54.2938	20.5078	53.5402	20.5078	54.1965	20.5078	53.8081	20.5078	54.0312
21.9727	42.7313	21.9727	42.1222	21.9727	43.2393	21.9727	41.4276	21.9727	43.6294	21.9727	40.653	21.9727	43.8887	21.9727	39.7854	21.9727	44.0109	21.9727	38.7896	21.9727	43.9959	21.9727	37.616	21.9727	43.8493	21.9727	36.2342	21.9727	43.5813	21.9727	34.7367	21.9727	43.2072	21.9727	33.5839	21.9727	42.7488	21.9727	33.6216	21.9727	42.237	21.9727	34.9738	21.9727	41.7155	21.9727	36.7814	21.9727	41.2423	21.9727	38.4168	21.9727	40.8838	21.9727	39.683	21.9727	40.6971	21.9727	40.5584	21.9727	40.7011	21.9727	41.0747	21.9727	40.8577	21.9727	41.2844	21.9727	41.0794	21.9727	41.2566
23.4375	51.7417	23.4375	51.5858	23.4375	51.8806	23.4375	51.4248	23.4375	51.9935	23.4375	51.2722	23.4375	52.0752	23.4375	51.1416	23.4375	52.1241	23.4375	51.0453	23.4375	52.1418	23.4375	50.9926	23.4375	52.1324	23.4375	50.9892	23.4375	52.1016	23.4375	51.0356	23.4375	52.0563	23.4375	51.1277	23.4375	52.0032	23.4375	51.2564	23.4375	51.9494	23.4375	51.4086	23.4375	51.9015	23.4375	51.5686	23.4375	51.8654	23.4375	51.7199	23.4375	51.8463	23.4375	51.8475	23.4375	51.847	23.4375	51.9401	23.4375	51.8677	23.4375	51.9921	23.4375	51.9042	23.4375	52.0048	23.4375	51.9478	23.4375	51.9859
24.9023	53.8055	24.9023	53.7431	24.9023	53.8617	24.9023	53.6802	24.9023	53.9071	24.9023	53.6237	24.9023	53.9391	24.9023	53.5801	24.9023	53.9575	24.9023	53.5554	24.9023	53.9633	24.9023	53.5539	24.9023	53.9596	24.9023	53.5779	24.9023	53.9499	24.9023	53.6276	24.9023	53.9385	24.9023	53.701	24.9023	53.9296	24.9023	53.7932	24.9023	53.927	24.9023	53.8975	24.9023	53.9341	24.9023	54.005	24.9023	53.9532	24.9023	54.1059	24.9023	53.9856	24.9023	54.1902	24.9023	54.0308	24.9023	54.25	24.9023	54.0862	24.9023	54.2802	24.9023	54.1468	24.9023	54.2799	24.9023	54.2053	24.9023	54.2526
26.3672	55.2146	26.3672	55.1463	26.3672	55.2748	26.3672	55.075	26.3672	55.3232	26.3672	55.007	26.3672	55.3577	26.3672	54.9484	26.3672	55.3778	26.3672	54.9051	26.3672	55.3847	26.3672	54.8815	26.3672	55.3806	26.3672	54.8804	26.3672	55.3683	26.3672	54.9025	26.3672	55.3513	26.3672	54.9463	26.3672	55.3328	26.3672	55.0083	26.3672	55.3162	26.3672	55.0831	26.3672	55.3043	26.3672	55.1639	26.3672	55.2994	26.3672	55.2427	26.3672	55.303	26.3672	55.3121	26.3672	55.3156	26.3672	55.3654	26.3672	55.336	26.3672	55.3986	26.3672	55.3613	26.3672	55.4111	26.3672	55.3866	26.3672	55.4053
27.832	56.3854	27.832	56.3512	27.832	56.4195	27.832	56.3207	27.832	56.4504	27.832	56.2974	27.832	56.4759	27.832	56.2845	27.832	56.4947	27.832	56.2846	27.832	56.507	27.832	56.2995	27.832	56.5137	27.832	56.3296	27.832	56.5167	27.832	56.3747	27.832	56.5184	27.832	56.433	27.832	56.5214	27.832	56.5016	27.832	56.5283	27.832	56.5759	27.832	56.5414	27.832	56.6505	27.832	56.5623	27.832	56.719	27.832	56.592	27.832	56.7752	27.832	56.6301	27.832	56.8136	27.832	56.6747	27.832	56.8312	27.832	56.7223	27.832	56.8275	27.832	56.7676	27.832	56.8047
29.2969	58.3251	29.2969	58.3156	29.2969	58.3265	29.2969	58.3	29.2969	58.3183	29.2969	58.2807	29.2969	58.2998	29.2969	58.2601	29.2969	58.2711	29.2969	58.2401	29.2969	58.2332	29.2969	58.2225	29.2969	58.188	29.2969	58.2083	29.2969	58.1379	29.2969	58.1979	29.2969	58.0857	29.2969	58.1909	29.2969	58.0344	29.2969	58.1861	29.2969	57.9871	29.2969	58.1817	29.2969	57.9468	29.2969	58.1752	29.2969	57.9163	29.2969	58.1639	29.2969	57.8978	29.2969	58.1454	29.2969	57.893	29.2969	58.1186	29.2969	57.9023	29.2969	58.0836	29.2969	57.925	29.2969	58.0426	29.2969	57.9586	29.2969	57.9994
30.7617	60.2946	30.7617	60.2714	30.7617	60.3058	30.7617	60.2379	30.7617	60.3041	30.7617	60.1964	30.7617	60.2894	30.7617	60.1495	30.7617	60.2623	30.7617	60.0999	30.7617	60.2241	30.7617	60.05	30.7617	60.1766	30.7617	60.0019	30.7617	60.122	30.7617	59.957	30.7617	60.0628	30.7617	59.9162	30.7617	60.0016	30.7617	59.8799	30.7617	59.9409	30.7617	59.848	30.7617	59.8833	30.7617	59.82	30.7617	59.8312	30.7617	59.7955	30.7617	59.7867	30.7617	59.7735	30.7617	59.7514	30.7617	59.7537	30.7617	59.7264	30.7617	59.7361	30.7617	59.712	30.7617	59.7215	30.7617	59.7075	30.7617	59.7113
32.2266	61.1842	32.2266	61.1662	32.2266	61.1939	32.2266	61.1412	32.2266	61.1948	32.2266	61.1106	32.2266	61.1868	32.2266	61.0768	32.2266	61.1705	32.2266	61.0419	32.2266	61.1466	32.2266	61.0082	32.2266	61.1165	32.2266	60.9779	32.2266	61.0818	32.2266	60.9524	32.2266	61.0443	32.2266	60.9327	32.2266	61.0059	32.2266	60.919	32.2266	60.9687	32.2266	60.9108	32.2266	60.9346	32.2266	60.9069	32.2266	60.9056	32.2266	60.9055	32.2266	60.8832	32.2266	60.9044	32.2266	60.8685	32.2266	60.9018	32.2266	60.8618	32.2266	60.8964	32.2266	60.8625	32.2266	60.8881	32.2266	60.8687	32.2266	60.8782
33.6914	62.2482	33.6914	62.2333	33.6914	62.2569	33.6914	62.2131	33.6914	62.2584	33.6914	62.1893	33.6914	62.2528	33.6914	62.1633	33.6914	62.2401	33.6914	62.137	33.6914	62.2212	33.6914	62.1117	33.6914	62.1971	33.6914	62.0889	33.6914	62.1693	33.6914	62.0694	33.6914	62.1393	33.6914	62.0538	33.6914	62.109	33.6914	62.0423	33.6914	62.0801	33.6914	62.0348	33.6914	62.0541	33.6914	62.0305	33.6914	62.0325	33.6914	62.0284	33.6914	62.0162	33.6914	62.0272	33.6914	62.0059	33.6914	62.0256	33.6914	62.0013	33.6914	62.0226	33.6914	62.0018	33.6914	62.0178	33.6914	62.0059	33.6914	62.0118
35.1562	63.3582	35.1562	63.3408	35.1562	63.3687	35.1562	63.3176	35.1562	63.3718	35.1562	63.2898	35.1562	63.3673	35.1562	63.259	35.1562	63.3556	35.1562	63.227	35.1562	63.3375	35.1562	63.1951	35.1562	63.3139	35.1562	63.165	35.1562	63.2862	35.1562	63.1378	35.1562	63.256	35.1562	63.1145	35.1562	63.2249	35.1562	63.0957	35.1562	63.1944	35.1562	63.0817	35.1562	63.166	35.1562	63.0723	35.1562	63.1408	35.1562	63.0671	35.1562	63.1197	35.1562	63.0653	35.1562	63.1029	35.1562	63.0656	35.1562	63.0906	35.1562	63.0673	35.1562	63.082	35.1562	63.0696	35.1562	63.0762	35.1562	63.0724
36.6211	64.8385	36.6211	64.8395	36.6211	64.8267	36.6211	64.8298	36.6211	64.8047	36.6211	64.8096	36.6211	64.7732	36.6211	64.7797	36.6211	64.7334	36.6211	64.7413	36.6211	64.6864	36.6211	64.6958	36.6211	64.634	36.6211	64.6451	36.6211	64.5778	36.6211	64.5907	36.6211	64.5197	36.6211	64.5347	36.6211	64.4617	36.6211	64.4789	36.6211	64.4057	36.6211	64.425	36.6211	64.3537	36.6211	64.3747	36.6211	64.3072	36.6211	64.3291	36.6211	64.2678	36.6211	64.2893	36.6211	64.2364	36.6211	64.256	36.6211	64.2137	36.6211	64.2295	36.6211	64.1999	36.6211	64.2102	36.6211	64.195	36.6211	64.1986
38.0859	65.7918	38.0859	65.7969	38.0859	65.7739	38.0859	65.7887	38.0859	65.7439	38.0859	65.7674	38.0859	65.7032	38.0859	65.7336	38.0859	65.653	38.0859	65.6883	38.0859	65.595	38.0859	65.6331	38.0859	65.5309	38.0859	65.5701	38.0859	65.4627	38.0859	65.5014	38.0859	65.3921	38.0859	65.4296	38.0859	65.3212	38.0859	65.357	38.0859	65.252	38.0859	65.2858	38.0859	65.1865	38.0859	65.2182	38.0859	65.1267	38.0859	65.156	38.0859	65.0744	38.0859	65.1007	38.0859	65.0313	38.0859	65.0536	38.0859	64.9988	38.0859	65.016	38.0859	64.978	38.0859	64.9889	38.0859	64.9694	38.0859	64.9731
39.5508	66.5956	39.5508	66.5967	39.5508	66.5794	39.5508	66.5825	39.5508	66.5489	39.5508	66.5533	39.5508	66.5052	39.5508	66.5101	39.5508	66.45	39.5508	66.4543	39.5508	66.3853	39.5508	66.3881	39.5508	66.3132	39.5508	66.3138	39.5508	66.2362	39.5508	66.2343	39.5508	66.1567	39.5508	66.1522	39.5508	66.0771	39.5508	66.0704	39.5508	66	39.5508	65.9915	39.5508	65.9274	39.5508	65.9177	39.5508	65.8615	39.5508	65.8513	39.5508	65.8037	39.5508	65.7939	39.5508	65.7555	39.5508	65.7468	39.5508	65.7181	39.5508	65.7112	39.5508	65.6921	39.5508	65.6877	39.5508	65.6781	39.5508	65.6766
41.0156	66.8822	41.0156	66.8715	41.0156	66.8734	41.0156	66.8419	41.0156	66.8451	41.0156	66.794	41.0156	66.7975	41.0156	66.7286	41.0156	66.7316	41.0156	66.6469	41.0156	66.6486	41.0156	66.5501	41.0156	66.5505	41.0156	66.44	41.0156	66.4396	41.0156	66.3187	41.0156	66.3187	41.0156	66.1889	41.0156	66.1908	41.0156	66.054	41.0156	66.0593	41.0156	65.9179	41.0156	65.9277	41.0156	65.785	41.0156	65.8	41.0156	65.6607	41.0156	65.6802	41.0156	65.5504	41.0156	65.5723	41.0156	65.4596	41.0156	65.4809	41.0156	65.3928	41.0156	65.4099	41.0156	65.3537	41.0156	65.3632	41.0156	65.3439
42.4805	67.9928	42.4805	67.9926	42.4805	67.9805	42.4805	67.98	42.4805	67.9558	42.4805	67.9553	42.4805	67.9193	42.4805	67.9193	42.4805	67.8718	42.4805	67.8725	42.4805	67.8145	42.4805	67.8159	42.4805	67.7487	42.4805	67.7506	42.4805	67.6761	42.4805	67.678	42.4805	67.5985	42.4805	67.5993	42.4805	67.5175	42.4805	67.5162	42.4805	67.4352	42.4805	67.4306	42.4805	67.3535	42.4805	67.345	42.4805	67.2747	42.4805	67.262	42.4805	67.2012	42.4805	67.1853	42.4805	67.1358	42.4805	67.1187	42.4805	67.0815	42.4805	67.066	42.4805	67.0414	42.4805	67.0305	42.4805	67.0184	42.4805	67.0145
43.9453	68.3364	43.9453	68.3267	43.9453	68.3409	43.9453	68.3126	43.9453	68.3398	43.9453	68.2946	43.9453	68.3325	43.9453	68.2731	43.9453	68.3186	43.9453	68.2486	43.9453	68.2982	43.9453	68.2215	43.9453	68.2717	43.9453	68.1921	43.9453	68.2395	43.9453	68.161	43.9453	68.2028	43.9453	68.1285	43.9453	68.1627	43.9453	68.0954	43.9453	68.1207	43.9453	68.062	43.9453	68.0783	43.9453	68.0293	43.9453	68.0372	43.9453	67.9979	43.9453	67.9991	43.9453	67.969	43.9453	67.9657	43.9453	67.9439	43.9453	67.9384	43.9453	67.9239	43.9453	67.9187	43.9453	67.9104	43.9453	67.9073	43.9453	67.9046
45.4102	69.2408	45.4102	69.2408	45.4102	69.2328	45.4102	69.2324	45.4102	69.2172	45.4102	69.2156	45.4102	69.1942	45.4102	69.1902	45.4102	69.1642	45.4102	69.1565	45.4102	69.1276	45.4102	69.1152	45.4102	69.0849	45.4102	69.067	45.4102	69.0369	45.4102	69.0131	45.4102	68.9848	45.4102	68.9552	45.4102	68.9298	45.4102	68.8951	45.4102	68.8737	45.4102	68.835	45.4102	68.8182	45.4102	68.7771	45.4102	68.765	45.4102	68.7237	45.4102	68.7159	45.4102	68.677	45.4102	68.6727	45.4102	68.6388	45.4102	68.637	45.4102	68.6106	45.4102	68.6102	45.4102	68.5934	45.4102	68.5935	45.4102	68.5877
46.875	70.152	46.875	70.1632	46.875	70.1314	46.875	70.1641	46.875	70.1023	46.875	70.1541	46.875	70.0663	46.875	70.1333	46.875	70.0246	46.875	70.1019	46.875	69.9786	46.875	70.0606	46.875	69.9296	46.875	70.0104	46.875	69.8789	46.875	69.9528	46.875	69.8277	46.875	69.8897	46.875	69.7769	46.875	69.8236	46.875	69.7278	46.875	69.7573	46.875	69.6814	46.875	69.694	46.875	69.6384	46.875	69.6364	46.875	69.5999	46.875	69.5874	46.875	69.5664	46.875	69.5486	46.875	69.5388	46.875	69.5212	46.875	69.5179	46.875	69.5052	46.875	69.5046	46.875	69.5
48.3398	70.7103	48.3398	70.7088	48.3398	70.6989	48.3398	70.6943	48.3398	70.675	48.3398	70.6672	48.3398	70.6396	48.3398	70.6279	48.3398	70.5939	48.3398	70.5771	48.3398	70.5396	48.3398	70.5154	48.3398	70.4784	48.3398	70.4439	48.3398	70.4121	48.3398	70.3639	48.3398	70.3426	48.3398	70.2774	48.3398	70.2718	48.3398	70.1874	48.3398	70.2013	48.3398	70.0977	48.3398	70.1327	48.3398	70.013	48.3398	70.0674	48.3398	69.9379	48.3398	70.0065	48.3398	69.8768	48.3398	69.951	48.3398	69.8326	48.3398	69.9019	48.3398	69.8066	48.3398	69.8603	48.3398	69.7984	48.3398	69.8277	48.3398	69.8063
51.2695	71.6189	51.2695	71.6177	51.2695	71.6116	51.2695	71.6084	51.2695	71.5956	51.2695	71.5915	51.2695	71.5706	51.2695	71.5671	51.2695	71.537	51.2695	71.5355	51.2695	71.4952	51.2695	71.4972	51.2695	71.446	51.2695	71.4525	51.2695	71.3906	51.2695	71.4024	51.2695	71.3304	51.2695	71.3478	51.2695	71.2671	51.2695	71.2901	51.2695	71.2026	51.2695	71.2306	51.2695	71.1391	51.2695	71.1709	51.2695	71.0791	51.2695	71.1126	51.2695	71.0249	51.2695	71.0579	51.2695	70.9792	51.2695	71.0089	51.2695	70.9442	51.2695	70.9678	51.2695	70.9217	51.2695	70.937	51.2695	70.913	51.2695	70.9183
52.7344	71.8691	52.7344	71.8578	52.7344	71.8801	52.7344	71.8469	52.7344	71.8903	52.7344	71.8372	52.7344	71.8988	52.7344	71.8293	52.7344	71.9055	52.7344	71.8236	52.7344	71.9103	52.7344	71.8209	52.7344	71.9135	52.7344	71.8216	52.7344	71.9153	52.7344	71.8259	52.7344	71.9165	52.7344	71.8339	52.7344	71.9177	52.7344	71.8449	52.7344	71.9192	52.7344	71.8581	52.7344	71.9214	52.7344	71.8723	52.7344	71.9242	52.7344	71.8862	52.7344	71.9274	52.7344	71.899	52.7344	71.9304	52.7344	71.9101	52.7344	71.9328	52.7344	71.9192	52.7344	71.934	52.7344	71.9261	52.7344	71.9334	52.7344	71.9308
54.1992	72.599	54.1992	72.5955	54.1992	72.594	54.1992	72.5835	54.1992	72.581	54.1992	72.5639	54.1992	72.5606	54.1992	72.5379	54.1992	72.5343	54.1992	72.5076	54.1992	72.5035	54.1992	72.4753	54.1992	72.4705	54.1992	72.444	54.1992	72.4376	54.1992	72.4163	54.1992	72.4073	54.1992	72.3942	54.1992	72.382	54.1992	72.3793	54.1992	72.3636	54.1992	72.3718	54.1992	72.3532	54.1992	72.3712	54.1992	72.3509	54.1992	72.3761	54.1992	72.3558	54.1992	72.3845	54.1992	72.366	54.1992	72.394	54.1992	72.3788	54.1992	72.4022	54.1992	72.3915	54.1992	72.407	54.1992	72.4015	54.1992	72.4069
55.6641	73.458	55.6641	73.4741	55.6641	73.419	55.6641	73.4655	55.6641	73.3599	55.6641	73.4316	55.6641	73.2836	55.6641	73.3732	55.6641	73.1934	55.6641	73.2926	55.6641	73.0927	55.6641	73.1935	55.6641	72.9848	55.6641	73.0808	55.6641	72.8733	55.6641	72.9598	55.6641	72.7616	55.6641	72.836	55.6641	72.6532	55.6641	72.7144	55.6641	72.5512	55.6641	72.5994	55.6641	72.4584	55.6641	72.4945	55.6641	72.3768	55.6641	72.4022	55.6641	72.308	55.6641	72.3243	55.6641	72.2527	55.6641	72.262	55.6641	72.2112	55.6641	72.2157	55.6641	72.1835	55.6641	72.1852	55.6641	72.1697	55.6641	72.1701
58.5938	73.9841	58.5938	73.9648	58.5938	73.9916	58.5938	73.9351	58.5938	73.9861	58.5938	73.8967	58.5938	73.9672	58.5938	73.8512	58.5938	73.9354	58.5938	73.7999	58.5938	73.8919	58.5938	73.7442	58.5938	73.8388	58.5938	73.6854	58.5938	73.7785	58.5938	73.6252	58.5938	73.7139	58.5938	73.5652	58.5938	73.6478	58.5938	73.5072	58.5938	73.5828	58.5938	73.4528	58.5938	73.5212	58.5938	73.4035	58.5938	73.4645	58.5938	73.3604	58.5938	73.414	58.5938	73.3247	58.5938	73.3703	58.5938	73.2973	58.5938	73.3339	58.5938	73.2793	58.5938	73.3051	58.5938	73.2712	58.5938	73.2846	58.5938	73.273
60.0586	74.2993	60.0586	74.2791	60.0586	74.3056	60.0586	74.2464	60.0586	74.2968	60.0586	74.2034	60.0586	74.273	60.0586	74.1522	60.0586	74.2351	60.0586	74.095	60.0586	74.1849	60.0586	74.0343	60.0586	74.1251	60.0586	73.9724	60.0586	74.0591	60.0586	73.9118	60.0586	73.9901	60.0586	73.8548	60.0586	73.9218	60.0586	73.8036	60.0586	73.8573	60.0586	73.7594	60.0586	73.7991	60.0586	73.7228	60.0586	73.749	60.0586	73.6936	60.0586	73.7082	60.0586	73.6709	60.0586	73.6767	60.0586	73.6538	60.0586	73.6541	60.0586	73.6415	60.0586	73.6396	60.0586	73.6336	60.0586	73.632	60.0586	73.6303
62.9883	75.1942	62.9883	75.216	62.9883	75.1513	62.9883	75.2149	62.9883	75.0892	62.9883	75.19	62.9883	75.0105	62.9883	75.1413	62.9883	74.9179	62.9883	75.0695	62.9883	74.8145	62.9883	74.9769	62.9883	74.7033	62.9883	74.8665	62.9883	74.5877	62.9883	74.7427	62.9883	74.4711	62.9883	74.6108	62.9883	74.3571	62.9883	74.4766	62.9883	74.2489	62.9883	74.3465	62.9883	74.1499	62.9883	74.2259	62.9883	74.0626	62.9883	74.1196	62.9883	73.9891	62.9883	74.0306	62.9883	73.9309	62.9883	73.9602	62.9883	73.8884	62.9883	73.908	62.9883	73.8617	62.9883	73.873	62.9883	73.8503	62.9883	73.854
64.4531	75.3193	64.4531	75.3335	64.4531	75.2858	64.4531	75.3269	64.4531	75.2349	64.4531	75.2988	64.4531	75.169	64.4531	75.2495	64.4531	75.0905	64.4531	75.1803	64.4531	75.002	64.4531	75.0933	64.4531	74.9063	64.4531	74.9915	64.4531	74.8059	64.4531	74.8787	64.4531	74.7037	64.4531	74.7592	64.4531	74.6023	64.4531	74.6378	64.4531	74.5045	64.4531	74.5194	64.4531	74.4126	64.4531	74.409	64.4531	74.3288	64.4531	74.3108	64.4531	74.2551	64.4531	74.2283	64.4531	74.1928	64.4531	74.1635	64.4531	74.1432	64.4531	74.1174	64.4531	74.1072	64.4531	74.0896	64.4531	74.0856	64.4531	74.0794
67.3828	75.5861	67.3828	75.5865	67.3828	75.5696	67.3828	75.5705	67.3828	75.538	67.3828	75.5381	67.3828	75.4928	67.3828	75.4902	67.3828	75.4355	67.3828	75.4283	67.3828	75.368	67.3828	75.3547	67.3828	75.2926	67.3828	75.272	67.3828	75.2115	67.3828	75.1833	67.3828	75.1272	67.3828	75.0916	67.3828	75.0423	67.3828	75.0003	67.3828	74.9594	67.3828	74.9126	67.3828	74.881	67.3828	74.8317	67.3828	74.809	67.3828	74.7602	67.3828	74.7456	67.3828	74.7003	67.3828	74.692	67.3828	74.6532	67.3828	74.6493	67.3828	74.6196	67.3828	74.6183	67.3828	74.5996	67.3828	74.5994	67.3828	74.593
68.8477	75.7998	68.8477	75.7951	68.8477	75.7894	68.8477	75.7755	68.8477	75.7644	68.8477	75.7417	68.8477	75.7257	68.8477	75.6948	68.8477	75.6746	68.8477	75.6366	68.8477	75.613	68.8477	75.5691	68.8477	75.5429	68.8477	75.4948	68.8477	75.4667	68.8477	75.4161	68.8477	75.3871	68.8477	75.3356	68.8477	75.3069	68.8477	75.256	68.8477	75.2286	68.8477	75.18	68.8477	75.1549	68.8477	75.1099	68.8477	75.088	68.8477	75.0479	68.8477	75.0297	68.8477	74.9956	68.8477	74.9813	68.8477	74.9542	68.8477	74.9436	68.8477	74.924	68.8477	74.9171	68.8477	74.9053	68.8477	74.9019	68.8477	74.898
71.7773	76.3238	71.7773	76.3238	71.7773	76.3091	71.7773	76.3094	71.7773	76.2801	71.7773	76.2811	71.7773	76.2378	71.7773	76.2402	71.7773	76.1834	71.7773	76.1879	71.7773	76.1191	71.7773	76.1261	71.7773	76.047	71.7773	76.0566	71.7773	75.9696	71.7773	75.9816	71.7773	75.8897	71.7773	75.9032	71.7773	75.8098	71.7773	75.8239	71.7773	75.7325	71.7773	75.7461	71.7773	75.66	71.7773	75.6721	71.7773	75.5942	71.7773	75.6042	71.7773	75.5368	71.7773	75.5443	71.7773	75.4892	71.7773	75.4944	71.7773	75.4525	71.7773	75.4557	71.7773	75.4276	71.7773	75.4292	71.7773	75.4151	71.7773	75.4156
74.707	76.5616	74.707	76.5638	74.707	76.5462	74.707	76.553	74.707	76.5181	74.707	76.5302	74.707	76.4783	74.707	76.4965	74.707	76.4283	74.707	76.4536	74.707	76.3705	74.707	76.4035	74.707	76.3073	74.707	76.3484	74.707	76.2414	74.707	76.2902	74.707	76.1757	74.707	76.2312	74.707	76.1126	74.707	76.1731	74.707	76.0543	74.707	76.1172	74.707	76.0023	74.707	76.0649	74.707	75.9577	74.707	76.0168	74.707	75.9213	74.707	75.9738	74.707	75.8932	74.707	75.9366	74.707	75.8737	74.707	75.9059	74.707	75.8628	74.707	75.8827	74.707	75.8608	74.707	75.8674
77.6367	76.8155	77.6367	76.8176	77.6367	76.7997	77.6367	76.8061	77.6367	76.7707	77.6367	76.782	77.6367	76.7298	77.6367	76.7467	77.6367	76.679	77.6367	76.7023	77.6367	76.6207	77.6367	76.6512	77.6367	76.5579	77.6367	76.5962	77.6367	76.494	77.6367	76.54	77.6367	76.4321	77.6367	76.4854	77.6367	76.3753	77.6367	76.4345	77.6367	76.3258	77.6367	76.389	77.6367	76.2853	77.6367	76.3498	77.6367	76.2543	77.6367	76.3169	77.6367	76.2327	77.6367	76.29	77.6367	76.2196	77.6367	76.2683	77.6367	76.2137	77.6367	76.2508	77.6367	76.2135	77.6367	76.2367	77.6367	76.2178	77.6367	76.2257
79.1016	77.0487	79.1016	77.0497	79.1016	77.033	79.1016	77.0364	79.1016	77.0033	79.1016	77.0096	79.1016	76.9609	79.1016	76.971	79.1016	76.9077	79.1016	76.9226	79.1016	76.8465	79.1016	76.8672	79.1016	76.7803	79.1016	76.8077	79.1016	76.7128	79.1016	76.7471	79.1016	76.6473	79.1016	76.6882	79.1016	76.5871	79.1016	76.6336	79.1016	76.5348	79.1016	76.5852	79.1016	76.492	79.1016	76.544	79.1016	76.4595	79.1016	76.5103	79.1016	76.437	79.1016	76.4838	79.1016	76.4235	79.1016	76.4633	79.1016	76.4173	79.1016	76.4477	79.1016	76.4167	79.1016	76.4358	79.1016	76.4202	79.1016	76.4267
82.0312	77.3963	82.0312	77.3975	82.0312	77.3773	82.0312	77.3814	82.0312	77.341	82.0312	77.3492	82.0312	77.2889	82.0312	77.3029	82.0312	77.2232	82.0312	77.2451	82.0312	77.147	82.0312	77.1789	82.0312	77.0639	82.0312	77.1075	82.0312	76.9779	82.0312	77.0341	82.0312	76.8932	82.0312	76.9618	82.0312	76.8136	82.0312	76.893	82.0312	76.7427	82.0312	76.8298	82.0312	76.6829	82.0312	76.7737	82.0312	76.6358	82.0312	76.7252	82.0312	76.6017	82.0312	76.6843	82.0312	76.58	82.0312	76.6506	82.0312	76.5692	82.0312	76.6232	82.0312	76.5675	82.0312	76.6013	82.0312	76.5731	82.0312	76.5846
84.9609	77.5564	84.9609	77.5578	84.9609	77.5411	84.9609	77.5453	84.9609	77.5124	84.9609	77.5197	84.9609	77.4716	84.9609	77.4825	84.9609	77.4207	84.9609	77.436	84.9609	77.362	84.9609	77.3826	84.9609	77.298	84.9609	77.3253	84.9609	77.2317	84.9609	77.2668	84.9609	77.1658	84.9609	77.2095	84.9609	77.1027	84.9609	77.1551	84.9609	77.0446	84.9609	77.1047	84.9609	76.9932	84.9609	77.0586	84.9609	76.9496	84.9609	77.0167	84.9609	76.9145	84.9609	76.9787	84.9609	76.8883	84.9609	76.9447	84.9609	76.8712	84.9609	76.9152	84.9609	76.8632	84.9609	76.8913	84.9609	76.8643	84.9609	76.8739
87.8906	77.7678	87.8906	77.7603	87.8906	77.7571	87.8906	77.7353	87.8906	77.7285	87.8906	77.6945	87.8906	77.6832	87.8906	77.6404	87.8906	77.6235	87.8906	77.576	87.8906	77.5529	87.8906	77.5052	87.8906	77.4755	87.8906	77.4321	87.8906	77.396	87.8906	77.361	87.8906	77.3194	87.8906	77.2957	87.8906	77.2501	87.8906	77.2395	87.8906	77.1917	87.8906	77.1943	87.8906	77.1466	87.8906	77.1608	87.8906	77.1152	87.8906	77.138	87.8906	77.0967	87.8906	77.1241	87.8906	77.0889	87.8906	77.1164	87.8906	77.0888	87.8906	77.112	87.8906	77.093	87.8906	77.1085	87.8906	77.0989	87.8906	77.1043
90.8203	77.918	90.8203	77.9162	90.8203	77.9011	90.8203	77.8964	90.8203	77.8662	90.8203	77.8601	90.8203	77.8149	90.8203	77.8097	90.8203	77.7497	90.8203	77.7483	90.8203	77.6742	90.8203	77.6797	90.8203	77.5926	90.8203	77.6076	90.8203	77.5094	90.8203	77.536	90.8203	77.4292	90.8203	77.4682	90.8203	77.3561	90.8203	77.4069	90.8203	77.2936	90.8203	77.3539	90.8203	77.2436	90.8203	77.3098	90.8203	77.207	90.8203	77.2745	90.8203	77.1831	90.8203	77.2471	90.8203	77.1704	90.8203	77.2259	90.8203	77.1665	90.8203	77.2093	90.8203	77.169	90.8203	77.196	90.8203	77.1756	90.8203	77.1848
95.2148	78.1478	95.2148	78.1393	95.2148	78.1354	95.2148	78.1108	95.2148	78.1023	95.2148	78.0641	95.2148	78.0498	95.2148	78.0022	95.2148	77.9803	95.2148	77.9285	95.2148	77.8973	95.2148	77.8472	95.2148	77.8054	95.2148	77.7632	95.2148	77.7097	95.2148	77.681	95.2148	77.6161	95.2148	77.605	95.2148	77.5299	95.2148	77.5388	95.2148	77.4561	95.2148	77.4846	95.2148	77.3978	95.2148	77.4431	95.2148	77.3567	95.2148	77.4135	95.2148	77.3322	95.2148	77.3935	95.2148	77.3221	95.2148	77.3802	95.2148	77.3228	95.2148	77.3705	95.2148	77.3303	95.2148	77.3615	95.2148	77.3409	95.2148	77.3517
98.1445	78.555	98.1445	78.5456	98.1445	78.5409	98.1445	78.5137	98.1445	78.5035	98.1445	78.4612	98.1445	78.444	98.1445	78.3909	98.1445	78.3648	98.1445	78.3064	98.1445	78.2695	98.1445	78.212	98.1445	78.1628	98.1445	78.1123	98.1445	78.0499	98.1445	78.0122	98.1445	77.9369	98.1445	77.9163	98.1445	77.8296	98.1445	77.8288	98.1445	77.7334	98.1445	77.7529	98.1445	77.6526	98.1445	77.6902	98.1445	77.5898	98.1445	77.6408	98.1445	77.5455	98.1445	77.6034	98.1445	77.5188	98.1445	77.5755	98.1445	77.5067	98.1445	77.5544	98.1445	77.5058	98.1445	77.5375	98.1445	77.5124	98.1445	77.5235
101.074	78.7709	101.074	78.772	101.074	78.7458	101.074	78.7496	101.074	78.6975	101.074	78.7052	101.074	78.6278	101.074	78.6413	101.074	78.5397	101.074	78.561	101.074	78.4372	101.074	78.4684	101.074	78.3253	101.074	78.3681	101.074	78.2094	101.074	78.265	101.074	78.0953	101.074	78.164	101.074	77.9886	101.074	78.0697	101.074	77.8943	101.074	77.9856	101.074	77.8159	101.074	77.9143	101.074	77.7558	101.074	77.8563	101.074	77.7143	101.074	77.8107	101.074	77.6902	101.074	77.7756	101.074	77.6808	101.074	77.7482	101.074	77.6827	101.074	77.726	101.074	77.6926	101.074	77.7075
105.469	78.7149	105.469	78.7195	105.469	78.6859	105.469	78.7007	105.469	78.633	105.469	78.6607	105.469	78.558	105.469	78.6027	105.469	78.4641	105.469	78.5308	105.469	78.3556	105.469	78.4495	105.469	78.2382	105.469	78.3633	105.469	78.1181	105.469	78.2767	105.469	78.0022	105.469	78.1935	105.469	77.8969	105.469	78.1168	105.469	77.808	105.469	78.0487	105.469	77.7396	105.469	77.9901	105.469	77.6937	105.469	77.9408	105.469	77.6702	105.469	77.8993	105.469	77.6667	105.469	77.8633	105.469	77.6791	105.469	77.8302	105.469	77.7027	105.469	77.7979	105.469	77.7327	105.469	77.7652
108.398	78.8954	108.398	78.8893	108.398	78.8764	108.398	78.8595	108.398	78.8322	108.398	78.8085	108.398	78.764	108.398	78.7399	108.398	78.6743	108.398	78.6576	108.398	78.5671	108.398	78.5662	108.398	78.4474	108.398	78.47	108.398	78.321	108.398	78.3731	108.398	78.1945	108.398	78.2792	108.398	78.0743	108.398	78.1912	108.398	77.9663	108.398	78.111	108.398	77.8753	108.398	78.0398	108.398	77.8048	108.398	77.9777	108.398	77.7561	108.398	77.9242	108.398	77.7285	108.398	77.8779	108.398	77.7198	108.398	77.8374	108.398	77.7263	108.398	77.8016	108.398	77.7443	108.398	77.7702
112.793	79.2081	112.793	79.2057	112.793	79.1888	112.793	79.1823	112.793	79.1486	112.793	79.1397	112.793	79.0891	112.793	79.0806	112.793	79.0133	112.793	79.0087	112.793	78.9248	112.793	78.9284	112.793	78.8282	112.793	78.8442	112.793	78.7284	112.793	78.7604	112.793	78.6303	112.793	78.6807	112.793	78.5387	112.793	78.6078	112.793	78.4574	112.793	78.5432	112.793	78.3895	112.793	78.4873	112.793	78.3366	112.793	78.4398	112.793	78.2991	112.793	78.3997	112.793	78.2763	112.793	78.3658	112.793	78.2665	112.793	78.337	112.793	78.2673	112.793	78.3124	112.793	78.2766	112.793	78.2921
117.188	79.2962	117.188	79.2829	117.188	79.282	117.188	79.2431	117.188	79.2409	117.188	79.1797	117.188	79.1753	117.188	79.097	117.188	79.0888	117.188	79.0007	117.188	78.9867	117.188	78.8977	117.188	78.8751	117.188	78.7949	117.188	78.7612	117.188	78.6989	117.188	78.6524	117.188	78.6153	117.188	78.5556	117.188	78.5476	117.188	78.4766	117.188	78.4974	117.188	78.4189	117.188	78.4641	117.188	78.3834	117.188	78.4451	117.188	78.3681	117.188	78.4366	117.188	78.369	117.188	78.4342	117.188	78.3804	117.188	78.4336	117.188	78.3964	117.188	78.4311	117.188	78.4121	117.188	78.4241
120.117	79.4329	120.117	79.4211	120.117	79.4171	120.117	79.3826	120.117	79.3741	120.117	79.32	120.117	79.306	120.117	79.237	120.117	79.2158	120.117	79.139	120.117	79.1081	120.117	79.0321	120.117	78.9888	120.117	78.9233	120.117	78.8644	120.117	78.8192	120.117	78.7424	120.117	78.7258	120.117	78.6299	120.117	78.6473	120.117	78.5335	120.117	78.586	120.117	78.458	120.117	78.5415	120.117	78.4059	120.117	78.5116	120.117	78.377	120.117	78.4922	120.117	78.3684	120.117	78.4786	120.117	78.3755	120.117	78.4664	120.117	78.3924	120.117	78.4522	120.117	78.4136	120.117	78.4344
124.512	79.6273	124.512	79.6074	124.512	79.6164	124.512	79.5581	124.512	79.5746	124.512	79.4821	124.512	79.5031	124.512	79.3834	124.512	79.4049	124.512	79.2676	124.512	79.2843	124.512	79.1414	124.512	79.1475	124.512	79.0127	124.512	79.0023	124.512	78.8897	124.512	78.8578	124.512	78.7802	124.512	78.7234	124.512	78.6905	124.512	78.608	124.512	78.6241	124.512	78.5188	124.512	78.5812	124.512	78.4597	124.512	78.5585	124.512	78.4307	124.512	78.5501	124.512	78.4279	124.512	78.5488	124.512	78.4442	124.512	78.5474	124.512	78.4711	124.512	78.5401	124.512	78.4999	124.512	78.5242
128.906	79.8398	128.906	79.824	128.906	79.825	128.906	79.7786	128.906	79.7798	128.906	79.7057	128.906	79.7055	128.906	79.608	128.906	79.6048	128.906	79.4895	128.906	79.4815	128.906	79.3549	128.906	79.3409	128.906	79.2103	128.906	79.1889	128.906	79.0625	128.906	79.0326	128.906	78.9194	128.906	78.8794	128.906	78.7886	128.906	78.7369	128.906	78.6766	128.906	78.6124	128.906	78.5875	128.906	78.5116	128.906	78.5223	128.906	78.4381	128.906	78.4781	128.906	78.3925	128.906	78.4495	128.906	78.3719	128.906	78.4297	128.906	78.3704	128.906	78.413	128.906	78.3809	128.906	78.3965
133.301	79.8068	133.301	79.792	133.301	79.7924	133.301	79.7488	133.301	79.7495	133.301	79.6796	133.301	79.6802	133.301	79.5877	133.301	79.5883	133.301	79.4779	133.301	79.4786	133.301	79.3556	133.301	79.3568	133.301	79.227	133.301	79.2292	133.301	79.0985	133.301	79.1019	133.301	78.9766	133.301	78.9809	133.301	78.8671	133.301	78.8712	133.301	78.7745	133.301	78.7768	133.301	78.7016	133.301	78.7001	133.301	78.6486	133.301	78.6423	133.301	78.6134	133.301	78.6026	133.301	78.592	133.301	78.579	133.301	78.5796	133.301	78.5679	133.301	78.5723	133.301	78.5653	133.301	78.5675
139.16	79.7419	139.16	79.7318	139.16	79.7211	139.16	79.6917	139.16	79.6711	139.16	79.6246	139.16	79.5953	139.16	79.5355	139.16	79.499	139.16	79.431	139.16	79.3888	139.16	79.3187	139.16	79.2722	139.16	79.2064	139.16	79.1569	139.16	79.1008	139.16	79.0502	139.16	79.0071	139.16	78.9578	139.16	78.9287	139.16	78.8837	139.16	78.8669	139.16	78.8291	139.16	78.8213	139.16	78.7928	139.16	78.7903	139.16	78.7719	139.16	78.7717	139.16	78.7621	139.16	78.7623	139.16	78.7593	139.16	78.7592	139.16	78.7596	139.16	78.7593	139.16	78.7603	139.16	78.7601
143.555	79.7003	143.555	79.6718	143.555	79.6964	143.555	79.613	143.555	79.6606	143.555	79.5277	143.555	79.5952	143.555	79.4221	143.555	79.5046	143.555	79.3042	143.555	79.3951	143.555	79.1834	143.555	79.2748	143.555	79.0698	143.555	79.153	143.555	78.9728	143.555	79.04	143.555	78.9	143.555	78.945	143.555	78.8554	143.555	78.8756	143.555	78.8389	143.555	78.8355	143.555	78.8464	143.555	78.8245	143.555	78.8709	143.555	78.8378	143.555	78.904	143.555	78.8677	143.555	78.9375	143.555	78.9049	143.555	78.9646	143.555	78.9406	143.555	78.9802	143.555	78.9676	143.555	78.9815
147.949	80.0326	147.949	80.0058	147.949	80.0245	147.949	79.9449	147.949	79.9813	147.949	79.8523	147.949	79.9045	147.949	79.7315	147.949	79.797	147.949	79.5882	147.949	79.6635	147.949	79.4303	147.949	79.5109	147.949	79.268	147.949	79.3484	147.949	79.1136	147.949	79.1871	147.949	78.9798	147.949	79.0392	147.949	78.8777	147.949	78.9163	147.949	78.8136	147.949	78.8277	147.949	78.7878	147.949	78.7777	147.949	78.7941	147.949	78.7649	147.949	78.8218	147.949	78.7818	147.949	78.8579	147.949	78.8171	147.949	78.8902	147.949	78.8575	147.949	78.9094	147.949	78.8914	147.949	78.9101
153.809	80.2105	153.809	80.1936	153.809	80.1878	153.809	80.1376	153.809	80.1263	153.809	80.0443	153.809	80.0285	153.809	79.9169	153.809	79.8982	153.809	79.76	153.809	79.7414	153.809	79.5801	153.809	79.5652	153.809	79.3858	153.809	79.3783	153.809	79.1874	153.809	79.1898	153.809	78.9971	153.809	79.0094	153.809	78.8271	153.809	78.8465	153.809	78.6878	153.809	78.709	153.809	78.5861	153.809	78.6031	153.809	78.5229	153.809	78.5312	153.809	78.493	153.809	78.4917	153.809	78.4867	153.809	78.4783	153.809	78.4919	153.809	78.4816	153.809	78.4979	153.809	78.4911	153.809	78.498
159.668	80.2256	159.668	80.2051	159.668	80.2066	159.668	80.1452	159.668	80.15	159.668	80.0479	159.668	80.0592	159.668	79.9169	159.668	79.9396	159.668	79.7584	159.668	79.7973	159.668	79.58	159.668	79.64	159.668	79.3915	159.668	79.4758	159.668	79.2041	159.668	79.3131	159.668	79.0296	159.668	79.1602	159.668	78.8793	159.668	79.0246	159.668	78.7627	159.668	78.9123	159.668	78.6848	159.668	78.8274	159.668	78.6453	159.668	78.7706	159.668	78.6382	159.668	78.7392	159.668	78.6531	159.668	78.727	159.668	78.678	159.668	78.7253	159.668	78.7021	159.668	78.7249	159.668	78.7183
165.527	80.3738	165.527	80.353	165.527	80.355	165.527	80.2939	165.527	80.2975	165.527	80.1995	165.527	80.2042	165.527	80.0751	165.527	80.0805	165.527	79.927	165.527	79.9336	165.527	79.7633	165.527	79.7725	165.527	79.5926	165.527	79.6071	165.527	79.4242	165.527	79.4474	165.527	79.2675	165.527	79.3026	165.527	79.1311	165.527	79.1799	165.527	79.0221	165.527	79.0837	165.527	78.9451	165.527	79.0156	165.527	78.9007	165.527	78.9738	165.527	78.8855	165.527	78.9539	165.527	78.8918	165.527	78.9488	165.527	78.9099	165.527	78.9504	165.527	78.9298	165.527	78.9508	165.527	78.9445
171.387	80.2293	171.387	80.2026	171.387	80.2133	171.387	80.1348	171.387	80.1553	171.387	80.0303	171.387	80.0587	171.387	79.8954	171.387	79.9295	171.387	79.7383	171.387	79.7759	171.387	79.5686	171.387	79.6077	171.387	79.3966	171.387	79.4362	171.387	79.2327	171.387	79.2724	171.387	79.0866	171.387	79.1268	171.387	78.9663	171.387	79.0074	171.387	78.8772	171.387	78.9195	171.387	78.8213	171.387	78.8641	171.387	78.7968	171.387	78.8386	171.387	78.7979	171.387	78.8363	171.387	78.8162	171.387	78.8484	171.387	78.8413	171.387	78.8646	171.387	78.8637	171.387	78.8759	171.387	78.8762
177.246	80.1749	177.246	80.1421	177.246	80.162	177.246	80.065	177.246	80.105	177.246	79.9483	177.246	80.0079	177.246	79.7994	177.246	79.8775	177.246	79.6289	177.246	79.7228	177.246	79.4495	177.246	79.5542	177.246	79.2754	177.246	79.3835	177.246	79.1202	177.246	79.2227	177.246	78.9955	177.246	79.0826	177.246	78.9082	177.246	78.972	177.246	78.8601	177.246	78.8963	177.246	78.8473	177.246	78.8567	177.246	78.8622	177.246	78.85	177.246	78.8944	177.246	78.8691	177.246	78.9327	177.246	78.9035	177.246	78.9664	177.246	78.9418	177.246	78.9871	177.246	78.9732	177.246	78.9896
183.105	80.1839	183.105	80.1719	183.105	80.1488	183.105	80.1117	183.105	80.0697	183.105	80.0046	183.105	79.952	183.105	79.8544	183.105	79.8029	183.105	79.6682	183.105	79.6317	183.105	79.4566	183.105	79.4489	183.105	79.2344	183.105	79.2661	183.105	79.0204	183.105	79.0951	183.105	78.8349	183.105	78.9465	183.105	78.6961	183.105	78.829	183.105	78.6152	183.105	78.7479	183.105	78.5928	183.105	78.7048	183.105	78.6184	183.105	78.6966	183.105	78.6739	183.105	78.716	183.105	78.7391	183.105	78.7527	183.105	78.796	183.105	78.794	183.105	78.8323	183.105	78.8274	183.105	78.8424
188.965	80.1499	188.965	80.1411	188.965	80.1108	188.965	80.0847	188.965	80.0256	188.965	79.9823	188.965	79.8982	188.965	79.8371	188.965	79.7355	188.965	79.6543	188.965	79.5472	188.965	79.442	188.965	79.3462	188.965	79.2114	188.965	79.1468	188.965	78.9781	188.965	78.9639	188.965	78.7608	188.965	78.8102	188.965	78.5798	188.965	78.6952	188.965	78.453	188.965	78.6232	188.965	78.3907	188.965	78.5932	188.965	78.3919	188.965	78.599	188.965	78.4434	188.965	78.6299	188.965	78.5238	188.965	78.6719	188.965	78.609	188.965	78.7099	188.965	78.679	188.965	78.7295	188.965	78.7206
196.289	80.4226	196.289	80.3972	196.289	80.3975	196.289	80.3227	196.289	80.3225	196.289	80.2029	196.289	80.2003	196.289	80.0441	196.289	80.036	196.289	79.8548	196.289	79.8376	196.289	79.6458	196.289	79.6167	196.289	79.4296	196.289	79.3886	196.289	79.2194	196.289	79.1716	196.289	79.0279	196.289	78.985	196.289	78.8665	196.289	78.8446	196.289	78.7435	196.289	78.7589	196.289	78.6638	196.289	78.7263	196.289	78.628	196.289	78.7351	196.289	78.6316	196.289	78.7673	196.289	78.6654	196.289	78.8039	196.289	78.7162	196.289	78.8289	196.289	78.7693	196.289	78.8323	196.289	78.8112
203.613	80.4311	203.613	80.4334	203.613	80.3766	203.613	80.3847	203.613	80.2711	203.613	80.2872	203.613	80.1184	203.613	80.1441	203.613	79.9251	203.613	79.9593	203.613	79.7003	203.613	79.7379	203.613	79.455	203.613	79.4878	203.613	79.2015	203.613	79.2213	203.613	78.9528	203.613	78.9557	203.613	78.7228	203.613	78.7128	203.613	78.5262	203.613	78.5152	203.613	78.377	203.613	78.3801	203.613	78.2861	203.613	78.3142	203.613	78.2565	203.613	78.3098	203.613	78.2798	203.613	78.3476	203.613	78.3365	203.613	78.402	203.613	78.4012	203.613	78.448	203.613	78.4498	203.613	78.4668
210.938	80.3806	210.938	80.3594	210.938	80.3504	210.938	80.2882	210.938	80.2694	210.938	80.1702	210.938	80.1403	210.938	80.0102	210.938	79.9683	210.938	79.8148	210.938	79.7612	210.938	79.5921	210.938	79.5297	210.938	79.352	210.938	79.2868	210.938	79.1068	210.938	79.0469	210.938	78.8708	210.938	78.8251	210.938	78.6602	210.938	78.635	210.938	78.4913	210.938	78.4883	210.938	78.3767	210.938	78.3924	210.938	78.3217	210.938	78.349	210.938	78.3206	210.938	78.3514	210.938	78.3574	210.938	78.385	210.938	78.4094	210.938	78.4296	210.938	78.4539	210.938	78.4645	210.938	78.4744
218.262	80.3494	218.262	80.3209	218.262	80.3218	218.262	80.2408	218.262	80.2366	218.262	80.1163	218.262	80.0963	218.262	79.956	218.262	79.9075	218.262	79.7697	218.262	79.6814	218.262	79.5673	218.262	79.4332	218.262	79.3588	218.262	79.1813	218.262	79.1542	218.262	78.945	218.262	78.9636	218.262	78.7423	218.262	78.7975	218.262	78.5873	218.262	78.6653	218.262	78.4875	218.262	78.5746	218.262	78.4431	218.262	78.5284	218.262	78.4467	218.262	78.5233	218.262	78.4849	218.262	78.5486	218.262	78.54	218.262	78.5882	218.262	78.5938	218.262	78.6239	218.262	78.6304	218.262	78.6407
225.586	80.4264	225.586	80.3985	225.586	80.3922	225.586	80.3115	225.586	80.2955	225.586	80.1717	225.586	80.1396	225.586	79.9876	225.586	79.9312	225.586	79.7701	225.586	79.6815	225.586	79.5317	225.586	79.406	225.586	79.2868	225.586	79.1245	225.586	79.0507	225.586	78.8588	225.586	78.8395	225.586	78.6311	225.586	78.6688	225.586	78.4604	225.586	78.5515	225.586	78.3592	225.586	78.4946	225.586	78.3311	225.586	78.4965	225.586	78.3689	225.586	78.5456	225.586	78.4548	225.586	78.6219	225.586	78.5637	225.586	78.7006	225.586	78.6679	225.586	78.7575	225.586	78.7433	225.586	78.7744
232.91	80.5383	232.91	80.5026	232.91	80.5055	232.91	80.4032	232.91	80.4022	232.91	80.247	232.91	80.2295	232.91	80.0427	232.91	79.9926	232.91	79.8006	232.91	79.7012	232.91	79.5319	232.91	79.3708	232.91	79.2493	232.91	79.0222	232.91	78.9673	232.91	78.6812	232.91	78.7029	232.91	78.3758	232.91	78.4758	232.91	78.1331	232.91	78.3053	232.91	77.9748	232.91	78.2064	232.91	77.9114	232.91	78.1828	232.91	77.939	232.91	78.2239	232.91	78.0376	232.91	78.3047	232.91	78.1744	232.91	78.3924	232.91	78.3119	232.91	78.4543	232.91	78.4163	232.91	78.4658
241.699	80.4572	241.699	80.4069	241.699	80.442	241.699	80.2967	241.699	80.359	241.699	80.135	241.699	80.2094	241.699	79.9328	241.699	79.9979	241.699	79.7031	241.699	79.7334	241.699	79.4595	241.699	79.4288	241.699	79.2147	241.699	79.1011	241.699	78.9792	241.699	78.7703	241.699	78.761	241.699	78.4582	241.699	78.5665	241.699	78.1862	241.699	78.4026	241.699	77.9732	241.699	78.2771	241.699	77.8332	241.699	78.1964	241.699	77.7725	241.699	78.1603	241.699	77.7867	241.699	78.158	241.699	77.8583	241.699	78.1682	241.699	77.9594	241.699	78.1657	241.699	78.0587	241.699	78.1312
250.488	80.5967	250.488	80.5065	250.488	80.6116	250.488	80.3439	250.488	80.5506	250.488	80.1149	250.488	80.4152	250.488	79.8291	250.488	80.2096	250.488	79.5007	250.488	79.941	250.488	79.1488	250.488	79.621	250.488	78.7975	250.488	79.2662	250.488	78.4737	250.488	78.898	250.488	78.2031	250.488	78.5421	250.488	78.0048	250.488	78.2263	250.488	77.8868	250.488	77.9765	250.488	77.8451	250.488	77.8122	250.488	77.8658	250.488	77.7411	250.488	77.9278	250.488	77.7555	250.488	78.006	250.488	77.8318	250.488	78.0741	250.488	77.9362	250.488	78.1088	250.488	78.0335	250.488	78.0957
259.277	80.8335	259.277	80.7949	259.277	80.8114	259.277	80.6958	259.277	80.7293	259.277	80.5374	259.277	80.5887	259.277	80.3221	259.277	80.3933	259.277	80.0555	259.277	80.1496	259.277	79.7476	259.277	79.8671	259.277	79.4137	259.277	79.5595	259.277	79.075	259.277	79.2433	259.277	78.7569	259.277	78.9374	259.277	78.485	259.277	78.6616	259.277	78.2809	259.277	78.434	259.277	78.1565	259.277	78.2686	259.277	78.111	259.277	78.1723	259.277	78.1298	259.277	78.1424	259.277	78.187	259.277	78.1654	259.277	78.2517	259.277	78.2181	259.277	78.2961	259.277	78.2724	259.277	78.3033
268.066	80.4635	268.066	80.4112	268.066	80.446	268.066	80.2903	268.066	80.3594	268.066	80.1035	268.066	80.207	268.066	79.8558	268.066	79.9954	268.066	79.5558	268.066	79.7348	268.066	79.2171	268.066	79.439	268.066	78.8609	268.066	79.1249	268.066	78.5163	268.066	78.8114	268.066	78.2169	268.066	78.5184	268.066	77.9938	268.066	78.266	268.066	77.8659	268.066	78.0725	268.066	77.8334	268.066	77.9517	268.066	77.8783	268.066	77.9081	268.066	77.9707	268.066	77.9333	268.066	78.0773	268.066	78.0061	268.066	78.1678	268.066	78.0973	268.066	78.22	268.066	78.1774	268.066	78.2228
276.855	80.7337	276.855	80.6782	276.855	80.716	276.855	80.5524	276.855	80.6239	276.855	80.3607	276.855	80.4595	276.855	80.1069	276.855	80.2286	276.855	79.7939	276.855	79.941	276.855	79.4237	276.855	79.611	276.855	79.0012	276.855	79.257	276.855	78.5406	276.855	78.9008	276.855	78.073	276.855	78.5664	276.855	77.6493	276.855	78.2774	276.855	77.3317	276.855	78.0542	276.855	77.1682	276.855	77.9095	276.855	77.1671	276.855	77.8441	276.855	77.2914	276.855	77.8448	276.855	77.48	276.855	77.8855	276.855	77.6731	276.855	77.9327	276.855	77.8281	276.855	77.9535	276.855	77.9227
287.109	80.5682	287.109	80.5605	287.109	80.5087	287.109	80.4857	287.109	80.3842	287.109	80.346	287.109	80.1998	287.109	80.1453	287.109	79.9642	287.109	79.8897	287.109	79.6897	287.109	79.5875	287.109	79.3923	287.109	79.2496	287.109	79.0909	287.109	78.8896	287.109	78.8056	287.109	78.5251	287.109	78.5554	287.109	78.1798	287.109	78.3557	287.109	77.884	287.109	78.2164	287.109	77.6717	287.109	78.1402	287.109	77.5692	287.109	78.1207	287.109	77.5809	287.109	78.1412	287.109	77.6835	287.109	78.176	287.109	77.8341	287.109	78.1965	287.109	77.9874	287.109	78.1785	287.109	78.1083
297.363	80.8102	297.363	80.8012	297.363	80.7374	297.363	80.7169	297.363	80.5788	297.363	80.5648	297.363	80.3354	297.363	80.3508	297.363	80.0141	297.363	80.0782	297.363	79.6289	297.363	79.7495	297.363	79.202	297.363	79.3692	297.363	78.7645	297.363	78.9488	297.363	78.3544	297.363	78.5108	297.363	78.0127	297.363	78.0921	297.363	77.7758	297.363	77.7428	297.363	77.6669	297.363	77.5168	297.363	77.6882	297.363	77.4508	297.363	77.8164	297.363	77.5423	297.363	78.0064	297.363	77.7457	297.363	78.2019	297.363	77.992	297.363	78.349	297.363	78.2141	297.363	78.4086	297.363	78.3622
307.617	80.8252	307.617	80.7548	307.617	80.822	307.617	80.6224	307.617	80.7372	307.617	80.4421	307.617	80.5671	307.617	80.2267	307.617	80.3126	307.617	79.9839	307.617	79.9795	307.617	79.7144	307.617	79.5795	307.617	79.4136	307.617	79.1316	307.617	79.0764	307.617	78.6624	307.617	78.7041	307.617	78.2069	307.617	78.3106	307.617	77.8089	307.617	77.927	307.617	77.5178	307.617	77.6028	307.617	77.3762	307.617	77.3958	307.617	77.3982	307.617	77.3474	307.617	77.552	307.617	77.4529	307.617	77.7651	307.617	77.655	307.617	77.9524	307.617	77.8687	307.617	78.0465	307.617	78.0154
319.336	80.7277	319.336	80.6728	319.336	80.7049	319.336	80.5434	319.336	80.6025	319.336	80.3447	319.336	80.4193	319.336	80.0851	319.336	80.1561	319.336	79.7767	319.336	79.8179	319.336	79.4344	319.336	79.416	319.336	79.0755	319.336	78.9701	319.336	78.7183	319.336	78.5094	319.336	78.3825	319.336	78.0716	319.336	78.0888	319.336	77.699	319.336	77.8583	319.336	77.4319	319.336	77.7105	319.336	77.2989	319.336	77.6587	319.336	77.3084	319.336	77.7023	319.336	77.4413	319.336	77.8185	319.336	77.6503	319.336	77.9617	319.336	77.87	319.336	78.075	319.336	78.0369	319.336	78.1083
329.59	80.5546	329.59	80.4814	329.59	80.5621	329.59	80.3513	329.59	80.496	329.59	80.1724	329.59	80.3501	329.59	79.95	329.59	80.1214	329.59	79.6853	329.59	79.8111	329.59	79.3759	329.59	79.4259	329.59	79.0207	329.59	78.9799	329.59	78.6264	329.59	78.4963	329.59	78.2156	329.59	78.0087	329.59	77.8296	329.59	77.5624	329.59	77.5231	329.59	77.212	329.59	77.3447	329.59	77.0093	329.59	77.3133	329.59	76.982	329.59	77.4064	329.59	77.1126	329.59	77.5691	329.59	77.3399	329.59	77.7354	329.59	77.5834	329.59	77.8473	329.59	77.7729	329.59	77.865
341.309	80.5879	341.309	80.5098	341.309	80.5838	341.309	80.3568	341.309	80.4955	341.309	80.1408	341.309	80.3247	341.309	79.8779	341.309	80.076	341.309	79.5849	341.309	79.7572	341.309	79.275	341.309	79.38	341.309	78.9556	341.309	78.9599	341.309	78.6286	341.309	78.5174	341.309	78.2964	341.309	78.0798	341.309	77.9698	341.309	77.6837	341.309	77.6768	341.309	77.3759	341.309	77.4621	341.309	77.2056	341.309	77.3734	341.309	77.203	341.309	77.4313	341.309	77.355	341.309	77.6061	341.309	77.5999	341.309	77.8256	341.309	77.8508	341.309	78.0063	341.309	78.0284	341.309	78.0837
353.027	80.7383	353.027	80.64	353.027	80.7352	353.027	80.4445	353.027	80.6272	353.027	80.158	353.027	80.4115	353.027	79.7921	353.027	80.0889	353.027	79.3654	353.027	79.6669	353.027	78.9028	353.027	79.1625	353.027	78.4321	353.027	78.6029	353.027	77.9809	353.027	78.0267	353.027	77.5765	353.027	77.4831	353.027	77.2496	353.027	77.0279	353.027	77.035	353.027	76.7157	353.027	76.9638	353.027	76.5853	353.027	77.0459	353.027	76.6464	353.027	77.2539	353.027	76.8706	353.027	77.5237	353.027	77.1939	353.027	77.7735	353.027	77.5317	353.027	77.9291	353.027	77.8013	353.027	77.9424
366.211	80.9901	366.211	80.9293	366.211	80.9632	366.211	80.7866	366.211	80.8436	366.211	80.5675	366.211	80.6297	366.211	80.2746	366.211	80.3248	366.211	79.9082	366.211	79.9374	366.211	79.4676	366.211	79.4813	366.211	78.9551	366.211	78.9729	366.211	78.3814	366.211	78.4301	366.211	77.7703	366.211	77.8741	366.211	77.162	366.211	77.3361	366.211	76.6148	366.211	76.8662	366.211	76.2022	366.211	76.5306	366.211	75.9956	366.211	76.3857	366.211	76.0261	366.211	76.4373	366.211	76.2496	366.211	76.6225	366.211	76.558	366.211	76.8366	366.211	76.8314	366.211	76.9788	366.211	76.9832
379.395	80.9815	379.395	80.8877	379.395	81.0042	379.395	80.7323	379.395	80.9453	379.395	80.5235	379.395	80.7951	379.395	80.266	379.395	80.5462	379.395	79.9607	379.395	80.1956	379.395	79.606	379.395	79.7466	379.395	79.2014	379.395	79.2101	379.395	78.7526	379.395	78.6078	379.395	78.2759	379.395	77.9778	379.395	77.7997	379.395	77.3828	379.395	77.3633	379.395	76.9102	379.395	77.0142	379.395	76.6477	379.395	76.7991	379.395	76.6297	379.395	76.7451	379.395	76.8023	379.395	76.839	379.395	77.0516	379.395	77.0234	379.395	77.2654	379.395	77.2187	379.395	77.3731	379.395	77.3517
392.578	80.6198	392.578	80.4959	392.578	80.6561	392.578	80.2952	392.578	80.5987	392.578	80.0352	392.578	80.4446	392.578	79.7392	392.578	80.1939	392.578	79.4285	392.578	79.8507	392.578	79.1111	392.578	79.4236	392.578	78.7757	392.578	78.9261	392.578	78.3995	392.578	78.3757	392.578	77.9688	392.578	77.7969	392.578	77.5011	392.578	77.2277	392.578	77.0587	392.578	76.7307	392.578	76.7391	392.578	76.3993	392.578	76.6324	392.578	76.3304	392.578	76.7617	392.578	76.5499	392.578	77.0614	392.578	76.9614	392.578	77.4117	392.578	77.3952	392.578	77.6903	392.578	77.7024	392.578	77.8036
405.762	80.3822	405.762	80.3453	405.762	80.3147	405.762	80.2011	405.762	80.1537	405.762	79.9557	405.762	79.9171	405.762	79.6221	405.762	79.6245	405.762	79.2182	405.762	79.2912	405.762	78.7637	405.762	78.9225	405.762	78.2766	405.762	78.5128	405.762	77.7753	405.762	78.0515	405.762	77.2831	405.762	77.5371	405.762	76.833	405.762	76.9956	405.762	76.4683	405.762	76.4963	405.762	76.2397	405.762	76.1486	405.762	76.1949	405.762	76.0575	405.762	76.3517	405.762	76.2473	405.762	76.6662	405.762	76.6265	405.762	77.0322	405.762	77.0381	405.762	77.3231	405.762	77.3382	405.762	77.4399
420.41	81.0824	420.41	81.0001	420.41	81.0663	420.41	80.8209	420.41	80.9507	420.41	80.5478	420.41	80.7344	420.41	80.187	420.41	80.4168	420.41	79.7483	420.41	79.9992	420.41	79.2453	420.41	79.4853	420.41	78.6934	420.41	78.8814	420.41	78.1115	420.41	78.1978	420.41	77.5268	420.41	77.4564	420.41	76.9827	420.41	76.7081	420.41	76.5416	420.41	76.0524	420.41	76.2735	420.41	75.6355	420.41	76.2293	420.41	75.5859	420.41	76.4112	420.41	75.9076	420.41	76.7562	420.41	76.451	420.41	77.1475	420.41	77.0063	420.41	77.4509	420.41	77.4044	420.41	77.556
435.059	80.841	435.059	80.7794	435.059	80.8257	435.059	80.6408	435.059	80.7352	435.059	80.428	435.059	80.5714	435.059	80.1468	435.059	80.3385	435.059	79.8041	435.059	80.0439	435.059	79.4054	435.059	79.6963	435.059	78.9539	435.059	79.2996	435.059	78.4561	435.059	78.8479	435.059	77.9328	435.059	78.3302	435.059	77.4315	435.059	77.749	435.059	77.027	435.059	77.1464	435.059	76.7983	435.059	76.6198	435.059	76.7909	435.059	76.3007	435.059	76.9836	435.059	76.2816	435.059	77.2871	435.059	76.5453	435.059	77.5733	435.059	76.9672	435.059	77.7219	435.059	77.384	435.059	77.6598
451.172	81.529	451.172	81.3799	451.172	81.5554	451.172	81.1228	451.172	81.4515	451.172	80.7782	451.172	81.2186	451.172	80.368	451.172	80.8679	451.172	79.9054	451.172	80.4199	451.172	79.3846	451.172	79.8982	451.172	78.7804	451.172	79.3209	451.172	78.0645	451.172	78.6921	451.172	77.2344	451.172	78.0035	451.172	76.357	451.172	77.2545	451.172	75.6156	451.172	76.5058	451.172	75.2835	451.172	75.9443	451.172	75.5158	451.172	75.8385	451.172	76.1673	451.172	76.2706	451.172	76.9426	451.172	76.9926	451.172	77.6158	451.172	77.6731	451.172	78.0689	451.172	78.1131	451.172	78.2447
465.82	81.5799	465.82	81.5225	465.82	81.5152	465.82	81.3378	465.82	81.3469	465.82	81.0372	465.82	81.1002	465.82	80.648	465.82	80.7959	465.82	80.2072	465.82	80.4403	465.82	79.7443	465.82	80.0215	465.82	79.2606	465.82	79.5172	465.82	78.7219	465.82	78.9095	465.82	78.0745	465.82	78.1991	465.82	77.2828	465.82	77.4159	465.82	76.3825	465.82	76.6306	465.82	75.548	465.82	75.9685	465.82	75.0982	465.82	75.6017	465.82	75.2667	465.82	75.6573	465.82	75.9044	465.82	76.0824	465.82	76.6279	465.82	76.6522	465.82	77.1397	465.82	77.1178	465.82	77.307
483.398	81.3881	483.398	81.3153	483.398	81.3308	483.398	81.118	483.398	81.1521	483.398	80.8155	483.398	80.8757	483.398	80.4382	483.398	80.537	483.398	80.021	483.398	80.1728	483.398	79.5879	483.398	79.8033	483.398	79.1345	483.398	79.4157	483.398	78.6216	483.398	78.9647	483.398	77.9933	483.398	78.3946	483.398	77.2178	483.398	77.6795	483.398	76.3449	483.398	76.8749	483.398	75.5639	483.398	76.165	483.398	75.1854	483.398	75.8228	483.398	75.4078	483.398	75.9924	483.398	76.0728	483.398	76.5192	483.398	76.8237	483.398	77.1044	483.398	77.3841	483.398	77.5146	483.398	77.6233
499.512	81.4491	499.512	81.3168	499.512	81.4187	499.512	81.0328	499.512	81.2293	499.512	80.6298	499.512	80.8949	499.512	80.1641	499.512	80.4426	499.512	79.6982	499.512	79.9164	499.512	79.2661	499.512	79.3685	499.512	78.8451	499.512	78.8338	499.512	78.3626	499.512	78.3009	499.512	77.7354	499.512	77.7106	499.512	76.9164	499.512	76.9992	499.512	75.9385	499.512	76.1793	499.512	74.9745	499.512	75.4432	499.512	74.3778	499.512	75.1738	499.512	74.4941	499.512	75.5989	499.512	75.2585	499.512	76.4366	499.512	76.251	499.512	77.2119	499.512	77.0963	499.512	77.6296	499.512	77.5872
517.09	81.7576	517.09	81.6106	517.09	81.7672	517.09	81.3302	517.09	81.6482	517.09	80.9416	517.09	81.4154	517.09	80.4952	517.09	81.087	517.09	80.0521	517.09	80.6817	517.09	79.6451	517.09	80.2133	517.09	79.2423	517.09	79.6809	517.09	78.7561	517.09	79.0565	517.09	78.0869	517.09	78.281	517.09	77.1695	517.09	77.2858	517.09	76.0398	517.09	76.0682	517.09	74.9562	517.09	74.8613	517.09	74.4592	517.09	74.2869	517.09	74.9219	517.09	74.8191	517.09	76.0012	517.09	76.0072	517.09	77.1	517.09	77.1494	517.09	77.8612	517.09	77.8975	517.09	78.1409
536.133	82.0995	536.133	81.882	536.133	82.087	536.133	81.4436	536.133	81.8476	536.133	80.8121	536.133	81.406	536.133	80.062	536.133	80.8243	536.133	79.3447	536.133	80.206	536.133	78.8566	536.133	79.6674	536.133	78.6865	536.133	79.2683	536.133	78.6893	536.133	78.9482	536.133	78.5732	536.133	78.5355	536.133	78.0652	536.133	77.8239	536.133	76.9931	536.133	76.6602	536.133	75.3534	536.133	75.0807	536.133	73.5901	536.133	73.673	536.133	72.9795	536.133	73.6313	536.133	74.1013	536.133	74.9232	536.133	75.6946	536.133	76.317	536.133	76.8571	536.133	77.1769	536.133	77.3617
555.176	83.0119	555.176	82.9151	555.176	82.9127	555.176	82.6079	555.176	82.6302	555.176	82.0802	555.176	82.1811	555.176	81.3508	555.176	81.5939	555.176	80.4977	555.176	80.9142	555.176	79.659	555.176	80.2073	555.176	78.9648	555.176	79.5517	555.176	78.4324	555.176	78.9956	555.176	77.9414	555.176	78.4802	555.176	77.3136	555.176	77.8157	555.176	76.3932	555.176	76.7595	555.176	75.0949	555.176	75.1378	555.176	73.5591	555.176	73.1079	555.176	72.5682	555.176	71.8858	555.176	73.1384	555.176	72.8438	555.176	74.6339	555.176	74.637	555.176	75.8512	555.176	75.8996	555.176	76.3096
574.219	82.8529	574.219	82.6368	574.219	82.8961	574.219	82.2642	574.219	82.7562	574.219	81.7591	574.219	82.439	574.219	81.16	574.219	81.9751	574.219	80.5313	574.219	81.4207	574.219	79.9716	574.219	80.844	574.219	79.5764	574.219	80.2998	574.219	79.3268	574.219	79.7908	574.219	79.0276	574.219	79.2434	574.219	78.4051	574.219	78.5236	574.219	77.2308	574.219	77.4787	574.219	75.3634	574.219	75.9854	574.219	72.8497	574.219	74.0868	574.219	70.5537	574.219	72.4349	574.219	70.5252	574.219	72.3031	574.219	72.2398	574.219	73.3889	574.219	73.7446	574.219	74.302	574.219	74.4541
594.727	82.104	594.727	81.9434	594.727	82.0824	594.727	81.5944	594.727	81.8943	594.727	81.0741	594.727	81.5644	594.727	80.4494	594.727	81.1288	594.727	79.8486	594.727	80.6395	594.727	79.4155	594.727	80.1704	594.727	79.2235	594.727	79.8108	594.727	79.2329	594.727	79.6095	594.727	79.3121	594.727	79.4796	594.727	79.264	594.727	79.1819	594.727	78.8589	594.727	78.4308	594.727	77.89	594.727	77.0088	594.727	76.2417	594.727	74.9193	594.727	74.0739	594.727	72.8785	594.727	72.3712	594.727	72.4296	594.727	72.471	594.727	73.3421	594.727	73.5307	594.727	74.1303	594.727	74.2122
615.234	82.2956	615.234	82.1335	615.234	82.2182	615.234	81.7187	615.234	81.9178	615.234	81.0505	615.234	81.4187	615.234	80.1716	615.234	80.765	615.234	79.2295	615.234	80.0417	615.234	78.5273	615.234	79.3925	615.234	78.3808	615.234	78.9844	615.234	78.751	615.234	78.8817	615.234	79.2389	615.234	78.9556	615.234	79.4543	615.234	78.9657	615.234	79.1688	615.234	78.6722	615.234	78.2691	615.234	77.8403	615.234	76.7303	615.234	76.2133	615.234	74.7403	615.234	73.6503	615.234	73.0917	615.234	71.1443	615.234	72.8776	615.234	71.4479	615.234	73.5689	615.234	73.0934	615.234	73.8527
637.207	81.9885	637.207	81.8025	637.207	81.94	637.207	81.3527	637.207	81.6857	637.207	80.6148	637.207	81.2477	637.207	79.583	637.207	80.633	637.207	78.3133	637.207	79.8336	637.207	77.0468	637.207	78.8747	637.207	76.351	637.207	77.9482	637.207	76.6878	637.207	77.4999	637.207	77.6165	637.207	77.7905	637.207	78.3669	637.207	78.3937	637.207	78.545	637.207	78.7083	637.207	78.0596	637.207	78.4118	637.207	76.9558	637.207	77.4228	637.207	75.4211	637.207	75.8856	637.207	73.9875	637.207	74.3311	637.207	73.4169	637.207	73.5808	637.207	73.6371	637.207	73.6843	637.207	73.843
659.18	82.4486	659.18	82.4148	659.18	82.2733	659.18	82.1688	659.18	81.912	659.18	81.7124	659.18	81.4097	659.18	81.0379	659.18	80.8135	659.18	80.1215	659.18	80.1302	659.18	78.9342	659.18	79.3102	659.18	77.5168	659.18	78.3273	659.18	76.2236	659.18	77.3577	659.18	75.8219	659.18	76.8254	659.18	76.4312	659.18	76.9533	659.18	77.1475	659.18	77.3957	659.18	77.294	659.18	77.6482	659.18	76.6869	659.18	77.4131	659.18	75.5089	659.18	76.6732	659.18	74.4719	659.18	75.7714	659.18	74.4161	659.18	75.2853	659.18	74.9909	659.18	75.3229	659.18	75.3581
682.617	82.8594	682.617	82.8546	682.617	82.5978	682.617	82.5462	682.617	82.1268	682.617	81.9238	682.617	81.5169	682.617	81.03	682.617	80.825	682.617	79.9842	682.617	80.0736	682.617	78.9602	682.617	79.2725	682.617	78.0843	682.617	78.4566	682.617	77.3404	682.617	77.7128	682.617	76.7103	682.617	77.2061	682.617	76.4221	682.617	77.0752	682.617	76.644	682.617	77.1598	682.617	76.972	682.617	77.057	682.617	76.8664	682.617	76.5106	682.617	76.2689	682.617	75.687	682.617	75.7333	682.617	75.2277	682.617	75.828	682.617	75.5615	682.617	76.2814	682.617	76.1937	682.617	76.4919
707.52	83.2906	707.52	83.1077	707.52	83.183	707.52	82.6404	707.52	82.8191	707.52	81.928	707.52	82.2695	707.52	81.0296	707.52	81.6111	707.52	80.0147	707.52	80.8817	707.52	78.999	707.52	80.0458	707.52	78.164	707.52	78.9942	707.52	77.5725	707.52	77.6442	707.52	77.0855	707.52	76.2165	707.52	76.6491	707.52	75.4749	707.52	76.3509	707.52	75.8071	707.52	76.0804	707.52	76.4006	707.52	75.5276	707.52	76.6246	707.52	74.6811	707.52	76.6289	707.52	74.3236	707.52	76.8764	707.52	75.289	707.52	77.4244	707.52	76.763	707.52	77.8469	707.52	77.6983
732.422	83.4198	732.422	83.5164	732.422	83.1334	732.422	83.3723	732.422	82.6929	732.422	82.9404	732.422	82.1347	732.422	82.2183	732.422	81.4922	732.422	81.251	732.422	80.7569	732.422	80.0853	732.422	79.8818	732.422	78.7505	732.422	78.8533	732.422	77.4561	732.422	77.749	732.422	76.8415	732.422	76.7726	732.422	77.0415	732.422	76.2479	732.422	77.1007	732.422	76.3012	732.422	76.4476	732.422	76.5125	732.422	75.299	732.422	76.3327	732.422	74.243	732.422	75.767	732.422	73.7742	732.422	75.5061	732.422	74.1254	732.422	75.8123	732.422	75.0249	732.422	76.0565	732.422	75.7982
757.324	83.62	757.324	83.5576	757.324	83.3587	757.324	83.1757	757.324	82.8611	757.324	82.5632	757.324	82.2367	757.324	81.8109	757.324	81.516	757.324	80.916	757.324	80.639	757.324	79.7848	757.324	79.5888	757.324	78.3631	757.324	78.4645	757.324	76.9152	757.324	77.3259	757.324	76.1829	757.324	76.196	757.324	76.4342	757.324	75.4711	757.324	76.9247	757.324	75.5848	757.324	77.0431	757.324	75.9894	757.324	76.6678	757.324	75.9536	757.324	76.1114	757.324	75.3866	757.324	75.939	757.324	74.7773	757.324	76.2934	757.324	74.9263	757.324	76.6831	757.324	75.8273	757.324	76.5764
785.156	82.3407	785.156	82.6699	785.156	82.2829	785.156	82.9782	785.156	82.4943	785.156	82.9149	785.156	82.702	785.156	82.3066	785.156	82.6074	785.156	81.2828	785.156	82.0672	785.156	80.2445	785.156	81.0897	785.156	79.4437	785.156	79.7072	785.156	78.5904	785.156	77.823	785.156	77.3998	785.156	75.3052	785.156	76.0566	785.156	72.7731	785.156	74.7286	785.156	71.5588	785.156	73.1275	785.156	70.918	785.156	71.0525	785.156	70.2452	785.156	70.1111	785.156	70.5471	785.156	72.511	785.156	71.7635	785.156	75.1791	785.156	73.405	785.156	76.4433	785.156	75.1234	785.156	76.3152
811.523	82.6332	811.523	83.0696	811.523	81.9375	811.523	83.0447	811.523	81.3277	811.523	82.4966	811.523	81.0591	811.523	81.4638	811.523	80.993	811.523	80.0691	811.523	80.7195	811.523	78.535	811.523	79.9306	811.523	77.1696	811.523	78.6085	811.523	76.1476	811.523	76.9587	811.523	75.5935	811.523	75.2571	811.523	75.7012	811.523	73.8807	811.523	76.2241	811.523	73.1351	811.523	76.5503	811.523	72.8945	811.523	76.1325	811.523	73.1144	811.523	74.3189	811.523	74.0269	811.523	71.2849	811.523	75.273	811.523	72.9555	811.523	76.5649	811.523	76.607	811.523	77.8054	811.523	78.1178
840.82	82.7667	840.82	82.7755	840.82	82.3089	840.82	82.3455	840.82	81.5175	840.82	81.5609	840.82	80.6418	840.82	80.5411	840.82	79.9417	840.82	79.4081	840.82	79.4192	840.82	78.2271	840.82	78.8103	840.82	76.956	840.82	77.9418	840.82	75.5706	840.82	76.8588	840.82	74.6386	840.82	75.6772	840.82	75.2197	840.82	74.6619	840.82	76.5194	840.82	74.5892	840.82	76.989	840.82	75.5325	840.82	76.1896	840.82	75.9307	840.82	74.5829	840.82	75.1	840.82	72.8415	840.82	74.4512	840.82	71.5737	840.82	75.0038	840.82	72.277	840.82	75.2037	840.82	74.1658
870.117	82.2638	870.117	82.1235	870.117	81.9596	870.117	81.663	870.117	81.2355	870.117	81.0725	870.117	80.2644	870.117	80.3833	870.117	79.3673	870.117	79.3197	870.117	78.8201	870.117	77.4979	870.117	78.5007	870.117	75.2203	870.117	78.064	870.117	73.9187	870.117	77.3847	870.117	73.4202	870.117	76.5664	870.117	72.4577	870.117	75.6844	870.117	72.6891	870.117	74.6994	870.117	74.0868	870.117	73.5297	870.117	74.3985	870.117	72.1873	870.117	73.2417	870.117	70.9087	870.117	71.9488	870.117	70.3288	870.117	73.1011	870.117	71.6316	870.117	74.8902	870.117	73.9323	870.117	75.2448
900.879	82.0742	900.879	81.9353	900.879	81.6744	900.879	81.3207	900.879	80.8146	900.879	80.4182	900.879	79.7195	900.879	79.422	900.879	78.7803	900.879	78.4048	900.879	78.2039	900.879	77.2058	900.879	77.5578	900.879	75.5789	900.879	76.3451	900.879	74.0167	900.879	74.917	900.879	73.7582	900.879	74.1463	900.879	74.1154	900.879	73.7101	900.879	73.9885	900.879	73.4771	900.879	73.6482	900.879	74.1302	900.879	73.0895	900.879	74.3944	900.879	71.7131	900.879	73.1313	900.879	70.7304	900.879	71.4136	900.879	72.1396	900.879	72.2048	900.879	73.8959	900.879	73.9531	900.879	74.5856
933.105	82.0175	933.105	81.7964	933.105	81.6351	933.105	81.0491	933.105	80.6751	933.105	79.952	933.105	79.426	933.105	78.7542	933.105	78.4857	933.105	77.6506	933.105	78.1173	933.105	76.6919	933.105	77.7856	933.105	75.629	933.105	76.8301	933.105	74.1291	933.105	75.0065	933.105	72.9203	933.105	72.6526	933.105	73.393	933.105	70.4309	933.105	74.2188	933.105	68.972	933.105	74.2266	933.105	68.7807	933.105	73.2496	933.105	69.3844	933.105	70.4767	933.105	69.5148	933.105	66.635	933.105	68.5786	933.105	70.6062	933.105	69.6613	933.105	74.3147	933.105	73.2778	933.105	75.1149
965.332	81.491	965.332	81.6714	965.332	80.8263	965.332	81.2146	965.332	80.0958	965.332	80.2266	965.332	79.6102	965.332	78.887	965.332	79.216	965.332	77.2469	965.332	78.6801	965.332	75.4212	965.332	78.1185	965.332	73.8325	965.332	77.6085	965.332	72.7331	965.332	76.7497	965.332	71.5414	965.332	75.2181	965.332	70.6955	965.332	73.6779	965.332	72.2792	965.332	72.9556	965.332	73.8109	965.332	72.4311	965.332	74.139	965.332	71.9447	965.332	73.3648	965.332	71.7199	965.332	70.3628	965.332	71.881	965.332	67.732	965.332	72.9493	965.332	72.5784	965.332	74.4647	965.332	74.8407
1,000.49	81.2947	1,000.49	80.4455	1,000.49	81.6908	1,000.49	79.5473	1,000.49	81.3468	1,000.49	79.0213	1,000.49	80.0317	1,000.49	78.7699	1,000.49	77.7747	1,000.49	78.3702	1,000.49	75.4248	1,000.49	77.6267	1,000.49	75.0464	1,000.49	76.1746	1,000.49	75.897	1,000.49	73.3462	1,000.49	75.7801	1,000.49	68.1724	1,000.49	74.7578	1,000.49	62.6513	1,000.49	73.4819	1,000.49	69.5246	1,000.49	72.6616	1,000.49	73.1	1,000.49	73.2269	1,000.49	74.3434	1,000.49	73.8212	1,000.49	74.5049	1,000.49	74.0046	1,000.49	73.3552	1,000.49	74.0138	1,000.49	69.8298	1,000.49	74.6046	1,000.49	70.2659	1,000.49	75.7254	1,000.49	74.7377
1,035.64	81.0364	1,035.64	80.8386	1,035.64	80.7332	1,035.64	80.3405	1,035.64	80.0381	1,035.64	79.8463	1,035.64	79.1379	1,035.64	79.2592	1,035.64	78.1458	1,035.64	78.2225	1,035.64	77.2365	1,035.64	76.8838	1,035.64	76.7127	1,035.64	75.9368	1,035.64	76.7025	1,035.64	75.3484	1,035.64	76.8623	1,035.64	74.7148	1,035.64	76.6924	1,035.64	73.1687	1,035.64	76.0612	1,035.64	69.989	1,035.64	75.0554	1,035.64	68.312	1,035.64	73.9868	1,035.64	69.8609	1,035.64	73.1034	1,035.64	70.1671	1,035.64	71.0572	1,035.64	69.5828	1,035.64	67.5534	1,035.64	70.1347	1,035.64	68.4297	1,035.64	71.3734	1,035.64	70.9333	1,035.64	71.7834
1,072.27	79.6014	1,072.27	79.5798	1,072.27	80.0118	1,072.27	79.8998	1,072.27	80.3491	1,072.27	79.9992	1,072.27	80.0254	1,072.27	79.3739	1,072.27	78.6045	1,072.27	78.1704	1,072.27	75.9437	1,072.27	77.4128	1,072.27	72.5874	1,072.27	77.5013	1,072.27	71.5569	1,072.27	77.0576	1,072.27	72.8315	1,072.27	75.1922	1,072.27	73.7179	1,072.27	72.6874	1,072.27	73.6818	1,072.27	69.7927	1,072.27	73.0969	1,072.27	63.4372	1,072.27	73.6731	1,072.27	64.7885	1,072.27	74.4608	1,072.27	71.083	1,072.27	73.9273	1,072.27	73.0396	1,072.27	72.3157	1,072.27	72.0726	1,072.27	70.8438	1,072.27	69.7131	1,072.27	70.6649	1,072.27	69.9314
1,108.89	79.687	1,108.89	79.5585	1,108.89	79.6398	1,108.89	79.3458	1,108.89	79.2045	1,108.89	78.725	1,108.89	78.2444	1,108.89	77.5214	1,108.89	76.9264	1,108.89	76.3876	1,108.89	75.8905	1,108.89	75.9182	1,108.89	75.2658	1,108.89	75.8332	1,108.89	74.6747	1,108.89	75.0963	1,108.89	74.354	1,108.89	73.4781	1,108.89	73.8307	1,108.89	72.8793	1,108.89	71.9878	1,108.89	72.8761	1,108.89	70.2958	1,108.89	71.9176	1,108.89	70.5982	1,108.89	71.5806	1,108.89	71.1259	1,108.89	70.8855	1,108.89	70.9797	1,108.89	68.1579	1,108.89	68.798	1,108.89	66.8726	1,108.89	67.4056	1,108.89	69.6014	1,108.89	70.4618	1,108.89	71.2275
1,148.44	79.3035	1,148.44	79.4954	1,148.44	79.0971	1,148.44	79.2987	1,148.44	79.1611	1,148.44	78.5837	1,148.44	79.1655	1,148.44	77.2835	1,148.44	78.5352	1,148.44	75.6991	1,148.44	76.983	1,148.44	74.4203	1,148.44	74.5987	1,148.44	73.4025	1,148.44	71.941	1,148.44	72.7046	1,148.44	71.3497	1,148.44	72.186	1,148.44	72.7099	1,148.44	71.9517	1,148.44	72.1315	1,148.44	72.0234	1,148.44	70.4631	1,148.44	71.7448	1,148.44	70.7164	1,148.44	70.4575	1,148.44	70.209	1,148.44	66.7885	1,148.44	70.4113	1,148.44	64.0261	1,148.44	69.9191	1,148.44	69.3149	1,148.44	66.4209	1,148.44	71.4784	1,148.44	67.0045	1,148.44	70.3826
1,189.45	80.2046	1,189.45	80.189	1,189.45	79.8836	1,189.45	79.6831	1,189.45	79.4461	1,189.45	78.8168	1,189.45	78.8929	1,189.45	78.1357	1,189.45	77.9368	1,189.45	77.4718	1,189.45	76.0343	1,189.45	75.3023	1,189.45	73.1692	1,189.45	71.3923	1,189.45	72.9242	1,189.45	70.0504	1,189.45	74.2805	1,189.45	70.7387	1,189.45	74.2761	1,189.45	71.1833	1,189.45	72.8918	1,189.45	71.8323	1,189.45	70.0159	1,189.45	71.5353	1,189.45	69.2038	1,189.45	70.4499	1,189.45	72.5814	1,189.45	70.443	1,189.45	73.2029	1,189.45	69.9453	1,189.45	70.9017	1,189.45	68.7493	1,189.45	71.0445	1,189.45	69.2179	1,189.45	71.9606	1,189.45	70.8155
1,230.47	81.0584	1,230.47	80.6149	1,230.47	80.9752	1,230.47	79.8852	1,230.47	80.411	1,230.47	79.2019	1,230.47	79.4316	1,230.47	78.5721	1,230.47	78.2792	1,230.47	77.5506	1,230.47	77.2353	1,230.47	75.5828	1,230.47	76.2335	1,230.47	72.8257	1,230.47	74.5566	1,230.47	70.0725	1,230.47	71.782	1,230.47	67.7674	1,230.47	70.8653	1,230.47	67.3048	1,230.47	71.3873	1,230.47	69.7146	1,230.47	69.1521	1,230.47	72.7347	1,230.47	67.229	1,230.47	74.1817	1,230.47	67.6694	1,230.47	73.7002	1,230.47	67.4173	1,230.47	71.1714	1,230.47	69.0557	1,230.47	67.8078	1,230.47	69.6332	1,230.47	70.8372	1,230.47	71.1931	1,230.47	72.8742
1,274.41	81.1111	1,274.41	81.2679	1,274.41	81.0456	1,274.41	81.0393	1,274.41	80.9332	1,274.41	80.0702	1,274.41	80.3192	1,274.41	78.8369	1,274.41	79.4315	1,274.41	77.9992	1,274.41	78.5154	1,274.41	77.3499	1,274.41	77.0593	1,274.41	76.365	1,274.41	74.9234	1,274.41	74.6097	1,274.41	73.1592	1,274.41	73.3799	1,274.41	73.5402	1,274.41	72.0923	1,274.41	73.7479	1,274.41	68.5376	1,274.41	71.7902	1,274.41	68.9173	1,274.41	69.453	1,274.41	72.0765	1,274.41	69.0949	1,274.41	72.5257	1,274.41	70.5452	1,274.41	71.2755	1,274.41	71.5489	1,274.41	70.726	1,274.41	70.9688	1,274.41	71.4299	1,274.41	71.8228	1,274.41	72.2014
1,319.82	80.8193	1,319.82	81.6627	1,319.82	80.2227	1,319.82	81.463	1,319.82	80.2395	1,319.82	80.0068	1,319.82	80.2335	1,319.82	78.7893	1,319.82	80.0249	1,319.82	78.5741	1,319.82	79.1013	1,319.82	78.1061	1,319.82	77.0161	1,319.82	76.636	1,319.82	74.5486	1,319.82	73.9115	1,319.82	71.9393	1,319.82	69.0606	1,319.82	70.7691	1,319.82	65.1595	1,319.82	72.8576	1,319.82	68.6811	1,319.82	72.2696	1,319.82	68.582	1,319.82	70.478	1,319.82	71.6796	1,319.82	71.2414	1,319.82	73.5895	1,319.82	69.7669	1,319.82	71.6916	1,319.82	69.0505	1,319.82	66.8926	1,319.82	70.5006	1,319.82	70.6159	1,319.82	72.0067	1,319.82	73.3774
1,366.7	80.1865	1,366.7	80.3364	1,366.7	80.3655	1,366.7	80.5335	1,366.7	80.4363	1,366.7	80.5102	1,366.7	80.0375	1,366.7	80.3049	1,366.7	79.6286	1,366.7	79.8663	1,366.7	79.3001	1,366.7	79.2212	1,366.7	78.5689	1,366.7	78.3674	1,366.7	77.2919	1,366.7	77.5432	1,366.7	75.1938	1,366.7	76.9416	1,366.7	71.3029	1,366.7	75.0564	1,366.7	66.9975	1,366.7	70.8589	1,366.7	65.7401	1,366.7	65.8469	1,366.7	67.4882	1,366.7	66.32	1,366.7	69.285	1,366.7	72.8167	1,366.7	71.2593	1,366.7	73.3989	1,366.7	73.7039	1,366.7	68.947	1,366.7	72.5256	1,366.7	68.0712	1,366.7	72.1412	1,366.7	72.2209
1,413.57	80.8271	1,413.57	80.6232	1,413.57	80.3129	1,413.57	80.3415	1,413.57	79.568	1,413.57	80.2011	1,413.57	80.0308	1,413.57	80.311	1,413.57	80.6445	1,413.57	79.7635	1,413.57	80.2457	1,413.57	78.6792	1,413.57	78.8693	1,413.57	78.6736	1,413.57	75.833	1,413.57	79.3881	1,413.57	72.046	1,413.57	78.2693	1,413.57	69.7549	1,413.57	75.9482	1,413.57	69.4021	1,413.57	73.7869	1,413.57	70.3472	1,413.57	69.6725	1,413.57	69.2654	1,413.57	63.7352	1,413.57	69.6524	1,413.57	70.2813	1,413.57	72.8856	1,413.57	72.8769	1,413.57	73.7505	1,413.57	70.3612	1,413.57	71.7755	1,413.57	65.4148	1,413.57	71.1308	1,413.57	68.9472
1,463.38	81.2585	1,463.38	80.9186	1,463.38	81.0649	1,463.38	80.1905	1,463.38	80.8993	1,463.38	80.3721	1,463.38	80.6637	1,463.38	80.7015	1,463.38	80.0488	1,463.38	78.4853	1,463.38	79.1537	1,463.38	75.5131	1,463.38	78.1042	1,463.38	76.8284	1,463.38	76.9301	1,463.38	77.3708	1,463.38	75.2629	1,463.38	75.397	1,463.38	72.1256	1,463.38	75.3062	1,463.38	71.7172	1,463.38	75.2423	1,463.38	75.5255	1,463.38	73.02	1,463.38	74.2885	1,463.38	70.1496	1,463.38	73.3425	1,463.38	67.0888	1,463.38	72.8686	1,463.38	69.5543	1,463.38	72.4755	1,463.38	70.3856	1,463.38	71.2796	1,463.38	68.379	1,463.38	69.3266	1,463.38	68.5228
1,516.11	82.3797	1,516.11	80.1459	1,516.11	82.434	1,516.11	78.4608	1,516.11	81.5656	1,516.11	80.7624	1,516.11	80.2515	1,516.11	82.2173	1,516.11	80.3439	1,516.11	81.3111	1,516.11	80.9747	1,516.11	79.4168	1,516.11	80.93	1,516.11	76.5502	1,516.11	80.1748	1,516.11	73.3191	1,516.11	78.2804	1,516.11	71.2011	1,516.11	75.3101	1,516.11	65.1981	1,516.11	74.6252	1,516.11	69.3534	1,516.11	75.5745	1,516.11	74.2836	1,516.11	76.0726	1,516.11	71.5604	1,516.11	72.7363	1,516.11	67.1175	1,516.11	67.8266	1,516.11	70.4214	1,516.11	71.4938	1,516.11	68.3756	1,516.11	68.933	1,516.11	68.3793	1,516.11	69.448	1,516.11	70.7526
1,568.85	80.9033	1,568.85	79.3518	1,568.85	81.8726	1,568.85	79.7627	1,568.85	81.5228	1,568.85	81.9688	1,568.85	80.734	1,568.85	82.696	1,568.85	80.7483	1,568.85	80.4573	1,568.85	80.743	1,568.85	77.1664	1,568.85	80.2482	1,568.85	75.8946	1,568.85	79.534	1,568.85	73.1068	1,568.85	77.9477	1,568.85	72.0858	1,568.85	76.2841	1,568.85	70.4417	1,568.85	74.6368	1,568.85	67.9708	1,568.85	72.9593	1,568.85	71.6406	1,568.85	72.2244	1,568.85	71.0835	1,568.85	69.6554	1,568.85	69.6596	1,568.85	71.8347	1,568.85	71.9511	1,568.85	70.7123	1,568.85	70.6429	1,568.85	69.0418	1,568.85	70.7035	1,568.85	68.1046	1,568.85	71.4861
1,624.51	79.23	1,624.51	79.1327	1,624.51	80.6341	1,624.51	80.5809	1,624.51	80.9195	1,624.51	81.4852	1,624.51	80.0386	1,624.51	80.4552	1,624.51	79.4383	1,624.51	78.418	1,624.51	80.5757	1,624.51	77.6669	1,624.51	81.5556	1,624.51	74.8717	1,624.51	80.2844	1,624.51	72.1459	1,624.51	77.6371	1,624.51	71.8901	1,624.51	75.1982	1,624.51	71.5185	1,624.51	71.7117	1,624.51	70.4888	1,624.51	66.0267	1,624.51	71.0154	1,624.51	70.2684	1,624.51	75.9862	1,624.51	68.7122	1,624.51	74.0312	1,624.51	72.6873	1,624.51	68.9109	1,624.51	72.9131	1,624.51	70.571	1,624.51	63.5953	1,624.51	68.0627	1,624.51	65.2161	1,624.51	64.9963
1,681.64	79.0539	1,681.64	79.3128	1,681.64	79.4549	1,681.64	80.5557	1,681.64	80.2051	1,681.64	81.5228	1,681.64	81.0417	1,681.64	80.2077	1,681.64	81.1635	1,681.64	79.614	1,681.64	80.1136	1,681.64	81.0979	1,681.64	77.5879	1,681.64	77.6581	1,681.64	75.7306	1,681.64	73.5088	1,681.64	76.9641	1,681.64	72.9695	1,681.64	76.4194	1,681.64	64.8978	1,681.64	70.1528	1,681.64	70.163	1,681.64	72.275	1,681.64	66.9204	1,681.64	72.5457	1,681.64	68.2711	1,681.64	70.5416	1,681.64	67.6884	1,681.64	74.7321	1,681.64	66.0544	1,681.64	67.9557	1,681.64	67.0525	1,681.64	67.0859	1,681.64	61.8508	1,681.64	68.5976	1,681.64	67.6499
1,741.7	79.6574	1,741.7	79.4934	1,741.7	80.7827	1,741.7	80.293	1,741.7	81.1157	1,741.7	80.4756	1,741.7	81.1068	1,741.7	80.2379	1,741.7	81.2504	1,741.7	81.2809	1,741.7	80.3026	1,741.7	78.8788	1,741.7	77.6034	1,741.7	77.0237	1,741.7	76.1359	1,741.7	77.6288	1,741.7	76.9052	1,741.7	76.3854	1,741.7	76.0927	1,741.7	75.1442	1,741.7	76.2623	1,741.7	72.8733	1,741.7	76.0216	1,741.7	69.5684	1,741.7	75.4633	1,741.7	63.863	1,741.7	75.0265	1,741.7	72.1233	1,741.7	74.2872	1,741.7	72.8048	1,741.7	68.5237	1,741.7	68.7421	1,741.7	49.1981	1,741.7	68.9578	1,741.7	60.4152	1,741.7	67.6302
1,803.22	81.4691	1,803.22	81.2281	1,803.22	81.4104	1,803.22	81.6389	1,803.22	81.6552	1,803.22	82.2501	1,803.22	81.9606	1,803.22	81.6727	1,803.22	81.7212	1,803.22	80.2776	1,803.22	80.8114	1,803.22	78.9829	1,803.22	78.8957	1,803.22	75.6016	1,803.22	75.0684	1,803.22	75.7973	1,803.22	73.8945	1,803.22	75.5896	1,803.22	75.1142	1,803.22	71.8889	1,803.22	70.9074	1,803.22	75.9367	1,803.22	74.2616	1,803.22	72.3726	1,803.22	75.6667	1,803.22	61.4071	1,803.22	75.5204	1,803.22	65.2645	1,803.22	65.9719	1,803.22	71.1324	1,803.22	70.5459	1,803.22	69.3883	1,803.22	70.4466	1,803.22	67.8067	1,803.22	69.054	1,803.22	68.5532
1,866.21	80.7763	1,866.21	81.677	1,866.21	81.0655	1,866.21	82.0868	1,866.21	82.6301	1,866.21	81.1466	1,866.21	82.98	1,866.21	80.7789	1,866.21	81.9457	1,866.21	80.9253	1,866.21	80.6168	1,866.21	78.3632	1,866.21	78.7835	1,866.21	76.8322	1,866.21	77.6672	1,866.21	75.806	1,866.21	73.6416	1,866.21	74.0173	1,866.21	65.5832	1,866.21	71.7943	1,866.21	70.4452	1,866.21	71.2661	1,866.21	73.5264	1,866.21	74.1185	1,866.21	72.8654	1,866.21	67.5474	1,866.21	76.114	1,866.21	70.3268	1,866.21	67.035	1,866.21	72.2731	1,866.21	72.7552	1,866.21	68.7593	1,866.21	69.6936	1,866.21	67.2298	1,866.21	66.5934	1,866.21	68.4796
1,932.13	80.3137	1,932.13	81.0821	1,932.13	81.0747	1,932.13	82.4837	1,932.13	82.2152	1,932.13	82.8135	1,932.13	82.3119	1,932.13	80.9156	1,932.13	82.1012	1,932.13	79.095	1,932.13	80.9371	1,932.13	78.7373	1,932.13	79.8024	1,932.13	75.1331	1,932.13	77.64	1,932.13	73.8501	1,932.13	72.4382	1,932.13	71.5722	1,932.13	66.373	1,932.13	69.7381	1,932.13	64.3303	1,932.13	67.5215	1,932.13	68.0047	1,932.13	68.4468	1,932.13	69.4827	1,932.13	70.5768	1,932.13	70.6852	1,932.13	66.4924	1,932.13	72.0885	1,932.13	69.7928	1,932.13	69.2759	1,932.13	70.8001	1,932.13	69.7532	1,932.13	67.0676	1,932.13	61.892	1,932.13	66.1012
1,999.51	81.1629	1,999.51	81.5715	1,999.51	81.4356	1,999.51	82.1103	1,999.51	81.9369	1,999.51	82.1822	1,999.51	82.1413	1,999.51	81.2387	1,999.51	81.5076	1,999.51	79.8976	1,999.51	80.7038	1,999.51	77.7107	1,999.51	78.89	1,999.51	76.2396	1,999.51	75.7583	1,999.51	73.4645	1,999.51	72.7959	1,999.51	70.0771	1,999.51	65.6351	1,999.51	71.8246	1,999.51	67.8613	1,999.51	65.4052	1,999.51	70.493	1,999.51	67.1523	1,999.51	67.4312	1,999.51	69.288	1,999.51	71.2301	1,999.51	66.0134	1,999.51	70.142	1,999.51	70.2381	1,999.51	70.0986	1,999.51	69.819	1,999.51	69.8739	1,999.51	65.4802	1,999.51	65.8057	1,999.51	64.4906
2,069.82	82.6479	2,069.82	82.733	2,069.82	81.9888	2,069.82	81.8153	2,069.82	81.7744	2,069.82	81.2874	2,069.82	81.5079	2,069.82	81.0131	2,069.82	80.6157	2,069.82	79.5759	2,069.82	80.8049	2,069.82	78.5006	2,069.82	78.0527	2,069.82	75.5094	2,069.82	73.554	2,069.82	72.5027	2,069.82	71.0125	2,069.82	69.4237	2,069.82	64.8855	2,069.82	68.0278	2,069.82	68.136	2,069.82	69.4127	2,069.82	71.3401	2,069.82	60.5688	2,069.82	69.349	2,069.82	69.6069	2,069.82	69.0285	2,069.82	66.8932	2,069.82	69.1035	2,069.82	67.1513	2,069.82	69.2332	2,069.82	69.4534	2,069.82	69.7758	2,069.82	65.3218	2,069.82	64.0692	2,069.82	62.1541
2,143.07	82.8263	2,143.07	82.8026	2,143.07	82.3617	2,143.07	81.7464	2,143.07	82.3745	2,143.07	81.2334	2,143.07	81.4274	2,143.07	80.8335	2,143.07	80.074	2,143.07	79.409	2,143.07	79.4547	2,143.07	75.8077	2,143.07	77.4696	2,143.07	72.9019	2,143.07	75.0722	2,143.07	70.9105	2,143.07	72.9642	2,143.07	69.0389	2,143.07	67.7725	2,143.07	64.8155	2,143.07	68.4402	2,143.07	66.5446	2,143.07	70.563	2,143.07	63.3722	2,143.07	69.4185	2,143.07	66.6111	2,143.07	69.6715	2,143.07	67.9155	2,143.07	67.1241	2,143.07	66.4873	2,143.07	67.5231	2,143.07	69.1273	2,143.07	68.4099	2,143.07	65.2818	2,143.07	64.1981	2,143.07	62.1184
2,219.24	82.2413	2,219.24	81.4554	2,219.24	81.6355	2,219.24	82.0364	2,219.24	81.7581	2,219.24	82.102	2,219.24	81.8924	2,219.24	79.609	2,219.24	80.2998	2,219.24	77.4883	2,219.24	78.0832	2,219.24	73.9196	2,219.24	76.1456	2,219.24	73.367	2,219.24	73.7986	2,219.24	69.3188	2,219.24	70.5861	2,219.24	66.1666	2,219.24	66.5962	2,219.24	66.151	2,219.24	62.7777	2,219.24	62.2572	2,219.24	68.4144	2,219.24	64.13	2,219.24	67.444	2,219.24	64.9589	2,219.24	67.4305	2,219.24	66.7661	2,219.24	64.1107	2,219.24	64.2142	2,219.24	65.5833	2,219.24	68.1957	2,219.24	67.1619	2,219.24	65.0314	2,219.24	60.5635	2,219.24	56.3376
2,296.88	82.5988	2,296.88	81.8019	2,296.88	82.1305	2,296.88	81.694	2,296.88	80.945	2,296.88	80.8536	2,296.88	81.0665	2,296.88	78.4614	2,296.88	80.2175	2,296.88	77.3631	2,296.88	77.6774	2,296.88	75.2059	2,296.88	75.6008	2,296.88	72.0508	2,296.88	72.7575	2,296.88	69.5086	2,296.88	66.89	2,296.88	67.2535	2,296.88	68.6514	2,296.88	64.1244	2,296.88	67.4325	2,296.88	63.405	2,296.88	67.1855	2,296.88	63.2586	2,296.88	64.1021	2,296.88	63.8155	2,296.88	63.4028	2,296.88	65.9097	2,296.88	61.0052	2,296.88	63.9057	2,296.88	65.9424	2,296.88	66.3587	2,296.88	66.7847	2,296.88	64.1277	2,296.88	61.3528	2,296.88	60.2716
2,378.91	82.6651	2,378.91	82.5598	2,378.91	82.6551	2,378.91	81.0958	2,378.91	81.0266	2,378.91	79.3381	2,378.91	79.7542	2,378.91	79.1605	2,378.91	79.3524	2,378.91	76.4721	2,378.91	77.6856	2,378.91	73.8684	2,378.91	73.8265	2,378.91	72.6149	2,378.91	72.6511	2,378.91	69.554	2,378.91	70.1712	2,378.91	65.2842	2,378.91	69.2084	2,378.91	65.0197	2,378.91	68.9297	2,378.91	57.5579	2,378.91	65.1761	2,378.91	62.4815	2,378.91	65.3227	2,378.91	59.9696	2,378.91	63.5903	2,378.91	65.8621	2,378.91	66.2153	2,378.91	64.1539	2,378.91	63.2527	2,378.91	65.8137	2,378.91	64.7717	2,378.91	62.8534	2,378.91	58.9176	2,378.91	59.227
2,462.4	82.4626	2,462.4	82.4062	2,462.4	82.1139	2,462.4	81.3845	2,462.4	81.4884	2,462.4	79.1037	2,462.4	79.6226	2,462.4	78.2899	2,462.4	78.8139	2,462.4	74.715	2,462.4	77.2786	2,462.4	73.0726	2,462.4	72.5465	2,462.4	66.9206	2,462.4	70.4309	2,462.4	65.3977	2,462.4	67.7721	2,462.4	64.0057	2,462.4	63.4616	2,462.4	60.1009	2,462.4	66.2331	2,462.4	62.3816	2,462.4	64.0702	2,462.4	54.5372	2,462.4	64.3181	2,462.4	62.7928	2,462.4	63.9677	2,462.4	63.4142	2,462.4	66.1675	2,462.4	62.4258	2,462.4	63.5016	2,462.4	64.1473	2,462.4	64.4944	2,462.4	62.5732	2,462.4	58.2061	2,462.4	55.7329
2,548.83	82.5831	2,548.83	81.8692	2,548.83	81.781	2,548.83	80.8768	2,548.83	81.0001	2,548.83	79.8945	2,548.83	79.7675	2,548.83	76.2808	2,548.83	78.7871	2,548.83	74.3676	2,548.83	76.4025	2,548.83	70.5206	2,548.83	72.6004	2,548.83	66.5523	2,548.83	68.4702	2,548.83	66.2089	2,548.83	64.1578	2,548.83	60.7369	2,548.83	67.5705	2,548.83	61.4213	2,548.83	65.8646	2,548.83	61.9846	2,548.83	62.0088	2,548.83	56.714	2,548.83	62.4419	2,548.83	63.852	2,548.83	62.3643	2,548.83	61.4128	2,548.83	66.4262	2,548.83	64.9418	2,548.83	63.4972	2,548.83	64.0367	2,548.83	64.6669	2,548.83	63.5463	2,548.83	59.6124	2,548.83	53.7219
2,639.65	82.7168	2,639.65	81.719	2,639.65	82.0129	2,639.65	79.7569	2,639.65	80.2944	2,639.65	78.8758	2,639.65	79.0975	2,639.65	75.8275	2,639.65	77.8849	2,639.65	72.3375	2,639.65	75.2214	2,639.65	70.1105	2,639.65	72.6657	2,639.65	67.9906	2,639.65	68.3136	2,639.65	66.9288	2,639.65	65.9705	2,639.65	66.4948	2,639.65	65.7425	2,639.65	63.1174	2,639.65	64.6293	2,639.65	61.0209	2,639.65	57.4016	2,639.65	60.6221	2,639.65	60.7762	2,639.65	61.3222	2,639.65	63.4537	2,639.65	63.2252	2,639.65	67.3021	2,639.65	65.6517	2,639.65	65.783	2,639.65	63.9545	2,639.65	64.6911	2,639.65	63.539	2,639.65	58.1187	2,639.65	57.4532
2,731.93	83.4696	2,731.93	82.1933	2,731.93	83.1354	2,731.93	80.6412	2,731.93	80.9633	2,731.93	78.0305	2,731.93	79.1603	2,731.93	76.1147	2,731.93	77.9755	2,731.93	74.1895	2,731.93	75.3616	2,731.93	72.0115	2,731.93	74.777	2,731.93	71.962	2,731.93	68.3922	2,731.93	67.7934	2,731.93	66.8189	2,731.93	68.268	2,731.93	63.3288	2,731.93	65.1471	2,731.93	58.4637	2,731.93	64.304	2,731.93	52.0312	2,731.93	57.9806	2,731.93	59.2571	2,731.93	62.5682	2,731.93	63.8712	2,731.93	66.2376	2,731.93	66.5968	2,731.93	67.2489	2,731.93	65.9454	2,731.93	67.2463	2,731.93	67.9851	2,731.93	66.4236	2,731.93	61.8965	2,731.93	58.4945
2,828.61	84.8396	2,828.61	83.843	2,828.61	84.1312	2,828.61	81.0858	2,828.61	81.3717	2,828.61	78.31	2,828.61	78.9488	2,828.61	76.7431	2,828.61	77.0348	2,828.61	75.2126	2,828.61	75.0958	2,828.61	73.2429	2,828.61	72.8303	2,828.61	71.1979	2,828.61	70.0431	2,828.61	69.1504	2,828.61	69.2541	2,828.61	66.4153	2,828.61	62.7036	2,828.61	62.5904	2,828.61	53.4263	2,828.61	63.6399	2,828.61	62.9753	2,828.61	63.8291	2,828.61	59.6643	2,828.61	62.7424	2,828.61	65.0996	2,828.61	66.3826	2,828.61	65.9772	2,828.61	66.6485	2,828.61	63.1507	2,828.61	66.6024	2,828.61	66.3503	2,828.61	65.6067	2,828.61	61.7017	2,828.61	54.4253
2,928.22	84.8114	2,928.22	83.4268	2,928.22	84.0993	2,928.22	80.4458	2,928.22	81.5601	2,928.22	77.9105	2,928.22	77.8225	2,928.22	75.3964	2,928.22	76.056	2,928.22	73.6712	2,928.22	74.8156	2,928.22	73.4809	2,928.22	72.0846	2,928.22	70.8227	2,928.22	71.2175	2,928.22	67.9228	2,928.22	66.9506	2,928.22	63.6969	2,928.22	53.6035	2,928.22	65.4164	2,928.22	60.8486	2,928.22	64.2651	2,928.22	68.2115	2,928.22	62.6854	2,928.22	62.8734	2,928.22	63.0409	2,928.22	64.9126	2,928.22	65.4424	2,928.22	64.4949	2,928.22	66.1084	2,928.22	65.0038	2,928.22	66.091	2,928.22	66.7478	2,928.22	62.6449	2,928.22	58.2741	2,928.22	50.026
3,030.76	85.2244	3,030.76	83.7459	3,030.76	83.9789	3,030.76	80.7189	3,030.76	81.5488	3,030.76	77.1873	3,030.76	78.3875	3,030.76	75.7204	3,030.76	76.2266	3,030.76	74.8279	3,030.76	74.8463	3,030.76	73.6662	3,030.76	72.7597	3,030.76	70.9032	3,030.76	73.1753	3,030.76	70.4874	3,030.76	67.6896	3,030.76	69.6431	3,030.76	66.7104	3,030.76	67.0057	3,030.76	65.7474	3,030.76	63.2121	3,030.76	69.1507	3,030.76	61.8518	3,030.76	63.1013	3,030.76	62.5229	3,030.76	66.9882	3,030.76	64.8682	3,030.76	63.6638	3,030.76	67.0113	3,030.76	67.7423	3,030.76	64.7905	3,030.76	66.245	3,030.76	64.1868	3,030.76	59.0669	3,030.76	52.8039
3,137.7	85.825	3,137.7	84.2566	3,137.7	84.6826	3,137.7	80.7274	3,137.7	81.6263	3,137.7	77.31	3,137.7	78.3273	3,137.7	76.1094	3,137.7	76.535	3,137.7	74.8566	3,137.7	75.4437	3,137.7	72.8918	3,137.7	74.129	3,137.7	72.3183	3,137.7	73.4502	3,137.7	69.5463	3,137.7	68.6112	3,137.7	66.8216	3,137.7	68.4353	3,137.7	64.1084	3,137.7	67.6201	3,137.7	64.1648	3,137.7	64.8383	3,137.7	62.0313	3,137.7	58.745	3,137.7	61.2481	3,137.7	64.4535	3,137.7	65.2502	3,137.7	64.0576	3,137.7	67.1982	3,137.7	67.2194	3,137.7	64.8351	3,137.7	65.2903	3,137.7	64.8906	3,137.7	58.3206	3,137.7	43.8286
3,249.02	85.1045	3,249.02	83.8337	3,249.02	84.4563	3,249.02	80.6905	3,249.02	81.7465	3,249.02	77.9929	3,249.02	78.7079	3,249.02	75.0096	3,249.02	76.0285	3,249.02	74.0755	3,249.02	74.7474	3,249.02	70.9618	3,249.02	72.5311	3,249.02	70.4941	3,249.02	72.0203	3,249.02	66.933	3,249.02	69.6888	3,249.02	64.0637	3,249.02	68.2112	3,249.02	62.9649	3,249.02	64.6227	3,249.02	60.346	3,249.02	57.6635	3,249.02	61.176	3,249.02	58.5969	3,249.02	62.2584	3,249.02	61.3439	3,249.02	63.9081	3,249.02	62.1849	3,249.02	65.439	3,249.02	64.527	3,249.02	64.1891	3,249.02	60.7416	3,249.02	62.2457	3,249.02	58.4303	3,249.02	44.4823
3,363.28	85.2518	3,363.28	84.0296	3,363.28	84.3727	3,363.28	81.1852	3,363.28	81.6533	3,363.28	77.803	3,363.28	78.7566	3,363.28	75.5555	3,363.28	75.9948	3,363.28	73.7931	3,363.28	73.582	3,363.28	73.3147	3,363.28	72.5569	3,363.28	69.8105	3,363.28	71.6	3,363.28	67.1476	3,363.28	69.935	3,363.28	67.264	3,363.28	69.3909	3,363.28	64.6128	3,363.28	64.7559	3,363.28	59.7689	3,363.28	45.4392	3,363.28	60.6735	3,363.28	59.5209	3,363.28	60.1219	3,363.28	59.8552	3,363.28	64.3992	3,363.28	59.8036	3,363.28	65.2027	3,363.28	64.7968	3,363.28	63.7999	3,363.28	61.2301	3,363.28	62.1685	3,363.28	59.8735	3,363.28	47.569
3,481.93	85.526	3,481.93	84.4323	3,481.93	84.6533	3,481.93	82.0101	3,481.93	81.8885	3,481.93	77.9459	3,481.93	78.7601	3,481.93	75.4013	3,481.93	75.8348	3,481.93	73.1105	3,481.93	72.3414	3,481.93	72.1215	3,481.93	72.7214	3,481.93	68.4667	3,481.93	70.7091	3,481.93	69.6189	3,481.93	70.4586	3,481.93	62.8583	3,481.93	66.9423	3,481.93	60.5765	3,481.93	57.2548	3,481.93	59.3736	3,481.93	60.2341	3,481.93	60.1114	3,481.93	53.3167	3,481.93	60.557	3,481.93	55.6278	3,481.93	62.1084	3,481.93	60.3131	3,481.93	65.3151	3,481.93	63.1808	3,481.93	61.3561	3,481.93	57.9082	3,481.93	61.3256	3,481.93	59.0626	3,481.93	53.0263
3,604.98	85.7481	3,604.98	84.9324	3,604.98	84.8443	3,604.98	81.8997	3,604.98	82.2725	3,604.98	78.2424	3,604.98	78.718	3,604.98	74.749	3,604.98	74.7198	3,604.98	72.7692	3,604.98	72.4713	3,604.98	69.6019	3,604.98	71.8431	3,604.98	68.5843	3,604.98	69.4785	3,604.98	63.3701	3,604.98	68.2579	3,604.98	63.4816	3,604.98	57.9632	3,604.98	60.4651	3,604.98	54.1547	3,604.98	57.5978	3,604.98	60.071	3,604.98	58.1203	3,604.98	55.7342	3,604.98	51.6495	3,604.98	49.2911	3,604.98	61.6073	3,604.98	59.696	3,604.98	63.4739	3,604.98	60.4409	3,604.98	61.0858	3,604.98	57.3452	3,604.98	59.2721	3,604.98	54.7427	3,604.98	56.8691
3,732.42	85.4579	3,732.42	84.4204	3,732.42	84.1366	3,732.42	81.5911	3,732.42	81.6704	3,732.42	77.6403	3,732.42	78.0058	3,732.42	73.7295	3,732.42	72.7768	3,732.42	70.7099	3,732.42	71.4833	3,732.42	67.6146	3,732.42	69.1415	3,732.42	66.4804	3,732.42	66.7112	3,732.42	63.5399	3,732.42	63.4701	3,732.42	63.0757	3,732.42	57.1017	3,732.42	60.5879	3,732.42	53.2187	3,732.42	56.0742	3,732.42	54.4588	3,732.42	55.9001	3,732.42	52.8917	3,732.42	56.1139	3,732.42	49.601	3,732.42	60.5589	3,732.42	57.2529	3,732.42	60.229	3,732.42	58.076	3,732.42	60.6838	3,732.42	56.4951	3,732.42	57.1661	3,732.42	53.8452	3,732.42	55.9142
3,864.26	86.0875	3,864.26	85.0259	3,864.26	84.8886	3,864.26	80.9066	3,864.26	81.1381	3,864.26	75.7697	3,864.26	76.4401	3,864.26	70.756	3,864.26	71.5117	3,864.26	67.7368	3,864.26	67.2983	3,864.26	65.1063	3,864.26	65.7506	3,864.26	63.6179	3,864.26	65.8337	3,864.26	65.5842	3,864.26	64.0169	3,864.26	63.4905	3,864.26	62.636	3,864.26	61.0664	3,864.26	59.5648	3,864.26	61.6633	3,864.26	51.5542	3,864.26	56.4871	3,864.26	47.9281	3,864.26	55.7108	3,864.26	51.7805	3,864.26	62.0993	3,864.26	57.9961	3,864.26	62.8308	3,864.26	59.6079	3,864.26	63.0234	3,864.26	57.9034	3,864.26	59.3505	3,864.26	58.9578	3,864.26	55.9994
4,000.49	87.7495	4,000.49	86.1427	4,000.49	85.9012	4,000.49	81.8713	4,000.49	82.2196	4,000.49	74.4801	4,000.49	75.146	4,000.49	68.5114	4,000.49	67.4128	4,000.49	64.0499	4,000.49	65.5064	4,000.49	69.5564	4,000.49	68.7674	4,000.49	70.8357	4,000.49	68.2291	4,000.49	70.2455	4,000.49	66.1422	4,000.49	66.1046	4,000.49	63.8362	4,000.49	64.9284	4,000.49	61.1427	4,000.49	59.8911	4,000.49	65.8214	4,000.49	60.5458	4,000.49	59.0262	4,000.49	60.5809	4,000.49	53.4967	4,000.49	64.3708	4,000.49	62.1695	4,000.49	66.6777	4,000.49	63.5692	4,000.49	66.8632	4,000.49	62.403	4,000.49	63.2629	4,000.49	62.4715	4,000.49	58.6294
4,141.11	89.6478	4,141.11	87.857	4,141.11	88.1064	4,141.11	83.0898	4,141.11	83.0849	4,141.11	75.3381	4,141.11	76.6389	4,141.11	67.2745	4,141.11	69.6703	4,141.11	71.7823	4,141.11	72.9679	4,141.11	73.3742	4,141.11	74.4258	4,141.11	74.9573	4,141.11	68.6255	4,141.11	69.342	4,141.11	68.6595	4,141.11	70.5477	4,141.11	71.443	4,141.11	66.6182	4,141.11	69.3091	4,141.11	66.4682	4,141.11	70.9399	4,141.11	64.1365	4,141.11	57.0607	4,141.11	60.5884	4,141.11	52.5065	4,141.11	67.1209	4,141.11	62.3419	4,141.11	69.6348	4,141.11	67.6264	4,141.11	69.247	4,141.11	67.3276	4,141.11	65.2896	4,141.11	63.1052	4,141.11	62.8891
4,287.6	90.1266	4,287.6	88.2723	4,287.6	88.8933	4,287.6	85.4956	4,287.6	84.5133	4,287.6	79.1895	4,287.6	76.8539	4,287.6	74.5205	4,287.6	75.4458	4,287.6	74.3859	4,287.6	76.76	4,287.6	75.6615	4,287.6	72.7196	4,287.6	72.6559	4,287.6	71.2108	4,287.6	75.4625	4,287.6	73.5866	4,287.6	71.3447	4,287.6	74.0842	4,287.6	68.9672	4,287.6	71.7277	4,287.6	66.4407	4,287.6	69.6805	4,287.6	62.1205	4,287.6	59.575	4,287.6	66.2972	4,287.6	54.8365	4,287.6	68.0842	4,287.6	64.9117	4,287.6	70.2187	4,287.6	69.5713	4,287.6	70.6054	4,287.6	70.287	4,287.6	67.2387	4,287.6	66.2042	4,287.6	65.502
4,438.48	88.5004	4,438.48	87.9613	4,438.48	88.2934	4,438.48	84.6556	4,438.48	84.7106	4,438.48	80.5514	4,438.48	80.5039	4,438.48	77.8128	4,438.48	78.785	4,438.48	75.4412	4,438.48	77.2383	4,438.48	74.5581	4,438.48	65.6144	4,438.48	74.8679	4,438.48	71.5301	4,438.48	70.6747	4,438.48	74.4492	4,438.48	68.8245	4,438.48	73.8638	4,438.48	66.5517	4,438.48	67.1412	4,438.48	63.5462	4,438.48	65.1284	4,438.48	63.8659	4,438.48	64.4737	4,438.48	62.2684	4,438.48	62.2115	4,438.48	67.1069	4,438.48	68.0195	4,438.48	70.6776	4,438.48	69.9249	4,438.48	71.0016	4,438.48	69.485	4,438.48	67.3021	4,438.48	66.8245	4,438.48	67.0387
4,595.21	87.268	4,595.21	87.1063	4,595.21	87.1393	4,595.21	84.9092	4,595.21	84.8909	4,595.21	82.3746	4,595.21	82.6729	4,595.21	79.3745	4,595.21	80.2508	4,595.21	72.3529	4,595.21	73.358	4,595.21	71.6772	4,595.21	67.9225	4,595.21	71.654	4,595.21	73.4402	4,595.21	71.808	4,595.21	74.049	4,595.21	72.099	4,595.21	72.5657	4,595.21	68.7158	4,595.21	59.4888	4,595.21	66.4576	4,595.21	69.6276	4,595.21	60.5344	4,595.21	66.78	4,595.21	63.6722	4,595.21	63.228	4,595.21	67.6974	4,595.21	64.091	4,595.21	67.5051	4,595.21	69.5406	4,595.21	70.5509	4,595.21	70.1885	4,595.21	65.8252	4,595.21	63.4697	4,595.21	65.7956
4,756.35	84.9601	4,756.35	85.9515	4,756.35	86.4041	4,756.35	84.6039	4,756.35	86.2288	4,756.35	84.4986	4,756.35	83.6721	4,756.35	78.3667	4,756.35	80.4195	4,756.35	72.2958	4,756.35	68.9922	4,756.35	69.5755	4,756.35	71.873	4,756.35	72.2095	4,756.35	74.7689	4,756.35	73.9211	4,756.35	74.9429	4,756.35	68.8893	4,756.35	70.0197	4,756.35	68.4015	4,756.35	67.5773	4,756.35	65.3419	4,756.35	68.4128	4,756.35	60.8505	4,756.35	63.8828	4,756.35	59.7188	4,756.35	62.3782	4,756.35	64.3853	4,756.35	59.9352	4,756.35	69.1776	4,756.35	67.7445	4,756.35	71.0349	4,756.35	69.9993	4,756.35	63.6917	4,756.35	61.878	4,756.35	65.3578
4,924.8	85.342	4,924.8	85.2934	4,924.8	86.0311	4,924.8	85.9439	4,924.8	86.2765	4,924.8	84.5541	4,924.8	84.675	4,924.8	77.9051	4,924.8	77.8511	4,924.8	68.9482	4,924.8	67.2122	4,924.8	73.1741	4,924.8	76.2249	4,924.8	74.9571	4,924.8	74.4093	4,924.8	72.7062	4,924.8	73.2135	4,924.8	73.2708	4,924.8	71.409	4,924.8	68.6117	4,924.8	68.6004	4,924.8	65.1083	4,924.8	63.8433	4,924.8	62.7475	4,924.8	66.6388	4,924.8	62.4637	4,924.8	55.7651	4,924.8	63.7777	4,924.8	63.9638	4,924.8	69.8098	4,924.8	64.5204	4,924.8	70.5848	4,924.8	69.0641	4,924.8	64.0801	4,924.8	55.2772	4,924.8	66.9087
5,097.66	84.3375	5,097.66	84.7656	5,097.66	84.8059	5,097.66	86.4968	5,097.66	86.9709	5,097.66	84.4666	5,097.66	85.0904	5,097.66	77.3037	5,097.66	77.6891	5,097.66	74.1773	5,097.66	70.245	5,097.66	72.0349	5,097.66	77.3673	5,097.66	73.7285	5,097.66	73.8763	5,097.66	74.4313	5,097.66	72.7747	5,097.66	70.9668	5,097.66	69.6135	5,097.66	68.0177	5,097.66	67.8727	5,097.66	64.4258	5,097.66	65.4202	5,097.66	62.2631	5,097.66	69.8035	5,097.66	58.3596	5,097.66	61.2391	5,097.66	62.9473	5,097.66	65.6391	5,097.66	69.4238	5,097.66	63.3854	5,097.66	70.2266	5,097.66	68.3087	5,097.66	49.7708	5,097.66	52.3059	5,097.66	68.5998
5,277.83	83.9234	5,277.83	84.3484	5,277.83	84.2071	5,277.83	86.0648	5,277.83	86.3786	5,277.83	84.3807	5,277.83	84.4077	5,277.83	76.7001	5,277.83	74.4949	5,277.83	73.3556	5,277.83	74.9367	5,277.83	74.79	5,277.83	76.2635	5,277.83	75.0306	5,277.83	74.1592	5,277.83	72.1312	5,277.83	71.5166	5,277.83	70.1218	5,277.83	70.6774	5,277.83	66.4616	5,277.83	60.4531	5,277.83	64.5351	5,277.83	67.2268	5,277.83	61.5406	5,277.83	70.2585	5,277.83	56.1471	5,277.83	57.3161	5,277.83	62.3267	5,277.83	62.4739	5,277.83	69.1376	5,277.83	63.7045	5,277.83	69.0898	5,277.83	67.1412	5,277.83	60.4251	5,277.83	59.4303	5,277.83	67.7264
5,463.87	80.8403	5,463.87	81.1077	5,463.87	81.9522	5,463.87	84.8308	5,463.87	85.8268	5,463.87	83.3883	5,463.87	83.2814	5,463.87	76.6857	5,463.87	74.1022	5,463.87	76.2201	5,463.87	77.4024	5,463.87	75.3412	5,463.87	73.1053	5,463.87	72.9886	5,463.87	72.429	5,463.87	73.1655	5,463.87	71.7624	5,463.87	70.0988	5,463.87	72.2388	5,463.87	66.6462	5,463.87	66.674	5,463.87	65.3794	5,463.87	62.5265	5,463.87	57.3017	5,463.87	62.5417	5,463.87	55.1389	5,463.87	60.1239	5,463.87	60.5504	5,463.87	63.237	5,463.87	68.3624	5,463.87	65.2785	5,463.87	69.3743	5,463.87	66.0795	5,463.87	60.5801	5,463.87	60.5265	5,463.87	65.3287
5,657.23	77.3306	5,657.23	79.8721	5,657.23	80.7626	5,657.23	83.9621	5,657.23	84.0736	5,657.23	80.4732	5,657.23	82.3045	5,657.23	77.7389	5,657.23	77.0903	5,657.23	77.1277	5,657.23	77.7836	5,657.23	74.8716	5,657.23	73.7322	5,657.23	74.5483	5,657.23	72.0473	5,657.23	70.9281	5,657.23	68.8693	5,657.23	67.0674	5,657.23	70.5815	5,657.23	65.5373	5,657.23	65.4799	5,657.23	61.9215	5,657.23	53.4317	5,657.23	58.636	5,657.23	60.9679	5,657.23	54.4483	5,657.23	56.7731	5,657.23	59.1625	5,657.23	64.3026	5,657.23	65.8104	5,657.23	64.4595	5,657.23	66.9739	5,657.23	66.5737	5,657.23	58.7664	5,657.23	57.3656	5,657.23	65.1248
5,856.45	78.4496	5,856.45	80.846	5,856.45	80.9637	5,856.45	82.6087	5,856.45	82.5247	5,856.45	80.5642	5,856.45	81.6428	5,856.45	78.7896	5,856.45	78.2621	5,856.45	77.3525	5,856.45	76.7997	5,856.45	75.29	5,856.45	74.4247	5,856.45	72.9287	5,856.45	72.3704	5,856.45	71.9553	5,856.45	71.7801	5,856.45	68.9838	5,856.45	69.2562	5,856.45	64.5063	5,856.45	67.8008	5,856.45	62.493	5,856.45	58.0341	5,856.45	60.3878	5,856.45	57.587	5,856.45	47.4502	5,856.45	46.6042	5,856.45	56.9136	5,856.45	57.7503	5,856.45	64.1837	5,856.45	63.8284	5,856.45	64.0667	5,856.45	64.0075	5,856.45	55.3824	5,856.45	51.3503	5,856.45	61.6794
6,062.99	81.0282	6,062.99	81.8273	6,062.99	82.843	6,062.99	82.803	6,062.99	84.0405	6,062.99	79.9589	6,062.99	80.7536	6,062.99	79.9616	6,062.99	79.9622	6,062.99	78.9238	6,062.99	78.2614	6,062.99	75.6845	6,062.99	76.1231	6,062.99	73.8686	6,062.99	73.7327	6,062.99	70.6995	6,062.99	74.8096	6,062.99	68.7267	6,062.99	68.9643	6,062.99	65.8348	6,062.99	66.0899	6,062.99	62.4275	6,062.99	52.5639	6,062.99	58.362	6,062.99	62.1861	6,062.99	52.0242	6,062.99	52.828	6,062.99	56.2471	6,062.99	56.8878	6,062.99	66.142	6,062.99	62.1456	6,062.99	67.5692	6,062.99	62.6747	6,062.99	54.8752	6,062.99	49.2458	6,062.99	60.8039
6,276.86	81.6165	6,276.86	81.5751	6,276.86	82.2142	6,276.86	81.5768	6,276.86	82.7838	6,276.86	78.4787	6,276.86	76.841	6,276.86	81.3791	6,276.86	80.6664	6,276.86	79.3145	6,276.86	78.6419	6,276.86	76.4792	6,276.86	76.3556	6,276.86	74.9094	6,276.86	75.9088	6,276.86	72.1714	6,276.86	73.441	6,276.86	69.4982	6,276.86	70.7718	6,276.86	64.8983	6,276.86	67.0953	6,276.86	63.7888	6,276.86	58.4694	6,276.86	58.9836	6,276.86	59.8047	6,276.86	55.1555	6,276.86	52.5149	6,276.86	57.3335	6,276.86	48.6471	6,276.86	62.2747	6,276.86	60.9671	6,276.86	66.4638	6,276.86	64.5317	6,276.86	55.4072	6,276.86	50.0049	6,276.86	60.5017
6,498.05	82.864	6,498.05	81.9019	6,498.05	82.4135	6,498.05	78.7029	6,498.05	79.6964	6,498.05	77.8893	6,498.05	72.6715	6,498.05	80.1418	6,498.05	80.7231	6,498.05	80.1212	6,498.05	79.7852	6,498.05	76.1459	6,498.05	76.4044	6,498.05	73.3174	6,498.05	75.6464	6,498.05	71.3452	6,498.05	71.1101	6,498.05	68.1031	6,498.05	69.7748	6,498.05	64.6124	6,498.05	68.5033	6,498.05	60.3651	6,498.05	61.7855	6,498.05	56.6938	6,498.05	56.4083	6,498.05	56.8787	6,498.05	54.4104	6,498.05	49.7972	6,498.05	55.5664	6,498.05	63.8929	6,498.05	58.9896	6,498.05	63.7298	6,498.05	64.7489	6,498.05	51.4983	6,498.05	32.9906	6,498.05	59.7949
6,726.56	83.5586	6,726.56	81.2868	6,726.56	81.806	6,726.56	74.2905	6,726.56	71.2298	6,726.56	77.8355	6,726.56	76.9294	6,726.56	80.6909	6,726.56	80.6168	6,726.56	79.3286	6,726.56	79.4759	6,726.56	76.7742	6,726.56	77.1095	6,726.56	72.9674	6,726.56	74.0869	6,726.56	69.567	6,726.56	61.8283	6,726.56	65.9788	6,726.56	64.021	6,726.56	62.7408	6,726.56	66.929	6,726.56	60.1421	6,726.56	65.0326	6,726.56	54.1858	6,726.56	47.5061	6,726.56	51.53	6,726.56	58.0176	6,726.56	51.8372	6,726.56	57.8352	6,726.56	63.0755	6,726.56	60.1242	6,726.56	63.4961	6,726.56	61.0911	6,726.56	43.6248	6,726.56	48.0452	6,726.56	59.7241
6,963.87	85.7336	6,963.87	81.4901	6,963.87	81.499	6,963.87	75.1866	6,963.87	76.0576	6,963.87	78.0065	6,963.87	78.211	6,963.87	80.813	6,963.87	80.9589	6,963.87	79.7232	6,963.87	79.1033	6,963.87	75.7358	6,963.87	77.3754	6,963.87	71.8753	6,963.87	69.2146	6,963.87	69.0659	6,963.87	67.9833	6,963.87	64.5727	6,963.87	63.8364	6,963.87	62.6972	6,963.87	64.9725	6,963.87	59.6428	6,963.87	54.4157	6,963.87	57.3058	6,963.87	52.0258	6,963.87	43.9551	6,963.87	59.5042	6,963.87	33.304	6,963.87	56.6078	6,963.87	59.0066	6,963.87	60.7533	6,963.87	61.4435	6,963.87	55.7226	6,963.87	52.9305	6,963.87	52.2492	6,963.87	57.416
7,209.96	86.8348	7,209.96	82.1993	7,209.96	82.7638	7,209.96	75.9843	7,209.96	78.9893	7,209.96	78.5708	7,209.96	78.463	7,209.96	81.5167	7,209.96	81.731	7,209.96	78.9878	7,209.96	78.0184	7,209.96	74.6112	7,209.96	75.4031	7,209.96	70.9962	7,209.96	66.7635	7,209.96	67.4103	7,209.96	71.4226	7,209.96	64.3997	7,209.96	66.4249	7,209.96	60.9561	7,209.96	62.781	7,209.96	55.0216	7,209.96	53.3822	7,209.96	57.2809	7,209.96	50.8049	7,209.96	53.589	7,209.96	59.5018	7,209.96	45.7079	7,209.96	58.6205	7,209.96	61.1651	7,209.96	60.1624	7,209.96	59.7698	7,209.96	54.0252	7,209.96	49.938	7,209.96	50.6067	7,209.96	53.9845
7,464.84	87.0134	7,464.84	83.7309	7,464.84	83.5312	7,464.84	77.4887	7,464.84	77.2043	7,464.84	78.9541	7,464.84	78.5373	7,464.84	82.258	7,464.84	81.7984	7,464.84	79.08	7,464.84	78.4704	7,464.84	73.8681	7,464.84	73.0676	7,464.84	71.6358	7,464.84	73.6193	7,464.84	68.2573	7,464.84	71.7101	7,464.84	66.9585	7,464.84	64.951	7,464.84	61.4187	7,464.84	62.375	7,464.84	57.8344	7,464.84	60.3889	7,464.84	56.8803	7,464.84	53.5046	7,464.84	54.4046	7,464.84	54.5244	7,464.84	46.5287	7,464.84	55.4208	7,464.84	56.9126	7,464.84	57.933	7,464.84	61.3935	7,464.84	53.6292	7,464.84	53.2748	7,464.84	46.5204	7,464.84	55.1167
7,727.05	87.5479	7,727.05	84.5071	7,727.05	83.2593	7,727.05	78.1587	7,727.05	72.9083	7,727.05	79.4738	7,727.05	79.2537	7,727.05	82.3695	7,727.05	80.8874	7,727.05	79.5763	7,727.05	80.3204	7,727.05	74.0761	7,727.05	71.2082	7,727.05	71.2469	7,727.05	74.0099	7,727.05	68.954	7,727.05	64.8918	7,727.05	63.6924	7,727.05	65.6545	7,727.05	62.9527	7,727.05	66.0335	7,727.05	58.7594	7,727.05	63.1937	7,727.05	56.4101	7,727.05	58.393	7,727.05	55.0145	7,727.05	50.686	7,727.05	41.1073	7,727.05	53.92	7,727.05	56.5286	7,727.05	56.2791	7,727.05	59.0888	7,727.05	54.8912	7,727.05	53.1008	7,727.05	48.868	7,727.05	55.9043
7,999.51	87.8242	7,999.51	84.4398	7,999.51	83.6071	7,999.51	78.6059	7,999.51	76.5512	7,999.51	80.3689	7,999.51	79.7299	7,999.51	82.4564	7,999.51	81.3162	7,999.51	80.4059	7,999.51	80.1129	7,999.51	73.3561	7,999.51	72.7958	7,999.51	71.2474	7,999.51	72.2	7,999.51	69.2921	7,999.51	65.7394	7,999.51	64.7989	7,999.51	63.4984	7,999.51	63.4539	7,999.51	66.0342	7,999.51	56.3309	7,999.51	64.7441	7,999.51	58.6798	7,999.51	62.889	7,999.51	59.0067	7,999.51	59.1344	7,999.51	49.3303	7,999.51	58.5625	7,999.51	56.1129	7,999.51	53.5261	7,999.51	61.32	7,999.51	56.2926	7,999.51	54.7752	7,999.51	51.3826	7,999.51	54.1479
8,282.23	85.9956	8,282.23	82.541	8,282.23	82.9612	8,282.23	79.7809	8,282.23	79.8428	8,282.23	80.8935	8,282.23	77.1182	8,282.23	81.7233	8,282.23	81.7283	8,282.23	79.6721	8,282.23	78.1883	8,282.23	73.3046	8,282.23	74.5277	8,282.23	70.7849	8,282.23	67.2014	8,282.23	69.5813	8,282.23	70.9361	8,282.23	66.8027	8,282.23	66.3365	8,282.23	62.3785	8,282.23	65.2316	8,282.23	61.5978	8,282.23	60.6346	8,282.23	59.814	8,282.23	61.0141	8,282.23	60.3227	8,282.23	60.37	8,282.23	45.8174	8,282.23	58.7846	8,282.23	58.5633	8,282.23	50.4002	8,282.23	59.7133	8,282.23	59.1448	8,282.23	51.8771	8,282.23	44.9092	8,282.23	52.6837
8,573.73	82.8648	8,573.73	82.083	8,573.73	80.612	8,573.73	81.266	8,573.73	80.6011	8,573.73	80.4867	8,573.73	77.5248	8,573.73	80.4987	8,573.73	80.9227	8,573.73	77.8764	8,573.73	76.0434	8,573.73	73.2853	8,573.73	74.1841	8,573.73	70.5014	8,573.73	69.7168	8,573.73	69.4633	8,573.73	70.3791	8,573.73	65.7679	8,573.73	64.0098	8,573.73	58.0007	8,573.73	63.6818	8,573.73	61.9814	8,573.73	62.4767	8,573.73	59.1486	8,573.73	58.5881	8,573.73	55.7235	8,573.73	56.8792	8,573.73	38.2706	8,573.73	53.5309	8,573.73	56.7626	8,573.73	49.1756	8,573.73	58.232	8,573.73	55.3965	8,573.73	47.392	8,573.73	50.0161	8,573.73	53.5776
8,876.95	82.4757	8,876.95	81.8517	8,876.95	80.1247	8,876.95	82.3959	8,876.95	81.0632	8,876.95	80.7079	8,876.95	79.0758	8,876.95	79.7804	8,876.95	79.6058	8,876.95	77.0953	8,876.95	77.6019	8,876.95	73.7892	8,876.95	71.9266	8,876.95	69.6521	8,876.95	72.1204	8,876.95	68.4431	8,876.95	68.6924	8,876.95	64.672	8,876.95	63.7481	8,876.95	59.3022	8,876.95	55.3807	8,876.95	57.2591	8,876.95	59.5444	8,876.95	56.2617	8,876.95	56.3911	8,876.95	45.5502	8,876.95	53.6003	8,876.95	27.0934	8,876.95	54.6304	8,876.95	52.8413	8,876.95	52.7566	8,876.95	53.67	8,876.95	49.4533	8,876.95	55.2499	8,876.95	43.1086	8,876.95	48.6351
9,188.96	83.0617	9,188.96	83.0011	9,188.96	82.2574	9,188.96	82.9585	9,188.96	82.2504	9,188.96	81.0636	9,188.96	81.3977	9,188.96	78.9909	9,188.96	78.6855	9,188.96	77.3977	9,188.96	78.5664	9,188.96	74.4777	9,188.96	71.1417	9,188.96	69.0894	9,188.96	71.5642	9,188.96	66.837	9,188.96	63.944	9,188.96	64.041	9,188.96	62.1822	9,188.96	59.4226	9,188.96	62.114	9,188.96	54.342	9,188.96	61.8498	9,188.96	54.3931	9,188.96	57.953	9,188.96	50.1115	9,188.96	57.1084	9,188.96	45.0765	9,188.96	53.6137	9,188.96	42.0496	9,188.96	43.2426	9,188.96	48.4088	9,188.96	49.016	9,188.96	53.8764	9,188.96	42.7608	9,188.96	46.6838
9,514.16	83.6509	9,514.16	83.0487	9,514.16	82.4039	9,514.16	83.5192	9,514.16	83.8858	9,514.16	81.6512	9,514.16	82.3751	9,514.16	78.6092	9,514.16	78.7662	9,514.16	77.5508	9,514.16	77.7356	9,514.16	74.116	9,514.16	73.3228	9,514.16	69.4265	9,514.16	69.5722	9,514.16	65.3912	9,514.16	64.085	9,514.16	62.3291	9,514.16	61.3607	9,514.16	57.6029	9,514.16	61.3571	9,514.16	53.0574	9,514.16	60.92	9,514.16	53.2608	9,514.16	59.6943	9,514.16	50.7634	9,514.16	56.3528	9,514.16	46.9124	9,514.16	51.7522	9,514.16	38.6568	9,514.16	40.6628	9,514.16	48.5327	9,514.16	50.3401	9,514.16	50.7455	9,514.16	43.3149	9,514.16	47.4561
9,849.61	84.0109	9,849.61	83.2871	9,849.61	82.0389	9,849.61	84.0397	9,849.61	83.9246	9,849.61	82.0421	9,849.61	81.9055	9,849.61	78.4935	9,849.61	77.3334	9,849.61	77.7165	9,849.61	77.5981	9,849.61	73.9759	9,849.61	73.9673	9,849.61	68.2126	9,849.61	67.1499	9,849.61	63.7066	9,849.61	62.5631	9,849.61	60.0588	9,849.61	54.8347	9,849.61	54.6023	9,849.61	56.7982	9,849.61	57.0634	9,849.61	61.8644	9,849.61	50.2167	9,849.61	59.5875	9,849.61	47.5987	9,849.61	59.1601	9,849.61	44.9797	9,849.61	44.8796	9,849.61	42.3878	9,849.61	48.2576	9,849.61	48.3708	9,849.61	49.387	9,849.61	51.671	9,849.61	50.3852	9,849.61	38.3592
10,196.8	83.8516	10,196.8	82.6411	10,196.8	81.9431	10,196.8	84.4072	10,196.8	82.8785	10,196.8	81.8567	10,196.8	80.5793	10,196.8	78.6411	10,196.8	77.9744	10,196.8	77.9903	10,196.8	78.3917	10,196.8	73.5961	10,196.8	73.9256	10,196.8	65.9429	10,196.8	64.925	10,196.8	63.1021	10,196.8	64.1721	10,196.8	58.9511	10,196.8	61.2644	10,196.8	53.1961	10,196.8	60.4436	10,196.8	54.5988	10,196.8	60.6805	10,196.8	52.1652	10,196.8	55.6593	10,196.8	52.4584	10,196.8	60.4726	10,196.8	46.1203	10,196.8	52.4409	10,196.8	50.1155	10,196.8	45.519	10,196.8	47.8423	10,196.8	48.0391	10,196.8	55.0666	10,196.8	50.8487	10,196.8	41.5617
10,555.7	81.0034	10,555.7	81.4893	10,555.7	80.1137	10,555.7	84.8058	10,555.7	84.0202	10,555.7	81.404	10,555.7	78.7234	10,555.7	78.8406	10,555.7	79.7749	10,555.7	78.1981	10,555.7	78.8368	10,555.7	72.619	10,555.7	71.1572	10,555.7	64.7757	10,555.7	66.0908	10,555.7	63.6411	10,555.7	64.0239	10,555.7	59.8469	10,555.7	62.9825	10,555.7	55.8894	10,555.7	59.6576	10,555.7	55.9796	10,555.7	62.8478	10,555.7	51.4209	10,555.7	46.1764	10,555.7	51.7314	10,555.7	59.0986	10,555.7	36.704	10,555.7	53.3816	10,555.7	48.8944	10,555.7	42.641	10,555.7	52.985	10,555.7	53.5225	10,555.7	56.8934	10,555.7	53.8654	10,555.7	43.7935
10,927.7	73.9319	10,927.7	81.0452	10,927.7	80.7512	10,927.7	84.8258	10,927.7	85.0117	10,927.7	80.9182	10,927.7	80.1549	10,927.7	78.4701	10,927.7	79.2326	10,927.7	77.7505	10,927.7	78.3403	10,927.7	71.4951	10,927.7	69.163	10,927.7	65.4953	10,927.7	65.6528	10,927.7	64.6266	10,927.7	63.5683	10,927.7	61.1809	10,927.7	56.2966	10,927.7	55.2742	10,927.7	61.3195	10,927.7	56.4001	10,927.7	63.383	10,927.7	51.3958	10,927.7	48.2209	10,927.7	51.3577	10,927.7	57.3039	10,927.7	41.4816	10,927.7	50.8377	10,927.7	44.3617	10,927.7	38.6613	10,927.7	50.6602	10,927.7	55.4198	10,927.7	55.9233	10,927.7	53.3011	10,927.7	35.2984
11,313	75.6892	11,313	82.3811	11,313	83.0198	11,313	84.2444	11,313	84.6878	11,313	81.1205	11,313	81.7161	11,313	78.2546	11,313	78.7684	11,313	76.142	11,313	76.1733	11,313	70.9139	11,313	70.3918	11,313	66.3578	11,313	64.247	11,313	64.8835	11,313	63.9524	11,313	59.8441	11,313	58.2703	11,313	55.5542	11,313	57.823	11,313	56.0521	11,313	63.6198	11,313	50.1902	11,313	53.2424	11,313	50.1423	11,313	53.7779	11,313	48.2096	11,313	34.9087	11,313	45.0921	11,313	45.7387	11,313	46.7521	11,313	53.8302	11,313	56.2703	11,313	52.2114	11,313	34.3342
11,712.9	79.5664	11,712.9	82.9733	11,712.9	84.0064	11,712.9	83.5884	11,712.9	84.4581	11,712.9	81.7687	11,712.9	82.0327	11,712.9	78.716	11,712.9	78.4561	11,712.9	74.7445	11,712.9	74.2889	11,712.9	70.63	11,712.9	70.8896	11,712.9	65.282	11,712.9	64.6176	11,712.9	63.451	11,712.9	64.1234	11,712.9	54.9155	11,712.9	57.0891	11,712.9	54.0406	11,712.9	57.4436	11,712.9	52.5225	11,712.9	64.3365	11,712.9	44.6808	11,712.9	56.9712	11,712.9	45.5018	11,712.9	52.7286	11,712.9	38.8973	11,712.9	40.1238	11,712.9	46.9899	11,712.9	39.1865	11,712.9	52.5451	11,712.9	50.8449	11,712.9	53.0524	11,712.9	53.2043	11,712.9	38.2345
12,126	82.0339	12,126	85.0023	12,126	84.3318	12,126	84.6171	12,126	83.8998	12,126	82.0599	12,126	80.873	12,126	77.9242	12,126	76.8949	12,126	71.959	12,126	72.2552	12,126	66.7753	12,126	68.2342	12,126	60.7904	12,126	62.4114	12,126	57.0782	12,126	60.279	12,126	44.3925	12,126	40.0939	12,126	45.4772	12,126	52.1015	12,126	39.5742	12,126	62.6945	12,126	34.9491	12,126	56.178	12,126	41.4201	12,126	54.0142	12,126	40.8026	12,126	44.7043	12,126	34.8024	12,126	31.1839	12,126	44.0587	12,126	49.4502	12,126	49.2902	12,126	49.2105	12,126	36.8251
12,553.7	80.7394	12,553.7	84.9466	12,553.7	84.1451	12,553.7	84.659	12,553.7	83.4214	12,553.7	81.3822	12,553.7	80.2643	12,553.7	76.6757	12,553.7	76.999	12,553.7	71.1123	12,553.7	70.7806	12,553.7	67.6404	12,553.7	68.1023	12,553.7	58.9912	12,553.7	59.6502	12,553.7	54.5933	12,553.7	55.0055	12,553.7	49.1283	12,553.7	51.0326	12,553.7	49.1845	12,553.7	52.5018	12,553.7	44.7161	12,553.7	62.7336	12,553.7	38.4834	12,553.7	52.6584	12,553.7	41.0092	12,553.7	57.2671	12,553.7	32.8914	12,553.7	44.3102	12,553.7	41.118	12,553.7	40.6296	12,553.7	48.1363	12,553.7	49.1171	12,553.7	51.322	12,553.7	50.3447	12,553.7	42.7509
12,996.1	76.7113	12,996.1	83.8165	12,996.1	83.5234	12,996.1	83.894	12,996.1	83.4319	12,996.1	81.1821	12,996.1	80.7565	12,996.1	76.4022	12,996.1	77.6758	12,996.1	72.0512	12,996.1	72.1734	12,996.1	68.1694	12,996.1	67.9352	12,996.1	56.264	12,996.1	58.3681	12,996.1	55.4287	12,996.1	55.2762	12,996.1	53.4838	12,996.1	55.1137	12,996.1	50.9079	12,996.1	54.6204	12,996.1	44.2247	12,996.1	64.3208	12,996.1	36.6189	12,996.1	51.0315	12,996.1	35.4168	12,996.1	58.2627	12,996.1	39.5502	12,996.1	44.6102	12,996.1	46.1557	12,996.1	43.6275	12,996.1	51.5795	12,996.1	50.8496	12,996.1	51.2648	12,996.1	53.2736	12,996.1	44.3585
13,454.6	78.2673	13,454.6	82.6872	13,454.6	82.781	13,454.6	83.074	13,454.6	82.7388	13,454.6	81.3146	13,454.6	81.2511	13,454.6	74.4527	13,454.6	76.1103	13,454.6	73.2807	13,454.6	73.2237	13,454.6	65.6101	13,454.6	66.3463	13,454.6	60.2528	13,454.6	60.9538	13,454.6	59.3005	13,454.6	60.7378	13,454.6	55.1336	13,454.6	58.9197	13,454.6	50.6512	13,454.6	53.0858	13,454.6	49.0795	13,454.6	64.623	13,454.6	42.8276	13,454.6	53.7308	13,454.6	39.7522	13,454.6	59.2079	13,454.6	44.8803	13,454.6	40.947	13,454.6	45.7496	13,454.6	38.5019	13,454.6	51.7493	13,454.6	51.2715	13,454.6	49.7651	13,454.6	53.2547	13,454.6	45.6217
13,929.2	79.6254	13,929.2	81.906	13,929.2	81.5697	13,929.2	82.0453	13,929.2	81.5912	13,929.2	81.426	13,929.2	81.5556	13,929.2	73.497	13,929.2	74.6776	13,929.2	73.1762	13,929.2	73.029	13,929.2	66.1691	13,929.2	66.3054	13,929.2	64.3216	13,929.2	66.2492	13,929.2	60.0005	13,929.2	60.3771	13,929.2	53.5316	13,929.2	55.2062	13,929.2	52.832	13,929.2	52.9718	13,929.2	49.991	13,929.2	65.3331	13,929.2	41.0472	13,929.2	53.9306	13,929.2	38.4715	13,929.2	58.4638	13,929.2	47.3266	13,929.2	46.1842	13,929.2	43.6912	13,929.2	38.3514	13,929.2	49.5915	13,929.2	51.4118	13,929.2	46.5077	13,929.2	48.5822	13,929.2	42.5055
14,419.9	76.4627	14,419.9	79.274	14,419.9	78.5016	14,419.9	81.3848	14,419.9	80.4122	14,419.9	81.8513	14,419.9	81.7346	14,419.9	76.1378	14,419.9	76.9007	14,419.9	72.2768	14,419.9	74.2287	14,419.9	68.8775	14,419.9	66.8133	14,419.9	66.5262	14,419.9	67.2906	14,419.9	58.309	14,419.9	56.4912	14,419.9	53.1246	14,419.9	56.1409	14,419.9	52.0022	14,419.9	52.484	14,419.9	48.7014	14,419.9	67.1172	14,419.9	34.7705	14,419.9	60.297	14,419.9	32.4688	14,419.9	57.5394	14,419.9	47.7092	14,419.9	44.7707	14,419.9	36.3776	14,419.9	37.3058	14,419.9	47.9123	14,419.9	45.7794	14,419.9	47.5396	14,419.9	45.266	14,419.9	41.6594
14,928.2	76.2717	14,928.2	72.7107	14,928.2	67.3867	14,928.2	81.1395	14,928.2	80.2325	14,928.2	82.3875	14,928.2	80.7506	14,928.2	78.5893	14,928.2	79.4486	14,928.2	71.8682	14,928.2	73.1491	14,928.2	71.1072	14,928.2	70.7532	14,928.2	66.0819	14,928.2	66.295	14,928.2	57.6813	14,928.2	57.7714	14,928.2	53.6631	14,928.2	54.3302	14,928.2	51.9168	14,928.2	51.9819	14,928.2	48.9333	14,928.2	67.749	14,928.2	34.5105	14,928.2	62.6746	14,928.2	35.546	14,928.2	57.6727	14,928.2	47.5188	14,928.2	43.8798	14,928.2	47.4502	14,928.2	31.4017	14,928.2	47.6313	14,928.2	49.6192	14,928.2	52.1426	14,928.2	49.9792	14,928.2	37.0284
15,455.6	82.3579	15,455.6	67.5577	15,455.6	70.7455	15,455.6	81.5016	15,455.6	80.269	15,455.6	82.2636	15,455.6	81.212	15,455.6	79.8058	15,455.6	79.7393	15,455.6	71.5376	15,455.6	73.5572	15,455.6	72.0696	15,455.6	71.2778	15,455.6	64.0593	15,455.6	66.3559	15,455.6	56.6037	15,455.6	51.3566	15,455.6	56.6152	15,455.6	57.5802	15,455.6	52.7804	15,455.6	50.6489	15,455.6	47.9571	15,455.6	68.7923	15,455.6	32.7275	15,455.6	64.5046	15,455.6	38.8655	15,455.6	55.612	15,455.6	47.4741	15,455.6	37.6116	15,455.6	47.8942	15,455.6	35.3238	15,455.6	43.9736	15,455.6	51.8899	15,455.6	52.4415	15,455.6	47.8398	15,455.6	48.0296
16,000.5	84.0792	16,000.5	79.2481	16,000.5	79.6544	16,000.5	80.6986	16,000.5	80.5678	16,000.5	81.2545	16,000.5	81.3686	16,000.5	78.8678	16,000.5	80.1849	16,000.5	72.5496	16,000.5	76.1403	16,000.5	69.8658	16,000.5	69.9862	16,000.5	65.234	16,000.5	66.5018	16,000.5	58.3001	16,000.5	60.9065	16,000.5	58.4585	16,000.5	59.0591	16,000.5	52.3026	16,000.5	46.6765	16,000.5	50.9139	16,000.5	68.7917	16,000.5	38.0718	16,000.5	65.2415	16,000.5	43.3838	16,000.5	52.8077	16,000.5	49.7793	16,000.5	36.3499	16,000.5	42.7166	16,000.5	36.9529	16,000.5	41.3023	16,000.5	46.7588	16,000.5	53.1379	16,000.5	48.3726	16,000.5	50.7506
16,564.5	84.9664	16,564.5	85.418	16,564.5	85.792	16,564.5	81.3957	16,564.5	82.1561	16,564.5	82.3457	16,564.5	83.0072	16,564.5	77.7038	16,564.5	79.446	16,564.5	74.7639	16,564.5	77.2225	16,564.5	67.5189	16,564.5	72.3948	16,564.5	67.7938	16,564.5	66.7417	16,564.5	59.7407	16,564.5	60.8571	16,564.5	57.2603	16,564.5	57.6896	16,564.5	50.4796	16,564.5	52.9619	16,564.5	47.9238	16,564.5	68.4541	16,564.5	39.1087	16,564.5	65.2492	16,564.5	47.7847	16,564.5	39.5631	16,564.5	49.9738	16,564.5	39.5642	16,564.5	43.4015	16,564.5	41.4455	16,564.5	48.1259	16,564.5	46.7931	16,564.5	45.8089	16,564.5	37.6648	16,564.5	51.6843
17,148.9	86.3512	17,148.9	87.1874	17,148.9	87.9513	17,148.9	83.4793	17,148.9	85.7092	17,148.9	82.902	17,148.9	83.5386	17,148.9	78.6829	17,148.9	80.269	17,148.9	74.8611	17,148.9	76.0076	17,148.9	68.1821	17,148.9	69.0674	17,148.9	65.7827	17,148.9	65.2193	17,148.9	53.7625	17,148.9	55.1829	17,148.9	54.1373	17,148.9	52.355	17,148.9	43.9833	17,148.9	55.3048	17,148.9	45.5818	17,148.9	67.4216	17,148.9	27.7135	17,148.9	64.4495	17,148.9	45.8273	17,148.9	48.1808	17,148.9	48.8905	17,148.9	43.7435	17,148.9	45.1433	17,148.9	32.8941	17,148.9	47.8058	17,148.9	43.4473	17,148.9	49.2506	17,148.9	44.41	17,148.9	51.5388
17,752.4	85.0772	17,752.4	85.9282	17,752.4	86.5856	17,752.4	83.8561	17,752.4	85.1977	17,752.4	81.5304	17,752.4	82.5461	17,752.4	77.1136	17,752.4	78.9862	17,752.4	72.1325	17,752.4	73.3221	17,752.4	64.7119	17,752.4	66.2026	17,752.4	60.3914	17,752.4	59.1766	17,752.4	46.5606	17,752.4	49.5961	17,752.4	47.2803	17,752.4	45.3932	17,752.4	39.0809	17,752.4	54.8032	17,752.4	40.6881	17,752.4	65.6535	17,752.4	31.0103	17,752.4	62.6968	17,752.4	35.5446	17,752.4	49.0003	17,752.4	43.0233	17,752.4	36.4494	17,752.4	37.6345	17,752.4	36.9868	17,752.4	41.9419	17,752.4	40.9456	17,752.4	47.1225	17,752.4	43.3981	17,752.4	47.3765
18,379.4	83.5993	18,379.4	83.3053	18,379.4	83.4516	18,379.4	82.9441	18,379.4	83.6252	18,379.4	79.3092	18,379.4	80.1644	18,379.4	73.419	18,379.4	75.1653	18,379.4	67.9991	18,379.4	68.4705	18,379.4	61.2108	18,379.4	60.5071	18,379.4	54.1671	18,379.4	53.0064	18,379.4	42.3359	18,379.4	45.2353	18,379.4	42.3251	18,379.4	38.6835	18,379.4	24.0409	18,379.4	50.9074	18,379.4	36.2823	18,379.4	61.1344	18,379.4	31.5904	18,379.4	57.8916	18,379.4	28.955	18,379.4	48.5032	18,379.4	38.8982	18,379.4	35.0844	18,379.4	40.9238	18,379.4	29.799	18,379.4	43.1531	18,379.4	38.6345	18,379.4	44.7702	18,379.4	41.2406	18,379.4	44.1208
19,026.9	83.0679	19,026.9	81.5911	19,026.9	81.3743	19,026.9	81.4394	19,026.9	81.2819	19,026.9	77.3619	19,026.9	77.2488	19,026.9	68.6653	19,026.9	70.142	19,026.9	64.8199	19,026.9	63.2692	19,026.9	61.0629	19,026.9	55.471	19,026.9	55.1001	19,026.9	50.2028	19,026.9	48.5692	19,026.9	44.4309	19,026.9	42.8546	19,026.9	40.1556	19,026.9	37.2435	19,026.9	49.6601	19,026.9	41.8147	19,026.9	56.9437	19,026.9	38.5023	19,026.9	53.4125	19,026.9	24.7705	19,026.9	45.7981	19,026.9	41.325	19,026.9	26.6935	19,026.9	44.7715	19,026.9	27.4385	19,026.9	44.7781	19,026.9	42.6494	19,026.9	46.433	19,026.9	42.4938	19,026.9	49.5983
19,697.8	81.5587	19,697.8	80.5199	19,697.8	80.7194	19,697.8	79.5133	19,697.8	79.3526	19,697.8	74.892	19,697.8	74.9123	19,697.8	64.671	19,697.8	66.1104	19,697.8	64.1488	19,697.8	60.1109	19,697.8	62.5351	19,697.8	52.8206	19,697.8	56.2077	19,697.8	50.91	19,697.8	49.5005	19,697.8	44.7097	19,697.8	42.7702	19,697.8	40.0892	19,697.8	38.7425	19,697.8	44.8023	19,697.8	39.9887	19,697.8	52.9387	19,697.8	38.5063	19,697.8	50.3164	19,697.8	29.7328	19,697.8	44.0272	19,697.8	41.6508	19,697.8	26.3898	19,697.8	44.8161	19,697.8	30.6142	19,697.8	42.1175	19,697.8	43.507	19,697.8	46.4364	19,697.8	42.2774	19,697.8	51.3203
19,999.5	81.2454	19,999.5	79.8243	19,999.5	80.6345	19,999.5	78.4017	19,999.5	78.7329	19,999.5	73.5247	19,999.5	73.6403	19,999.5	63.8679	19,999.5	63.7267	19,999.5	64.518	19,999.5	60.7976	19,999.5	63.4063	19,999.5	57.2753	19,999.5	55.4773	19,999.5	52.5169	19,999.5	49.8212	19,999.5	48.923	19,999.5	37.6563	19,999.5	50.0677	19,999.5	30.5199	19,999.5	48.0064	19,999.5	44.8551	19,999.5	52.3708	19,999.5	46.8649	19,999.5	53.6687	19,999.5	45.3287	19,999.5	49.0435	19,999.5	47.0997	19,999.5	39.4359	19,999.5	45.4363	19,999.5	34.6381	19,999.5	44.4937	19,999.5	40.1511	19,999.5	47.2422	19,999.5	40.0636	19,999.5	51.1651
