"SPL Horizontal"
"On-Axis"		"10°"		"-10°"		"20°"		"-20°"		"30°"		"-30°"		"40°"		"-40°"		"50°"		"-50°"		"60°"		"-60°"		"70°"		"-70°"		"80°"		"-80°"		"90°"		"-90°"		"100°"		"-100°"		"110°"		"-110°"		"120°"		"-120°"		"130°"		"-130°"		"140°"		"-140°"		"150°"		"-150°"		"160°"		"-160°"		"170°"		"-170°"		"180°"
"Frequency / Hz"	"Sound Pressure Level / dB (re 20 µPa/V)  [2.83  V @ 1. m]"	"Frequency / Hz"	"Sound Pressure Level / dB (re 20 µPa/V)  [2.83  V @ 1. m]"	"Frequency / Hz"	"Sound Pressure Level / dB (re 20 µPa/V)  [2.83  V @ 1. m]"	"Frequency / Hz"	"Sound Pressure Level / dB (re 20 µPa/V)  [2.83  V @ 1. m]"	"Frequency / Hz"	"Sound Pressure Level / dB (re 20 µPa/V)  [2.83  V @ 1. m]"	"Frequency / Hz"	"Sound Pressure Level / dB (re 20 µPa/V)  [2.83  V @ 1. m]"	"Frequency / Hz"	"Sound Pressure Level / dB (re 20 µPa/V)  [2.83  V @ 1. m]"	"Frequency / Hz"	"Sound Pressure Level / dB (re 20 µPa/V)  [2.83  V @ 1. m]"	"Frequency / Hz"	"Sound Pressure Level / dB (re 20 µPa/V)  [2.83  V @ 1. m]"	"Frequency / Hz"	"Sound Pressure Level / dB (re 20 µPa/V)  [2.83  V @ 1. m]"	"Frequency / Hz"	"Sound Pressure Level / dB (re 20 µPa/V)  [2.83  V @ 1. m]"	"Frequency / Hz"	"Sound Pressure Level / dB (re 20 µPa/V)  [2.83  V @ 1. m]"	"Frequency / Hz"	"Sound Pressure Level / dB (re 20 µPa/V)  [2.83  V @ 1. m]"	"Frequency / Hz"	"Sound Pressure Level / dB (re 20 µPa/V)  [2.83  V @ 1. m]"	"Frequency / Hz"	"Sound Pressure Level / dB (re 20 µPa/V)  [2.83  V @ 1. m]"	"Frequency / Hz"	"Sound Pressure Level / dB (re 20 µPa/V)  [2.83  V @ 1. m]"	"Frequency / Hz"	"Sound Pressure Level / dB (re 20 µPa/V)  [2.83  V @ 1. m]"	"Frequency / Hz"	"Sound Pressure Level / dB (re 20 µPa/V)  [2.83  V @ 1. m]"	"Frequency / Hz"	"Sound Pressure Level / dB (re 20 µPa/V)  [2.83  V @ 1. m]"	"Frequency / Hz"	"Sound Pressure Level / dB (re 20 µPa/V)  [2.83  V @ 1. m]"	"Frequency / Hz"	"Sound Pressure Level / dB (re 20 µPa/V)  [2.83  V @ 1. m]"	"Frequency / Hz"	"Sound Pressure Level / dB (re 20 µPa/V)  [2.83  V @ 1. m]"	"Frequency / Hz"	"Sound Pressure Level / dB (re 20 µPa/V)  [2.83  V @ 1. m]"	"Frequency / Hz"	"Sound Pressure Level / dB (re 20 µPa/V)  [2.83  V @ 1. m]"	"Frequency / Hz"	"Sound Pressure Level / dB (re 20 µPa/V)  [2.83  V @ 1. m]"	"Frequency / Hz"	"Sound Pressure Level / dB (re 20 µPa/V)  [2.83  V @ 1. m]"	"Frequency / Hz"	"Sound Pressure Level / dB (re 20 µPa/V)  [2.83  V @ 1. m]"	"Frequency / Hz"	"Sound Pressure Level / dB (re 20 µPa/V)  [2.83  V @ 1. m]"	"Frequency / Hz"	"Sound Pressure Level / dB (re 20 µPa/V)  [2.83  V @ 1. m]"	"Frequency / Hz"	"Sound Pressure Level / dB (re 20 µPa/V)  [2.83  V @ 1. m]"	"Frequency / Hz"	"Sound Pressure Level / dB (re 20 µPa/V)  [2.83  V @ 1. m]"	"Frequency / Hz"	"Sound Pressure Level / dB (re 20 µPa/V)  [2.83  V @ 1. m]"	"Frequency / Hz"	"Sound Pressure Level / dB (re 20 µPa/V)  [2.83  V @ 1. m]"	"Frequency / Hz"	"Sound Pressure Level / dB (re 20 µPa/V)  [2.83  V @ 1. m]"	"Frequency / Hz"	"Sound Pressure Level / dB (re 20 µPa/V)  [2.83  V @ 1. m]"	"Frequency / Hz"	"Sound Pressure Level / dB (re 20 µPa/V)  [2.83  V @ 1. m]"
20.5078	50.9977	20.5078	50.9715	20.5078	51.0818	20.5078	51.0152	20.5078	51.2106	20.5078	51.1359	20.5078	51.3727	20.5078	51.3328	20.5078	51.5607	20.5078	51.5953	20.5078	51.7715	20.5078	51.9037	20.5078	52.0048	20.5078	52.2321	20.5078	52.261	20.5078	52.5537	20.5078	52.537	20.5078	52.8459	20.5078	52.8243	20.5078	53.0943	20.5078	53.1094	20.5078	53.2951	20.5078	53.3765	20.5078	53.4534	20.5078	53.6112	20.5078	53.5807	20.5078	53.8027	20.5078	53.6891	20.5078	53.9448	20.5078	53.788	20.5078	54.0353	20.5078	53.8806	20.5078	54.0759	20.5078	53.9641	20.5078	54.0718	20.5078	54.0312
21.9727	42.7313	21.9727	42.7593	21.9727	42.5721	21.9727	42.642	21.9727	42.2966	21.9727	42.3645	21.9727	41.9215	21.9727	41.911	21.9727	41.4675	21.9727	41.2653	21.9727	40.9629	21.9727	40.4115	21.9727	40.4468	21.9727	39.3369	21.9727	39.9737	21.9727	38.0437	21.9727	39.61	21.9727	36.5889	21.9727	39.4185	21.9727	35.1966	21.9727	39.4307	21.9727	34.4058	21.9727	39.6304	21.9727	34.7704	21.9727	39.9627	21.9727	36.0722	21.9727	40.3601	21.9727	37.6296	21.9727	40.7593	21.9727	39.0186	21.9727	41.1037	21.9727	40.0939	21.9727	41.3385	21.9727	40.8325	21.9727	41.4081	21.9727	41.2566
23.4375	51.7417	23.4375	51.7096	23.4375	51.7581	23.4375	51.6589	23.4375	51.7637	23.4375	51.5891	23.4375	51.7638	23.4375	51.5032	23.4375	51.7638	23.4375	51.4085	23.4375	51.7674	23.4375	51.3161	23.4375	51.7767	23.4375	51.24	23.4375	51.7912	23.4375	51.1949	23.4375	51.8087	23.4375	51.1923	23.4375	51.8256	23.4375	51.2373	23.4375	51.8386	23.4375	51.3269	23.4375	51.8462	23.4375	51.4502	23.4375	51.8506	23.4375	51.5903	23.4375	51.8571	23.4375	51.7282	23.4375	51.8717	23.4375	51.8462	23.4375	51.8979	23.4375	51.9312	23.4375	51.9327	23.4375	51.9772	23.4375	51.9666	23.4375	51.9859
24.9023	53.8055	24.9023	53.7827	24.9023	53.8224	24.9023	53.7532	24.9023	53.8349	24.9023	53.7183	24.9023	53.8455	24.9023	53.6809	24.9023	53.8569	24.9023	53.6458	24.9023	53.8713	24.9023	53.62	24.9023	53.8903	24.9023	53.611	24.9023	53.9144	24.9023	53.6254	24.9023	53.9427	24.9023	53.6668	24.9023	53.9736	24.9023	53.7346	24.9023	54.0047	24.9023	53.8232	24.9023	54.0345	24.9023	53.9235	24.9023	54.063	24.9023	54.0246	24.9023	54.0919	24.9023	54.1155	24.9023	54.1235	24.9023	54.1877	24.9023	54.159	24.9023	54.2352	24.9023	54.1963	24.9023	54.2561	24.9023	54.2301	24.9023	54.2526
26.3672	55.2146	26.3672	55.1862	26.3672	55.2365	26.3672	55.1519	26.3672	55.252	26.3672	55.1137	26.3672	55.2622	26.3672	55.0746	26.3672	55.2683	26.3672	55.0389	26.3672	55.2717	26.3672	55.0119	26.3672	55.2736	26.3672	54.9989	26.3672	55.275	26.3672	55.004	26.3672	55.2766	26.3672	55.0294	26.3672	55.2786	26.3672	55.0738	26.3672	55.2811	26.3672	55.1331	26.3672	55.2845	26.3672	55.2007	26.3672	55.2898	26.3672	55.2685	26.3672	55.2989	26.3672	55.3288	26.3672	55.3137	26.3672	55.3751	26.3672	55.3347	26.3672	55.4034	26.3672	55.3602	26.3672	55.4128	26.3672	55.3857	26.3672	55.4053
27.832	56.3854	27.832	56.3323	27.832	56.4388	27.832	56.2807	27.832	56.4919	27.832	56.2324	27.832	56.5442	27.832	56.1901	27.832	56.5956	27.832	56.157	27.832	56.6455	27.832	56.1368	27.832	56.6932	27.832	56.1328	27.832	56.7379	27.832	56.1473	27.832	56.7782	27.832	56.1812	27.832	56.8129	27.832	56.2337	27.832	56.8404	27.832	56.3019	27.832	56.8599	27.832	56.3817	27.832	56.8713	27.832	56.4675	27.832	56.8755	27.832	56.5535	27.832	56.8739	27.832	56.634	27.832	56.8672	27.832	56.7043	27.832	56.8549	27.832	56.7615	27.832	56.835	27.832	56.8047
29.2969	58.3251	29.2969	58.2924	29.2969	58.3469	29.2969	58.2497	29.2969	58.3581	29.2969	58.1986	29.2969	58.3593	29.2969	58.1421	29.2969	58.352	29.2969	58.0839	29.2969	58.3378	29.2969	58.0284	29.2969	58.3185	29.2969	57.9799	29.2969	58.2956	29.2969	57.942	29.2969	58.2701	29.2969	57.9167	29.2969	58.2425	29.2969	57.9042	29.2969	58.2127	29.2969	57.9029	29.2969	58.1808	29.2969	57.9104	29.2969	58.1474	29.2969	57.9235	29.2969	58.114	29.2969	57.9393	29.2969	58.0826	29.2969	57.9557	29.2969	58.0551	29.2969	57.9712	29.2969	58.0325	29.2969	57.9855	29.2969	58.0144	29.2969	57.9994
30.7617	60.2946	30.7617	60.2726	30.7617	60.3063	30.7617	60.2407	30.7617	60.3078	30.7617	60.1998	30.7617	60.2993	30.7617	60.1511	30.7617	60.2816	30.7617	60.0965	30.7617	60.2556	30.7617	60.0383	30.7617	60.2224	30.7617	59.979	30.7617	60.1831	30.7617	59.9213	30.7617	60.139	30.7617	59.8674	30.7617	60.0908	30.7617	59.819	30.7617	60.0395	30.7617	59.7774	30.7617	59.9863	30.7617	59.7435	30.7617	59.9327	30.7617	59.718	30.7617	59.8808	30.7617	59.7012	30.7617	59.8331	30.7617	59.6928	30.7617	59.7915	30.7617	59.6921	30.7617	59.7573	30.7617	59.6984	30.7617	59.7307	30.7617	59.7113
32.2266	61.1842	32.2266	61.1592	32.2266	61.2012	32.2266	61.1268	32.2266	61.21	32.2266	61.0883	32.2266	61.2104	32.2266	61.045	32.2266	61.2029	32.2266	60.999	32.2266	61.1883	32.2266	60.9528	32.2266	61.1675	32.2266	60.9091	32.2266	61.1417	32.2266	60.8704	32.2266	61.1123	32.2266	60.8392	32.2266	61.0805	32.2266	60.8168	32.2266	61.0478	32.2266	60.8038	32.2266	61.0158	32.2266	60.7999	32.2266	60.9861	32.2266	60.8041	32.2266	60.96	32.2266	60.8147	32.2266	60.9382	32.2266	60.8295	32.2266	60.9204	32.2266	60.8462	32.2266	60.9056	32.2266	60.8629	32.2266	60.8921	32.2266	60.8782
33.6914	62.2482	33.6914	62.2262	33.6914	62.2648	33.6914	62.1993	33.6914	62.2756	33.6914	62.1685	33.6914	62.2806	33.6914	62.1348	33.6914	62.2799	33.6914	62.0997	33.6914	62.2741	33.6914	62.0648	33.6914	62.2639	33.6914	62.0317	33.6914	62.25	33.6914	62.0016	33.6914	62.2332	33.6914	61.9757	33.6914	62.2141	33.6914	61.955	33.6914	62.1933	33.6914	61.9402	33.6914	62.1713	33.6914	61.9321	33.6914	62.1485	33.6914	61.9312	33.6914	62.1255	33.6914	61.9375	33.6914	62.1027	33.6914	61.9502	33.6914	62.0801	33.6914	61.9681	33.6914	62.0575	33.6914	61.9892	33.6914	62.0348	33.6914	62.0118
35.1562	63.3582	35.1562	63.3343	35.1562	63.3756	35.1562	63.3043	35.1562	63.3867	35.1562	63.2689	35.1562	63.3917	35.1562	63.2293	35.1562	63.3911	35.1562	63.1869	35.1562	63.3856	35.1562	63.1437	35.1562	63.3759	35.1562	63.1017	35.1562	63.3628	35.1562	63.063	35.1562	63.347	35.1562	63.0292	35.1562	63.3288	35.1562	63.0018	35.1562	63.3084	35.1562	62.9819	35.1562	63.2859	35.1562	62.9704	35.1562	63.2611	35.1562	62.9679	35.1562	63.234	35.1562	62.9745	35.1562	63.2046	35.1562	62.9896	35.1562	63.1732	35.1562	63.0122	35.1562	63.1401	35.1562	63.0405	35.1562	63.1061	35.1562	63.0724
36.6211	64.8385	36.6211	64.8385	36.6211	64.8281	36.6211	64.828	36.6211	64.8078	36.6211	64.8075	36.6211	64.7784	36.6211	64.7774	36.6211	64.7409	36.6211	64.7389	36.6211	64.6968	36.6211	64.6934	36.6211	64.6477	36.6211	64.6422	36.6211	64.5953	36.6211	64.5869	36.6211	64.5415	36.6211	64.529	36.6211	64.4881	36.6211	64.4701	36.6211	64.4367	36.6211	64.412	36.6211	64.3886	36.6211	64.357	36.6211	64.3448	36.6211	64.3075	36.6211	64.3059	36.6211	64.2657	36.6211	64.2722	36.6211	64.2333	36.6211	64.244	36.6211	64.2114	36.6211	64.2217	36.6211	64.2	36.6211	64.2062	36.6211	64.1986
38.0859	65.7918	38.0859	65.777	38.0859	65.7943	38.0859	65.7505	38.0859	65.7845	38.0859	65.7128	38.0859	65.7626	38.0859	65.6652	38.0859	65.7292	38.0859	65.6092	38.0859	65.685	38.0859	65.5464	38.0859	65.6313	38.0859	65.4788	38.0859	65.5698	38.0859	65.408	38.0859	65.5026	38.0859	65.3359	38.0859	65.4322	38.0859	65.2641	38.0859	65.3613	38.0859	65.1947	38.0859	65.2923	38.0859	65.13	38.0859	65.227	38.0859	65.0728	38.0859	65.1668	38.0859	65.0259	38.0859	65.1124	38.0859	64.9915	38.0859	65.0647	38.0859	64.9711	38.0859	65.0246	38.0859	64.9652	38.0859	64.9935	38.0859	64.9731
39.5508	66.5956	39.5508	66.5905	39.5508	66.5871	39.5508	66.5717	39.5508	66.5651	39.5508	66.5398	39.5508	66.5301	39.5508	66.4953	39.5508	66.483	39.5508	66.4394	39.5508	66.425	39.5508	66.3735	39.5508	66.358	39.5508	66.2992	39.5508	66.2842	39.5508	66.2186	39.5508	66.2064	39.5508	66.1343	39.5508	66.1275	39.5508	66.0487	39.5508	66.0505	39.5508	65.9649	39.5508	65.9778	39.5508	65.8862	39.5508	65.9113	39.5508	65.8162	39.5508	65.8517	39.5508	65.758	39.5508	65.7995	39.5508	65.7142	39.5508	65.755	39.5508	65.6863	39.5508	65.7188	39.5508	65.6741	39.5508	65.6922	39.5508	65.6766
41.0156	66.8822	41.0156	66.8918	41.0156	66.8542	41.0156	66.8827	41.0156	66.8083	41.0156	66.8551	41.0156	66.7449	41.0156	66.8093	41.0156	66.6641	41.0156	66.7463	41.0156	66.5665	41.0156	66.6671	41.0156	66.4525	41.0156	66.5733	41.0156	66.3237	41.0156	66.4665	41.0156	66.183	41.0156	66.3485	41.0156	66.0351	41.0156	66.2215	41.0156	65.8862	41.0156	66.0882	41.0156	65.7431	41.0156	65.9522	41.0156	65.613	41.0156	65.8178	41.0156	65.5018	41.0156	65.69	41.0156	65.4142	41.0156	65.5739	41.0156	65.3533	41.0156	65.4748	41.0156	65.3211	41.0156	65.397	41.0156	65.3181	41.0156	65.3439
42.4805	67.9928	42.4805	67.9836	42.4805	67.9902	42.4805	67.9633	42.4805	67.9755	42.4805	67.9324	42.4805	67.9485	42.4805	67.8919	42.4805	67.9094	42.4805	67.8427	42.4805	67.8584	42.4805	67.7859	42.4805	67.7962	42.4805	67.7226	42.4805	67.7239	42.4805	67.6539	42.4805	67.6428	42.4805	67.581	42.4805	67.5548	42.4805	67.505	42.4805	67.4623	42.4805	67.4272	42.4805	67.3685	42.4805	67.3493	42.4805	67.2771	42.4805	67.2731	42.4805	67.1928	42.4805	67.2008	42.4805	67.1201	42.4805	67.1354	42.4805	67.0635	42.4805	67.0803	42.4805	67.0261	42.4805	67.0388	42.4805	67.0097	42.4805	67.0145
43.9453	68.3364	43.9453	68.3281	43.9453	68.3389	43.9453	68.3144	43.9453	68.3356	43.9453	68.2956	43.9453	68.3265	43.9453	68.2722	43.9453	68.3117	43.9453	68.2448	43.9453	68.2913	43.9453	68.2142	43.9453	68.2657	43.9453	68.1811	43.9453	68.2352	43.9453	68.1464	43.9453	68.2005	43.9453	68.1109	43.9453	68.1625	43.9453	68.0756	43.9453	68.1223	43.9453	68.0414	43.9453	68.0812	43.9453	68.0092	43.9453	68.0409	43.9453	67.9798	43.9453	68.0032	43.9453	67.9541	43.9453	67.9699	43.9453	67.9329	43.9453	67.9425	43.9453	67.917	43.9453	67.9221	43.9453	67.9073	43.9453	67.9094	43.9453	67.9046
45.4102	69.2408	45.4102	69.2421	45.4102	69.2299	45.4102	69.2341	45.4102	69.2095	45.4102	69.2171	45.4102	69.1799	45.4102	69.1919	45.4102	69.1416	45.4102	69.1593	45.4102	69.0956	45.4102	69.1203	45.4102	69.0429	45.4102	69.0759	45.4102	68.9851	45.4102	69.0273	45.4102	68.9242	45.4102	68.9755	45.4102	68.8622	45.4102	68.9217	45.4102	68.8015	45.4102	68.8673	45.4102	68.7444	45.4102	68.8137	45.4102	68.6933	45.4102	68.7622	45.4102	68.6499	45.4102	68.7144	45.4102	68.616	45.4102	68.6716	45.4102	68.5924	45.4102	68.6354	45.4102	68.5799	45.4102	68.607	45.4102	68.5784	45.4102	68.5877
46.875	70.152	46.875	70.1478	46.875	70.1466	46.875	70.134	46.875	70.1315	46.875	70.111	46.875	70.1073	46.875	70.0795	46.875	70.0748	46.875	70.0406	46.875	70.0348	46.875	69.9954	46.875	69.9885	46.875	69.9451	46.875	69.9373	46.875	69.8914	46.875	69.8826	46.875	69.8357	46.875	69.826	46.875	69.7796	46.875	69.7691	46.875	69.7249	46.875	69.7136	46.875	69.673	46.875	69.6612	46.875	69.6257	46.875	69.6137	46.875	69.5842	46.875	69.5728	46.875	69.5499	46.875	69.5401	46.875	69.5239	46.875	69.5166	46.875	69.5071	46.875	69.5031	46.875	69.5
48.3398	70.7103	48.3398	70.7098	48.3398	70.6984	48.3398	70.6972	48.3398	70.6744	48.3398	70.6726	48.3398	70.6388	48.3398	70.6368	48.3398	70.5925	48.3398	70.5907	48.3398	70.5365	48.3398	70.5355	48.3398	70.4723	48.3398	70.4725	48.3398	70.4015	48.3398	70.4034	48.3398	70.3257	48.3398	70.33	48.3398	70.2472	48.3398	70.2541	48.3398	70.1679	48.3398	70.1777	48.3398	70.0902	48.3398	70.1028	48.3398	70.0168	48.3398	70.0312	48.3398	69.9501	48.3398	69.9653	48.3398	69.893	48.3398	69.9073	48.3398	69.8482	48.3398	69.8599	48.3398	69.8178	48.3398	69.8255	48.3398	69.8036	48.3398	69.8063
51.2695	71.6189	51.2695	71.6075	51.2695	71.6208	51.2695	71.5873	51.2695	71.6129	51.2695	71.559	51.2695	71.5951	51.2695	71.5235	51.2695	71.5676	51.2695	71.482	51.2695	71.5308	51.2695	71.4354	51.2695	71.4855	51.2695	71.3848	51.2695	71.4325	51.2695	71.3313	51.2695	71.3733	51.2695	71.2759	51.2695	71.3095	51.2695	71.2197	51.2695	71.2433	51.2695	71.164	51.2695	71.1771	51.2695	71.1101	51.2695	71.1137	51.2695	71.0598	51.2695	71.0558	51.2695	71.0146	51.2695	71.0059	51.2695	70.9763	51.2695	70.9661	51.2695	70.9465	51.2695	70.9379	51.2695	70.9268	51.2695	70.9218	51.2695	70.9183
52.7344	71.8691	52.7344	71.8695	52.7344	71.8681	52.7344	71.8696	52.7344	71.8666	52.7344	71.8698	52.7344	71.8645	52.7344	71.8706	52.7344	71.8624	52.7344	71.8725	52.7344	71.8605	52.7344	71.8756	52.7344	71.8596	52.7344	71.88	52.7344	71.8601	52.7344	71.8856	52.7344	71.8625	52.7344	71.8921	52.7344	71.867	52.7344	71.8993	52.7344	71.8734	52.7344	71.9067	52.7344	71.8814	52.7344	71.914	52.7344	71.8902	52.7344	71.9205	52.7344	71.8993	52.7344	71.9259	52.7344	71.908	52.7344	71.9298	52.7344	71.9158	52.7344	71.932	52.7344	71.9224	52.7344	71.9323	52.7344	71.9274	52.7344	71.9308
54.1992	72.599	54.1992	72.6083	54.1992	72.582	54.1992	72.6095	54.1992	72.5584	54.1992	72.6027	54.1992	72.5296	54.1992	72.5884	54.1992	72.4975	54.1992	72.5678	54.1992	72.4643	54.1992	72.5423	54.1992	72.4323	54.1992	72.5139	54.1992	72.4037	54.1992	72.4847	54.1992	72.3806	54.1992	72.4571	54.1992	72.3645	54.1992	72.4331	54.1992	72.3559	54.1992	72.4143	54.1992	72.3546	54.1992	72.4017	54.1992	72.3595	54.1992	72.3952	54.1992	72.3688	54.1992	72.394	54.1992	72.3801	54.1992	72.3965	54.1992	72.3912	54.1992	72.4009	54.1992	72.4	54.1992	72.4049	54.1992	72.4054	54.1992	72.4069
55.6641	73.458	55.6641	73.48	55.6641	73.4139	55.6641	73.4793	55.6641	73.3493	55.6641	73.456	55.6641	73.2662	55.6641	73.4109	55.6641	73.1673	55.6641	73.3459	55.6641	73.0555	55.6641	73.264	55.6641	72.9345	55.6641	73.1687	55.6641	72.8084	55.6641	73.0644	55.6641	72.6816	55.6641	72.9553	55.6641	72.5585	55.6641	72.8453	55.6641	72.4438	55.6641	72.7375	55.6641	72.3416	55.6641	72.6341	55.6641	72.2555	55.6641	72.5364	55.6641	72.1886	55.6641	72.4452	55.6641	72.1427	55.6641	72.3614	55.6641	72.1186	55.6641	72.2863	55.6641	72.1162	55.6641	72.2217	55.6641	72.1341	55.6641	72.1701
58.5938	73.9841	58.5938	73.9489	58.5938	74.0063	58.5938	73.9017	58.5938	74.0149	58.5938	73.844	58.5938	74.01	58.5938	73.7779	58.5938	73.992	58.5938	73.7055	58.5938	73.9619	58.5938	73.6298	58.5938	73.921	58.5938	73.5534	58.5938	73.8711	58.5938	73.4792	58.5938	73.8144	58.5938	73.4101	58.5938	73.7532	58.5938	73.3486	58.5938	73.6897	58.5938	73.2969	58.5938	73.6261	58.5938	73.2567	58.5938	73.564	58.5938	73.2291	58.5938	73.5049	58.5938	73.2146	58.5938	73.4494	58.5938	73.2129	58.5938	73.398	58.5938	73.2232	58.5938	73.3512	58.5938	73.2438	58.5938	73.3093	58.5938	73.273
60.0586	74.2993	60.0586	74.2939	60.0586	74.2914	60.0586	74.2753	60.0586	74.2705	60.0586	74.2444	60.0586	74.2374	60.0586	74.2023	60.0586	74.1936	60.0586	74.1505	60.0586	74.1411	60.0586	74.0912	60.0586	74.0824	60.0586	74.0265	60.0586	74.0203	60.0586	73.9591	60.0586	73.9577	60.0586	73.8918	60.0586	73.8976	60.0586	73.8275	60.0586	73.8424	60.0586	73.769	60.0586	73.7941	60.0586	73.7188	60.0586	73.7534	60.0586	73.6788	60.0586	73.7204	60.0586	73.6498	60.0586	73.694	60.0586	73.6319	60.0586	73.6728	60.0586	73.6238	60.0586	73.6554	60.0586	73.6239	60.0586	73.6411	60.0586	73.6303
62.9883	75.1942	62.9883	75.1974	62.9883	75.1694	62.9883	75.1789	62.9883	75.1233	62.9883	75.1395	62.9883	75.0573	62.9883	75.0804	62.9883	74.9732	62.9883	75.0038	62.9883	74.8733	62.9883	74.9121	62.9883	74.7607	62.9883	74.8087	62.9883	74.6392	62.9883	74.6972	62.9883	74.5127	62.9883	74.5816	62.9883	74.386	62.9883	74.4661	62.9883	74.2635	62.9883	74.3545	62.9883	74.15	62.9883	74.25	62.9883	74.0497	62.9883	74.1548	62.9883	73.9661	62.9883	74.0703	62.9883	73.9021	62.9883	73.9972	62.9883	73.8592	62.9883	73.9361	62.9883	73.8376	62.9883	73.8879	62.9883	73.8365	62.9883	73.854
64.4531	75.3193	64.4531	75.3196	64.4531	75.2998	64.4531	75.3008	64.4531	75.2615	64.4531	75.2634	64.4531	75.2056	64.4531	75.2085	64.4531	75.1336	64.4531	75.138	64.4531	75.0475	64.4531	75.0539	64.4531	74.9498	64.4531	74.9591	64.4531	74.8434	64.4531	74.8567	64.4531	74.7316	64.4531	74.75	64.4531	74.6181	64.4531	74.6426	64.4531	74.5068	64.4531	74.538	64.4531	74.4015	64.4531	74.4392	64.4531	74.3062	64.4531	74.3489	64.4531	74.224	64.4531	74.269	64.4531	74.1579	64.4531	74.201	64.4531	74.1098	64.4531	74.1458	64.4531	74.0808	64.4531	74.1049	64.4531	74.0709	64.4531	74.0794
67.3828	75.5861	67.3828	75.5794	67.3828	75.5771	67.3828	75.5572	67.3828	75.5528	67.3828	75.5202	67.3828	75.514	67.3828	75.4695	67.3828	75.4619	67.3828	75.4069	67.3828	75.3981	67.3828	75.3343	67.3828	75.3247	67.3828	75.2542	67.3828	75.2439	67.3828	75.1695	67.3828	75.1583	67.3828	75.0829	67.3828	75.0705	67.3828	74.9974	67.3828	74.9833	67.3828	74.9155	67.3828	74.8995	67.3828	74.8397	67.3828	74.8216	67.3828	74.7719	67.3828	74.7522	67.3828	74.7133	67.3828	74.6934	67.3828	74.6651	67.3828	74.647	67.3828	74.6284	67.3828	74.6144	67.3828	74.604	67.3828	74.5964	67.3828	74.593
68.8477	75.7998	68.8477	75.791	68.8477	75.7934	68.8477	75.7674	68.8477	75.7723	68.8477	75.7295	68.8477	75.7372	68.8477	75.6787	68.8477	75.6894	68.8477	75.6168	68.8477	75.6305	68.8477	75.546	68.8477	75.5627	68.8477	75.469	68.8477	75.4882	68.8477	75.3885	68.8477	75.4095	68.8477	75.3076	68.8477	75.3294	68.8477	75.229	68.8477	75.2505	68.8477	75.1555	68.8477	75.1754	68.8477	75.0892	68.8477	75.1063	68.8477	75.0315	68.8477	75.0451	68.8477	74.9837	68.8477	74.9933	68.8477	74.9461	68.8477	74.9522	68.8477	74.9191	68.8477	74.9225	68.8477	74.903	68.8477	74.9044	68.8477	74.898
71.7773	76.3238	71.7773	76.3146	71.7773	76.3178	71.7773	76.2903	71.7773	76.297	71.7773	76.2517	71.7773	76.2621	71.7773	76.2001	71.7773	76.2144	71.7773	76.137	71.7773	76.1556	71.7773	76.0649	71.7773	76.088	71.7773	75.9862	71.7773	76.0137	71.7773	75.9038	71.7773	75.9355	71.7773	75.8208	71.7773	75.8561	71.7773	75.7402	71.7773	75.778	71.7773	75.6647	71.7773	75.7037	71.7773	75.5968	71.7773	75.6352	71.7773	75.5383	71.7773	75.5741	71.7773	75.4906	71.7773	75.5218	71.7773	75.4544	71.7773	75.4792	71.7773	75.4298	71.7773	75.447	71.7773	75.4169	71.7773	75.4257	71.7773	75.4156
74.707	76.5616	74.707	76.5456	74.707	76.5641	74.707	76.5164	74.707	76.5533	74.707	76.475	74.707	76.5301	74.707	76.4229	74.707	76.4959	74.707	76.3622	74.707	76.4524	74.707	76.2956	74.707	76.4016	74.707	76.2259	74.707	76.3459	74.707	76.1562	74.707	76.2875	74.707	76.0896	74.707	76.2285	74.707	76.0285	74.707	76.1708	74.707	75.9752	74.707	76.116	74.707	75.931	74.707	76.065	74.707	75.8967	74.707	76.0185	74.707	75.8726	74.707	75.9771	74.707	75.8582	74.707	75.9408	74.707	75.853	74.707	75.9102	74.707	75.8564	74.707	75.8856	74.707	75.8674
77.6367	76.8155	77.6367	76.8043	77.6367	76.812	77.6367	76.7789	77.6367	76.7945	77.6367	76.7403	77.6367	76.7641	77.6367	76.6903	77.6367	76.7228	77.6367	76.6317	77.6367	76.673	77.6367	76.5677	77.6367	76.6176	77.6367	76.5017	77.6367	76.5594	77.6367	76.4375	77.6367	76.5017	77.6367	76.3785	77.6367	76.4471	77.6367	76.3273	77.6367	76.3977	77.6367	76.2859	77.6367	76.3553	77.6367	76.2548	77.6367	76.3203	77.6367	76.2338	77.6367	76.2926	77.6367	76.2215	77.6367	76.2714	77.6367	76.2164	77.6367	76.2553	77.6367	76.2164	77.6367	76.243	77.6367	76.2199	77.6367	76.2334	77.6367	76.2257
79.1016	77.0487	79.1016	77.0397	79.1016	77.0424	79.1016	77.0156	79.1016	77.0215	79.1016	76.9775	79.1016	76.9872	79.1016	76.9271	79.1016	76.9417	79.1016	76.8672	79.1016	76.8874	79.1016	76.8008	79.1016	76.8275	79.1016	76.7317	79.1016	76.7651	79.1016	76.6636	79.1016	76.7034	79.1016	76.6003	79.1016	76.6455	79.1016	76.5448	79.1016	76.5937	79.1016	76.4992	79.1016	76.5495	79.1016	76.4646	79.1016	76.5138	79.1016	76.4409	79.1016	76.4863	79.1016	76.4268	79.1016	76.4659	79.1016	76.4204	79.1016	76.4513	79.1016	76.4195	79.1016	76.4408	79.1016	76.4221	79.1016	76.4329	79.1016	76.4267
82.0312	77.3963	82.0312	77.3884	82.0312	77.3865	82.0312	77.3631	82.0312	77.3597	82.0312	77.3214	82.0312	77.3173	82.0312	77.265	82.0312	77.2614	82.0312	77.1966	82.0312	77.1949	82.0312	77.1193	82.0312	77.1211	82.0312	77.0369	82.0312	77.0436	82.0312	76.9534	82.0312	76.9662	82.0312	76.8729	82.0312	76.8922	82.0312	76.7989	82.0312	76.8245	82.0312	76.7346	82.0312	76.7652	82.0312	76.6818	82.0312	76.7153	82.0312	76.6413	82.0312	76.675	82.0312	76.6127	82.0312	76.6436	82.0312	76.5946	82.0312	76.6201	82.0312	76.5851	82.0312	76.6031	82.0312	76.5822	82.0312	76.5915	82.0312	76.5846
84.9609	77.5564	84.9609	77.5533	84.9609	77.5444	84.9609	77.5351	84.9609	77.5178	84.9609	77.5029	84.9609	77.4781	84.9609	77.4583	84.9609	77.4275	84.9609	77.404	84.9609	77.3686	84.9609	77.3429	84.9609	77.3042	84.9609	77.2783	84.9609	77.2375	84.9609	77.2136	84.9609	77.1714	84.9609	77.1516	84.9609	77.1086	84.9609	77.0946	84.9609	77.0512	84.9609	77.0441	84.9609	77.0008	84.9609	77.0008	84.9609	76.9586	84.9609	76.9646	84.9609	76.9251	84.9609	76.9352	84.9609	76.9002	84.9609	76.9119	84.9609	76.8835	84.9609	76.8943	84.9609	76.8741	84.9609	76.8816	84.9609	76.8712	84.9609	76.8739
87.8906	77.7678	87.8906	77.7659	87.8906	77.7504	87.8906	77.7449	87.8906	77.7146	87.8906	77.7057	87.8906	77.6627	87.8906	77.6509	87.8906	77.5976	87.8906	77.5838	87.8906	77.5231	87.8906	77.5086	87.8906	77.4439	87.8906	77.4304	87.8906	77.3645	87.8906	77.3542	87.8906	77.2899	87.8906	77.2847	87.8906	77.2242	87.8906	77.2256	87.8906	77.1705	87.8906	77.179	87.8906	77.1307	87.8906	77.1454	87.8906	77.1048	87.8906	77.1238	87.8906	77.0913	87.8906	77.1119	87.8906	77.0876	87.8906	77.107	87.8906	77.0902	87.8906	77.1058	87.8906	77.0955	87.8906	77.1056	87.8906	77.1008	87.8906	77.1043
90.8203	77.918	90.8203	77.9153	90.8203	77.9021	90.8203	77.8944	90.8203	77.8683	90.8203	77.8565	90.8203	77.8183	90.8203	77.8038	90.8203	77.7545	90.8203	77.7394	90.8203	77.6804	90.8203	77.6669	90.8203	77.5997	90.8203	77.5906	90.8203	77.5169	90.8203	77.5148	90.8203	77.4363	90.8203	77.4436	90.8203	77.3619	90.8203	77.3804	90.8203	77.2972	90.8203	77.3276	90.8203	77.2446	90.8203	77.286	90.8203	77.2055	90.8203	77.2549	90.8203	77.1799	90.8203	77.2328	90.8203	77.1667	90.8203	77.2171	90.8203	77.1635	90.8203	77.2051	90.8203	77.1673	90.8203	77.1947	90.8203	77.1752	90.8203	77.1848
95.2148	78.1478	95.2148	78.1422	95.2148	78.1319	95.2148	78.116	95.2148	78.0949	95.2148	78.0714	95.2148	78.0386	95.2148	78.0114	95.2148	77.966	95.2148	77.9399	95.2148	77.8812	95.2148	77.8612	95.2148	77.7893	95.2148	77.7799	95.2148	77.6958	95.2148	77.7004	95.2148	77.6064	95.2148	77.6265	95.2148	77.5257	95.2148	77.5613	95.2148	77.4576	95.2148	77.5066	95.2148	77.4044	95.2148	77.463	95.2148	77.3665	95.2148	77.4298	95.2148	77.3431	95.2148	77.4053	95.2148	77.332	95.2148	77.3873	95.2148	77.3301	95.2148	77.3735	95.2148	77.3345	95.2148	77.362	95.2148	77.3423	95.2148	77.3517
98.1445	78.555	98.1445	78.5482	98.1445	78.5342	98.1445	78.5147	98.1445	78.4865	98.1445	78.4567	98.1445	78.4137	98.1445	78.3778	98.1445	78.3194	98.1445	78.2828	98.1445	78.2083	98.1445	78.1776	98.1445	78.0865	98.1445	78.0687	98.1445	77.9613	98.1445	77.9629	98.1445	77.84	98.1445	77.8659	98.1445	77.7297	98.1445	77.7824	98.1445	77.6364	98.1445	77.7148	98.1445	77.5638	98.1445	77.6631	98.1445	77.5134	98.1445	77.6254	98.1445	77.484	98.1445	77.5982	98.1445	77.4728	98.1445	77.5774	98.1445	77.4755	98.1445	77.5596	98.1445	77.4876	98.1445	77.5419	98.1445	77.5047	98.1445	77.5235
101.074	78.7709	101.074	78.7574	101.074	78.7574	101.074	78.718	101.074	78.7173	101.074	78.6544	101.074	78.6522	101.074	78.5698	101.074	78.5647	101.074	78.4685	101.074	78.4591	101.074	78.3557	101.074	78.341	101.074	78.2375	101.074	78.2169	101.074	78.1207	101.074	78.0946	101.074	78.0119	101.074	77.9812	101.074	77.9168	101.074	77.8834	101.074	77.8397	101.074	77.8055	101.074	77.7826	101.074	77.7494	101.074	77.7451	101.074	77.7142	101.074	77.724	101.074	77.6968	101.074	77.7147	101.074	77.6925	101.074	77.7118	101.074	77.6959	101.074	77.7104	101.074	77.7021	101.074	77.7075
105.469	78.7149	105.469	78.6955	105.469	78.7129	105.469	78.6555	105.469	78.6898	105.469	78.5963	105.469	78.6466	105.469	78.5203	105.469	78.5849	105.469	78.4308	105.469	78.5074	105.469	78.3319	105.469	78.4173	105.469	78.2282	105.469	78.319	105.469	78.1249	105.469	78.2175	105.469	78.027	105.469	78.1187	105.469	77.9392	105.469	78.0281	105.469	77.8654	105.469	77.9505	105.469	77.8084	105.469	77.8891	105.469	77.7695	105.469	77.8445	105.469	77.7478	105.469	77.815	105.469	77.7408	105.469	77.7968	105.469	77.7445	105.469	77.7851	105.469	77.754	105.469	77.7755	105.469	77.7652
108.398	78.8954	108.398	78.8857	108.398	78.8813	108.398	78.8531	108.398	78.8441	108.398	78.7992	108.398	78.785	108.398	78.7269	108.398	78.7068	108.398	78.6399	108.398	78.6127	108.398	78.5425	108.398	78.5069	108.398	78.4392	108.398	78.3942	108.398	78.3347	108.398	78.2797	108.398	78.2331	108.398	78.1687	108.398	78.1379	108.398	78.0662	108.398	78.0518	108.398	77.9766	108.398	77.9767	108.398	77.9031	108.398	77.9139	108.398	77.8469	108.398	77.8636	108.398	77.8077	108.398	77.8256	108.398	77.7832	108.398	77.7984	108.398	77.7704	108.398	77.7805	108.398	77.7667	108.398	77.7702
112.793	79.2081	112.793	79.172	112.793	79.2212	112.793	79.1138	112.793	79.2116	112.793	79.0353	112.793	79.1805	112.793	78.9398	112.793	79.13	112.793	78.8316	112.793	79.063	112.793	78.7163	112.793	78.9832	112.793	78.6	112.793	78.8951	112.793	78.4894	112.793	78.8036	112.793	78.3909	112.793	78.714	112.793	78.3097	112.793	78.631	112.793	78.2494	112.793	78.5581	112.793	78.2113	112.793	78.4971	112.793	78.1944	112.793	78.4482	112.793	78.1956	112.793	78.4092	112.793	78.2106	112.793	78.3771	112.793	78.2344	112.793	78.3486	112.793	78.2627	112.793	78.3207	112.793	78.2921
117.188	79.2962	117.188	79.3093	117.188	79.2543	117.188	79.2935	117.188	79.1859	117.188	79.2505	117.188	79.095	117.188	79.1838	117.188	78.9874	117.188	79.0983	117.188	78.87	117.188	79	117.188	78.7505	117.188	78.896	117.188	78.6363	117.188	78.7933	117.188	78.534	117.188	78.6987	117.188	78.4488	117.188	78.6176	117.188	78.3841	117.188	78.5536	117.188	78.3412	117.188	78.5078	117.188	78.3196	117.188	78.4787	117.188	78.3169	117.188	78.4627	117.188	78.3291	117.188	78.4544	117.188	78.3511	117.188	78.4481	117.188	78.3774	117.188	78.439	117.188	78.403	117.188	78.4241
120.117	79.4329	120.117	79.4221	120.117	79.4124	120.117	79.3811	120.117	79.3614	120.117	79.3126	120.117	79.2826	120.117	79.2211	120.117	79.1802	120.117	79.1122	120.117	79.0605	120.117	78.9931	120.117	78.931	120.117	78.8718	120.117	78.7999	120.117	78.756	120.117	78.6756	120.117	78.6531	120.117	78.5659	120.117	78.5686	120.117	78.4769	120.117	78.5056	120.117	78.4124	120.117	78.4646	120.117	78.3734	120.117	78.443	120.117	78.3579	120.117	78.4361	120.117	78.3615	120.117	78.4377	120.117	78.3775	120.117	78.4413	120.117	78.3991	120.117	78.4414	120.117	78.4196	120.117	78.4344
124.512	79.6273	124.512	79.6296	124.512	79.5913	124.512	79.5987	124.512	79.523	124.512	79.5364	124.512	79.4255	124.512	79.4463	124.512	79.3038	124.512	79.3333	124.512	79.165	124.512	79.2039	124.512	79.0181	124.512	79.0659	124.512	78.8731	124.512	78.9281	124.512	78.7402	124.512	78.7992	124.512	78.6282	124.512	78.6875	124.512	78.5431	124.512	78.5991	124.512	78.4874	124.512	78.5375	124.512	78.4597	124.512	78.5024	124.512	78.4551	124.512	78.4902	124.512	78.4667	124.512	78.4943	124.512	78.4863	124.512	78.5065	124.512	78.5062	124.512	78.5186	124.512	78.5201	124.512	78.5242
128.906	79.8398	128.906	79.8226	128.906	79.8251	128.906	79.7748	128.906	79.7781	128.906	79.6985	128.906	79.6993	128.906	79.5968	128.906	79.5909	128.906	79.4741	128.906	79.4562	128.906	79.3359	128.906	79.3008	128.906	79.1888	128.906	79.1323	128.906	79.0404	128.906	78.9603	128.906	78.8986	128.906	78.7956	128.906	78.7705	128.906	78.6489	128.906	78.6618	128.906	78.5291	128.906	78.5757	128.906	78.4415	128.906	78.5122	128.906	78.3867	128.906	78.4691	128.906	78.3609	128.906	78.4416	128.906	78.3569	128.906	78.4239	128.906	78.3663	128.906	78.4102	128.906	78.3812	128.906	78.3965
133.301	79.8068	133.301	79.7905	133.301	79.7944	133.301	79.7465	133.301	79.7531	133.301	79.677	133.301	79.6841	133.301	79.5851	133.301	79.5895	133.301	79.4749	133.301	79.4732	133.301	79.3517	133.301	79.3404	133.301	79.2218	133.301	79.1978	133.301	79.0921	133.301	79.0536	133.301	78.9696	133.301	78.9163	133.301	78.8606	133.301	78.7942	133.301	78.7698	133.301	78.694	133.301	78.6997	133.301	78.6198	133.301	78.6498	133.301	78.572	133.301	78.6174	133.301	78.5477	133.301	78.5979	133.301	78.5414	133.301	78.586	133.301	78.5465	133.301	78.577	133.301	78.5567	133.301	78.5675
139.16	79.7419	139.16	79.7186	139.16	79.7364	139.16	79.6676	139.16	79.7027	139.16	79.5917	139.16	79.6426	139.16	79.495	139.16	79.5594	139.16	79.3833	139.16	79.4574	139.16	79.2634	139.16	79.3421	139.16	79.1431	139.16	79.2198	139.16	79.0301	139.16	79.0973	139.16	78.9319	139.16	78.982	139.16	78.8539	139.16	78.8809	139.16	78.7992	139.16	78.8	139.16	78.7674	139.16	78.7432	139.16	78.7549	139.16	78.7111	139.16	78.7556	139.16	78.7013	139.16	78.7623	139.16	78.7083	139.16	78.7683	139.16	78.7252	139.16	78.7683	139.16	78.7445	139.16	78.7601
143.555	79.7003	143.555	79.674	143.555	79.695	143.555	79.6174	143.555	79.6591	143.555	79.5335	143.555	79.5951	143.555	79.4272	143.555	79.5075	143.555	79.305	143.555	79.4026	143.555	79.1753	143.555	79.2881	143.555	79.0475	143.555	79.1726	143.555	78.9317	143.555	79.0651	143.555	78.8375	143.555	78.9739	143.555	78.7729	143.555	78.9058	143.555	78.7419	143.555	78.8645	143.555	78.7443	143.555	78.8506	143.555	78.7745	143.555	78.8606	143.555	78.823	143.555	78.8876	143.555	78.8782	143.555	78.9226	143.555	78.9285	143.555	78.9556	143.555	78.9648	143.555	78.9774	143.555	78.9815
147.949	80.0326	147.949	80.0082	147.949	80.0159	147.949	79.9437	147.949	79.9595	147.949	79.8422	147.949	79.8668	147.949	79.7094	147.949	79.7438	147.949	79.5532	147.949	79.5982	147.949	79.3838	147.949	79.4399	147.949	79.2129	147.949	79.2801	147.949	79.0531	147.949	79.1307	147.949	78.9165	147.949	79.0026	147.949	78.8129	147.949	78.9044	147.949	78.7479	147.949	78.8409	147.949	78.7221	147.949	78.8119	147.949	78.7304	147.949	78.8124	147.949	78.7633	147.949	78.8334	147.949	78.8087	147.949	78.864	147.949	78.8546	147.949	78.8927	147.949	78.8907	147.949	78.9101	147.949	78.9101
153.809	80.2105	153.809	80.194	153.809	80.1839	153.809	80.1357	153.809	80.1147	153.809	80.0383	153.809	80.0046	153.809	79.9057	153.809	79.8574	153.809	79.744	153.809	79.6788	153.809	79.5607	153.809	79.4771	153.809	79.3655	153.809	79.2628	153.809	79.1697	153.809	79.0489	153.809	78.9851	153.809	78.8498	153.809	78.8233	153.809	78.6791	153.809	78.6933	153.809	78.5476	153.809	78.5999	153.809	78.4604	153.809	78.5425	153.809	78.4164	153.809	78.5149	153.809	78.4079	153.809	78.5072	153.809	78.4236	153.809	78.5081	153.809	78.4508	153.809	78.5073	153.809	78.4782	153.809	78.498
159.668	80.2256	159.668	80.198	159.668	80.2119	159.668	80.1301	159.668	80.1579	159.668	80.0244	159.668	80.0656	159.668	79.8854	159.668	79.9389	159.668	79.7199	159.668	79.7828	159.668	79.5369	159.668	79.6042	159.668	79.3474	159.668	79.4118	159.668	79.164	159.668	79.2162	159.668	78.9997	159.668	79.0297	159.668	78.8657	159.668	78.865	159.668	78.7696	159.668	78.7338	159.668	78.7134	159.668	78.6439	159.668	78.6927	159.668	78.5973	159.668	78.6974	159.668	78.5898	159.668	78.7141	159.668	78.6112	159.668	78.7293	159.668	78.6485	159.668	78.7324	159.668	78.688	159.668	78.7183
165.527	80.3738	165.527	80.3582	165.527	80.3487	165.527	80.3017	165.527	80.2851	165.527	80.2059	165.527	80.1866	165.527	80.0748	165.527	80.0584	165.527	79.9147	165.527	79.9071	165.527	79.7349	165.527	79.7403	165.527	79.5466	165.527	79.5669	165.527	79.3627	165.527	79.3962	165.527	79.1963	165.527	79.2375	165.527	79.0592	165.527	79.0995	165.527	78.9597	165.527	78.9898	165.527	78.9008	165.527	78.9131	165.527	78.8794	165.527	78.871	165.527	78.8864	165.527	78.8603	165.527	78.9087	165.527	78.8735	165.527	78.9324	165.527	78.8997	165.527	78.9464	165.527	78.9269	165.527	78.9445
171.387	80.2293	171.387	80.2108	171.387	80.2054	171.387	80.1499	171.387	80.1407	171.387	80.0485	171.387	80.0384	171.387	79.9106	171.387	79.9038	171.387	79.7431	171.387	79.7446	171.387	79.5559	171.387	79.5706	171.387	79.3618	171.387	79.3936	171.387	79.1755	171.387	79.2264	171.387	79.0117	171.387	79.0806	171.387	78.8827	171.387	78.9654	171.387	78.7957	171.387	78.8853	171.387	78.7516	171.387	78.8399	171.387	78.7446	171.387	78.824	171.387	78.7642	171.387	78.8294	171.387	78.7978	171.387	78.8461	171.387	78.8333	171.387	78.8646	171.387	78.8613	171.387	78.8765	171.387	78.8762
177.246	80.1749	177.246	80.1536	177.246	80.1506	177.246	80.0869	177.246	80.0827	177.246	79.9767	177.246	79.9747	177.246	79.8274	177.246	79.8322	177.246	79.6464	177.246	79.6636	177.246	79.4447	177.246	79.4801	177.246	79.2366	177.246	79.2959	177.246	79.039	177.246	79.1263	177.246	78.8695	177.246	78.9863	177.246	78.7436	177.246	78.887	177.246	78.6707	177.246	78.833	177.246	78.6526	177.246	78.8218	177.246	78.6817	177.246	78.8443	177.246	78.7438	177.246	78.8872	177.246	78.821	177.246	78.9355	177.246	78.8961	177.246	78.9753	177.246	78.9553	177.246	78.9956	177.246	78.9896
183.105	80.1839	183.105	80.1775	183.105	80.1425	183.105	80.1236	183.105	80.0539	183.105	80.0234	183.105	79.9203	183.105	79.8804	183.105	79.7454	183.105	79.7009	183.105	79.5361	183.105	79.4952	183.105	79.3031	183.105	79.2781	183.105	79.062	183.105	79.0679	183.105	78.8327	183.105	78.8844	183.105	78.6374	183.105	78.7449	183.105	78.4955	183.105	78.6602	183.105	78.4189	183.105	78.6313	183.105	78.4085	183.105	78.6499	183.105	78.4539	183.105	78.6999	183.105	78.537	183.105	78.7614	183.105	78.6361	183.105	78.8152	183.105	78.7302	183.105	78.8455	183.105	78.8027	183.105	78.8424
188.965	80.1499	188.965	80.1313	188.965	80.1215	188.965	80.0675	188.965	80.0456	188.965	79.9613	188.965	79.9234	188.965	79.8165	188.965	79.758	188.965	79.6386	188.965	79.5547	188.965	79.4353	188.965	79.3223	188.965	79.2184	188.965	79.0735	188.965	79.0037	188.965	78.8261	188.965	78.8113	188.965	78.6018	188.965	78.6613	188.965	78.4233	188.965	78.569	188.965	78.3085	188.965	78.5388	188.965	78.2651	188.965	78.5617	188.965	78.2879	188.965	78.6173	188.965	78.3608	188.965	78.6806	188.965	78.4616	188.965	78.7282	188.965	78.5676	188.965	78.744	188.965	78.6589	188.965	78.7206
196.289	80.4226	196.289	80.392	196.289	80.3989	196.289	80.3072	196.289	80.3223	196.289	80.1708	196.289	80.1959	196.289	79.9875	196.289	80.0246	196.289	79.7656	196.289	79.8148	196.289	79.5169	196.289	79.5762	196.289	79.2573	196.289	79.3216	196.289	79.006	196.289	79.0686	196.289	78.7843	196.289	78.8391	196.289	78.6121	196.289	78.6559	196.289	78.504	196.289	78.5374	196.289	78.4654	196.289	78.491	196.289	78.4894	196.289	78.5094	196.289	78.558	196.289	78.5733	196.289	78.6469	196.289	78.6573	196.289	78.7307	196.289	78.7366	196.289	78.7895	196.289	78.792	196.289	78.8112
203.613	80.4311	203.613	80.3989	203.613	80.4104	203.613	80.3165	203.613	80.3358	203.613	80.1877	203.613	80.2073	203.613	80.0178	203.613	80.0272	203.613	79.8135	203.613	79.8005	203.613	79.5841	203.613	79.5351	203.613	79.341	203.613	79.2436	203.613	79.0981	203.613	78.9432	203.613	78.8712	203.613	78.6569	203.613	78.6769	203.613	78.411	203.613	78.5297	203.613	78.2303	203.613	78.4382	203.613	78.13	203.613	78.4021	203.613	78.1099	203.613	78.4102	203.613	78.1539	203.613	78.4423	203.613	78.2362	203.613	78.4747	203.613	78.3298	203.613	78.4869	203.613	78.4119	203.613	78.4668
210.938	80.3806	210.938	80.3263	210.938	80.3793	210.938	80.2168	210.938	80.3235	210.938	80.0539	210.938	80.2152	210.938	79.8415	210.938	80.0578	210.938	79.5872	210.938	79.8566	210.938	79.3032	210.938	79.6196	210.938	79.0073	210.938	79.3582	210.938	78.7227	210.938	79.0882	210.938	78.4744	210.938	78.8294	210.938	78.2852	210.938	78.6037	210.938	78.1692	210.938	78.4316	210.938	78.1283	210.938	78.3268	210.938	78.1515	210.938	78.2907	210.938	78.2184	210.938	78.311	210.938	78.3046	210.938	78.364	210.938	78.387	210.938	78.4228	210.938	78.4473	210.938	78.4645	210.938	78.4744
218.262	80.3494	218.262	80.3187	218.262	80.3254	218.262	80.2343	218.262	80.2478	218.262	80.0981	218.262	80.12	218.262	79.9136	218.262	79.9476	218.262	79.6858	218.262	79.7387	218.262	79.4234	218.262	79.5039	218.262	79.1408	218.262	79.2558	218.262	78.859	218.262	79.0101	218.262	78.605	218.262	78.7852	218.262	78.4067	218.262	78.6008	218.262	78.2845	218.262	78.4734	218.262	78.2448	218.262	78.4112	218.262	78.2773	218.262	78.4096	218.262	78.3583	218.262	78.4526	218.262	78.4583	218.262	78.5179	218.262	78.5503	218.262	78.5826	218.262	78.6145	218.262	78.6279	218.262	78.6407
225.586	80.4264	225.586	80.4034	225.586	80.3869	225.586	80.3196	225.586	80.285	225.586	80.1784	225.586	80.1237	225.586	79.9846	225.586	79.9087	225.586	79.7445	225.586	79.6496	225.586	79.4672	225.586	79.3604	225.586	79.1663	225.586	79.0603	225.586	78.8622	225.586	78.7736	225.586	78.5823	225.586	78.5283	225.586	78.3578	225.586	78.3513	225.586	78.2161	225.586	78.2618	225.586	78.1708	225.586	78.2635	225.586	78.2158	225.586	78.3414	225.586	78.3268	225.586	78.4654	225.586	78.4695	225.586	78.5988	225.586	78.6092	225.586	78.7086	225.586	78.7173	225.586	78.7712	225.586	78.7744
232.91	80.5383	232.91	80.4988	232.91	80.508	232.91	80.3923	232.91	80.4078	232.91	80.2237	232.91	80.239	232.91	80.0003	232.91	80.0051	232.91	79.7309	232.91	79.7118	232.91	79.4263	232.91	79.3683	232.91	79.1	232.91	78.9898	232.91	78.7709	232.91	78.6001	232.91	78.4646	232.91	78.2331	232.91	78.2119	232.91	77.9308	232.91	78.0415	232.91	77.7341	232.91	77.9703	232.91	77.6681	232.91	77.9954	232.91	77.7291	232.91	78.0942	232.91	77.8835	232.91	78.2296	232.91	78.0801	232.91	78.3599	232.91	78.2669	232.91	78.4475	232.91	78.4035	232.91	78.4658
241.699	80.4572	241.699	80.4197	241.699	80.4287	241.699	80.3174	241.699	80.3355	241.699	80.1537	241.699	80.1804	241.699	79.935	241.699	79.9676	241.699	79.6696	241.699	79.7029	241.699	79.3679	241.699	79.3936	241.699	79.0426	241.699	79.0502	241.699	78.7099	241.699	78.6878	241.699	78.3918	241.699	78.3282	241.699	78.116	241.699	78.0004	241.699	77.9118	241.699	77.7381	241.699	77.8007	241.699	77.5737	241.699	77.7863	241.699	77.5261	241.699	77.8511	241.699	77.5899	241.699	77.9597	241.699	77.7323	241.699	78.0681	241.699	77.9026	241.699	78.135	241.699	78.0484	241.699	78.1312
250.488	80.5967	250.488	80.5468	250.488	80.5678	250.488	80.4185	250.488	80.462	250.488	80.2152	250.488	80.2828	250.488	79.9443	250.488	80.0359	250.488	79.6174	250.488	79.7297	250.488	79.2505	250.488	79.3767	250.488	78.8634	250.488	78.9953	250.488	78.4805	250.488	78.6099	250.488	78.131	250.488	78.2499	250.488	77.8469	250.488	77.9454	250.488	77.6565	250.488	77.7233	250.488	77.5745	250.488	77.6013	250.488	77.5951	250.488	77.5841	250.488	77.6932	250.488	77.6577	250.488	77.8315	250.488	77.7898	250.488	77.9686	250.488	77.935	250.488	78.0659	250.488	78.048	250.488	78.0957
259.277	80.8335	259.277	80.7953	259.277	80.8103	259.277	80.6948	259.277	80.7253	259.277	80.5302	259.277	80.5765	259.277	80.3012	259.277	80.3616	259.277	80.0108	259.277	80.0809	259.277	79.6673	259.277	79.7402	259.277	79.2848	259.277	79.3547	259.277	78.8846	259.277	78.9521	259.277	78.4975	259.277	78.5711	259.277	78.164	259.277	78.2534	259.277	77.9272	259.277	78.0298	259.277	77.8157	259.277	77.9105	259.277	77.8275	259.277	77.886	259.277	77.9291	259.277	77.9359	259.277	78.0703	259.277	78.0348	259.277	78.2019	259.277	78.1519	259.277	78.2864	259.277	78.2521	259.277	78.3033
268.066	80.4635	268.066	80.3866	268.066	80.473	268.066	80.2456	268.066	80.4126	268.066	80.0449	268.066	80.2815	268.066	79.791	268.066	80.0798	268.066	79.4935	268.066	79.8099	268.066	79.1654	268.066	79.477	268.066	78.8223	268.066	79.0934	268.066	78.4811	268.066	78.6831	268.066	78.1617	268.066	78.2848	268.066	77.8927	268.066	77.9487	268.066	77.7123	268.066	77.7214	268.066	77.6522	268.066	77.6256	268.066	77.7133	268.066	77.6498	268.066	77.8562	268.066	77.7569	268.066	78.02	268.066	77.902	268.066	78.1519	268.066	78.0459	268.066	78.2222	268.066	78.1595	268.066	78.2228
276.855	80.7337	276.855	80.6862	276.855	80.7176	276.855	80.566	276.855	80.6442	276.855	80.3645	276.855	80.5156	276.855	80.0764	276.855	80.3277	276.855	79.7038	276.855	80.0698	276.855	79.2611	276.855	79.7279	276.855	78.7787	276.855	79.2938	276.855	78.3018	276.855	78.7785	276.855	77.882	276.855	78.2268	276.855	77.5641	276.855	77.7211	276.855	77.3752	276.855	77.3566	276.855	77.3226	276.855	77.1907	276.855	77.3921	276.855	77.2081	276.855	77.5455	276.855	77.3409	276.855	77.7241	276.855	77.5179	276.855	77.8681	276.855	77.6915	276.855	77.9379	276.855	77.8338	276.855	77.9227
287.109	80.5682	287.109	80.5311	287.109	80.5377	287.109	80.4285	287.109	80.4375	287.109	80.259	287.109	80.2697	287.109	80.0173	287.109	80.0428	287.109	79.6994	287.109	79.7711	287.109	79.3085	287.109	79.4704	287.109	78.8617	287.109	79.1523	287.109	78.3905	287.109	78.8223	287.109	77.9398	287.109	78.4871	287.109	77.5628	287.109	78.167	287.109	77.3112	287.109	77.9041	287.109	77.2162	287.109	77.7499	287.109	77.2702	287.109	77.7318	287.109	77.4283	287.109	77.8268	287.109	77.6319	287.109	77.9699	287.109	77.8329	287.109	78.0903	287.109	77.9993	287.109	78.1413	287.109	78.1083
297.363	80.8102	297.363	80.8207	297.363	80.7143	297.363	80.7487	297.363	80.5336	297.363	80.5993	297.363	80.2723	297.363	80.3757	297.363	79.9361	297.363	80.076	297.363	79.5318	297.363	79.6953	297.363	79.0688	297.363	79.2329	297.363	78.5618	297.363	78.7043	297.363	78.0351	297.363	78.1501	297.363	77.5299	297.363	77.6415	297.363	77.1133	297.363	77.2705	297.363	76.872	297.363	77.1179	297.363	76.8719	297.363	77.2048	297.363	77.1003	297.363	77.4697	297.363	77.4601	297.363	77.8012	297.363	77.8308	297.363	78.0958	297.363	78.1259	297.363	78.2908	297.363	78.3065	297.363	78.3622
307.617	80.8252	307.617	80.7387	307.617	80.8378	307.617	80.5814	307.617	80.7752	307.617	80.3575	307.617	80.6372	307.617	80.0721	307.617	80.4241	307.617	79.7304	307.617	80.1361	307.617	79.3387	307.617	79.7729	307.617	78.9091	307.617	79.3352	307.617	78.4643	307.617	78.8281	307.617	78.0407	307.617	78.2689	307.617	77.6824	307.617	77.6969	307.617	77.4285	307.617	77.1826	307.617	77.3014	307.617	76.8279	307.617	77.3039	307.617	76.7288	307.617	77.4199	307.617	76.9015	307.617	77.6119	307.617	77.2491	307.617	77.8211	307.617	77.6211	307.617	77.9771	307.617	77.8962	307.617	78.0154
319.336	80.7277	319.336	80.665	319.336	80.7166	319.336	80.5287	319.336	80.6319	319.336	80.3198	319.336	80.473	319.336	80.0387	319.336	80.2383	319.336	79.6839	319.336	79.925	319.336	79.2503	319.336	79.5333	319.336	78.7326	319.336	79.0701	319.336	78.1371	319.336	78.5549	319.336	77.5021	319.336	78.0243	319.336	76.9184	319.336	77.5318	319.336	76.5195	319.336	77.1416	319.336	76.4133	319.336	76.9134	319.336	76.601	319.336	76.8826	319.336	76.9807	319.336	77.043	319.336	77.4199	319.336	77.3415	319.336	77.805	319.336	77.6862	319.336	78.0513	319.336	77.9712	319.336	78.1083
329.59	80.5546	329.59	80.5089	329.59	80.5477	329.59	80.4161	329.59	80.4812	329.59	80.2763	329.59	80.3495	329.59	80.0842	329.59	80.1512	329.59	79.8309	329.59	79.886	329.59	79.5063	329.59	79.5501	329.59	79.1025	329.59	79.1351	329.59	78.6173	329.59	78.6344	329.59	78.0649	329.59	78.0593	329.59	77.4936	329.59	77.4601	329.59	77.0027	329.59	76.9372	329.59	76.7217	329.59	76.6172	329.59	76.7281	329.59	76.5795	329.59	76.9739	329.59	76.7925	329.59	77.3208	329.59	77.1372	329.59	77.6331	329.59	77.4849	329.59	77.8266	329.59	77.7443	329.59	77.865
341.309	80.5879	341.309	80.5652	341.309	80.5277	341.309	80.4557	341.309	80.3894	341.309	80.2584	341.309	80.1758	341.309	79.9779	341.309	79.8887	341.309	79.6244	341.309	79.5325	341.309	79.2105	341.309	79.1178	341.309	78.7466	341.309	78.664	341.309	78.2378	341.309	78.1981	341.309	77.6931	341.309	77.7551	341.309	77.1489	341.309	77.3794	341.309	76.6903	341.309	77.122	341.309	76.438	341.309	77.0277	341.309	76.4771	341.309	77.1094	341.309	76.7791	341.309	77.3312	341.309	77.2149	341.309	77.6178	341.309	77.6373	341.309	77.8832	341.309	77.9429	341.309	78.0552	341.309	78.0837
353.027	80.7383	353.027	80.6765	353.027	80.7242	353.027	80.5365	353.027	80.6334	353.027	80.3136	353.027	80.4636	353.027	80.0049	353.027	80.211	353.027	79.6128	353.027	79.8665	353.027	79.1452	353.027	79.4129	353.027	78.6115	353.027	78.8295	353.027	78.0216	353.027	78.109	353.027	77.3941	353.027	77.282	353.027	76.7789	353.027	76.4433	353.027	76.2793	353.027	75.7645	353.027	76.0365	353.027	75.4466	353.027	76.1414	353.027	75.588	353.027	76.5428	353.027	76.0897	353.027	77.0739	353.027	76.7368	353.027	77.5575	353.027	77.3342	353.027	77.8692	353.027	77.7575	353.027	77.9424
366.211	80.9901	366.211	80.8624	366.211	81.0268	366.211	80.6506	366.211	80.9691	366.211	80.3651	366.211	80.814	366.211	80.0138	366.211	80.5591	366.211	79.5942	366.211	80.2038	366.211	79.0927	366.211	79.7465	366.211	78.4965	366.211	79.1772	366.211	77.8138	366.211	78.4769	366.211	77.0972	366.211	77.6394	366.211	76.462	366.211	76.7185	366.211	76.0683	366.211	75.8765	366.211	76.0235	366.211	75.3489	366.211	76.2724	366.211	75.2645	366.211	76.634	366.211	75.5256	366.211	76.9407	366.211	75.9382	366.211	77.108	366.211	76.3614	366.211	77.1182	366.211	76.7225	366.211	76.9832
379.395	80.9815	379.395	81.0117	379.395	80.9158	379.395	80.9948	379.395	80.8185	379.395	80.9052	379.395	80.693	379.395	80.7075	379.395	80.5391	379.395	80.373	379.395	80.3455	379.395	79.8953	379.395	80.0873	379.395	79.2915	379.395	79.7352	379.395	78.5873	379.395	79.266	379.395	77.798	379.395	78.6724	379.395	76.9399	379.395	77.9771	379.395	76.0886	379.395	77.2607	379.395	75.4398	379.395	76.6789	379.395	75.2441	379.395	76.4043	379.395	75.5593	379.395	76.4819	379.395	76.1567	379.395	76.7778	379.395	76.7486	379.395	77.1018	379.395	77.1648	379.395	77.3177	379.395	77.3517
392.578	80.6198	392.578	80.6015	392.578	80.559	392.578	80.5209	392.578	80.4112	392.578	80.3952	392.578	80.1807	392.578	80.2307	392.578	79.8844	392.578	80.0132	392.578	79.5444	392.578	79.7114	392.578	79.1743	392.578	79.2955	392.578	78.7651	392.578	78.7574	392.578	78.2854	392.578	78.1211	392.578	77.702	392.578	77.4369	392.578	77.0202	392.578	76.776	392.578	76.3363	392.578	76.2475	392.578	75.8646	392.578	76.01	392.578	75.8294	392.578	76.1747	392.578	76.2339	392.578	76.6528	392.578	76.8369	392.578	77.204	392.578	77.3808	392.578	77.6216	392.578	77.7207	392.578	77.8036
405.762	80.3822	405.762	80.3144	405.762	80.3769	405.762	80.1727	405.762	80.2978	405.762	79.9614	405.762	80.1391	405.762	79.6935	405.762	79.8902	405.762	79.3839	405.762	79.5411	405.762	79.0316	405.762	79.0892	405.762	78.6037	405.762	78.5445	405.762	78.0492	405.762	77.9256	405.762	77.3475	405.762	77.2513	405.762	76.5736	405.762	76.5435	405.762	75.9223	405.762	75.8656	405.762	75.6094	405.762	75.38	405.762	75.6878	405.762	75.3113	405.762	76.0316	405.762	75.7183	405.762	76.485	405.762	76.3731	405.762	76.9321	405.762	76.9756	405.762	77.2789	405.762	77.3478	405.762	77.4399
420.41	81.0824	420.41	81.0141	420.41	81.0472	420.41	80.8412	420.41	80.9233	420.41	80.579	420.41	80.7294	420.41	80.2516	420.41	80.4789	420.41	79.8764	420.41	80.1705	420.41	79.4517	420.41	79.7805	420.41	78.951	420.41	79.2614	420.41	78.3261	420.41	78.5567	420.41	77.5242	420.41	77.6303	420.41	76.541	420.41	76.5091	420.41	75.5299	420.41	75.3409	420.41	74.8908	420.41	74.4398	420.41	75.0024	420.41	74.1805	420.41	75.7152	420.41	74.6553	420.41	76.5601	420.41	75.5525	420.41	77.2197	420.41	76.4778	420.41	77.566	420.41	77.1823	420.41	77.556
435.059	80.841	435.059	80.7999	435.059	80.8088	435.059	80.7061	435.059	80.6997	435.059	80.5707	435.059	80.537	435.059	80.3791	435.059	80.3568	435.059	80.0997	435.059	80.1771	435.059	79.7078	435.059	79.9769	435.059	79.1998	435.059	79.7003	435.059	78.5851	435.059	79.2782	435.059	77.8685	435.059	78.6575	435.059	77.056	435.059	77.8364	435.059	76.2049	435.059	76.9146	435.059	75.4966	435.059	76.1218	435.059	75.2254	435.059	75.7229	435.059	75.5587	435.059	75.8075	435.059	76.3034	435.059	76.2459	435.059	77.0734	435.059	76.8347	435.059	77.5687	435.059	77.3699	435.059	77.6598
451.172	81.529	451.172	81.4688	451.172	81.5051	451.172	81.3148	451.172	81.4004	451.172	81.0713	451.172	81.205	451.172	80.7637	451.172	80.9097	451.172	80.4197	451.172	80.5229	451.172	80.0343	451.172	80.0689	451.172	79.5571	451.172	79.5592	451.172	78.9112	451.172	78.9644	451.172	78.0299	451.172	78.2201	451.172	76.9058	451.172	77.2771	451.172	75.6812	451.172	76.1863	451.172	74.7842	451.172	75.2195	451.172	74.775	451.172	74.8781	451.172	75.6265	451.172	75.4106	451.172	76.7244	451.172	76.4159	451.172	77.6061	451.172	77.3632	451.172	78.1176	451.172	77.993	451.172	78.2447
465.82	81.5799	465.82	81.5379	465.82	81.5563	465.82	81.4142	465.82	81.4754	465.82	81.1948	465.82	81.3353	465.82	80.8837	465.82	81.1241	465.82	80.5117	465.82	80.8256	465.82	80.1182	465.82	80.4303	465.82	79.7078	465.82	79.9424	465.82	79.2213	465.82	79.3674	465.82	78.5563	465.82	78.6823	465.82	77.6272	465.82	77.8257	465.82	76.4434	465.82	76.7548	465.82	75.2205	465.82	75.5982	465.82	74.4628	465.82	74.8133	465.82	74.6273	465.82	74.8761	465.82	75.4964	465.82	75.5994	465.82	76.4596	465.82	76.438	465.82	77.1104	465.82	77.0568	465.82	77.307
483.398	81.3881	483.398	81.2919	483.398	81.3577	483.398	81.1385	483.398	81.1704	483.398	80.9814	483.398	80.8577	483.398	80.8119	483.398	80.5024	483.398	80.5757	483.398	80.194	483.398	80.2377	483.398	79.9613	483.398	79.8133	483.398	79.7351	483.398	79.3169	483.398	79.3874	483.398	78.6829	483.398	78.8076	483.398	77.7844	483.398	77.954	483.398	76.5839	483.398	76.8786	483.398	75.3633	483.398	75.7714	483.398	74.8012	483.398	75.0273	483.398	75.2256	483.398	75.0741	483.398	76.1045	483.398	75.8309	483.398	76.9062	483.398	76.7501	483.398	77.4373	483.398	77.3987	483.398	77.6233
499.512	81.4491	499.512	81.3314	499.512	81.3871	499.512	81.0413	499.512	81.1742	499.512	80.6444	499.512	80.851	499.512	80.2481	499.512	80.4615	499.512	79.9277	499.512	80.0547	499.512	79.6609	499.512	79.6728	499.512	79.3601	499.512	79.3177	499.512	78.949	499.512	78.925	499.512	78.3795	499.512	78.377	499.512	77.595	499.512	77.5523	499.512	76.5396	499.512	76.4137	499.512	75.3168	499.512	75.159	499.512	74.4733	499.512	74.3493	499.512	74.7152	499.512	74.5092	499.512	75.781	499.512	75.4025	499.512	76.8465	499.512	76.4259	499.512	77.4789	499.512	77.2081	499.512	77.5872
517.09	81.7576	517.09	81.7121	517.09	81.6533	517.09	81.4834	517.09	81.4341	517.09	81.0661	517.09	81.121	517.09	80.5107	517.09	80.7297	517.09	79.9263	517.09	80.3016	517.09	79.4301	517.09	79.9179	517.09	79.0522	517.09	79.6341	517.09	78.6937	517.09	79.3757	517.09	78.192	517.09	78.9516	517.09	77.4161	517.09	78.186	517.09	76.3353	517.09	77.034	517.09	75.1377	517.09	75.6882	517.09	74.4291	517.09	74.7161	517.09	74.8512	517.09	74.787	517.09	76.0419	517.09	75.7739	517.09	77.2005	517.09	76.9446	517.09	77.9357	517.09	77.7967	517.09	78.1409
536.133	82.0995	536.133	81.9447	536.133	82.0052	536.133	81.5643	536.133	81.6434	536.133	80.9924	536.133	81.0149	536.133	80.284	536.133	80.1796	536.133	79.5241	536.133	79.2811	536.133	78.8201	536.133	78.4959	536.133	78.2467	536.133	77.924	536.133	77.778	536.133	77.5478	536.133	77.302	536.133	77.2682	536.133	76.68	536.133	76.9092	536.133	75.7778	536.133	76.2669	536.133	74.5816	536.133	75.3088	536.133	73.5711	536.133	74.4585	536.133	73.7542	536.133	74.4372	536.133	75.0734	536.133	75.2379	536.133	76.423	536.133	76.2183	536.133	77.2115	536.133	76.9829	536.133	77.3617
555.176	83.0119	555.176	82.9041	555.176	82.9955	555.176	82.6646	555.176	82.8345	555.176	82.2471	555.176	82.5049	555.176	81.5921	555.176	81.9827	555.176	80.6702	555.176	81.2332	555.176	79.5108	555.176	80.2217	555.176	78.2063	555.176	78.9647	555.176	76.8822	555.176	77.5605	555.176	75.6198	555.176	76.1148	555.176	74.3597	555.176	74.6179	555.176	72.9367	555.176	72.9805	555.176	71.3803	555.176	71.269	555.176	70.4695	555.176	70.1108	555.176	71.2849	555.176	70.6729	555.176	73.1458	555.176	72.6591	555.176	74.848	555.176	74.6212	555.176	75.9432	555.176	75.8797	555.176	76.3096
574.219	82.8529	574.219	82.7415	574.219	82.8179	574.219	82.5194	574.219	82.6345	574.219	82.2412	574.219	82.3179	574.219	81.9237	574.219	81.8876	574.219	81.5234	574.219	81.363	574.219	80.9905	574.219	80.7552	574.219	80.3098	574.219	80.0715	574.219	79.4449	574.219	79.3218	574.219	78.2638	574.219	78.4637	574.219	76.5791	574.219	77.326	574.219	74.268	574.219	75.6297	574.219	71.3799	574.219	73.1279	574.219	68.7921	574.219	70.1086	574.219	69.3064	574.219	69.0364	574.219	71.8474	574.219	70.9811	574.219	73.656	574.219	72.9268	574.219	74.408	574.219	74.0111	574.219	74.4541
594.727	82.104	594.727	82.0745	594.727	82.0541	594.727	81.9338	594.727	81.957	594.727	81.6698	594.727	81.8177	594.727	81.3009	594.727	81.588	594.727	80.86	594.727	81.2046	594.727	80.3627	594.727	80.6816	594.727	79.8267	594.727	80.12	594.727	79.3083	594.727	79.5545	594.727	78.7896	594.727	78.8461	594.727	78.0334	594.727	77.8059	594.727	76.7229	594.727	76.3063	594.727	74.7752	594.727	74.2445	594.727	72.5807	594.727	71.77	594.727	70.8727	594.727	70.3533	594.727	70.5969	594.727	71.3554	594.727	72.0004	594.727	72.9476	594.727	73.5342	594.727	73.968	594.727	74.2122
615.234	82.2956	615.234	82.2048	615.234	82.2586	615.234	81.9865	615.234	82.0893	615.234	81.6485	615.234	81.7968	615.234	81.2275	615.234	81.4265	615.234	80.785	615.234	81.0453	615.234	80.3464	615.234	80.6706	615.234	79.8472	615.234	80.2187	615.234	79.1923	615.234	79.5715	615.234	78.3533	615.234	78.6932	615.234	77.3045	615.234	77.6241	615.234	75.8326	615.234	76.3475	615.234	73.5839	615.234	74.749	615.234	70.5624	615.234	72.7715	615.234	68.6194	615.234	70.729	615.234	69.8845	615.234	70.0753	615.234	71.9438	615.234	71.6154	615.234	73.3615	615.234	73.2529	615.234	73.8527
637.207	81.9885	637.207	81.9599	637.207	81.9229	637.207	81.805	637.207	81.8156	637.207	81.5656	637.207	81.6624	637.207	81.2798	637.207	81.4282	637.207	80.9169	637.207	81.1294	637.207	80.4979	637.207	80.8363	637.207	80.1712	637.207	80.5872	637.207	79.961	637.207	80.3439	637.207	79.6131	637.207	80.0146	637.207	78.8621	637.207	79.4498	637.207	77.6132	637.207	78.4216	637.207	75.8283	637.207	76.6892	637.207	73.3928	637.207	74.2488	637.207	70.8017	637.207	71.9327	637.207	70.6077	637.207	71.248	637.207	72.4753	637.207	72.0006	637.207	73.7292	637.207	73.0946	637.207	73.843
659.18	82.4486	659.18	82.2816	659.18	82.4709	659.18	82.0148	659.18	82.2963	659.18	81.6382	659.18	81.953	659.18	81.1905	659.18	81.5197	659.18	80.7797	659.18	81.0494	659.18	80.4099	659.18	80.5815	659.18	79.9795	659.18	80.1961	659.18	79.4786	659.18	79.9422	659.18	78.9591	659.18	79.6916	659.18	78.3651	659.18	79.163	659.18	77.5413	659.18	78.1218	659.18	76.3248	659.18	76.532	659.18	74.6541	659.18	74.5299	659.18	73.0052	659.18	72.514	659.18	72.7543	659.18	71.9341	659.18	73.907	659.18	73.3762	659.18	74.9848	659.18	74.8317	659.18	75.3581
682.617	82.8594	682.617	82.7359	682.617	82.7434	682.617	82.3706	682.617	82.4589	682.617	81.8546	682.617	82.0631	682.617	81.2866	682.617	81.5837	682.617	80.7298	682.617	81.0648	682.617	80.2496	682.617	80.5811	682.617	79.883	682.617	80.1715	682.617	79.6453	682.617	79.8022	682.617	79.5344	682.617	79.485	682.617	79.3249	682.617	79.2007	682.617	78.6393	682.617	78.6381	682.617	77.2787	682.617	77.4059	682.617	75.3698	682.617	75.4463	682.617	73.7673	682.617	73.451	682.617	73.8714	682.617	73.2138	682.617	75.0668	682.617	74.7421	682.617	76.0813	682.617	76.0726	682.617	76.4919
707.52	83.2906	707.52	83.2521	707.52	83.1653	707.52	83.0059	707.52	82.8779	707.52	82.5462	707.52	82.386	707.52	81.9397	707.52	81.7028	707.52	81.2725	707.52	80.9502	707.52	80.5842	707.52	80.26	707.52	79.919	707.52	79.7343	707.52	79.3767	707.52	79.4556	707.52	78.8913	707.52	79.2018	707.52	78.138	707.52	78.5679	707.52	76.8453	707.52	77.4576	707.52	75.0209	707.52	75.9163	707.52	73.1614	707.52	74.1275	707.52	72.5398	707.52	73.3512	707.52	73.9553	707.52	74.3693	707.52	76.0138	707.52	75.9231	707.52	77.3673	707.52	77.1423	707.52	77.6983
732.422	83.4198	732.422	83.4128	732.422	83.3087	732.422	83.1985	732.422	83.0668	732.422	82.6926	732.422	82.6334	732.422	81.9531	732.422	81.9647	732.422	81.1573	732.422	81.0773	732.422	80.5406	732.422	80.1848	732.422	80.2458	732.422	79.666	732.422	80.0348	732.422	79.5863	732.422	79.6183	732.422	79.5801	732.422	78.9986	732.422	79.2391	732.422	77.9269	732.422	78.2345	732.422	75.824	732.422	76.268	732.422	72.7631	732.422	73.1489	732.422	70.7022	732.422	69.9706	732.422	71.7292	732.422	70.5546	732.422	73.9101	732.422	73.2116	732.422	75.3883	732.422	75.0954	732.422	75.7982
757.324	83.62	757.324	83.3903	757.324	83.5057	757.324	82.9213	757.324	83.1012	757.324	82.3409	757.324	82.5249	757.324	81.6719	757.324	81.7814	757.324	80.8383	757.324	80.8123	757.324	79.8231	757.324	79.6971	757.324	78.9921	757.324	78.7709	757.324	78.8709	757.324	78.4095	757.324	79.1765	757.324	78.5223	757.324	79.1909	757.324	78.6034	757.324	78.5218	757.324	78.1701	757.324	76.9815	757.324	76.9573	757.324	74.5159	757.324	74.893	757.324	72.1587	757.324	72.5041	757.324	72.8829	757.324	72.2504	757.324	75.0659	757.324	74.2104	757.324	76.341	757.324	75.8653	757.324	76.5764
785.156	82.3407	785.156	82.4576	785.156	82.0079	785.156	82.2822	785.156	81.7217	785.156	81.9806	785.156	81.4672	785.156	81.5142	785.156	80.9175	785.156	80.6737	785.156	79.9272	785.156	79.6221	785.156	78.8337	785.156	78.9886	785.156	78.0818	785.156	79.0159	785.156	77.7655	785.156	79.1433	785.156	77.8445	785.156	79.0031	785.156	77.9985	785.156	78.5215	785.156	77.8098	785.156	77.2704	785.156	76.958	785.156	75.2136	785.156	74.8627	785.156	73.3745	785.156	71.9328	785.156	72.5644	785.156	72.5857	785.156	73.721	785.156	75.17	785.156	75.3439	785.156	76.4169	785.156	76.3152
811.523	82.6332	811.523	82.5366	811.523	82.6836	811.523	82.3204	811.523	82.5143	811.523	81.728	811.523	82.0659	811.523	80.7092	811.523	81.4949	811.523	79.4604	811.523	80.7866	811.523	78.0775	811.523	79.7108	811.523	76.7898	811.523	78.5798	811.523	76.1899	811.523	78.1042	811.523	76.5866	811.523	78.0724	811.523	77.3298	811.523	78.1507	811.523	77.3117	811.523	77.8435	811.523	76.0176	811.523	76.3204	811.523	73.3234	811.523	73.5729	811.523	70.965	811.523	71.7819	811.523	72.7565	811.523	73.3861	811.523	75.6179	811.523	75.8102	811.523	77.5845	811.523	77.4228	811.523	78.1178
840.82	82.7667	840.82	82.6699	840.82	82.7654	840.82	82.4651	840.82	82.5815	840.82	82.1058	840.82	82.1561	840.82	81.4751	840.82	81.5112	840.82	80.4388	840.82	80.5619	840.82	79.0822	840.82	79.132	840.82	77.7157	840.82	77.4159	840.82	76.5548	840.82	76.2633	840.82	76.0122	840.82	76.2481	840.82	76.1588	840.82	76.5277	840.82	75.7688	840.82	76.2039	840.82	74.1878	840.82	74.9812	840.82	71.0782	840.82	72.2015	840.82	64.9619	840.82	67.3486	840.82	66.0715	840.82	66.7806	840.82	71.0707	840.82	70.3282	840.82	73.4741	840.82	73.0627	840.82	74.1658
870.117	82.2638	870.117	82.3755	870.117	81.7969	870.117	81.9301	870.117	81.3473	870.117	81.0951	870.117	80.9591	870.117	80.1611	870.117	80.2755	870.117	79.0497	870.117	79.2276	870.117	77.4646	870.117	78.1705	870.117	75.6385	870.117	77.2541	870.117	74.8239	870.117	76.3157	870.117	75.4652	870.117	75.7541	870.117	76.2222	870.117	76.247	870.117	76.3865	870.117	76.6754	870.117	75.3897	870.117	75.6785	870.117	73.2301	870.117	72.4932	870.117	70.5243	870.117	67.2923	870.117	67.9652	870.117	68.4909	870.117	71.1672	870.117	71.9479	870.117	74.4757	870.117	74.143	870.117	75.2448
900.879	82.0742	900.879	81.9031	900.879	82.245	900.879	81.7615	900.879	82.0847	900.879	81.3919	900.879	81.4524	900.879	80.8044	900.879	80.5612	900.879	80.0765	900.879	79.6249	900.879	78.8137	900.879	78.4438	900.879	76.8875	900.879	76.5555	900.879	74.8654	900.879	74.3888	900.879	73.8195	900.879	74.1103	900.879	74.558	900.879	74.8112	900.879	75.2149	900.879	74.9395	900.879	74.7316	900.879	74.5067	900.879	72.4218	900.879	72.8117	900.879	67.7646	900.879	69.0602	900.879	68.2094	900.879	67.4913	900.879	71.3851	900.879	71.5604	900.879	73.3094	900.879	74.2344	900.879	74.5856
933.105	82.0175	933.105	82.0009	933.105	81.8205	933.105	81.5767	933.105	81.4526	933.105	80.8511	933.105	80.86	933.105	80.0337	933.105	80.1719	933.105	78.973	933.105	79.4004	933.105	77.5728	933.105	78.3142	933.105	76.0197	933.105	77.0272	933.105	74.8168	933.105	75.9836	933.105	74.5352	933.105	75.3584	933.105	74.8343	933.105	75.6212	933.105	74.9026	933.105	75.753	933.105	74.2254	933.105	74.3027	933.105	72.3024	933.105	71.4424	933.105	68.2722	933.105	66.015	933.105	65.2514	933.105	63.2279	933.105	70.0709	933.105	70.9072	933.105	73.659	933.105	74.336	933.105	75.1149
965.332	81.491	965.332	81.4054	965.332	81.2104	965.332	81.2182	965.332	80.7096	965.332	80.9713	965.332	80.3085	965.332	80.4676	965.332	79.9025	965.332	79.8612	965.332	79.3416	965.332	79.3142	965.332	78.4683	965.332	78.3395	965.332	76.9694	965.332	76.6463	965.332	75.252	965.332	74.7154	965.332	73.9018	965.332	73.4969	965.332	74.0705	965.332	73.9402	965.332	75.6728	965.332	73.4301	965.332	75.7037	965.332	70.853	965.332	73.7097	965.332	68.7735	965.332	70.3962	965.332	69.2155	965.332	68.0417	965.332	73.1153	965.332	71.3179	965.332	75.3252	965.332	73.4629	965.332	74.8407
1,000.49	81.2947	1,000.49	81.1219	1,000.49	81.4979	1,000.49	81.1083	1,000.49	81.3853	1,000.49	80.9126	1,000.49	80.9599	1,000.49	80.4233	1,000.49	80.4001	1,000.49	79.8587	1,000.49	79.5838	1,000.49	78.7807	1,000.49	78.6444	1,000.49	76.9977	1,000.49	77.4199	1,000.49	75.2746	1,000.49	74.9543	1,000.49	74.3447	1,000.49	72.0669	1,000.49	74.6773	1,000.49	71.5726	1,000.49	74.8729	1,000.49	72.0452	1,000.49	74.4714	1,000.49	72.2334	1,000.49	72.2989	1,000.49	70.8092	1,000.49	64.4387	1,000.49	65.5162	1,000.49	60.0018	1,000.49	54.7826	1,000.49	68.108	1,000.49	67.4273	1,000.49	72.3541	1,000.49	73.4653	1,000.49	74.7377
1,035.64	81.0364	1,035.64	80.9325	1,035.64	80.6703	1,035.64	80.4474	1,035.64	80.0406	1,035.64	79.903	1,035.64	79.3126	1,035.64	79.2678	1,035.64	78.4736	1,035.64	78.4004	1,035.64	77.7087	1,035.64	77.7787	1,035.64	76.9753	1,035.64	76.9668	1,035.64	75.8993	1,035.64	75.4357	1,035.64	74.3636	1,035.64	74.1747	1,035.64	72.4965	1,035.64	73.3339	1,035.64	71.1086	1,035.64	74.2233	1,035.64	72.1668	1,035.64	75.203	1,035.64	73.5913	1,035.64	73.6093	1,035.64	72.9707	1,035.64	69.3972	1,035.64	70.6938	1,035.64	64.2362	1,035.64	66.5477	1,035.64	67.693	1,035.64	68.9936	1,035.64	71.3775	1,035.64	70.998	1,035.64	71.7834
1,072.27	79.6014	1,072.27	79.8652	1,072.27	79.4069	1,072.27	79.8469	1,072.27	79.4119	1,072.27	79.4696	1,072.27	79.1024	1,072.27	78.7604	1,072.27	78.4518	1,072.27	78.0553	1,072.27	77.6373	1,072.27	77.227	1,072.27	76.7701	1,072.27	75.9408	1,072.27	76.1378	1,072.27	73.6317	1,072.27	74.8652	1,072.27	70.9497	1,072.27	72.4284	1,072.27	71.4912	1,072.27	71.556	1,072.27	71.8306	1,072.27	72.9267	1,072.27	72.2578	1,072.27	73.8927	1,072.27	71.743	1,072.27	73.2692	1,072.27	68.1936	1,072.27	69.2004	1,072.27	59.7239	1,072.27	61.1679	1,072.27	64.7376	1,072.27	58.7828	1,072.27	68.7741	1,072.27	68.5684	1,072.27	69.9314
1,108.89	79.687	1,108.89	79.4671	1,108.89	79.6792	1,108.89	79.1051	1,108.89	79.135	1,108.89	78.5197	1,108.89	78.3593	1,108.89	77.8412	1,108.89	77.4759	1,108.89	77.3299	1,108.89	76.5225	1,108.89	76.7048	1,108.89	75.8432	1,108.89	75.3974	1,108.89	75.0803	1,108.89	73.7201	1,108.89	74.2456	1,108.89	71.7375	1,108.89	72.2257	1,108.89	70.7735	1,108.89	69.6355	1,108.89	72.0603	1,108.89	69.2691	1,108.89	73.1147	1,108.89	69.9194	1,108.89	72.3758	1,108.89	70.5384	1,108.89	68.9437	1,108.89	68.2236	1,108.89	64.0963	1,108.89	61.1293	1,108.89	67.7252	1,108.89	66.2987	1,108.89	70.7741	1,108.89	69.4045	1,108.89	71.2275
1,148.44	79.3035	1,148.44	79.2145	1,148.44	78.9055	1,148.44	78.5765	1,148.44	78.5658	1,148.44	77.9661	1,148.44	78.0691	1,148.44	77.4097	1,148.44	77.3465	1,148.44	76.3294	1,148.44	76.4579	1,148.44	75.6393	1,148.44	75.4649	1,148.44	75.2755	1,148.44	75.3031	1,148.44	73.8572	1,148.44	74.9319	1,148.44	71.3279	1,148.44	73.1094	1,148.44	69.0635	1,148.44	70.2572	1,148.44	70.0189	1,148.44	70.3545	1,148.44	71.6137	1,148.44	71.8474	1,148.44	72.2629	1,148.44	71.6374	1,148.44	69.0101	1,148.44	68.9973	1,148.44	62.7749	1,148.44	62.2899	1,148.44	65.3775	1,148.44	61.8654	1,148.44	69.7529	1,148.44	68.0852	1,148.44	70.3826
1,189.45	80.2046	1,189.45	80.0621	1,189.45	80.1614	1,189.45	79.4881	1,189.45	79.7147	1,189.45	78.8675	1,189.45	78.9447	1,189.45	77.9176	1,189.45	78.3083	1,189.45	76.6379	1,189.45	77.3034	1,189.45	75.8555	1,189.45	76.3611	1,189.45	74.7953	1,189.45	75.673	1,189.45	73.5829	1,189.45	74.777	1,189.45	70.8433	1,189.45	74.0729	1,189.45	69.3458	1,189.45	72.0527	1,189.45	70.2181	1,189.45	70.6764	1,189.45	71.2161	1,189.45	70.6379	1,189.45	71.4281	1,189.45	71.2815	1,189.45	68.7991	1,189.45	68.5653	1,189.45	64.2063	1,189.45	60.6694	1,189.45	66.8587	1,189.45	64.6994	1,189.45	69.7567	1,189.45	69.2937	1,189.45	70.8155
1,230.47	81.0584	1,230.47	80.6838	1,230.47	80.7745	1,230.47	80.1074	1,230.47	80.2959	1,230.47	79.4657	1,230.47	79.7119	1,230.47	78.9792	1,230.47	78.5353	1,230.47	78.3115	1,230.47	77.3785	1,230.47	77.1219	1,230.47	76.5371	1,230.47	76.423	1,230.47	75.5068	1,230.47	75.7416	1,230.47	74.3551	1,230.47	73.7208	1,230.47	73.2851	1,230.47	70.3609	1,230.47	72.1144	1,230.47	69.2338	1,230.47	71.7045	1,230.47	70.9541	1,230.47	70.9117	1,230.47	71.7625	1,230.47	69.7023	1,230.47	68.9064	1,230.47	67.4215	1,230.47	60.9175	1,230.47	58.5885	1,230.47	67.0972	1,230.47	66.4742	1,230.47	72.2558	1,230.47	70.6948	1,230.47	72.8742
1,274.41	81.1111	1,274.41	81.0636	1,274.41	80.7809	1,274.41	80.6654	1,274.41	80.4755	1,274.41	80.1512	1,274.41	80.0121	1,274.41	79.2802	1,274.41	79.074	1,274.41	78.3524	1,274.41	78.323	1,274.41	77.6525	1,274.41	77.5019	1,274.41	76.6408	1,274.41	76.5177	1,274.41	76.3618	1,274.41	75.1608	1,274.41	75.5952	1,274.41	74.0369	1,274.41	72.1021	1,274.41	72.6934	1,274.41	69.8429	1,274.41	71.4626	1,274.41	71.5445	1,274.41	70.8455	1,274.41	71.0723	1,274.41	71.8872	1,274.41	68.0371	1,274.41	70.7525	1,274.41	59.3912	1,274.41	63.0519	1,274.41	67.3923	1,274.41	65.1467	1,274.41	71.4551	1,274.41	70.9116	1,274.41	72.2014
1,319.82	80.8193	1,319.82	80.6545	1,319.82	80.7318	1,319.82	80.6931	1,319.82	80.3155	1,319.82	80.0514	1,319.82	79.9892	1,319.82	78.9668	1,319.82	79.4095	1,319.82	77.9747	1,319.82	78.2683	1,319.82	76.5641	1,319.82	77.0356	1,319.82	75.499	1,319.82	75.7571	1,319.82	75.3202	1,319.82	73.607	1,319.82	74.4257	1,319.82	71.72	1,319.82	71.1961	1,319.82	70.7674	1,319.82	69.0912	1,319.82	70.2747	1,319.82	71.0025	1,319.82	70.71	1,319.82	71.5295	1,319.82	70.7644	1,319.82	68.6676	1,319.82	68.522	1,319.82	59.3949	1,319.82	61.7144	1,319.82	66.7849	1,319.82	65.2126	1,319.82	72.3422	1,319.82	70.8757	1,319.82	73.3774
1,366.7	80.1865	1,366.7	80.014	1,366.7	80.05	1,366.7	79.5904	1,366.7	79.7232	1,366.7	79.4355	1,366.7	79.1163	1,366.7	78.6294	1,366.7	78.869	1,366.7	77.4142	1,366.7	77.6866	1,366.7	76.5664	1,366.7	76.2534	1,366.7	75.8388	1,366.7	74.8656	1,366.7	74.0651	1,366.7	73.8116	1,366.7	73.1847	1,366.7	72.4536	1,366.7	71.123	1,366.7	69.3918	1,366.7	68.4658	1,366.7	67.5465	1,366.7	67.9576	1,366.7	68.631	1,366.7	68.6679	1,366.7	69.9835	1,366.7	65.4436	1,366.7	69.6149	1,366.7	52.6374	1,366.7	63.8662	1,366.7	68.3954	1,366.7	60.0713	1,366.7	71.4701	1,366.7	69.7442	1,366.7	72.2209
1,413.57	80.8271	1,413.57	80.0404	1,413.57	80.9272	1,413.57	79.6365	1,413.57	80.3423	1,413.57	79.0637	1,413.57	80.103	1,413.57	78.1664	1,413.57	78.8901	1,413.57	77.4324	1,413.57	77.736	1,413.57	76.8571	1,413.57	76.4693	1,413.57	75.6775	1,413.57	75.5816	1,413.57	74.0964	1,413.57	75.1498	1,413.57	72.9808	1,413.57	73.2631	1,413.57	73.0041	1,413.57	70.7514	1,413.57	70.2536	1,413.57	69.776	1,413.57	69.7538	1,413.57	70.1832	1,413.57	70.6673	1,413.57	70.8388	1,413.57	68.6005	1,413.57	70.9602	1,413.57	63.3343	1,413.57	66.1175	1,413.57	56.6512	1,413.57	52.6836	1,413.57	67.6997	1,413.57	67.3794	1,413.57	68.9472
1,463.38	81.2585	1,463.38	80.951	1,463.38	81.3558	1,463.38	80.068	1,463.38	81.6172	1,463.38	79.5922	1,463.38	80.7391	1,463.38	78.4347	1,463.38	79.4837	1,463.38	78.2685	1,463.38	78.2488	1,463.38	78.0395	1,463.38	77.1508	1,463.38	76.3755	1,463.38	76.5284	1,463.38	74.9542	1,463.38	75.7538	1,463.38	74.4094	1,463.38	74.9006	1,463.38	73.8365	1,463.38	73.5977	1,463.38	69.7912	1,463.38	72.6856	1,463.38	69.6849	1,463.38	69.7806	1,463.38	72.8454	1,463.38	72.7098	1,463.38	72.5695	1,463.38	71.7505	1,463.38	65.8865	1,463.38	68.7121	1,463.38	52.3456	1,463.38	59.4939	1,463.38	66.7457	1,463.38	66.8388	1,463.38	68.5228
1,516.11	82.3797	1,516.11	81.9521	1,516.11	81.8906	1,516.11	81.4979	1,516.11	81.2347	1,516.11	80.9183	1,516.11	80.7536	1,516.11	80.5177	1,516.11	79.9917	1,516.11	79.8315	1,516.11	79.5545	1,516.11	78.603	1,516.11	78.0064	1,516.11	76.9044	1,516.11	76.1002	1,516.11	76.261	1,516.11	75.6804	1,516.11	75.0046	1,516.11	75.3665	1,516.11	72.5389	1,516.11	74.0384	1,516.11	67.646	1,516.11	71.6821	1,516.11	66.6121	1,516.11	69.3692	1,516.11	70.3493	1,516.11	70.6795	1,516.11	70.2656	1,516.11	68.8822	1,516.11	66.6637	1,516.11	60.8162	1,516.11	60.7151	1,516.11	64.4532	1,516.11	69.4924	1,516.11	68.613	1,516.11	70.7526
1,568.85	80.9033	1,568.85	80.8682	1,568.85	81.4342	1,568.85	80.6866	1,568.85	80.5108	1,568.85	80.5671	1,568.85	78.5685	1,568.85	79.7853	1,568.85	78.6751	1,568.85	78.9292	1,568.85	78.7999	1,568.85	75.879	1,568.85	77.5535	1,568.85	73.9415	1,568.85	75.4542	1,568.85	73.0667	1,568.85	72.9984	1,568.85	73.2385	1,568.85	71.9945	1,568.85	72.7931	1,568.85	72.1912	1,568.85	71.2949	1,568.85	73.7348	1,568.85	70.9486	1,568.85	73.0809	1,568.85	70.1925	1,568.85	69.3825	1,568.85	70.3861	1,568.85	66.6349	1,568.85	67.7782	1,568.85	61.4366	1,568.85	59.1391	1,568.85	61.8465	1,568.85	67.606	1,568.85	68.9507	1,568.85	71.4861
1,624.51	79.23	1,624.51	79.0978	1,624.51	79.191	1,624.51	79.1006	1,624.51	78.3176	1,624.51	78.8927	1,624.51	77.4717	1,624.51	77.7669	1,624.51	77.217	1,624.51	77.2797	1,624.51	75.9242	1,624.51	75.8401	1,624.51	75.5466	1,624.51	74.9198	1,624.51	74.2222	1,624.51	70.1051	1,624.51	72.0157	1,624.51	71.0538	1,624.51	68.9454	1,624.51	70.0082	1,624.51	69.5089	1,624.51	70.0332	1,624.51	69.4156	1,624.51	67.4503	1,624.51	68.3291	1,624.51	67.7747	1,624.51	66.5716	1,624.51	68.7052	1,624.51	67.2215	1,624.51	66.4223	1,624.51	67.5686	1,624.51	56.3489	1,624.51	59.5552	1,624.51	62.439	1,624.51	64.4692	1,624.51	64.9963
1,681.64	79.0539	1,681.64	79.3889	1,681.64	79.7309	1,681.64	79.4735	1,681.64	77.6259	1,681.64	79.4547	1,681.64	77.9789	1,681.64	79.1911	1,681.64	77.9286	1,681.64	78.0527	1,681.64	75.2653	1,681.64	76.4928	1,681.64	75.4122	1,681.64	74.6145	1,681.64	72.9258	1,681.64	75.6703	1,681.64	73.2761	1,681.64	74.339	1,681.64	69.6117	1,681.64	68.3985	1,681.64	70.4011	1,681.64	68.6777	1,681.64	68.8535	1,681.64	67.8139	1,681.64	61.324	1,681.64	67.9944	1,681.64	69.4459	1,681.64	68.787	1,681.64	70.8909	1,681.64	65.5636	1,681.64	68.3999	1,681.64	46.3824	1,681.64	51.7106	1,681.64	65.5004	1,681.64	65.1091	1,681.64	67.6499
1,741.7	79.6574	1,741.7	80.5504	1,741.7	79.3372	1,741.7	79.5953	1,741.7	79.4815	1,741.7	78.9777	1,741.7	79.1407	1,741.7	78.0582	1,741.7	77.8315	1,741.7	78.0519	1,741.7	76.5073	1,741.7	76.5396	1,741.7	76.9838	1,741.7	74.1029	1,741.7	75.0549	1,741.7	72.6316	1,741.7	73.8456	1,741.7	71.9334	1,741.7	74.2554	1,741.7	69.7953	1,741.7	71.449	1,741.7	69.837	1,741.7	68.3854	1,741.7	65.9594	1,741.7	67.3979	1,741.7	65.6535	1,741.7	64.4175	1,741.7	66.6858	1,741.7	64.9666	1,741.7	66.0714	1,741.7	64.741	1,741.7	56.2627	1,741.7	66.162	1,741.7	60.2057	1,741.7	68.4793	1,741.7	67.6302
1,803.22	81.4691	1,803.22	81.4641	1,803.22	81.903	1,803.22	81.6535	1,803.22	81.4447	1,803.22	80.2075	1,803.22	81.3126	1,803.22	79.5663	1,803.22	79.6116	1,803.22	79.2903	1,803.22	79.5468	1,803.22	77.2539	1,803.22	77.2081	1,803.22	76.5807	1,803.22	76.5974	1,803.22	73.3606	1,803.22	76.3122	1,803.22	72.8655	1,803.22	74.2158	1,803.22	71.7282	1,803.22	73.926	1,803.22	69.9611	1,803.22	71.8043	1,803.22	70.0483	1,803.22	69.2363	1,803.22	61.3222	1,803.22	71.89	1,803.22	71.284	1,803.22	71.7249	1,803.22	69.979	1,803.22	67.7039	1,803.22	58.6889	1,803.22	60.2668	1,803.22	68.962	1,803.22	65.8349	1,803.22	68.5532
1,866.21	80.7763	1,866.21	81.5834	1,866.21	80.7383	1,866.21	81.341	1,866.21	80.9882	1,866.21	80.7808	1,866.21	80.0238	1,866.21	79.5774	1,866.21	78.7024	1,866.21	79.4912	1,866.21	78.7728	1,866.21	77.62	1,866.21	78.1248	1,866.21	76.2354	1,866.21	75.2898	1,866.21	74.0102	1,866.21	75.1827	1,866.21	73.9909	1,866.21	74.4358	1,866.21	71.7415	1,866.21	71.9674	1,866.21	70.227	1,866.21	70.2515	1,866.21	67.2406	1,866.21	67.0404	1,866.21	61.398	1,866.21	68.6002	1,866.21	63.4965	1,866.21	66.1816	1,866.21	67.9866	1,866.21	70.3601	1,866.21	64.7972	1,866.21	62.3713	1,866.21	64.6111	1,866.21	64.2394	1,866.21	68.4796
1,932.13	80.3137	1,932.13	80.6392	1,932.13	80.5744	1,932.13	80.3062	1,932.13	79.9105	1,932.13	79.5607	1,932.13	79.7929	1,932.13	79.0315	1,932.13	79.3998	1,932.13	78.5046	1,932.13	78.7755	1,932.13	77.289	1,932.13	77.4121	1,932.13	75.6522	1,932.13	75.5514	1,932.13	72.7406	1,932.13	73.7654	1,932.13	71.3779	1,932.13	71.9002	1,932.13	71.6164	1,932.13	70.7455	1,932.13	70.2799	1,932.13	67.9012	1,932.13	68.3338	1,932.13	67.2039	1,932.13	67.446	1,932.13	61.418	1,932.13	69.9581	1,932.13	68.5908	1,932.13	67.4168	1,932.13	66.3056	1,932.13	59.6538	1,932.13	62.7983	1,932.13	60.6362	1,932.13	52.1687	1,932.13	66.1012
1,999.51	81.1629	1,999.51	81.228	1,999.51	81.1682	1,999.51	80.6248	1,999.51	81.0202	1,999.51	79.9302	1,999.51	80.2817	1,999.51	78.6058	1,999.51	79.6253	1,999.51	77.1919	1,999.51	78.4145	1,999.51	76.2264	1,999.51	77.8458	1,999.51	74.193	1,999.51	75.7993	1,999.51	72.0568	1,999.51	73.8983	1,999.51	70.477	1,999.51	72.3178	1,999.51	68.3447	1,999.51	70.8118	1,999.51	66.7488	1,999.51	69.0387	1,999.51	66.5856	1,999.51	67.8099	1,999.51	64.8317	1,999.51	62.482	1,999.51	68.6308	1,999.51	66.4911	1,999.51	68.6793	1,999.51	68.9299	1,999.51	60.8351	1,999.51	62.7896	1,999.51	58.1588	1,999.51	58.1693	1,999.51	64.4906
2,069.82	82.6479	2,069.82	82.2762	2,069.82	82.4095	2,069.82	81.8129	2,069.82	82.0008	2,069.82	80.8799	2,069.82	81.1066	2,069.82	79.9	2,069.82	79.8723	2,069.82	78.3942	2,069.82	78.5885	2,069.82	76.7551	2,069.82	77.7271	2,069.82	75.5226	2,069.82	76.056	2,069.82	73.4876	2,069.82	73.7536	2,069.82	70.5479	2,069.82	72.0004	2,069.82	69.9661	2,069.82	70.4928	2,069.82	69.8416	2,069.82	69.2755	2,069.82	67.5283	2,069.82	67.8323	2,069.82	62.517	2,069.82	64.0113	2,069.82	66.4415	2,069.82	68.3565	2,069.82	66.9902	2,069.82	69.1147	2,069.82	63.7992	2,069.82	64.8664	2,069.82	54.9918	2,069.82	57.1971	2,069.82	62.1541
2,143.07	82.8263	2,143.07	82.6464	2,143.07	82.5149	2,143.07	82.265	2,143.07	82.0397	2,143.07	81.4668	2,143.07	80.9712	2,143.07	80.0621	2,143.07	79.503	2,143.07	78.6521	2,143.07	77.5967	2,143.07	76.8448	2,143.07	76.0137	2,143.07	75.2232	2,143.07	75.1544	2,143.07	73.0975	2,143.07	72.0233	2,143.07	71.2714	2,143.07	70.7474	2,143.07	70.1692	2,143.07	69.1644	2,143.07	67.9777	2,143.07	67.0512	2,143.07	68.9076	2,143.07	65.8075	2,143.07	65.3866	2,143.07	62.5677	2,143.07	66.1718	2,143.07	63.5208	2,143.07	68.1268	2,143.07	66.9776	2,143.07	63.5812	2,143.07	62.669	2,143.07	58.2171	2,143.07	55.588	2,143.07	62.1184
2,219.24	82.2413	2,219.24	82.1296	2,219.24	82.1715	2,219.24	81.5666	2,219.24	81.5971	2,219.24	80.7896	2,219.24	80.7435	2,219.24	79.2799	2,219.24	79.4205	2,219.24	77.5938	2,219.24	77.423	2,219.24	75.9316	2,219.24	74.824	2,219.24	74.2063	2,219.24	73.701	2,219.24	72.8153	2,219.24	71.3651	2,219.24	68.6512	2,219.24	68.605	2,219.24	68.4297	2,219.24	67.298	2,219.24	67.4883	2,219.24	64.7763	2,219.24	64.7076	2,219.24	66.3238	2,219.24	63.2198	2,219.24	64.076	2,219.24	64.1469	2,219.24	60.9102	2,219.24	66.2283	2,219.24	65.3534	2,219.24	60.3149	2,219.24	63.6535	2,219.24	51.4513	2,219.24	50.8947	2,219.24	56.3376
2,296.88	82.5988	2,296.88	82.1508	2,296.88	82.3818	2,296.88	81.4416	2,296.88	81.8823	2,296.88	80.2998	2,296.88	81.0061	2,296.88	79.1314	2,296.88	79.5543	2,296.88	76.9115	2,296.88	77.5493	2,296.88	73.9422	2,296.88	74.9395	2,296.88	71.7664	2,296.88	72.6652	2,296.88	69.762	2,296.88	70.8902	2,296.88	68.4841	2,296.88	68.7432	2,296.88	65.5118	2,296.88	67.7112	2,296.88	63.3543	2,296.88	65.5317	2,296.88	63.6106	2,296.88	65.0047	2,296.88	59.9497	2,296.88	65.0708	2,296.88	62.0717	2,296.88	63.2856	2,296.88	64.8847	2,296.88	65.6645	2,296.88	58.8278	2,296.88	61.4062	2,296.88	53.6738	2,296.88	45.5796	2,296.88	60.2716
2,378.91	82.6651	2,378.91	82.4499	2,378.91	82.4068	2,378.91	81.6656	2,378.91	81.7231	2,378.91	80.6479	2,378.91	80.6489	2,378.91	79.2374	2,378.91	79.0351	2,378.91	77.3098	2,378.91	77.2066	2,378.91	74.6673	2,378.91	74.2781	2,378.91	72.3866	2,378.91	71.96	2,378.91	70.5286	2,378.91	69.7041	2,378.91	67.5869	2,378.91	67.2107	2,378.91	66.1553	2,378.91	65.2745	2,378.91	63.54	2,378.91	64.7767	2,378.91	63.9786	2,378.91	62.9659	2,378.91	64.0981	2,378.91	65.2689	2,378.91	59.2019	2,378.91	60.8552	2,378.91	64.6737	2,378.91	64.1723	2,378.91	61.1599	2,378.91	61.0778	2,378.91	51.7145	2,378.91	48.8345	2,378.91	59.227
2,462.4	82.4626	2,462.4	81.9855	2,462.4	81.9612	2,462.4	81.318	2,462.4	81.2076	2,462.4	80.1628	2,462.4	80.0004	2,462.4	78.4612	2,462.4	78.2267	2,462.4	76.548	2,462.4	76.3739	2,462.4	73.4528	2,462.4	73.4332	2,462.4	71.4616	2,462.4	70.4674	2,462.4	67.1515	2,462.4	68.7787	2,462.4	66.1701	2,462.4	66.7187	2,462.4	65.8278	2,462.4	63.8946	2,462.4	64.8464	2,462.4	63.3028	2,462.4	60.9534	2,462.4	60.71	2,462.4	64.1233	2,462.4	64.2121	2,462.4	61.3824	2,462.4	58.7806	2,462.4	62.804	2,462.4	63.0745	2,462.4	57.7286	2,462.4	61.004	2,462.4	50.9501	2,462.4	47.5874	2,462.4	55.7329
2,548.83	82.5831	2,548.83	82.0421	2,548.83	82.3914	2,548.83	81.1169	2,548.83	81.5225	2,548.83	79.8234	2,548.83	80.0386	2,548.83	77.814	2,548.83	77.9629	2,548.83	75.3611	2,548.83	75.8841	2,548.83	72.2262	2,548.83	73.2156	2,548.83	69.0664	2,548.83	70.3924	2,548.83	66.5439	2,548.83	68.5104	2,548.83	65.8744	2,548.83	66.7424	2,548.83	63.1503	2,548.83	64.2939	2,548.83	64.7271	2,548.83	65.3583	2,548.83	58.6082	2,548.83	61.1353	2,548.83	62.736	2,548.83	63.1966	2,548.83	58.1152	2,548.83	59.575	2,548.83	60.3904	2,548.83	60.508	2,548.83	58.4637	2,548.83	61.9456	2,548.83	43.1562	2,548.83	51.5811	2,548.83	53.7219
2,639.65	82.7168	2,639.65	82.5715	2,639.65	82.4707	2,639.65	81.4453	2,639.65	81.3574	2,639.65	79.7203	2,639.65	79.6278	2,639.65	77.6355	2,639.65	77.2556	2,639.65	75.431	2,639.65	74.6587	2,639.65	72.293	2,639.65	71.5984	2,639.65	69.0891	2,639.65	68.3597	2,639.65	68.4892	2,639.65	66.9152	2,639.65	65.0826	2,639.65	65.2384	2,639.65	64.0264	2,639.65	63.2115	2,639.65	62.7421	2,639.65	64.3926	2,639.65	60.6859	2,639.65	61.6385	2,639.65	62.0889	2,639.65	61.3282	2,639.65	61.9552	2,639.65	61.1856	2,639.65	60.8451	2,639.65	60.917	2,639.65	57.2473	2,639.65	60.3838	2,639.65	54.7747	2,639.65	46.9736	2,639.65	57.4532
2,731.93	83.4696	2,731.93	83.3926	2,731.93	83.3524	2,731.93	82.0914	2,731.93	82.324	2,731.93	80.3229	2,731.93	80.4901	2,731.93	77.9136	2,731.93	77.957	2,731.93	75.3607	2,731.93	75.1873	2,731.93	73.0825	2,731.93	72.892	2,731.93	68.6842	2,731.93	69.3066	2,731.93	68.1791	2,731.93	67.6753	2,731.93	66.5958	2,731.93	65.76	2,731.93	65.1476	2,731.93	64.4567	2,731.93	63.1715	2,731.93	63.6326	2,731.93	63.3863	2,731.93	63.8373	2,731.93	60.617	2,731.93	57.9368	2,731.93	64.1253	2,731.93	61.1219	2,731.93	65.0704	2,731.93	63.8542	2,731.93	63.0398	2,731.93	65.5807	2,731.93	51.2868	2,731.93	55.3096	2,731.93	58.4945
2,828.61	84.8396	2,828.61	84.1951	2,828.61	84.4166	2,828.61	82.7184	2,828.61	83.3041	2,828.61	80.5968	2,828.61	81.3086	2,828.61	77.4803	2,828.61	78.8171	2,828.61	74.2799	2,828.61	75.4179	2,828.61	72.1595	2,828.61	72.4364	2,828.61	68.3569	2,828.61	69.8166	2,828.61	66.5912	2,828.61	66.6846	2,828.61	64.5874	2,828.61	65.8432	2,828.61	61.8959	2,828.61	65.5032	2,828.61	62.1753	2,828.61	63.4961	2,828.61	62.8534	2,828.61	63.8636	2,828.61	62.6945	2,828.61	62.3541	2,828.61	59.8417	2,828.61	62.8482	2,828.61	61.4538	2,828.61	60.4952	2,828.61	62.3016	2,828.61	63.8595	2,828.61	50.7714	2,828.61	54.3986	2,828.61	54.4253
2,928.22	84.8114	2,928.22	84.186	2,928.22	84.3683	2,928.22	82.6788	2,928.22	82.8415	2,928.22	80.0866	2,928.22	80.3003	2,928.22	76.9331	2,928.22	77.4507	2,928.22	73.4837	2,928.22	74.1598	2,928.22	70.8163	2,928.22	70.3197	2,928.22	68.5815	2,928.22	68.233	2,928.22	65.6806	2,928.22	65.3557	2,928.22	63.3993	2,928.22	65.0017	2,928.22	62.8635	2,928.22	65.1389	2,928.22	63.6641	2,928.22	63.3121	2,928.22	63.6208	2,928.22	60.908	2,928.22	60.2795	2,928.22	62.3274	2,928.22	62.4194	2,928.22	63.9884	2,928.22	59.7126	2,928.22	60.3193	2,928.22	62.3101	2,928.22	61.0396	2,928.22	51.8944	2,928.22	46.8625	2,928.22	50.026
3,030.76	85.2244	3,030.76	84.4408	3,030.76	84.6733	3,030.76	82.834	3,030.76	83.3753	3,030.76	80.0977	3,030.76	80.8432	3,030.76	76.2569	3,030.76	77.4612	3,030.76	71.5976	3,030.76	73.6651	3,030.76	68.0825	3,030.76	71.148	3,030.76	68.0742	3,030.76	69.255	3,030.76	63.194	3,030.76	66.8232	3,030.76	65.8949	3,030.76	65.9672	3,030.76	63.2801	3,030.76	64.5481	3,030.76	63.25	3,030.76	61.7873	3,030.76	63.4402	3,030.76	62.3002	3,030.76	59.5234	3,030.76	59.1458	3,030.76	64.4572	3,030.76	63.4155	3,030.76	60.7604	3,030.76	61.6681	3,030.76	62.1346	3,030.76	61.5442	3,030.76	53.8249	3,030.76	56.6177	3,030.76	52.8039
3,137.7	85.825	3,137.7	84.9929	3,137.7	85.4055	3,137.7	83.544	3,137.7	83.7726	3,137.7	80.7541	3,137.7	81.4147	3,137.7	77.261	3,137.7	77.8165	3,137.7	71.924	3,137.7	74.0759	3,137.7	68.3977	3,137.7	70.5013	3,137.7	65.7542	3,137.7	68.9435	3,137.7	65.5616	3,137.7	67.9723	3,137.7	66.0545	3,137.7	66.2827	3,137.7	65.3408	3,137.7	65.8126	3,137.7	62.9857	3,137.7	62.1627	3,137.7	63.5643	3,137.7	65.932	3,137.7	55.7809	3,137.7	50.2743	3,137.7	64.5676	3,137.7	64.3634	3,137.7	60.2714	3,137.7	59.3613	3,137.7	62.0621	3,137.7	62.1367	3,137.7	47.8377	3,137.7	59.3909	3,137.7	43.8286
3,249.02	85.1045	3,249.02	84.4121	3,249.02	84.8012	3,249.02	82.6994	3,249.02	82.8772	3,249.02	79.6793	3,249.02	80.388	3,249.02	76.0992	3,249.02	76.7593	3,249.02	73.0055	3,249.02	73.2627	3,249.02	67.8218	3,249.02	68.8732	3,249.02	66.2532	3,249.02	66.6479	3,249.02	67.5347	3,249.02	66.8832	3,249.02	65.1858	3,249.02	66.1486	3,249.02	65.2215	3,249.02	65.2036	3,249.02	61.5033	3,249.02	63.3825	3,249.02	62.681	3,249.02	64.2331	3,249.02	58.2089	3,249.02	59.8675	3,249.02	62.5234	3,249.02	63.4176	3,249.02	58.3038	3,249.02	58.6135	3,249.02	60.3599	3,249.02	60.1447	3,249.02	54.2821	3,249.02	56.9175	3,249.02	44.4823
3,363.28	85.2518	3,363.28	84.5701	3,363.28	84.7894	3,363.28	82.4973	3,363.28	82.8416	3,363.28	79.4545	3,363.28	79.9888	3,363.28	75.602	3,363.28	76.1833	3,363.28	72.7343	3,363.28	72.6214	3,363.28	69.5398	3,363.28	68.9127	3,363.28	68.073	3,363.28	66.849	3,363.28	67.5457	3,363.28	65.8189	3,363.28	66.5605	3,363.28	65.193	3,363.28	65.0764	3,363.28	62.6992	3,363.28	61.7215	3,363.28	63.1644	3,363.28	62.4817	3,363.28	60.4953	3,363.28	59.6585	3,363.28	61.2515	3,363.28	62.705	3,363.28	61.686	3,363.28	57.2722	3,363.28	60.8389	3,363.28	58.5429	3,363.28	59.8386	3,363.28	55.8812	3,363.28	55.5885	3,363.28	47.569
3,481.93	85.526	3,481.93	84.9108	3,481.93	84.9753	3,481.93	82.5774	3,481.93	83.1934	3,481.93	79.3303	3,481.93	80.0249	3,481.93	75.6319	3,481.93	76.6307	3,481.93	72.5706	3,481.93	72.2304	3,481.93	68.667	3,481.93	69.1297	3,481.93	67.4364	3,481.93	67.0235	3,481.93	65.5831	3,481.93	66.1614	3,481.93	63.1501	3,481.93	65.2863	3,481.93	62.6246	3,481.93	63.5176	3,481.93	62.7939	3,481.93	63.6561	3,481.93	59.8945	3,481.93	60.634	3,481.93	58.7677	3,481.93	61.0179	3,481.93	61.9072	3,481.93	59.8994	3,481.93	59.2359	3,481.93	61.5854	3,481.93	57.1514	3,481.93	57.3274	3,481.93	56.7725	3,481.93	57.1928	3,481.93	53.0263
3,604.98	85.7481	3,604.98	85.1365	3,604.98	84.8339	3,604.98	82.7388	3,604.98	83.0176	3,604.98	79.3402	3,604.98	79.3441	3,604.98	75.0055	3,604.98	75.0206	3,604.98	70.7844	3,604.98	70.2286	3,604.98	68.2582	3,604.98	67.522	3,604.98	66.7857	3,604.98	65.4082	3,604.98	65.3022	3,604.98	64.5013	3,604.98	63.9237	3,604.98	63.0535	3,604.98	61.8378	3,604.98	62.4551	3,604.98	62.0792	3,604.98	61.6199	3,604.98	61.1922	3,604.98	60.4347	3,604.98	58.5129	3,604.98	59.8017	3,604.98	60.8341	3,604.98	58.1872	3,604.98	60.7581	3,604.98	61.1427	3,604.98	59.9149	3,604.98	57.9901	3,604.98	57.9151	3,604.98	55.5525	3,604.98	56.8691
3,732.42	85.4579	3,732.42	84.5212	3,732.42	84.7387	3,732.42	82.2084	3,732.42	82.5093	3,732.42	78.2904	3,732.42	78.5457	3,732.42	72.7698	3,732.42	73.2373	3,732.42	66.9237	3,732.42	67.4912	3,732.42	64.0506	3,732.42	65.1609	3,732.42	64.0273	3,732.42	65.2075	3,732.42	62.6602	3,732.42	62.6099	3,732.42	61.6325	3,732.42	62.2701	3,732.42	60.1083	3,732.42	61.7472	3,732.42	60.1859	3,732.42	61.132	3,732.42	58.7835	3,732.42	60.1441	3,732.42	56.2362	3,732.42	60.8337	3,732.42	57.6926	3,732.42	58.1885	3,732.42	59.5267	3,732.42	61.4869	3,732.42	59.1551	3,732.42	59.6869	3,732.42	51.8525	3,732.42	56.1073	3,732.42	55.9142
3,864.26	86.0875	3,864.26	85.189	3,864.26	85.137	3,864.26	82.3543	3,864.26	82.3225	3,864.26	77.3819	3,864.26	77.3559	3,864.26	70.1727	3,864.26	69.6153	3,864.26	59.2883	3,864.26	63.5871	3,864.26	64.0272	3,864.26	66.7182	3,864.26	65.3421	3,864.26	67.3567	3,864.26	65.7219	3,864.26	67.855	3,864.26	64.175	3,864.26	66.314	3,864.26	63.018	3,864.26	65.0533	3,864.26	63.2909	3,864.26	62.9896	3,864.26	60.421	3,864.26	62.0269	3,864.26	61.271	3,864.26	62.3467	3,864.26	58.2622	3,864.26	59.3957	3,864.26	63.012	3,864.26	63.8033	3,864.26	61.5523	3,864.26	61.0763	3,864.26	55.0901	3,864.26	57.0849	3,864.26	55.9994
4,000.49	87.7495	4,000.49	86.4125	4,000.49	86.509	4,000.49	82.5988	4,000.49	83.0098	4,000.49	75.6632	4,000.49	76.3011	4,000.49	67.495	4,000.49	68.6305	4,000.49	70.1874	4,000.49	71.2165	4,000.49	71.4499	4,000.49	72.659	4,000.49	70.4385	4,000.49	72.3257	4,000.49	69.8781	4,000.49	71.6226	4,000.49	67.9072	4,000.49	69.9097	4,000.49	68.5549	4,000.49	69.255	4,000.49	64.665	4,000.49	66.5858	4,000.49	63.6265	4,000.49	65.2635	4,000.49	66.0174	4,000.49	67.0415	4,000.49	61.0808	4,000.49	61.9609	4,000.49	65.5325	4,000.49	66.8592	4,000.49	62.6107	4,000.49	63.6872	4,000.49	57.9193	4,000.49	62.5055	4,000.49	58.6294
4,141.11	89.6478	4,141.11	88.1191	4,141.11	88.4819	4,141.11	83.4835	4,141.11	83.8981	4,141.11	75.9142	4,141.11	76.8992	4,141.11	73.1842	4,141.11	74.8427	4,141.11	76.4259	4,141.11	76.6858	4,141.11	75.9639	4,141.11	76.6467	4,141.11	75.0192	4,141.11	75.5018	4,141.11	73.934	4,141.11	74.278	4,141.11	72.6004	4,141.11	72.6605	4,141.11	71.9803	4,141.11	71.0334	4,141.11	69.5027	4,141.11	70.0377	4,141.11	66.258	4,141.11	67.7917	4,141.11	68.4146	4,141.11	69.3539	4,141.11	65.7351	4,141.11	65.4381	4,141.11	69.0378	4,141.11	68.6287	4,141.11	66.1646	4,141.11	66.3002	4,141.11	62.8298	4,141.11	63.9859	4,141.11	62.8891
4,287.6	90.1266	4,287.6	88.2376	4,287.6	89.0527	4,287.6	82.9858	4,287.6	83.8213	4,287.6	77.0323	4,287.6	78.5126	4,287.6	77.3058	4,287.6	79.7787	4,287.6	78.8524	4,287.6	79.9589	4,287.6	77.8118	4,287.6	78.6637	4,287.6	76.269	4,287.6	77.0969	4,287.6	73.7465	4,287.6	75.5083	4,287.6	73.1625	4,287.6	74.6709	4,287.6	71.5555	4,287.6	72.6236	4,287.6	69.9172	4,287.6	71.3002	4,287.6	68.5766	4,287.6	69.9834	4,287.6	69.2368	4,287.6	69.655	4,287.6	66.6578	4,287.6	67.5846	4,287.6	71.8653	4,287.6	71.208	4,287.6	67.9967	4,287.6	68.0361	4,287.6	64.6005	4,287.6	64.5373	4,287.6	65.502
4,438.48	88.5004	4,438.48	86.1146	4,438.48	87.376	4,438.48	80.9458	4,438.48	82.4399	4,438.48	78.1579	4,438.48	79.9262	4,438.48	80.1492	4,438.48	81.0785	4,438.48	79.6338	4,438.48	80.2242	4,438.48	76.6562	4,438.48	77.0798	4,438.48	75.5246	4,438.48	75.8864	4,438.48	74.5634	4,438.48	74.3512	4,438.48	73.4741	4,438.48	72.4869	4,438.48	70.6284	4,438.48	71.2666	4,438.48	71.2881	4,438.48	69.6587	4,438.48	67.8339	4,438.48	68.4581	4,438.48	68.4139	4,438.48	65.4174	4,438.48	66.4028	4,438.48	66.2182	4,438.48	70.809	4,438.48	69.4767	4,438.48	67.7091	4,438.48	65.8114	4,438.48	67.6628	4,438.48	65.7003	4,438.48	67.0387
4,595.21	87.268	4,595.21	85.402	4,595.21	85.3949	4,595.21	80.7741	4,595.21	82.5295	4,595.21	80.7733	4,595.21	81.5094	4,595.21	81.4064	4,595.21	81.5165	4,595.21	78.752	4,595.21	78.9161	4,595.21	76.0737	4,595.21	76.9672	4,595.21	73.3936	4,595.21	73.838	4,595.21	72.053	4,595.21	73.2446	4,595.21	71.8959	4,595.21	72.8916	4,595.21	69.8596	4,595.21	71.9896	4,595.21	68.6373	4,595.21	70.4198	4,595.21	67.5707	4,595.21	68.0483	4,595.21	68.4836	4,595.21	61.7645	4,595.21	64.4076	4,595.21	61.093	4,595.21	65.7611	4,595.21	67.703	4,595.21	65.0202	4,595.21	67.3485	4,595.21	62.962	4,595.21	66.4263	4,595.21	65.7956
4,756.35	84.9601	4,756.35	83.1326	4,756.35	82.9556	4,756.35	79.7302	4,756.35	80.6024	4,756.35	80.2102	4,756.35	81.5123	4,756.35	80.7064	4,756.35	79.8783	4,756.35	77.2743	4,756.35	77.0258	4,756.35	74.057	4,756.35	74.8427	4,756.35	72.8011	4,756.35	74.6647	4,756.35	73.3948	4,756.35	72.7425	4,756.35	71.876	4,756.35	72.1602	4,756.35	72.6446	4,756.35	70.3836	4,756.35	67.4523	4,756.35	68.7874	4,756.35	68.8049	4,756.35	65.8856	4,756.35	63.9859	4,756.35	66.7986	4,756.35	60.4096	4,756.35	64.1735	4,756.35	67.4141	4,756.35	65.1995	4,756.35	67.5582	4,756.35	68.2373	4,756.35	64.5949	4,756.35	62.4728	4,756.35	65.3578
4,924.8	85.342	4,924.8	83.0929	4,924.8	84.4804	4,924.8	82.2961	4,924.8	81.7713	4,924.8	81.5457	4,924.8	81.3796	4,924.8	78.4653	4,924.8	80.1466	4,924.8	75.0154	4,924.8	76.5554	4,924.8	73.6948	4,924.8	73.8787	4,924.8	74.6778	4,924.8	72.8255	4,924.8	74.7612	4,924.8	73.3098	4,924.8	72.4389	4,924.8	73.0229	4,924.8	70.3117	4,924.8	71.2974	4,924.8	70.3897	4,924.8	70.5541	4,924.8	69.104	4,924.8	70.2133	4,924.8	63.9973	4,924.8	68.6869	4,924.8	62.3309	4,924.8	66.3929	4,924.8	68.7194	4,924.8	67.5096	4,924.8	67.0989	4,924.8	69.1072	4,924.8	65.2581	4,924.8	64.8286	4,924.8	66.9087
5,097.66	84.3375	5,097.66	82.8904	5,097.66	83.0234	5,097.66	82.584	5,097.66	82.8226	5,097.66	81.3749	5,097.66	81.7141	5,097.66	75.738	5,097.66	79.2428	5,097.66	69.0313	5,097.66	74.8533	5,097.66	73.2052	5,097.66	72.586	5,097.66	75.5752	5,097.66	74.0062	5,097.66	74.1001	5,097.66	75.2949	5,097.66	74.4315	5,097.66	73.5278	5,097.66	70.7733	5,097.66	71.8383	5,097.66	72.7408	5,097.66	71.3657	5,097.66	71.4961	5,097.66	71.0614	5,097.66	71.2078	5,097.66	67.1639	5,097.66	65.5741	5,097.66	66.0854	5,097.66	67.6268	5,097.66	65.9243	5,097.66	68.048	5,097.66	68.0133	5,097.66	64.7654	5,097.66	65.2694	5,097.66	68.5998
5,277.83	83.9234	5,277.83	83.1564	5,277.83	82.84	5,277.83	83.1944	5,277.83	84.2896	5,277.83	83.0408	5,277.83	83.5065	5,277.83	77.3934	5,277.83	77.5834	5,277.83	75.4439	5,277.83	70.1398	5,277.83	77.085	5,277.83	75.4173	5,277.83	77.2919	5,277.83	77.702	5,277.83	77.3666	5,277.83	76.1236	5,277.83	76.7142	5,277.83	75.8917	5,277.83	74.9987	5,277.83	73.8161	5,277.83	72.9422	5,277.83	71.758	5,277.83	71.0733	5,277.83	69.0949	5,277.83	69.8517	5,277.83	69.1772	5,277.83	68.498	5,277.83	67.878	5,277.83	65.236	5,277.83	67.8196	5,277.83	67.8156	5,277.83	68.5476	5,277.83	63.1021	5,277.83	66.1789	5,277.83	67.7264
5,463.87	80.8403	5,463.87	82.4761	5,463.87	83.0893	5,463.87	85.268	5,463.87	85.0098	5,463.87	82.2785	5,463.87	83.7787	5,463.87	76.7133	5,463.87	75.7135	5,463.87	77.1326	5,463.87	75.79	5,463.87	78.2835	5,463.87	77.8677	5,463.87	77.3127	5,463.87	78.3064	5,463.87	77.8102	5,463.87	77.3075	5,463.87	74.7589	5,463.87	74.7031	5,463.87	75.68	5,463.87	73.3575	5,463.87	71.6987	5,463.87	70.4672	5,463.87	68.0911	5,463.87	70.5631	5,463.87	66.5026	5,463.87	67.8706	5,463.87	68.9946	5,463.87	66.1025	5,463.87	64.6154	5,463.87	65.5452	5,463.87	66.1915	5,463.87	67.0725	5,463.87	63.5428	5,463.87	65.1738	5,463.87	65.3287
5,657.23	77.3306	5,657.23	81.4485	5,657.23	81.5665	5,657.23	85.4061	5,657.23	84.7146	5,657.23	81.8063	5,657.23	81.8907	5,657.23	75.9859	5,657.23	76.4112	5,657.23	78.1484	5,657.23	79.1803	5,657.23	78.7927	5,657.23	79.573	5,657.23	78.9764	5,657.23	78.119	5,657.23	77.4495	5,657.23	77.3217	5,657.23	73.6648	5,657.23	74.0243	5,657.23	72.1895	5,657.23	73.3293	5,657.23	69.0707	5,657.23	70.6521	5,657.23	67.6998	5,657.23	69.7017	5,657.23	64.922	5,657.23	66.8977	5,657.23	67.3566	5,657.23	65.8951	5,657.23	64.8252	5,657.23	63.3371	5,657.23	66.649	5,657.23	65.2313	5,657.23	64.7552	5,657.23	64.9546	5,657.23	65.1248
5,856.45	78.4496	5,856.45	82.4059	5,856.45	80.6222	5,856.45	84.409	5,856.45	84.5272	5,856.45	81.0755	5,856.45	80.8363	5,856.45	77.3175	5,856.45	77.8231	5,856.45	78.8936	5,856.45	78.5005	5,856.45	78.3271	5,856.45	78.521	5,856.45	77.2106	5,856.45	77.0942	5,856.45	73.9391	5,856.45	73.2992	5,856.45	70.8998	5,856.45	72.062	5,856.45	65.9075	5,856.45	69.2177	5,856.45	66.7229	5,856.45	68.2155	5,856.45	63.955	5,856.45	65.2738	5,856.45	63.38	5,856.45	65.1293	5,856.45	50.0441	5,856.45	62.0613	5,856.45	61.9068	5,856.45	59.4178	5,856.45	63.1829	5,856.45	63.5586	5,856.45	60.0161	5,856.45	62.5156	5,856.45	61.6794
6,062.99	81.0282	6,062.99	84.1568	6,062.99	83.7918	6,062.99	84.2868	6,062.99	84.9336	6,062.99	79.7652	6,062.99	81.5126	6,062.99	79.3753	6,062.99	77.8946	6,062.99	79.5767	6,062.99	78.8326	6,062.99	77.4526	6,062.99	77.8352	6,062.99	74.9054	6,062.99	74.895	6,062.99	69.6614	6,062.99	71.0147	6,062.99	70.6734	6,062.99	71.4293	6,062.99	67.251	6,062.99	67.3199	6,062.99	66.5409	6,062.99	66.8362	6,062.99	64.0608	6,062.99	65.0675	6,062.99	66.7593	6,062.99	64.109	6,062.99	61.8081	6,062.99	62.7288	6,062.99	60.4343	6,062.99	57.0036	6,062.99	60.5606	6,062.99	63.7184	6,062.99	58.5393	6,062.99	61.219	6,062.99	60.8039
6,276.86	81.6165	6,276.86	83.6027	6,276.86	83.9303	6,276.86	83.3794	6,276.86	84.1773	6,276.86	78.3298	6,276.86	79.785	6,276.86	81.457	6,276.86	80.1248	6,276.86	80.7681	6,276.86	81.6533	6,276.86	78.2133	6,276.86	78.2281	6,276.86	72.3757	6,276.86	73.6017	6,276.86	71.6609	6,276.86	73.3257	6,276.86	68.3891	6,276.86	69.8609	6,276.86	69.4292	6,276.86	66.2887	6,276.86	65.5831	6,276.86	66.176	6,276.86	65.634	6,276.86	64.1318	6,276.86	63.8384	6,276.86	64.2743	6,276.86	65.5905	6,276.86	60.9461	6,276.86	57.8468	6,276.86	59.2948	6,276.86	60.2808	6,276.86	63.3579	6,276.86	59.9028	6,276.86	62.4223	6,276.86	60.5017
6,498.05	82.864	6,498.05	82.6136	6,498.05	82.9762	6,498.05	81.9201	6,498.05	83.2151	6,498.05	77.4105	6,498.05	76.1854	6,498.05	80.5436	6,498.05	80.2281	6,498.05	80.6853	6,498.05	81.1019	6,498.05	77.6144	6,498.05	78.221	6,498.05	74.372	6,498.05	75.6564	6,498.05	71.3586	6,498.05	71.0442	6,498.05	68.3969	6,498.05	66.9768	6,498.05	67.9573	6,498.05	67.2393	6,498.05	67.1882	6,498.05	65.486	6,498.05	63.8121	6,498.05	58.726	6,498.05	61.7581	6,498.05	61.3117	6,498.05	61.3729	6,498.05	61.4606	6,498.05	49.8434	6,498.05	45.9878	6,498.05	59.1254	6,498.05	58.8581	6,498.05	55.7132	6,498.05	58.4022	6,498.05	59.7949
6,726.56	83.5586	6,726.56	82.1783	6,726.56	83.1741	6,726.56	79.8001	6,726.56	80.9126	6,726.56	77.6191	6,726.56	77.1294	6,726.56	81.4177	6,726.56	80.9601	6,726.56	81.1269	6,726.56	80.358	6,726.56	78.1298	6,726.56	77.8597	6,726.56	76.1506	6,726.56	73.042	6,726.56	71.5225	6,726.56	69.3327	6,726.56	69.3598	6,726.56	67.0979	6,726.56	64.9013	6,726.56	67.3818	6,726.56	64.0411	6,726.56	61.8444	6,726.56	61.3867	6,726.56	62.8876	6,726.56	63.4868	6,726.56	60.0972	6,726.56	61.5268	6,726.56	59.7961	6,726.56	54.5306	6,726.56	58.7957	6,726.56	58.5608	6,726.56	57.784	6,726.56	50.1515	6,726.56	60.1802	6,726.56	59.7241
6,963.87	85.7336	6,963.87	83.4357	6,963.87	83.7676	6,963.87	79.0384	6,963.87	78.3931	6,963.87	79.064	6,963.87	77.6116	6,963.87	82.8265	6,963.87	82.7922	6,963.87	81.0045	6,963.87	81.6895	6,963.87	77.5972	6,963.87	77.3633	6,963.87	73.2923	6,963.87	72.0199	6,963.87	70.3962	6,963.87	69.7107	6,963.87	67.2795	6,963.87	67.6505	6,963.87	65.8179	6,963.87	64.0445	6,963.87	61.8437	6,963.87	62.8015	6,963.87	61.7908	6,963.87	64.315	6,963.87	60.4609	6,963.87	60.8846	6,963.87	60.7633	6,963.87	58.0938	6,963.87	60.6993	6,963.87	60.4899	6,963.87	58.5501	6,963.87	56.6287	6,963.87	55.6762	6,963.87	60.9808	6,963.87	57.416
7,209.96	86.8348	7,209.96	83.8882	7,209.96	83.5304	7,209.96	78.0655	7,209.96	78.2719	7,209.96	80.3918	7,209.96	79.5056	7,209.96	82.5928	7,209.96	82.4247	7,209.96	79.4789	7,209.96	80.6272	7,209.96	76.1156	7,209.96	76.41	7,209.96	72.0368	7,209.96	73.8772	7,209.96	70.0254	7,209.96	70.0761	7,209.96	68.0812	7,209.96	67.4222	7,209.96	67.2227	7,209.96	65.5749	7,209.96	64.0838	7,209.96	64.128	7,209.96	62.2109	7,209.96	61.8313	7,209.96	60.8195	7,209.96	57.8537	7,209.96	55.889	7,209.96	58.0725	7,209.96	58.3283	7,209.96	58.3475	7,209.96	58.2401	7,209.96	55.0481	7,209.96	54.623	7,209.96	58.0195	7,209.96	53.9845
7,464.84	87.0134	7,464.84	83.5054	7,464.84	84.3136	7,464.84	77.72	7,464.84	77.7409	7,464.84	81.7015	7,464.84	81.0904	7,464.84	82.8545	7,464.84	82.243	7,464.84	80.3876	7,464.84	79.0545	7,464.84	76.0323	7,464.84	76.7286	7,464.84	74.4845	7,464.84	74.6135	7,464.84	71.8076	7,464.84	71.1018	7,464.84	69.8439	7,464.84	69.8356	7,464.84	68.1765	7,464.84	66.2901	7,464.84	66.2953	7,464.84	64.8169	7,464.84	65.3271	7,464.84	61.4295	7,464.84	60.9966	7,464.84	60.8456	7,464.84	59.5819	7,464.84	59.6758	7,464.84	58.1558	7,464.84	58.8084	7,464.84	57.9306	7,464.84	53.6291	7,464.84	54.7885	7,464.84	54.5274	7,464.84	55.1167
7,727.05	87.5479	7,727.05	83.3958	7,727.05	84.658	7,727.05	78.0651	7,727.05	77.4585	7,727.05	82.421	7,727.05	81.6059	7,727.05	83.1898	7,727.05	82.9674	7,727.05	80.3346	7,727.05	79.5808	7,727.05	76.7215	7,727.05	76.1286	7,727.05	74.3255	7,727.05	73.0772	7,727.05	73.6345	7,727.05	71.5873	7,727.05	71.0408	7,727.05	70.7198	7,727.05	68.0648	7,727.05	67.7573	7,727.05	66.8186	7,727.05	64.6232	7,727.05	64.5716	7,727.05	64.9014	7,727.05	60.7157	7,727.05	62.6832	7,727.05	60.7727	7,727.05	60.4094	7,727.05	60.2296	7,727.05	60.4181	7,727.05	60.8856	7,727.05	59.8561	7,727.05	54.9931	7,727.05	57.2343	7,727.05	55.9043
7,999.51	87.8242	7,999.51	82.9278	7,999.51	83.7362	7,999.51	77.5408	7,999.51	77.7755	7,999.51	82.191	7,999.51	81.1435	7,999.51	83.2915	7,999.51	82.6864	7,999.51	79.8768	7,999.51	80.4953	7,999.51	77.7399	7,999.51	76.2482	7,999.51	74.9157	7,999.51	73.6111	7,999.51	72.2588	7,999.51	70.9724	7,999.51	69.8861	7,999.51	68.8753	7,999.51	68.1727	7,999.51	66.9598	7,999.51	66.4507	7,999.51	66.2924	7,999.51	63.3121	7,999.51	63.4746	7,999.51	61.453	7,999.51	61.2843	7,999.51	61.7561	7,999.51	58.7624	7,999.51	59.291	7,999.51	57.4378	7,999.51	61.029	7,999.51	57.4601	7,999.51	55.2699	7,999.51	57.4071	7,999.51	54.1479
8,282.23	85.9956	8,282.23	80.4292	8,282.23	81.3733	8,282.23	76.4133	8,282.23	75.2783	8,282.23	81.7846	8,282.23	81.4485	8,282.23	82.3811	8,282.23	81.8469	8,282.23	79.7527	8,282.23	79.3266	8,282.23	76.7679	8,282.23	76.1848	8,282.23	74.7998	8,282.23	72.5494	8,282.23	71.1362	8,282.23	71.0931	8,282.23	67.7393	8,282.23	67.8436	8,282.23	66.4775	8,282.23	66.5923	8,282.23	63.4674	8,282.23	64.6333	8,282.23	62.4561	8,282.23	61.7892	8,282.23	59.9504	8,282.23	59.2171	8,282.23	60.7222	8,282.23	59.4454	8,282.23	58.2624	8,282.23	58.0743	8,282.23	53.6568	8,282.23	53.2333	8,282.23	56.5885	8,282.23	58.5692	8,282.23	52.6837
8,573.73	82.8648	8,573.73	78.9419	8,573.73	78.6416	8,573.73	79.6022	8,573.73	78.9853	8,573.73	81.56	8,573.73	81.4839	8,573.73	81.5354	8,573.73	81.5852	8,573.73	79.4639	8,573.73	79.111	8,573.73	76.277	8,573.73	76.2394	8,573.73	72.829	8,573.73	72.9461	8,573.73	69.5029	8,573.73	69.5569	8,573.73	66.7013	8,573.73	66.8763	8,573.73	63.9232	8,573.73	63.1821	8,573.73	62.9694	8,573.73	61.5856	8,573.73	61.5574	8,573.73	62.2409	8,573.73	53.4992	8,573.73	59.361	8,573.73	56.4904	8,573.73	56.8293	8,573.73	59.3675	8,573.73	48.3297	8,573.73	52.6233	8,573.73	53.068	8,573.73	51.9388	8,573.73	58.066	8,573.73	53.5776
8,876.95	82.4757	8,876.95	80.8295	8,876.95	80.5937	8,876.95	81.414	8,876.95	81.0019	8,876.95	82.0045	8,876.95	81.5572	8,876.95	81.5194	8,876.95	80.7947	8,876.95	78.5779	8,876.95	77.9826	8,876.95	75.8352	8,876.95	74.8976	8,876.95	71.3028	8,876.95	72.6789	8,876.95	68.5737	8,876.95	67.3	8,876.95	65.9322	8,876.95	66.3358	8,876.95	63.9488	8,876.95	60.7484	8,876.95	59.8894	8,876.95	60.201	8,876.95	57.0561	8,876.95	57.2714	8,876.95	59.2019	8,876.95	50.7651	8,876.95	50.3945	8,876.95	51.33	8,876.95	55.6223	8,876.95	55.2425	8,876.95	51.238	8,876.95	50.829	8,876.95	49.781	8,876.95	52.4546	8,876.95	48.6351
9,188.96	83.0617	9,188.96	82.1637	9,188.96	82.1769	9,188.96	83.1592	9,188.96	82.8876	9,188.96	82.4428	9,188.96	82.2625	9,188.96	80.6432	9,188.96	79.785	9,188.96	77.4624	9,188.96	77.0328	9,188.96	75.0661	9,188.96	74.5785	9,188.96	70.8666	9,188.96	70.8675	9,188.96	68.0067	9,188.96	67.8164	9,188.96	63.6316	9,188.96	63.1917	9,188.96	62.7529	9,188.96	60.9013	9,188.96	59.4926	9,188.96	56.5405	9,188.96	58.7822	9,188.96	53.7456	9,188.96	56.3284	9,188.96	54.5504	9,188.96	52.5538	9,188.96	53.7853	9,188.96	53.6608	9,188.96	53.9034	9,188.96	54.7505	9,188.96	52.1095	9,188.96	55.2126	9,188.96	50.9565	9,188.96	46.6838
9,514.16	83.6509	9,514.16	82.981	9,514.16	83.1221	9,514.16	83.2564	9,514.16	83.172	9,514.16	82.0264	9,514.16	82.2872	9,514.16	79.4384	9,514.16	79.3567	9,514.16	77.5649	9,514.16	76.8205	9,514.16	74.3389	9,514.16	74.0772	9,514.16	70.3896	9,514.16	70.0718	9,514.16	66.4287	9,514.16	65.1725	9,514.16	64.5781	9,514.16	61.9843	9,514.16	60.6947	9,514.16	60.3763	9,514.16	59.6383	9,514.16	59.4565	9,514.16	56.9639	9,514.16	56.6489	9,514.16	52.3792	9,514.16	53.4723	9,514.16	52.5678	9,514.16	53.843	9,514.16	52.2527	9,514.16	50.473	9,514.16	54.917	9,514.16	45.5356	9,514.16	55.66	9,514.16	50.2794	9,514.16	47.4561
9,849.61	84.0109	9,849.61	83.5696	9,849.61	83.3775	9,849.61	83.793	9,849.61	83.7901	9,849.61	82.1071	9,849.61	82.2092	9,849.61	79.8272	9,849.61	79.2475	9,849.61	77.3244	9,849.61	77.0979	9,849.61	74.3091	9,849.61	74.4489	9,849.61	70.1018	9,849.61	68.8206	9,849.61	66.2954	9,849.61	65.8726	9,849.61	64.5217	9,849.61	63.2343	9,849.61	60.9574	9,849.61	59.4129	9,849.61	61.0922	9,849.61	58.56	9,849.61	56.4195	9,849.61	55.6996	9,849.61	45.0561	9,849.61	51.208	9,849.61	55.0685	9,849.61	50.7921	9,849.61	52.1781	9,849.61	55.0721	9,849.61	49.8083	9,849.61	51.6491	9,849.61	53.4423	9,849.61	48.1564	9,849.61	38.3592
10,196.8	83.8516	10,196.8	82.965	10,196.8	82.9491	10,196.8	84.089	10,196.8	83.8851	10,196.8	82.1437	10,196.8	82.1575	10,196.8	79.8122	10,196.8	79.7289	10,196.8	78.3396	10,196.8	78.5188	10,196.8	74.1283	10,196.8	74.4495	10,196.8	69.4507	10,196.8	69.5961	10,196.8	67.3896	10,196.8	65.247	10,196.8	63.8158	10,196.8	64.1532	10,196.8	61.7257	10,196.8	61.6723	10,196.8	59.0645	10,196.8	59.3397	10,196.8	56.6615	10,196.8	57.8392	10,196.8	53.4915	10,196.8	56.4135	10,196.8	55.6999	10,196.8	56.1132	10,196.8	54.9896	10,196.8	54.4944	10,196.8	52.7103	10,196.8	52.4164	10,196.8	53.6796	10,196.8	50.5453	10,196.8	41.5617
10,555.7	81.0034	10,555.7	81.3331	10,555.7	81.0421	10,555.7	84.6409	10,555.7	84.6288	10,555.7	81.4317	10,555.7	81.8137	10,555.7	80.923	10,555.7	80.0427	10,555.7	78.451	10,555.7	79.0287	10,555.7	73.8509	10,555.7	73.4016	10,555.7	68.7723	10,555.7	68.6027	10,555.7	66.1515	10,555.7	65.8946	10,555.7	64.7974	10,555.7	64.7897	10,555.7	63.2206	10,555.7	61.5361	10,555.7	61.3992	10,555.7	60.9878	10,555.7	58.0173	10,555.7	55.8019	10,555.7	55.2113	10,555.7	54.7006	10,555.7	54.7653	10,555.7	55.9576	10,555.7	57.0382	10,555.7	55.8901	10,555.7	57.0523	10,555.7	52.987	10,555.7	55.8826	10,555.7	49.957	10,555.7	43.7935
10,927.7	73.9319	10,927.7	81.5281	10,927.7	80.5298	10,927.7	84.9147	10,927.7	85.1455	10,927.7	80.4802	10,927.7	81.1303	10,927.7	80.9022	10,927.7	80.6435	10,927.7	78.0747	10,927.7	78.1728	10,927.7	72.5635	10,927.7	72.278	10,927.7	69.481	10,927.7	69.3289	10,927.7	67.3848	10,927.7	67.2332	10,927.7	64.9972	10,927.7	64.8484	10,927.7	61.6969	10,927.7	62.6528	10,927.7	57.2822	10,927.7	58.8058	10,927.7	55.7547	10,927.7	55.69	10,927.7	57.0951	10,927.7	61.203	10,927.7	56.4436	10,927.7	56.77	10,927.7	57.0996	10,927.7	56.0007	10,927.7	57.5582	10,927.7	52.8771	10,927.7	55.264	10,927.7	39.6069	10,927.7	35.2984
11,313	75.6892	11,313	82.8527	11,313	82.3476	11,313	84.7133	11,313	84.7849	11,313	80.9349	11,313	80.9511	11,313	80.4799	11,313	80.5527	11,313	76.152	11,313	76.6068	11,313	72.7005	11,313	71.5151	11,313	69.8743	11,313	68.7245	11,313	66.1635	11,313	66.0955	11,313	65.1401	11,313	64.3585	11,313	60.9919	11,313	60.3509	11,313	59.4385	11,313	58.7437	11,313	56.6141	11,313	56.2548	11,313	54.6916	11,313	54.2103	11,313	54.2048	11,313	54.3593	11,313	50.9325	11,313	54.3852	11,313	54.5067	11,313	52.2445	11,313	50.9957	11,313	48.3875	11,313	34.3342
11,712.9	79.5664	11,712.9	83.9594	11,712.9	83.3853	11,712.9	84.5621	11,712.9	84.62	11,712.9	82.3531	11,712.9	81.9887	11,712.9	80.5578	11,712.9	80.5282	11,712.9	75.9214	11,712.9	75.87	11,712.9	72.5674	11,712.9	71.643	11,712.9	68.4745	11,712.9	69.1368	11,712.9	64.957	11,712.9	64.9331	11,712.9	63.317	11,712.9	62.5819	11,712.9	57.1892	11,712.9	58.9097	11,712.9	57.6159	11,712.9	55.8794	11,712.9	54.8197	11,712.9	53.3231	11,712.9	52.9441	11,712.9	56.2245	11,712.9	51.5832	11,712.9	51.8219	11,712.9	51.9847	11,712.9	51.6999	11,712.9	52.7684	11,712.9	53.326	11,712.9	51.1391	11,712.9	47.8075	11,712.9	38.2345
12,126	82.0339	12,126	84.8443	12,126	84.7224	12,126	84.3632	12,126	84.5407	12,126	81.9053	12,126	82.007	12,126	79.1612	12,126	79.0949	12,126	74.39	12,126	73.6357	12,126	70.125	12,126	69.1888	12,126	65.3167	12,126	65.3999	12,126	61.9595	12,126	60.0063	12,126	56.7718	12,126	56.4601	12,126	56.0834	12,126	51.9547	12,126	55.1955	12,126	52.7806	12,126	52.2853	12,126	49.5346	12,126	49.8228	12,126	51.518	12,126	49.3716	12,126	48.0385	12,126	43.873	12,126	47.2599	12,126	47.3823	12,126	49.2747	12,126	42.7868	12,126	40.7324	12,126	36.8251
12,553.7	80.7394	12,553.7	84.9064	12,553.7	84.5592	12,553.7	84.2117	12,553.7	84.6108	12,553.7	82.1999	12,553.7	82.0672	12,553.7	78.3282	12,553.7	78.1076	12,553.7	72.7512	12,553.7	72.7974	12,553.7	70.5877	12,553.7	69.7544	12,553.7	65.0822	12,553.7	64.7762	12,553.7	58.7234	12,553.7	56.8597	12,553.7	56.8104	12,553.7	56.2675	12,553.7	52.1038	12,553.7	51.9024	12,553.7	53.351	12,553.7	54.43	12,553.7	52.278	12,553.7	49.593	12,553.7	50.1058	12,553.7	51.2384	12,553.7	42.5805	12,553.7	44.4027	12,553.7	47.3591	12,553.7	43.2762	12,553.7	47.6608	12,553.7	46.8823	12,553.7	45.001	12,553.7	41.3956	12,553.7	42.7509
12,996.1	76.7113	12,996.1	84.4072	12,996.1	83.7851	12,996.1	83.8083	12,996.1	84.09	12,996.1	82.3039	12,996.1	82.2866	12,996.1	78.2087	12,996.1	78.0022	12,996.1	73.6379	12,996.1	73.2472	12,996.1	70.3312	12,996.1	70.4884	12,996.1	62.318	12,996.1	61.2462	12,996.1	58.036	12,996.1	58.8642	12,996.1	56.339	12,996.1	57.1913	12,996.1	54.4628	12,996.1	58.1583	12,996.1	57.2462	12,996.1	54.6675	12,996.1	52.1988	12,996.1	51.2404	12,996.1	49.8041	12,996.1	53.7789	12,996.1	43.5911	12,996.1	49.6313	12,996.1	47.5423	12,996.1	46.2394	12,996.1	46.8589	12,996.1	47.7629	12,996.1	46.2176	12,996.1	20.698	12,996.1	44.3585
13,454.6	78.2673	13,454.6	84.2857	13,454.6	83.3517	13,454.6	82.8898	13,454.6	83.1284	13,454.6	82.5171	13,454.6	82.391	13,454.6	77.7988	13,454.6	77.6307	13,454.6	74.1314	13,454.6	74.6413	13,454.6	68.9948	13,454.6	69.765	13,454.6	63.0085	13,454.6	64.5123	13,454.6	63.2559	13,454.6	65.1124	13,454.6	59.5258	13,454.6	61.8675	13,454.6	59.6911	13,454.6	60.2691	13,454.6	53.2001	13,454.6	55.759	13,454.6	52.4296	13,454.6	54.0645	13,454.6	54.5208	13,454.6	56.0219	13,454.6	45.7973	13,454.6	49.8994	13,454.6	45.5867	13,454.6	43.3579	13,454.6	46.3596	13,454.6	47.5567	13,454.6	32.4796	13,454.6	33.454	13,454.6	45.6217
13,929.2	79.6254	13,929.2	83.0374	13,929.2	82.6528	13,929.2	82.3968	13,929.2	82.1366	13,929.2	81.6707	13,929.2	81.7788	13,929.2	77.8418	13,929.2	77.3108	13,929.2	74.8007	13,929.2	75.586	13,929.2	68.1013	13,929.2	69.2647	13,929.2	67.7767	13,929.2	68.8038	13,929.2	65.4642	13,929.2	66.3459	13,929.2	61.7245	13,929.2	62.8034	13,929.2	59.1239	13,929.2	60.5257	13,929.2	54.8522	13,929.2	56.4033	13,929.2	52.0416	13,929.2	55.5445	13,929.2	51.6396	13,929.2	56.2902	13,929.2	52.2167	13,929.2	52.5188	13,929.2	47.4069	13,929.2	47.822	13,929.2	47.5303	13,929.2	50.1841	13,929.2	42.9999	13,929.2	43.703	13,929.2	42.5055
14,419.9	76.4627	14,419.9	80.1035	14,419.9	79.1527	14,419.9	81.5487	14,419.9	80.343	14,419.9	81.6198	14,419.9	81.8148	14,419.9	78.8823	14,419.9	78.1893	14,419.9	74.8222	14,419.9	75.8476	14,419.9	70.7311	14,419.9	70.4926	14,419.9	69.5548	14,419.9	70.4536	14,419.9	65.0182	14,419.9	65.6266	14,419.9	60.3211	14,419.9	61.4624	14,419.9	56.1809	14,419.9	56.8646	14,419.9	54.444	14,419.9	53.7861	14,419.9	53.8064	14,419.9	54.8164	14,419.9	53.9842	14,419.9	53.6863	14,419.9	49.6422	14,419.9	50.3286	14,419.9	46.6054	14,419.9	47.6261	14,419.9	33.4047	14,419.9	50.2525	14,419.9	42.3047	14,419.9	39.6791	14,419.9	41.6594
14,928.2	76.2717	14,928.2	72.3829	14,928.2	70.4358	14,928.2	81.5402	14,928.2	79.064	14,928.2	81.9743	14,928.2	82.0432	14,928.2	79.8655	14,928.2	79.7432	14,928.2	74.391	14,928.2	76.1052	14,928.2	73.0883	14,928.2	73.0176	14,928.2	68.4887	14,928.2	69.7264	14,928.2	61.089	14,928.2	62.2308	14,928.2	57.6963	14,928.2	59.1904	14,928.2	55.298	14,928.2	54.768	14,928.2	55.0229	14,928.2	54.814	14,928.2	51.6331	14,928.2	55.5489	14,928.2	49.7674	14,928.2	51.1198	14,928.2	44.926	14,928.2	49.268	14,928.2	42.2015	14,928.2	48.9895	14,928.2	52.1649	14,928.2	51.6831	14,928.2	46.3749	14,928.2	38.6558	14,928.2	37.0284
15,455.6	82.3579	15,455.6	68.5488	15,455.6	70.908	15,455.6	82.1086	15,455.6	78.898	15,455.6	82.5951	15,455.6	82.3536	15,455.6	80.9054	15,455.6	81.148	15,455.6	74.6394	15,455.6	75.7662	15,455.6	74.7604	15,455.6	75.1855	15,455.6	66.3925	15,455.6	67.2627	15,455.6	61.9187	15,455.6	62.9343	15,455.6	60.8635	15,455.6	60.3678	15,455.6	57.1432	15,455.6	59.047	15,455.6	56.6717	15,455.6	57.1151	15,455.6	53.3621	15,455.6	55.1885	15,455.6	53.6258	15,455.6	52.651	15,455.6	47.1123	15,455.6	49.4173	15,455.6	43.5045	15,455.6	50.9217	15,455.6	51.6019	15,455.6	53.8222	15,455.6	51.4828	15,455.6	46.5327	15,455.6	48.0296
16,000.5	84.0792	16,000.5	80.5296	16,000.5	80.875	16,000.5	81.4954	16,000.5	80.0082	16,000.5	83.0056	16,000.5	82.2676	16,000.5	81.424	16,000.5	81.4713	16,000.5	76.9029	16,000.5	76.521	16,000.5	74.228	16,000.5	74.8539	16,000.5	69.0094	16,000.5	67.3119	16,000.5	68.0437	16,000.5	67.8024	16,000.5	62.9156	16,000.5	62.9577	16,000.5	61.9055	16,000.5	60.8512	16,000.5	59.1143	16,000.5	59.1761	16,000.5	54.6849	16,000.5	55.2377	16,000.5	51.96	16,000.5	49.9537	16,000.5	44.3947	16,000.5	52.2223	16,000.5	47.328	16,000.5	53.0584	16,000.5	49.2569	16,000.5	56.5659	16,000.5	52.5759	16,000.5	47.0704	16,000.5	50.7506
16,564.5	84.9664	16,564.5	86.3562	16,564.5	86.2095	16,564.5	82.3023	16,564.5	82.8596	16,564.5	83.7404	16,564.5	83.0541	16,564.5	81.8155	16,564.5	80.5372	16,564.5	78.3932	16,564.5	78.1242	16,564.5	73.5731	16,564.5	72.0762	16,564.5	71.6549	16,564.5	71.0289	16,564.5	67.9632	16,564.5	67.9838	16,564.5	63.6672	16,564.5	60.8555	16,564.5	60.2644	16,564.5	60.9307	16,564.5	55.0394	16,564.5	55.6469	16,564.5	50.157	16,564.5	46.4757	16,564.5	47.8652	16,564.5	43.7049	16,564.5	35.2699	16,564.5	41.1002	16,564.5	46.1726	16,564.5	50.7034	16,564.5	44.5264	16,564.5	52.6283	16,564.5	52.8193	16,564.5	41.6056	16,564.5	51.6843
17,148.9	86.3512	17,148.9	87.9724	17,148.9	87.6349	17,148.9	85.0665	17,148.9	84.8875	17,148.9	84.3588	17,148.9	84.2911	17,148.9	82.0062	17,148.9	81.1248	17,148.9	77.5866	17,148.9	78.1326	17,148.9	72.4613	17,148.9	71.8635	17,148.9	69.6546	17,148.9	69.1585	17,148.9	63.0086	17,148.9	63.3371	17,148.9	58.0273	17,148.9	53.9778	17,148.9	55.5305	17,148.9	56.407	17,148.9	53.0708	17,148.9	48.2403	17,148.9	46.8264	17,148.9	46.892	17,148.9	38.1195	17,148.9	44.4423	17,148.9	29.6936	17,148.9	42.5464	17,148.9	46.0044	17,148.9	47.8271	17,148.9	40.4057	17,148.9	49.7354	17,148.9	50.4044	17,148.9	45.9147	17,148.9	51.5388
17,752.4	85.0772	17,752.4	86.6599	17,752.4	86.2112	17,752.4	85.1884	17,752.4	84.7465	17,752.4	83.2601	17,752.4	83.2365	17,752.4	80.6189	17,752.4	80.1485	17,752.4	74.4242	17,752.4	75.396	17,752.4	69.6758	17,752.4	69.6893	17,752.4	63.2507	17,752.4	63.6658	17,752.4	54.3025	17,752.4	56.4077	17,752.4	52.3416	17,752.4	49.4383	17,752.4	49.0636	17,752.4	49.6768	17,752.4	45.2998	17,752.4	45.1678	17,752.4	36.6881	17,752.4	45.7457	17,752.4	35.8925	17,752.4	41.892	17,752.4	29.8572	17,752.4	36.1168	17,752.4	39.1102	17,752.4	40.8	17,752.4	31.1115	17,752.4	42.4577	17,752.4	46.8227	17,752.4	43.7061	17,752.4	47.3765
18,379.4	83.5993	18,379.4	83.6863	18,379.4	83.2222	18,379.4	83.8741	18,379.4	83.1948	18,379.4	80.7641	18,379.4	80.3433	18,379.4	76.668	18,379.4	76.4175	18,379.4	69.7481	18,379.4	71.0961	18,379.4	63.7793	18,379.4	65.5757	18,379.4	55.4533	18,379.4	58.8018	18,379.4	48.6132	18,379.4	52.4351	18,379.4	47.5308	18,379.4	49.3465	18,379.4	38.6833	18,379.4	43.5679	18,379.4	43.9894	18,379.4	42.2305	18,379.4	37.294	18,379.4	38.0358	18,379.4	37.8267	18,379.4	36.9652	18,379.4	32.2942	18,379.4	34.0045	18,379.4	20.8412	18,379.4	28.5839	18,379.4	37.0767	18,379.4	31.756	18,379.4	40.9454	18,379.4	33.0121	18,379.4	44.1208
19,026.9	83.0679	19,026.9	81.6755	19,026.9	81.5468	19,026.9	81.8442	19,026.9	81.5589	19,026.9	78.6595	19,026.9	78.2419	19,026.9	71.5219	19,026.9	70.9017	19,026.9	66.5004	19,026.9	67.7484	19,026.9	59.6484	19,026.9	62.9404	19,026.9	56.0851	19,026.9	60.3436	19,026.9	52.7461	19,026.9	53.4238	19,026.9	51.4568	19,026.9	53.4469	19,026.9	37.1451	19,026.9	43.3746	19,026.9	45.255	19,026.9	45.0282	19,026.9	38.2466	19,026.9	42.3185	19,026.9	31.5524	19,026.9	42.3051	19,026.9	29.7944	19,026.9	22.0128	19,026.9	31.9815	19,026.9	40.1627	19,026.9	40.9041	19,026.9	42.203	19,026.9	46.4666	19,026.9	45.0073	19,026.9	49.5983
19,697.8	81.5587	19,697.8	80.53	19,697.8	80.5366	19,697.8	79.6533	19,697.8	79.744	19,697.8	76.2343	19,697.8	76.1922	19,697.8	66.4637	19,697.8	64.5741	19,697.8	64.3093	19,697.8	67.1166	19,697.8	61.0649	19,697.8	63.6972	19,697.8	57.7935	19,697.8	62.1	19,697.8	52.0784	19,697.8	53.7972	19,697.8	50.5605	19,697.8	54.287	19,697.8	41.1653	19,697.8	44.0527	19,697.8	46.5177	19,697.8	48.0112	19,697.8	39.0585	19,697.8	45.5998	19,697.8	26.9937	19,697.8	42.0667	19,697.8	24.8659	19,697.8	32.0471	19,697.8	37.8402	19,697.8	43.8137	19,697.8	42.2398	19,697.8	45.0958	19,697.8	49.3871	19,697.8	48.5397	19,697.8	51.3203
19,999.5	81.2454	19,999.5	80.5916	19,999.5	80.2665	19,999.5	78.8055	19,999.5	78.8365	19,999.5	74.5429	19,999.5	75.3683	19,999.5	64.4505	19,999.5	62.171	19,999.5	64.4376	19,999.5	67.9306	19,999.5	62.9687	19,999.5	64.5418	19,999.5	58.9689	19,999.5	61.6252	19,999.5	48.2269	19,999.5	54.0177	19,999.5	47.2964	19,999.5	53.1447	19,999.5	39.5555	19,999.5	46.3993	19,999.5	41.3608	19,999.5	48.0951	19,999.5	42.8038	19,999.5	41.2764	19,999.5	45.2243	19,999.5	46.4948	19,999.5	47.1111	19,999.5	39.672	19,999.5	41.175	19,999.5	47.3223	19,999.5	38.991	19,999.5	41.1465	19,999.5	51.7313	19,999.5	52.4287	19,999.5	51.1651
