Freq[Hz]     dBSPL  Phase[Deg]
5.00000     -5.179  -150.404
5.07273     -4.784  -147.784
5.14651     -4.440  -145.615
5.22137     -4.239  -144.703
5.29732     -4.037  -143.793
5.37437     -3.836  -142.883
5.45254     -3.635  -141.974
5.53185     -3.624  -140.973
5.61231     -3.814  -139.875
5.69394     -4.004  -138.779
5.77676     -4.195  -137.683
5.86079     -4.390  -136.523
5.94604     -4.899  -131.575
6.03252     -5.408  -126.627
6.12027     -5.916  -121.680
6.20929     -6.425  -116.735
6.29961     -6.240  -108.223
6.39124     -5.902   -98.922
6.48420     -5.564   -89.622
6.57851     -5.225   -80.323
6.67420     -4.366   -75.915
6.77128     -3.422   -72.302
6.86977     -2.478   -68.689
6.96969     -1.590   -65.504
7.07107     -1.126   -65.561
7.17392     -0.663   -65.620
7.27827     -0.199   -65.680
7.38413     -0.127   -65.624
7.49154     -0.357   -65.479
7.60050     -0.587   -65.336
7.71105     -0.937   -64.030
7.82321     -1.808   -57.614
7.93701     -2.679   -51.200
8.05245     -3.551   -44.787
8.16958     -2.943   -30.411
8.28841     -2.280   -15.738
8.40896     -1.618    -1.067
8.53128     -0.142     4.521
8.65537      1.438     8.936
8.78126      3.018    13.349
8.90899      3.902    13.969
9.03857      4.741    14.339
9.17004      5.513    14.958
9.30342      5.757    17.572
9.43874      6.000    20.185
9.57603      6.391    24.969
9.71532      7.008    33.070
9.85663      7.626    41.170
10.0000      9.083    47.221
10.1455     10.775    52.700
10.2930     12.465    56.425
10.4427     14.149    55.253
10.5946     15.833    54.080
10.7487     17.162    50.025
10.9051     18.421    45.392
11.0637     19.465    40.036
11.2246     20.281    33.916
11.3879     21.006    27.705
11.5535     21.402    21.171
11.7216     21.791    14.644
11.8921     21.773     8.670
12.0650     21.755     2.694
12.2405     21.398    -1.523
12.4186     20.997    -5.516
12.5992     20.477    -6.193
12.7825     19.930    -6.137
12.9684     19.820    -2.824
13.1570     19.810     1.246
13.3484     20.499     3.885
13.5426     21.301     6.290
13.7395     22.214     4.301
13.9394     23.088     1.826
14.1421     23.626    -3.044
14.3478     23.994    -8.011
14.5565     23.996   -13.184
14.7683     23.687   -16.932
14.9831     23.136   -19.580
15.2010     22.448   -16.570
15.4221     21.952   -11.510
15.6464     22.402    -1.683
15.8740     23.544     5.187
16.1049     25.238     9.696
16.3392     26.861     7.489
16.5768     28.267     3.755
16.8179     29.363    -1.830
17.0626     29.974    -7.832
17.3107     30.339   -13.285
17.5625     30.424   -17.818
17.8180     30.277   -19.126
18.0771     30.242   -18.089
18.3401     30.407   -14.868
18.6068     31.205   -10.538
18.8775     32.377    -8.272
19.1521     33.683    -8.023
19.4306     34.978    -9.882
19.7133     36.063   -13.356
20.0000     36.958   -17.066
20.2909     37.717   -20.532
20.5860     38.388   -23.464
20.8855     39.036   -25.710
21.1893     39.742   -27.355
21.4975     40.521   -28.935
21.8102     41.347   -30.695
22.1274     42.189   -32.716
22.4492     43.021   -34.950
22.7758     43.829   -37.266
23.1071     44.617   -39.543
23.4432     45.400   -41.750
23.7841     46.191   -43.963
24.1301     46.983   -46.282
24.4811     47.763   -48.736
24.8372     48.522   -51.294
25.1984     49.261   -53.898
25.5649     49.985   -56.522
25.9368     50.704   -59.198
26.3141     51.418   -61.997
26.6968     52.121   -64.972
27.0851     52.803   -68.120
27.4791     53.456   -71.386
27.8788     54.087   -74.705
28.2843     54.703   -78.076
28.6957     55.311   -81.559
29.1131     55.905   -85.221
29.5365     56.467   -89.067
29.9661     56.983   -93.016
30.4020     57.448   -96.927
30.8442     57.873  -100.661
31.2929     58.284  -104.222
31.7480     58.693  -107.692
32.2098     59.098  -111.168
32.6783     59.488  -114.713
33.1536     59.852  -118.287
33.6359     60.192  -121.832
34.1251     60.513  -125.308
34.6215     60.823  -128.730
35.1250     61.127  -132.138
35.6359     61.424  -135.558
36.1543     61.711  -138.988
36.6802     61.983  -142.391
37.2137     62.246  -145.712
37.7550     62.508  -148.936
38.3041     62.776  -152.083
38.8613     63.049  -155.216
39.4265     63.318  -158.329
40.0000     63.584  -161.380
40.5818     63.857  -164.390
41.1721     64.131  -167.514
41.7710     64.379  -170.814
42.3785     64.557  -174.095
42.9949     64.687  -176.982
43.6203     64.824  -179.387
44.2548     65.015   178.410
44.8985     65.236   176.043
45.5515     65.446   173.564
46.2141     65.643   171.181
46.8863     65.852   168.921
47.5683     66.084   166.633
48.2602     66.319   164.280
48.9621     66.558   161.915
49.6743     66.802   159.520
50.3968     67.047   157.070
51.1299     67.284   154.619
51.8736     67.523   152.203
52.6281     67.761   149.789
53.3936     67.993   147.374
54.1702     68.222   144.984
54.9581     68.450   142.592
55.7575     68.674   140.154
56.5685     68.895   137.652
57.3914     69.114   135.035
58.2261     69.321   132.291
59.0730     69.517   129.527
59.9323     69.716   126.829
60.8040     69.934   124.202
61.6884     70.184   121.609
62.5857     70.458   118.950
63.4960     70.726   116.239
64.4196     70.983   113.638
65.3566     71.241   111.138
66.3073     71.494   108.585
67.2717     71.719   105.974
68.2502     71.926   103.366
69.2429     72.127   100.746
70.2501     72.334    98.037
71.2719     72.551    95.226
72.3086     72.781    92.263
73.3603     73.006    89.139
74.4274     73.224    85.995
75.5099     73.433    82.776
76.6083     73.605    79.636
77.7226     73.773    76.831
78.8531     73.972    74.103
80.0000     74.182    71.338
81.1636     74.402    68.462
82.3442     74.612    65.419
83.5419     74.811    62.232
84.7570     74.985    58.874
85.9899     75.141    55.436
87.2406     75.272    51.941
88.5096     75.409    48.592
89.7970     75.575    45.096
91.1031     75.732    41.417
92.4282     75.858    37.647
93.7726     75.927    33.933
95.1366     75.938    30.508
96.5204     75.939    27.435
97.9243     75.959    24.406
99.3486     76.003    21.258
100.794     76.068    17.904
102.260     76.148    14.449
103.747     76.232    10.967
105.256     76.304     7.557
106.787     76.353     4.169
108.340     76.371     0.711
109.916     76.332    -2.804
111.515     76.268    -5.967
113.137     76.252    -8.939
114.783     76.260   -11.977
116.452     76.261   -15.051
118.146     76.249   -18.115
119.865     76.235   -21.160
121.608     76.227   -24.220
123.377     76.219   -27.277
125.171     76.211   -30.321
126.992     76.205   -33.436
128.839     76.192   -36.623
130.713     76.165   -39.824
132.615     76.119   -42.923
134.543     76.060   -45.918
136.500     76.007   -48.906
138.486     75.960   -51.857
140.500     75.897   -55.019
142.544     75.831   -58.134
144.617     75.759   -61.117
146.721     75.668   -63.753
148.855     75.637   -66.358
151.020     75.639   -69.492
153.217     75.576   -72.858
155.445     75.502   -75.704
157.706     75.484   -78.953
160.000     75.273   -82.392
162.327     75.054   -84.574
164.688     74.987   -86.417
167.084     75.050   -88.581
169.514     75.155   -92.495
171.980     74.900   -97.042
174.481     74.549   -99.183
177.019     74.415  -100.469
179.594     74.338  -102.212
182.206     74.305  -103.899
184.856     74.400  -106.009
187.545     74.495  -108.450
190.273     74.590  -111.326
193.041     74.645  -114.838
195.849     74.593  -118.225
198.697     74.597  -121.431
201.587     74.588  -125.272
204.520     74.405  -129.182
207.494     74.168  -131.631
210.512     74.021  -133.526
213.574     74.064  -136.403
216.681     73.910  -139.206
219.833     73.841  -141.422
223.030     73.801  -143.615
226.274     73.884  -146.241
229.565     73.910  -149.602
232.905     73.744  -153.083
236.292     73.643  -155.100
239.729     73.691  -157.178
243.216     73.837  -159.886
246.754     73.893  -163.925
250.343     73.793  -167.699
253.984     73.712  -170.772
257.678     73.648  -173.623
261.426     73.627  -176.608
265.229     73.624  -179.795
269.087     73.571   176.136
273.001     73.314   173.434
276.972     73.265   171.406
281.000     73.253   168.748
285.088     73.418   166.930
289.234     73.611   163.375
293.441     73.784   159.178
297.709     73.725   154.294
302.040     73.703   150.077
306.433     73.312   145.627
310.890     73.355   145.272
315.412     73.614   140.254
320.000     73.491   136.054
324.655     73.369   131.729
329.377     73.212   129.436
334.168     73.464   126.373
339.028     73.547   122.331
343.959     73.681   117.594
348.962     73.527   113.002
354.038     73.431   110.196
359.188     73.523   107.046
364.412     73.530   103.299
369.713     73.485   100.220
375.090     73.571    97.313
380.546     73.560    93.553
386.081     73.561    90.214
391.697     73.381    86.875
397.394     73.278    84.273
403.175     73.135    81.921
409.039     73.000    79.615
414.989     72.841    77.530
421.025     72.683    75.584
427.149     72.511    73.829
433.362     72.345    72.280
439.665     72.175    70.694
446.060     72.013    69.190
452.548     71.895    67.815
459.131     71.772    66.654
465.809     71.687    65.551
472.584     71.624    64.513
479.458     71.595    63.569
486.432     71.596    62.602
493.507     71.632    61.563
500.686     71.699    60.506
507.968     71.779    59.350
515.357     71.877    58.012
522.853     71.998    56.527
530.458     72.129    54.818
538.174     72.254    52.985
546.002     72.382    50.977
553.943     72.503    48.788
562.001     72.614    46.453
570.175     72.705    43.928
578.469     72.778    41.266
586.883     72.827    38.565
595.419     72.852    35.795
604.080     72.845    33.012
612.866     72.813    30.209
621.780     72.747    27.376
630.824     72.652    24.598
640.000     72.534    22.034
649.309     72.378    19.589
658.753     72.207    17.351
668.335     72.007    15.249
678.056     71.803    13.478
687.919     71.592    11.951
697.925     71.391    10.788
708.077     71.212     9.903
718.376     71.066     9.300
728.825     70.969     8.901
739.426     70.924     8.616
750.181     70.937     8.354
761.093     71.010     7.956
772.163     71.126     7.383
783.394     71.283     6.470
794.789     71.468     5.236
806.349     71.651     3.644
818.078     71.832     1.720
829.977     71.994    -0.537
842.050     72.122    -3.030
854.298     72.216    -5.714
866.724     72.265    -8.530
879.330     72.277   -11.404
892.120     72.240   -14.252
905.097     72.164   -17.027
918.262     72.050   -19.637
931.618     71.919   -22.025
945.169     71.768   -24.129
958.917     71.618   -26.004
972.864     71.490   -27.588
987.015     71.384   -29.006
1001.37     71.315   -30.354
1015.94     71.290   -31.732
1030.71     71.306   -33.238
1045.71     71.343   -35.017
1060.92     71.391   -37.121
1076.35     71.425   -39.559
1092.00     71.431   -42.283
1107.89     71.392   -45.264
1124.00     71.291   -48.351
1140.35     71.121   -51.436
1156.94     70.882   -54.400
1173.77     70.580   -57.028
1190.84     70.234   -59.167
1208.16     69.863   -60.646
1225.73     69.506   -61.448
1243.56     69.211   -61.558
1261.65     69.014   -61.195
1280.00     68.943   -60.691
1298.62     69.006   -60.386
1317.51     69.151   -60.571
1336.67     69.361   -61.402
1356.11     69.573   -62.883
1375.84     69.763   -64.886
1395.85     69.912   -67.287
1416.15     70.015   -69.882
1436.75     70.076   -72.531
1457.65     70.110   -75.168
1478.85     70.126   -77.768
1500.36     70.136   -80.352
1522.19     70.140   -83.003
1544.33     70.143   -85.724
1566.79     70.123   -88.520
1589.58     70.072   -91.354
1612.70     70.000   -94.135
1636.16     69.905   -96.730
1659.95     69.808   -99.093
1684.10     69.731  -101.258
1708.60     69.689  -103.342
1733.45     69.687  -105.508
1758.66     69.708  -107.933
1784.24     69.713  -110.650
1810.19     69.681  -113.544
1836.52     69.595  -116.422
1863.24     69.462  -119.004
1890.34     69.326  -121.098
1917.83     69.227  -122.742
1945.73     69.224  -124.227
1974.03     69.315  -125.892
2002.74     69.456  -128.054
2031.87     69.596  -130.855
2061.43     69.690  -134.066
2091.41     69.727  -137.506
2121.83     69.722  -140.907
2152.69     69.690  -144.285
2184.01     69.648  -147.796
2215.77     69.562  -151.574
2248.00     69.388  -155.527
2280.70     69.085  -159.328
2313.87     68.659  -162.405
2347.53     68.173  -164.280
2381.68     67.753  -164.844
2416.32     67.487  -164.651
2451.46     67.365  -164.496
2487.12     67.308  -164.628
2523.30     67.270  -164.704
2560.00     67.315  -164.332
2597.24     67.532  -163.941
2635.01     67.925  -164.584
2673.34     68.333  -166.931
2712.23     68.572  -170.598
2751.68     68.566  -174.437
2791.70     68.375  -177.250
2832.31     68.189  -178.644
2873.50     68.163  -179.390
2915.30     68.259   179.348
2957.70     68.321   177.270
3000.72     68.260   175.238
3044.37     68.159   174.067
3088.65     68.172   173.573
3133.58     68.332   172.642
3179.16     68.500   170.631
3225.40     68.529   168.047
3272.31     68.414   165.955
3319.91     68.279   164.884
3368.20     68.248   164.381
3417.19     68.323   163.664
3466.89     68.426   162.503
3517.32     68.512   160.959
3568.48     68.564   159.223
3620.39     68.554   157.374
3673.05     68.478   155.755
3726.47     68.385   154.667
3780.67     68.344   153.814
3835.67     68.325   152.744
3891.46     68.238   151.656
3948.06     68.121   151.190
4005.49     68.079   151.179
4063.75     68.094   150.873
4122.86     68.049   150.526
4182.82     67.991   151.114
4243.66     68.132   152.309
4305.39     68.467   152.476
4368.01     68.773   151.241
4431.55     68.943   149.467
4496.01     69.016   147.789
4561.40     69.021   146.370
4627.75     68.993   145.505
4695.06     69.042   145.146
4763.35     69.207   144.301
4832.64     69.331   142.343
4902.93     69.263   140.144
4974.24     69.090   138.945
5046.60     69.018   138.324
5120.00     68.989   136.848
5194.47     68.754   134.602
5270.03     68.199   133.612
5346.68     67.660   135.698
5424.45     67.484   138.424
5503.35     67.221   140.754
5583.40     67.140   146.833
5664.61     68.036   151.452
5747.01     68.866   149.749
5830.60     69.119   147.262
5915.41     69.191   145.826
6001.45     69.197   145.279
6088.74     69.306   145.086
6177.30     69.338   144.341
6267.15     69.342   144.402
6358.31     69.373   144.211
6450.80     69.347   144.916
6544.62     69.530   145.799
6639.82     69.766   145.674
6736.40     69.956   144.510
6834.38     69.927   143.385
6933.79     69.930   142.995
7034.64     69.879   142.393
7136.96     69.825   142.152
7240.77     69.688   142.098
7346.09     69.639   142.702
7452.94     69.569   143.066
7561.35     69.543   143.682
7671.33     69.476   144.441
7782.91     69.532   145.259
7896.12     69.579   145.668
8010.97     69.584   145.340
8127.49     69.458   145.720
8245.71     69.290   145.861
8365.65     69.064   146.842
8487.33     68.789   148.122
8610.78     68.676   149.651
8736.03     68.518   150.573
8863.09     68.323   150.772
8992.01     68.037   151.186
9122.80     67.624   151.553
9255.50     67.207   152.624
9390.12     66.792   154.537
9526.70     66.472   156.636
9665.27     66.230   158.769
9805.86     66.054   161.448
9948.49     66.041   164.060
10093.2     66.144   166.141
10240.0     66.320   167.545
10388.9     66.401   168.208
10540.1     66.303   168.596
10693.4     66.099   169.679
10848.9     65.871   172.251
11006.7     65.795   175.502
11166.8     65.784   178.506
11329.2     65.811  -178.151
11494.0     66.004  -174.225
11661.2     66.430  -171.009
11830.8     66.935  -169.420
12002.9     67.371  -169.677
12177.5     67.544  -171.041
12354.6     67.426  -171.903
12534.3     67.173  -171.136
12716.6     67.020  -168.750
12901.6     67.096  -166.169
13089.2     67.242  -164.388
13279.6     67.407  -162.941
13472.8     67.567  -161.937
13668.8     67.785  -161.211
13867.6     67.950  -161.775
14069.3     67.916  -162.659
14273.9     67.739  -162.813
14481.5     67.611  -161.853
14692.2     67.616  -161.295
14905.9     67.614  -161.498
15122.7     67.508  -162.655
15342.7     67.203  -163.602
15565.8     66.789  -164.335
15792.2     66.083  -163.427
16021.9     65.879  -159.347
16255.0     65.958  -158.938
16491.4     65.771  -159.699
16731.3     65.399  -160.443
16974.7     64.908  -160.618
17221.6     64.403  -159.934
17472.1     63.945  -158.994
17726.2     63.543  -157.913
17984.0     63.230  -157.537
18245.6     62.817  -158.474
18511.0     62.122  -159.138
18780.2     61.476  -158.691
19053.4     60.885  -158.593
19330.5     60.308  -159.365
19611.7     59.504  -161.437
19897.0     58.372  -162.719
20186.4     57.277  -163.073
20480.0     56.105  -163.843
20777.9     54.661  -167.267
21080.1     52.688  -169.840
21386.7     50.805  -172.912
21697.8     50.187   168.798
22013.4     51.396   123.173
22333.6     56.838    79.477
22658.4     63.666    44.229
22988.0     69.104     7.031
23322.4     72.933   -33.736
23661.6     74.296   -82.908
24005.8     71.766  -122.935
24355.0     68.379  -142.000
24709.2     65.907  -149.502
25068.6     64.492  -155.020
25433.2     63.191  -161.926
25803.2     61.789  -167.348
26178.5     60.486  -171.087
26559.3     58.805  -175.282
26945.6     57.031  -161.753
27337.5     58.796  -155.754
27735.2     59.792  -160.537
28138.6     60.770  -172.438
28547.9     60.276   175.478
28963.1     59.670   162.591
29384.4     58.031   146.490
29811.8     54.884   136.817
30245.4     52.646   136.321
30685.3     51.013   129.666
31131.7     49.655   122.533
31584.5     50.003   112.415
32043.9     53.875    85.091
32510.0     55.252    39.557
32982.8     54.858     7.070
33462.6     53.003   -18.788
33949.3     49.079    36.374
34443.1     63.625   -24.791
34944.1     50.706    84.864
35452.4     55.713   -14.862
35968.0     58.230   -26.376
36491.2     56.201  -135.263
37022.0     51.498    -6.521
37560.5     54.207   -26.602
38106.8     55.776   -74.132
38661.1     48.127  -102.877
39223.4     37.069   -77.311
39793.9     37.532   -20.838
