Freq[Hz]     dBSPL  Phase[Deg]
5.00000      2.313  -117.668
5.07273      2.680  -114.555
5.14651      2.994  -111.892
5.22137      3.161  -110.485
5.29732      3.328  -109.078
5.37437      3.494  -107.673
5.45254      3.661  -106.268
5.53185      3.635  -104.775
5.61231      3.406  -103.188
5.69394      3.176  -101.603
5.77676      2.946  -100.018
5.86079      2.711   -98.370
5.94604      2.159   -92.945
6.03252      1.608   -87.520
6.12027      1.057   -82.096
6.20929      0.505   -76.674
6.29961      0.646   -67.697
6.39124      0.940   -57.932
6.48420      1.234   -48.168
6.57851      1.528   -38.405
6.67420      2.343   -33.542
6.77128      3.242   -29.476
6.86977      4.141   -25.410
6.96969      4.985   -21.772
7.07107      5.405   -21.382
7.17392      5.825   -20.992
7.27827      6.246   -20.604
7.38413      6.275   -20.099
7.49154      6.003   -19.505
7.60050      5.731   -18.911
7.71105      5.340   -17.154
7.82321      4.429   -10.279
7.93701      3.518    -3.406
8.05245      2.607     3.466
8.16958      3.177    18.317
8.28841      3.802    33.465
8.40896      4.427    48.612
8.53128      5.866    54.695
8.65537      7.410    59.608
8.78126      8.954    64.520
8.90899      9.804    65.665
9.03857     10.608    66.561
9.17004     11.345    67.711
9.30342     11.554    70.883
9.43874     11.763    74.054
9.57603     12.120    79.410
9.71532     12.702    88.105
9.85663     13.285    96.799
10.0000     14.707   103.470
10.1455     16.362   109.578
10.2930     18.015   113.940
10.4427     19.661   113.432
10.5946     21.306   112.922
10.7487     22.594   109.555
10.9051     23.811   105.617
11.0637     24.811   100.969
11.2246     25.582    95.570
11.3879     26.260    90.085
11.5535     26.606    84.293
11.7216     26.944    78.509
11.8921     26.870    73.291
12.0650     26.796    68.071
12.2405     26.379    64.614
12.4186     25.918    61.383
12.5992     25.334    61.466
12.7825     24.722    62.283
12.9684     24.544    66.350
13.1570     24.466    71.172
13.3484     25.084    74.553
13.5426     25.815    77.698
13.7395     26.655    76.437
13.9394     27.456    74.687
14.1421     27.921    70.532
14.3478     28.217    66.277
14.5565     28.146    61.810
14.7683     27.764    58.764
14.9831     27.143    56.817
15.2010     26.385    60.529
15.4221     25.820    66.293
15.6464     26.202    76.829
15.8740     27.277    84.415
16.1049     28.904    89.644
16.3392     30.462    88.175
16.5768     31.803    85.187
16.8179     32.834    80.358
17.0626     33.381    75.130
17.3107     33.680    70.462
17.5625     33.698    66.725
17.8180     33.483    66.230
18.0771     33.379    68.087
18.3401     33.474    72.137
18.6068     34.200    77.304
18.8775     35.297    80.409
19.1521     36.528    81.498
19.4306     37.745    80.477
19.7133     38.750    77.835
20.0000     39.564    74.948
20.2909     40.242    72.296
20.5860     40.833    70.165
20.8855     41.400    68.710
21.1893     42.027    67.841
21.4975     42.730    67.028
21.8102     43.482    66.028
22.1274     44.255    64.765
22.4492     45.020    63.291
22.7758     45.766    61.746
23.1071     46.497    60.254
23.4432     47.226    58.854
23.7841     47.966    57.479
24.1301     48.710    56.032
24.4811     49.443    54.485
24.8372     50.157    52.874
25.1984     50.849    51.254
25.5649     51.525    49.649
25.9368     52.193    48.024
26.3141     52.853    46.301
26.6968     53.498    44.419
27.0851     54.117    42.373
27.4791     54.704    40.210
27.8788     55.266    37.985
28.2843     55.811    35.692
28.6957     56.348    33.267
29.1131     56.871    30.640
29.5365     57.366    27.808
29.9661     57.819    24.860
30.4020     58.228    21.942
30.8442     58.605    19.212
31.2929     58.976    16.680
31.7480     59.354    14.281
32.2098     59.734    11.930
32.6783     60.103     9.591
33.1536     60.448     7.303
33.6359     60.768     5.123
34.1251     61.065     3.098
34.6215     61.344     1.201
35.1250     61.606    -0.629
35.6359     61.850    -2.435
36.1543     62.072    -4.239
36.6802     62.267    -6.031
37.2137     62.445    -7.778
37.7550     62.615    -9.479
38.3041     62.788   -11.173
38.8613     62.969   -12.913
39.4265     63.150   -14.694
40.0000     63.338   -16.449
40.5818     63.543   -18.177
41.1721     63.762   -20.005
41.7710     63.963   -21.974
42.3785     64.102   -23.866
42.9949     64.197   -25.305
43.6203     64.298   -26.205
44.2548     64.454   -26.857
44.8985     64.637   -27.650
45.5515     64.806   -28.551
46.2141     64.964   -29.367
46.8863     65.140   -30.071
47.5683     65.348   -30.804
48.2602     65.572   -31.576
48.9621     65.809   -32.297
49.6743     66.065   -32.951
50.3968     66.325   -33.537
51.1299     66.576   -33.990
51.8736     66.821   -34.289
52.6281     67.050   -34.499
53.3936     67.258   -34.677
54.1702     67.446   -34.856
54.9581     67.625   -35.117
55.7575     67.801   -35.530
56.5685     67.988   -36.099
57.3914     68.196   -36.823
58.2261     68.420   -37.626
59.0730     68.659   -38.300
59.9323     68.916   -38.690
60.8040     69.191   -38.761
61.6884     69.485   -38.558
62.5857     69.777   -38.261
63.4960     70.029   -37.948
64.4196     70.242   -37.555
65.3566     70.436   -37.176
66.3073     70.620   -36.989
67.2717     70.786   -36.981
68.2502     70.950   -37.017
69.2429     71.130   -37.032
70.2501     71.327   -37.037
71.2719     71.538   -37.032
72.3086     71.758   -37.091
73.3603     71.969   -37.274
74.4274     72.172   -37.476
75.5099     72.374   -37.747
76.6083     72.552   -37.882
77.7226     72.738   -37.557
78.8531     72.958   -36.982
80.0000     73.178   -36.280
81.1636     73.388   -35.590
82.3442     73.566   -35.060
83.5419     73.722   -34.745
84.7570     73.857   -34.682
85.9899     73.987   -34.725
87.2406     74.108   -34.762
88.5096     74.244   -34.527
89.7970     74.406   -34.320
91.1031     74.547   -34.237
92.4282     74.653   -34.252
93.7726     74.709   -34.230
95.1366     74.724   -33.879
96.5204     74.741   -33.046
97.9243     74.780   -31.985
99.3486     74.831   -30.886
100.794     74.886   -29.923
102.260     74.943   -29.080
103.747     75.004   -28.308
105.256     75.065   -27.458
106.787     75.116   -26.507
108.340     75.142   -25.496
109.916     75.107   -24.421
111.515     75.042   -22.912
113.137     75.018   -21.165
114.783     75.019   -19.447
116.452     75.017   -17.724
118.146     75.007   -15.929
119.865     75.002   -14.028
121.608     75.008   -12.020
123.377     75.013    -9.861
125.171     75.006    -7.562
126.992     74.988    -5.281
128.839     74.953    -3.097
130.713     74.915    -0.960
132.615     74.876     1.334
134.543     74.838     4.018
136.500     74.804     6.944
138.486     74.761     9.388
140.500     74.699    12.100
142.544     74.642    15.349
144.617     74.587    18.241
146.721     74.510    21.546
148.855     74.486    25.438
151.020     74.489    28.770
153.217     74.426    31.837
155.445     74.354    35.391
157.706     74.343    38.513
160.000     74.148    41.990
162.327     73.948    46.770
164.688     73.895    51.375
167.084     73.974    56.196
169.514     74.093    59.830
171.980     73.844    62.805
174.481     73.504    67.567
177.019     73.397    73.205
179.594     73.349    79.056
182.206     73.325    85.509
184.856     73.428    91.399
187.545     73.548    96.444
190.273     73.662   101.655
193.041     73.734   106.122
195.849     73.727   110.726
198.697     73.779   116.326
201.587     73.766   121.316
204.520     73.572   125.905
207.494     73.367   131.874
210.512     73.266   139.177
213.574     73.324   145.533
216.681     73.184   151.251
219.833     73.154   158.109
223.030     73.150   165.643
226.274     73.258   172.697
229.565     73.318   178.980
232.905     73.190  -174.816
236.292     73.123  -167.109
239.729     73.196  -158.964
243.216     73.377  -151.529
246.754     73.476  -145.334
250.343     73.404  -138.360
253.984     73.367  -130.772
257.678     73.346  -122.830
261.426     73.357  -114.604
265.229     73.410  -106.559
269.087     73.389   -99.310
273.001     73.172   -90.923
276.972     73.187   -81.681
281.000     73.211   -72.570
285.088     73.437   -62.156
289.234     73.676   -53.453
293.441     73.926   -45.463
297.709     73.927   -37.895
302.040     73.938   -29.879
306.433     73.601   -21.627
310.890     73.706    -8.753
315.412     74.021    -0.529
320.000     73.963     8.424
324.655     73.905    17.316
329.377     73.811    28.150
334.168     74.132    39.260
339.028     74.296    49.340
343.959     74.500    58.833
348.962     74.399    68.305
354.038     74.375    79.436
359.188     74.554    90.817
364.412     74.629   102.171
369.713     74.638   113.953
375.090     74.805   125.866
380.546     74.865   137.464
386.081     74.923   149.409
391.697     74.804   161.704
397.394     74.754   175.244
403.175     74.659  -171.583
409.039     74.548  -157.926
414.989     74.409  -143.687
421.025     74.248  -129.346
427.149     74.054  -114.943
433.362     73.836  -100.469
439.665     73.607   -85.048
446.060     73.349   -69.476
452.548     73.037   -53.849
459.131     72.740   -37.697
465.809     72.406   -20.826
472.584     72.069    -3.637
479.458     71.689    13.791
486.432     71.298    31.988
493.507     70.881    50.903
500.686     70.447    70.768
507.968     70.025    90.997
515.357     69.598   111.716
522.853     69.195   133.367
530.458     68.816   155.937
538.174     68.502   179.078
546.002     68.246  -157.562
553.943     68.079  -133.317
562.001     67.992  -108.493
570.175     68.000   -83.248
578.469     68.115   -57.525
586.883     68.300   -32.233
595.419     68.521    -7.353
604.080     68.789    17.551
612.866     69.081    42.646
621.780     69.363    67.667
630.824     69.655    92.818
640.000     69.903   117.666
649.309     70.123   142.090
658.753     70.323   166.851
668.335     70.479  -167.563
678.056     70.586  -142.150
687.919     70.658  -116.459
697.925     70.679   -90.156
708.077     70.657   -63.951
718.376     70.578   -37.176
728.825     70.455    -9.896
739.426     70.304    18.108
750.181     70.080    46.776
761.093     69.826    76.116
772.163     69.542   105.809
783.394     69.231   136.382
794.789     68.889   168.278
806.349     68.544  -159.236
818.078     68.205  -126.023
829.977     67.904   -91.740
842.050     67.641   -56.538
854.298     67.443   -20.579
866.724     67.303    15.401
879.330     67.252    52.473
892.120     67.254    89.806
905.097     67.313   127.447
918.262     67.404   165.152
931.618     67.485  -156.950
945.169     67.561  -119.089
958.917     67.615   -81.010
972.864     67.622   -42.694
987.015     67.565    -4.173
1001.37     67.469    35.252
1015.94     67.285    75.272
1030.71     67.026   115.253
1045.71     66.685   156.408
1060.92     66.283  -161.141
1076.35     65.789  -118.187
1092.00     65.238   -74.246
1107.89     64.636   -28.555
1124.00     64.025    18.509
1140.35     63.440    67.101
1156.94     62.901   117.652
1173.77     62.559   169.407
1190.84     62.354  -137.805
1208.16     62.332   -84.925
1225.73     62.491   -31.635
1243.56     62.724    21.779
1261.65     63.000    74.543
1280.00     63.207   126.887
1298.62     63.365   178.654
1317.51     63.395  -128.898
1336.67     63.271   -75.832
1356.11     62.960   -22.552
1375.84     62.486    31.872
1395.85     61.809    87.853
1416.15     60.919   145.534
1436.75     59.901  -154.754
1457.65     58.771   -91.178
1478.85     57.777   -23.385
1500.36     57.237    47.272
1522.19     57.370   119.396
1544.33     58.015  -170.042
1566.79     58.857  -101.609
1589.58     59.613   -34.827
1612.70     60.168    30.343
1636.16     60.494    95.349
1659.95     60.580   160.834
1684.10     60.461  -132.630
1708.60     60.079   -64.564
1733.45     59.551     4.309
1758.66     58.828    76.130
1784.24     58.003   149.857
1810.19     57.139  -133.767
1836.52     56.265   -54.171
1863.24     55.563    29.023
1890.34     55.261   114.928
1917.83     55.550  -158.156
1945.73     56.331   -72.389
1974.03     57.380    11.852
2002.74     58.383    93.651
2031.87     59.218   173.834
2061.43     59.768  -106.768
2091.41     60.020   -27.118
2121.83     59.946    53.689
2152.69     59.542   135.092
2184.01     58.850  -141.025
2215.77     57.926   -53.965
2248.00     56.932    36.410
2280.70     56.122   130.151
2313.87     55.673  -133.751
2347.53     55.577   -36.870
2381.68     55.656    58.814
2416.32     55.677   153.956
2451.46     55.507  -110.523
2487.12     55.108   -13.776
2523.30     54.495    84.866
2560.00     53.791  -174.028
2597.24     53.000   -70.522
2635.01     52.210    35.568
2673.34     51.432   144.569
2712.23     50.698  -103.501
2751.68     50.204    12.742
2791.70     50.080   132.301
2832.31     50.528  -108.036
2873.50     51.292    10.145
2915.30     52.006   126.108
2957.70     52.361  -118.675
3000.72     52.127    -3.567
3044.37     51.081   112.581
3088.65     49.049  -127.250
3133.58     45.600     1.358
3179.16     41.606   152.939
3225.40     42.001   -38.627
3272.31     44.746   109.856
3319.91     46.081  -112.964
3368.20     45.897    25.286
3417.19     44.722   169.153
3466.89     43.002   -35.399
3517.32     42.005   133.985
3568.48     43.548   -49.230
3620.39     46.838   116.928
3673.05     49.807   -87.536
3726.47     51.771    64.770
3780.67     52.747  -141.100
3835.67     53.138    18.030
3891.46     53.531  -177.074
3948.06     54.158    -9.654
4005.49     54.738   159.321
4063.75     55.245   -28.651
4122.86     55.813   146.178
4182.82     56.529   -37.940
4243.66     57.188   139.252
4305.39     57.549   -42.825
4368.01     57.547   137.124
4431.55     57.018   -39.468
4496.01     56.041   150.015
4561.40     55.248   -11.568
4627.75     55.480  -168.979
4695.06     56.196    31.515
4763.35     56.513  -129.888
4832.64     56.163    69.588
4902.93     54.910   -87.312
4974.24     52.411   125.422
5046.60     50.228    -1.291
5120.00     51.244  -124.426
5194.47     52.293   101.288
5270.03     52.059   -28.225
5346.68     52.716  -146.917
5424.45     54.857    92.093
5503.35     56.850   -35.493
5583.40     58.080  -164.726
5664.61     58.461    68.024
5747.01     57.965   -54.895
5830.60     56.862  -168.995
5915.41     56.332    87.560
6001.45     56.760   -14.954
6088.74     57.169  -119.399
6177.30     57.145   138.238
6267.15     56.617    40.089
6358.31     56.028   -51.661
6450.80     55.730  -140.140
6544.62     55.187   134.033
6639.82     54.446    54.073
6736.40     53.625   -20.040
6834.38     53.245   -86.991
6933.79     53.483  -152.903
7034.64     53.213   142.869
7136.96     52.811    84.211
7240.77     52.350    31.724
7346.09     52.024   -15.852
7452.94     51.327   -58.057
7561.35     51.043   -89.320
7671.33     51.589  -117.958
7782.91     52.415  -145.867
7896.12     52.647  -172.315
8010.97     52.446   168.281
8127.49     52.139   156.102
8245.71     52.384   148.899
8365.65     51.920   140.641
8487.33     50.571   143.397
8610.78     49.632   157.101
8736.03     49.802   171.737
8863.09     48.721  -171.443
8992.01     47.661  -142.397
9122.80     47.546  -107.187
9255.50     46.771   -72.996
9390.12     45.997   -23.574
9526.70     45.754    26.811
9665.27     44.711    89.098
9805.86     46.232   162.857
9948.49     47.570  -134.943
10093.2     47.829   -65.755
10240.0     48.505    13.052
10388.9     48.795    90.232
10540.1     47.800   176.615
10693.4     47.390   -82.288
10848.9     47.371    19.313
11006.7     46.445   127.291
11166.8     45.247  -115.241
11329.2     43.871     9.385
11494.0     41.790   148.759
11661.2     40.496   -60.396
11830.8     41.549   105.713
12002.9     43.486  -103.237
12177.5     43.961    56.310
12354.6     45.085  -139.374
12534.3     45.792    31.844
12716.6     46.690  -152.666
12901.6     46.241    26.738
13089.2     45.446  -144.355
13279.6     42.650    49.914
13472.8     38.859   -89.924
13668.8     36.812   137.816
13867.6     32.118    23.653
14069.3     29.073   -86.968
14273.9     29.000  -150.998
14481.5     30.891    85.026
14692.2     27.167    -5.227
14905.9     29.733  -121.181
15122.7     29.761   131.076
15342.7     30.519    42.285
15565.8     28.231     3.579
15792.2     30.151   -35.426
16021.9     31.630   -50.194
16255.0     33.701   -84.301
16491.4     33.227  -124.913
16731.3     20.920    63.186
16974.7     25.915   -54.165
17221.6     25.235   -85.178
17472.1     17.228    26.987
17726.2     20.245    99.479
17984.0     22.023    77.934
18245.6     25.362   126.731
18511.0     27.683   178.790
18780.2     26.017  -130.648
19053.4     17.568   -78.400
19330.5     20.709   -31.983
19611.7     24.385   -16.852
19897.0     25.577   133.573
20186.4     27.815   -77.006
20480.0     28.909    77.782
20777.9     30.118  -101.547
21080.1     28.408    66.663
21386.7     26.508   -59.888
21697.8     30.848   156.604
22013.4     32.766     8.271
22333.6     35.281  -137.041
22658.4     35.860    93.551
22988.0     37.780   -16.997
23322.4     39.324  -149.452
23661.6     34.308   100.498
24005.8     37.738    57.736
24355.0     41.040   -11.901
24709.2     39.261   -45.568
25068.6     37.905   -57.723
25433.2     36.597   -43.252
25803.2     33.651     4.887
26178.5     32.917    72.421
26559.3     30.750   178.479
26945.6     35.341   -60.084
27337.5     37.376    24.709
27735.2     36.516   131.563
28138.6     30.682  -131.539
28547.9     28.961   -92.379
28963.1     29.665    34.265
29384.4     27.415  -112.565
29811.8     30.800   141.498
30245.4     32.479     2.984
30685.3     25.998   -80.662
31131.7     23.700    28.531
31584.5     27.309   114.677
32043.9     21.748   140.202
32510.0     23.824    -5.707
32982.8     19.242   131.501
33462.6     19.219   -16.322
33949.3     24.963    99.579
34443.1     24.831   179.595
34944.1     27.154   -84.293
35452.4     26.627    16.430
35968.0     23.555   153.955
36491.2     20.493   117.189
37022.0     18.050   -26.303
37560.5     19.293    26.286
38106.8     22.525  -113.654
38661.1     21.473  -162.645
39223.4     19.525     5.786
39793.9     16.596   -87.243
