Freq[Hz]     dBSPL  Phase[Deg]
5.00000      2.765   -99.890
5.07273      3.134   -96.460
5.14651      3.450   -93.477
5.22137      3.617   -91.738
5.29732      3.784   -90.001
5.37437      3.950   -88.264
5.45254      4.117   -86.529
5.53185      4.091   -84.701
5.61231      3.859   -82.775
5.69394      3.628   -80.850
5.77676      3.396   -78.927
5.86079      3.160   -76.940
5.94604      2.605   -71.174
6.03252      2.051   -65.409
6.12027      1.496   -59.645
6.20929      0.942   -53.881
6.29961      1.079   -44.566
6.39124      1.370   -34.464
6.48420      1.661   -24.363
6.57851      1.951   -14.263
6.67420      2.764    -9.068
6.77128      3.661    -4.669
6.86977      4.559    -0.272
6.96969      5.401     3.697
7.07107      5.822     4.415
7.17392      6.243     5.131
7.27827      6.664     5.847
7.38413      6.696     6.678
7.49154      6.429     7.598
7.60050      6.162     8.517
7.71105      5.777    10.601
7.82321      4.875    17.806
7.93701      3.974    25.009
8.05245      3.072    32.212
8.16958      3.658    47.406
8.28841      4.300    62.898
8.40896      4.942    78.389
8.53128      6.403    84.836
8.65537      7.970    90.116
8.78126      9.537    95.395
8.90899     10.416    96.938
9.03857     11.250    98.235
9.17004     12.018    99.790
9.30342     12.264   103.409
9.43874     12.510   107.026
9.57603     12.907   112.851
9.71532     13.533   122.049
9.85663     14.159   131.246
10.0000     15.629   138.473
10.1455     17.334   145.151
10.2930     19.037   150.104
10.4427     20.736   150.244
10.5946     22.434   150.382
10.7487     23.778   147.735
10.9051     25.051   144.531
11.0637     26.107   140.661
11.2246     26.934   136.087
11.3879     27.669   131.448
11.5535     28.069   126.576
11.7216     28.462   121.713
11.8921     28.439   117.509
12.0650     28.417   113.303
12.2405     28.044   110.939
12.4186     27.627   108.812
12.5992     27.080   110.065
12.7825     26.504   112.067
12.9684     26.351   117.374
13.1570     26.298   123.450
13.3484     26.928   128.131
13.5426     27.670   132.583
13.7395     28.508   132.661
13.9394     29.304   132.255
14.1421     29.752   129.455
14.3478     30.026   126.553
14.5565     29.925   123.434
14.7683     29.506   121.723
14.9831     28.840   121.099
15.2010     28.029   126.098
15.4221     27.408   133.131
15.6464     27.727   144.891
15.8740     28.735   153.663
16.1049     30.294   160.048
16.3392     31.779   159.664
16.5768     33.048   157.728
16.8179     34.006   153.907
17.0626     34.482   149.622
17.3107     34.714   145.861
17.5625     34.668   142.992
17.8180     34.398   143.310
18.0771     34.244   145.955
18.3401     34.294   150.768
18.6068     34.987   156.674
18.8775     36.062   160.512
19.1521     37.279   162.336
19.4306     38.492   162.058
19.7133     39.506   160.187
20.0000     40.338   158.110
20.2909     41.043   156.312
20.5860     41.669   155.088
20.8855     42.278   154.601
21.1893     42.954   154.785
21.4975     43.709   155.101
21.8102     44.516   155.305
22.1274     45.342   155.321
22.4492     46.159   155.199
22.7758     46.955   155.071
23.1071     47.732   155.059
23.4432     48.503   155.191
23.7841     49.279   155.393
24.1301     50.054   155.558
24.4811     50.814   155.651
24.8372     51.549   155.699
25.1984     52.261   155.755
25.5649     52.953   155.840
25.9368     53.635   155.918
26.3141     54.310   155.912
26.6968     54.968   155.764
27.0851     55.601   155.472
27.4791     56.201   155.090
27.8788     56.776   154.675
28.2843     57.334   154.228
28.6957     57.883   153.683
29.1131     58.416   152.972
29.5365     58.918   152.092
29.9661     59.374   151.124
30.4020     59.782   150.209
30.8442     60.152   149.495
31.2929     60.512   148.979
31.7480     60.874   148.586
32.2098     61.237   148.222
32.6783     61.588   147.840
33.1536     61.919   147.480
33.6359     62.229   147.202
34.1251     62.524   147.058
34.6215     62.811   147.035
35.1250     63.094   147.090
35.6359     63.371   147.205
36.1543     63.639   147.376
36.6802     63.894   147.641
37.2137     64.141   148.058
37.7550     64.388   148.637
38.3041     64.643   149.367
38.8613     64.904   150.182
39.4265     65.161   151.099
40.0000     65.417   152.159
40.5818     65.679   153.350
41.1721     65.942   154.523
41.7710     66.175   155.610
42.3785     66.333   156.813
42.9949     66.437   158.489
43.6203     66.539   160.715
44.2548     66.688   163.197
44.8985     66.858   165.545
45.5515     67.010   167.793
46.2141     67.146   170.133
46.8863     67.297   172.586
47.5683     67.475   175.005
48.2602     67.668   177.370
48.9621     67.875   179.761
49.6743     68.102  -177.807
50.3968     68.344  -175.324
51.1299     68.588  -172.707
51.8736     68.838  -169.905
52.6281     69.088  -166.946
53.3936     69.330  -163.842
54.1702     69.563  -160.589
54.9581     69.787  -157.240
55.7575     70.002  -153.862
56.5685     70.212  -150.489
57.3914     70.420  -147.169
58.2261     70.622  -143.897
59.0730     70.817  -140.537
59.9323     71.019  -136.980
60.8040     71.238  -133.209
61.6884     71.485  -129.254
62.5857     71.745  -125.247
63.4960     71.989  -121.203
64.4196     72.212  -116.997
65.3566     72.432  -112.666
66.3073     72.650  -108.364
67.2717     72.848  -104.073
68.2502     73.037   -99.692
69.2429     73.231   -95.196
70.2501     73.434   -90.634
71.2719     73.646   -86.022
72.3086     73.867   -81.433
73.3603     74.079   -76.909
74.4274     74.284   -72.326
75.5099     74.485   -67.733
76.6083     74.658   -62.935
77.7226     74.835   -57.631
78.8531     75.044   -52.046
80.0000     75.256   -46.302
81.1636     75.463   -40.518
82.3442     75.646   -34.814
83.5419     75.812   -29.219
84.7570     75.957   -23.765
85.9899     76.095   -18.315
87.2406     76.222   -12.770
88.5096     76.364    -6.869
89.7970     76.531    -0.900
91.1031     76.677     5.056
92.4282     76.780    11.020
93.7726     76.826    17.093
95.1366     76.825    23.528
96.5204     76.828    30.460
97.9243     76.863    37.664
99.3486     76.922    45.018
100.794     76.993    52.410
102.260     77.060    59.866
103.747     77.118    67.386
105.256     77.163    75.042
106.787     77.194    82.817
108.340     77.203    90.683
109.916     77.163    98.700
111.515     77.098   107.285
113.137     77.075   116.249
114.783     77.074   125.315
116.452     77.067   134.511
118.146     77.048   143.904
119.865     77.025   153.508
121.608     77.006   163.274
123.377     76.986   173.210
125.171     76.969  -176.665
126.992     76.960  -166.400
128.839     76.940  -155.981
130.713     76.904  -145.369
132.615     76.842  -134.482
134.543     76.772  -123.042
136.500     76.714  -111.267
138.486     76.669  -100.772
140.500     76.613   -89.087
142.544     76.546   -75.934
144.617     76.465   -63.982
146.721     76.353   -51.730
148.855     76.303   -38.169
151.020     76.296   -25.150
153.217     76.225   -12.309
155.445     76.135     1.061
157.706     76.100    13.957
160.000     75.884    27.982
162.327     75.667    43.356
164.688     75.589    57.769
167.084     75.635    73.129
169.514     75.737    88.041
171.980     75.486   102.451
174.481     75.120   117.974
177.019     74.958   134.223
179.594     74.872   151.258
182.206     74.850   169.825
184.856     74.939  -171.882
187.545     75.008  -155.344
190.273     75.082  -138.012
193.041     75.131  -121.303
195.849     75.073  -104.377
198.697     75.060   -85.889
201.587     75.023   -68.088
204.520     74.814   -50.438
207.494     74.565   -31.364
210.512     74.415   -10.301
213.574     74.443     9.846
216.681     74.269    28.636
219.833     74.194    49.366
223.030     74.142    71.576
226.274     74.198    93.304
229.565     74.205   114.239
232.905     74.023   135.088
236.292     73.903   157.428
239.729     73.924  -178.944
243.216     74.042  -156.045
246.754     74.091  -134.443
250.343     73.971  -111.089
253.984     73.857   -87.141
257.678     73.776   -62.981
261.426     73.729   -37.495
265.229     73.688   -12.296
269.087     73.604    11.985
273.001     73.320    37.618
276.972     73.254    64.019
281.000     73.197    91.189
285.088     73.324   120.368
289.234     73.486   147.982
293.441     73.605   174.853
297.709     73.512  -158.984
302.040     73.442  -132.117
306.433     73.014  -104.192
310.890     73.015   -70.715
315.412     73.225   -41.904
320.000     73.042   -12.281
324.655     72.861    17.156
329.377     72.649    48.661
334.168     72.827    82.097
339.028     72.854   114.483
343.959     72.917   146.399
348.962     72.665   178.272
354.038     72.497  -148.153
359.188     72.521  -113.368
364.412     72.430   -77.807
369.713     72.280   -41.622
375.090     72.271    -5.280
380.546     72.146    31.720
386.081     72.020    69.053
391.697     71.714   107.821
397.394     71.465   148.711
403.175     71.198  -171.433
409.039     70.902  -129.985
414.989     70.586   -86.990
421.025     70.259   -43.671
427.149     69.926    -0.109
433.362     69.595    43.782
439.665     69.279    90.548
446.060     68.966   137.644
452.548     68.700  -175.203
459.131     68.490  -126.266
465.809     68.322   -75.906
472.584     68.209   -25.316
479.458     68.173    25.128
486.432     68.188    76.905
493.507     68.258   129.849
500.686     68.373  -176.125
507.968     68.526  -122.340
515.357     68.679   -68.928
522.853     68.854   -14.519
530.458     69.010    41.006
538.174     69.159    96.119
546.002     69.278   151.087
553.943     69.355  -152.922
562.001     69.424   -95.750
570.175     69.444   -37.420
578.469     69.413    22.216
586.883     69.341    81.838
595.419     69.202   141.501
604.080     69.021  -157.461
612.866     68.788   -94.987
621.780     68.501   -30.912
630.824     68.160    34.853
640.000     67.775   101.002
649.309     67.365   167.641
658.753     66.939  -123.761
668.335     66.503   -51.822
678.056     66.109    20.814
687.919     65.797    95.336
697.925     65.614   171.739
708.077     65.539  -111.568
718.376     65.615   -33.858
728.825     65.793    44.804
739.426     66.069   124.107
750.181     66.377  -156.013
761.093     66.702   -75.580
772.163     66.972     4.243
783.394     67.186    84.648
794.789     67.342   167.324
806.349     67.402  -110.354
818.078     67.359   -26.862
829.977     67.217    57.892
842.050     66.956   144.053
854.298     66.587  -128.182
866.724     66.105   -39.975
879.330     65.511    51.598
892.120     64.842   145.389
905.097     64.131  -118.151
918.262     63.447   -18.900
931.618     62.885    82.984
945.169     62.545  -172.714
958.917     62.469   -67.049
972.864     62.659    39.291
987.015     62.976   145.652
1001.37     63.345  -106.721
1015.94     63.643     0.996
1030.71     63.836   107.801
1045.71     63.887  -143.326
1060.92     63.760   -31.906
1076.35     63.480    79.782
1092.00     63.029  -166.449
1107.89     62.477   -48.861
1124.00     61.863    71.718
1140.35     61.355  -164.705
1156.94     61.097   -36.972
1173.77     61.202    92.291
1190.84     61.584  -138.119
1208.16     62.170    -9.126
1225.73     62.754   120.702
1243.56     63.237  -108.491
1261.65     63.550    22.483
1280.00     63.674   154.224
1298.62     63.562   -72.943
1317.51     63.226    62.725
1336.67     62.659  -158.205
1356.11     61.912   -16.495
1375.84     60.998   129.716
1395.85     60.067   -79.011
1416.15     59.327    76.164
1436.75     58.971  -125.511
1457.65     59.085    35.629
1478.85     59.563  -162.239
1500.36     60.225    -0.835
1522.19     60.884   161.513
1544.33     61.488   -34.970
1566.79     62.004   130.128
1589.58     62.421   -62.668
1612.70     62.731   105.319
1636.16     62.909   -84.327
1659.95     62.998    88.478
1684.10     62.947   -96.047
1708.60     62.804    82.263
1733.45     62.554   -97.698
1758.66     62.251    86.835
1784.24     61.922   -85.466
1810.19     61.609   104.205
1836.52     61.295   -61.885
1863.24     60.994   134.880
1890.34     60.703   -25.438
1917.83     60.412   177.087
1945.73     60.187    22.881
1974.03     60.028  -127.180
2002.74     60.007    85.291
2031.87     60.109   -60.323
2061.43     60.232   155.633
2091.41     60.285    14.521
2121.83     60.212  -123.388
2152.69     59.995    99.963
2184.01     59.668   -32.389
2215.77     59.302  -160.305
2248.00     58.968    74.656
2280.70     58.648   -47.946
2313.87     58.284  -167.115
2347.53     57.809    77.470
2381.68     57.219   -34.661
2416.32     56.584  -141.603
2451.46     56.118   116.590
2487.12     55.959    18.770
2523.30     56.007   -76.554
2560.00     56.084  -169.903
2597.24     55.974    98.295
2635.01     55.696    10.274
2673.34     55.346   -72.717
2712.23     55.054  -151.193
2751.68     54.859   135.758
2791.70     54.639    66.438
2832.31     54.365     1.590
2873.50     54.128   -57.660
2915.30     54.110  -112.014
2957.70     54.418  -161.635
3000.72     54.785   150.619
3044.37     54.906   105.752
3088.65     54.690    66.850
3133.58     54.365    33.946
3179.16     54.199     8.028
3225.40     54.198   -12.660
3272.31     54.173   -29.984
3319.91     54.101   -41.176
3368.20     54.057   -46.376
3417.19     54.155   -48.626
3466.89     54.037   -46.551
3517.32     53.568   -36.819
3568.48     53.120   -19.554
3620.39     53.264     3.793
3673.05     53.661    30.202
3726.47     53.545    59.802
3780.67     52.972    97.320
3835.67     52.851   143.876
3891.46     53.367  -165.216
3948.06     53.736  -114.058
4005.49     53.410   -58.684
4063.75     52.616     7.211
4122.86     51.844    82.331
4182.82     51.425   165.716
4243.66     51.728  -103.010
4305.39     52.401   -10.973
4368.01     52.531    84.091
4431.55     52.108  -171.762
4496.01     51.949   -56.817
4561.40     52.210    63.506
4627.75     52.377  -169.463
4695.06     52.948   -32.751
4763.35     53.977   106.373
4832.64     54.446  -112.124
4902.93     54.267    39.510
4974.24     54.110  -158.070
5046.60     54.001    11.091
5120.00     53.951  -170.317
5194.47     54.179    15.160
5270.03     53.985  -155.290
5346.68     53.416    45.370
5424.45     53.237  -104.400
5503.35     52.586   111.403
5583.40     51.506   -19.481
5664.61     51.208  -139.046
5747.01     50.935   107.052
5830.60     50.973     1.325
5915.41     50.851   -98.734
6001.45     49.957   171.939
6088.74     49.757    93.158
6177.30     49.348    19.927
6267.15     48.474   -42.140
6358.31     47.030   -93.744
6450.80     45.707  -123.240
6544.62     46.426  -146.909
6639.82     46.834  -163.198
6736.40     47.993  -172.230
6834.38     48.171  -175.454
6933.79     48.860  -165.209
7034.64     49.103  -150.490
7136.96     49.105  -123.413
7240.77     48.720   -89.391
7346.09     47.536   -38.149
7452.94     45.988    20.582
7561.35     43.809   105.926
7671.33     43.292  -158.261
7782.91     43.720   -46.581
7896.12     44.514    60.128
8010.97     44.076  -174.647
8127.49     43.420   -31.845
8245.71     44.883   124.869
8365.65     44.959   -74.388
8487.33     46.279   103.211
8610.78     46.601   -73.089
8736.03     46.974   122.967
8863.09     47.177   -22.450
8992.01     47.735  -164.286
9122.80     47.650    67.210
9255.50     46.273   -52.657
9390.12     44.356  -151.195
9526.70     41.818   133.564
9665.27     39.882    73.991
9805.86     39.790    39.492
9948.49     40.238    14.266
10093.2     40.970    -3.504
10240.0     42.430    -5.811
10388.9     42.980     2.707
10540.1     42.665    19.193
10693.4     41.647    56.711
10848.9     40.053   116.068
11006.7     37.681  -168.796
11166.8     35.624   -69.069
11329.2     35.359    56.159
11494.0     36.046  -168.207
11661.2     36.104   -24.738
11830.8     36.288   132.411
12002.9     35.483   -56.097
12177.5     31.907   139.067
12354.6     30.749    17.506
12534.3     30.093  -115.236
12716.6     27.723   134.544
12901.6     20.011    48.184
13089.2     21.356    71.099
13279.6     26.077    22.829
13472.8     26.379    -5.361
13668.8     25.763   -27.696
13867.6     24.703   -14.428
14069.3     23.122   -19.381
14273.9     20.708   -11.967
14481.5     23.956    25.750
14692.2     25.022    67.417
14905.9     19.932   152.948
15122.7     15.555  -129.668
15342.7     23.356  -172.766
15565.8     25.918    11.084
15792.2     25.854  -140.837
16021.9     23.570   112.047
16255.0     25.189    38.992
16491.4     28.393   -30.461
16731.3     29.241   -88.872
16974.7     27.118  -106.048
17221.6     26.237   -88.831
17472.1     26.920   -41.146
17726.2     27.490    24.959
17984.0     27.121   106.931
18245.6     24.655  -138.769
18511.0     20.815    22.481
18780.2     21.332  -147.894
19053.4     21.918    58.119
19330.5     21.365   -64.686
19611.7     19.455  -165.244
19897.0     16.567    57.800
20186.4     20.247   140.891
20480.0     17.515   139.991
20777.9      9.796  -115.022
21080.1     18.162   166.190
21386.7     21.998   174.167
21697.8     26.450   141.630
22013.4     28.753   -65.181
22333.6     32.756   131.727
22658.4     37.156   -18.319
22988.0     40.305  -149.702
23322.4     41.163   109.582
23661.6     41.000    39.405
24005.8     36.157    -1.376
24355.0     22.525   159.501
24709.2     20.730   168.044
25068.6     20.035  -103.927
25433.2     28.633   147.748
25803.2     30.951   -30.725
26178.5     31.978  -170.202
26559.3     32.169    99.696
26945.6     33.877    43.908
27337.5     33.971    27.756
27735.2     34.471    48.189
28138.6     30.960   121.606
28547.9     30.553  -112.093
28963.1     29.906    60.366
29384.4     28.142   -92.478
29811.8     29.319  -179.686
30245.4     29.899   105.131
30685.3     28.466    90.109
31131.7     27.015   123.534
31584.5     25.507   162.190
32043.9     16.019   -33.512
32510.0     18.431  -176.957
32982.8     16.646  -157.443
33462.6     15.946  -114.688
33949.3     15.578   169.056
34443.1     24.551    35.685
34944.1     19.678   -41.429
35452.4     22.963  -149.594
35968.0     17.191  -159.641
36491.2     22.630  -120.238
37022.0     16.608   157.831
37560.5     12.926    -3.087
38106.8     15.877   -23.686
38661.1     17.483   136.782
39223.4     13.120   163.585
39793.9     13.958    13.704
