Freq[Hz]     dBSPL  Phase[Deg]
5.00000     -5.772  -140.512
5.07273     -5.426  -138.105
5.14651     -5.130  -136.172
5.22137     -4.971  -135.562
5.29732     -4.811  -134.953
5.37437     -4.652  -134.344
5.45254     -4.493  -133.736
5.53185     -4.518  -133.070
5.61231     -4.738  -132.341
5.69394     -4.959  -131.613
5.77676     -5.179  -130.886
5.86079     -5.405  -130.095
5.94604     -5.929  -125.552
6.03252     -6.453  -121.010
6.12027     -6.977  -116.468
6.20929     -7.501  -111.928
6.29961     -7.320  -103.825
6.39124     -6.982   -94.932
6.48420     -6.644   -86.041
6.57851     -6.306   -77.151
6.67420     -5.436   -73.130
6.77128     -4.479   -69.901
6.86977     -3.522   -66.673
6.96969     -2.619   -63.867
7.07107     -2.132   -64.264
7.17392     -1.644   -64.663
7.27827     -1.157   -65.062
7.38413     -1.056   -65.314
7.49154     -1.254   -65.453
7.60050     -1.452   -65.593
7.71105     -1.768   -64.559
7.82321     -2.601   -58.366
7.93701     -3.435   -52.175
8.05245     -4.269   -45.984
8.16958     -3.621   -31.771
8.28841     -2.917   -17.260
8.40896     -2.213    -2.750
8.53128     -0.696     2.728
8.65537      0.925     7.040
8.78126      2.547    11.351
8.90899      3.473    11.919
9.03857      4.353    12.240
9.17004      5.167    12.817
9.30342      5.450    15.431
9.43874      5.733    18.045
9.57603      6.163    22.847
9.71532      6.817    30.994
9.85663      7.471    39.139
10.0000      8.963    45.265
10.1455     10.688    50.827
10.2930     12.410    54.643
10.4427     14.122    53.587
10.5946     15.835    52.530
10.7487     17.189    48.611
10.9051     18.472    44.120
11.0637     19.536    38.914
11.2246     20.370    32.953
11.3879     21.113    26.904
11.5535     21.521    20.540
11.7216     21.923    14.183
11.8921     21.912     8.381
12.0650     21.900     2.577
12.2405     21.545    -1.473
12.4186     21.146    -5.299
12.5992     20.624    -5.820
12.7825     20.075    -5.609
12.9684     19.958    -2.157
13.1570     19.941     2.049
13.3484     20.621     4.806
13.5426     21.415     7.326
13.7395     22.316     5.430
13.9394     23.178     3.045
14.1421     23.705    -1.753
14.3478     24.062    -6.653
14.5565     24.053   -11.772
14.7683     23.733   -15.473
14.9831     23.172   -18.079
15.2010     22.475   -15.034
15.4221     21.971    -9.940
15.6464     22.414    -0.081
15.8740     23.548     6.823
16.1049     25.235    11.367
16.3392     26.852     9.202
16.5768     28.252     5.515
16.8179     29.342    -0.018
17.0626     29.948    -5.958
17.3107     30.305   -11.343
17.5625     30.381   -15.803
17.8180     30.224   -17.029
18.0771     30.177   -15.906
18.3401     30.328   -12.598
18.6068     31.109    -8.179
18.8775     32.261    -5.828
19.1521     33.545    -5.501
19.4306     34.814    -7.290
19.7133     35.871   -10.711
20.0000     36.733   -14.389
20.2909     37.459   -17.845
20.5860     38.095   -20.793
20.8855     38.705   -23.083
21.1893     39.374   -24.812
21.4975     40.117   -26.511
21.8102     40.910   -28.424
22.1274     41.720   -30.631
22.4492     42.524   -33.081
22.7758     43.309   -35.638
23.1071     44.080   -38.175
23.4432     44.851   -40.656
23.7841     45.636   -43.147
24.1301     46.429   -45.737
24.4811     47.217   -48.449
24.8372     47.989   -51.243
25.1984     48.746   -54.055
25.5649     49.491   -56.854
25.9368     50.233   -59.669
26.3141     50.972   -62.568
26.6968     51.698   -65.607
27.0851     52.402   -68.784
27.4791     53.075   -72.047
27.8788     53.720   -75.340
28.2843     54.349   -78.668
28.6957     54.963   -82.102
29.1131     55.559   -85.715
29.5365     56.119   -89.521
29.9661     56.630   -93.444
30.4020     57.087   -97.350
30.8442     57.503  -101.105
31.2929     57.905  -104.711
31.7480     58.307  -108.246
32.2098     58.708  -111.806
32.6783     59.095  -115.443
33.1536     59.460  -119.112
33.6359     59.805  -122.745
34.1251     60.133  -126.294
34.6215     60.453  -129.767
35.1250     60.766  -133.202
35.6359     61.071  -136.623
36.1543     61.363  -140.035
36.6802     61.636  -143.407
37.2137     61.897  -146.692
37.7550     62.153  -149.887
38.3041     62.410  -153.024
38.8613     62.670  -156.170
39.4265     62.924  -159.328
40.0000     63.178  -162.453
40.5818     63.439  -165.564
41.1721     63.707  -168.805
41.7710     63.951  -172.227
42.3785     64.131  -175.622
42.9949     64.265  -178.606
43.6203     64.406   178.918
44.2548     64.602   176.670
44.8985     64.825   174.279
45.5515     65.030   171.782
46.2141     65.218   169.372
46.8863     65.416   167.058
47.5683     65.632   164.672
48.2602     65.854   162.171
48.9621     66.081   159.611
49.6743     66.323   156.985
50.3968     66.575   154.290
51.1299     66.829   151.607
51.8736     67.093   149.000
52.6281     67.362   146.455
53.3936     67.628   143.984
54.1702     67.887   141.608
54.9581     68.137   139.282
55.7575     68.373   136.937
56.5685     68.597   134.521
57.3914     68.811   131.954
58.2261     69.010   129.213
59.0730     69.197   126.396
59.9323     69.392   123.609
60.8040     69.612   120.880
61.6884     69.870   118.197
62.5857     70.156   115.481
63.4960     70.436   112.752
64.4196     70.700   110.165
65.3566     70.960   107.688
66.3073     71.208   105.145
67.2717     71.426   102.506
68.2502     71.624    99.829
69.2429     71.822    97.106
70.2501     72.031    94.280
71.2719     72.255    91.363
72.3086     72.496    88.325
73.3603     72.734    85.165
74.4274     72.959    82.015
75.5099     73.171    78.802
76.6083     73.342    75.659
77.7226     73.505    72.830
78.8531     73.700    70.053
80.0000     73.907    67.220
81.1636     74.126    64.270
82.3442     74.337    61.157
83.5419     74.536    57.905
84.7570     74.711    54.484
85.9899     74.867    50.980
87.2406     74.997    47.412
88.5096     75.134    43.984
89.7970     75.302    40.406
91.1031     75.460    36.646
92.4282     75.590    32.801
93.7726     75.663    29.019
95.1366     75.676    25.536
96.5204     75.679    22.411
97.9243     75.697    19.334
99.3486     75.737    16.127
100.794     75.798    12.694
102.260     75.873     9.137
103.747     75.954     5.534
105.256     76.027     1.999
106.787     76.079    -1.511
108.340     76.101    -5.083
109.916     76.067    -8.705
111.515     76.010   -11.967
113.137     75.999   -15.023
114.783     76.011   -18.129
116.452     76.014   -21.271
118.146     76.000   -24.420
119.865     75.984   -27.576
121.608     75.979   -30.762
123.377     75.976   -33.935
125.171     75.973   -37.067
126.992     75.970   -40.252
128.839     75.952   -43.525
130.713     75.920   -46.855
132.615     75.874   -50.123
134.543     75.824   -53.281
136.500     75.783   -56.379
138.486     75.742   -59.386
140.500     75.676   -62.620
142.544     75.604   -65.878
144.617     75.533   -69.028
146.721     75.448   -71.809
148.855     75.424   -74.528
151.020     75.427   -77.768
153.217     75.363   -81.260
155.445     75.287   -84.246
157.706     75.267   -87.655
160.000     75.057   -91.297
162.327     74.846   -93.683
164.688     74.788   -95.674
167.084     74.858   -97.969
169.514     74.966  -102.041
171.980     74.715  -106.770
174.481     74.369  -109.078
177.019     74.241  -110.528
179.594     74.171  -112.453
182.206     74.150  -114.322
184.856     74.256  -116.573
187.545     74.355  -119.113
190.273     74.445  -122.125
193.041     74.493  -125.849
195.849     74.443  -129.483
198.697     74.456  -132.923
201.587     74.454  -136.977
204.520     74.276  -141.096
207.494     74.043  -143.765
210.512     73.902  -145.926
213.574     73.960  -149.046
216.681     73.815  -152.024
219.833     73.749  -154.462
223.030     73.719  -156.929
226.274     73.814  -159.753
229.565     73.839  -163.333
232.905     73.677  -167.113
236.292     73.586  -169.365
239.729     73.632  -171.719
243.216     73.785  -174.808
246.754     73.863  -179.134
250.343     73.773   176.843
253.984     73.699   173.478
257.678     73.640   170.337
261.426     73.625   166.995
265.229     73.634   163.479
269.087     73.587   159.066
273.001     73.343   156.011
276.972     73.300   153.707
281.000     73.282   150.642
285.088     73.460   148.358
289.234     73.662   144.415
293.441     73.842   139.769
297.709     73.797   134.460
302.040     73.779   129.858
306.433     73.388   124.937
310.890     73.433   124.087
315.412     73.685   118.535
320.000     73.568   113.721
324.655     73.449   108.867
329.377     73.290   105.969
334.168     73.540   102.258
339.028     73.623    97.526
343.959     73.748    92.086
348.962     73.596    86.762
354.038     73.487    83.243
359.188     73.573    79.328
364.412     73.548    74.775
369.713     73.476    70.773
375.090     73.536    66.935
380.546     73.483    62.234
386.081     73.430    57.832
391.697     73.203    53.403
397.394     73.012    49.706
403.175     72.784    46.088
409.039     72.558    42.543
414.989     72.281    39.275
421.025     71.966    36.080
427.149     71.621    33.047
433.362     71.256    30.271
439.665     70.840    27.427
446.060     70.419    24.747
452.548     69.991    22.533
459.131     69.526    20.541
465.809     69.053    19.047
472.584     68.574    17.896
479.458     68.149    17.202
486.432     67.723    17.222
493.507     67.352    17.494
500.686     67.047    18.260
507.968     66.852    19.359
515.357     66.746    20.631
522.853     66.742    21.673
530.458     66.837    22.588
538.174     67.013    23.133
546.002     67.242    23.093
553.943     67.505    22.603
562.001     67.806    21.578
570.175     68.091    20.102
578.469     68.352    18.195
586.883     68.589    15.838
595.419     68.782    13.202
604.080     68.938    10.280
612.866     69.052     7.180
621.780     69.107     3.949
630.824     69.105     0.583
640.000     69.061    -2.787
649.309     68.954    -5.959
658.753     68.783    -9.145
668.335     68.571   -12.110
678.056     68.305   -14.770
687.919     67.991   -17.047
697.925     67.652   -18.851
708.077     67.294   -20.019
718.376     66.957   -20.578
728.825     66.649   -20.489
739.426     66.425   -19.741
750.181     66.318   -18.587
761.093     66.345   -17.255
772.163     66.499   -16.169
783.394     66.793   -15.475
794.789     67.167   -15.470
806.349     67.590   -16.170
818.078     68.027   -17.698
829.977     68.452   -19.929
842.050     68.842   -22.720
854.298     69.174   -26.016
866.724     69.448   -29.709
879.330     69.666   -33.693
892.120     69.807   -37.829
905.097     69.887   -42.069
918.262     69.897   -46.311
931.618     69.855   -50.431
945.169     69.754   -54.387
958.917     69.619   -58.117
972.864     69.450   -61.529
987.015     69.270   -64.662
1001.37     69.093   -67.606
1015.94     68.948   -70.259
1030.71     68.837   -72.725
1045.71     68.757   -75.267
1060.92     68.729   -78.002
1076.35     68.715   -80.997
1092.00     68.722   -84.316
1107.89     68.702   -88.120
1124.00     68.652   -92.270
1140.35     68.543   -96.768
1156.94     68.362  -101.508
1173.77     68.082  -106.294
1190.84     67.718  -111.023
1208.16     67.259  -115.422
1225.73     66.702  -119.353
1243.56     66.085  -122.549
1261.65     65.451  -124.835
1280.00     64.869  -126.143
1298.62     64.393  -126.598
1317.51     64.082  -126.813
1336.67     63.947  -127.340
1356.11     63.943  -128.716
1375.84     63.953  -131.122
1395.85     63.907  -134.633
1416.15     63.736  -138.952
1436.75     63.376  -143.566
1457.65     62.810  -148.085
1478.85     62.046  -151.599
1500.36     61.125  -153.293
1522.19     60.162  -152.456
1544.33     59.486  -149.112
1566.79     59.326  -144.310
1589.58     59.694  -140.850
1612.70     60.293  -140.253
1636.16     60.903  -142.469
1659.95     61.295  -146.628
1684.10     61.417  -151.635
1708.60     61.264  -156.544
1733.45     60.895  -160.228
1758.66     60.422  -162.305
1784.24     60.071  -162.400
1810.19     60.014  -161.326
1836.52     60.303  -160.493
1863.24     60.805  -161.374
1890.34     61.362  -163.940
1917.83     61.824  -167.913
1945.73     62.211  -172.526
1974.03     62.513  -177.522
2002.74     62.798   177.252
2031.87     63.058   171.414
2061.43     63.302   164.684
2091.41     63.419   157.022
2121.83     63.341   148.424
2152.69     62.984   139.588
2184.01     62.327   131.185
2215.77     61.365   124.158
2248.00     60.229   119.459
2280.70     59.140   117.690
2313.87     58.336   118.131
2347.53     57.891   118.908
2381.68     57.654   118.844
2416.32     57.478   117.872
2451.46     57.311   116.908
2487.12     57.259   115.558
2523.30     57.268   113.132
2560.00     57.153   109.080
2597.24     56.665   104.046
2635.01     55.679   100.667
2673.34     54.380   102.359
2712.23     53.616   110.885
2751.68     54.207   119.971
2791.70     55.540   122.539
2832.31     56.656   119.549
2873.50     57.253   114.493
2915.30     57.459   109.586
2957.70     57.537   105.736
3000.72     57.609   102.563
3044.37     57.716    99.308
3088.65     57.767    95.874
3133.58     57.720    92.570
3179.16     57.614    89.604
3225.40     57.532    87.238
3272.31     57.497    85.156
3319.91     57.530    83.119
3368.20     57.596    80.614
3417.19     57.588    77.707
3466.89     57.483    74.888
3517.32     57.356    72.799
3568.48     57.336    71.450
3620.39     57.465    69.435
3673.05     57.563    66.139
3726.47     57.458    62.159
3780.67     57.143    58.867
3835.67     56.798    56.750
3891.46     56.484    55.226
3948.06     56.129    54.193
4005.49     55.731    54.467
4063.75     55.569    56.382
4122.86     55.723    58.406
4182.82     56.125    59.255
4243.66     56.673    58.648
4305.39     57.285    55.602
4368.01     57.622    50.209
4431.55     57.517    44.509
4496.01     57.138    40.792
4561.40     56.795    38.525
4627.75     56.467    37.078
4695.06     56.312    36.363
4763.35     56.335    34.218
4832.64     55.955    30.698
4902.93     55.166    30.145
4974.24     54.900    33.866
5046.60     55.291    34.917
5120.00     55.519    32.532
5194.47     55.283    30.010
5270.03     54.986    30.517
5346.68     55.193    30.765
5424.45     55.103    27.359
5503.35     54.432    27.848
5583.40     54.622    32.008
5664.61     55.082    30.462
5747.01     55.163    29.099
5830.60     55.511    26.474
5915.41     55.120    21.673
6001.45     54.495    22.299
6088.74     54.330    23.412
6177.30     54.238    25.200
6267.15     54.468    25.347
6358.31     54.288    26.140
6450.80     54.803    28.293
6544.62     55.215    25.383
6639.82     55.431    24.224
6736.40     55.600    20.294
6834.38     55.438    18.670
6933.79     55.466    16.402
7034.64     55.325    15.093
7136.96     55.367    12.473
7240.77     54.942    10.785
7346.09     54.788    10.731
7452.94     54.780    11.854
7561.35     55.213     9.878
7671.33     55.251     5.812
7782.91     54.769     1.067
7896.12     54.266     2.556
8010.97     54.344     0.325
8127.49     54.041    -2.440
8245.71     53.143    -5.171
8365.65     52.446    -2.891
8487.33     51.857    -1.070
8610.78     51.511     1.797
8736.03     51.551     5.203
8863.09     51.637     3.506
8992.01     51.686     2.537
9122.80     51.213    -1.589
9255.50     50.267    -5.224
9390.12     49.118    -1.218
9526.70     48.833     2.920
9665.27     48.837     5.177
9805.86     49.082     6.074
9948.49     48.911     4.563
10093.2     48.848     3.614
10240.0     48.681     2.756
10388.9     48.205     3.551
10540.1     47.764     4.674
10693.4     47.848     7.206
10848.9     47.894    10.197
11006.7     48.025    11.623
11166.8     48.314    10.776
11329.2     48.277    10.231
11494.0     48.369    11.351
11661.2     48.318    11.416
11830.8     48.145    12.354
12002.9     48.576    15.191
12177.5     49.313    14.540
12354.6     49.697    10.991
12534.3     49.799     7.301
12716.6     49.548     3.870
12901.6     49.214     3.411
13089.2     49.291     3.533
13279.6     49.506     0.518
13472.8     49.157    -1.815
13668.8     49.265    -1.822
13867.6     49.511    -4.389
14069.3     49.656    -9.993
14273.9     49.243   -16.104
14481.5     48.454   -21.489
14692.2     47.414   -22.642
14905.9     46.808   -20.759
15122.7     46.907   -19.959
15342.7     47.065   -23.075
15565.8     46.780   -30.646
15792.2     45.659   -36.672
16021.9     44.417   -37.698
16255.0     43.306   -36.320
16491.4     42.668   -32.956
16731.3     42.753   -34.056
16974.7     41.916   -39.709
17221.6     40.737   -39.663
17472.1     39.697   -39.868
17726.2     38.634   -35.354
17984.0     38.418   -35.393
18245.6     37.398   -37.881
18511.0     35.775   -35.453
18780.2     34.412   -28.308
19053.4     34.213   -21.575
19330.5     34.124   -15.001
19611.7     33.628   -13.461
19897.0     33.195    -1.301
20186.4     34.214     4.799
20480.0     34.834     5.535
20777.9     34.828     9.345
21080.1     34.913    18.123
21386.7     36.882    23.891
21697.8     37.792    29.670
22013.4     40.214    40.791
22333.6     44.569    43.934
22658.4     50.096    32.925
22988.0     54.652     3.683
23322.4     57.814   -34.822
23661.6     58.728   -85.105
24005.8     55.780  -129.816
24355.0     51.768  -153.966
24709.2     48.828  -171.331
25068.6     45.812   173.202
25433.2     43.061   158.025
25803.2     40.269   139.470
26178.5     37.122   103.106
26559.3     31.433    46.807
26945.6     33.328   -18.734
27337.5     37.587   -68.918
27735.2     40.169  -111.912
28138.6     35.148  -145.897
28547.9     33.779  -126.915
28963.1     35.541  -123.302
29384.4     37.641  -138.853
29811.8     37.096  -159.395
30245.4     35.651  -174.134
30685.3     33.861   161.624
31131.7     27.326   122.966
31584.5     20.768   -17.648
32043.9     27.850   -70.969
32510.0     33.541  -112.638
32982.8     31.703  -142.439
33462.6     29.385  -162.314
33949.3     30.958    99.389
34443.1     42.014   -85.771
34944.1     39.587   172.686
35452.4     29.147   154.292
35968.0     27.251  -172.202
36491.2     30.608   138.098
37022.0     24.703   118.797
37560.5     25.975    71.312
38106.8     27.049   -40.623
38661.1     25.680    39.998
39223.4     19.795   -47.160
39793.9     15.262  -146.237
