Freq[Hz]     dBSPL  Phase[Deg]
5.00000     -6.827  -155.408
5.07273     -6.417  -153.045
5.14651     -6.055  -151.129
5.22137     -5.828  -150.455
5.29732     -5.601  -149.782
5.37437     -5.375  -149.110
5.45254     -5.148  -148.438
5.53185     -5.107  -147.655
5.61231     -5.263  -146.755
5.69394     -5.419  -145.855
5.77676     -5.575  -144.956
5.86079     -5.737  -143.993
5.94604     -6.206  -139.189
6.03252     -6.674  -134.385
6.12027     -7.143  -129.583
6.20929     -7.612  -124.781
6.29961     -7.385  -116.368
6.39124     -7.004  -107.155
6.48420     -6.622   -97.943
6.57851     -6.241   -88.731
6.67420     -5.338   -84.364
6.77128     -4.351   -80.785
6.86977     -3.363   -77.206
6.96969     -2.431   -74.049
7.07107     -1.925   -74.092
7.17392     -1.419   -74.136
7.27827     -0.913   -74.182
7.38413     -0.801   -74.089
7.49154     -0.991   -73.890
7.60050     -1.182   -73.693
7.71105     -1.492   -72.326
7.82321     -2.327   -65.824
7.93701     -3.162   -59.324
8.05245     -3.997   -52.824
8.16958     -3.356   -38.337
8.28841     -2.660   -23.553
8.40896     -1.965    -8.770
8.53128     -0.460    -3.055
8.65537      1.149     1.490
8.78126      2.758     6.033
8.90899      3.667     6.794
9.03857      4.531     7.307
9.17004      5.328     8.069
9.30342      5.592    10.833
9.43874      5.857    13.595
9.57603      6.268    18.530
9.71532      6.903    26.784
9.85663      7.538    35.037
10.0000      9.010    41.240
10.1455     10.716    46.870
10.2930     12.419    50.745
10.4427     14.114    49.720
10.5946     15.810    48.694
10.7487     17.149    44.778
10.9051     18.416    40.284
11.0637     19.468    35.062
11.2246     20.290    29.069
11.3879     21.022    22.984
11.5535     21.423    16.565
11.7216     21.817    10.153
11.8921     21.803     4.282
12.0650     21.790    -1.592
12.2405     21.437    -5.719
12.4186     21.040    -9.622
12.5992     20.525   -10.218
12.7825     19.983   -10.082
12.9684     19.879    -6.696
13.1570     19.875    -2.555
13.3484     20.571     0.152
13.5426     21.381     2.624
13.7395     22.303     0.703
13.9394     23.185    -1.704
14.1421     23.733    -6.501
14.3478     24.111   -11.392
14.5565     24.125   -16.483
14.7683     23.827   -20.143
14.9831     23.289   -22.698
15.2010     22.614   -19.582
15.4221     22.131   -14.413
15.6464     22.593    -4.464
15.8740     23.746     2.536
16.1049     25.451     7.181
16.3392     27.083     5.124
16.5768     28.498     1.546
16.8179     29.602    -3.877
17.0626     30.219    -9.707
17.3107     30.588   -14.984
17.5625     30.675   -19.337
17.8180     30.528   -20.462
18.0771     30.491   -19.241
18.3401     30.651   -15.836
18.6068     31.443   -11.325
18.8775     32.605    -8.885
19.1521     33.900    -8.468
19.4306     35.182   -10.167
19.7133     36.251   -13.495
20.0000     37.128   -17.074
20.2909     37.868   -20.423
20.5860     38.519   -23.255
20.8855     39.145   -25.418
21.1893     39.829   -27.004
21.4975     40.588   -28.543
21.8102     41.394   -30.281
22.1274     42.216   -32.297
22.4492     43.030   -34.542
22.7758     43.821   -36.882
23.1071     44.595   -39.195
23.4432     45.366   -41.448
23.7841     46.146   -43.714
24.1301     46.929   -46.089
24.4811     47.703   -48.603
24.8372     48.458   -51.220
25.1984     49.194   -53.884
25.5649     49.917   -56.567
25.9368     50.635   -59.302
26.3141     51.351   -62.160
26.6968     52.056   -65.195
27.0851     52.742   -68.405
27.4791     53.399   -71.734
27.8788     54.037   -75.120
28.2843     54.662   -78.560
28.6957     55.282   -82.112
29.1131     55.890   -85.840
29.5365     56.470   -89.746
29.9661     57.006   -93.742
30.4020     57.496   -97.685
30.8442     57.949  -101.423
31.2929     58.390  -104.959
31.7480     58.830  -108.367
32.2098     59.268  -111.745
32.6783     59.687  -115.144
33.1536     60.079  -118.531
33.6359     60.442  -121.855
34.1251     60.779  -125.078
34.6215     61.099  -128.227
35.1250     61.404  -131.356
35.6359     61.692  -134.508
36.1543     61.962  -137.696
36.6802     62.212  -140.900
37.2137     62.447  -144.082
37.7550     62.678  -147.230
38.3041     62.918  -150.375
38.8613     63.167  -153.567
39.4265     63.421  -156.795
40.0000     63.683  -159.988
40.5818     63.964  -163.146
41.1721     64.259  -166.390
41.7710     64.537  -169.759
42.3785     64.753  -173.026
42.9949     64.923  -175.810
43.6203     65.096  -178.021
44.2548     65.316  -179.944
44.8985     65.554   178.028
45.5515     65.765   175.913
46.2141     65.947   173.883
46.8863     66.128   171.927
47.5683     66.320   169.858
48.2602     66.512   167.621
48.9621     66.708   165.265
49.6743     66.918   162.784
50.3968     67.140   160.184
51.1299     67.369   157.556
51.8736     67.614   154.978
52.6281     67.871   152.454
53.3936     68.128   150.006
54.1702     68.383   147.664
54.9581     68.631   145.384
55.7575     68.867   143.096
56.5685     69.090   140.739
57.3914     69.305   138.233
58.2261     69.508   135.548
59.0730     69.702   132.790
59.9323     69.908   130.073
60.8040     70.143   127.437
61.6884     70.419   124.889
62.5857     70.722   122.351
63.4960     71.016   119.849
64.4196     71.288   117.522
65.3566     71.549   115.316
66.3073     71.790   113.031
67.2717     71.996   110.614
68.2502     72.180   108.110
69.2429     72.366   105.516
70.2501     72.570   102.796
71.2719     72.796    99.993
72.3086     73.044    97.107
73.3603     73.289    94.149
74.4274     73.517    91.247
75.5099     73.724    88.298
76.6083     73.879    85.398
77.7226     74.023    82.757
78.8531     74.198    80.102
80.0000     74.393    77.340
81.1636     74.611    74.447
82.3442     74.828    71.422
83.5419     75.041    68.319
84.7570     75.225    65.111
85.9899     75.383    61.857
87.2406     75.507    58.537
88.5096     75.633    55.320
89.7970     75.789    51.903
91.1031     75.940    48.267
92.4282     76.068    44.533
93.7726     76.147    40.878
95.1366     76.171    37.554
96.5204     76.184    34.626
97.9243     76.214    31.779
99.3486     76.263    28.833
100.794     76.328    25.689
102.260     76.404    22.436
103.747     76.479    19.137
105.256     76.541    15.885
106.787     76.581    12.623
108.340     76.590     9.263
109.916     76.549     5.831
111.515     76.489     2.760
113.137     76.480    -0.087
114.783     76.494    -2.952
116.452     76.498    -5.824
118.146     76.481    -8.690
119.865     76.459   -11.574
121.608     76.446   -14.510
123.377     76.439   -17.446
125.171     76.436   -20.334
126.992     76.433   -23.248
128.839     76.414   -26.224
130.713     76.379   -29.249
132.615     76.324   -32.224
134.543     76.265   -35.109
136.500     76.219   -37.951
138.486     76.179   -40.725
140.500     76.118   -43.662
142.544     76.047   -46.539
144.617     75.969   -49.333
146.721     75.872   -51.808
148.855     75.840   -54.247
151.020     75.845   -57.187
153.217     75.782   -60.314
155.445     75.699   -62.918
157.706     75.667   -65.990
160.000     75.449   -69.303
162.327     75.235   -71.331
164.688     75.170   -72.964
167.084     75.226   -74.911
169.514     75.325   -78.663
171.980     75.076   -83.049
174.481     74.733   -84.973
177.019     74.601   -86.008
179.594     74.521   -87.493
182.206     74.484   -88.904
184.856     74.569   -90.737
187.545     74.651   -92.962
190.273     74.736   -95.659
193.041     74.790   -99.001
195.849     74.741  -102.180
198.697     74.748  -105.104
201.587     74.730  -108.635
204.520     74.530  -112.300
207.494     74.282  -114.594
210.512     74.140  -116.280
213.574     74.181  -118.865
216.681     74.017  -121.446
219.833     73.949  -123.436
223.030     73.903  -125.300
226.274     73.966  -127.691
229.565     73.991  -130.893
232.905     73.831  -134.088
236.292     73.721  -135.786
239.729     73.754  -137.597
243.216     73.889  -140.098
246.754     73.948  -143.919
250.343     73.848  -147.328
253.984     73.745  -150.082
257.678     73.667  -152.743
261.426     73.645  -155.468
265.229     73.635  -158.340
269.087     73.568  -162.118
273.001     73.300  -164.592
276.972     73.252  -166.291
281.000     73.210  -168.569
285.088     73.351  -170.245
289.234     73.543  -173.536
293.441     73.704  -177.469
297.709     73.641   177.996
302.040     73.584   174.091
306.433     73.180   169.821
310.890     73.206   169.800
315.412     73.440   165.032
320.000     73.303   161.075
324.655     73.160   157.084
329.377     72.971   155.036
334.168     73.193   152.233
339.028     73.247   148.364
343.959     73.364   143.926
348.962     73.166   139.620
354.038     73.033   136.967
359.188     73.098   134.036
364.412     73.065   130.583
369.713     72.966   127.742
375.090     73.005   125.026
380.546     72.939   121.503
386.081     72.873   118.394
391.697     72.627   115.238
397.394     72.442   112.914
403.175     72.210   110.739
409.039     71.986   108.632
414.989     71.727   106.838
421.025     71.451   105.222
427.149     71.148   103.787
433.362     70.848   102.595
439.665     70.524   101.463
446.060     70.218   100.597
452.548     69.908    99.915
459.131     69.617    99.549
465.809     69.350    99.442
472.584     69.109    99.534
479.458     68.923    99.867
486.432     68.774   100.350
493.507     68.660   100.983
500.686     68.602   101.465
507.968     68.598   101.948
515.357     68.640   102.268
522.853     68.704   102.469
530.458     68.797   102.279
538.174     68.912   101.986
546.002     69.028   101.386
553.943     69.135   100.512
562.001     69.231    99.395
570.175     69.316    98.022
578.469     69.380    96.524
586.883     69.403    94.908
595.419     69.387    93.126
604.080     69.346    91.265
612.866     69.272    89.350
621.780     69.140    87.539
630.824     68.965    85.693
640.000     68.757    83.991
649.309     68.502    82.410
658.753     68.221    81.034
668.335     67.898    79.987
678.056     67.544    79.163
687.919     67.174    78.790
697.925     66.788    78.829
708.077     66.430    79.226
718.376     66.059    80.119
728.825     65.737    81.256
739.426     65.479    82.764
750.181     65.258    84.381
761.093     65.104    86.123
772.163     64.992    87.746
783.394     64.919    89.184
794.789     64.869    90.484
806.349     64.820    91.575
818.078     64.764    92.425
829.977     64.705    93.332
842.050     64.596    94.316
854.298     64.484    95.317
866.724     64.355    96.671
879.330     64.223    98.252
892.120     64.122   100.261
905.097     64.061   102.415
918.262     64.087   104.790
931.618     64.181   107.194
945.169     64.362   109.269
958.917     64.616   111.001
972.864     64.890   112.150
987.015     65.180   112.745
1001.37     65.455   112.752
1015.94     65.691   112.316
1030.71     65.855   111.517
1045.71     65.953   110.440
1060.92     65.974   109.278
1076.35     65.925   108.050
1092.00     65.799   107.063
1107.89     65.601   106.263
1124.00     65.368   105.747
1140.35     65.095   105.696
1156.94     64.804   106.029
1173.77     64.515   106.727
1190.84     64.245   107.818
1208.16     64.004   109.126
1225.73     63.764   110.741
1243.56     63.560   112.479
1261.65     63.380   114.459
1280.00     63.223   116.669
1298.62     63.100   119.068
1317.51     63.061   121.498
1336.67     63.098   124.019
1356.11     63.217   126.195
1375.84     63.410   127.977
1395.85     63.637   128.980
1416.15     63.845   129.369
1436.75     63.986   129.030
1457.65     64.037   128.186
1478.85     63.968   127.067
1500.36     63.772   126.132
1522.19     63.434   125.547
1544.33     63.013   125.780
1566.79     62.545   127.130
1589.58     62.132   129.690
1612.70     61.865   133.089
1636.16     61.798   136.962
1659.95     61.917   140.162
1684.10     62.161   142.442
1708.60     62.418   143.599
1733.45     62.632   143.718
1758.66     62.737   143.340
1784.24     62.733   142.727
1810.19     62.641   142.281
1836.52     62.491   142.173
1863.24     62.355   142.575
1890.34     62.268   143.146
1917.83     62.260   143.515
1945.73     62.318   143.404
1974.03     62.388   142.323
2002.74     62.386   140.289
2031.87     62.256   137.505
2061.43     61.946   134.443
2091.41     61.425   131.484
2121.83     60.730   129.335
2152.69     59.958   128.586
2184.01     59.238   129.393
2215.77     58.730   131.228
2248.00     58.485   132.639
2280.70     58.410   132.680
2313.87     58.327   131.083
2347.53     58.097   128.330
2381.68     57.701   125.381
2416.32     57.223   122.825
2451.46     56.756   120.985
2487.12     56.465   119.317
2523.30     56.348   116.723
2560.00     56.283   112.795
2597.24     56.142   107.472
2635.01     55.832   101.626
2673.34     55.363    96.233
2712.23     54.874    92.206
2751.68     54.519    89.593
2791.70     54.497    87.807
2832.31     54.752    85.142
2873.50     55.154    81.010
2915.30     55.474    75.532
2957.70     55.620    69.590
3000.72     55.530    64.106
3044.37     55.349    59.456
3088.65     55.169    56.316
3133.58     55.065    53.688
3179.16     54.979    50.830
3225.40     54.781    47.616
3272.31     54.353    45.166
3319.91     53.756    44.501
3368.20     53.244    46.276
3417.19     53.032    49.237
3466.89     53.098    51.528
3517.32     53.186    52.488
3568.48     53.196    52.944
3620.39     53.122    53.530
3673.05     53.028    53.965
3726.47     52.877    54.412
3780.67     52.704    55.723
3835.67     52.584    57.630
3891.46     52.645    59.501
3948.06     52.879    60.427
4005.49     53.076    59.948
4063.75     53.146    59.082
4122.86     53.226    57.768
4182.82     53.331    55.753
4243.66     53.259    52.384
4305.39     52.892    49.178
4368.01     52.322    48.505
4431.55     52.010    50.486
4496.01     52.159    52.672
4561.40     52.511    52.788
4627.75     52.847    52.110
4695.06     53.208    51.236
4763.35     53.611    49.977
4832.64     53.952    48.441
4902.93     54.314    47.527
4974.24     54.877    46.613
5046.60     55.516    44.188
5120.00     56.041    40.126
5194.47     56.279    35.551
5270.03     56.258    31.411
5346.68     55.970    28.743
5424.45     55.708    28.804
5503.35     55.927    29.806
5583.40     56.298    26.989
5664.61     56.046    21.761
5747.01     55.167    20.370
5830.60     54.609    23.823
5915.41     54.695    26.569
6001.45     54.800    27.076
6088.74     54.900    27.214
6177.30     55.078    26.093
6267.15     55.067    22.978
6358.31     54.726    20.494
6450.80     54.340    19.270
6544.62     54.020    18.975
6639.82     53.761    18.918
6736.40     53.648    19.488
6834.38     53.795    19.432
6933.79     53.927    17.212
7034.64     53.719    14.626
7136.96     53.376    13.577
7240.77     53.060    14.322
7346.09     53.043    15.873
7452.94     53.199    16.330
7561.35     53.366    15.594
7671.33     53.354    13.819
7782.91     53.178    12.240
7896.12     52.806    11.037
8010.97     52.226    12.544
8127.49     52.242    15.981
8245.71     52.403    16.542
8365.65     52.516    17.468
8487.33     52.854    16.011
8610.78     52.811    12.735
8736.03     52.545    10.369
8863.09     52.302     8.623
8992.01     51.953     6.235
9122.80     51.437     4.639
9255.50     50.996     4.755
9390.12     50.752     4.797
9526.70     50.534     5.311
9665.27     50.502     5.264
9805.86     50.555     4.156
9948.49     50.472     2.423
10093.2     50.414     1.019
10240.0     50.264    -0.118
10388.9     50.238    -0.954
10540.1     50.417    -3.202
10693.4     50.270    -8.057
10848.9     49.600   -11.222
11006.7     48.967   -12.601
11166.8     48.403   -12.632
11329.2     47.761   -11.615
11494.0     47.603    -6.596
11661.2     48.547    -5.352
11830.8     49.071   -10.724
12002.9     48.938   -17.083
12177.5     48.396   -20.332
12354.6     48.085   -21.372
12534.3     48.010   -24.328
12716.6     47.752   -28.337
12901.6     47.051   -31.732
13089.2     46.702   -33.488
13279.6     46.174   -36.476
13472.8     45.814   -39.006
13668.8     45.320   -43.856
13867.6     44.489   -47.186
14069.3     43.712   -50.514
14273.9     42.937   -54.562
14481.5     41.674   -57.496
14692.2     41.211   -57.791
14905.9     40.752   -66.493
15122.7     38.828   -76.393
15342.7     36.430   -78.220
15565.8     34.653   -73.720
15792.2     33.348   -76.777
16021.9     30.755   -68.986
16255.0     30.339   -63.844
16491.4     29.027   -69.790
16731.3     25.935   -73.111
16974.7     23.603   -73.845
17221.6     21.794   -74.742
17472.1     17.518   -99.621
17726.2     10.148   108.246
17984.0     13.944   -60.829
18245.6     18.244    85.198
18511.0     22.498    88.246
18780.2     24.322    82.970
19053.4     25.780    81.587
19330.5     26.732    73.266
19611.7     26.978    69.389
19897.0     27.029    62.941
20186.4     26.916    66.787
20480.0     25.697    67.827
20777.9     25.476    73.727
21080.1     25.350    84.290
21386.7     26.511    98.036
21697.8     29.064   115.625
22013.4     33.580   121.220
22333.6     38.329   113.921
22658.4     42.749    95.450
22988.0     46.079    63.753
23322.4     47.858    24.169
23661.6     46.800   -26.028
24005.8     40.881   -61.614
24355.0     32.626   -62.427
24709.2     29.991    -6.462
25068.6     34.900     7.854
25433.2     38.118    -1.869
25803.2     39.674   -15.405
26178.5     40.673   -30.378
26559.3     41.223   -44.797
26945.6     40.643   -61.161
27337.5     40.553   -67.869
27735.2     41.612   -84.538
28138.6     38.674  -104.562
28547.9     37.564  -103.255
28963.1     36.842  -107.835
29384.4     36.166  -112.171
29811.8     35.945  -116.414
30245.4     35.570  -126.471
30685.3     34.357  -138.576
31131.7     32.779  -150.642
31584.5     31.163   161.192
32043.9     26.109   -15.912
32510.0     27.299   -96.764
32982.8     25.736  -111.486
33462.6     22.710  -103.184
33949.3     21.005    13.678
34443.1     29.071   -46.587
34944.1     28.679   -95.794
35452.4     30.702  -122.076
35968.0     24.652  -132.618
36491.2     30.204  -164.839
37022.0     16.865   106.077
37560.5     17.989  -124.471
38106.8     22.123  -165.023
38661.1     23.132   116.366
39223.4     14.595   177.374
39793.9     13.472   -56.676
