Freq[Hz]     dBSPL  Phase[Deg]
5.00000      4.079  -136.103
5.07273      4.453  -133.146
5.14651      4.773  -130.642
5.22137      4.944  -129.401
5.29732      5.115  -128.161
5.37437      5.286  -126.922
5.45254      5.457  -125.683
5.53185      5.434  -124.364
5.61231      5.206  -122.960
5.69394      4.977  -121.556
5.77676      4.749  -120.154
5.86079      4.515  -118.688
5.94604      3.961  -113.468
6.03252      3.408  -108.249
6.12027      2.855  -103.031
6.20929      2.301   -97.813
6.29961      2.438   -89.066
6.39124      2.727   -79.536
6.48420      3.016   -70.007
6.57851      3.306   -60.479
6.67420      4.114   -55.881
6.77128      5.007   -52.085
6.86977      5.899   -48.289
6.96969      6.736   -44.925
7.07107      7.149   -44.843
7.17392      7.561   -44.762
7.27827      7.974   -44.681
7.38413      7.996   -44.507
7.49154      7.716   -44.261
7.60050      7.436   -44.015
7.71105      7.038   -42.613
7.82321      6.120   -36.125
7.93701      5.203   -29.639
8.05245      4.285   -23.154
8.16958      4.850    -8.725
8.28841      5.471     6.000
8.40896      6.091    20.723
8.53128      7.528    26.355
8.65537      9.071    30.812
8.78126     10.613    35.268
8.90899     11.464    35.931
9.03857     12.269    36.345
9.17004     13.009    37.009
9.30342     13.223    39.677
9.43874     13.437    42.344
9.57603     13.801    47.190
9.71532     14.393    55.366
9.85663     14.985    63.541
10.0000     16.419    69.688
10.1455     18.087    75.269
10.2930     19.754    79.104
10.4427     21.417    78.068
10.5946     23.079    77.030
10.7487     24.386    73.140
10.9051     25.623    68.678
11.0637     26.643    63.512
11.2246     27.435    57.599
11.3879     28.135    51.603
11.5535     28.503    45.311
11.7216     28.864    39.026
11.8921     28.813    33.321
12.0650     28.761    27.614
12.2405     28.365    23.682
12.4186     27.924    19.977
12.5992     27.358    19.594
12.7825     26.765    19.946
12.9684     26.601    23.552
13.1570     26.538    27.914
13.3484     27.166    30.831
13.5426     27.907    33.512
13.7395     28.752    31.773
13.9394     29.556    29.543
14.1421     30.021    24.887
14.3478     30.314    20.121
14.5565     30.239    15.120
14.7683     29.850    11.519
14.9831     29.220     8.998
15.2010     28.452    12.098
15.4221     27.877    17.233
15.6464     28.247    27.100
15.8740     29.311    33.990
16.1049     30.927    38.501
16.3392     32.475    36.267
16.5768     33.808    32.495
16.8179     34.832    26.857
17.0626     35.376    20.787
17.3107     35.675    15.260
17.5625     35.696    10.647
17.8180     35.489     9.255
18.0771     35.396    10.209
18.3401     35.504    13.349
18.6068     36.247    17.602
18.8775     37.366    19.797
19.1521     38.621    19.982
19.4306     39.864    18.065
19.7133     40.899    14.542
20.0000     41.742    10.790
20.2909     42.450     7.288
20.5860     43.069     4.322
20.8855     43.664     2.047
21.1893     44.316     0.371
21.4975     45.040    -1.241
21.8102     45.810    -3.039
22.1274     46.596    -5.104
22.4492     47.369    -7.391
22.7758     48.118    -9.768
23.1071     48.849   -12.118
23.4432     49.574   -14.409
23.7841     50.307   -16.717
24.1301     51.041   -19.140
24.4811     51.766   -21.708
24.8372     52.470   -24.386
25.1984     53.155   -27.115
25.5649     53.826   -29.869
25.9368     54.493   -32.677
26.3141     55.156   -35.611
26.6968     55.808   -38.723
27.0851     56.440   -42.012
27.4791     57.042   -45.421
27.8788     57.622   -48.892
28.2843     58.189   -52.422
28.6957     58.748   -56.075
29.1131     59.292   -59.920
29.5365     59.807   -63.962
29.9661     60.276   -68.120
30.4020     60.699   -72.256
30.8442     61.084   -76.224
31.2929     61.459   -80.025
31.7480     61.836   -83.734
32.2098     62.215   -87.444
32.6783     62.582   -91.204
33.1536     62.928   -94.971
33.6359     63.252   -98.682
34.1251     63.558  -102.287
34.6215     63.853  -105.801
35.1250     64.141  -109.267
35.6359     64.418  -112.714
36.1543     64.680  -116.148
36.6802     64.923  -119.545
37.2137     65.150  -122.861
37.7550     65.370  -126.093
38.3041     65.592  -129.278
38.8613     65.817  -132.481
39.4265     66.036  -135.709
40.0000     66.254  -138.914
40.5818     66.482  -142.115
41.1721     66.718  -145.455
41.7710     66.932  -148.981
42.3785     67.085  -152.483
42.9949     67.194  -155.571
43.6203     67.314  -158.145
44.2548     67.489  -160.478
44.8985     67.694  -162.936
45.5515     67.884  -165.477
46.2141     68.056  -167.907
46.8863     68.235  -170.214
47.5683     68.431  -172.568
48.2602     68.629  -175.021
48.9621     68.828  -177.525
49.6743     69.037   179.899
50.3968     69.250   177.237
51.1299     69.463   174.557
51.8736     69.684   171.915
52.6281     69.913   169.298
53.3936     70.140   166.723
54.1702     70.368   164.226
54.9581     70.592   161.782
55.7575     70.809   159.342
56.5685     71.015   156.867
57.3914     71.212   154.284
58.2261     71.389   151.563
59.0730     71.548   148.787
59.9323     71.708   146.030
60.8040     71.885   143.293
61.6884     72.098   140.540
62.5857     72.340   137.684
63.4960     72.584   134.757
64.4196     72.823   131.944
65.3566     73.072   129.253
66.3073     73.320   126.546
67.2717     73.542   123.824
68.2502     73.743   121.143
69.2429     73.936   118.476
70.2501     74.130   115.730
71.2719     74.330   112.873
72.3086     74.541   109.843
73.3603     74.748   106.626
74.4274     74.951   103.370
75.5099     75.150   100.036
76.6083     75.316    96.799
77.7226     75.481    93.931
78.8531     75.678    91.181
80.0000     75.883    88.428
81.1636     76.091    85.581
82.3442     76.285    82.561
83.5419     76.463    79.373
84.7570     76.617    75.983
85.9899     76.754    72.492
87.2406     76.870    68.938
88.5096     76.995    65.544
89.7970     77.150    62.021
91.1031     77.292    58.326
92.4282     77.403    54.533
93.7726     77.456    50.777
95.1366     77.455    47.296
96.5204     77.447    44.169
97.9243     77.462    41.116
99.3486     77.502    37.982
100.794     77.560    34.675
102.260     77.624    31.270
103.747     77.690    27.815
105.256     77.744    24.402
106.787     77.779    20.995
108.340     77.785    17.526
109.916     77.737    14.025
111.515     77.663    10.896
113.137     77.632     7.961
114.783     77.623     4.946
116.452     77.610     1.876
118.146     77.585    -1.188
119.865     77.562    -4.221
121.608     77.546    -7.246
123.377     77.528   -10.250
125.171     77.508   -13.228
126.992     77.489   -16.273
128.839     77.457   -19.393
130.713     77.413   -22.546
132.615     77.348   -25.625
134.543     77.276   -28.616
136.500     77.216   -31.581
138.486     77.165   -34.474
140.500     77.097   -37.534
142.544     77.018   -40.518
144.617     76.931   -43.384
146.721     76.822   -45.921
148.855     76.773   -48.434
151.020     76.759   -51.474
153.217     76.681   -54.726
155.445     76.587   -57.453
157.706     76.548   -60.613
160.000     76.318   -63.980
162.327     76.085   -66.073
164.688     76.003   -67.808
167.084     76.049   -69.859
169.514     76.139   -73.651
171.980     75.867   -78.056
174.481     75.499   -80.061
177.019     75.347   -81.212
179.594     75.251   -82.803
182.206     75.196   -84.346
184.856     75.275   -86.320
187.545     75.360   -88.570
190.273     75.433   -91.189
193.041     75.456   -94.506
195.849     75.379   -97.742
198.697     75.360  -100.727
201.587     75.317  -104.333
204.520     75.097  -108.086
207.494     74.834  -110.411
210.512     74.667  -112.108
213.574     74.683  -114.742
216.681     74.500  -117.335
219.833     74.402  -119.321
223.030     74.327  -121.263
226.274     74.374  -123.669
229.565     74.368  -126.803
232.905     74.170  -130.057
236.292     74.041  -131.803
239.729     74.046  -133.564
243.216     74.148  -136.084
246.754     74.185  -139.861
250.343     74.044  -143.206
253.984     73.906  -145.991
257.678     73.803  -148.607
261.426     73.747  -151.243
265.229     73.699  -154.040
269.087     73.596  -157.745
273.001     73.291  -160.106
276.972     73.200  -161.719
281.000     73.124  -163.916
285.088     73.226  -165.389
289.234     73.369  -168.520
293.441     73.484  -172.256
297.709     73.365  -176.646
302.040     73.273   179.584
306.433     72.827   175.611
310.890     72.799   175.857
315.412     72.983   171.381
320.000     72.793   167.741
324.655     72.599   164.059
329.377     72.369   162.361
334.168     72.540   160.046
339.028     72.543   156.666
343.959     72.606   152.746
348.962     72.364   148.992
354.038     72.186   146.948
359.188     72.215   144.726
364.412     72.135   142.055
369.713     72.005   139.999
375.090     72.021   138.148
380.546     71.943   135.600
386.081     71.877   133.527
391.697     71.639   131.522
397.394     71.480   130.350
403.175     71.308   129.348
409.039     71.159   128.581
414.989     70.997   128.020
421.025     70.858   127.688
427.149     70.716   127.384
433.362     70.609   127.277
439.665     70.517   127.096
446.060     70.468   126.814
452.548     70.445   126.735
459.131     70.441   126.436
465.809     70.472   126.102
472.584     70.522   125.689
479.458     70.591   125.056
486.432     70.678   124.374
493.507     70.756   123.423
500.686     70.851   122.315
507.968     70.931   121.146
515.357     70.988   119.750
522.853     71.033   118.238
530.458     71.050   116.566
538.174     71.049   114.844
546.002     71.010   113.083
553.943     70.941   111.265
562.001     70.843   109.461
570.175     70.699   107.733
578.469     70.518   106.056
586.883     70.296   104.593
595.419     70.041   103.385
604.080     69.750   102.325
612.866     69.436   101.714
621.780     69.083   101.488
630.824     68.729   101.681
640.000     68.384   102.314
649.309     68.081   103.599
658.753     67.815   105.196
668.335     67.619   107.292
678.056     67.514   109.564
687.919     67.495   111.894
697.925     67.567   114.121
708.077     67.706   115.917
718.376     67.894   117.376
728.825     68.118   118.339
739.426     68.337   119.000
750.181     68.528   119.168
761.093     68.709   119.066
772.163     68.837   118.784
783.394     68.923   118.387
794.789     68.971   118.005
806.349     68.975   117.727
818.078     68.948   117.601
829.977     68.903   117.745
842.050     68.848   118.103
854.298     68.812   118.764
866.724     68.795   119.580
879.330     68.825   120.549
892.120     68.893   121.557
905.097     68.991   122.421
918.262     69.126   123.071
931.618     69.269   123.450
945.169     69.404   123.566
958.917     69.522   123.423
972.864     69.600   123.109
987.015     69.643   122.733
1001.37     69.629   122.403
1015.94     69.580   122.214
1030.71     69.510   122.280
1045.71     69.420   122.665
1060.92     69.349   123.349
1076.35     69.312   124.255
1092.00     69.325   125.264
1107.89     69.387   126.228
1124.00     69.486   126.873
1140.35     69.610   127.148
1156.94     69.723   126.953
1173.77     69.797   126.393
1190.84     69.807   125.541
1208.16     69.728   124.555
1225.73     69.565   123.602
1243.56     69.310   122.980
1261.65     68.982   122.894
1280.00     68.615   123.519
1298.62     68.247   124.940
1317.51     67.940   127.113
1336.67     67.738   129.808
1356.11     67.652   132.652
1375.84     67.675   135.200
1395.85     67.755   137.248
1416.15     67.842   138.643
1436.75     67.892   139.630
1457.65     67.886   140.417
1478.85     67.810   141.276
1500.36     67.680   142.468
1522.19     67.539   144.124
1544.33     67.417   146.363
1566.79     67.364   148.962
1589.58     67.408   151.680
1612.70     67.557   154.126
1636.16     67.768   156.179
1659.95     68.004   157.530
1684.10     68.218   158.247
1708.60     68.372   158.536
1733.45     68.441   158.591
1758.66     68.425   158.675
1784.24     68.345   159.157
1810.19     68.248   160.186
1836.52     68.192   161.715
1863.24     68.230   163.449
1890.34     68.362   164.869
1917.83     68.548   165.593
1945.73     68.709   165.456
1974.03     68.769   164.684
2002.74     68.693   163.717
2031.87     68.483   163.128
2061.43     68.200   163.255
2091.41     67.928   164.234
2121.83     67.738   165.647
2152.69     67.640   166.987
2184.01     67.571   167.874
2215.77     67.464   168.475
2248.00     67.310   169.133
2280.70     67.143   170.204
2313.87     67.045   171.466
2347.53     67.026   172.429
2381.68     67.007   172.634
2416.32     66.903   172.341
2451.46     66.669   172.278
2487.12     66.404   173.190
2523.30     66.273   174.947
2560.00     66.372   176.353
2597.24     66.594   176.228
2635.01     66.726   174.487
2673.34     66.657   172.091
2712.23     66.419   170.129
2751.68     66.182   169.114
2791.70     66.082   168.283
2832.31     66.094   166.502
2873.50     66.060   163.351
2915.30     65.864   159.500
2957.70     65.500   155.781
3000.72     65.056   152.632
3044.37     64.593   149.965
3088.65     64.122   147.633
3133.58     63.654   145.933
3179.16     63.279   144.895
3225.40     63.069   144.021
3272.31     62.951   142.516
3319.91     62.815   140.569
3368.20     62.668   138.943
3417.19     62.604   137.676
3466.89     62.622   136.133
3517.32     62.642   134.337
3568.48     62.663   133.014
3620.39     62.809   131.786
3673.05     63.036   129.634
3726.47     63.120   126.652
3780.67     63.026   124.369
3835.67     62.988   123.309
3891.46     63.086   121.982
3948.06     63.112   119.790
4005.49     62.972   118.040
4063.75     62.854   117.196
4122.86     62.786   115.972
4182.82     62.563   114.588
4243.66     62.244   114.558
4305.39     62.078   115.375
4368.01     61.980   115.687
4431.55     61.877   116.119
4496.01     61.896   116.260
4561.40     61.869   114.959
4627.75     61.634   113.603
4695.06     61.450   112.725
4763.35     61.200   110.248
4832.64     60.506   107.734
4902.93     59.715   108.385
4974.24     59.228   109.384
5046.60     58.696   109.891
5120.00     58.348   110.868
5194.47     58.050   108.437
5270.03     56.976   105.328
5346.68     55.785   107.246
5424.45     55.080   106.908
5503.35     53.074   101.603
5583.40     48.170   112.205
5664.61     47.900   164.268
5747.01     53.127   175.797
5830.60     55.150   169.424
5915.41     55.883   167.278
6001.45     56.510   166.509
6088.74     56.917   167.847
6177.30     57.733   169.294
6267.15     58.326   168.850
6358.31     58.940   169.575
6450.80     59.469   168.675
6544.62     59.796   169.480
6639.82     60.284   170.128
6736.40     60.678   171.576
6834.38     61.326   172.340
6933.79     61.766   172.197
7034.64     62.216   171.974
7136.96     62.437   171.733
7240.77     62.705   172.154
7346.09     62.826   173.058
7452.94     63.150   174.664
7561.35     63.436   175.586
7671.33     63.735   176.209
7782.91     63.943   177.708
7896.12     64.371   178.448
8010.97     64.654   179.362
8127.49     65.026   179.404
8245.71     65.288   179.686
8365.65     65.448   179.171
8487.33     65.584   179.699
8610.78     65.699   179.885
8736.03     65.899   179.666
8863.09     65.972   179.236
8992.01     65.990   178.213
9122.80     65.994   177.772
9255.50     65.917   176.873
9390.12     65.813   175.808
9526.70     65.638   175.508
9665.27     65.440   175.359
9805.86     65.289   175.688
9948.49     65.258   177.056
10093.2     65.399   177.925
10240.0     65.593   177.633
10388.9     65.738   176.946
10540.1     65.734   176.280
10693.4     65.699   175.478
10848.9     65.677   174.571
11006.7     65.572   173.702
11166.8     65.360   173.375
11329.2     65.177   173.334
11494.0     65.061   173.600
11661.2     65.011   173.717
11830.8     65.004   173.515
12002.9     64.864   172.391
12177.5     64.576   171.724
12354.6     64.311   171.708
12534.3     64.004   171.520
12716.6     63.639   172.223
12901.6     63.358   173.226
13089.2     63.001   174.016
13279.6     62.654   176.131
13472.8     62.618   177.327
13668.8     62.299   176.851
13867.6     61.841   177.284
14069.3     61.379   178.292
14273.9     60.828   179.392
14481.5     60.239  -178.013
14692.2     59.931  -174.485
14905.9     59.819  -172.705
15122.7     59.599  -171.943
15342.7     59.327  -172.080
15565.8     58.845  -173.163
15792.2     57.925  -174.488
16021.9     56.764  -170.893
16255.0     56.159  -167.127
16491.4     55.364  -163.805
16731.3     54.782  -158.238
16974.7     54.536  -154.647
17221.6     54.111  -153.425
17472.1     53.348  -152.396
17726.2     52.128  -149.534
17984.0     51.144  -142.124
18245.6     50.664  -135.497
18511.0     50.229  -130.017
18780.2     49.902  -123.885
19053.4     49.960  -119.344
19330.5     49.942  -118.954
19611.7     49.437  -120.376
19897.0     48.443  -122.434
20186.4     46.866  -125.280
20480.0     44.001  -127.524
20777.9     39.262  -121.455
21080.1     29.906  -155.569
21386.7     37.705    45.550
21697.8     46.393    43.249
22013.4     52.982    36.417
22333.6     58.298    20.103
22658.4     62.505    -5.097
22988.0     65.276   -37.343
23322.4     66.878   -76.618
23661.6     65.739  -129.843
24005.8     59.677  -179.013
24355.0     50.798   134.424
24709.2     47.048    47.624
25068.6     52.111    -4.977
25433.2     55.529   -28.648
25803.2     57.232   -44.164
26178.5     58.714   -55.473
26559.3     59.985   -67.998
26945.6     60.345   -82.375
27337.5     60.564   -89.297
27735.2     61.890  -102.052
28138.6     60.098  -119.702
28547.9     59.458  -122.078
28963.1     58.567  -130.294
29384.4     56.951  -133.748
29811.8     55.846  -131.479
30245.4     55.466  -132.675
30685.3     54.438  -139.985
31131.7     52.430  -148.792
31584.5     49.422   167.979
32043.9     49.819    -3.140
32510.0     52.609   -69.979
32982.8     51.367   -88.585
33462.6     48.197   -90.800
33949.3     44.052   -85.007
34443.1     50.155   -31.381
34944.1     47.882   -49.267
35452.4     52.866   -57.295
35968.0     49.145   -75.257
36491.2     52.369   -72.629
37022.0     44.826   -95.508
37560.5     46.745   -73.753
38106.8     45.716   -78.120
38661.1     49.002  -137.600
39223.4     32.343    31.519
39793.9     28.145   -67.526
