Freq[Hz]     dBSPL  Phase[Deg]
5.00000     -7.649  -154.522
5.07273     -7.253  -152.125
5.14651     -6.906  -150.180
5.22137     -6.697  -149.498
5.29732     -6.487  -148.816
5.37437     -6.278  -148.134
5.45254     -6.069  -147.454
5.53185     -6.047  -146.679
5.61231     -6.223  -145.802
5.69394     -6.399  -144.927
5.77676     -6.575  -144.052
5.86079     -6.756  -143.113
5.94604     -7.246  -138.369
6.03252     -7.735  -133.626
6.12027     -8.225  -128.884
6.20929     -8.714  -124.142
6.29961     -8.508  -115.818
6.39124     -8.146  -106.701
6.48420     -7.785   -97.584
6.57851     -7.424   -88.468
6.67420     -6.540   -84.226
6.77128     -5.571   -80.775
6.86977     -4.602   -77.325
6.96969     -3.689   -74.300
7.07107     -3.199   -74.503
7.17392     -2.709   -74.706
7.27827     -2.220   -74.911
7.38413     -2.121   -74.993
7.49154     -2.325   -74.981
7.60050     -2.528   -74.969
7.71105     -2.851   -73.794
7.82321     -3.695   -67.503
7.93701     -4.539   -61.213
8.05245     -5.384   -54.925
8.16958     -4.748   -40.670
8.28841     -4.058   -26.118
8.40896     -3.367   -11.568
8.53128     -1.863    -6.101
8.65537     -0.254    -1.808
8.78126      1.355     2.484
8.90899      2.270     2.981
9.03857      3.140     3.228
9.17004      3.943     3.724
9.30342      4.219     6.213
9.43874      4.496     8.701
9.57603      4.922    13.360
9.71532      5.576    21.338
9.85663      6.230    29.315
10.0000      7.727    35.246
10.1455      9.459    40.607
10.2930     11.191    44.217
10.4427     12.921    42.941
10.5946     14.651    41.663
10.7487     16.031    37.521
10.9051     17.340    32.805
11.0637     18.437    27.382
11.2246     19.308    21.210
11.3879     20.090    14.958
11.5535     20.545     8.414
11.7216     20.994     1.880
11.8921     21.038    -4.052
12.0650     21.082    -9.986
12.2405     20.788   -14.111
12.4186     20.450   -18.004
12.5992     19.993   -18.531
12.7825     19.510   -18.314
12.9684     19.460   -14.791
13.1570     19.511   -10.500
13.3484     20.256    -7.591
13.5426     21.113    -4.909
13.7395     22.075    -6.573
13.9394     22.996    -8.716
14.1421     23.576   -13.218
14.3478     23.983   -17.808
14.5565     24.017   -22.584
14.7683     23.735   -25.925
14.9831     23.208   -28.157
15.2010     22.535   -24.725
15.4221     22.051   -19.243
15.6464     22.506    -8.996
15.8740     23.647    -1.712
16.1049     25.337     3.204
16.3392     26.947     1.384
16.5768     28.338    -1.974
16.8179     29.414    -7.202
17.0626     29.999   -12.878
17.3107     30.334   -18.026
17.5625     30.385   -22.279
17.8180     30.201   -23.352
18.0771     30.126   -22.109
18.3401     30.249   -18.714
18.6068     31.003   -14.259
18.8775     32.130   -11.910
19.1521     33.393   -11.615
19.4306     34.644   -13.467
19.7133     35.688   -16.985
20.0000     36.543   -20.778
20.2909     37.267   -24.362
20.5860     37.907   -27.443
20.8855     38.528   -29.865
21.1893     39.214   -31.712
21.4975     39.980   -33.507
21.8102     40.799   -35.487
22.1274     41.641   -37.728
22.4492     42.477   -40.173
22.7758     43.295   -42.685
23.1071     44.099   -45.137
23.4432     44.902   -47.494
23.7841     45.715   -49.826
24.1301     46.530   -52.234
24.4811     47.334   -54.747
24.8372     48.118   -57.336
25.1984     48.880   -59.945
25.5649     49.626   -62.553
25.9368     50.364   -65.196
26.3141     51.096   -67.949
26.6968     51.812   -70.871
27.0851     52.505   -73.965
27.4791     53.167   -77.178
27.8788     53.805   -80.453
28.2843     54.427   -83.788
28.6957     55.040   -87.247
29.1131     55.638   -90.897
29.5365     56.206   -94.741
29.9661     56.728   -98.696
30.4020     57.200  -102.619
30.8442     57.635  -106.365
31.2929     58.058  -109.934
31.7480     58.480  -113.403
32.2098     58.900  -116.869
32.6783     59.304  -120.385
33.1536     59.683  -123.915
33.6359     60.036  -127.401
34.1251     60.368  -130.804
34.6215     60.689  -134.142
35.1250     60.999  -137.461
35.6359     61.300  -140.794
36.1543     61.587  -144.144
36.6802     61.857  -147.478
37.2137     62.117  -150.748
37.7550     62.375  -153.938
38.3041     62.640  -157.071
38.8613     62.912  -160.202
39.4265     63.181  -163.323
40.0000     63.450  -166.384
40.5818     63.727  -169.398
41.1721     64.009  -172.512
41.7710     64.265  -175.785
42.3785     64.449  -179.017
42.9949     64.584   178.162
43.6203     64.720   175.837
44.2548     64.908   173.716
44.8985     65.120   171.421
45.5515     65.316   168.990
46.2141     65.496   166.620
46.8863     65.687   164.329
47.5683     65.901   161.960
48.2602     66.123   159.482
48.9621     66.354   156.958
49.6743     66.600   154.387
50.3968     66.853   151.762
51.1299     67.107   149.156
51.8736     67.367   146.620
52.6281     67.630   144.132
53.3936     67.889   141.693
54.1702     68.142   139.324
54.9581     68.390   136.986
55.7575     68.629   134.622
56.5685     68.860   132.197
57.3914     69.084   129.646
58.2261     69.295   126.955
59.0730     69.493   124.225
59.9323     69.694   121.550
60.8040     69.915   118.942
61.6884     70.167   116.368
62.5857     70.444   113.732
63.4960     70.713   111.044
64.4196     70.970   108.464
65.3566     71.227   105.974
66.3073     71.478   103.418
67.2717     71.702   100.791
68.2502     71.909    98.161
69.2429     72.113    95.518
70.2501     72.323    92.793
71.2719     72.542    89.972
72.3086     72.773    87.002
73.3603     72.999    83.865
74.4274     73.217    80.697
75.5099     73.427    77.443
76.6083     73.602    74.264
77.7226     73.777    71.429
78.8531     73.984    68.693
80.0000     74.200    65.945
81.1636     74.423    63.103
82.3442     74.631    60.095
83.5419     74.824    56.924
84.7570     74.990    53.550
85.9899     75.139    50.066
87.2406     75.266    46.508
88.5096     75.403    43.098
89.7970     75.570    39.551
91.1031     75.727    35.829
92.4282     75.851    32.011
93.7726     75.918    28.229
95.1366     75.931    24.714
96.5204     75.938    21.546
97.9243     75.970    18.446
99.3486     76.028    15.277
100.794     76.105    11.958
102.260     76.187     8.567
103.747     76.261     5.129
105.256     76.319     1.702
106.787     76.355    -1.776
108.340     76.368    -5.366
109.916     76.334    -9.006
111.515     76.280   -12.247
113.137     76.271   -15.250
114.783     76.281   -18.301
116.452     76.280   -21.405
118.146     76.265   -24.529
119.865     76.249   -27.654
121.608     76.243   -30.798
123.377     76.239   -33.927
125.171     76.236   -37.018
126.992     76.232   -40.155
128.839     76.213   -43.364
130.713     76.176   -46.638
132.615     76.122   -49.883
134.543     76.068   -53.049
136.500     76.031   -56.151
138.486     75.996   -59.131
140.500     75.938   -62.300
142.544     75.868   -65.457
144.617     75.795   -68.510
146.721     75.705   -71.212
148.855     75.674   -73.877
151.020     75.675   -77.073
153.217     75.609   -80.500
155.445     75.529   -83.410
157.706     75.502   -86.761
160.000     75.286   -90.366
162.327     75.073   -92.705
164.688     75.012   -94.637
167.084     75.077   -96.879
169.514     75.182  -100.906
171.980     74.931  -105.561
174.481     74.581  -107.772
177.019     74.441  -109.153
179.594     74.362  -111.065
182.206     74.343  -112.910
184.856     74.449  -115.053
187.545     74.536  -117.502
190.273     74.616  -120.519
193.041     74.673  -124.227
195.849     74.628  -127.714
198.697     74.629  -130.999
201.587     74.612  -134.974
204.520     74.422  -139.030
207.494     74.179  -141.696
210.512     74.047  -143.824
213.574     74.105  -146.739
216.681     73.935  -149.600
219.833     73.857  -152.062
223.030     73.828  -154.440
226.274     73.909  -157.203
229.565     73.940  -160.756
232.905     73.779  -164.348
236.292     73.670  -166.502
239.729     73.717  -168.770
243.216     73.858  -171.661
246.754     73.917  -175.949
250.343     73.830  -179.870
253.984     73.741   176.943
257.678     73.671   173.862
261.426     73.653   170.681
265.229     73.647   167.306
269.087     73.589   163.026
273.001     73.330   160.077
276.972     73.287   157.857
281.000     73.264   155.018
285.088     73.427   152.890
289.234     73.621   149.118
293.441     73.794   144.636
297.709     73.744   139.592
302.040     73.701   135.180
306.433     73.306   130.414
310.890     73.340   129.809
315.412     73.588   124.471
320.000     73.462   119.965
324.655     73.330   115.392
329.377     73.155   112.732
334.168     73.405   109.305
339.028     73.484   104.909
343.959     73.609    99.922
348.962     73.427    94.983
354.038     73.316    91.759
359.188     73.398    88.237
364.412     73.384    84.155
369.713     73.306    80.685
375.090     73.367    77.332
380.546     73.330    73.177
386.081     73.287    69.456
391.697     73.069    65.641
397.394     72.911    62.626
403.175     72.720    59.820
409.039     72.520    57.072
414.989     72.305    54.562
421.025     72.068    52.300
427.149     71.812    50.189
433.362     71.554    48.324
439.665     71.286    46.472
446.060     71.035    44.812
452.548     70.800    43.378
459.131     70.583    42.332
465.809     70.382    41.353
472.584     70.221    40.608
479.458     70.113    40.022
486.432     70.040    39.569
493.507     70.019    39.008
500.686     70.055    38.498
507.968     70.130    37.855
515.357     70.240    36.989
522.853     70.397    35.974
530.458     70.568    34.602
538.174     70.759    33.042
546.002     70.944    31.245
553.943     71.128    29.124
562.001     71.313    26.728
570.175     71.478    24.081
578.469     71.627    21.235
586.883     71.748    18.240
595.419     71.844    15.169
604.080     71.897    11.940
612.866     71.929     8.592
621.780     71.925     5.232
630.824     71.883     1.772
640.000     71.817    -1.556
649.309     71.705    -4.726
658.753     71.569    -7.917
668.335     71.404   -10.999
678.056     71.213   -13.764
687.919     70.991   -16.388
697.925     70.765   -18.804
708.077     70.540   -20.894
718.376     70.323   -22.703
728.825     70.124   -24.308
739.426     69.953   -25.659
750.181     69.823   -26.921
761.093     69.738   -28.105
772.163     69.703   -29.322
783.394     69.700   -30.693
794.789     69.735   -32.347
806.349     69.788   -34.217
818.078     69.841   -36.493
829.977     69.886   -39.071
842.050     69.913   -41.950
854.298     69.899   -45.089
866.724     69.839   -48.373
879.330     69.725   -51.840
892.120     69.542   -55.339
905.097     69.302   -58.824
918.262     68.993   -62.097
931.618     68.622   -64.994
945.169     68.187   -67.532
958.917     67.717   -69.444
972.864     67.230   -70.686
987.015     66.775   -71.194
1001.37     66.378   -70.908
1015.94     66.091   -70.064
1030.71     65.962   -69.013
1045.71     65.969   -68.120
1060.92     66.110   -67.814
1076.35     66.325   -68.204
1092.00     66.555   -69.469
1107.89     66.780   -71.503
1124.00     66.939   -74.150
1140.35     67.032   -77.219
1156.94     67.036   -80.516
1173.77     66.946   -83.824
1190.84     66.781   -86.971
1208.16     66.562   -89.652
1225.73     66.295   -91.926
1243.56     66.046   -93.588
1261.65     65.837   -94.733
1280.00     65.704   -95.595
1298.62     65.687   -96.489
1317.51     65.748   -97.513
1336.67     65.864   -99.141
1356.11     65.990  -101.311
1375.84     66.104  -104.047
1395.85     66.162  -107.188
1416.15     66.167  -110.444
1436.75     66.109  -113.684
1457.65     66.026  -116.758
1478.85     65.938  -119.609
1500.36     65.867  -122.231
1522.19     65.828  -124.906
1544.33     65.828  -127.764
1566.79     65.831  -131.006
1589.58     65.818  -134.708
1612.70     65.748  -138.567
1636.16     65.595  -142.532
1659.95     65.381  -146.235
1684.10     65.107  -149.407
1708.60     64.853  -152.033
1733.45     64.665  -154.100
1758.66     64.567  -156.164
1784.24     64.556  -158.554
1810.19     64.572  -161.604
1836.52     64.537  -165.138
1863.24     64.414  -168.886
1890.34     64.197  -172.190
1917.83     63.966  -174.699
1945.73     63.807  -176.353
1974.03     63.840  -177.808
2002.74     64.050  -179.845
2031.87     64.345   176.745
2061.43     64.584   172.028
2091.41     64.670   166.263
2121.83     64.569   160.208
2152.69     64.306   154.559
2184.01     63.947   149.608
2215.77     63.565   145.240
2248.00     63.182   141.161
2280.70     62.757   137.011
2313.87     62.205   133.145
2347.53     61.496   130.304
2381.68     60.774   129.533
2416.32     60.265   130.648
2451.46     60.164   131.876
2487.12     60.263   131.365
2523.30     60.235   129.063
2560.00     59.916   126.844
2597.24     59.456   126.977
2635.01     59.305   129.922
2673.34     59.773   132.389
2712.23     60.541   131.272
2751.68     61.095   126.732
2791.70     61.168   120.993
2832.31     60.835   116.644
2873.50     60.388   115.142
2915.30     60.217   115.638
2957.70     60.392   115.831
3000.72     60.647   114.405
3044.37     60.797   112.343
3088.65     60.871   110.575
3133.58     61.021   109.188
3179.16     61.239   107.408
3225.40     61.454   105.060
3272.31     61.593   102.649
3319.91     61.763   100.462
3368.20     62.015    97.875
3417.19     62.271    94.266
3466.89     62.356    89.795
3517.32     62.235    85.598
3568.48     62.032    82.514
3620.39     61.877    80.214
3673.05     61.787    77.846
3726.47     61.667    75.395
3780.67     61.515    73.269
3835.67     61.374    71.305
3891.46     61.219    69.483
3948.06     61.032    68.075
4005.49     60.914    67.220
4063.75     60.858    66.186
4122.86     60.725    65.247
4182.82     60.645    65.863
4243.66     60.970    66.846
4305.39     61.548    64.859
4368.01     61.840    60.199
4431.55     61.732    55.776
4496.01     61.499    52.983
4561.40     61.334    51.042
4627.75     61.246    49.125
4695.06     61.144    46.743
4763.35     60.902    44.302
4832.64     60.560    43.187
4902.93     60.404    43.154
4974.24     60.421    42.481
5046.60     60.447    40.894
5120.00     60.392    38.526
5194.47     60.132    35.907
5270.03     59.625    34.430
5346.68     59.085    35.575
5424.45     58.955    38.647
5503.35     59.099    40.338
5583.40     59.281    42.719
5664.61     60.139    43.668
5747.01     60.798    38.373
5830.60     60.637    33.616
5915.41     60.543    30.990
6001.45     60.243    27.741
6088.74     59.935    27.365
6177.30     59.839    25.552
6267.15     59.425    24.758
6358.31     59.303    25.150
6450.80     59.042    25.312
6544.62     59.114    26.665
6639.82     59.144    26.414
6736.40     59.333    26.735
6834.38     59.382    24.792
6933.79     59.382    25.331
7034.64     59.611    24.014
7136.96     59.725    22.643
7240.77     59.696    20.120
7346.09     59.649    19.899
7452.94     59.756    17.470
7561.35     59.685    15.855
7671.33     59.599    13.527
7782.91     59.554    11.452
7896.12     59.159     8.223
8010.97     58.748     7.395
8127.49     58.262     7.270
8245.71     57.944     7.043
8365.65     57.389     8.734
8487.33     57.118     9.729
8610.78     56.920    12.517
8736.03     56.934    13.093
8863.09     56.975    12.062
8992.01     56.688    10.881
9122.80     56.305     9.055
9255.50     55.869     8.540
9390.12     55.227     8.665
9526.70     54.698    10.660
9665.27     54.580    14.123
9805.86     54.781    15.812
9948.49     55.002    15.416
10093.2     55.212    14.474
10240.0     55.334    12.985
10388.9     55.117    11.074
10540.1     54.880    10.550
10693.4     54.796    11.315
10848.9     54.603    12.396
11006.7     54.661    14.446
11166.8     54.898    15.184
11329.2     55.288    15.689
11494.0     55.636    14.199
11661.2     55.776    11.879
11830.8     55.687     9.920
12002.9     55.688     9.541
12177.5     55.823     8.774
12354.6     55.996     7.490
12534.3     56.168     5.869
12716.6     56.256     3.002
12901.6     56.221     0.514
13089.2     56.222    -2.204
13279.6     56.123    -5.802
13472.8     55.595    -8.323
13668.8     55.458    -7.408
13867.6     55.810    -8.433
14069.3     56.140   -13.399
14273.9     55.937   -20.624
14481.5     55.223   -26.823
14692.2     53.991   -29.998
14905.9     53.135   -27.202
15122.7     53.217   -24.925
15342.7     53.572   -28.743
15565.8     53.198   -36.386
15792.2     51.843   -41.077
16021.9     50.849   -39.949
16255.0     50.149   -39.085
16491.4     49.832   -37.787
16731.3     49.626   -39.775
16974.7     48.957   -43.489
17221.6     48.006   -45.377
17472.1     46.965   -45.296
17726.2     46.110   -43.685
17984.0     45.700   -41.985
18245.6     45.137   -44.603
18511.0     43.571   -45.245
18780.2     42.224   -37.123
19053.4     42.063   -29.517
19330.5     42.237   -26.025
19611.7     41.793   -23.512
19897.0     41.335   -16.882
20186.4     42.003    -9.851
20480.0     42.615    -6.968
20777.9     42.714    -4.690
21080.1     43.334     3.092
21386.7     44.669    10.069
21697.8     46.099    15.675
22013.4     48.704    24.746
22333.6     53.137    27.355
22658.4     58.473    15.015
22988.0     63.099   -13.225
23322.4     66.370   -52.757
23661.6     67.227  -103.469
24005.8     64.396  -147.806
24355.0     60.612  -174.412
24709.2     57.394   168.069
25068.6     54.769   152.336
25433.2     52.109   134.634
25803.2     49.140   113.651
26178.5     45.723    80.803
26559.3     42.070    22.724
26945.6     43.918   -53.517
27337.5     46.207  -101.714
27735.2     49.282  -140.926
28138.6     43.566  -178.231
28547.9     42.570  -155.582
28963.1     44.896  -156.448
29384.4     46.221  -172.481
29811.8     45.808   169.132
30245.4     44.825   151.571
30685.3     42.472   127.918
31131.7     36.767    91.218
31584.5     30.910   -42.616
32043.9     38.385  -103.508
32510.0     43.670  -149.543
32982.8     41.247   175.344
33462.6     39.591   159.302
33949.3     41.465    59.476
34443.1     51.621  -124.361
34944.1     49.512   130.192
35452.4     38.520   105.629
35968.0     36.443   139.537
36491.2     40.962    79.741
37022.0     34.594    68.133
37560.5     36.008    22.626
38106.8     37.770   -95.887
38661.1     36.276    -7.347
39223.4     28.427  -157.399
39793.9     18.962  -144.396
