Freq[Hz]     dBSPL  Phase[Deg]
5.00000     -1.108  -139.364
5.07273     -0.736  -136.634
5.14651     -0.416  -134.360
5.22137     -0.240  -133.360
5.29732     -0.064  -132.361
5.37437      0.112  -131.363
5.45254      0.289  -130.366
5.53185      0.274  -129.288
5.61231      0.058  -128.126
5.69394     -0.158  -126.964
5.77676     -0.374  -125.803
5.86079     -0.596  -124.579
5.94604     -1.130  -119.588
6.03252     -1.664  -114.597
6.12027     -2.198  -109.608
6.20929     -2.732  -104.619
6.29961     -2.571   -96.080
6.39124     -2.257   -86.754
6.48420     -1.942   -77.429
6.57851     -1.627   -68.105
6.67420     -0.789   -63.681
6.77128      0.134   -60.054
6.86977      1.056   -56.429
6.96969      1.924   -53.231
7.07107      2.369   -53.279
7.17392      2.815   -53.329
7.27827      3.260   -53.380
7.38413      3.315   -53.315
7.49154      3.069   -53.160
7.60050      2.823   -53.006
7.71105      2.458   -51.688
7.82321      1.573   -45.255
7.93701      0.689   -38.822
8.05245     -0.196   -32.391
8.16958      0.401   -17.984
8.28841      1.053    -3.281
8.40896      1.704    11.421
8.53128      3.170    17.054
8.65537      4.740    21.516
8.78126      6.309    25.977
8.90899      7.185    26.662
9.03857      8.015    27.098
9.17004      8.778    27.786
9.30342      9.012    30.487
9.43874      9.246    33.186
9.57603      9.627    38.066
9.71532     10.235    46.275
9.85663     10.843    54.483
10.0000     12.289    60.658
10.1455     13.969    66.265
10.2930     15.646    70.123
10.4427     17.316    69.098
10.5946     18.986    68.071
10.7487     20.299    64.174
10.9051     21.540    59.702
11.0637     22.564    54.512
11.2246     23.359    48.562
11.3879     24.062    42.522
11.5535     24.432    36.162
11.7216     24.795    29.809
11.8921     24.747    24.006
12.0650     24.699    18.201
12.2405     24.308    14.144
12.4186     23.873    10.311
12.5992     23.316     9.779
12.7825     22.731     9.978
12.9684     22.580    13.415
13.1570     22.530    17.604
13.3484     23.176    20.338
13.5426     23.936    22.835
13.7395     24.806    20.910
13.9394     25.635    18.495
14.1421     26.130    13.661
14.3478     26.456     8.723
14.5565     26.416     3.561
14.7683     26.066    -0.188
14.9831     25.476    -2.844
15.2010     24.752     0.145
15.4221     24.220     5.181
15.6464     24.637    14.977
15.8740     25.747    21.816
16.1049     27.410    26.292
16.3392     29.005    24.057
16.5768     30.385    20.300
16.8179     31.456    14.696
17.0626     32.044     8.687
17.3107     32.386     3.235
17.5625     32.448    -1.287
17.8180     32.280    -2.568
18.0771     32.222    -1.493
18.3401     32.365     1.776
18.6068     33.140     6.170
18.8775     34.287     8.511
19.1521     35.568     8.845
19.4306     36.835     7.080
19.7133     37.889     3.708
20.0000     38.751     0.105
20.2909     39.474    -3.253
20.5860     40.106    -6.078
20.8855     40.712    -8.220
21.1893     41.372    -9.771
21.4975     42.103   -11.269
21.8102     42.878   -12.962
22.1274     43.667   -14.935
22.4492     44.442   -17.142
22.7758     45.191   -19.456
23.1071     45.921   -21.757
23.4432     46.644   -24.019
23.7841     47.374   -26.319
24.1301     48.106   -28.756
24.4811     48.828   -31.361
24.8372     49.531   -34.099
25.1984     50.217   -36.914
25.5649     50.890   -39.776
25.9368     51.563   -42.716
26.3141     52.236   -45.799
26.6968     52.903   -49.077
27.0851     53.554   -52.540
27.4791     54.184   -56.125
27.8788     54.796   -59.764
28.2843     55.402   -63.444
28.6957     56.006   -67.221
29.1131     56.601   -71.152
29.5365     57.169   -75.237
29.9661     57.695   -79.386
30.4020     58.174   -83.459
30.8442     58.612   -87.303
31.2929     59.039   -90.930
31.7480     59.461   -94.424
32.2098     59.877   -97.886
32.6783     60.271  -101.378
33.1536     60.637  -104.876
33.6359     60.973  -108.329
34.1251     61.283  -111.709
34.6215     61.577  -115.039
35.1250     61.859  -118.369
35.6359     62.130  -121.737
36.1543     62.388  -125.143
36.6802     62.631  -128.553
37.2137     62.866  -131.911
37.7550     63.103  -135.194
38.3041     63.348  -138.416
38.8613     63.603  -141.626
39.4265     63.856  -144.809
40.0000     64.110  -147.911
40.5818     64.370  -150.948
41.1721     64.632  -154.070
41.7710     64.865  -157.346
42.3785     65.022  -160.586
42.9949     65.126  -163.432
43.6203     65.228  -165.811
44.2548     65.381  -168.024
44.8985     65.560  -170.452
45.5515     65.725  -173.053
46.2141     65.882  -175.621
46.8863     66.055  -178.124
47.5683     66.262   179.303
48.2602     66.482   176.646
48.9621     66.717   173.984
49.6743     66.967   171.321
50.3968     67.225   168.648
51.1299     67.479   166.028
51.8736     67.735   163.494
52.6281     67.990   161.006
53.3936     68.236   158.545
54.1702     68.476   156.125
54.9581     68.715   153.707
55.7575     68.949   151.246
56.5685     69.183   148.729
57.3914     69.417   146.120
58.2261     69.642   143.424
59.0730     69.855   140.762
59.9323     70.065   138.222
60.8040     70.287   135.798
61.6884     70.528   133.430
62.5857     70.781   130.982
63.4960     71.016   128.428
64.4196     71.233   125.903
65.3566     71.451   123.377
66.3073     71.671   120.710
67.2717     71.875   117.926
68.2502     72.074   115.134
69.2429     72.282   112.366
70.2501     72.505   109.583
71.2719     72.739   106.783
72.3086     72.980   103.907
73.3603     73.208   100.913
74.4274     73.416    97.900
75.5099     73.608    94.778
76.6083     73.758    91.679
77.7226     73.906    88.857
78.8531     74.091    86.073
80.0000     74.294    83.237
81.1636     74.515    80.303
82.3442     74.728    77.234
83.5419     74.932    74.058
84.7570     75.111    70.741
85.9899     75.268    67.364
87.2406     75.396    63.935
88.5096     75.527    60.646
89.7970     75.686    57.190
91.1031     75.834    53.523
92.4282     75.954    49.734
93.7726     76.026    45.985
95.1366     76.048    42.543
96.5204     76.066    39.510
97.9243     76.103    36.608
99.3486     76.156    33.665
100.794     76.215    30.541
102.260     76.274    27.266
103.747     76.332    23.863
105.256     76.383    20.438
106.787     76.426    17.004
108.340     76.449    13.539
109.916     76.416    10.080
111.515     76.354     7.006
113.137     76.336     4.112
114.783     76.345     1.139
116.452     76.351    -1.849
118.146     76.342    -4.781
119.865     76.323    -7.683
121.608     76.304   -10.647
123.377     76.290   -13.666
125.171     76.287   -16.663
126.992     76.291   -19.655
128.839     76.275   -22.662
130.713     76.237   -25.720
132.615     76.179   -28.762
134.543     76.121   -31.723
136.500     76.077   -34.615
138.486     76.034   -37.423
140.500     75.969   -40.435
142.544     75.899   -43.426
144.617     75.829   -46.295
146.721     75.739   -48.782
148.855     75.704   -51.210
151.020     75.699   -54.183
153.217     75.625   -57.420
155.445     75.540   -60.186
157.706     75.521   -63.400
160.000     75.325   -66.756
162.327     75.119   -68.727
164.688     75.046   -70.335
167.084     75.093   -72.360
169.514     75.197   -76.211
171.980     74.953   -80.603
174.481     74.602   -82.534
177.019     74.458   -83.678
179.594     74.383   -85.324
182.206     74.361   -86.818
184.856     74.454   -88.668
187.545     74.536   -90.929
190.273     74.625   -93.688
193.041     74.683   -97.072
195.849     74.635  -100.266
198.697     74.635  -103.247
201.587     74.616  -106.915
204.520     74.428  -110.701
207.494     74.195  -113.019
210.512     74.054  -114.720
213.574     74.098  -117.377
216.681     73.941  -120.012
219.833     73.877  -122.035
223.030     73.834  -123.978
226.274     73.910  -126.415
229.565     73.939  -129.594
232.905     73.771  -132.840
236.292     73.663  -134.646
239.729     73.704  -136.525
243.216     73.843  -139.077
246.754     73.903  -142.935
250.343     73.796  -146.468
253.984     73.710  -149.412
257.678     73.657  -152.059
261.426     73.629  -154.744
265.229     73.614  -157.763
269.087     73.562  -161.659
273.001     73.302  -164.150
276.972     73.250  -165.968
281.000     73.233  -168.398
285.088     73.387  -169.996
289.234     73.573  -173.382
293.441     73.742  -177.342
297.709     73.666   177.970
302.040     73.636   173.901
306.433     73.234   169.639
310.890     73.269   169.477
315.412     73.504   164.671
320.000     73.367   160.533
324.655     73.237   156.405
329.377     73.060   154.232
334.168     73.294   151.332
339.028     73.356   147.388
343.959     73.469   142.823
348.962     73.282   138.311
354.038     73.161   135.576
359.188     73.227   132.524
364.412     73.191   128.913
369.713     73.103   125.835
375.090     73.145   123.028
380.546     73.075   119.284
386.081     73.014   115.959
391.697     72.774   112.659
397.394     72.570   110.126
403.175     72.342   107.667
409.039     72.109   105.420
414.989     71.830   103.367
421.025     71.535   101.490
427.149     71.222    99.785
433.362     70.891    98.431
439.665     70.536    97.050
446.060     70.204    95.913
452.548     69.839    95.297
459.131     69.496    94.640
465.809     69.172    94.465
472.584     68.877    94.564
479.458     68.646    94.885
486.432     68.446    95.579
493.507     68.300    96.401
500.686     68.211    97.233
507.968     68.179    98.077
515.357     68.201    98.697
522.853     68.267    99.137
530.458     68.393    99.164
538.174     68.512    99.131
546.002     68.662    98.640
553.943     68.793    97.850
562.001     68.927    96.818
570.175     69.036    95.446
578.469     69.125    93.875
586.883     69.171    92.194
595.419     69.170    90.396
604.080     69.132    88.475
612.866     69.041    86.512
621.780     68.894    84.526
630.824     68.718    82.725
640.000     68.467    81.031
649.309     68.181    79.716
658.753     67.844    78.598
668.335     67.479    77.954
678.056     67.085    77.835
687.919     66.693    78.379
697.925     66.320    79.517
708.077     66.027    81.342
718.376     65.807    83.659
728.825     65.724    86.175
739.426     65.754    88.804
750.181     65.921    91.070
761.093     66.163    92.716
772.163     66.479    93.641
783.394     66.815    93.861
794.789     67.129    93.409
806.349     67.407    92.322
818.078     67.617    90.758
829.977     67.761    88.795
842.050     67.814    86.574
854.298     67.786    84.288
866.724     67.659    82.048
879.330     67.437    79.884
892.120     67.141    78.124
905.097     66.757    76.875
918.262     66.313    76.330
931.618     65.847    76.530
945.169     65.411    77.637
958.917     65.051    79.705
972.864     64.823    82.273
987.015     64.757    84.955
1001.37     64.848    87.265
1015.94     65.054    88.758
1030.71     65.312    89.306
1045.71     65.548    88.843
1060.92     65.715    87.446
1076.35     65.775    85.424
1092.00     65.699    82.989
1107.89     65.466    80.298
1124.00     65.068    77.873
1140.35     64.497    75.830
1156.94     63.754    74.926
1173.77     62.880    75.299
1190.84     61.984    77.879
1208.16     61.190    82.734
1225.73     60.738    89.394
1243.56     60.756    96.439
1261.65     61.168   101.979
1280.00     61.769   104.990
1298.62     62.364   105.619
1317.51     62.803   104.572
1336.67     63.052   102.176
1356.11     63.058    99.223
1375.84     62.784    96.022
1395.85     62.267    93.027
1416.15     61.466    91.238
1436.75     60.437    90.830
1457.65     59.240    93.234
1478.85     58.048    99.066
1500.36     57.256   108.164
1522.19     57.120   119.069
1544.33     57.587   128.140
1566.79     58.337   134.200
1589.58     59.105   137.580
1612.70     59.710   139.213
1636.16     60.157   140.210
1659.95     60.461   140.998
1684.10     60.704   142.193
1708.60     60.958   143.659
1733.45     61.268   145.235
1758.66     61.689   146.454
1784.24     62.158   146.861
1810.19     62.634   146.356
1836.52     63.056   144.841
1863.24     63.361   142.471
1890.34     63.526   139.520
1917.83     63.551   136.395
1945.73     63.431   133.334
1974.03     63.177   130.772
2002.74     62.822   128.656
2031.87     62.420   127.247
2061.43     62.011   126.440
2091.41     61.607   126.103
2121.83     61.233   126.240
2152.69     60.918   126.605
2184.01     60.636   127.215
2215.77     60.477   127.765
2248.00     60.418   127.995
2280.70     60.426   127.296
2313.87     60.436   125.611
2347.53     60.340   122.931
2381.68     60.071   119.695
2416.32     59.640   116.570
2451.46     59.058   114.344
2487.12     58.485   113.116
2523.30     58.033   112.842
2560.00     57.735   112.516
2597.24     57.553   111.712
2635.01     57.375   110.459
2673.34     57.207   109.126
2712.23     57.166   108.310
2751.68     57.332   106.960
2791.70     57.690   104.171
2832.31     58.050    99.132
2873.50     58.214    92.382
2915.30     58.064    85.022
2957.70     57.605    78.311
3000.72     56.945    73.497
3044.37     56.299    70.851
3088.65     55.887    69.762
3133.58     55.703    68.605
3179.16     55.578    66.425
3225.40     55.314    63.713
3272.31     54.855    61.970
3319.91     54.302    62.580
3368.20     54.017    65.552
3417.19     54.276    69.317
3466.89     54.925    70.488
3517.32     55.569    68.735
3568.48     55.979    64.988
3620.39     56.106    60.528
3673.05     56.000    56.255
3726.47     55.656    52.838
3780.67     55.107    50.879
3835.67     54.570    51.653
3891.46     54.385    54.131
3948.06     54.596    55.842
4005.49     54.854    55.128
4063.75     54.928    53.708
4122.86     54.909    53.225
4182.82     54.932    53.715
4243.66     55.183    53.971
4305.39     55.553    53.106
4368.01     55.803    50.549
4431.55     55.704    47.921
4496.01     55.353    48.034
4561.40     55.413    51.489
4627.75     56.223    54.022
4695.06     57.222    51.696
4763.35     57.854    45.495
4832.64     57.872    38.524
4902.93     57.349    33.657
4974.24     56.823    32.583
5046.60     56.798    33.157
5120.00     57.035    31.097
5194.47     57.026    27.241
5270.03     56.849    24.161
5346.68     56.756    21.426
5424.45     56.767    17.448
5503.35     56.519    11.237
5583.40     55.626     5.169
5664.61     54.231     4.423
5747.01     53.434    10.064
5830.60     53.575    14.562
5915.41     53.844    15.451
6001.45     53.783    15.460
6088.74     53.733    17.761
6177.30     54.183    19.553
6267.15     54.615    17.272
6358.31     54.515    14.651
6450.80     54.309    14.188
6544.62     54.388    13.969
6639.82     54.564    11.320
6736.40     54.410     7.670
6834.38     54.195     4.846
6933.79     54.043     1.458
7034.64     53.803    -2.266
7136.96     53.557    -6.193
7240.77     53.252   -10.338
7346.09     52.731   -15.199
7452.94     51.830   -17.823
7561.35     51.123   -17.874
7671.33     50.561   -17.342
7782.91     50.036   -18.612
7896.12     48.817   -18.342
8010.97     47.864   -11.456
8127.49     48.121    -4.252
8245.71     48.198    -4.860
8365.65     47.770    -1.657
8487.33     48.027    -0.132
8610.78     47.788    -1.660
8736.03     47.375    -0.655
8863.09     47.615     1.268
8992.01     47.770    -3.310
9122.80     47.424    -7.234
9255.50     47.010    -9.763
9390.12     46.747   -16.340
9526.70     45.666   -22.391
9665.27     44.258   -25.893
9805.86     42.864   -23.620
9948.49     42.243   -19.830
10093.2     41.736   -16.892
10240.0     41.706   -12.064
10388.9     41.766   -10.714
10540.1     41.914    -8.621
10693.4     42.174   -11.630
10848.9     42.050   -13.018
11006.7     41.891   -16.290
11166.8     42.089   -22.324
11329.2     41.474   -31.654
11494.0     40.126   -40.790
11661.2     38.397   -45.097
11830.8     37.113   -46.152
12002.9     36.248   -45.239
12177.5     35.810   -43.250
12354.6     36.560   -52.047
12534.3     34.881   -72.093
12716.6     31.762   -76.251
12901.6     27.895   -76.166
13089.2     23.164   -56.709
13279.6     26.380   -38.064
13472.8     25.195   -60.000
13668.8     21.816   -41.141
13867.6     29.208   -42.731
14069.3     31.834   -90.463
14273.9     32.153  -135.133
14481.5     32.001  -171.076
14692.2     29.849   156.703
14905.9     27.930   161.026
15122.7     29.088   154.760
15342.7     29.699   139.240
15565.8     29.338   133.928
15792.2     30.117   121.445
16021.9     27.361   113.311
16255.0     27.698   136.721
16491.4     29.106   133.855
16731.3     30.255   133.143
16974.7     30.995   113.933
17221.6     29.086   102.339
17472.1     26.828   104.399
17726.2     27.191   106.703
17984.0     26.779   107.561
18245.6     27.079   108.515
18511.0     27.506   103.904
18780.2     26.014    93.280
19053.4     22.352    96.089
19330.5     22.036   119.866
19611.7     24.386   119.849
19897.0     25.378   101.969
20186.4     23.552    83.462
20480.0     19.266    75.812
20777.9     17.606    -0.051
21080.1     19.172   108.681
21386.7     23.516   103.257
21697.8     17.560   172.667
22013.4     16.059     3.547
22333.6     23.991   165.719
22658.4     28.231   137.095
22988.0     30.202   104.690
23322.4     31.838    94.221
23661.6     32.769    55.678
24005.8     32.278    16.501
24355.0     20.138   -81.251
24709.2     26.856    68.315
25068.6     29.437    31.767
25433.2     27.113    12.526
25803.2     27.890    18.249
26178.5     28.384    -1.198
26559.3     29.801     3.784
26945.6     32.019   -23.544
27337.5     31.498   -40.313
27735.2     31.401   -57.383
28138.6     29.960   -71.594
28547.9     29.747   -81.411
28963.1     28.377   -86.958
29384.4     28.501   -93.244
29811.8     28.339  -107.000
30245.4     27.058  -115.371
30685.3     25.698  -127.479
31131.7     25.389  -127.344
31584.5     24.881  -163.285
32043.9     15.931   -16.780
32510.0     17.531   123.851
32982.8     16.732   134.855
33462.6     14.422   -76.844
33949.3     13.502    24.235
34443.1     21.536   -27.020
34944.1     17.674   -64.182
35452.4     19.791    23.886
35968.0     17.023    68.065
36491.2     20.018   -63.870
37022.0     15.217   -26.426
37560.5     13.986   134.081
38106.8     14.832  -101.262
38661.1     15.230   -79.529
39223.4     14.850   -53.473
39793.9     13.591   173.904
