Freq[Hz]     dBSPL  Phase[Deg]
5.00000      2.464  -101.006
5.07273      2.841   -97.606
5.14651      3.166   -94.649
5.22137      3.344   -92.927
5.29732      3.521   -91.207
5.37437      3.699   -89.487
5.45254      3.877   -87.768
5.53185      3.862   -85.947
5.61231      3.643   -84.018
5.69394      3.425   -82.091
5.77676      3.206   -80.164
5.86079      2.982   -78.174
5.94604      2.442   -72.380
6.03252      1.902   -66.587
6.12027      1.361   -60.794
6.20929      0.821   -55.003
6.29961      0.973   -45.635
6.39124      1.278   -35.475
6.48420      1.584   -25.317
6.57851      1.889   -15.159
6.67420      2.716    -9.878
6.77128      3.627    -5.390
6.86977      4.539    -0.902
6.96969      5.394     3.160
7.07107      5.826     3.999
7.17392      6.259     4.838
7.27827      6.691     5.675
7.38413      6.732     6.644
7.49154      6.473     7.715
7.60050      6.213     8.785
7.71105      5.834    11.025
7.82321      4.936    18.406
7.93701      4.038    25.786
8.05245      3.140    33.164
8.16958      3.724    48.553
8.28841      4.362    64.239
8.40896      5.001    79.925
8.53128      6.453    86.577
8.65537      8.011    92.062
8.78126      9.568    97.546
8.90899     10.431    99.297
9.03857     11.249   100.802
9.17004     12.000   102.565
9.30342     12.221   106.384
9.43874     12.442   110.202
9.57603     12.811   116.220
9.71532     13.405   125.601
9.85663     14.000   134.981
10.0000     15.431   142.370
10.1455     17.096   149.204
10.2930     18.758   154.302
10.4427     20.410   154.559
10.5946     22.062   154.815
10.7487     23.354   152.244
10.9051     24.573   149.108
11.0637     25.573   145.278
11.2246     26.342   140.713
11.3879     27.018   136.069
11.5535     27.356   131.137
11.7216     27.687   126.213
11.8921     27.599   121.872
12.0650     27.511   117.529
12.2405     27.074   114.954
12.4186     26.592   112.606
12.5992     25.982   113.566
12.7825     25.344   115.258
12.9684     25.133   120.183
13.1570     25.022   125.860
13.3484     25.604   130.067
13.5426     26.297   134.033
13.7395     27.097   133.549
13.9394     27.857   132.570
14.1421     28.282   129.139
14.3478     28.538   125.591
14.5565     28.430   121.794
14.7683     28.015   119.390
14.9831     27.362   118.063
15.2010     26.581   122.359
15.4221     25.995   128.696
15.6464     26.365   139.784
15.8740     27.436   147.917
16.1049     29.064   153.690
16.3392     30.636   152.775
16.5768     31.998   150.355
16.8179     33.058   146.113
17.0626     33.645   141.517
17.3107     33.990   137.514
17.5625     34.062   134.484
17.8180     33.910   134.773
18.0771     33.873   137.469
18.3401     34.039   142.414
18.6068     34.841   148.566
18.8775     36.016   152.736
19.1521     37.326   154.959
19.4306     38.622   155.145
19.7133     39.703   153.806
20.0000     40.590   152.298
20.2909     41.336   151.091
20.5860     41.988   150.469
20.8855     42.610   150.580
21.1893     43.282   151.336
21.4975     44.021   152.183
21.8102     44.800   152.867
22.1274     45.591   153.301
22.4492     46.365   153.526
22.7758     47.111   153.669
23.1071     47.836   153.846
23.4432     48.554   154.086
23.7841     49.280   154.313
24.1301     50.009   154.433
24.4811     50.729   154.421
24.8372     51.433   154.317
25.1984     52.122   154.186
25.5649     52.800   154.064
25.9368     53.479   153.929
26.3141     54.158   153.720
26.6968     54.829   153.390
27.0851     55.481   152.949
27.4791     56.107   152.460
27.8788     56.710   151.987
28.2843     57.298   151.528
28.6957     57.875   151.018
29.1131     58.433   150.385
29.5365     58.957   149.616
29.9661     59.431   148.784
30.4020     59.850   148.020
30.8442     60.225   147.459
31.2929     60.585   147.086
31.7480     60.942   146.818
32.2098     61.296   146.553
32.6783     61.638   146.238
33.1536     61.958   145.913
33.6359     62.258   145.643
34.1251     62.546   145.484
34.6215     62.831   145.432
35.1250     63.113   145.452
35.6359     63.394   145.536
36.1543     63.669   145.686
36.6802     63.932   145.945
37.2137     64.187   146.373
37.7550     64.443   146.978
38.3041     64.703   147.745
38.8613     64.970   148.602
39.4265     65.231   149.560
40.0000     65.488   150.656
40.5818     65.752   151.872
41.1721     66.017   153.058
41.7710     66.253   154.150
42.3785     66.416   155.352
42.9949     66.527   157.030
43.6203     66.638   159.268
44.2548     66.797   161.774
44.8985     66.978   164.167
45.5515     67.141   166.478
46.2141     67.286   168.899
46.8863     67.442   171.444
47.5683     67.622   173.958
48.2602     67.815   176.413
48.9621     68.018   178.882
49.6743     68.241  -178.625
50.3968     68.478  -176.100
51.1299     68.717  -173.456
51.8736     68.964  -170.638
52.6281     69.213  -167.668
53.3936     69.455  -164.556
54.1702     69.689  -161.293
54.9581     69.915  -157.932
55.7575     70.133  -154.539
56.5685     70.346  -151.149
57.3914     70.558  -147.809
58.2261     70.766  -144.514
59.0730     70.967  -141.121
59.9323     71.174  -137.521
60.8040     71.399  -133.693
61.6884     71.649  -129.670
62.5857     71.912  -125.587
63.4960     72.155  -121.467
64.4196     72.375  -117.192
65.3566     72.591  -112.806
66.3073     72.803  -108.467
67.2717     72.997  -104.155
68.2502     73.183   -99.762
69.2429     73.376   -95.257
70.2501     73.580   -90.677
71.2719     73.795   -86.037
72.3086     74.016   -81.411
73.3603     74.228   -76.846
74.4274     74.430   -72.229
75.5099     74.628   -67.614
76.6083     74.797   -62.814
77.7226     74.973   -57.522
78.8531     75.186   -51.955
80.0000     75.404   -46.222
81.1636     75.622   -40.426
82.3442     75.816   -34.678
83.5419     75.990   -29.005
84.7570     76.140   -23.448
85.9899     76.277   -17.890
87.2406     76.397   -12.257
88.5096     76.529    -6.308
89.7970     76.687    -0.334
91.1031     76.829     5.594
92.4282     76.938    11.530
93.7726     76.994    17.608
95.1366     77.004    24.105
96.5204     77.014    31.148
97.9243     77.048    38.481
99.3486     77.096    45.933
100.794     77.152    53.359
102.260     77.210    60.788
103.747     77.269    68.259
105.256     77.323    75.900
106.787     77.366    83.729
108.340     77.382    91.706
109.916     77.337    99.839
111.515     77.260   108.490
113.137     77.228   117.457
114.783     77.226   126.502
116.452     77.226   135.706
118.146     77.213   145.167
119.865     77.190   154.868
121.608     77.163   164.708
123.377     77.133   174.662
125.171     77.114  -175.226
126.992     77.110  -164.954
128.839     77.095  -154.481
130.713     77.059  -143.796
132.615     76.994  -132.861
134.543     76.924  -121.393
136.500     76.871  -109.559
138.486     76.826   -98.969
140.500     76.758   -87.192
142.544     76.677   -74.035
144.617     76.593   -62.145
146.721     76.494   -49.909
148.855     76.457   -36.257
151.020     76.449   -23.113
153.217     76.372   -10.208
155.445     76.284     3.205
157.706     76.251    16.203
160.000     76.024    30.352
162.327     75.790    45.741
164.688     75.713    60.113
167.084     75.769    75.534
169.514     75.866    90.603
171.980     75.596   105.041
174.481     75.229   120.484
177.019     75.087   136.774
179.594     75.006   154.020
182.206     74.958   172.716
184.856     75.031  -169.057
187.545     75.109  -152.556
190.273     75.192  -135.142
193.041     75.241  -118.340
195.849     75.183  -101.335
198.697     75.166   -82.742
201.587     75.123   -64.861
204.520     74.909   -47.156
207.494     74.657   -28.023
210.512     74.509    -6.886
213.574     74.537    13.396
216.681     74.348    32.312
219.833     74.257    53.056
223.030     74.205    75.272
226.274     74.262    97.084
229.565     74.268   118.107
232.905     74.081   139.071
236.292     73.950   161.477
239.729     73.972  -174.864
243.216     74.093  -151.795
246.754     74.120  -130.065
250.343     73.989  -106.732
253.984     73.881   -82.711
257.678     73.796   -58.408
261.426     73.737   -32.841
265.229     73.692    -7.568
269.087     73.606    16.837
273.001     73.310    42.611
276.972     73.227    69.055
281.000     73.174    96.261
285.088     73.294   125.616
289.234     73.443   153.231
293.441     73.582  -179.775
297.709     73.477  -153.367
302.040     73.397  -126.414
306.433     72.965   -98.319
310.890     72.956   -64.674
315.412     73.147   -35.686
320.000     72.953    -6.021
324.655     72.777    23.588
329.377     72.550    55.294
334.168     72.716    88.847
339.028     72.735   121.389
343.959     72.799   153.418
348.962     72.553  -174.428
354.038     72.370  -140.589
359.188     72.378  -105.597
364.412     72.280   -69.831
369.713     72.123   -33.416
375.090     72.103     3.186
380.546     71.973    40.364
386.081     71.852    77.978
391.697     71.545   117.051
397.394     71.302   158.260
403.175     71.022  -161.564
409.039     70.744  -119.934
414.989     70.451   -76.590
421.025     70.145   -32.920
427.149     69.836    10.938
433.362     69.540    55.156
439.665     69.244   102.203
446.060     68.983   149.339
452.548     68.780  -163.166
459.131     68.598  -114.232
465.809     68.476   -63.775
472.584     68.420   -13.403
479.458     68.413    37.042
486.432     68.461    88.628
493.507     68.547   141.467
500.686     68.665  -164.569
507.968     68.788  -110.999
515.357     68.929   -57.711
522.853     69.076    -3.378
530.458     69.216    52.007
538.174     69.336   107.308
546.002     69.414   162.294
553.943     69.475  -141.586
562.001     69.503   -84.231
570.175     69.487   -25.626
578.469     69.424    34.221
586.883     69.317    94.106
595.419     69.174   154.039
604.080     68.980  -144.571
612.866     68.735   -81.628
621.780     68.445   -17.191
630.824     68.109    48.875
640.000     67.757   115.428
649.309     67.378  -177.650
658.753     67.002  -108.810
668.335     66.627   -36.869
678.056     66.304    35.758
687.919     66.038   110.019
697.925     65.854  -174.055
708.077     65.775   -98.098
718.376     65.783   -21.027
728.825     65.863    57.068
739.426     65.995   136.048
750.181     66.139  -144.250
761.093     66.286   -63.728
772.163     66.376    16.294
783.394     66.421    97.243
794.789     66.375  -179.396
806.349     66.258   -96.225
818.078     66.036   -11.677
829.977     65.704    74.351
842.050     65.279   162.054
854.298     64.737  -108.257
866.724     64.119   -17.672
879.330     63.440    76.569
892.120     62.798   173.659
905.097     62.238   -86.431
918.262     61.888    15.984
931.618     61.827   120.101
945.169     62.018  -134.917
958.917     62.425   -29.810
972.864     62.891    75.239
987.015     63.362  -179.696
1001.37     63.742   -72.992
1015.94     64.033    34.396
1030.71     64.190   141.413
1045.71     64.250  -108.956
1060.92     64.203     3.641
1076.35     64.068   116.746
1092.00     63.912  -128.402
1107.89     63.761   -10.146
1124.00     63.669   109.803
1140.35     63.659  -128.764
1156.94     63.741    -4.833
1173.77     63.862   119.930
1190.84     63.998  -114.707
1208.16     64.088    11.387
1225.73     64.078   139.577
1243.56     63.945   -89.814
1261.65     63.660    42.176
1280.00     63.225   175.990
1298.62     62.652   -48.025
1317.51     62.001    92.018
1336.67     61.328  -123.670
1356.11     60.831    23.866
1375.84     60.557   175.043
1395.85     60.617   -31.244
1416.15     60.932   122.776
1436.75     61.367   -83.250
1457.65     61.782    71.826
1478.85     62.144  -131.365
1500.36     62.381    25.959
1522.19     62.548  -174.401
1544.33     62.599   -12.270
1566.79     62.561   152.435
1589.58     62.424   -40.220
1612.70     62.180   128.577
1636.16     61.829   -59.670
1659.95     61.345   115.317
1684.10     60.820   -65.929
1708.60     60.262   116.881
1733.45     59.828   -57.681
1758.66     59.626   132.623
1784.24     59.691   -34.797
1810.19     59.914   158.044
1836.52     60.175    -6.561
1863.24     60.355  -169.588
1890.34     60.440    29.462
1917.83     60.423  -128.634
1945.73     60.368    76.079
1974.03     60.358   -75.281
2002.74     60.393   135.562
2031.87     60.409   -11.787
2061.43     60.324  -157.463
2091.41     60.056    60.324
2121.83     59.557   -77.780
2152.69     58.880   146.374
2184.01     58.112    16.033
2215.77     57.455  -108.911
2248.00     57.022   129.376
2280.70     56.797     9.654
2313.87     56.626  -107.785
2347.53     56.368   137.726
2381.68     55.949    25.297
2416.32     55.405   -82.839
2451.46     54.780   173.900
2487.12     54.191    75.575
2523.30     53.780   -17.919
2560.00     53.663  -107.095
2597.24     53.834   165.356
2635.01     54.195    79.698
2673.34     54.582    -4.193
2712.23     54.757   -85.487
2751.68     54.657  -162.054
2791.70     54.362   126.780
2832.31     54.052    61.554
2873.50     53.953     1.365
2915.30     54.060   -55.453
2957.70     54.119  -108.267
3000.72     53.905  -157.269
3044.37     53.416   159.333
3088.65     52.917   123.572
3133.58     52.644    93.071
3179.16     52.466    67.223
3225.40     52.086    46.403
3272.31     51.561    31.500
3319.91     51.201    23.633
3368.20     51.107    20.495
3417.19     50.869    20.158
3466.89     50.257    26.335
3517.32     49.812    42.596
3568.48     49.933    62.587
3620.39     50.051    84.524
3673.05     49.681   113.410
3726.47     49.273   150.893
3780.67     49.453  -166.069
3835.67     49.575  -121.251
3891.46     49.167   -68.325
3948.06     49.177    -5.127
4005.49     50.172    60.070
4063.75     50.918   126.503
4122.86     50.756  -162.157
4182.82     50.464   -80.807
4243.66     50.744     9.198
4305.39     51.159   102.067
4368.01     51.405  -159.214
4431.55     51.654   -53.924
4496.01     51.655    57.245
4561.40     51.519   177.784
4627.75     52.048   -53.207
4695.06     52.936    78.612
4763.35     53.154  -146.468
4832.64     52.636    -2.752
4902.93     51.965   152.925
4974.24     51.467   -39.904
5046.60     51.622   135.588
5120.00     52.141   -44.627
5194.47     52.117   140.540
5270.03     51.816   -25.250
5346.68     51.584   177.636
5424.45     51.153    32.029
5503.35     51.361  -103.596
5583.40     51.867   122.820
5664.61     51.466    -2.716
5747.01     50.814  -116.814
5830.60     50.142   139.077
5915.41     49.780    48.473
6001.45     49.804   -36.594
6088.74     49.593  -113.170
6177.30     49.875  -179.210
6267.15     49.817   120.949
6358.31     49.763    72.469
6450.80     49.641    30.804
6544.62     49.248     0.391
6639.82     48.985   -22.386
6736.40     47.446   -31.459
6834.38     46.560   -22.648
6933.79     46.303    -3.731
7034.64     46.676    23.689
7136.96     46.646    57.586
7240.77     46.982   102.382
7346.09     46.014   157.671
7452.94     45.720  -127.616
7561.35     46.133   -46.517
7671.33     46.709    41.958
7782.91     45.769   142.214
7896.12     46.057   -99.259
8010.97     46.110    26.849
8127.49     46.665   166.483
8245.71     46.857   -41.720
8365.65     47.285   117.248
8487.33     47.021   -66.403
8610.78     46.702   117.849
8736.03     46.055   -38.740
8863.09     45.044  -179.830
8992.01     45.054    54.850
9122.80     45.062   -57.194
9255.50     45.492  -162.476
9390.12     44.975   107.870
9526.70     43.838    39.940
9665.27     44.656   -14.053
9805.86     45.781   -58.735
9948.49     46.188   -93.328
10093.2     46.440  -113.501
10240.0     46.624  -117.656
10388.9     45.764  -106.987
10540.1     44.555   -76.383
10693.4     43.980   -24.529
10848.9     43.478    46.026
11006.7     43.374   131.100
11166.8     43.802  -130.265
11329.2     43.757   -17.942
11494.0     42.932   114.505
11661.2     42.044   -92.520
11830.8     41.866    81.153
12002.9     42.062   -91.013
12177.5     41.890   114.167
12354.6     41.865   -21.395
12534.3     41.267  -137.798
12716.6     40.948   128.952
12901.6     41.419    51.226
13089.2     40.982    -9.434
13279.6     40.373   -45.258
13472.8     40.582   -58.814
13668.8     40.729   -59.434
13867.6     40.524   -37.640
14069.3     40.101     0.730
14273.9     38.750    61.544
14481.5     37.159   155.412
14692.2     37.686   -89.682
14905.9     37.784    38.964
15122.7     36.814  -172.848
15342.7     34.864     4.984
15565.8     33.071  -142.063
15792.2     33.052    85.692
16021.9     32.264   -24.361
16255.0     30.915  -113.538
16491.4     27.760  -165.514
16731.3     28.995   170.217
16974.7     28.354   158.365
17221.6     26.840   170.915
17472.1     25.174  -147.897
17726.2     23.228   -79.473
17984.0     20.398    16.807
18245.6     18.761  -166.464
18511.0     13.350   163.943
18780.2     12.122  -154.405
19053.4     12.447   -91.910
19330.5     13.398    39.951
19611.7     14.305   -85.949
19897.0     17.696  -136.290
20186.4     18.024  -153.399
20480.0     18.421  -149.645
20777.9     18.372  -109.466
21080.1     19.252   -47.032
21386.7     18.357    59.588
21697.8     15.548    60.256
22013.4     17.171   -67.248
22333.6     25.371   -98.856
22658.4     32.686   130.542
22988.0     38.058     5.476
23322.4     39.761   -87.416
23661.6     39.280  -146.855
24005.8     36.128  -161.044
24355.0     30.582  -117.765
24709.2     28.789   -11.568
25068.6     29.284   144.468
25433.2     32.958   -54.399
25803.2     34.863   140.872
26178.5     36.700    14.696
26559.3     37.998   -75.766
26945.6     37.413  -126.485
27337.5     37.498  -127.035
27735.2     38.968   -93.388
28138.6     36.299   -26.772
28547.9     35.142   109.441
28963.1     33.519   -83.822
29384.4     32.010   140.945
29811.8     30.748    52.376
30245.4     31.590     6.270
30685.3     31.072    -4.807
31131.7     30.145    32.924
31584.5     28.836    83.301
32043.9     19.693    17.028
32510.0     22.073  -139.307
32982.8     19.324   -88.856
33462.6     16.723   -68.564
33949.3     17.301   -88.651
34443.1     24.012    27.108
34944.1     20.262   -95.284
35452.4     21.932   -82.399
35968.0     16.844  -120.344
36491.2     24.564   -69.580
37022.0     15.527   -74.959
37560.5     14.503  -130.538
38106.8     16.411     1.503
38661.1     19.106   -54.167
39223.4     13.629   107.589
39793.9     12.044    11.585
