"SPL Horizontal"
"On-Axis"		"10°"		"-10°"		"20°"		"-20°"		"30°"		"-30°"		"40°"		"-40°"		"50°"		"-50°"		"60°"		"-60°"		"70°"		"-70°"		"80°"		"-80°"		"90°"		"-90°"		"100°"		"-100°"		"110°"		"-110°"		"120°"		"-120°"		"130°"		"-130°"		"140°"		"-140°"		"150°"		"-150°"		"160°"		"-160°"		"170°"		"-170°"		"180°"
"Frequency / Hz"	"Sound Pressure Level / dB (re 20 µPa/V)  [2.83  V @ 1. m]"	"Frequency / Hz"	"Sound Pressure Level / dB (re 20 µPa/V)  [2.83  V @ 1. m]"	"Frequency / Hz"	"Sound Pressure Level / dB (re 20 µPa/V)  [2.83  V @ 1. m]"	"Frequency / Hz"	"Sound Pressure Level / dB (re 20 µPa/V)  [2.83  V @ 1. m]"	"Frequency / Hz"	"Sound Pressure Level / dB (re 20 µPa/V)  [2.83  V @ 1. m]"	"Frequency / Hz"	"Sound Pressure Level / dB (re 20 µPa/V)  [2.83  V @ 1. m]"	"Frequency / Hz"	"Sound Pressure Level / dB (re 20 µPa/V)  [2.83  V @ 1. m]"	"Frequency / Hz"	"Sound Pressure Level / dB (re 20 µPa/V)  [2.83  V @ 1. m]"	"Frequency / Hz"	"Sound Pressure Level / dB (re 20 µPa/V)  [2.83  V @ 1. m]"	"Frequency / Hz"	"Sound Pressure Level / dB (re 20 µPa/V)  [2.83  V @ 1. m]"	"Frequency / Hz"	"Sound Pressure Level / dB (re 20 µPa/V)  [2.83  V @ 1. m]"	"Frequency / Hz"	"Sound Pressure Level / dB (re 20 µPa/V)  [2.83  V @ 1. m]"	"Frequency / Hz"	"Sound Pressure Level / dB (re 20 µPa/V)  [2.83  V @ 1. m]"	"Frequency / Hz"	"Sound Pressure Level / dB (re 20 µPa/V)  [2.83  V @ 1. m]"	"Frequency / Hz"	"Sound Pressure Level / dB (re 20 µPa/V)  [2.83  V @ 1. m]"	"Frequency / Hz"	"Sound Pressure Level / dB (re 20 µPa/V)  [2.83  V @ 1. m]"	"Frequency / Hz"	"Sound Pressure Level / dB (re 20 µPa/V)  [2.83  V @ 1. m]"	"Frequency / Hz"	"Sound Pressure Level / dB (re 20 µPa/V)  [2.83  V @ 1. m]"	"Frequency / Hz"	"Sound Pressure Level / dB (re 20 µPa/V)  [2.83  V @ 1. m]"	"Frequency / Hz"	"Sound Pressure Level / dB (re 20 µPa/V)  [2.83  V @ 1. m]"	"Frequency / Hz"	"Sound Pressure Level / dB (re 20 µPa/V)  [2.83  V @ 1. m]"	"Frequency / Hz"	"Sound Pressure Level / dB (re 20 µPa/V)  [2.83  V @ 1. m]"	"Frequency / Hz"	"Sound Pressure Level / dB (re 20 µPa/V)  [2.83  V @ 1. m]"	"Frequency / Hz"	"Sound Pressure Level / dB (re 20 µPa/V)  [2.83  V @ 1. m]"	"Frequency / Hz"	"Sound Pressure Level / dB (re 20 µPa/V)  [2.83  V @ 1. m]"	"Frequency / Hz"	"Sound Pressure Level / dB (re 20 µPa/V)  [2.83  V @ 1. m]"	"Frequency / Hz"	"Sound Pressure Level / dB (re 20 µPa/V)  [2.83  V @ 1. m]"	"Frequency / Hz"	"Sound Pressure Level / dB (re 20 µPa/V)  [2.83  V @ 1. m]"	"Frequency / Hz"	"Sound Pressure Level / dB (re 20 µPa/V)  [2.83  V @ 1. m]"	"Frequency / Hz"	"Sound Pressure Level / dB (re 20 µPa/V)  [2.83  V @ 1. m]"	"Frequency / Hz"	"Sound Pressure Level / dB (re 20 µPa/V)  [2.83  V @ 1. m]"	"Frequency / Hz"	"Sound Pressure Level / dB (re 20 µPa/V)  [2.83  V @ 1. m]"	"Frequency / Hz"	"Sound Pressure Level / dB (re 20 µPa/V)  [2.83  V @ 1. m]"	"Frequency / Hz"	"Sound Pressure Level / dB (re 20 µPa/V)  [2.83  V @ 1. m]"	"Frequency / Hz"	"Sound Pressure Level / dB (re 20 µPa/V)  [2.83  V @ 1. m]"	"Frequency / Hz"	"Sound Pressure Level / dB (re 20 µPa/V)  [2.83  V @ 1. m]"
20.5078	49.9614	20.5078	49.7488	20.5078	50.173	20.5078	49.553	20.5078	50.3732	20.5078	49.3966	20.5078	50.5595	20.5078	49.301	20.5078	50.7358	20.5078	49.2804	20.5078	50.9099	20.5078	49.338	20.5078	51.0906	20.5078	49.4669	20.5078	51.2854	20.5078	49.6554	20.5078	51.4983	20.5078	49.8925	20.5078	51.7278	20.5078	50.1705	20.5078	51.9666	20.5078	50.4836	20.5078	52.2026	20.5078	50.8248	20.5078	52.4211	20.5078	51.1825	20.5078	52.6076	20.5078	51.5411	20.5078	52.7482	20.5078	51.8831	20.5078	52.8309	20.5078	52.192	20.5078	52.8459	20.5078	52.4534	20.5078	52.7874	20.5078	52.6549
21.9727	49.1536	21.9727	48.6839	21.9727	49.5446	21.9727	48.1402	21.9727	49.8567	21.9727	47.5321	21.9727	50.0924	21.9727	46.8726	21.9727	50.255	21.9727	46.1745	21.9727	50.3467	21.9727	45.4458	21.9727	50.3691	21.9727	44.6872	21.9727	50.3227	21.9727	43.8936	21.9727	50.2093	21.9727	43.0608	21.9727	50.0323	21.9727	42.2041	21.9727	49.7965	21.9727	41.3973	21.9727	49.506	21.9727	40.8226	21.9727	49.1626	21.9727	40.7411	21.9727	48.764	21.9727	41.2799	21.9727	48.3032	21.9727	42.2722	21.9727	47.7688	21.9727	43.4292	21.9727	47.1446	21.9727	44.5503	21.9727	46.4116	21.9727	45.5503
23.4375	48.1842	23.4375	48.0695	23.4375	48.2861	23.4375	47.9473	23.4375	48.3705	23.4375	47.8212	23.4375	48.435	23.4375	47.6901	23.4375	48.4798	23.4375	47.5472	23.4375	48.5062	23.4375	47.3819	23.4375	48.5168	23.4375	47.1824	23.4375	48.5136	23.4375	46.9393	23.4375	48.4983	23.4375	46.6466	23.4375	48.4712	23.4375	46.3061	23.4375	48.4309	23.4375	45.9342	23.4375	48.3736	23.4375	45.5718	23.4375	48.2921	23.4375	45.2893	23.4375	48.1751	23.4375	45.1708	23.4375	48.0071	23.4375	45.2743	23.4375	47.771	23.4375	45.5922	23.4375	47.4517	23.4375	46.0532	23.4375	47.0441	23.4375	46.563
24.9023	55.2933	24.9023	55.3674	24.9023	55.2208	24.9023	55.4442	24.9023	55.1491	24.9023	55.5242	24.9023	55.0781	24.9023	55.6071	24.9023	55.008	24.9023	55.6919	24.9023	54.94	24.9023	55.7761	24.9023	54.8759	24.9023	55.8563	24.9023	54.8177	24.9023	55.9268	24.9023	54.7675	24.9023	55.9799	24.9023	54.7277	24.9023	56.0061	24.9023	54.7005	24.9023	55.9959	24.9023	54.6874	24.9023	55.9425	24.9023	54.6888	24.9023	55.8446	24.9023	54.7045	24.9023	55.7079	24.9023	54.7344	24.9023	55.5446	24.9023	54.7804	24.9023	55.371	24.9023	54.8463	24.9023	55.204	24.9023	54.9373	24.9023	55.0569
26.3672	57.4438	26.3672	57.4528	26.3672	57.4404	26.3672	57.4676	26.3672	57.4422	26.3672	57.4884	26.3672	57.4487	26.3672	57.5153	26.3672	57.4592	26.3672	57.548	26.3672	57.4731	26.3672	57.5865	26.3672	57.4897	26.3672	57.6302	26.3672	57.5082	26.3672	57.6777	26.3672	57.5279	26.3672	57.727	26.3672	57.548	26.3672	57.7745	26.3672	57.5676	26.3672	57.8154	26.3672	57.5858	26.3672	57.8447	26.3672	57.6018	26.3672	57.8578	26.3672	57.616	26.3672	57.853	26.3672	57.6295	26.3672	57.8316	26.3672	57.6446	26.3672	57.7984	26.3672	57.6639	26.3672	57.7598	26.3672	57.6895	26.3672	57.722
27.832	55.8159	27.832	55.8428	27.832	55.7695	27.832	55.8496	27.832	55.706	27.832	55.8371	27.832	55.6295	27.832	55.8071	27.832	55.5458	27.832	55.7623	27.832	55.4616	27.832	55.7056	27.832	55.3836	27.832	55.6404	27.832	55.3175	27.832	55.5698	27.832	55.2672	27.832	55.4972	27.832	55.2347	27.832	55.4262	27.832	55.2201	27.832	55.3612	27.832	55.2219	27.832	55.3073	27.832	55.2372	27.832	55.2701	27.832	55.2617	27.832	55.2531	27.832	55.2898	27.832	55.2564	27.832	55.3152	27.832	55.2751	27.832	55.3315	27.832	55.3005	27.832	55.3343	27.832	55.3228
29.2969	58.2472	29.2969	58.2571	29.2969	58.2455	29.2969	58.2762	29.2969	58.2511	29.2969	58.3056	29.2969	58.2638	29.2969	58.3464	29.2969	58.283	29.2969	58.399	29.2969	58.3082	29.2969	58.4633	29.2969	58.3383	29.2969	58.5383	29.2969	58.3719	29.2969	58.6214	29.2969	58.4081	29.2969	58.7093	29.2969	58.4463	29.2969	58.7969	29.2969	58.4869	29.2969	58.878	29.2969	58.531	29.2969	58.9461	29.2969	58.5796	29.2969	58.9952	29.2969	58.6336	29.2969	59.022	29.2969	58.6926	29.2969	59.0261	29.2969	58.7551	29.2969	59.01	29.2969	58.8181	29.2969	58.9776	29.2969	58.8784	29.2969	58.9325
30.7617	60.1645	30.7617	60.1365	30.7617	60.193	30.7617	60.1107	30.7617	60.2208	30.7617	60.0885	30.7617	60.2469	30.7617	60.0715	30.7617	60.2705	30.7617	60.0609	30.7617	60.2911	30.7617	60.058	30.7617	60.3077	30.7617	60.0637	30.7617	60.3193	30.7617	60.0788	30.7617	60.3251	30.7617	60.1032	30.7617	60.3252	30.7617	60.1353	30.7617	60.3204	30.7617	60.1719	30.7617	60.3124	30.7617	60.2085	30.7617	60.3033	30.7617	60.2404	30.7617	60.2952	30.7617	60.2645	30.7617	60.2893	30.7617	60.2797	30.7617	60.2861	30.7617	60.287	30.7617	60.2853	30.7617	60.2889	30.7617	60.2863	30.7617	60.288
32.2266	61.4223	32.2266	61.4184	32.2266	61.4182	32.2266	61.4066	32.2266	61.4065	32.2266	61.3876	32.2266	61.3878	32.2266	61.3621	32.2266	61.3635	32.2266	61.3313	32.2266	61.3348	32.2266	61.2966	32.2266	61.303	32.2266	61.2597	32.2266	61.2694	32.2266	61.2229	32.2266	61.2355	32.2266	61.1885	32.2266	61.2028	32.2266	61.159	32.2266	61.1734	32.2266	61.1364	32.2266	61.1493	32.2266	61.1215	32.2266	61.1319	32.2266	61.1138	32.2266	61.1215	32.2266	61.1121	32.2266	61.1174	32.2266	61.1141	32.2266	61.1176	32.2266	61.1177	32.2266	61.1199	32.2266	61.1209	32.2266	61.1221	32.2266	61.1226
33.6914	63.2823	33.6914	63.266	33.6914	63.2918	33.6914	63.2423	33.6914	63.2956	33.6914	63.2112	33.6914	63.2954	33.6914	63.1735	33.6914	63.293	33.6914	63.1307	33.6914	63.2899	33.6914	63.0851	33.6914	63.2871	33.6914	63.0396	33.6914	63.2848	33.6914	62.9977	33.6914	63.2828	33.6914	62.9631	33.6914	63.2805	33.6914	62.9393	33.6914	63.2772	33.6914	62.9285	33.6914	63.2725	33.6914	62.932	33.6914	63.2657	33.6914	62.9491	33.6914	63.2564	33.6914	62.9776	33.6914	63.2435	33.6914	63.0144	33.6914	63.2261	33.6914	63.0558	33.6914	63.2031	33.6914	63.0983	33.6914	63.1738	33.6914	63.1384
35.1562	64.7048	35.1562	64.6895	35.1562	64.7105	35.1562	64.6642	35.1562	64.7069	35.1562	64.6293	35.1562	64.6952	35.1562	64.5857	35.1562	64.6766	35.1562	64.5352	35.1562	64.6523	35.1562	64.4801	35.1562	64.6237	35.1562	64.4236	35.1562	64.5923	35.1562	64.3689	35.1562	64.5594	35.1562	64.3199	35.1562	64.5263	35.1562	64.28	35.1562	64.4941	35.1562	64.2517	35.1562	64.4639	35.1562	64.2364	35.1562	64.4365	35.1562	64.234	35.1562	64.4123	35.1562	64.2425	35.1562	64.3913	35.1562	64.2587	35.1562	64.3729	35.1562	64.2791	35.1562	64.3559	35.1562	64.3004	35.1562	64.3389	35.1562	64.3205
36.6211	66.1149	36.6211	66.0924	36.6211	66.1256	36.6211	66.0588	36.6211	66.1243	36.6211	66.0147	36.6211	66.1108	36.6211	65.9612	36.6211	66.0853	36.6211	65.9	36.6211	66.048	36.6211	65.833	36.6211	65.9993	36.6211	65.7628	36.6211	65.9397	36.6211	65.6925	36.6211	65.8702	36.6211	65.6249	36.6211	65.7923	36.6211	65.5625	36.6211	65.7086	36.6211	65.5068	36.6211	65.6226	36.6211	65.4581	36.6211	65.5389	36.6211	65.4155	36.6211	65.4624	36.6211	65.378	36.6211	65.3974	36.6211	65.3454	36.6211	65.3469	36.6211	65.3184	36.6211	65.3123	36.6211	65.299	36.6211	65.2936	36.6211	65.2899
38.0859	66.9579	38.0859	66.9424	38.0859	66.9698	38.0859	66.924	38.0859	66.9782	38.0859	66.9036	38.0859	66.9836	38.0859	66.8824	38.0859	66.9869	38.0859	66.8616	38.0859	66.9895	38.0859	66.8423	38.0859	66.9927	38.0859	66.8258	38.0859	66.9975	38.0859	66.8132	38.0859	67.0043	38.0859	66.8058	38.0859	67.0128	38.0859	66.8048	38.0859	67.0222	38.0859	66.8112	38.0859	67.031	38.0859	66.8253	38.0859	67.0377	38.0859	66.8463	38.0859	67.0411	38.0859	66.8726	38.0859	67.0401	38.0859	66.9019	38.0859	67.0342	38.0859	66.9318	38.0859	67.0231	38.0859	66.9602	38.0859	67.0068	38.0859	66.9856
39.5508	68.9912	39.5508	68.9867	39.5508	68.9848	39.5508	68.9715	39.5508	68.9677	39.5508	68.9467	39.5508	68.941	39.5508	68.914	39.5508	68.9063	39.5508	68.8755	39.5508	68.8659	39.5508	68.8338	39.5508	68.8225	39.5508	68.7919	39.5508	68.7789	39.5508	68.7527	39.5508	68.7381	39.5508	68.719	39.5508	68.7031	39.5508	68.6931	39.5508	68.6768	39.5508	68.6764	39.5508	68.6609	39.5508	68.6691	39.5508	68.6561	39.5508	68.6702	39.5508	68.6608	39.5508	68.6772	39.5508	68.6718	39.5508	68.6872	39.5508	68.6852	39.5508	68.6972	39.5508	68.6972	39.5508	68.7046	39.5508	68.7052	39.5508	68.7076
41.0156	70.1385	41.0156	70.0954	41.0156	70.1636	41.0156	70.0346	41.0156	70.171	41.0156	69.9566	41.0156	70.1608	41.0156	69.8628	41.0156	70.1335	41.0156	69.7551	41.0156	70.0895	41.0156	69.6362	41.0156	70.0293	41.0156	69.5099	41.0156	69.9538	41.0156	69.3803	41.0156	69.8646	41.0156	69.2527	41.0156	69.7646	41.0156	69.1325	41.0156	69.6573	41.0156	69.0257	41.0156	69.547	41.0156	68.938	41.0156	69.4383	41.0156	68.8742	41.0156	69.3344	41.0156	68.8369	41.0156	69.2377	41.0156	68.8264	41.0156	69.1486	41.0156	68.8408	41.0156	69.0671	41.0156	68.8764	41.0156	68.9932	41.0156	68.9286
42.4805	71.279	42.4805	71.2477	42.4805	71.2993	42.4805	71.2059	42.4805	71.3086	42.4805	71.1548	42.4805	71.3069	42.4805	71.0958	42.4805	71.2949	42.4805	71.0305	42.4805	71.2731	42.4805	70.961	42.4805	71.2422	42.4805	70.8894	42.4805	71.2027	42.4805	70.8181	42.4805	71.1557	42.4805	70.7495	42.4805	71.102	42.4805	70.6861	42.4805	71.043	42.4805	70.6305	42.4805	70.9802	42.4805	70.5848	42.4805	70.915	42.4805	70.551	42.4805	70.8493	42.4805	70.5304	42.4805	70.785	42.4805	70.5235	42.4805	70.724	42.4805	70.53	42.4805	70.6684	42.4805	70.549	42.4805	70.6196	42.4805	70.5794
43.9453	72.2584	43.9453	72.2556	43.9453	72.2479	43.9453	72.2395	43.9453	72.2243	43.9453	72.2106	43.9453	72.1885	43.9453	72.1701	43.9453	72.142	43.9453	72.1193	43.9453	72.0864	43.9453	72.0602	43.9453	72.0238	43.9453	71.9946	43.9453	71.9566	43.9453	71.9247	43.9453	71.8873	43.9453	71.8527	43.9453	71.8184	43.9453	71.781	43.9453	71.7522	43.9453	71.7121	43.9453	71.6907	43.9453	71.6487	43.9453	71.6353	43.9453	71.5933	43.9453	71.5871	43.9453	71.5478	43.9453	71.5468	43.9453	71.5131	43.9453	71.5148	43.9453	71.4892	43.9453	71.4915	43.9453	71.4757	43.9453	71.4772	43.9453	71.4718
45.4102	73.3354	45.4102	73.3358	45.4102	73.3228	45.4102	73.3242	45.4102	73.2978	45.4102	73.3015	45.4102	73.261	45.4102	73.2684	45.4102	73.2133	45.4102	73.2263	45.4102	73.1562	45.4102	73.1763	45.4102	73.0913	45.4102	73.1198	45.4102	73.0209	45.4102	73.058	45.4102	72.947	45.4102	72.9924	45.4102	72.8718	45.4102	72.9244	45.4102	72.7976	45.4102	72.8558	45.4102	72.7266	45.4102	72.7884	45.4102	72.6615	45.4102	72.7243	45.4102	72.605	45.4102	72.6653	45.4102	72.5596	45.4102	72.6135	45.4102	72.5273	45.4102	72.5702	45.4102	72.5092	45.4102	72.5369	45.4102	72.5052	45.4102	72.5148
46.875	73.9861	46.875	73.9777	46.875	73.9859	46.875	73.961	46.875	73.9774	46.875	73.9366	46.875	73.961	46.875	73.9053	46.875	73.9376	46.875	73.8685	46.875	73.9083	46.875	73.8276	46.875	73.8743	46.875	73.7841	46.875	73.8366	46.875	73.7396	46.875	73.7965	46.875	73.6955	46.875	73.7549	46.875	73.6532	46.875	73.7125	46.875	73.6139	46.875	73.6706	46.875	73.5788	46.875	73.6305	46.875	73.5488	46.875	73.5938	46.875	73.5248	46.875	73.5617	46.875	73.5072	46.875	73.5354	46.875	73.4963	46.875	73.5153	46.875	73.4918	46.875	73.5014	46.875	73.4936
48.3398	74.7016	48.3398	74.7018	48.3398	74.6941	48.3398	74.695	48.3398	74.6794	48.3398	74.6816	48.3398	74.6578	48.3398	74.6622	48.3398	74.6301	48.3398	74.6378	48.3398	74.5971	48.3398	74.609	48.3398	74.5602	48.3398	74.577	48.3398	74.5206	48.3398	74.5425	48.3398	74.4798	48.3398	74.5065	48.3398	74.4393	48.3398	74.4698	48.3398	74.4006	48.3398	74.4333	48.3398	74.365	48.3398	74.398	48.3398	74.3337	48.3398	74.3647	48.3398	74.3076	48.3398	74.3347	48.3398	74.2875	48.3398	74.3091	48.3398	74.2733	48.3398	74.2886	48.3398	74.2649	48.3398	74.274	48.3398	74.2623	48.3398	74.2652
51.2695	76.233	51.2695	76.2355	51.2695	76.2209	51.2695	76.2282	51.2695	76.1997	51.2695	76.2114	51.2695	76.1702	51.2695	76.1856	51.2695	76.1337	51.2695	76.152	51.2695	76.0915	51.2695	76.1117	51.2695	76.0452	51.2695	76.0664	51.2695	75.9964	51.2695	76.0179	51.2695	75.9466	51.2695	75.9679	51.2695	75.8974	51.2695	75.9184	51.2695	75.8503	51.2695	75.871	51.2695	75.8065	51.2695	75.8274	51.2695	75.7675	51.2695	75.7887	51.2695	75.7344	51.2695	75.7554	51.2695	75.7082	51.2695	75.7279	51.2695	75.6896	51.2695	75.7059	51.2695	75.6788	51.2695	75.6897	51.2695	75.6755	51.2695	75.6793
52.7344	76.8628	52.7344	76.8669	52.7344	76.8472	52.7344	76.8596	52.7344	76.8204	52.7344	76.8415	52.7344	76.7835	52.7344	76.8137	52.7344	76.7378	52.7344	76.7776	52.7344	76.6852	52.7344	76.7349	52.7344	76.628	52.7344	76.6875	52.7344	76.5684	52.7344	76.6374	52.7344	76.509	52.7344	76.5863	52.7344	76.4522	52.7344	76.536	52.7344	76.4001	52.7344	76.4877	52.7344	76.3546	52.7344	76.4426	52.7344	76.317	52.7344	76.4013	52.7344	76.2881	52.7344	76.3644	52.7344	76.268	52.7344	76.3322	52.7344	76.2565	52.7344	76.305	52.7344	76.2529	52.7344	76.2831	52.7344	76.2565	52.7344	76.2668
54.1992	77.3993	54.1992	77.3956	54.1992	77.3921	54.1992	77.3811	54.1992	77.3741	54.1992	77.3565	54.1992	77.3458	54.1992	77.3228	54.1992	77.3082	54.1992	77.2813	54.1992	77.2628	54.1992	77.2332	54.1992	77.2112	54.1992	77.18	54.1992	77.1552	54.1992	77.1234	54.1992	77.0966	54.1992	77.0648	54.1992	77.0373	54.1992	77.0058	54.1992	76.9789	54.1992	76.9482	54.1992	76.923	54.1992	76.8937	54.1992	76.8712	54.1992	76.844	54.1992	76.8249	54.1992	76.8007	54.1992	76.7855	54.1992	76.7652	54.1992	76.7541	54.1992	76.7387	54.1992	76.7315	54.1992	76.7219	54.1992	76.7184	54.1992	76.7151
55.6641	78.05	55.6641	78.0449	55.6641	78.0424	55.6641	78.0272	55.6641	78.0223	55.6641	77.9973	55.6641	77.9905	55.6641	77.9561	55.6641	77.9481	55.6641	77.9051	55.6641	77.8966	55.6641	77.8457	55.6641	77.8376	55.6641	77.7801	55.6641	77.7731	55.6641	77.7102	55.6641	77.7051	55.6641	77.6383	55.6641	77.6357	55.6641	77.5668	55.6641	77.567	55.6641	77.498	55.6641	77.501	55.6641	77.4339	55.6641	77.4395	55.6641	77.3766	55.6641	77.3842	55.6641	77.328	55.6641	77.3365	55.6641	77.2894	55.6641	77.2976	55.6641	77.2619	55.6641	77.2683	55.6641	77.246	55.6641	77.2496	55.6641	77.242
58.5938	78.8675	58.5938	78.853	58.5938	78.8698	58.5938	78.8266	58.5938	78.8595	58.5938	78.7893	58.5938	78.8366	58.5938	78.7423	58.5938	78.8011	58.5938	78.687	58.5938	78.7537	58.5938	78.625	58.5938	78.6951	58.5938	78.558	58.5938	78.6267	58.5938	78.4872	58.5938	78.5505	58.5938	78.4138	58.5938	78.4688	58.5938	78.3386	58.5938	78.3846	58.5938	78.2631	58.5938	78.3008	58.5938	78.1894	58.5938	78.2203	58.5938	78.1202	58.5938	78.1459	58.5938	78.0587	58.5938	78.0801	58.5938	78.008	58.5938	78.0253	58.5938	77.971	58.5938	77.9834	58.5938	77.9495	58.5938	77.9561	58.5938	77.9445
60.0586	79.1534	60.0586	79.1432	60.0586	79.1547	60.0586	79.1244	60.0586	79.1471	60.0586	79.0978	60.0586	79.1307	60.0586	79.0642	60.0586	79.1062	60.0586	79.0249	60.0586	79.0742	60.0586	78.9816	60.0586	79.0359	60.0586	78.9358	60.0586	78.9926	60.0586	78.8894	60.0586	78.9459	60.0586	78.8438	60.0586	78.8975	60.0586	78.8003	60.0586	78.8493	60.0586	78.7599	60.0586	78.8028	60.0586	78.7235	60.0586	78.7595	60.0586	78.6915	60.0586	78.7206	60.0586	78.6645	60.0586	78.6871	60.0586	78.6432	60.0586	78.6597	60.0586	78.6281	60.0586	78.6389	60.0586	78.6198	60.0586	78.6252	60.0586	78.6188
62.9883	79.7484	62.9883	79.7487	62.9883	79.7387	62.9883	79.7398	62.9883	79.7199	62.9883	79.7224	62.9883	79.6928	62.9883	79.6974	62.9883	79.6585	62.9883	79.6661	62.9883	79.6184	62.9883	79.6302	62.9883	79.5744	62.9883	79.5912	62.9883	79.5284	62.9883	79.5509	62.9883	79.4824	62.9883	79.5108	62.9883	79.4384	62.9883	79.472	62.9883	79.3979	62.9883	79.4356	62.9883	79.3626	62.9883	79.4023	62.9883	79.3332	62.9883	79.3725	62.9883	79.3102	62.9883	79.3465	62.9883	79.2937	62.9883	79.3245	62.9883	79.2832	62.9883	79.3066	62.9883	79.2783	62.9883	79.2929	62.9883	79.2786	62.9883	79.2835
64.4531	80.0691	64.4531	80.0674	64.4531	80.0615	64.4531	80.0566	64.4531	80.0449	64.4531	80.0373	64.4531	80.0198	64.4531	80.0107	64.4531	79.9873	64.4531	79.9781	64.4531	79.9491	64.4531	79.9411	64.4531	79.9068	64.4531	79.9014	64.4531	79.8625	64.4531	79.8606	64.4531	79.818	64.4531	79.8204	64.4531	79.7753	64.4531	79.7821	64.4531	79.736	64.4531	79.7468	64.4531	79.7014	64.4531	79.7151	64.4531	79.6722	64.4531	79.6877	64.4531	79.649	64.4531	79.6646	64.4531	79.6317	64.4531	79.6459	64.4531	79.6202	64.4531	79.6315	64.4531	79.6138	64.4531	79.6211	64.4531	79.6121	64.4531	79.6146
67.3828	80.6876	67.3828	80.6823	67.3828	80.6823	67.3828	80.6667	67.3828	80.6667	67.3828	80.6416	67.3828	80.6415	67.3828	80.6082	67.3828	80.6078	67.3828	80.568	67.3828	80.5672	67.3828	80.5231	67.3828	80.5217	67.3828	80.4754	67.3828	80.4733	67.3828	80.4271	67.3828	80.4243	67.3828	80.3802	67.3828	80.3769	67.3828	80.3363	67.3828	80.3329	67.3828	80.297	67.3828	80.2939	67.3828	80.2631	67.3828	80.2606	67.3828	80.2352	67.3828	80.2336	67.3828	80.2134	67.3828	80.2126	67.3828	80.1973	67.3828	80.1972	67.3828	80.1865	67.3828	80.1868	67.3828	80.1804	67.3828	80.1807	67.3828	80.1786
68.8477	80.941	68.8477	80.9346	68.8477	80.9367	68.8477	80.9178	68.8477	80.922	68.8477	80.8913	68.8477	80.8975	68.8477	80.8563	68.8477	80.8644	68.8477	80.8144	68.8477	80.8242	68.8477	80.7676	68.8477	80.779	68.8477	80.7181	68.8477	80.7307	68.8477	80.6681	68.8477	80.6817	68.8477	80.6198	68.8477	80.6341	68.8477	80.575	68.8477	80.5897	68.8477	80.5352	68.8477	80.5501	68.8477	80.5015	68.8477	80.5161	68.8477	80.4744	68.8477	80.4881	68.8477	80.4539	68.8477	80.4661	68.8477	80.4394	68.8477	80.4495	68.8477	80.4305	68.8477	80.4377	68.8477	80.4263	68.8477	80.4301	68.8477	80.4263
71.7773	81.5134	71.7773	81.5087	71.7773	81.5066	71.7773	81.4925	71.7773	81.4884	71.7773	81.4656	71.7773	81.4597	71.7773	81.4293	71.7773	81.4219	71.7773	81.385	71.7773	81.3766	71.7773	81.3348	71.7773	81.3259	71.7773	81.2808	71.7773	81.2722	71.7773	81.2254	71.7773	81.2178	71.7773	81.1706	71.7773	81.1649	71.7773	81.1186	71.7773	81.1154	71.7773	81.0709	71.7773	81.0708	71.7773	81.029	71.7773	81.032	71.7773	80.9936	71.7773	80.9993	71.7773	80.9654	71.7773	80.9728	71.7773	80.9445	71.7773	80.9522	71.7773	80.9308	71.7773	80.9371	71.7773	80.9237	71.7773	80.9272	71.7773	80.9226
74.707	82.0027	74.707	81.9985	74.707	81.9951	74.707	81.9828	74.707	81.9763	74.707	81.9563	74.707	81.947	74.707	81.9204	74.707	81.9089	74.707	81.8768	74.707	81.8638	74.707	81.8277	74.707	81.814	74.707	81.7756	74.707	81.7618	74.707	81.7228	74.707	81.7096	74.707	81.6717	74.707	81.6596	74.707	81.6243	74.707	81.6136	74.707	81.582	74.707	81.573	74.707	81.5459	74.707	81.5386	74.707	81.5162	74.707	81.5106	74.707	81.4929	74.707	81.489	74.707	81.4755	74.707	81.4731	74.707	81.4637	74.707	81.4623	74.707	81.4567	74.707	81.4561	74.707	81.4543
77.6367	82.3814	77.6367	82.3772	77.6367	82.3727	77.6367	82.3603	77.6367	82.3516	77.6367	82.3316	77.6367	82.3189	77.6367	82.2927	77.6367	82.2764	77.6367	82.2454	77.6367	82.2262	77.6367	82.1922	77.6367	82.1707	77.6367	82.1358	77.6367	82.1129	77.6367	82.079	77.6367	82.0557	77.6367	82.0246	77.6367	82.0017	77.6367	81.9746	77.6367	81.9532	77.6367	81.9311	77.6367	81.9119	77.6367	81.8949	77.6367	81.8787	77.6367	81.8665	77.6367	81.8535	77.6367	81.8454	77.6367	81.8357	77.6367	81.8307	77.6367	81.8241	77.6367	81.8214	77.6367	81.8173	77.6367	81.816	77.6367	81.8141	77.6367	81.8138
79.1016	82.6105	79.1016	82.607	79.1016	82.6006	79.1016	82.5902	79.1016	82.5775	79.1016	82.5611	79.1016	82.5424	79.1016	82.5211	79.1016	82.4967	79.1016	82.4722	79.1016	82.4428	79.1016	82.4166	79.1016	82.3831	79.1016	82.3572	79.1016	82.3208	79.1016	82.2967	79.1016	82.2588	79.1016	82.2379	79.1016	82.2001	79.1016	82.1835	79.1016	82.1472	79.1016	82.1353	79.1016	82.102	79.1016	82.0948	79.1016	82.0656	79.1016	82.0625	79.1016	82.038	79.1016	82.038	79.1016	82.0186	79.1016	82.0205	79.1016	82.0063	79.1016	82.0087	79.1016	81.9995	79.1016	82.0014	79.1016	81.9969	79.1016	81.9977
82.0312	83.1685	82.0312	83.1648	82.0312	83.1588	82.0312	83.1479	82.0312	83.136	82.0312	83.1187	82.0312	83.1008	82.0312	83.0786	82.0312	83.0546	82.0312	83.0295	82.0312	82.9993	82.0312	82.9738	82.0312	82.9373	82.0312	82.9143	82.0312	82.8712	82.0312	82.8539	82.0312	82.804	82.0312	82.7955	82.0312	82.7388	82.0312	82.7414	82.0312	82.6784	82.0312	82.6935	82.0312	82.6255	82.0312	82.6527	82.0312	82.582	82.0312	82.619	82.0312	82.5492	82.0312	82.5918	82.0312	82.5272	82.0312	82.5698	82.0312	82.5155	82.0312	82.5518	82.0312	82.5124	82.0312	82.5369	82.0312	82.5162	82.0312	82.5248
84.9609	83.5673	84.9609	83.5608	84.9609	83.5611	84.9609	83.542	84.9609	83.5423	84.9609	83.5119	84.9609	83.5116	84.9609	83.4719	84.9609	83.4706	84.9609	83.4242	84.9609	83.4211	84.9609	83.3711	84.9609	83.3657	84.9609	83.3152	84.9609	83.307	84.9609	83.2592	84.9609	83.248	84.9609	83.2058	84.9609	83.1915	84.9609	83.157	84.9609	83.1398	84.9609	83.1146	84.9609	83.0949	84.9609	83.0792	84.9609	83.0579	84.9609	83.0511	84.9609	83.0293	84.9609	83.0297	84.9609	83.0088	84.9609	83.0139	84.9609	82.9958	84.9609	83.0026	84.9609	82.9891	84.9609	82.9946	84.9609	82.9874	84.9609	82.9895
87.8906	83.9335	87.8906	83.9267	87.8906	83.9256	87.8906	83.9056	87.8906	83.9035	87.8906	83.8712	87.8906	83.8684	87.8906	83.8252	87.8906	83.8223	87.8906	83.7701	87.8906	83.7679	87.8906	83.7089	87.8906	83.7081	87.8906	83.6449	87.8906	83.6465	87.8906	83.5817	87.8906	83.5865	87.8906	83.5229	87.8906	83.5311	87.8906	83.4713	87.8906	83.4828	87.8906	83.4292	87.8906	83.4433	87.8906	83.3975	87.8906	83.4132	87.8906	83.3762	87.8906	83.3919	87.8906	83.3639	87.8906	83.3781	87.8906	83.3585	87.8906	83.3701	87.8906	83.3577	87.8906	83.3657	87.8906	83.359	87.8906	83.3631	87.8906	83.3611
90.8203	84.2868	90.8203	84.2837	90.8203	84.2756	90.8203	84.2665	90.8203	84.2505	90.8203	84.2361	90.8203	84.2129	90.8203	84.1943	90.8203	84.1647	90.8203	84.1434	90.8203	84.1088	90.8203	84.0862	90.8203	84.0482	90.8203	84.026	90.8203	83.9863	90.8203	83.9659	90.8203	83.9266	90.8203	83.9091	90.8203	83.8721	90.8203	83.8584	90.8203	83.8251	90.8203	83.8157	90.8203	83.7873	90.8203	83.7822	90.8203	83.7592	90.8203	83.7578	90.8203	83.7402	90.8203	83.7418	90.8203	83.7289	90.8203	83.7322	90.8203	83.7235	90.8203	83.7272	90.8203	83.7218	90.8203	83.7247	90.8203	83.7221	90.8203	83.7232
95.2148	84.9629	95.2148	84.9622	95.2148	84.9467	95.2148	84.9447	95.2148	84.9142	95.2148	84.9116	95.2148	84.8671	95.2148	84.8648	95.2148	84.8079	95.2148	84.8069	95.2148	84.7396	95.2148	84.7413	95.2148	84.666	95.2148	84.6719	95.2148	84.5913	95.2148	84.6024	95.2148	84.5194	95.2148	84.5367	95.2148	84.4541	95.2148	84.4779	95.2148	84.3982	95.2148	84.428	95.2148	84.3536	95.2148	84.388	95.2148	84.3209	95.2148	84.3576	95.2148	84.2994	95.2148	84.3356	95.2148	84.2875	95.2148	84.3201	95.2148	84.283	95.2148	84.3089	95.2148	84.2837	95.2148	84.3004	95.2148	84.2877	95.2148	84.2934
98.1445	85.304	98.1445	85.3077	98.1445	85.2827	98.1445	85.2942	98.1445	85.2445	98.1445	85.2644	98.1445	85.1909	98.1445	85.2201	98.1445	85.1243	98.1445	85.1641	98.1445	85.048	98.1445	85.0995	98.1445	84.9658	98.1445	85.0301	98.1445	84.8824	98.1445	84.96	98.1445	84.802	98.1445	84.8932	98.1445	84.7291	98.1445	84.8331	98.1445	84.6668	98.1445	84.7819	98.1445	84.6176	98.1445	84.7403	98.1445	84.5826	98.1445	84.7074	98.1445	84.5617	98.1445	84.6813	98.1445	84.5536	98.1445	84.6594	98.1445	84.5562	98.1445	84.6395	98.1445	84.5668	98.1445	84.6201	98.1445	84.5825	98.1445	84.6009
101.074	85.6379	101.074	85.6258	101.074	85.6328	101.074	85.5975	101.074	85.6106	101.074	85.5542	101.074	85.5721	101.074	85.4983	101.074	85.5191	101.074	85.4323	101.074	85.4541	101.074	85.3593	101.074	85.3806	101.074	85.2829	101.074	85.3028	101.074	85.2069	101.074	85.225	101.074	85.135	101.074	85.1518	101.074	85.0709	101.074	85.0871	101.074	85.0176	101.074	85.0337	101.074	84.9771	101.074	84.993	101.074	84.9496	101.074	84.9651	101.074	84.934	101.074	84.948	101.074	84.9276	101.074	84.9392	101.074	84.9271	101.074	84.9353	101.074	84.9292	101.074	84.9334	101.074	84.9316
105.469	86.0512	105.469	86.0396	105.469	86.0464	105.469	86.0124	105.469	86.0258	105.469	85.9711	105.469	85.9907	105.469	85.9184	105.469	85.9434	105.469	85.8573	105.469	85.887	105.469	85.7919	105.469	85.8253	105.469	85.7262	105.469	85.7621	105.469	85.664	105.469	85.7016	105.469	85.609	105.469	85.6473	105.469	85.5638	105.469	85.6021	105.469	85.5298	105.469	85.5676	105.469	85.5075	105.469	85.5438	105.469	85.496	105.469	85.5295	105.469	85.4933	105.469	85.5226	105.469	85.4966	105.469	85.5202	105.469	85.503	105.469	85.5195	105.469	85.5098	105.469	85.5183	105.469	85.5152
108.398	86.3384	108.398	86.3292	108.398	86.3295	108.398	86.3023	108.398	86.3029	108.398	86.2594	108.398	86.2607	108.398	86.2033	108.398	86.2055	108.398	86.1377	108.398	86.1414	108.398	86.0668	108.398	86.0728	108.398	85.9952	108.398	86.0043	108.398	85.9275	108.398	85.9404	108.398	85.8676	108.398	85.8848	108.398	85.8188	108.398	85.84	108.398	85.7828	108.398	85.8072	108.398	85.76	108.398	85.786	108.398	85.7492	108.398	85.7748	108.398	85.7479	108.398	85.771	108.398	85.7528	108.398	85.7716	108.398	85.7604	108.398	85.7735	108.398	85.7677	108.398	85.7744	108.398	85.7726
112.793	86.8633	112.793	86.8453	112.793	86.8617	112.793	86.8088	112.793	86.8405	112.793	86.756	112.793	86.8006	112.793	86.6903	112.793	86.7446	112.793	86.6156	112.793	86.6758	112.793	86.5365	112.793	86.5988	112.793	86.4579	112.793	86.5189	112.793	86.3843	112.793	86.4414	112.793	86.3196	112.793	86.3714	112.793	86.2667	112.793	86.3128	112.793	86.227	112.793	86.2681	112.793	86.2007	112.793	86.2375	112.793	86.1865	112.793	86.2196	112.793	86.1821	112.793	86.2112	112.793	86.1847	112.793	86.2087	112.793	86.1911	112.793	86.2084	112.793	86.1983	112.793	86.2074	112.793	86.2041
117.188	87.1814	117.188	87.1677	117.188	87.1756	117.188	87.1344	117.188	87.1518	117.188	87.0829	117.188	87.1125	117.188	87.0162	117.188	87.0611	117.188	86.9391	117.188	87.0017	117.188	86.8573	117.188	86.9388	117.188	86.7775	117.188	86.8771	117.188	86.7065	117.188	86.8213	117.188	86.6501	117.188	86.7757	117.188	86.6125	117.188	86.7433	117.188	86.5956	117.188	86.7256	117.188	86.5984	117.188	86.7219	117.188	86.6178	117.188	86.7294	117.188	86.6485	117.188	86.7436	117.188	86.6845	117.188	86.7593	117.188	86.7195	117.188	86.771	117.188	86.7483	117.188	86.7746	117.188	86.7672
120.117	87.4501	120.117	87.4397	120.117	87.4374	120.117	87.4058	120.117	87.4041	120.117	87.3496	120.117	87.3542	120.117	87.2745	120.117	87.293	120.117	87.1858	120.117	87.2263	120.117	87.0908	120.117	87.1606	120.117	86.9981	120.117	87.1015	120.117	86.9169	120.117	87.0541	120.117	86.8555	120.117	87.0216	120.117	86.8202	120.117	87.0055	120.117	86.8133	120.117	87.0055	120.117	86.8332	120.117	87.0191	120.117	86.8743	120.117	87.0423	120.117	86.9283	120.117	87.0697	120.117	86.9863	120.117	87.0955	120.117	87.0398	120.117	87.1136	120.117	87.0821	120.117	87.1192	120.117	87.1091
124.512	88.1602	124.512	88.1714	124.512	88.1179	124.512	88.1515	124.512	88.0458	124.512	88.1019	124.512	87.9469	124.512	88.0254	124.512	87.8265	124.512	87.926	124.512	87.6916	124.512	87.8089	124.512	87.5513	124.512	87.681	124.512	87.4159	124.512	87.5504	124.512	87.2953	124.512	87.4261	124.512	87.1984	124.512	87.3171	124.512	87.1304	124.512	87.231	124.512	87.0927	124.512	87.1723	124.512	87.0824	124.512	87.1413	124.512	87.093	124.512	87.1341	124.512	87.1162	124.512	87.1434	124.512	87.1435	124.512	87.1602	124.512	87.1671	124.512	87.1761	124.512	87.1817	124.512	87.1845
128.906	88.5083	128.906	88.5118	128.906	88.4765	128.906	88.4886	128.906	88.4159	128.906	88.4409	128.906	88.327	128.906	88.3714	128.906	88.2119	128.906	88.2835	128.906	88.0742	128.906	88.181	128.906	87.9198	128.906	88.068	128.906	87.7563	128.906	87.9488	128.906	87.593	128.906	87.828	128.906	87.44	128.906	87.71	128.906	87.3067	128.906	87.5988	128.906	87.2003	128.906	87.498	128.906	87.1247	128.906	87.4098	128.906	87.0793	128.906	87.3349	128.906	87.0606	128.906	87.2726	128.906	87.0627	128.906	87.2207	128.906	87.0795	128.906	87.1768	128.906	87.106	128.906	87.1388
133.301	88.6895	133.301	88.6792	133.301	88.6744	133.301	88.645	133.301	88.6337	133.301	88.5892	133.301	88.5683	133.301	88.5152	133.301	88.4803	133.301	88.4273	133.301	88.3732	133.301	88.3303	133.301	88.2524	133.301	88.2297	133.301	88.1242	133.301	88.1307	133.301	87.9962	133.301	88.0381	133.301	87.8766	133.301	87.9555	133.301	87.7728	133.301	87.8849	133.301	87.6908	133.301	87.8271	133.301	87.6334	133.301	87.781	133.301	87.6005	133.301	87.7449	133.301	87.5888	133.301	87.7161	133.301	87.5931	133.301	87.6919	133.301	87.6075	133.301	87.6698	133.301	87.627	133.301	87.6483
139.16	88.8167	139.16	88.7943	139.16	88.818	139.16	88.752	139.16	88.7981	139.16	88.6923	139.16	88.7582	139.16	88.6189	139.16	88.7006	139.16	88.5363	139.16	88.6288	139.16	88.45	139.16	88.5472	139.16	88.3659	139.16	88.4607	139.16	88.2899	139.16	88.3751	139.16	88.2271	139.16	88.296	139.16	88.1813	139.16	88.2289	139.16	88.154	139.16	88.1782	139.16	88.1444	139.16	88.1465	139.16	88.1489	139.16	88.1338	139.16	88.1626	139.16	88.1373	139.16	88.1795	139.16	88.1518	139.16	88.1938	139.16	88.171	139.16	88.2013	139.16	88.1885	139.16	88.1995
143.555	88.9927	143.555	88.9727	143.555	88.988	143.555	88.929	143.555	88.9596	143.555	88.8648	143.555	88.9105	143.555	88.7851	143.555	88.8457	143.555	88.6965	143.555	88.7719	143.555	88.6072	143.555	88.6971	143.555	88.5256	143.555	88.6298	143.555	88.4602	143.555	88.5778	143.555	88.4181	143.555	88.5472	143.555	88.4038	143.555	88.5412	143.555	88.4184	143.555	88.5592	143.555	88.4593	143.555	88.5976	143.555	88.5202	143.555	88.6495	143.555	88.5926	143.555	88.7062	143.555	88.6668	143.555	88.7585	143.555	88.7332	143.555	88.7976	143.555	88.7837	143.555	88.8169	143.555	88.8125
147.949	89.559	147.949	89.5381	147.949	89.5485	147.949	89.4868	147.949	89.5077	147.949	89.4082	147.949	89.4391	147.949	89.3074	147.949	89.3471	147.949	89.1915	147.949	89.2373	147.949	89.069	147.949	89.1171	147.949	88.949	147.949	88.9949	147.949	88.8409	147.949	88.8805	147.949	88.7527	147.949	88.7829	147.949	88.69	147.949	88.71	147.949	88.6552	147.949	88.6662	147.949	88.6469	147.949	88.6515	147.949	88.6601	147.949	88.6617	147.949	88.6876	147.949	88.6886	147.949	88.721	147.949	88.7226	147.949	88.7522	147.949	88.7542	147.949	88.7744	147.949	88.7758	147.949	88.783
153.809	89.7336	153.809	89.7227	153.809	89.7124	153.809	89.6803	153.809	89.6602	153.809	89.6092	153.809	89.5804	153.809	89.5143	153.809	89.4785	153.809	89.4017	153.809	89.3616	153.809	89.2792	153.809	89.2379	153.809	89.1558	153.809	89.1167	153.809	89.0408	153.809	89.007	153.809	88.9434	153.809	88.9168	153.809	88.8712	153.809	88.8518	153.809	88.8284	153.809	88.8146	153.809	88.815	153.809	88.8041	153.809	88.8263	153.809	88.8158	153.809	88.8541	153.809	88.8429	153.809	88.8883	153.809	88.8772	153.809	88.9194	153.809	88.9102	153.809	88.9399	153.809	88.9346	153.809	88.9453
159.668	90.0574	159.668	90.04	159.668	90.0393	159.668	89.9886	159.668	89.9863	159.668	89.9069	159.668	89.9014	159.668	89.8006	159.668	89.7899	159.668	89.6772	159.668	89.659	159.668	89.5459	159.668	89.5177	159.668	89.4168	159.668	89.3762	159.668	89.3	159.668	89.2455	159.668	89.2048	159.668	89.1363	159.668	89.1379	159.668	89.0575	159.668	89.1027	159.668	89.0147	159.668	89.0978	159.668	89.0085	159.668	89.1179	159.668	89.034	159.668	89.154	159.668	89.0815	159.668	89.1956	159.668	89.1387	159.668	89.2318	159.668	89.193	159.668	89.2536	159.668	89.2341	159.668	89.255
165.527	90.2655	165.527	90.2547	165.527	90.2406	165.527	90.2085	165.527	90.1819	165.527	90.1289	165.527	90.0929	165.527	90.0202	165.527	89.9791	165.527	89.8887	165.527	89.848	165.527	89.7437	165.527	89.7089	165.527	89.5962	165.527	89.5724	165.527	89.4588	165.527	89.4495	165.527	89.3437	165.527	89.3505	165.527	89.2613	165.527	89.2831	165.527	89.2171	165.527	89.251	165.527	89.2113	165.527	89.2528	165.527	89.2381	165.527	89.2824	165.527	89.2872	165.527	89.3296	165.527	89.3459	165.527	89.3822	165.527	89.4013	165.527	89.4278	165.527	89.4426	165.527	89.4566	165.527	89.4621
171.387	90.4575	171.387	90.4419	171.387	90.4357	171.387	90.3898	171.387	90.3776	171.387	90.3035	171.387	90.286	171.387	90.1872	171.387	90.1656	171.387	90.0466	171.387	90.0232	171.387	89.8892	171.387	89.8679	171.387	89.7249	171.387	89.7101	171.387	89.565	171.387	89.5619	171.387	89.4222	171.387	89.435	171.387	89.3088	171.387	89.3392	171.387	89.2339	171.387	89.2804	171.387	89.2012	171.387	89.2588	171.387	89.2074	171.387	89.2689	171.387	89.2429	171.387	89.3005	171.387	89.2937	171.387	89.341	171.387	89.3451	171.387	89.3781	171.387	89.3847	171.387	89.4015	171.387	89.4045
177.246	90.5423	177.246	90.5287	177.246	90.5136	177.246	90.4737	177.246	90.4446	177.246	90.3809	177.246	90.3396	177.246	90.2565	177.246	90.2057	177.246	90.109	177.246	90.052	177.246	89.9488	177.246	89.8896	177.246	89.7873	177.246	89.7309	177.246	89.6366	177.246	89.5882	177.246	89.5082	177.246	89.4722	177.246	89.4113	177.246	89.3909	177.246	89.3521	177.246	89.3475	177.246	89.3311	177.246	89.3403	177.246	89.3439	177.246	89.3627	177.246	89.3807	177.246	89.4041	177.246	89.4293	177.246	89.4522	177.246	89.4769	177.246	89.4949	177.246	89.5125	177.246	89.5224	177.246	89.5288
183.105	90.5752	183.105	90.5713	183.105	90.5397	183.105	90.5294	183.105	90.4657	183.105	90.4533	183.105	90.3563	183.105	90.3485	183.105	90.2174	183.105	90.2228	183.105	90.0572	183.105	90.0854	183.105	89.8867	183.105	89.9467	183.105	89.7186	183.105	89.8178	183.105	89.5673	183.105	89.7089	183.105	89.4465	183.105	89.6286	183.105	89.3669	183.105	89.5825	183.105	89.3343	183.105	89.5713	183.105	89.3476	183.105	89.5906	183.105	89.3988	183.105	89.6308	183.105	89.4749	183.105	89.6785	183.105	89.5605	183.105	89.7197	183.105	89.6404	183.105	89.7419	183.105	89.7021	183.105	89.7369
188.965	90.8158	188.965	90.7922	188.965	90.7907	188.965	90.7222	188.965	90.7176	188.965	90.6105	188.965	90.6001	188.965	90.464	188.965	90.4453	188.965	90.2923	188.965	90.2632	188.965	90.1069	188.965	90.0667	188.965	89.9215	188.965	89.8704	188.965	89.7508	188.965	89.69	188.965	89.6088	188.965	89.5402	188.965	89.507	188.965	89.4326	188.965	89.4517	188.965	89.3739	188.965	89.443	188.965	89.3642	188.965	89.4738	188.965	89.3962	188.965	89.5306	188.965	89.4576	188.965	89.5961	188.965	89.5325	188.965	89.6529	188.965	89.6051	188.965	89.6869	188.965	89.6611	188.965	89.6901
196.289	90.8416	196.289	90.8145	196.289	90.8222	196.289	90.7425	196.289	90.7568	196.289	90.6299	196.289	90.6484	196.289	90.4843	196.289	90.5028	196.289	90.3165	196.289	90.3295	196.289	90.1404	196.289	90.1424	196.289	89.971	196.289	89.9588	196.289	89.8229	196.289	89.7979	196.289	89.7079	196.289	89.6763	196.289	89.6337	196.289	89.6048	196.289	89.6024	196.289	89.5854	196.289	89.6115	196.289	89.6122	196.289	89.6545	196.289	89.6728	196.289	89.7209	196.289	89.7515	196.289	89.7977	196.289	89.8319	196.289	89.8702	196.289	89.899	196.289	89.9243	196.289	89.9407	196.289	89.9495
203.613	90.9356	203.613	90.9081	203.613	90.9102	203.613	90.8279	203.613	90.8341	203.613	90.6987	203.613	90.7118	203.613	90.5285	203.613	90.5499	203.613	90.3296	203.613	90.3577	203.613	90.1194	203.613	90.1472	203.613	89.918	203.613	89.934	203.613	89.7465	203.613	89.7365	203.613	89.6219	203.613	89.5742	203.613	89.5534	203.613	89.4635	203.613	89.5401	203.613	89.4129	203.613	89.5717	203.613	89.4202	203.613	89.6317	203.613	89.473	203.613	89.7022	203.613	89.5531	203.613	89.7669	203.613	89.6416	203.613	89.8132	203.613	89.7231	203.613	89.8335	203.613	89.7863	203.613	89.8244
210.938	91.0326	210.938	90.9963	210.938	91.0198	210.938	90.9125	210.938	90.9574	210.938	90.7839	210.938	90.8466	210.938	90.6147	210.938	90.6909	210.938	90.4116	210.938	90.498	210.938	90.1849	210.938	90.2802	210.938	89.9501	210.938	90.055	210.938	89.7271	210.938	89.8437	210.938	89.5385	210.938	89.6688	210.938	89.4054	210.938	89.5492	210.938	89.3412	210.938	89.4954	210.938	89.3476	210.938	89.5058	210.938	89.4135	210.938	89.5668	210.938	89.5182	210.938	89.6562	210.938	89.637	210.938	89.7499	210.938	89.7465	210.938	89.8261	210.938	89.8283	210.938	89.8694	210.938	89.8708
218.262	90.9196	218.262	90.8939	218.262	90.8934	218.262	90.8183	218.262	90.8156	218.262	90.6967	218.262	90.6893	218.262	90.5356	218.262	90.5206	218.262	90.3443	218.262	90.3204	218.262	90.1357	218.262	90.1041	218.262	89.9266	218.262	89.8927	218.262	89.7364	218.262	89.7102	218.262	89.5852	218.262	89.58	218.262	89.4898	218.262	89.5183	218.262	89.4606	218.262	89.5292	218.262	89.4986	218.262	89.6033	218.262	89.5936	218.262	89.7205	218.262	89.7264	218.262	89.856	218.262	89.8717	218.262	89.985	218.262	90.0041	218.262	90.0865	218.262	90.1018	218.262	90.1449	218.262	90.1507
225.586	91.1324	225.586	91.1308	225.586	91.0714	225.586	91.0682	225.586	90.9485	225.586	90.9484	225.586	90.7674	225.586	90.7776	225.586	90.5353	225.586	90.5654	225.586	90.2638	225.586	90.3266	225.586	89.97	225.586	90.0813	225.586	89.6775	225.586	89.8543	225.586	89.416	225.586	89.6704	225.586	89.2174	225.586	89.5492	225.586	89.1083	225.586	89.4993	225.586	89.101	225.586	89.5176	225.586	89.1882	225.586	89.5913	225.586	89.3445	225.586	89.7008	225.586	89.5349	225.586	89.8229	225.586	89.7237	225.586	89.9328	225.586	89.8811	225.586	90.0073	225.586	89.9862	225.586	90.0283
232.91	91.1544	232.91	91.1251	232.91	91.1208	232.91	91.0371	232.91	91.0223	232.91	90.8961	232.91	90.8589	232.91	90.7096	232.91	90.6337	232.91	90.4866	232.91	90.3531	232.91	90.2393	232.91	90.0286	232.91	89.984	232.91	89.679	232.91	89.7422	232.91	89.3323	232.91	89.5388	232.91	89.0252	232.91	89.3961	232.91	88.7972	232.91	89.3271	232.91	88.6789	232.91	89.3302	232.91	88.6806	232.91	89.3898	232.91	88.7875	232.91	89.4808	232.91	88.9662	232.91	89.575	232.91	89.1749	232.91	89.6456	232.91	89.3745	232.91	89.6705	232.91	89.5342	232.91	89.6351
241.699	90.9684	241.699	90.905	241.699	90.9723	241.699	90.7851	241.699	90.9168	241.699	90.6145	241.699	90.8047	241.699	90.4013	241.699	90.641	241.699	90.1555	241.699	90.433	241.699	89.8896	241.699	90.1902	241.699	89.6198	241.699	89.9252	241.699	89.3676	241.699	89.6556	241.699	89.1596	241.699	89.4047	241.699	89.0208	241.699	89.1996	241.699	88.966	241.699	89.0651	241.699	88.9918	241.699	89.0148	241.699	89.0779	241.699	89.0447	241.699	89.1949	241.699	89.1336	241.699	89.3138	241.699	89.2501	241.699	89.4113	241.699	89.3623	241.699	89.4711	241.699	89.4451	241.699	89.4832
250.488	91.3695	250.488	91.3313	250.488	91.3284	250.488	91.2138	250.488	91.2108	250.488	91.0207	250.488	91.0229	250.488	90.76	250.488	90.7746	250.488	90.4449	250.488	90.4796	250.488	90.094	250.488	90.1566	250.488	89.7317	250.488	89.8292	250.488	89.3875	250.488	89.5252	250.488	89.0935	250.488	89.2737	250.488	88.8798	250.488	89.0994	250.488	88.7667	250.488	89.0158	250.488	88.7575	250.488	89.0195	250.488	88.8359	250.488	89.0909	250.488	88.9715	250.488	89.1999	250.488	89.1288	250.488	89.3143	250.488	89.2757	250.488	89.4061	250.488	89.3878	250.488	89.455	250.488	89.4498
259.277	91.3298	259.277	91.3108	259.277	91.2733	259.277	91.2185	259.277	91.1421	259.277	91.0576	259.277	90.9402	259.277	90.8353	259.277	90.6761	259.277	90.5614	259.277	90.3634	259.277	90.2493	259.277	90.0218	259.277	89.9172	259.277	89.6768	259.277	89.5888	259.277	89.3573	259.277	89.2936	259.277	89.0919	259.277	89.0627	259.277	88.9041	259.277	88.9218	259.277	88.8089	259.277	88.8822	259.277	88.81	259.277	88.9361	259.277	88.8968	259.277	89.0577	259.277	89.0442	259.277	89.2112	259.277	89.2157	259.277	89.3583	259.277	89.3708	259.277	89.4655	259.277	89.4753	259.277	89.5084
268.066	91.2359	268.066	91.173	268.066	91.2233	268.066	91.0341	268.066	91.1372	268.066	90.8215	268.066	90.9793	268.066	90.5429	268.066	90.7515	268.066	90.2123	268.066	90.4574	268.066	89.8511	268.066	90.1069	268.066	89.4875	268.066	89.7215	268.066	89.1548	268.066	89.3392	268.066	88.887	268.066	89.0102	268.066	88.7125	268.066	88.7829	268.066	88.6444	268.066	88.6819	268.066	88.6748	268.066	88.6969	268.066	88.7765	268.066	88.7921	268.066	88.9134	268.066	88.9256	268.066	89.0522	268.066	89.0626	268.066	89.1683	268.066	89.1773	268.066	89.246	268.066	89.2516	268.066	89.2753
276.855	91.5086	276.855	91.4392	276.855	91.4752	276.855	91.2711	276.855	91.3455	276.855	91.0172	276.855	91.1358	276.855	90.6953	276.855	90.8684	276.855	90.326	276.855	90.5657	276.855	89.932	276.855	90.2439	276.855	89.5409	276.855	89.9116	276.855	89.187	276.855	89.5757	276.855	88.9085	276.855	89.2533	276.855	88.7377	276.855	88.9794	276.855	88.6892	276.855	88.7985	276.855	88.7532	276.855	88.7396	276.855	88.8976	276.855	88.795	276.855	89.0771	276.855	88.9247	276.855	89.2451	276.855	89.0805	276.855	89.3659	276.855	89.2262	276.855	89.4211	276.855	89.3404	276.855	89.4095
287.109	91.2625	287.109	91.2237	287.109	91.2568	287.109	91.1407	287.109	91.1931	287.109	91.0025	287.109	91.0503	287.109	90.7952	287.109	90.8112	287.109	90.5099	287.109	90.4747	287.109	90.15	287.109	90.0641	287.109	89.7346	287.109	89.6272	287.109	89.3036	287.109	89.2244	287.109	88.9186	287.109	88.9115	287.109	88.6534	287.109	88.7249	287.109	88.5637	287.109	88.6772	287.109	88.6547	287.109	88.7584	287.109	88.8765	287.109	88.9387	287.109	89.1552	287.109	89.1741	287.109	89.4249	287.109	89.4164	287.109	89.6406	287.109	89.6235	287.109	89.7757	287.109	89.7638	287.109	89.8175
297.363	91.6979	297.363	91.7001	297.363	91.6031	297.363	91.6068	297.363	91.4261	297.363	91.4236	297.363	91.1783	297.363	91.164	297.363	90.8659	297.363	90.8448	297.363	90.4883	297.363	90.482	297.363	90.0439	297.363	90.086	297.363	89.5425	297.363	89.6633	297.363	89.0169	297.363	89.2259	297.363	88.5275	297.363	88.8072	297.363	88.1534	297.363	88.4728	297.363	87.9685	297.363	88.3058	297.363	88.007	297.363	88.3583	297.363	88.2422	297.363	88.605	297.363	88.5961	297.363	88.9489	297.363	88.9743	297.363	89.276	297.363	89.2969	297.363	89.5013	297.363	89.5099	297.363	89.5824
307.617	91.5908	307.617	91.5368	307.617	91.5421	307.617	91.3785	307.617	91.4006	307.617	91.1213	307.617	91.1822	307.617	90.776	307.617	90.9037	307.617	90.3589	307.617	90.5774	307.617	89.8966	307.617	90.2099	307.617	89.4303	307.617	89.8082	307.617	89.0143	307.617	89.3895	307.617	88.7008	307.617	88.9875	307.617	88.5183	307.617	88.6489	307.617	88.4604	307.617	88.4195	307.617	88.495	307.617	88.3272	307.617	88.5866	307.617	88.3707	307.617	88.7093	307.617	88.5188	307.617	88.8451	307.617	88.7188	307.617	88.9742	307.617	88.9115	307.617	89.0692	307.617	89.0477	307.617	89.1005
319.336	91.6614	319.336	91.6238	319.336	91.5894	319.336	91.4886	319.336	91.3994	319.336	91.2672	319.336	91.0914	319.336	90.9673	319.336	90.6766	319.336	90.5932	319.336	90.177	319.336	90.1502	319.336	89.6231	319.336	89.6526	319.336	89.0516	319.336	89.1326	319.336	88.5071	319.336	88.6465	319.336	88.0455	319.336	88.2684	319.336	87.7274	319.336	88.0656	319.336	87.5977	319.336	88.0622	319.336	87.661	319.336	88.2227	319.336	87.8778	319.336	88.4724	319.336	88.1824	319.336	88.7336	319.336	88.506	319.336	88.9465	319.336	88.7901	319.336	89.0724	319.336	88.993	319.336	89.09
329.59	91.4791	329.59	91.3999	329.59	91.4814	329.59	91.2503	329.59	91.3996	329.59	91.0337	329.59	91.2273	329.59	90.7509	329.59	90.9608	329.59	90.4014	329.59	90.6004	329.59	89.9887	329.59	90.1509	329.59	89.5284	329.59	89.6241	329.59	89.0543	329.59	89.0437	329.59	88.6191	329.59	88.454	329.59	88.2823	329.59	87.9251	329.59	88.0912	329.59	87.5438	329.59	88.0616	329.59	87.3788	329.59	88.1703	329.59	87.4383	329.59	88.3632	329.59	87.6657	329.59	88.572	329.59	87.9761	329.59	88.7316	329.59	88.2935	329.59	88.7939	329.59	88.5606	329.59	88.7358
341.309	91.435	341.309	91.3437	341.309	91.4367	341.309	91.1746	341.309	91.336	341.309	90.9346	341.309	91.1247	341.309	90.6255	341.309	90.805	341.309	90.2453	341.309	90.3909	341.309	89.791	341.309	89.9053	341.309	89.2647	341.309	89.3755	341.309	88.6862	341.309	88.8335	341.309	88.1072	341.309	88.3239	341.309	87.6171	341.309	87.9123	341.309	87.318	341.309	87.6755	341.309	87.2659	341.309	87.6607	341.309	87.4273	341.309	87.8406	341.309	87.704	341.309	88.1189	341.309	87.9986	341.309	88.3847	341.309	88.2541	341.309	88.5619	341.309	88.4502	341.309	88.6234	341.309	88.5786
353.027	91.5204	353.027	91.4801	353.027	91.5072	353.027	91.3643	353.027	91.4487	353.027	91.1525	353.027	91.3312	353.027	90.8384	353.027	91.1249	353.027	90.4348	353.027	90.8002	353.027	89.9723	353.027	90.3438	353.027	89.4912	353.027	89.7681	353.027	89.0307	353.027	89.1133	353.027	88.6181	353.027	88.4446	353.027	88.2693	353.027	87.8423	353.027	88.0051	353.027	87.3877	353.027	87.8661	353.027	87.1483	353.027	87.8942	353.027	87.1604	353.027	88.0851	353.027	87.4061	353.027	88.3666	353.027	87.803	353.027	88.6318	353.027	88.2314	353.027	88.7868	353.027	88.5798	353.027	88.7745
366.211	91.9528	366.211	91.8454	366.211	91.9427	366.211	91.6267	366.211	91.819	366.211	91.3089	366.211	91.5941	366.211	90.9031	366.211	91.2838	366.211	90.4153	366.211	90.9002	366.211	89.8486	366.211	90.4466	366.211	89.2164	366.211	89.9204	366.211	88.5597	366.211	89.3238	366.211	87.9569	366.211	88.6837	366.211	87.5057	366.211	88.0665	366.211	87.2729	366.211	87.5717	366.211	87.2561	366.211	87.2944	366.211	87.402	366.211	87.2755	366.211	87.65	366.211	87.4772	366.211	87.9453	366.211	87.8026	366.211	88.2274	366.211	88.1377	366.211	88.4277	366.211	88.3865	366.211	88.489
379.395	91.826	379.395	91.7924	379.395	91.7831	379.395	91.6812	379.395	91.6632	379.395	91.492	379.395	91.4612	379.395	91.2249	379.395	91.1667	379.395	90.8793	379.395	90.7683	379.395	90.4532	379.395	90.2661	379.395	89.9465	379.395	89.683	379.395	89.3731	379.395	89.069	379.395	88.7782	379.395	88.4905	379.395	88.2493	379.395	88.016	379.395	87.8973	379.395	87.7036	379.395	87.7966	379.395	87.5872	379.395	87.927	379.395	87.6601	379.395	88.1886	379.395	87.874	379.395	88.4687	379.395	88.1593	379.395	88.6876	379.395	88.4452	379.395	88.8032	379.395	88.672	379.395	88.7979
392.578	91.5725	392.578	91.4159	392.578	91.6162	392.578	91.1597	392.578	91.5473	392.578	90.8285	392.578	91.3756	392.578	90.4517	392.578	91.1124	392.578	90.0552	392.578	90.7639	392.578	89.6553	392.578	90.3306	392.578	89.2589	392.578	89.8149	392.578	88.8702	392.578	89.2314	392.578	88.5032	392.578	88.616	392.578	88.1861	392.578	88.0306	392.578	87.954	392.578	87.5601	392.578	87.8323	392.578	87.2869	392.578	87.8267	392.578	87.2451	392.578	87.9197	392.578	87.3932	392.578	88.0682	392.578	87.6422	392.578	88.2099	392.578	87.9057	392.578	88.2846	392.578	88.1235	392.578	88.2569
405.762	91.6442	405.762	91.5456	405.762	91.5972	405.762	91.2826	405.762	91.426	405.762	90.8436	405.762	91.1517	405.762	90.2296	405.762	90.7974	405.762	89.4632	405.762	90.3902	405.762	88.6043	405.762	89.9616	405.762	87.7713	405.762	89.5441	405.762	87.1338	405.762	89.1692	405.762	86.8411	405.762	88.8633	405.762	86.9224	405.762	88.6426	405.762	87.2734	405.762	88.5083	405.762	87.7355	405.762	88.4515	405.762	88.1735	405.762	88.4614	405.762	88.5103	405.762	88.5271	405.762	88.7285	405.762	88.6309	405.762	88.8483	405.762	88.7452	405.762	88.8981	405.762	88.8399	405.762	88.8937
420.41	92.1476	420.41	92.1354	420.41	92.0232	420.41	91.9856	420.41	91.7694	420.41	91.7038	420.41	91.396	420.41	91.2945	420.41	90.9137	420.41	90.7491	420.41	90.3339	420.41	90.0431	420.41	89.6705	420.41	89.1514	420.41	88.9477	420.41	88.0846	420.41	88.2181	420.41	86.9482	420.41	87.586	420.41	86.0085	420.41	87.1988	420.41	85.6319	420.41	87.1642	420.41	85.9581	420.41	87.4531	420.41	86.7285	420.41	87.9233	420.41	87.5888	420.41	88.4256	420.41	88.3291	420.41	88.8616	420.41	88.874	420.41	89.1792	420.41	89.2158	420.41	89.3533	420.41	89.3699
435.059	92.0257	435.059	92.0276	435.059	91.9057	435.059	91.9007	435.059	91.679	435.059	91.6379	435.059	91.3514	435.059	91.2329	435.059	90.9178	435.059	90.6772	435.059	90.3591	435.059	89.9597	435.059	89.6458	435.059	89.0745	435.059	88.757	435.059	88.0349	435.059	87.7191	435.059	86.9025	435.059	86.6621	435.059	85.8496	435.059	85.8511	435.059	85.2116	435.059	85.5916	435.059	85.3077	435.059	85.9874	435.059	86.061	435.059	86.8406	435.059	87.0789	435.059	87.8346	435.059	88.0424	435.059	88.713	435.059	88.8097	435.059	89.328	435.059	89.34	435.059	89.627	435.059	89.6202
451.172	92.2699	451.172	92.2551	451.172	92.2073	451.172	92.1433	451.172	92.0574	451.172	91.9021	451.172	91.7882	451.172	91.5131	451.172	91.3647	451.172	90.988	451.172	90.7682	451.172	90.3559	451.172	90.0024	451.172	89.6341	451.172	89.087	451.172	88.8171	451.172	88.0471	451.172	87.9065	451.172	86.9257	451.172	86.9701	451.172	85.8532	451.172	86.1926	451.172	85.1305	451.172	85.84	451.172	85.0689	451.172	86.0514	451.172	85.5838	451.172	86.654	451.172	86.2822	451.172	87.3126	451.172	86.8932	451.172	87.7818	451.172	87.3571	451.172	87.9763	451.172	87.7002	451.172	87.9245
465.82	91.9875	465.82	91.9625	465.82	91.9765	465.82	91.8886	465.82	91.9123	465.82	91.7227	465.82	91.7553	465.82	91.4089	465.82	91.4589	465.82	90.9066	465.82	90.987	465.82	90.2113	465.82	90.3268	465.82	89.3551	465.82	89.4886	465.82	88.3893	465.82	88.5018	465.82	87.3741	465.82	87.4215	465.82	86.4133	465.82	86.3536	465.82	85.7162	465.82	85.4891	465.82	85.5336	465.82	85.079	465.82	85.9126	465.82	85.273	465.82	86.6293	465.82	85.9604	465.82	87.412	465.82	86.8605	465.82	88.074	465.82	87.7069	465.82	88.4937	465.82	88.3164	465.82	88.5873
483.398	92.2564	483.398	92.159	483.398	92.2081	483.398	91.9543	483.398	92.026	483.398	91.7035	483.398	91.7564	483.398	91.4349	483.398	91.4362	483.398	91.1068	483.398	91.0586	483.398	90.6253	483.398	90.5717	483.398	89.9049	483.398	89.9051	483.398	88.9266	483.398	89.0019	483.398	87.7662	483.398	87.8541	483.398	86.5818	483.398	86.5655	483.398	85.5736	483.398	85.4484	483.398	84.9607	483.398	84.9772	483.398	84.9449	483.398	85.3236	483.398	85.5387	483.398	86.1197	483.398	86.4598	483.398	86.9456	483.398	87.3403	483.398	87.6062	483.398	87.9371	483.398	88.0311	483.398	88.1617
499.512	92.4355	499.512	92.3376	499.512	92.3787	499.512	92.0726	499.512	92.1934	499.512	91.6615	499.512	91.8963	499.512	91.1471	499.512	91.4883	499.512	90.5588	499.512	90.9612	499.512	89.8852	499.512	90.3058	499.512	89.0824	499.512	89.5204	499.512	88.1125	499.512	88.622	499.512	87.0186	499.512	87.6494	499.512	86.0394	499.512	86.6685	499.512	85.5898	499.512	85.831	499.512	85.8457	499.512	85.4555	499.512	86.5206	499.512	85.8203	499.512	87.2665	499.512	86.7174	499.512	87.9083	499.512	87.6501	499.512	88.3805	499.512	88.3149	499.512	88.663	499.512	88.6628	499.512	88.7598
517.09	91.6129	517.09	91.5572	517.09	91.6359	517.09	91.4585	517.09	91.599	517.09	91.2764	517.09	91.4669	517.09	90.972	517.09	91.2252	517.09	90.5265	517.09	90.8669	517.09	89.9303	517.09	90.3537	517.09	89.1597	517.09	89.6115	517.09	88.1689	517.09	88.5854	517.09	86.9122	517.09	87.3164	517.09	85.4309	517.09	85.9981	517.09	84.0891	517.09	84.9567	517.09	83.7226	517.09	84.4625	517.09	84.6255	517.09	84.5412	517.09	85.9596	517.09	85.0895	517.09	87.07	517.09	85.9722	517.09	87.8084	517.09	86.9481	517.09	88.1791	517.09	87.7381	517.09	88.1641
536.133	91.4847	536.133	91.4359	536.133	91.4636	536.133	91.3084	536.133	91.3713	536.133	91.0933	536.133	91.1831	536.133	90.7793	536.133	90.8575	536.133	90.3428	536.133	90.3704	536.133	89.7477	536.133	89.744	536.133	88.95	536.133	89.0186	536.133	87.8953	536.133	88.172	536.133	86.5232	536.133	87.0793	536.133	84.8365	536.133	85.6006	536.133	83.1129	536.133	83.843	536.133	82.1635	536.133	82.6534	536.133	82.686	536.133	83.1443	536.133	84.1341	536.133	84.6769	536.133	85.6229	536.133	86.1	536.133	86.7364	536.133	87.0457	536.133	87.3907	536.133	87.5307	536.133	87.6378
555.176	91.2189	555.176	91.2805	555.176	91.1352	555.176	91.2913	555.176	91.045	555.176	91.2062	555.176	90.9323	555.176	90.963	555.176	90.7493	555.176	90.5175	555.176	90.4487	555.176	89.8779	555.176	90.0037	555.176	89.0807	555.176	89.3893	555.176	88.1229	555.176	88.5628	555.176	86.9296	555.176	87.4648	555.176	85.407	555.176	86.0413	555.176	83.6283	555.176	84.372	555.176	82.2756	555.176	83.04	555.176	82.428	555.176	82.952	555.176	83.675	555.176	83.8421	555.176	84.9531	555.176	84.8383	555.176	85.9182	555.176	85.6596	555.176	86.5017	555.176	86.2929	555.176	86.6233
574.219	91.6811	574.219	91.567	574.219	91.6361	574.219	91.3136	574.219	91.4576	574.219	90.9865	574.219	91.2006	574.219	90.655	574.219	90.9103	574.219	90.3174	574.219	90.5769	574.219	89.8916	574.219	90.1379	574.219	89.2904	574.219	89.5091	574.219	88.4743	574.219	88.6078	574.219	87.423	574.219	87.3945	574.219	86.087	574.219	85.9716	574.219	84.4245	574.219	84.6391	574.219	82.6439	574.219	83.7202	574.219	81.6945	574.219	83.4123	574.219	82.4988	574.219	83.9532	574.219	84.102	574.219	85.1923	574.219	85.4467	574.219	86.3606	574.219	86.3476	574.219	86.9288	574.219	86.8669
594.727	92.076	594.727	91.9	594.727	92.0946	594.727	91.6193	594.727	91.9582	594.727	91.3085	594.727	91.7126	594.727	91.0027	594.727	91.3998	594.727	90.6474	594.727	91.0155	594.727	90.1179	594.727	90.5042	594.727	89.3031	594.727	89.7968	594.727	88.1692	594.727	88.8666	594.727	86.7522	594.727	87.7294	594.727	85.1398	594.727	86.3727	594.727	83.6038	594.727	84.7675	594.727	82.7723	594.727	83.2133	594.727	83.1464	594.727	82.7263	594.727	84.4322	594.727	83.6888	594.727	85.9193	594.727	85.0581	594.727	87.0185	594.727	86.1596	594.727	87.4864	594.727	86.922	594.727	87.3925
615.234	92.5982	615.234	92.6476	615.234	92.5711	615.234	92.6202	615.234	92.5486	615.234	92.4081	615.234	92.4228	615.234	92.013	615.234	92.1183	615.234	91.547	615.234	91.6648	615.234	91.0982	615.234	91.1359	615.234	90.5934	615.234	90.5229	615.234	89.843	615.234	89.7117	615.234	88.6881	615.234	88.5827	615.234	87.0488	615.234	87.0835	615.234	84.9098	615.234	85.2347	615.234	82.619	615.234	83.278	615.234	81.6367	615.234	82.1254	615.234	82.8218	615.234	82.825	615.234	84.7164	615.234	84.6594	615.234	86.3669	615.234	86.419	615.234	87.487	615.234	87.5645	615.234	87.9202
637.207	92.5204	637.207	92.476	637.207	92.4358	637.207	92.3251	637.207	92.2573	637.207	92.1206	637.207	92.0387	637.207	91.9011	637.207	91.8039	637.207	91.6613	637.207	91.5499	637.207	91.3548	637.207	91.254	637.207	90.915	637.207	90.8644	637.207	90.2436	637.207	90.2825	637.207	89.2005	637.207	89.3632	637.207	87.6683	637.207	87.9725	637.207	85.6423	637.207	86.0863	637.207	83.3892	637.207	84.0352	637.207	82.0314	637.207	82.9821	637.207	82.8209	637.207	83.8016	637.207	84.4776	637.207	85.3352	637.207	85.7255	637.207	86.4926	637.207	86.4883	637.207	86.9954	637.207	86.9302
659.18	92.4118	659.18	92.3635	659.18	92.3664	659.18	92.2486	659.18	92.2497	659.18	92.0777	659.18	92.1092	659.18	91.8	659.18	91.9442	659.18	91.3818	659.18	91.6943	659.18	90.8774	659.18	91.3001	659.18	90.3317	659.18	90.755	659.18	89.6677	659.18	90.0884	659.18	88.7323	659.18	89.2638	659.18	87.3715	659.18	88.0916	659.18	85.4456	659.18	86.345	659.18	83.1247	659.18	84.2663	659.18	82.0576	659.18	83.4228	659.18	83.646	659.18	84.54	659.18	85.8237	659.18	85.8961	659.18	87.3877	659.18	86.8464	659.18	88.1551	659.18	87.6044	659.18	88.1505
682.617	93.3997	682.617	93.2373	682.617	93.3804	682.617	92.9162	682.617	93.1601	682.617	92.5463	682.617	92.755	682.617	92.2859	682.617	92.2931	682.617	92.1231	682.617	91.9268	682.617	91.8764	682.617	91.6418	682.617	91.4231	682.617	91.261	682.617	90.745	682.617	90.6191	682.617	89.8047	682.617	89.6545	682.617	88.4831	682.617	88.3798	682.617	86.6093	682.617	86.7606	682.617	84.1228	682.617	84.6778	682.617	81.8142	682.617	82.5834	682.617	82.1038	682.617	82.4517	682.617	84.3819	682.617	84.444	682.617	86.3529	682.617	86.5073	682.617	87.5873	682.617	87.77	682.617	88.0939
707.52	92.9346	707.52	92.9121	707.52	92.7463	707.52	92.6437	707.52	92.4501	707.52	92.2013	707.52	92.12	707.52	91.7232	707.52	91.7744	707.52	91.3227	707.52	91.436	707.52	90.9652	707.52	91.1268	707.52	90.4846	707.52	90.7714	707.52	89.7696	707.52	90.1874	707.52	88.7899	707.52	89.2522	707.52	87.4456	707.52	88.0276	707.52	85.6323	707.52	86.5981	707.52	83.5677	707.52	84.8461	707.52	82.201	707.52	82.8551	707.52	82.6199	707.52	82.1779	707.52	84.1711	707.52	83.7507	707.52	85.4957	707.52	85.3987	707.52	86.152	707.52	86.1858	707.52	86.3434
732.422	92.2748	732.422	92.3852	732.422	92.1491	732.422	92.3827	732.422	91.9995	732.422	92.1637	732.422	91.7442	732.422	91.7513	732.422	91.3532	732.422	91.3154	732.422	90.9169	732.422	91.0268	732.422	90.5762	732.422	90.8257	732.422	90.3321	732.422	90.458	732.422	89.9662	732.422	89.7567	732.422	89.2244	732.422	88.6346	732.422	87.8987	732.422	86.7787	732.422	85.7814	732.422	83.6617	732.422	83.0466	732.422	79.971	732.422	81.353	732.422	80.8252	732.422	82.4686	732.422	83.8542	732.422	84.7799	732.422	86.0414	732.422	86.7815	732.422	87.4974	732.422	87.9814	732.422	88.2077
757.324	92.9783	757.324	92.7699	757.324	92.9652	757.324	92.4862	757.324	92.6724	757.324	92.1848	757.324	92.1759	757.324	91.7762	757.324	91.6143	757.324	91.1801	757.324	91.0769	757.324	90.4894	757.324	90.5163	757.324	89.9047	757.324	89.9034	757.324	89.3473	757.324	89.3936	757.324	88.4558	757.324	89.0173	757.324	87.1441	757.324	88.3793	757.324	85.5474	757.324	86.9661	757.324	83.4648	757.324	84.4453	757.324	80.9334	757.324	81.2959	757.324	80.3677	757.324	80.8689	757.324	82.8012	757.324	83.1989	757.324	85.1949	757.324	85.1966	757.324	86.5355	757.324	86.4	757.324	86.8768
785.156	93.0895	785.156	93.0544	785.156	92.8043	785.156	92.5386	785.156	92.3318	785.156	91.6297	785.156	91.692	785.156	90.8027	785.156	90.8572	785.156	90.4885	785.156	89.9499	785.156	90.4662	785.156	89.3373	785.156	90.2038	785.156	89.0878	785.156	89.6173	785.156	88.7382	785.156	88.9224	785.156	87.9998	785.156	87.961	785.156	86.8978	785.156	86.3297	785.156	85.3831	785.156	83.8256	785.156	83.3139	785.156	80.0831	785.156	81.0503	785.156	77.0617	785.156	80.7617	785.156	80.863	785.156	82.8537	785.156	84.3444	785.156	84.5793	785.156	85.9546	785.156	85.5667	785.156	86.1549
811.523	92.3664	811.523	92.2896	811.523	92.1038	811.523	91.9223	811.523	91.5792	811.523	91.4186	811.523	90.9217	811.523	90.8333	811.523	90.2198	811.523	90.0569	811.523	89.4527	811.523	89.2386	811.523	88.6566	811.523	88.7704	811.523	88.1563	811.523	88.5212	811.523	87.9786	811.523	88.0341	811.523	87.5951	811.523	86.9144	811.523	86.7059	811.523	84.7956	811.523	85.2694	811.523	81.5625	811.523	83.0527	811.523	77.8691	811.523	80.1774	811.523	77.2334	811.523	79.6516	811.523	80.0338	811.523	82.4054	811.523	82.1917	811.523	84.5426	811.523	83.6702	811.523	85.2775	811.523	84.8349
840.82	92.2181	840.82	92.101	840.82	92.1186	840.82	91.7394	840.82	91.7999	840.82	91.1193	840.82	91.2244	840.82	90.3899	840.82	90.3432	840.82	89.801	840.82	89.3151	840.82	89.3451	840.82	88.5457	840.82	88.9129	840.82	88.1778	840.82	88.4882	840.82	87.8482	840.82	87.8467	840.82	87.2421	840.82	86.8432	840.82	86.2643	840.82	85.6308	840.82	84.5921	840.82	84.0186	840.82	81.7806	840.82	81.5053	840.82	78.6039	840.82	79.3534	840.82	78.2749	840.82	81.2549	840.82	80.1694	840.82	84.052	840.82	82.0869	840.82	85.2041	840.82	83.6842	840.82	84.8698
870.117	92.7565	870.117	92.5493	870.117	92.4774	870.117	92.0521	870.117	91.7245	870.117	91.3654	870.117	90.7321	870.117	90.3845	870.117	89.686	870.117	89.2102	870.117	88.6448	870.117	88.4627	870.117	87.8117	870.117	88.1659	870.117	87.3838	870.117	87.4656	870.117	87.0912	870.117	86.2951	870.117	86.7028	870.117	85.1407	870.117	86.129	870.117	83.2867	870.117	85.0307	870.117	79.5265	870.117	82.6174	870.117	72.361	870.117	77.6908	870.117	73.5762	870.117	73.4079	870.117	80.0076	870.117	80.1026	870.117	83.6641	870.117	84.604	870.117	85.9934	870.117	86.7305	870.117	87.0887
900.879	92.6411	900.879	92.314	900.879	92.5558	900.879	91.7388	900.879	92.0439	900.879	90.995	900.879	91.24	900.879	90.1536	900.879	90.2441	900.879	89.3121	900.879	89.0923	900.879	88.4819	900.879	87.9124	900.879	87.9053	900.879	87.1884	900.879	87.7303	900.879	86.9909	900.879	87.49	900.879	86.5242	900.879	86.7761	900.879	85.5421	900.879	85.4412	900.879	84.1937	900.879	83.2631	900.879	82.3289	900.879	79.968	900.879	79.174	900.879	75.1546	900.879	74.1663	900.879	76.1694	900.879	75.1999	900.879	80.905	900.879	78.4505	900.879	82.6948	900.879	80.6708	900.879	82.3654
933.105	91.0098	933.105	90.9225	933.105	90.8973	933.105	90.3447	933.105	90.6342	933.105	89.2117	933.105	89.8797	933.105	87.7992	933.105	88.5416	933.105	86.5618	933.105	87.1166	933.105	85.5083	933.105	85.8533	933.105	84.624	933.105	84.5053	933.105	84.5544	933.105	83.6527	933.105	84.6627	933.105	83.7431	933.105	84.0471	933.105	83.8471	933.105	82.556	933.105	83.1783	933.105	79.6012	933.105	81.379	933.105	73.5679	933.105	78.6544	933.105	71.5627	933.105	76.9182	933.105	77.5617	933.105	78.6118	933.105	80.6419	933.105	82.1867	933.105	82.7831	933.105	84.481	933.105	84.4245
965.332	90.6456	965.332	90.1429	965.332	90.6153	965.332	89.627	965.332	89.897	965.332	88.9795	965.332	89.0332	965.332	87.7065	965.332	88.2905	965.332	85.8179	965.332	87.247	965.332	84.2553	965.332	85.9089	965.332	84.0334	965.332	84.8417	965.332	83.9563	965.332	84.4913	965.332	83.7897	965.332	84.5607	965.332	84.0567	965.332	84.1517	965.332	83.6097	965.332	83.1904	965.332	81.8262	965.332	81.3706	965.332	78.2219	965.332	77.0222	965.332	71.9818	965.332	64.156	965.332	75.5026	965.332	75.8726	965.332	80.1751	965.332	80.5906	965.332	82.0842	965.332	81.8464	965.332	82.1586
1,000.49	90.4586	1,000.49	90.2794	1,000.49	90.3084	1,000.49	89.6175	1,000.49	89.8383	1,000.49	88.5938	1,000.49	88.7329	1,000.49	87.3463	1,000.49	87.246	1,000.49	85.6534	1,000.49	86.1696	1,000.49	83.8668	1,000.49	85.3197	1,000.49	83.3266	1,000.49	84.6831	1,000.49	83.5651	1,000.49	84.8262	1,000.49	83.5184	1,000.49	85.1168	1,000.49	82.9255	1,000.49	85.0311	1,000.49	81.6921	1,000.49	83.9452	1,000.49	79.4194	1,000.49	81.4464	1,000.49	75.3312	1,000.49	76.7825	1,000.49	72.1547	1,000.49	65.8111	1,000.49	71.8844	1,000.49	73.2179	1,000.49	78.634	1,000.49	77.1906	1,000.49	81.6939	1,000.49	79.8656	1,000.49	81.8053
1,035.64	89.9902	1,035.64	89.9724	1,035.64	90.0349	1,035.64	90.153	1,035.64	89.7118	1,035.64	89.5582	1,035.64	89.5795	1,035.64	88.2729	1,035.64	89.2878	1,035.64	87.0474	1,035.64	88.0355	1,035.64	85.2016	1,035.64	86.4048	1,035.64	83.3273	1,035.64	85.0291	1,035.64	82.8982	1,035.64	83.847	1,035.64	83.0866	1,035.64	83.7918	1,035.64	84.1101	1,035.64	84.2165	1,035.64	84.3059	1,035.64	83.761	1,035.64	83.0013	1,035.64	82.5163	1,035.64	80.271	1,035.64	79.9904	1,035.64	72.0123	1,035.64	73.5699	1,035.64	72.4951	1,035.64	67.0216	1,035.64	77.2907	1,035.64	76.3227	1,035.64	78.9912	1,035.64	79.0805	1,035.64	79.4136
1,072.27	89.8767	1,072.27	89.6324	1,072.27	89.6511	1,072.27	89.0517	1,072.27	89.0599	1,072.27	88.4861	1,072.27	88.0773	1,072.27	87.6283	1,072.27	86.9177	1,072.27	86.3653	1,072.27	85.7018	1,072.27	85.0201	1,072.27	84.0661	1,072.27	83.3389	1,072.27	82.6987	1,072.27	82.6806	1,072.27	81.834	1,072.27	82.544	1,072.27	81.487	1,072.27	82.0232	1,072.27	81.9332	1,072.27	82.3911	1,072.27	81.5183	1,072.27	81.8768	1,072.27	80.4433	1,072.27	79.2502	1,072.27	77.9583	1,072.27	72.9272	1,072.27	73.4129	1,072.27	68.1655	1,072.27	71.2178	1,072.27	77.5488	1,072.27	77.9744	1,072.27	81.7645	1,072.27	82.1065	1,072.27	83.0913
1,108.89	88.884	1,108.89	88.6889	1,108.89	88.9806	1,108.89	88.4601	1,108.89	88.7073	1,108.89	87.5881	1,108.89	88.0106	1,108.89	86.3766	1,108.89	86.6768	1,108.89	85.5251	1,108.89	84.7363	1,108.89	84.0858	1,108.89	82.9511	1,108.89	82.284	1,108.89	81.1764	1,108.89	81.1269	1,108.89	79.497	1,108.89	81.3083	1,108.89	79.7073	1,108.89	82.2477	1,108.89	80.7799	1,108.89	82.3837	1,108.89	81.098	1,108.89	82.0196	1,108.89	79.8048	1,108.89	80.7171	1,108.89	77.6953	1,108.89	74.956	1,108.89	72.4812	1,108.89	64.9239	1,108.89	62.6106	1,108.89	72.458	1,108.89	74.3773	1,108.89	76.5414	1,108.89	77.5595	1,108.89	78.2882
1,148.44	87.7428	1,148.44	87.65	1,148.44	87.3002	1,148.44	87.128	1,148.44	86.9843	1,148.44	86.8838	1,148.44	86.4556	1,148.44	86.3383	1,148.44	85.3251	1,148.44	85.0979	1,148.44	84.4461	1,148.44	83.5978	1,148.44	83.4104	1,148.44	81.6658	1,148.44	81.6431	1,148.44	80.3016	1,148.44	79.784	1,148.44	79.1797	1,148.44	78.3449	1,148.44	79.9393	1,148.44	77.9609	1,148.44	81.3021	1,148.44	77.9109	1,148.44	80.7076	1,148.44	78.5649	1,148.44	77.8986	1,148.44	77.5542	1,148.44	74.3016	1,148.44	72.8136	1,148.44	66.0776	1,148.44	62.8429	1,148.44	73.0013	1,148.44	68.1615	1,148.44	78.2546	1,148.44	77.4868	1,148.44	79.5389
1,189.45	90.2842	1,189.45	90.0757	1,189.45	90.2346	1,189.45	89.7888	1,189.45	89.6203	1,189.45	89.2004	1,189.45	88.6523	1,189.45	88.2433	1,189.45	87.6475	1,189.45	87.0622	1,189.45	86.1206	1,189.45	85.6017	1,189.45	84.3989	1,189.45	84.0169	1,189.45	83.542	1,189.45	82.7616	1,189.45	82.5674	1,189.45	82.077	1,189.45	82.0622	1,189.45	82.2514	1,189.45	81.2271	1,189.45	82.6141	1,189.45	81.6015	1,189.45	82.803	1,189.45	82.4929	1,189.45	81.1005	1,189.45	81.8895	1,189.45	75.8146	1,189.45	78.4079	1,189.45	72.5243	1,189.45	71.2643	1,189.45	76.1006	1,189.45	74.311	1,189.45	78.5787	1,189.45	78.7163	1,189.45	79.7512
1,230.47	90.9135	1,230.47	90.7614	1,230.47	90.7483	1,230.47	90.4764	1,230.47	90.3934	1,230.47	90.2624	1,230.47	89.9011	1,230.47	89.6263	1,230.47	88.9479	1,230.47	88.2304	1,230.47	87.8539	1,230.47	86.5758	1,230.47	86.4568	1,230.47	84.637	1,230.47	84.6619	1,230.47	82.9234	1,230.47	82.8343	1,230.47	81.8986	1,230.47	80.6253	1,230.47	82.1973	1,230.47	81.3202	1,230.47	83.5406	1,230.47	81.4213	1,230.47	83.6245	1,230.47	81.12	1,230.47	81.9032	1,230.47	80.9237	1,230.47	77.174	1,230.47	77.8642	1,230.47	69.9956	1,230.47	68.6527	1,230.47	73.6474	1,230.47	73.1166	1,230.47	80.2288	1,230.47	78.8962	1,230.47	81.2703
1,274.41	90.2126	1,274.41	89.9508	1,274.41	89.9431	1,274.41	89.4729	1,274.41	89.2786	1,274.41	89.0567	1,274.41	88.3554	1,274.41	88.1919	1,274.41	87.1678	1,274.41	87.2075	1,274.41	85.7309	1,274.41	86.0986	1,274.41	83.8301	1,274.41	84.2195	1,274.41	82.26	1,274.41	82.1994	1,274.41	81.5916	1,274.41	81.0728	1,274.41	80.58	1,274.41	81.1998	1,274.41	80.1912	1,274.41	82.4957	1,274.41	80.67	1,274.41	82.6653	1,274.41	81.3653	1,274.41	80.8062	1,274.41	80.21	1,274.41	76.4801	1,274.41	77.1139	1,274.41	72.1049	1,274.41	70.9789	1,274.41	75.515	1,274.41	73.3485	1,274.41	78.9218	1,274.41	78.887	1,274.41	79.7896
1,319.82	88.5911	1,319.82	88.6486	1,319.82	88.3237	1,319.82	87.7903	1,319.82	87.8391	1,319.82	87.1163	1,319.82	86.4598	1,319.82	86.8637	1,319.82	84.9696	1,319.82	85.5208	1,319.82	84.0574	1,319.82	83.713	1,319.82	82.069	1,319.82	82.3783	1,319.82	80.2738	1,319.82	81.2506	1,319.82	79.7146	1,319.82	80.8843	1,319.82	78.4092	1,319.82	80.0099	1,319.82	78.1527	1,319.82	79.5225	1,319.82	78.4979	1,319.82	79.7656	1,319.82	78.8522	1,319.82	78.6147	1,319.82	78.6216	1,319.82	72.8121	1,319.82	75.8497	1,319.82	63.113	1,319.82	63.1286	1,319.82	72.6559	1,319.82	66.4606	1,319.82	75.8772	1,319.82	75.1533	1,319.82	78.6101
1,366.7	88.2	1,366.7	87.9127	1,366.7	87.9614	1,366.7	87.4781	1,366.7	87.5955	1,366.7	86.963	1,366.7	86.509	1,366.7	85.7772	1,366.7	85.2629	1,366.7	84.4646	1,366.7	84.1677	1,366.7	82.9626	1,366.7	82.8656	1,366.7	81.7932	1,366.7	81.3597	1,366.7	79.7344	1,366.7	79.7588	1,366.7	78.765	1,366.7	77.7639	1,366.7	78.8073	1,366.7	77.1888	1,366.7	79.644	1,366.7	77.5164	1,366.7	80.4736	1,366.7	77.9919	1,366.7	77.602	1,366.7	78.1507	1,366.7	73.2912	1,366.7	76.8616	1,366.7	65.7117	1,366.7	72.5016	1,366.7	67.5633	1,366.7	66.0263	1,366.7	77.0691	1,366.7	72.1167	1,366.7	76.7946
1,413.57	89.2881	1,413.57	88.9455	1,413.57	89.1968	1,413.57	87.95	1,413.57	88.6703	1,413.57	87.054	1,413.57	87.7614	1,413.57	86.0695	1,413.57	86.7899	1,413.57	85.2092	1,413.57	85.7507	1,413.57	84.6344	1,413.57	84.2209	1,413.57	82.859	1,413.57	82.1742	1,413.57	80.3039	1,413.57	80.3631	1,413.57	78.3961	1,413.57	78.5899	1,413.57	75.8337	1,413.57	76.6491	1,413.57	78.0347	1,413.57	77.8252	1,413.57	79.8034	1,413.57	79.2783	1,413.57	79.2199	1,413.57	78.6341	1,413.57	74.8102	1,413.57	76.2438	1,413.57	65.0161	1,413.57	67.7201	1,413.57	69.7374	1,413.57	69.6093	1,413.57	76.3764	1,413.57	75.3021	1,413.57	76.9043
1,463.38	89.4	1,463.38	89.1927	1,463.38	89.5106	1,463.38	88.7802	1,463.38	88.7517	1,463.38	87.9112	1,463.38	87.7688	1,463.38	86.2413	1,463.38	86.9494	1,463.38	85.2782	1,463.38	84.8005	1,463.38	84.307	1,463.38	82.8752	1,463.38	82.4342	1,463.38	82.1196	1,463.38	81.2403	1,463.38	80.3949	1,463.38	78.92	1,463.38	78.8935	1,463.38	77.2114	1,463.38	79.1325	1,463.38	76.3339	1,463.38	78.1417	1,463.38	77.8399	1,463.38	78.3737	1,463.38	79.7397	1,463.38	78.6827	1,463.38	75.6343	1,463.38	77.3124	1,463.38	65.6305	1,463.38	66.2168	1,463.38	68.5992	1,463.38	68.813	1,463.38	75.7361	1,463.38	75.6517	1,463.38	76.8945
1,516.11	88.7171	1,516.11	88.5575	1,516.11	88.7082	1,516.11	88.1685	1,516.11	88.3577	1,516.11	86.9965	1,516.11	87.1475	1,516.11	85.7757	1,516.11	85.4665	1,516.11	84.5656	1,516.11	84.3175	1,516.11	82.4157	1,516.11	82.9995	1,516.11	80.3299	1,516.11	81.3589	1,516.11	79.6602	1,516.11	79.4205	1,516.11	78.8112	1,516.11	77.2602	1,516.11	76.8961	1,516.11	77.6004	1,516.11	75.727	1,516.11	77.7816	1,516.11	76.6752	1,516.11	78.892	1,516.11	77.7174	1,516.11	78.5533	1,516.11	76.8738	1,516.11	76.8459	1,516.11	73.0807	1,516.11	70.0206	1,516.11	63.8251	1,516.11	60.0957	1,516.11	72.8958	1,516.11	68.4516	1,516.11	73.4456
1,568.85	87.6644	1,568.85	87.5679	1,568.85	87.6876	1,568.85	87.4474	1,568.85	86.8638	1,568.85	86.5831	1,568.85	85.538	1,568.85	85.0899	1,568.85	84.917	1,568.85	83.3196	1,568.85	83.7854	1,568.85	81.8632	1,568.85	83.0518	1,568.85	80.1317	1,568.85	82.2646	1,568.85	79.9458	1,568.85	78.7151	1,568.85	77.9573	1,568.85	75.4252	1,568.85	76.5836	1,568.85	74.4486	1,568.85	75.9338	1,568.85	76.3334	1,568.85	74.0977	1,568.85	77.1459	1,568.85	76.7919	1,568.85	77.7045	1,568.85	76.7876	1,568.85	72.7565	1,568.85	70.19	1,568.85	71.3017	1,568.85	65.7688	1,568.85	58.2609	1,568.85	72.5693	1,568.85	70.4669	1,568.85	73.6131
1,624.51	86.8853	1,624.51	86.9893	1,624.51	86.6292	1,624.51	86.8061	1,624.51	86.6927	1,624.51	85.7513	1,624.51	86.4157	1,624.51	84.3356	1,624.51	85.491	1,624.51	83.8597	1,624.51	84.1171	1,624.51	82.4872	1,624.51	81.6388	1,624.51	80.9304	1,624.51	81.1251	1,624.51	79.0687	1,624.51	80.0127	1,624.51	77.9572	1,624.51	75.4954	1,624.51	76.0735	1,624.51	71.1719	1,624.51	75.9085	1,624.51	70.2602	1,624.51	76.5462	1,624.51	74.8866	1,624.51	76.7211	1,624.51	76.4484	1,624.51	77.1677	1,624.51	76.9308	1,624.51	63.5151	1,624.51	71.0513	1,624.51	58.0617	1,624.51	64.4474	1,624.51	65.238	1,624.51	71.4478	1,624.51	73.1833
1,681.64	88.1911	1,681.64	87.5723	1,681.64	87.561	1,681.64	87.3464	1,681.64	87.121	1,681.64	86.4607	1,681.64	85.509	1,681.64	84.5426	1,681.64	84.8444	1,681.64	82.9924	1,681.64	83.5322	1,681.64	81.9346	1,681.64	82.3397	1,681.64	79.9599	1,681.64	80.2132	1,681.64	77.0507	1,681.64	78.6019	1,681.64	76.1296	1,681.64	77.2957	1,681.64	73.6774	1,681.64	75.7597	1,681.64	72.6015	1,681.64	73.6848	1,681.64	77.4487	1,681.64	75.7991	1,681.64	77.5503	1,681.64	78.5326	1,681.64	77.6898	1,681.64	76.3282	1,681.64	72.4786	1,681.64	72.0142	1,681.64	65.464	1,681.64	61.0625	1,681.64	72.9852	1,681.64	73.5648	1,681.64	76.0664
1,741.7	88.5265	1,741.7	88.7615	1,741.7	88.167	1,741.7	88.0773	1,741.7	86.7505	1,741.7	86.2352	1,741.7	86.8936	1,741.7	85.0019	1,741.7	85.3364	1,741.7	84.1209	1,741.7	84.8557	1,741.7	81.0792	1,741.7	84.1354	1,741.7	81.1217	1,741.7	82.8831	1,741.7	79.1048	1,741.7	81.1932	1,741.7	76.3167	1,741.7	79.0796	1,741.7	76.1607	1,741.7	77.8228	1,741.7	73.3767	1,741.7	77.5605	1,741.7	73.5878	1,741.7	78.2399	1,741.7	77.4473	1,741.7	78.374	1,741.7	77.3666	1,741.7	76.7546	1,741.7	72.7735	1,741.7	75.1202	1,741.7	58.1041	1,741.7	70.9601	1,741.7	75.704	1,741.7	66.282	1,741.7	73.3786
1,803.22	88.5612	1,803.22	88.8899	1,803.22	87.3537	1,803.22	87.0419	1,803.22	87.5581	1,803.22	85.61	1,803.22	86.371	1,803.22	84.4832	1,803.22	85.2569	1,803.22	82.4991	1,803.22	84.824	1,803.22	82.2547	1,803.22	83.4691	1,803.22	80.1274	1,803.22	82.2837	1,803.22	76.6265	1,803.22	81.685	1,803.22	75.6609	1,803.22	81.4144	1,803.22	71.9001	1,803.22	78.034	1,803.22	73.8373	1,803.22	77.7956	1,803.22	74.0613	1,803.22	76.0056	1,803.22	75.3524	1,803.22	78.6538	1,803.22	75.4377	1,803.22	76.2022	1,803.22	72.651	1,803.22	77.6162	1,803.22	69.4342	1,803.22	63.9289	1,803.22	69.4577	1,803.22	71.3955	1,803.22	74.9579
1,866.21	87.4629	1,866.21	87.4805	1,866.21	86.269	1,866.21	86.0175	1,866.21	85.7602	1,866.21	84.4657	1,866.21	84.7296	1,866.21	83.3491	1,866.21	83.2466	1,866.21	82.0536	1,866.21	82.6968	1,866.21	80.1012	1,866.21	82.2857	1,866.21	80.8337	1,866.21	80.2859	1,866.21	78.9033	1,866.21	80.5219	1,866.21	76.1369	1,866.21	79.5643	1,866.21	74.6076	1,866.21	75.963	1,866.21	73.5322	1,866.21	74.5948	1,866.21	72.1255	1,866.21	73.7832	1,866.21	75.6602	1,866.21	75.5682	1,866.21	76.8183	1,866.21	77.9192	1,866.21	74.8358	1,866.21	74.773	1,866.21	71.5612	1,866.21	69.9404	1,866.21	70.022	1,866.21	45.5599	1,866.21	70.7611
1,932.13	87.2293	1,932.13	87.139	1,932.13	87.9239	1,932.13	86.3748	1,932.13	86.6754	1,932.13	85.4648	1,932.13	85.3345	1,932.13	82.7923	1,932.13	85.4926	1,932.13	81.6996	1,932.13	83.9217	1,932.13	80.7872	1,932.13	82.6081	1,932.13	80.2956	1,932.13	81.688	1,932.13	80.311	1,932.13	81.3229	1,932.13	78.7314	1,932.13	78.1892	1,932.13	76.9252	1,932.13	76.0971	1,932.13	73.8046	1,932.13	74.1263	1,932.13	70.1525	1,932.13	71.6518	1,932.13	75.8685	1,932.13	75.7966	1,932.13	76.8471	1,932.13	76.393	1,932.13	73.6568	1,932.13	78.3486	1,932.13	69.1509	1,932.13	55.7403	1,932.13	72.0241	1,932.13	67.9107	1,932.13	69.8829
1,999.51	89.6035	1,999.51	89.3637	1,999.51	89.5517	1,999.51	88.2992	1,999.51	88.7182	1,999.51	87.2808	1,999.51	87.2532	1,999.51	85.7816	1,999.51	86.2341	1,999.51	83.3093	1,999.51	84.0139	1,999.51	81.909	1,999.51	83.2142	1,999.51	79.636	1,999.51	81.4787	1,999.51	77.6782	1,999.51	80.8277	1,999.51	77.6537	1,999.51	78.8559	1,999.51	76.8063	1,999.51	77.267	1,999.51	75.2755	1,999.51	75.526	1,999.51	69.0904	1,999.51	73.8324	1,999.51	72.1362	1,999.51	74.9535	1,999.51	75.781	1,999.51	77.244	1,999.51	72.9946	1,999.51	75.6218	1,999.51	61.3289	1,999.51	69.6432	1,999.51	71.8304	1,999.51	71.643	1,999.51	73.9065
2,069.82	90.1245	2,069.82	89.8851	2,069.82	89.8617	2,069.82	89.1675	2,069.82	88.98	2,069.82	88.2225	2,069.82	88.0658	2,069.82	87.1201	2,069.82	86.6011	2,069.82	85.2308	2,069.82	84.5184	2,069.82	83.3532	2,069.82	82.8471	2,069.82	81.7665	2,069.82	81.1609	2,069.82	80.3297	2,069.82	79.9462	2,069.82	78.7766	2,069.82	80.5318	2,069.82	77.0237	2,069.82	77.4409	2,069.82	75.8987	2,069.82	76.0682	2,069.82	73.1873	2,069.82	71.0889	2,069.82	73.751	2,069.82	72.388	2,069.82	75.4012	2,069.82	75.8528	2,069.82	75.5077	2,069.82	73.885	2,069.82	69.3005	2,069.82	65.6923	2,069.82	70.6962	2,069.82	69.7676	2,069.82	73.4173
2,143.07	89.2255	2,143.07	88.8747	2,143.07	88.8659	2,143.07	88.1291	2,143.07	88.2849	2,143.07	87.4887	2,143.07	87.1604	2,143.07	86.1569	2,143.07	85.8233	2,143.07	84.7367	2,143.07	84.3687	2,143.07	82.9299	2,143.07	82.4686	2,143.07	81.158	2,143.07	80.452	2,143.07	79.9426	2,143.07	78.7142	2,143.07	77.87	2,143.07	77.8356	2,143.07	76.9713	2,143.07	75.5317	2,143.07	76.8824	2,143.07	76.571	2,143.07	72.1135	2,143.07	73.1212	2,143.07	72.2122	2,143.07	69.4041	2,143.07	74.5665	2,143.07	73.991	2,143.07	72.3656	2,143.07	73.6733	2,143.07	64.2546	2,143.07	65.1769	2,143.07	67.4773	2,143.07	68.973	2,143.07	72.0053
2,219.24	88.9319	2,219.24	88.79	2,219.24	88.8201	2,219.24	88.0174	2,219.24	88.0185	2,219.24	86.8166	2,219.24	86.7505	2,219.24	85.4993	2,219.24	85.6146	2,219.24	83.7764	2,219.24	84.2739	2,219.24	83.4922	2,219.24	82.7011	2,219.24	81.023	2,219.24	80.8911	2,219.24	79.4186	2,219.24	79.6632	2,219.24	77.3411	2,219.24	78.8905	2,219.24	75.855	2,219.24	76.3823	2,219.24	74.2124	2,219.24	75.9893	2,219.24	73.4945	2,219.24	73.537	2,219.24	69.0286	2,219.24	72.2341	2,219.24	74.1463	2,219.24	73.7123	2,219.24	74.0813	2,219.24	74.5703	2,219.24	65.6486	2,219.24	64.8614	2,219.24	69.1793	2,219.24	62.0002	2,219.24	74.1753
2,296.88	89.7433	2,296.88	89.4897	2,296.88	89.239	2,296.88	88.7057	2,296.88	88.2831	2,296.88	88.122	2,296.88	87.1847	2,296.88	86.7673	2,296.88	85.8582	2,296.88	85.4938	2,296.88	84.5965	2,296.88	82.4416	2,296.88	82.4972	2,296.88	81.125	2,296.88	81.0187	2,296.88	79.3539	2,296.88	79.425	2,296.88	78.2912	2,296.88	78.0971	2,296.88	76.3756	2,296.88	76.2117	2,296.88	75.6818	2,296.88	76.7091	2,296.88	73.9524	2,296.88	74.5634	2,296.88	73.1496	2,296.88	70.9767	2,296.88	73.9379	2,296.88	74.4618	2,296.88	73.6979	2,296.88	72.7405	2,296.88	67.3768	2,296.88	67.6816	2,296.88	67.0561	2,296.88	69.7676	2,296.88	71.3722
2,378.91	89.004	2,378.91	88.9106	2,378.91	88.3306	2,378.91	88.5693	2,378.91	87.3566	2,378.91	87.954	2,378.91	86.0734	2,378.91	86.7041	2,378.91	84.1287	2,378.91	86.0295	2,378.91	82.7333	2,378.91	83.6843	2,378.91	80.4881	2,378.91	81.7947	2,378.91	78.9572	2,378.91	79.8155	2,378.91	77.2109	2,378.91	78.6413	2,378.91	77.5517	2,378.91	77.3909	2,378.91	75.0064	2,378.91	76.0049	2,378.91	73.3209	2,378.91	74.6696	2,378.91	72.6592	2,378.91	72.3122	2,378.91	73.0217	2,378.91	73.5251	2,378.91	71.1073	2,378.91	73.3056	2,378.91	70.9922	2,378.91	65.9671	2,378.91	53.4803	2,378.91	67.1125	2,378.91	70.0242	2,378.91	70.9939
2,462.4	89.1459	2,462.4	89.1267	2,462.4	88.296	2,462.4	88.8	2,462.4	87.1595	2,462.4	88.2468	2,462.4	85.5594	2,462.4	87.466	2,462.4	84.1658	2,462.4	86.5698	2,462.4	82.638	2,462.4	84.2951	2,462.4	80.3206	2,462.4	82.1734	2,462.4	78.4823	2,462.4	80.7379	2,462.4	78.0292	2,462.4	79.4879	2,462.4	76.4372	2,462.4	76.2238	2,462.4	74.7913	2,462.4	76.1305	2,462.4	71.8792	2,462.4	76.7495	2,462.4	69.5802	2,462.4	72.3131	2,462.4	70.626	2,462.4	73.2709	2,462.4	70.9724	2,462.4	74.0683	2,462.4	70.3732	2,462.4	64.4868	2,462.4	62.4181	2,462.4	72.2932	2,462.4	66.8547	2,462.4	73.8396
2,548.83	90.1003	2,548.83	90.0438	2,548.83	88.422	2,548.83	90.3695	2,548.83	86.4662	2,548.83	89.4756	2,548.83	84.1771	2,548.83	88.8412	2,548.83	81.6834	2,548.83	87.1726	2,548.83	81.1728	2,548.83	85.2016	2,548.83	79.4273	2,548.83	81.7655	2,548.83	77.5487	2,548.83	79.8197	2,548.83	75.0423	2,548.83	78.6239	2,548.83	71.1872	2,548.83	76.686	2,548.83	74.3856	2,548.83	75.4082	2,548.83	71.9826	2,548.83	75.5652	2,548.83	72.3552	2,548.83	75.7345	2,548.83	68.2519	2,548.83	72.045	2,548.83	63.4201	2,548.83	70.8588	2,548.83	69.8183	2,548.83	66.886	2,548.83	67.1014	2,548.83	69.7613	2,548.83	72.3139	2,548.83	74.9513
2,639.65	87.935	2,639.65	89.1217	2,639.65	86.4395	2,639.65	89.5249	2,639.65	83.9512	2,639.65	89.1734	2,639.65	82.3223	2,639.65	88.9767	2,639.65	81.8073	2,639.65	88.8425	2,639.65	79.9671	2,639.65	87.0723	2,639.65	78.0284	2,639.65	85.3116	2,639.65	74.8212	2,639.65	82.0656	2,639.65	73.8711	2,639.65	79.4397	2,639.65	72.2068	2,639.65	79.7309	2,639.65	68.5915	2,639.65	77.6805	2,639.65	63.1387	2,639.65	71.9844	2,639.65	74.5328	2,639.65	65.4777	2,639.65	72.526	2,639.65	72.1402	2,639.65	67.0305	2,639.65	70.6773	2,639.65	73.8235	2,639.65	64.8395	2,639.65	73.3299	2,639.65	70.7926	2,639.65	71.4586	2,639.65	70.5268
2,731.93	87.2412	2,731.93	88.8534	2,731.93	85.761	2,731.93	88.9883	2,731.93	83.619	2,731.93	88.3175	2,731.93	83.5257	2,731.93	87.0411	2,731.93	82.7996	2,731.93	86.8491	2,731.93	82.282	2,731.93	86.4365	2,731.93	81.2303	2,731.93	85.4102	2,731.93	79.3943	2,731.93	82.6926	2,731.93	74.5432	2,731.93	78.5708	2,731.93	70.8809	2,731.93	79.8304	2,731.93	71.0773	2,731.93	77.3181	2,731.93	67.4264	2,731.93	77.1935	2,731.93	68.4792	2,731.93	75.9295	2,731.93	71.9847	2,731.93	64.9403	2,731.93	71.6507	2,731.93	69.3237	2,731.93	70.6202	2,731.93	66.2996	2,731.93	72.3333	2,731.93	67.8948	2,731.93	52.7384	2,731.93	72.0461
2,828.61	88.868	2,828.61	90.2855	2,828.61	86.4631	2,828.61	90.8007	2,828.61	85.4251	2,828.61	90.8155	2,828.61	83.3978	2,828.61	88.9627	2,828.61	81.9951	2,828.61	86.3724	2,828.61	80.0038	2,828.61	84.9754	2,828.61	78.9821	2,828.61	85.3951	2,828.61	76.6306	2,828.61	82.4334	2,828.61	70.2969	2,828.61	79.6503	2,828.61	53.8482	2,828.61	79.2842	2,828.61	66.2522	2,828.61	75.9302	2,828.61	67.6518	2,828.61	73.5664	2,828.61	69.6757	2,828.61	77.3677	2,828.61	69.3389	2,828.61	75.5727	2,828.61	67.74	2,828.61	55.5417	2,828.61	65.3548	2,828.61	61.6752	2,828.61	60.9161	2,828.61	55.651	2,828.61	68.3472	2,828.61	69.7823
2,928.22	89.7278	2,928.22	91.2384	2,928.22	86.4226	2,928.22	91.4367	2,928.22	82.4953	2,928.22	91.4124	2,928.22	77.4413	2,928.22	89.9024	2,928.22	71.9625	2,928.22	87.3913	2,928.22	58.787	2,928.22	85.1083	2,928.22	65.5917	2,928.22	83.737	2,928.22	66.3946	2,928.22	81.7841	2,928.22	62.7119	2,928.22	81.5349	2,928.22	69.181	2,928.22	78.4802	2,928.22	67.7153	2,928.22	79.3263	2,928.22	59.5954	2,928.22	77.0087	2,928.22	74.2585	2,928.22	76.2285	2,928.22	72.9809	2,928.22	78.5559	2,928.22	69.1228	2,928.22	73.359	2,928.22	64.4183	2,928.22	67.1269	2,928.22	71.4417	2,928.22	59.7332	2,928.22	71.9056	2,928.22	69.1548
3,030.76	88.7012	3,030.76	90.8236	3,030.76	82.5283	3,030.76	91.5106	3,030.76	79.2772	3,030.76	91.0798	3,030.76	80.4816	3,030.76	90.5087	3,030.76	80.3685	3,030.76	88.2182	3,030.76	80.9388	3,030.76	87.8527	3,030.76	79.6037	3,030.76	84.6224	3,030.76	77.249	3,030.76	82.7538	3,030.76	72.0687	3,030.76	83.697	3,030.76	76.4055	3,030.76	79.822	3,030.76	76.0169	3,030.76	80.758	3,030.76	66.941	3,030.76	80.8864	3,030.76	74.9002	3,030.76	76.8052	3,030.76	76.2371	3,030.76	80.0058	3,030.76	72.5186	3,030.76	77.6991	3,030.76	73.7017	3,030.76	62.1924	3,030.76	76.3199	3,030.76	72.0338	3,030.76	73.0173	3,030.76	70.7829
3,137.7	83.2821	3,137.7	86.8805	3,137.7	80.6958	3,137.7	89.233	3,137.7	81.9433	3,137.7	90.272	3,137.7	83.8173	3,137.7	90.1065	3,137.7	82.5358	3,137.7	88.4995	3,137.7	80.1737	3,137.7	87.7616	3,137.7	80.4724	3,137.7	85.2024	3,137.7	80.646	3,137.7	82.4788	3,137.7	77.9751	3,137.7	82.8922	3,137.7	74.937	3,137.7	82.2164	3,137.7	78.34	3,137.7	77.6555	3,137.7	73.8175	3,137.7	79.4551	3,137.7	66.1213	3,137.7	78.7705	3,137.7	74.6742	3,137.7	76.2029	3,137.7	71.3336	3,137.7	78.5407	3,137.7	74.5367	3,137.7	60.8351	3,137.7	78.1335	3,137.7	72.9551	3,137.7	72.8806	3,137.7	72.0311
3,249.02	80.7127	3,249.02	83.0811	3,249.02	82.7887	3,249.02	85.6997	3,249.02	84.5489	3,249.02	87.6337	3,249.02	84.8379	3,249.02	87.3568	3,249.02	83.4905	3,249.02	86.7495	3,249.02	80.9019	3,249.02	84.5064	3,249.02	79.2584	3,249.02	82.2617	3,249.02	79.1647	3,249.02	80.9484	3,249.02	78.8936	3,249.02	79.2139	3,249.02	75.5418	3,249.02	78.3176	3,249.02	75.8675	3,249.02	74.9844	3,249.02	75.9025	3,249.02	73.1401	3,249.02	68.804	3,249.02	74.2526	3,249.02	67.7083	3,249.02	71.3435	3,249.02	71.1356	3,249.02	74.5035	3,249.02	62.6273	3,249.02	65.9539	3,249.02	73.7752	3,249.02	68.3683	3,249.02	71.4385	3,249.02	64.4399
3,363.28	84.1489	3,363.28	84.4746	3,363.28	84.6702	3,363.28	85.8851	3,363.28	85.6674	3,363.28	86.5767	3,363.28	85.7242	3,363.28	86.2793	3,363.28	84.3578	3,363.28	85.0299	3,363.28	82.4195	3,363.28	82.1655	3,363.28	80.0062	3,363.28	78.6926	3,363.28	78.6595	3,363.28	76.5653	3,363.28	77.4556	3,363.28	73.1773	3,363.28	74.6463	3,363.28	72.2721	3,363.28	73.7534	3,363.28	70.4937	3,363.28	73.437	3,363.28	68.4206	3,363.28	71.556	3,363.28	69.9598	3,363.28	65.5467	3,363.28	65.363	3,363.28	67.1804	3,363.28	69.9034	3,363.28	62.2413	3,363.28	64.7531	3,363.28	71.3615	3,363.28	65.1636	3,363.28	67.9643	3,363.28	62.1933
3,481.93	85.9856	3,481.93	85.963	3,481.93	86.4578	3,481.93	86.5967	3,481.93	86.2905	3,481.93	86.3204	3,481.93	85.4081	3,481.93	85.4781	3,481.93	83.6803	3,481.93	84.4153	3,481.93	81.6087	3,481.93	80.9848	3,481.93	78.2387	3,481.93	76.9944	3,481.93	74.9533	3,481.93	74.1694	3,481.93	74.7823	3,481.93	69.1374	3,481.93	71.0049	3,481.93	68.3014	3,481.93	70.4658	3,481.93	68.0381	3,481.93	70.286	3,481.93	64.2444	3,481.93	67.7354	3,481.93	68.8853	3,481.93	65.2018	3,481.93	61.0615	3,481.93	65.2187	3,481.93	68.4788	3,481.93	54.5477	3,481.93	65.291	3,481.93	66.7078	3,481.93	60.9359	3,481.93	61.4709	3,481.93	64.5051
3,604.98	86.8928	3,604.98	87.1819	3,604.98	86.7376	3,604.98	87.5243	3,604.98	86.2774	3,604.98	86.7271	3,604.98	84.5483	3,604.98	84.7382	3,604.98	82.0473	3,604.98	82.3158	3,604.98	78.6352	3,604.98	77.8915	3,604.98	76.116	3,604.98	71.8126	3,604.98	74.5693	3,604.98	69.4909	3,604.98	71.0548	3,604.98	63.7755	3,604.98	70.9373	3,604.98	61.3831	3,604.98	68.8788	3,604.98	67.522	3,604.98	69.7877	3,604.98	63.8134	3,604.98	68.9888	3,604.98	61.3608	3,604.98	57.2111	3,604.98	66.2351	3,604.98	68.9873	3,604.98	64.7069	3,604.98	63.0654	3,604.98	65.2269	3,604.98	61.9252	3,604.98	56.1859	3,604.98	59.9459	3,604.98	57.9519
3,732.42	88.1882	3,732.42	89.0521	3,732.42	87.2887	3,732.42	89.102	3,732.42	86.0366	3,732.42	87.8752	3,732.42	83.8888	3,732.42	85.9035	3,732.42	81.2494	3,732.42	81.5944	3,732.42	78.8217	3,732.42	76.2276	3,732.42	77.7453	3,732.42	67.1763	3,732.42	78.1474	3,732.42	61.0077	3,732.42	75.5268	3,732.42	64.7746	3,732.42	74.5642	3,732.42	65.8498	3,732.42	70.9038	3,732.42	68.8521	3,732.42	72.3288	3,732.42	70.0595	3,732.42	73.2257	3,732.42	63.9722	3,732.42	67.9883	3,732.42	63.7681	3,732.42	69.4933	3,732.42	64.3355	3,732.42	66.2084	3,732.42	67.5186	3,732.42	61.5095	3,732.42	50.6296	3,732.42	61.0805	3,732.42	56.737
3,864.26	87.2058	3,864.26	88.9801	3,864.26	86.1725	3,864.26	89.8072	3,864.26	85.6925	3,864.26	88.9215	3,864.26	84.3189	3,864.26	86.1828	3,864.26	82.6347	3,864.26	80.6072	3,864.26	81.8355	3,864.26	73.0725	3,864.26	81.5185	3,864.26	68.3689	3,864.26	80.8151	3,864.26	70.6944	3,864.26	78.9345	3,864.26	71.216	3,864.26	77.8522	3,864.26	72.0388	3,864.26	74.8121	3,864.26	70.2509	3,864.26	71.9212	3,864.26	72.4055	3,864.26	74.718	3,864.26	70.0825	3,864.26	69.8579	3,864.26	71.8642	3,864.26	69.971	3,864.26	67.4816	3,864.26	69.8177	3,864.26	68.8446	3,864.26	64.9226	3,864.26	55.3612	3,864.26	64.0992	3,864.26	64.1782
4,000.49	87.3924	4,000.49	89.2946	4,000.49	86.4359	4,000.49	90.2461	4,000.49	86.2738	4,000.49	88.8885	4,000.49	84.8897	4,000.49	85.5952	4,000.49	83.5066	4,000.49	79.2384	4,000.49	82.6688	4,000.49	70.4689	4,000.49	82.7971	4,000.49	71.9278	4,000.49	80.9057	4,000.49	73.2163	4,000.49	78.8901	4,000.49	73.268	4,000.49	77.247	4,000.49	75.3279	4,000.49	75.8686	4,000.49	72.4656	4,000.49	72.4548	4,000.49	70.3342	4,000.49	72.3089	4,000.49	71.3673	4,000.49	71.0968	4,000.49	69.8554	4,000.49	67.7634	4,000.49	67.5851	4,000.49	66.9624	4,000.49	69.437	4,000.49	66.6186	4,000.49	45.4839	4,000.49	59.1823	4,000.49	62.3919
4,141.11	88.4961	4,141.11	89.449	4,141.11	87.5931	4,141.11	89.7223	4,141.11	86.5227	4,141.11	88.0399	4,141.11	85.5502	4,141.11	83.0516	4,141.11	83.9444	4,141.11	75.3288	4,141.11	83.3677	4,141.11	74.1938	4,141.11	83.2824	4,141.11	75.4385	4,141.11	81.6907	4,141.11	75.1972	4,141.11	78.7191	4,141.11	76.0481	4,141.11	76.9746	4,141.11	73.6301	4,141.11	74.543	4,141.11	71.8151	4,141.11	71.8594	4,141.11	73.2214	4,141.11	72.7326	4,141.11	68.6199	4,141.11	71.6363	4,141.11	70.9844	4,141.11	65.8385	4,141.11	67.0827	4,141.11	63.3429	4,141.11	71.1324	4,141.11	66.27	4,141.11	61.7417	4,141.11	58.8084	4,141.11	62.9877
4,287.6	89.6298	4,287.6	90.0008	4,287.6	89.3754	4,287.6	89.4264	4,287.6	86.9058	4,287.6	87.3951	4,287.6	85.5485	4,287.6	82.6751	4,287.6	84.5787	4,287.6	78.312	4,287.6	84.1876	4,287.6	77.064	4,287.6	82.5293	4,287.6	74.8171	4,287.6	79.9446	4,287.6	75.2982	4,287.6	78.5346	4,287.6	74.4787	4,287.6	75.8543	4,287.6	74.5138	4,287.6	72.1217	4,287.6	74.2096	4,287.6	72.726	4,287.6	71.4296	4,287.6	71.7671	4,287.6	69.4747	4,287.6	68.1306	4,287.6	72.2749	4,287.6	63.7161	4,287.6	68.9078	4,287.6	53.0246	4,287.6	69.9015	4,287.6	66.4967	4,287.6	65.0961	4,287.6	59.9959	4,287.6	61.9764
4,438.48	90.7468	4,438.48	91.034	4,438.48	90.1804	4,438.48	90.3889	4,438.48	88.7067	4,438.48	88.0888	4,438.48	85.9974	4,438.48	84.9265	4,438.48	86.3527	4,438.48	82.5019	4,438.48	85.3114	4,438.48	80.7821	4,438.48	81.8671	4,438.48	77.8245	4,438.48	77.6158	4,438.48	75.3842	4,438.48	76.6989	4,438.48	73.0101	4,438.48	73.5578	4,438.48	73.1077	4,438.48	71.5292	4,438.48	71.0903	4,438.48	70.9321	4,438.48	70.3327	4,438.48	66.8961	4,438.48	69.2135	4,438.48	68.4105	4,438.48	69.4122	4,438.48	64.2978	4,438.48	71.4094	4,438.48	51.7682	4,438.48	69.9192	4,438.48	68.6698	4,438.48	65.8324	4,438.48	63.144	4,438.48	63.7441
4,595.21	92.2239	4,595.21	92.8592	4,595.21	90.326	4,595.21	92.0721	4,595.21	89.0808	4,595.21	90.0805	4,595.21	86.3345	4,595.21	85.7616	4,595.21	83.0165	4,595.21	81.3944	4,595.21	80.0867	4,595.21	75.9556	4,595.21	76.334	4,595.21	70.0695	4,595.21	72.8504	4,595.21	66.7387	4,595.21	70.2624	4,595.21	67.5821	4,595.21	67.9645	4,595.21	52.8999	4,595.21	69.0755	4,595.21	66.9532	4,595.21	65.8343	4,595.21	67.6697	4,595.21	68.0964	4,595.21	63.592	4,595.21	57.1508	4,595.21	68.5512	4,595.21	57.5259	4,595.21	68.1268	4,595.21	60.5523	4,595.21	64.7683	4,595.21	67.3756	4,595.21	69.175	4,595.21	59.4902	4,595.21	58.8827
4,756.35	91.1013	4,756.35	92.0976	4,756.35	89.2515	4,756.35	90.9853	4,756.35	85.7988	4,756.35	87.9718	4,756.35	83.3453	4,756.35	80.5804	4,756.35	80.6717	4,756.35	72.0228	4,756.35	80.1493	4,756.35	75.3044	4,756.35	78.1895	4,756.35	77.6054	4,756.35	75.9047	4,756.35	77.307	4,756.35	72.0439	4,756.35	75.2685	4,756.35	62.996	4,756.35	73.7581	4,756.35	62.9012	4,756.35	70.0067	4,756.35	51.4239	4,756.35	70.3051	4,756.35	38.2319	4,756.35	65.9991	4,756.35	57.9407	4,756.35	66.4915	4,756.35	58.9214	4,756.35	71.4581	4,756.35	60.7286	4,756.35	70.7365	4,756.35	55.7764	4,756.35	69.1505	4,756.35	54.9307	4,756.35	61.6978
4,924.8	91.8353	4,924.8	92.0028	4,924.8	90.1728	4,924.8	91.0899	4,924.8	86.9184	4,924.8	88.4213	4,924.8	84.2589	4,924.8	85.3947	4,924.8	85.8688	4,924.8	82.5653	4,924.8	85.3058	4,924.8	79.5294	4,924.8	82.5915	4,924.8	79.6975	4,924.8	78.8039	4,924.8	78.0671	4,924.8	77.0608	4,924.8	75.1653	4,924.8	70.4598	4,924.8	73.173	4,924.8	69.3515	4,924.8	73.4792	4,924.8	67.0697	4,924.8	71.5504	4,924.8	66.9445	4,924.8	68.1465	4,924.8	62.4927	4,924.8	69.8066	4,924.8	67.3823	4,924.8	72.6511	4,924.8	59.4488	4,924.8	71.6066	4,924.8	68.278	4,924.8	68.9859	4,924.8	56.2753	4,924.8	65.3405
5,097.66	91.056	5,097.66	91.9315	5,097.66	88.4133	5,097.66	91.5522	5,097.66	87.8354	5,097.66	90.0156	5,097.66	84.9392	5,097.66	86.4583	5,097.66	85.0052	5,097.66	81.4103	5,097.66	85.0653	5,097.66	76.2223	5,097.66	83.2126	5,097.66	72.379	5,097.66	80.0879	5,097.66	73.5649	5,097.66	78.8422	5,097.66	71.9249	5,097.66	74.4867	5,097.66	71.8903	5,097.66	74.0986	5,097.66	67.5958	5,097.66	71.4865	5,097.66	69.7991	5,097.66	71.0138	5,097.66	66.8501	5,097.66	63.0485	5,097.66	68.1278	5,097.66	69.3583	5,097.66	66.6471	5,097.66	67.6791	5,097.66	67.2698	5,097.66	69.9145	5,097.66	71.2313	5,097.66	68.0355	5,097.66	63.8086
5,277.83	90.6855	5,277.83	91.5129	5,277.83	89.8307	5,277.83	91.1033	5,277.83	86.2498	5,277.83	89.631	5,277.83	83.0308	5,277.83	84.8648	5,277.83	76.9002	5,277.83	75.2032	5,277.83	77.1034	5,277.83	62.8195	5,277.83	79.6199	5,277.83	72.679	5,277.83	78.9313	5,277.83	72.4168	5,277.83	76.998	5,277.83	71.5757	5,277.83	75.888	5,277.83	64.2824	5,277.83	73.984	5,277.83	66.6871	5,277.83	71.7796	5,277.83	66.91	5,277.83	69.5849	5,277.83	64.2414	5,277.83	66.426	5,277.83	67.4327	5,277.83	68.4731	5,277.83	66.9237	5,277.83	69.3353	5,277.83	67.5861	5,277.83	69.3428	5,277.83	66.8076	5,277.83	65.8862	5,277.83	61.9935
5,463.87	92.495	5,463.87	93.0321	5,463.87	91.2767	5,463.87	92.4441	5,463.87	86.8717	5,463.87	89.8712	5,463.87	79.5056	5,463.87	84.1579	5,463.87	71.18	5,463.87	72.7132	5,463.87	70.3858	5,463.87	70.4642	5,463.87	74.3203	5,463.87	74.9484	5,463.87	74.7015	5,463.87	73.0463	5,463.87	72.7267	5,463.87	72.7841	5,463.87	72.2968	5,463.87	71.5908	5,463.87	68.2888	5,463.87	68.2783	5,463.87	66.7648	5,463.87	67.7015	5,463.87	64.6541	5,463.87	65.5635	5,463.87	64.2786	5,463.87	67.4764	5,463.87	60.8159	5,463.87	69.9956	5,463.87	65.3548	5,463.87	69.1352	5,463.87	63.1896	5,463.87	65.7154	5,463.87	62.8616	5,463.87	62.7138
5,657.23	90.8041	5,657.23	91.6813	5,657.23	87.7343	5,657.23	90.9156	5,657.23	80.8383	5,657.23	87.5039	5,657.23	65.5872	5,657.23	79.2353	5,657.23	63.7954	5,657.23	71.0725	5,657.23	70.8767	5,657.23	76.8218	5,657.23	71.2129	5,657.23	75.4619	5,657.23	70.0957	5,657.23	75.0082	5,657.23	71.1518	5,657.23	72.9941	5,657.23	59.8659	5,657.23	72.5343	5,657.23	64.416	5,657.23	69.6577	5,657.23	62.627	5,657.23	65.1458	5,657.23	60.933	5,657.23	62.351	5,657.23	62.8741	5,657.23	66.5973	5,657.23	60.4779	5,657.23	67.966	5,657.23	60.9626	5,657.23	67.7684	5,657.23	62.047	5,657.23	65.8232	5,657.23	56.7585	5,657.23	57.6524
5,856.45	87.2223	5,856.45	88.7773	5,856.45	82.1261	5,856.45	88.5692	5,856.45	61.6646	5,856.45	84.9018	5,856.45	73.8353	5,856.45	73.9652	5,856.45	68.6744	5,856.45	75.7801	5,856.45	74.5368	5,856.45	77.5211	5,856.45	77.2689	5,856.45	76.8939	5,856.45	76.7812	5,856.45	74.4437	5,856.45	71.7999	5,856.45	71.4016	5,856.45	70.0366	5,856.45	68.9038	5,856.45	68.44	5,856.45	66.7134	5,856.45	67.0752	5,856.45	63.8006	5,856.45	60.777	5,856.45	63.1866	5,856.45	62.8633	5,856.45	50.8616	5,856.45	57.8297	5,856.45	63.9455	5,856.45	63.2667	5,856.45	63.9851	5,856.45	63.2025	5,856.45	64.3985	5,856.45	60.6478	5,856.45	54.167
6,062.99	85.2522	6,062.99	87.8499	6,062.99	79.6448	6,062.99	87.6206	6,062.99	68.6753	6,062.99	83.8919	6,062.99	71.8088	6,062.99	73.997	6,062.99	70.8988	6,062.99	76.4535	6,062.99	76.4598	6,062.99	77.6762	6,062.99	79.3281	6,062.99	76.3628	6,062.99	77.4694	6,062.99	70.3909	6,062.99	74.6094	6,062.99	67.9576	6,062.99	70.8582	6,062.99	65.7937	6,062.99	70.3378	6,062.99	63.8633	6,062.99	65.0336	6,062.99	63.3734	6,062.99	64.4357	6,062.99	62.1471	6,062.99	65.6287	6,062.99	62.0711	6,062.99	59.5765	6,062.99	63.5766	6,062.99	63.0154	6,062.99	64.1947	6,062.99	66.5154	6,062.99	63.8901	6,062.99	59.4271	6,062.99	57.0983
6,276.86	86.4808	6,276.86	88.8614	6,276.86	79.3978	6,276.86	88.1105	6,276.86	63.7719	6,276.86	83.3644	6,276.86	71.0659	6,276.86	72.0976	6,276.86	73.1406	6,276.86	76.9935	6,276.86	79.3566	6,276.86	77.2764	6,276.86	79.2278	6,276.86	72.3765	6,276.86	76.0521	6,276.86	71.5919	6,276.86	73.0276	6,276.86	69.6336	6,276.86	69.8289	6,276.86	70.4583	6,276.86	67.7577	6,276.86	67.5677	6,276.86	66.0018	6,276.86	68.3746	6,276.86	65.8587	6,276.86	62.6481	6,276.86	59.3104	6,276.86	64.1294	6,276.86	45.4927	6,276.86	57.6238	6,276.86	60.27	6,276.86	64.9233	6,276.86	64.8639	6,276.86	63.7699	6,276.86	59.4405	6,276.86	55.0085
6,498.05	86.8714	6,498.05	89.3654	6,498.05	79.0941	6,498.05	88.4747	6,498.05	72.0384	6,498.05	82.1471	6,498.05	71.2291	6,498.05	75.7206	6,498.05	72.7613	6,498.05	80.3892	6,498.05	79.9189	6,498.05	78.1593	6,498.05	77.8726	6,498.05	74.956	6,498.05	75.0846	6,498.05	72.8794	6,498.05	69.1519	6,498.05	70.0137	6,498.05	67.4858	6,498.05	68.8744	6,498.05	64.9097	6,498.05	68.5191	6,498.05	65.2362	6,498.05	67.8383	6,498.05	64.5232	6,498.05	65.9659	6,498.05	63.9543	6,498.05	62.7445	6,498.05	56.9817	6,498.05	57.727	6,498.05	54.0733	6,498.05	62.2321	6,498.05	59.5281	6,498.05	63.5539	6,498.05	56.1116	6,498.05	56.3755
6,726.56	87.2979	6,726.56	89.624	6,726.56	79.2816	6,726.56	88.4098	6,726.56	69.8485	6,726.56	80.1531	6,726.56	71.981	6,726.56	78.2424	6,726.56	77.9684	6,726.56	80.6542	6,726.56	80.0635	6,726.56	79.1038	6,726.56	77.7729	6,726.56	77.8618	6,726.56	72.3968	6,726.56	75.1525	6,726.56	69.848	6,726.56	72.0937	6,726.56	68.2043	6,726.56	69.9001	6,726.56	66.1664	6,726.56	69.4292	6,726.56	67.6101	6,726.56	67.9242	6,726.56	59.922	6,726.56	67.8067	6,726.56	69.195	6,726.56	64.9099	6,726.56	54.3829	6,726.56	58.9842	6,726.56	48.0829	6,726.56	63.6869	6,726.56	59.2528	6,726.56	60.4142	6,726.56	56.8692	6,726.56	60.9216
6,963.87	85.2643	6,963.87	89.4495	6,963.87	74.2138	6,963.87	88.2127	6,963.87	79.4531	6,963.87	81.2272	6,963.87	80.2484	6,963.87	81.8358	6,963.87	79.5487	6,963.87	82.0202	6,963.87	75.3172	6,963.87	81.3066	6,963.87	73.0523	6,963.87	78.6461	6,963.87	73.3435	6,963.87	74.2489	6,963.87	72.2952	6,963.87	72.8192	6,963.87	70.3633	6,963.87	70.1407	6,963.87	66.3573	6,963.87	68.0421	6,963.87	63.7391	6,963.87	65.2809	6,963.87	66.987	6,963.87	68.0205	6,963.87	69.3465	6,963.87	65.6354	6,963.87	65.5145	6,963.87	54.1738	6,963.87	64.9408	6,963.87	65.1474	6,963.87	60.5646	6,963.87	58.7891	6,963.87	57.8401	6,963.87	58.701
7,209.96	83.8202	7,209.96	89.85	7,209.96	74.9107	7,209.96	88.126	7,209.96	84.6892	7,209.96	81.0992	7,209.96	81.5534	7,209.96	83.0018	7,209.96	78.3238	7,209.96	83.363	7,209.96	77.2768	7,209.96	80.2005	7,209.96	77.1814	7,209.96	77.5079	7,209.96	75.9423	7,209.96	74.1856	7,209.96	72.5212	7,209.96	70.923	7,209.96	70.7019	7,209.96	66.622	7,209.96	68.0787	7,209.96	58.635	7,209.96	67.5468	7,209.96	62.8769	7,209.96	63.8473	7,209.96	62.9037	7,209.96	66.7005	7,209.96	59.826	7,209.96	68.5425	7,209.96	42.4717	7,209.96	62.6558	7,209.96	57.5297	7,209.96	55.0785	7,209.96	61.3317	7,209.96	54.9016	7,209.96	51.1499
7,464.84	85.588	7,464.84	91.1539	7,464.84	80.9488	7,464.84	88.2329	7,464.84	86.2563	7,464.84	81.4796	7,464.84	82.5507	7,464.84	83.0252	7,464.84	77.0741	7,464.84	81.5786	7,464.84	79.253	7,464.84	78.351	7,464.84	79.8783	7,464.84	75.6585	7,464.84	78.254	7,464.84	71.4676	7,464.84	73.5846	7,464.84	65.0358	7,464.84	72.0156	7,464.84	63.3664	7,464.84	70.8194	7,464.84	63.225	7,464.84	67.2444	7,464.84	61.6331	7,464.84	68.2727	7,464.84	58.1289	7,464.84	61.7861	7,464.84	62.2074	7,464.84	65.9462	7,464.84	47.7649	7,464.84	64.316	7,464.84	55.5969	7,464.84	62.7049	7,464.84	61.7389	7,464.84	54.3211	7,464.84	59.9841
7,727.05	88.5733	7,727.05	92.4668	7,727.05	84.1042	7,727.05	88.0153	7,727.05	87.3859	7,727.05	83.3622	7,727.05	84.0248	7,727.05	83.514	7,727.05	81.1324	7,727.05	80.8331	7,727.05	83.1925	7,727.05	77.6645	7,727.05	82.0656	7,727.05	75.339	7,727.05	79.4021	7,727.05	73.8069	7,727.05	75.2311	7,727.05	68.4545	7,727.05	74.1516	7,727.05	66.3924	7,727.05	69.5759	7,727.05	62.7668	7,727.05	69.7191	7,727.05	62.4099	7,727.05	68.8329	7,727.05	62.6703	7,727.05	62.3125	7,727.05	63.87	7,727.05	65.7102	7,727.05	47.1552	7,727.05	65.9776	7,727.05	57.3817	7,727.05	63.7627	7,727.05	60.3114	7,727.05	59.1696	7,727.05	63.0641
7,999.51	90.1128	7,999.51	93.2553	7,999.51	85.5409	7,999.51	88.2633	7,999.51	88.9574	7,999.51	86.3018	7,999.51	85.1864	7,999.51	85.4826	7,999.51	83.7046	7,999.51	83.5691	7,999.51	84.7788	7,999.51	81.6246	7,999.51	81.5575	7,999.51	79.9851	7,999.51	78.321	7,999.51	77.8651	7,999.51	75.9374	7,999.51	75.2672	7,999.51	73.9298	7,999.51	73.2435	7,999.51	71.7565	7,999.51	69.1788	7,999.51	71.4435	7,999.51	70.024	7,999.51	66.1391	7,999.51	69.6358	7,999.51	69.2641	7,999.51	66.3929	7,999.51	67.5069	7,999.51	58.7561	7,999.51	66.7288	7,999.51	61.2374	7,999.51	57.7616	7,999.51	63.6911	7,999.51	63.6598	7,999.51	64.0687
8,282.23	92.2079	8,282.23	93.5964	8,282.23	88.7174	8,282.23	87.2985	8,282.23	91.7793	8,282.23	88.8556	8,282.23	88.0811	8,282.23	87.0385	8,282.23	86.3425	8,282.23	84.037	8,282.23	84.8983	8,282.23	84.9234	8,282.23	83.0121	8,282.23	85.3631	8,282.23	82.8168	8,282.23	82.4981	8,282.23	82.0072	8,282.23	79.0605	8,282.23	78.4903	8,282.23	77.3144	8,282.23	75.0602	8,282.23	73.8481	8,282.23	71.9604	8,282.23	74.6661	8,282.23	72.6115	8,282.23	72.2729	8,282.23	71.5329	8,282.23	72.2649	8,282.23	66.8903	8,282.23	66.0392	8,282.23	70.6245	8,282.23	66.8822	8,282.23	67.2076	8,282.23	66.9177	8,282.23	68.859	8,282.23	68.9333
8,573.73	92.4604	8,573.73	91.0344	8,573.73	88.181	8,573.73	84.1648	8,573.73	90.7988	8,573.73	88.0524	8,573.73	87.1276	8,573.73	85.8082	8,573.73	84.8266	8,573.73	81.5149	8,573.73	83.1733	8,573.73	85.6043	8,573.73	85.6371	8,573.73	85.9342	8,573.73	85.2422	8,573.73	82.4554	8,573.73	80.5499	8,573.73	78.8615	8,573.73	77.4079	8,573.73	76.5949	8,573.73	73.0367	8,573.73	74.412	8,573.73	71.3732	8,573.73	72.4065	8,573.73	70.0612	8,573.73	70.6066	8,573.73	60.7305	8,573.73	71.8796	8,573.73	65.8865	8,573.73	66.2163	8,573.73	69.5929	8,573.73	67.0819	8,573.73	64.5141	8,573.73	67.0315	8,573.73	67.582	8,573.73	67.1429
8,876.95	91.7754	8,876.95	88.8848	8,876.95	86.5707	8,876.95	81.5327	8,876.95	89.0566	8,876.95	86.8613	8,876.95	86.17	8,876.95	83.2999	8,876.95	81.3768	8,876.95	79.4456	8,876.95	83.7681	8,876.95	85.5918	8,876.95	85.8944	8,876.95	85.3316	8,876.95	83.4344	8,876.95	81.3674	8,876.95	77.4042	8,876.95	78.1288	8,876.95	72.5842	8,876.95	75.379	8,876.95	67.1733	8,876.95	72.9555	8,876.95	66.7316	8,876.95	71.976	8,876.95	63.5106	8,876.95	68.1032	8,876.95	66.2402	8,876.95	69.4268	8,876.95	65.0373	8,876.95	66.224	8,876.95	63.2576	8,876.95	65.78	8,876.95	50.6705	8,876.95	64.4662	8,876.95	63.4388	8,876.95	63.0254
9,188.96	90.4873	9,188.96	85.9777	9,188.96	83.9087	9,188.96	81.8582	9,188.96	86.4334	9,188.96	85.4684	9,188.96	84.9445	9,188.96	80.4907	9,188.96	74.9432	9,188.96	80.8125	9,188.96	84.1831	9,188.96	85.349	9,188.96	83.5008	9,188.96	83.7972	9,188.96	79.4401	9,188.96	79.3639	9,188.96	72.5574	9,188.96	75.2565	9,188.96	67.007	9,188.96	70.9821	9,188.96	66.3742	9,188.96	68.0746	9,188.96	65.7953	9,188.96	68.9071	9,188.96	63.2311	9,188.96	63.3018	9,188.96	58.169	9,188.96	64.7477	9,188.96	63.2172	9,188.96	58.7341	9,188.96	65.1001	9,188.96	61.3522	9,188.96	53.6181	9,188.96	60.8076	9,188.96	60.0094	9,188.96	56.8466
9,514.16	88.5736	9,514.16	81.484	9,514.16	81.1131	9,514.16	80.3125	9,514.16	84.1308	9,514.16	83.9509	9,514.16	82.1801	9,514.16	71.5005	9,514.16	74.9433	9,514.16	81.2819	9,514.16	82.4244	9,514.16	82.2853	9,514.16	81.3594	9,514.16	78.6636	9,514.16	76.2614	9,514.16	71.3578	9,514.16	71.7669	9,514.16	64.601	9,514.16	65.9642	9,514.16	63.0008	9,514.16	63.4402	9,514.16	57.5054	9,514.16	60.9403	9,514.16	62.2085	9,514.16	59.0435	9,514.16	54.3338	9,514.16	57.4868	9,514.16	46.452	9,514.16	61.305	9,514.16	51.7917	9,514.16	62.1095	9,514.16	56.1463	9,514.16	29.5903	9,514.16	58.9839	9,514.16	58.7145	9,514.16	55.5898
9,849.61	86.6997	9,849.61	79.2712	9,849.61	77.1418	9,849.61	79.5435	9,849.61	81.8381	9,849.61	82.4465	9,849.61	78.8801	9,849.61	63.3464	9,849.61	71.2379	9,849.61	80.6054	9,849.61	80.5242	9,849.61	78.9964	9,849.61	79.2389	9,849.61	71.8062	9,849.61	74.2501	9,849.61	64.9876	9,849.61	69.5658	9,849.61	50.1273	9,849.61	62.2041	9,849.61	55.091	9,849.61	56.3419	9,849.61	57.5849	9,849.61	55.3103	9,849.61	56.1572	9,849.61	56.0956	9,849.61	52.3179	9,849.61	48.6984	9,849.61	53.8623	9,849.61	53.7111	9,849.61	53.8296	9,849.61	52.3926	9,849.61	57.3866	9,849.61	54.9515	9,849.61	50.0879	9,849.61	53.6599	9,849.61	54.029
10,196.8	85.2261	10,196.8	76.8717	10,196.8	72.4028	10,196.8	80.912	10,196.8	79.2352	10,196.8	80.8333	10,196.8	73.0762	10,196.8	71.5088	10,196.8	70.1399	10,196.8	80.305	10,196.8	78.008	10,196.8	75.6309	10,196.8	75.8066	10,196.8	68.8615	10,196.8	71.3546	10,196.8	59.3258	10,196.8	67.394	10,196.8	59.6587	10,196.8	60.3724	10,196.8	54.2092	10,196.8	56.5061	10,196.8	44.2564	10,196.8	51.7855	10,196.8	58.6028	10,196.8	54.5025	10,196.8	58.9245	10,196.8	51.3538	10,196.8	48.9586	10,196.8	44.5269	10,196.8	56.1588	10,196.8	47.3461	10,196.8	61.3378	10,196.8	59.1795	10,196.8	46.8671	10,196.8	45.8525	10,196.8	54.5941
10,555.7	84.1228	10,555.7	75.7016	10,555.7	69.267	10,555.7	79.8349	10,555.7	77.529	10,555.7	78.3572	10,555.7	73.4596	10,555.7	75.4404	10,555.7	76.6065	10,555.7	79.7176	10,555.7	77.1985	10,555.7	72.7003	10,555.7	70.6358	10,555.7	66.0728	10,555.7	66.3016	10,555.7	61.9941	10,555.7	59.7152	10,555.7	64.2963	10,555.7	55.0499	10,555.7	57.6009	10,555.7	51.9451	10,555.7	59.7516	10,555.7	48.2686	10,555.7	61.3343	10,555.7	52.8815	10,555.7	60.7207	10,555.7	59.4025	10,555.7	57.3486	10,555.7	45.5342	10,555.7	56.988	10,555.7	52.0466	10,555.7	60.5626	10,555.7	59.4842	10,555.7	53.9368	10,555.7	54.7878	10,555.7	53.3673
10,927.7	82.8475	10,927.7	75.3563	10,927.7	75.6513	10,927.7	77.6846	10,927.7	74.0709	10,927.7	76.9763	10,927.7	73.5233	10,927.7	76.3597	10,927.7	78.3471	10,927.7	76.287	10,927.7	75.3977	10,927.7	61.5448	10,927.7	67.9601	10,927.7	72.6676	10,927.7	66.2119	10,927.7	61.6893	10,927.7	59.7968	10,927.7	64.2883	10,927.7	50.9489	10,927.7	57.6644	10,927.7	58.169	10,927.7	62.6062	10,927.7	59.2351	10,927.7	59.8147	10,927.7	48.5529	10,927.7	60.8175	10,927.7	62.8717	10,927.7	51.2975	10,927.7	54.5253	10,927.7	59.7634	10,927.7	56.3473	10,927.7	60.1547	10,927.7	58.3682	10,927.7	53.2921	10,927.7	58.8984	10,927.7	51.8127
11,313	82.5924	11,313	78.8411	11,313	76.6919	11,313	77.902	11,313	79.6012	11,313	78.3978	11,313	73.7239	11,313	74.3542	11,313	80.6144	11,313	74.3814	11,313	72.3073	11,313	60.0388	11,313	63.0863	11,313	72.3386	11,313	52.2802	11,313	60.8083	11,313	61.8255	11,313	54.581	11,313	58.617	11,313	57.3947	11,313	64.0394	11,313	58.413	11,313	58.0399	11,313	58.0029	11,313	52.337	11,313	55.2349	11,313	64.6864	11,313	56.9376	11,313	59.5219	11,313	58.5159	11,313	57.4447	11,313	55.5402	11,313	59.9642	11,313	45.8193	11,313	51.6103	11,313	54.8853
11,712.9	83.4519	11,712.9	72.4328	11,712.9	72.5378	11,712.9	79.9751	11,712.9	78.3845	11,712.9	77.1917	11,712.9	69.8244	11,712.9	76.6473	11,712.9	79.8048	11,712.9	68.3289	11,712.9	70.1139	11,712.9	70.8581	11,712.9	61.722	11,712.9	70.2808	11,712.9	66.944	11,712.9	65.2083	11,712.9	68.217	11,712.9	63.9522	11,712.9	64.7059	11,712.9	64.2751	11,712.9	65.0036	11,712.9	56.9794	11,712.9	54.3586	11,712.9	54.0882	11,712.9	59.9489	11,712.9	61.9995	11,712.9	66.841	11,712.9	53.2974	11,712.9	61.1038	11,712.9	60.7501	11,712.9	60.2831	11,712.9	60.8832	11,712.9	62.9023	11,712.9	52.3565	11,712.9	50.9595	11,712.9	56.6152
12,126	79.8023	12,126	75.5276	12,126	79.3196	12,126	79.5347	12,126	79.7687	12,126	60.881	12,126	72.1169	12,126	75.8329	12,126	79.9759	12,126	72.687	12,126	66.8173	12,126	63.4939	12,126	63.7641	12,126	69.3207	12,126	75.243	12,126	70.1839	12,126	72.7743	12,126	67.189	12,126	69.8996	12,126	63.9452	12,126	64.919	12,126	63.805	12,126	60.8444	12,126	58.0738	12,126	64.0691	12,126	61.7495	12,126	67.2413	12,126	58.9459	12,126	62.6486	12,126	49.4333	12,126	57.6801	12,126	64.2438	12,126	62.3986	12,126	54.6378	12,126	48.4112	12,126	59.5927
12,553.7	69.844	12,553.7	80.2955	12,553.7	81.8274	12,553.7	76.1896	12,553.7	77.8616	12,553.7	72.293	12,553.7	74.7361	12,553.7	74.632	12,553.7	79.5154	12,553.7	66.7028	12,553.7	70.5171	12,553.7	73.2761	12,553.7	71.7811	12,553.7	75.4238	12,553.7	76.514	12,553.7	69.0895	12,553.7	72.9732	12,553.7	62.2598	12,553.7	70.2977	12,553.7	56.7689	12,553.7	66.6411	12,553.7	57.2147	12,553.7	61.7931	12,553.7	45.368	12,553.7	64.6735	12,553.7	48.6784	12,553.7	66.2002	12,553.7	53.3264	12,553.7	60.8264	12,553.7	51.5972	12,553.7	59.3206	12,553.7	58.6904	12,553.7	59.8952	12,553.7	53.0128	12,553.7	55.8351	12,553.7	57.4126
12,996.1	74.6628	12,996.1	80.1644	12,996.1	83.0595	12,996.1	77.4026	12,996.1	75.908	12,996.1	74.9667	12,996.1	75.5792	12,996.1	75.5992	12,996.1	78.7099	12,996.1	65.9772	12,996.1	70.2624	12,996.1	74.6913	12,996.1	71.4181	12,996.1	69.9793	12,996.1	77.5785	12,996.1	55.1334	12,996.1	74.0622	12,996.1	62.5861	12,996.1	70.6408	12,996.1	57.9591	12,996.1	67.7495	12,996.1	50.6734	12,996.1	61.0995	12,996.1	58.5086	12,996.1	64.597	12,996.1	59.438	12,996.1	66.5729	12,996.1	54.923	12,996.1	59.6559	12,996.1	51.0416	12,996.1	59.4213	12,996.1	52.1896	12,996.1	57.9637	12,996.1	41.8959	12,996.1	50.5287	12,996.1	52.9121
13,454.6	79.4351	13,454.6	80.075	13,454.6	83.6026	13,454.6	78.5288	13,454.6	74.7034	13,454.6	72.8301	13,454.6	77.2487	13,454.6	76.1577	13,454.6	75.4226	13,454.6	75.4652	13,454.6	70.8338	13,454.6	69.5641	13,454.6	75.8879	13,454.6	67.133	13,454.6	78.7166	13,454.6	66.9401	13,454.6	74.997	13,454.6	66.4157	13,454.6	69.8721	13,454.6	60.8617	13,454.6	66.7651	13,454.6	59.9329	13,454.6	60.5625	13,454.6	60.7477	13,454.6	63.4937	13,454.6	57.603	13,454.6	62.9707	13,454.6	57.6123	13,454.6	57.0112	13,454.6	53.4135	13,454.6	56.1209	13,454.6	54.6814	13,454.6	55.5502	13,454.6	50.142	13,454.6	53.0031	13,454.6	52.3267
13,929.2	81.6616	13,929.2	78.9805	13,929.2	82.8529	13,929.2	79.6278	13,929.2	75.1877	13,929.2	72.3769	13,929.2	77.5926	13,929.2	73.23	13,929.2	75.5199	13,929.2	74.4773	13,929.2	67.9675	13,929.2	70.0993	13,929.2	77.7897	13,929.2	68.3704	13,929.2	77.9256	13,929.2	59.113	13,929.2	72.4128	13,929.2	61.7612	13,929.2	66.3342	13,929.2	60.1839	13,929.2	62.6093	13,929.2	57.6984	13,929.2	57.445	13,929.2	56.9442	13,929.2	58.9549	13,929.2	56.3901	13,929.2	57.7176	13,929.2	55.4789	13,929.2	49.2374	13,929.2	51.0446	13,929.2	49.9616	13,929.2	49.3254	13,929.2	50.9142	13,929.2	50.4318	13,929.2	49.6141	13,929.2	39.6767
14,419.9	83.1319	14,419.9	73.8858	14,419.9	82.0621	14,419.9	81.0252	14,419.9	74.5161	14,419.9	74.1555	14,419.9	76.4219	14,419.9	69.2181	14,419.9	75.6079	14,419.9	74.3249	14,419.9	69.7586	14,419.9	67.2798	14,419.9	76.8381	14,419.9	67.8994	14,419.9	75.1617	14,419.9	67.1601	14,419.9	69.8567	14,419.9	65.3974	14,419.9	63.2722	14,419.9	62.2739	14,419.9	62.4898	14,419.9	57.4564	14,419.9	55.0024	14,419.9	57.6054	14,419.9	58.7671	14,419.9	60.4859	14,419.9	57.7901	14,419.9	57.0091	14,419.9	48.4463	14,419.9	50.4477	14,419.9	47.3515	14,419.9	56.7156	14,419.9	48.6633	14,419.9	48.5978	14,419.9	38.3431	14,419.9	46.1245
14,928.2	81.6762	14,928.2	62.0093	14,928.2	79.9141	14,928.2	78.0238	14,928.2	73.6526	14,928.2	74.3613	14,928.2	77.4189	14,928.2	68.8642	14,928.2	75.2941	14,928.2	73.7514	14,928.2	72.0897	14,928.2	65.3169	14,928.2	74.1239	14,928.2	70.8463	14,928.2	72.7865	14,928.2	67.6597	14,928.2	66.6339	14,928.2	62.3763	14,928.2	64.1151	14,928.2	61.2256	14,928.2	61.825	14,928.2	56.8338	14,928.2	56.4484	14,928.2	56.7542	14,928.2	60.4425	14,928.2	59.4466	14,928.2	57.6562	14,928.2	56.3652	14,928.2	46.5273	14,928.2	50.1875	14,928.2	45.3397	14,928.2	55.6012	14,928.2	50.1315	14,928.2	48.4082	14,928.2	39.5385	14,928.2	40.3249
15,455.6	80.0288	15,455.6	68.2743	15,455.6	77.2153	15,455.6	75.4485	15,455.6	72.6987	15,455.6	73.7854	15,455.6	79.2676	15,455.6	73.9356	15,455.6	75.0477	15,455.6	73.0928	15,455.6	73.7713	15,455.6	70.3798	15,455.6	73.6193	15,455.6	67.7486	15,455.6	72.9249	15,455.6	56.8451	15,455.6	67.4266	15,455.6	52.6494	15,455.6	63.6825	15,455.6	52.4221	15,455.6	61.3418	15,455.6	53.9669	15,455.6	55.3514	15,455.6	59.0632	15,455.6	58.6999	15,455.6	54.8789	15,455.6	57.2851	15,455.6	51.3345	15,455.6	45.0979	15,455.6	48.299	15,455.6	48.1295	15,455.6	51.305	15,455.6	50.7027	15,455.6	44.7532	15,455.6	43.2993	15,455.6	39.2532
16,000.5	77.8522	16,000.5	68.4585	16,000.5	76.4303	16,000.5	73.4094	16,000.5	71.9109	16,000.5	73.8987	16,000.5	79.674	16,000.5	75.6316	16,000.5	75.1372	16,000.5	68.8323	16,000.5	74.4843	16,000.5	70.3743	16,000.5	72.0816	16,000.5	64.2178	16,000.5	72.9823	16,000.5	66.1452	16,000.5	70.3608	16,000.5	64.0622	16,000.5	65.3818	16,000.5	56.9991	16,000.5	61.3192	16,000.5	49.3724	16,000.5	57.635	16,000.5	61.6003	16,000.5	58.2064	16,000.5	57.6166	16,000.5	53.5144	16,000.5	54.5848	16,000.5	38.7425	16,000.5	43.9387	16,000.5	44.1239	16,000.5	50.6194	16,000.5	45.5419	16,000.5	42.203	16,000.5	38.1544	16,000.5	36.9238
16,564.5	77.5675	16,564.5	72.7528	16,564.5	76.5305	16,564.5	69.0645	16,564.5	71.8525	16,564.5	72.268	16,564.5	79.2961	16,564.5	74.7524	16,564.5	73.8358	16,564.5	68.5486	16,564.5	74.3014	16,564.5	67.671	16,564.5	71.8143	16,564.5	66.9025	16,564.5	72.0643	16,564.5	61.9468	16,564.5	68.7525	16,564.5	59.1596	16,564.5	64.3758	16,564.5	45.4867	16,564.5	58.9315	16,564.5	55.0464	16,564.5	57.8648	16,564.5	54.9804	16,564.5	56.6562	16,564.5	56.7362	16,564.5	47.4832	16,564.5	48.78	16,564.5	47.8061	16,564.5	41.8766	16,564.5	35.2945	16,564.5	48.5604	16,564.5	47.7802	16,564.5	46.8894	16,564.5	30.9937	16,564.5	42.2088
17,148.9	77.3115	17,148.9	75.5023	17,148.9	77.0768	17,148.9	71.5727	17,148.9	73.0187	17,148.9	73.322	17,148.9	78.8481	17,148.9	71.2485	17,148.9	74.0074	17,148.9	69.6567	17,148.9	72.9075	17,148.9	69.7092	17,148.9	70.9208	17,148.9	62.1684	17,148.9	71.7527	17,148.9	60.6794	17,148.9	68.6832	17,148.9	61.8798	17,148.9	63.2993	17,148.9	57.1418	17,148.9	59.6162	17,148.9	59.4314	17,148.9	56.9783	17,148.9	53.0526	17,148.9	53.1294	17,148.9	58.5491	17,148.9	52.4465	17,148.9	50.4324	17,148.9	51.1678	17,148.9	50.5278	17,148.9	46.2325	17,148.9	50.6576	17,148.9	51.8795	17,148.9	45.1097	17,148.9	36.5769	17,148.9	40.3149
17,752.4	77.3688	17,752.4	75.7948	17,752.4	78.0778	17,752.4	72.172	17,752.4	74.215	17,752.4	73.5222	17,752.4	78.4785	17,752.4	68.6277	17,752.4	74.2228	17,752.4	71.8085	17,752.4	72.7748	17,752.4	65.0537	17,752.4	69.7726	17,752.4	66.5163	17,752.4	70.5228	17,752.4	54.8796	17,752.4	67.9266	17,752.4	55.7582	17,752.4	58.5288	17,752.4	45.2253	17,752.4	57.0761	17,752.4	55.6494	17,752.4	52.0667	17,752.4	49.2042	17,752.4	47.8244	17,752.4	60.0038	17,752.4	50.5106	17,752.4	51.3943	17,752.4	50.4605	17,752.4	51.2548	17,752.4	51.0989	17,752.4	36.9606	17,752.4	49.3784	17,752.4	41.9343	17,752.4	44.6767	17,752.4	36.615
18,379.4	78.7264	18,379.4	76.5857	18,379.4	78.6641	18,379.4	73.4167	18,379.4	74.3852	18,379.4	72.2856	18,379.4	76.4039	18,379.4	70.2589	18,379.4	74.1097	18,379.4	72.2935	18,379.4	70.3443	18,379.4	68.4399	18,379.4	67.7558	18,379.4	61.7826	18,379.4	67.8617	18,379.4	62.1638	18,379.4	60.7419	18,379.4	59.8582	18,379.4	47.718	18,379.4	55.8031	18,379.4	53.507	18,379.4	59.1548	18,379.4	37.9458	18,379.4	51.234	18,379.4	44.9543	18,379.4	62.5171	18,379.4	41.4178	18,379.4	56.2058	18,379.4	49.2269	18,379.4	54.1449	18,379.4	51.5281	18,379.4	49.7262	18,379.4	45.5193	18,379.4	51.6256	18,379.4	45.9344	18,379.4	36.2906
19,026.9	79.8201	19,026.9	77.4069	19,026.9	79.304	19,026.9	72.894	19,026.9	73.6667	19,026.9	72.2504	19,026.9	75.2008	19,026.9	70.0688	19,026.9	75.3716	19,026.9	71.7214	19,026.9	67.01	19,026.9	66.2412	19,026.9	66.7596	19,026.9	68.4083	19,026.9	62.7833	19,026.9	63.4575	19,026.9	63.1793	19,026.9	62.0815	19,026.9	51.3157	19,026.9	52.1228	19,026.9	54.2176	19,026.9	58.2038	19,026.9	49.9846	19,026.9	57.7643	19,026.9	46.8376	19,026.9	63.4057	19,026.9	46.3196	19,026.9	58.8006	19,026.9	47.8953	19,026.9	55.2106	19,026.9	49.9029	19,026.9	47.9491	19,026.9	51.3275	19,026.9	49.3322	19,026.9	46.5107	19,026.9	35.8257
19,697.8	80.3783	19,697.8	78.8488	19,697.8	79.6913	19,697.8	72.8691	19,697.8	73.4103	19,697.8	73.8688	19,697.8	74.5714	19,697.8	67.7529	19,697.8	76.295	19,697.8	69.7719	19,697.8	64.7594	19,697.8	67.5402	19,697.8	68.7438	19,697.8	70.933	19,697.8	69.1683	19,697.8	42.0621	19,697.8	65.1794	19,697.8	62.6187	19,697.8	51.0629	19,697.8	55.9008	19,697.8	55.8138	19,697.8	57.5547	19,697.8	50.3294	19,697.8	57.2229	19,697.8	51.9154	19,697.8	64.357	19,697.8	58.2044	19,697.8	60.8003	19,697.8	47.0267	19,697.8	57.3651	19,697.8	52.9222	19,697.8	52.46	19,697.8	55.4431	19,697.8	52.9897	19,697.8	52.3449	19,697.8	47.9389
19,999.5	80.2793	19,999.5	79.7388	19,999.5	79.6918	19,999.5	74.2238	19,999.5	73.419	19,999.5	73.6911	19,999.5	73.7918	19,999.5	70.8341	19,999.5	76.1972	19,999.5	68.9851	19,999.5	63.7455	19,999.5	70.2338	19,999.5	69.798	19,999.5	69.3826	19,999.5	68.2403	19,999.5	59.9277	19,999.5	66.0103	19,999.5	60.4909	19,999.5	53.7994	19,999.5	60.3405	19,999.5	56.8367	19,999.5	57.956	19,999.5	52.6819	19,999.5	54.9435	19,999.5	51.526	19,999.5	64.8316	19,999.5	60.7013	19,999.5	61.339	19,999.5	48.5563	19,999.5	58.6926	19,999.5	53.7541	19,999.5	54.5541	19,999.5	58.3021	19,999.5	58.2982	19,999.5	56.3951	19,999.5	51.7954
