"SPL Vertical"
"On-Axis"		"10°"		"-10°"		"20°"		"-20°"		"30°"		"-30°"		"40°"		"-40°"		"50°"		"-50°"		"60°"		"-60°"		"70°"		"-70°"		"80°"		"-80°"		"90°"		"-90°"		"100°"		"-100°"		"110°"		"-110°"		"120°"		"-120°"		"130°"		"-130°"		"140°"		"-140°"		"150°"		"-150°"		"160°"		"-160°"		"170°"		"-170°"		"180°"
"Frequency / Hz"	"Sound Pressure Level / dB (re 20 µPa/V)  [2.83  V @ 1. m]"	"Frequency / Hz"	"Sound Pressure Level / dB (re 20 µPa/V)  [2.83  V @ 1. m]"	"Frequency / Hz"	"Sound Pressure Level / dB (re 20 µPa/V)  [2.83  V @ 1. m]"	"Frequency / Hz"	"Sound Pressure Level / dB (re 20 µPa/V)  [2.83  V @ 1. m]"	"Frequency / Hz"	"Sound Pressure Level / dB (re 20 µPa/V)  [2.83  V @ 1. m]"	"Frequency / Hz"	"Sound Pressure Level / dB (re 20 µPa/V)  [2.83  V @ 1. m]"	"Frequency / Hz"	"Sound Pressure Level / dB (re 20 µPa/V)  [2.83  V @ 1. m]"	"Frequency / Hz"	"Sound Pressure Level / dB (re 20 µPa/V)  [2.83  V @ 1. m]"	"Frequency / Hz"	"Sound Pressure Level / dB (re 20 µPa/V)  [2.83  V @ 1. m]"	"Frequency / Hz"	"Sound Pressure Level / dB (re 20 µPa/V)  [2.83  V @ 1. m]"	"Frequency / Hz"	"Sound Pressure Level / dB (re 20 µPa/V)  [2.83  V @ 1. m]"	"Frequency / Hz"	"Sound Pressure Level / dB (re 20 µPa/V)  [2.83  V @ 1. m]"	"Frequency / Hz"	"Sound Pressure Level / dB (re 20 µPa/V)  [2.83  V @ 1. m]"	"Frequency / Hz"	"Sound Pressure Level / dB (re 20 µPa/V)  [2.83  V @ 1. m]"	"Frequency / Hz"	"Sound Pressure Level / dB (re 20 µPa/V)  [2.83  V @ 1. m]"	"Frequency / Hz"	"Sound Pressure Level / dB (re 20 µPa/V)  [2.83  V @ 1. m]"	"Frequency / Hz"	"Sound Pressure Level / dB (re 20 µPa/V)  [2.83  V @ 1. m]"	"Frequency / Hz"	"Sound Pressure Level / dB (re 20 µPa/V)  [2.83  V @ 1. m]"	"Frequency / Hz"	"Sound Pressure Level / dB (re 20 µPa/V)  [2.83  V @ 1. m]"	"Frequency / Hz"	"Sound Pressure Level / dB (re 20 µPa/V)  [2.83  V @ 1. m]"	"Frequency / Hz"	"Sound Pressure Level / dB (re 20 µPa/V)  [2.83  V @ 1. m]"	"Frequency / Hz"	"Sound Pressure Level / dB (re 20 µPa/V)  [2.83  V @ 1. m]"	"Frequency / Hz"	"Sound Pressure Level / dB (re 20 µPa/V)  [2.83  V @ 1. m]"	"Frequency / Hz"	"Sound Pressure Level / dB (re 20 µPa/V)  [2.83  V @ 1. m]"	"Frequency / Hz"	"Sound Pressure Level / dB (re 20 µPa/V)  [2.83  V @ 1. m]"	"Frequency / Hz"	"Sound Pressure Level / dB (re 20 µPa/V)  [2.83  V @ 1. m]"	"Frequency / Hz"	"Sound Pressure Level / dB (re 20 µPa/V)  [2.83  V @ 1. m]"	"Frequency / Hz"	"Sound Pressure Level / dB (re 20 µPa/V)  [2.83  V @ 1. m]"	"Frequency / Hz"	"Sound Pressure Level / dB (re 20 µPa/V)  [2.83  V @ 1. m]"	"Frequency / Hz"	"Sound Pressure Level / dB (re 20 µPa/V)  [2.83  V @ 1. m]"	"Frequency / Hz"	"Sound Pressure Level / dB (re 20 µPa/V)  [2.83  V @ 1. m]"	"Frequency / Hz"	"Sound Pressure Level / dB (re 20 µPa/V)  [2.83  V @ 1. m]"	"Frequency / Hz"	"Sound Pressure Level / dB (re 20 µPa/V)  [2.83  V @ 1. m]"	"Frequency / Hz"	"Sound Pressure Level / dB (re 20 µPa/V)  [2.83  V @ 1. m]"	"Frequency / Hz"	"Sound Pressure Level / dB (re 20 µPa/V)  [2.83  V @ 1. m]"	"Frequency / Hz"	"Sound Pressure Level / dB (re 20 µPa/V)  [2.83  V @ 1. m]"
20.5078	49.9614	20.5078	50.5151	20.5078	49.4961	20.5078	51.1046	20.5078	49.1651	20.5078	51.6845	20.5078	48.9922	20.5078	52.2213	20.5078	48.9709	20.5078	52.6943	20.5078	49.0709	20.5078	53.092	20.5078	49.253	20.5078	53.4099	20.5078	49.4829	20.5078	53.6478	20.5078	49.7379	20.5078	53.8078	20.5078	50.0068	20.5078	53.8938	20.5078	50.2859	20.5078	53.9102	20.5078	50.5753	20.5078	53.8624	20.5078	50.8743	20.5078	53.7568	20.5078	51.18	20.5078	53.6008	20.5078	51.4874	20.5078	53.4034	20.5078	51.7914	20.5078	53.1742	20.5078	52.0883	20.5078	52.9223	20.5078	52.3764	20.5078	52.6549
21.9727	49.1536	21.9727	49.7392	21.9727	48.5674	21.9727	50.2782	21.9727	48.0414	21.9727	50.7406	21.9727	47.6405	21.9727	51.1085	21.9727	47.412	21.9727	51.3721	21.9727	47.3632	21.9727	51.5259	21.9727	47.4574	21.9727	51.5661	21.9727	47.631	21.9727	51.4892	21.9727	47.8175	21.9727	51.2914	21.9727	47.9625	21.9727	50.9678	21.9727	48.0271	21.9727	50.5131	21.9727	47.985	21.9727	49.9237	21.9727	47.8194	21.9727	49.2012	21.9727	47.5219	21.9727	48.3614	21.9727	47.0977	21.9727	47.4509	21.9727	46.5786	21.9727	46.5696	21.9727	46.0446	21.9727	45.8793	21.9727	45.6413	21.9727	45.5503
23.4375	48.1842	23.4375	49.1515	23.4375	47.236	23.4375	50.0533	23.4375	46.4319	23.4375	50.8441	23.4375	45.9032	23.4375	51.5034	23.4375	45.7133	23.4375	52.0251	23.4375	45.8099	23.4375	52.4089	23.4375	46.0641	23.4375	52.6571	23.4375	46.3463	23.4375	52.7717	23.4375	46.5654	23.4375	52.7533	23.4375	46.6712	23.4375	52.6007	23.4375	46.6419	23.4375	52.3103	23.4375	46.4758	23.4375	51.8771	23.4375	46.189	23.4375	51.2953	23.4375	45.8219	23.4375	50.5612	23.4375	45.4544	23.4375	49.6789	23.4375	45.2189	23.4375	48.671	23.4375	45.2784	23.4375	47.5951	23.4375	45.7393	23.4375	46.563
24.9023	55.2933	24.9023	55.7297	24.9023	54.8582	24.9023	56.1521	24.9023	54.4392	24.9023	56.5455	24.9023	54.0475	24.9023	56.8969	24.9023	53.6906	24.9023	57.1962	24.9023	53.3716	24.9023	57.436	24.9023	53.0912	24.9023	57.6112	24.9023	52.8499	24.9023	57.7184	24.9023	52.6513	24.9023	57.7557	24.9023	52.5046	24.9023	57.7222	24.9023	52.4246	24.9023	57.6173	24.9023	52.4297	24.9023	57.4414	24.9023	52.5373	24.9023	57.1953	24.9023	52.7566	24.9023	56.8809	24.9023	53.0847	24.9023	56.5018	24.9023	53.5057	24.9023	56.0642	24.9023	53.9942	24.9023	55.5779	24.9023	54.5207	24.9023	55.0569
26.3672	57.4438	26.3672	57.6977	26.3672	57.2148	26.3672	57.9621	26.3672	57.0227	26.3672	58.2218	26.3672	56.8746	26.3672	58.4636	26.3672	56.7714	26.3672	58.6764	26.3672	56.7082	26.3672	58.8519	26.3672	56.6763	26.3672	58.9845	26.3672	56.666	26.3672	59.0707	26.3672	56.6691	26.3672	59.1089	26.3672	56.681	26.3672	59.0993	26.3672	56.7014	26.3672	59.0431	26.3672	56.7341	26.3672	58.9429	26.3672	56.7854	26.3672	58.8023	26.3672	56.8623	26.3672	58.6264	26.3672	56.9706	26.3672	58.4216	26.3672	57.1135	26.3672	58.196	26.3672	57.2901	26.3672	57.9592	26.3672	57.4956	26.3672	57.722
27.832	55.8159	27.832	56.1882	27.832	55.4873	27.832	56.5734	27.832	55.2291	27.832	56.9427	27.832	55.0565	27.832	57.2732	27.832	54.9682	27.832	57.5484	27.832	54.9475	27.832	57.7573	27.832	54.9682	27.832	57.8932	27.832	55.0027	27.832	57.9526	27.832	55.0278	27.832	57.9343	27.832	55.0288	27.832	57.839	27.832	55.0005	27.832	57.6693	27.832	54.9472	27.832	57.4301	27.832	54.8811	27.832	57.1296	27.832	54.8211	27.832	56.7804	27.832	54.7896	27.832	56.4002	27.832	54.8093	27.832	56.0124	27.832	54.8992	27.832	55.6442	27.832	55.0704	27.832	55.3228
29.2969	58.2472	29.2969	58.4925	29.2969	58.0543	29.2969	58.7709	29.2969	57.9261	29.2969	59.0605	29.2969	57.8648	29.2969	59.3407	29.2969	57.8623	29.2969	59.5942	29.2969	57.9026	29.2969	59.8081	29.2969	57.967	29.2969	59.9739	29.2969	58.0385	29.2969	60.0866	29.2969	58.1045	29.2969	60.1444	29.2969	58.1589	29.2969	60.1484	29.2969	58.2016	29.2969	60.1013	29.2969	58.2376	29.2969	60.0082	29.2969	58.2753	29.2969	59.8754	29.2969	58.3239	29.2969	59.711	29.2969	58.392	29.2969	59.5241	29.2969	58.4857	29.2969	59.3251	29.2969	58.6079	29.2969	59.1245	29.2969	58.7581	29.2969	58.9325
30.7617	60.1645	30.7617	60.3723	30.7617	59.9935	30.7617	60.5999	30.7617	59.8722	30.7617	60.8288	30.7617	59.806	30.7617	61.0423	30.7617	59.7919	30.7617	61.2265	30.7617	59.8196	30.7617	61.3715	30.7617	59.8747	30.7617	61.4706	30.7617	59.9418	30.7617	61.5206	30.7617	60.0071	30.7617	61.5207	30.7617	60.061	30.7617	61.4728	30.7617	60.0981	30.7617	61.3809	30.7617	60.1176	30.7617	61.2514	30.7617	60.1226	30.7617	61.0932	30.7617	60.1191	30.7617	60.9171	30.7617	60.1155	30.7617	60.7357	30.7617	60.1214	30.7617	60.5626	30.7617	60.1468	30.7617	60.4102	30.7617	60.2005	30.7617	60.288
32.2266	61.4223	32.2266	61.6545	32.2266	61.2089	32.2266	61.8902	32.2266	61.0277	32.2266	62.1147	32.2266	60.8877	32.2266	62.3149	32.2266	60.7921	32.2266	62.4806	32.2266	60.7369	32.2266	62.604	32.2266	60.713	32.2266	62.6803	32.2266	60.7087	32.2266	62.7067	32.2266	60.7126	32.2266	62.683	32.2266	60.716	32.2266	62.6108	32.2266	60.7149	32.2266	62.4939	32.2266	60.7098	32.2266	62.3381	32.2266	60.7057	32.2266	62.1512	32.2266	60.71	32.2266	61.9428	32.2266	60.7316	32.2266	61.7242	32.2266	60.7789	32.2266	61.5071	32.2266	60.8583	32.2266	61.3032	32.2266	60.9729	32.2266	61.1226
33.6914	63.2823	33.6914	63.4747	33.6914	63.1083	33.6914	63.6732	33.6914	62.9627	33.6914	63.865	33.6914	62.8517	33.6914	64.0385	33.6914	62.7765	33.6914	64.1838	33.6914	62.7336	33.6914	64.2938	33.6914	62.7158	33.6914	64.3637	33.6914	62.7143	33.6914	64.391	33.6914	62.7207	33.6914	64.3754	33.6914	62.7292	33.6914	64.3188	33.6914	62.7366	33.6914	64.2251	33.6914	62.7435	33.6914	64.0996	33.6914	62.7531	33.6914	63.9497	33.6914	62.7704	33.6914	63.7838	33.6914	62.8011	33.6914	63.611	33.6914	62.8504	33.6914	63.4406	33.6914	62.922	33.6914	63.2808	33.6914	63.018	33.6914	63.1384
35.1562	64.7048	35.1562	64.8612	35.1562	64.5608	35.1562	65.02	35.1562	64.4371	35.1562	65.1709	35.1562	64.3388	35.1562	65.304	35.1562	64.2673	35.1562	65.4109	35.1562	64.2204	35.1562	65.485	35.1562	64.1931	35.1562	65.522	35.1562	64.1786	35.1562	65.5198	35.1562	64.1706	35.1562	65.4787	35.1562	64.1637	35.1562	65.4011	35.1562	64.1553	35.1562	65.2918	35.1562	64.1451	35.1562	65.1574	35.1562	64.1354	35.1562	65.0064	35.1562	64.1301	35.1562	64.8484	35.1562	64.1337	35.1562	64.693	35.1562	64.1509	35.1562	64.5492	35.1562	64.1857	35.1562	64.4236	35.1562	64.2415	35.1562	64.3205
36.6211	66.1149	36.6211	66.243	36.6211	65.9932	36.6211	66.3695	36.6211	65.8841	36.6211	66.486	36.6211	65.7917	36.6211	66.5846	36.6211	65.7166	36.6211	66.6581	36.6211	65.6569	36.6211	66.701	36.6211	65.6081	36.6211	66.7095	36.6211	65.5647	36.6211	66.6815	36.6211	65.5211	36.6211	66.6169	36.6211	65.4735	36.6211	66.5174	36.6211	65.4201	36.6211	66.3869	36.6211	65.3618	36.6211	66.2312	36.6211	65.3022	36.6211	66.0583	36.6211	65.247	36.6211	65.8777	36.6211	65.2035	36.6211	65.7002	36.6211	65.1795	36.6211	65.5368	36.6211	65.1824	36.6211	65.3975	36.6211	65.2181	36.6211	65.2899
38.0859	66.9579	38.0859	67.1107	38.0859	66.8222	38.0859	67.2713	38.0859	66.711	38.0859	67.4291	38.0859	66.6284	38.0859	67.5742	38.0859	66.5748	38.0859	67.6979	38.0859	66.5472	38.0859	67.7936	38.0859	66.5405	38.0859	67.8568	38.0859	66.5483	38.0859	67.8855	38.0859	66.5644	38.0859	67.8796	38.0859	66.5842	38.0859	67.8411	38.0859	66.6049	38.0859	67.7737	38.0859	66.6261	38.0859	67.6823	38.0859	66.6493	38.0859	67.5729	38.0859	66.6773	38.0859	67.4525	38.0859	66.7133	38.0859	67.3276	38.0859	66.7603	38.0859	67.2049	38.0859	66.8206	38.0859	67.0895	38.0859	66.8956	38.0859	66.9856
39.5508	68.9912	39.5508	69.0823	39.5508	68.9054	39.5508	69.1716	39.5508	68.831	39.5508	69.2521	39.5508	68.7721	39.5508	69.3176	39.5508	68.7305	39.5508	69.3631	39.5508	68.7052	39.5508	69.3855	39.5508	68.6933	39.5508	69.3835	39.5508	68.6905	39.5508	69.3577	39.5508	68.6923	39.5508	69.3101	39.5508	68.6947	39.5508	69.2447	39.5508	68.6953	39.5508	69.1664	39.5508	68.6929	39.5508	69.0811	39.5508	68.688	39.5508	68.9952	39.5508	68.682	39.5508	68.9142	39.5508	68.6768	39.5508	68.8429	39.5508	68.6746	39.5508	68.7842	39.5508	68.6775	39.5508	68.7392	39.5508	68.6878	39.5508	68.7076
41.0156	70.1385	41.0156	70.2265	41.0156	70.0451	41.0156	70.3041	41.0156	69.9503	41.0156	70.3663	41.0156	69.8576	41.0156	70.408	41.0156	69.7687	41.0156	70.4249	41.0156	69.6842	41.0156	70.4134	41.0156	69.6035	41.0156	70.3711	41.0156	69.5249	41.0156	70.2971	41.0156	69.4466	41.0156	70.1924	41.0156	69.3671	41.0156	70.0599	41.0156	69.2858	41.0156	69.9048	41.0156	69.2034	41.0156	69.7343	41.0156	69.1224	41.0156	69.5577	41.0156	69.0463	41.0156	69.3854	41.0156	68.9801	41.0156	69.2282	41.0156	68.9293	41.0156	69.0955	41.0156	68.9	41.0156	68.9944	41.0156	68.8981	41.0156	68.9286
42.4805	71.279	42.4805	71.3526	42.4805	71.2053	42.4805	71.422	42.4805	71.1353	42.4805	71.4827	42.4805	71.0712	42.4805	71.5304	42.4805	71.014	42.4805	71.5613	42.4805	70.9632	42.4805	71.5724	42.4805	70.9168	42.4805	71.5615	42.4805	70.8722	42.4805	71.5277	42.4805	70.827	42.4805	71.4713	42.4805	70.7794	42.4805	71.3938	42.4805	70.7288	42.4805	71.2985	42.4805	70.6765	42.4805	71.1895	42.4805	70.6251	42.4805	71.0722	42.4805	70.5786	42.4805	70.9529	42.4805	70.5417	42.4805	70.8381	42.4805	70.5195	42.4805	70.734	42.4805	70.5164	42.4805	70.6463	42.4805	70.5359	42.4805	70.5794
43.9453	72.2584	43.9453	72.3242	43.9453	72.1902	43.9453	72.3838	43.9453	72.1226	43.9453	72.4333	43.9453	72.0575	43.9453	72.4685	43.9453	71.996	43.9453	72.4861	43.9453	71.9379	43.9453	72.483	43.9453	71.8822	43.9453	72.4577	43.9453	71.8274	43.9453	72.4095	43.9453	71.7721	43.9453	72.3395	43.9453	71.7156	43.9453	72.2502	43.9453	71.6581	43.9453	72.1455	43.9453	71.6011	43.9453	72.0309	43.9453	71.547	43.9453	71.9125	43.9453	71.4991	43.9453	71.7969	43.9453	71.4611	43.9453	71.6905	43.9453	71.4365	43.9453	71.5986	43.9453	71.4286	43.9453	71.5249	43.9453	71.4399	43.9453	71.4718
45.4102	73.3354	45.4102	73.3941	45.4102	73.2751	45.4102	73.448	45.4102	73.2154	45.4102	73.4934	45.4102	73.1578	45.4102	73.5264	45.4102	73.1027	45.4102	73.5433	45.4102	73.0496	45.4102	73.5412	45.4102	72.9975	45.4102	73.5177	45.4102	72.9449	45.4102	73.472	45.4102	72.8902	45.4102	73.4045	45.4102	72.8327	45.4102	73.317	45.4102	72.7724	45.4102	73.2126	45.4102	72.7103	45.4102	73.0963	45.4102	72.6488	45.4102	72.9741	45.4102	72.5914	45.4102	72.8529	45.4102	72.5421	45.4102	72.7403	45.4102	72.5056	45.4102	72.643	45.4102	72.4863	45.4102	72.5667	45.4102	72.4884	45.4102	72.5148
46.875	73.9861	46.875	74.0349	46.875	73.9386	46.875	74.0822	46.875	73.8946	46.875	74.1245	46.875	73.8549	46.875	74.1584	46.875	73.8197	46.875	74.1806	46.875	73.7878	46.875	74.1886	46.875	73.7577	46.875	74.1807	46.875	73.7275	46.875	74.156	46.875	73.6957	46.875	74.1149	46.875	73.6611	46.875	74.0588	46.875	73.6238	46.875	73.9901	46.875	73.5848	46.875	73.9121	46.875	73.546	46.875	73.829	46.875	73.5105	46.875	73.7453	46.875	73.4817	46.875	73.6659	46.875	73.4629	46.875	73.5951	46.875	73.4572	46.875	73.5367	46.875	73.467	46.875	73.4936
48.3398	74.7016	48.3398	74.7426	48.3398	74.6613	48.3398	74.7815	48.3398	74.6237	48.3398	74.8153	48.3398	74.5899	48.3398	74.841	48.3398	74.56	48.3398	74.8561	48.3398	74.5333	48.3398	74.8584	48.3398	74.5083	48.3398	74.8468	48.3398	74.4834	48.3398	74.8211	48.3398	74.457	48.3398	74.7819	48.3398	74.4279	48.3398	74.7308	48.3398	74.3961	48.3398	74.6702	48.3398	74.3621	48.3398	74.6033	48.3398	74.3279	48.3398	74.5334	48.3398	74.2957	48.3398	74.4645	48.3398	74.2686	48.3398	74.4001	48.3398	74.2496	48.3398	74.3436	48.3398	74.2415	48.3398	74.298	48.3398	74.2464	48.3398	74.2652
51.2695	76.233	51.2695	76.2581	51.2695	76.2039	51.2695	76.2771	51.2695	76.1724	51.2695	76.2883	51.2695	76.1399	51.2695	76.2899	51.2695	76.1072	51.2695	76.2808	51.2695	76.0743	51.2695	76.2605	51.2695	76.041	51.2695	76.2289	51.2695	76.0065	51.2695	76.1866	51.2695	75.9701	51.2695	76.135	51.2695	75.9314	51.2695	76.076	51.2695	75.8905	51.2695	76.0121	51.2695	75.8483	51.2695	75.9464	51.2695	75.8062	51.2695	75.8821	51.2695	75.7661	51.2695	75.8223	51.2695	75.7306	51.2695	75.77	51.2695	75.702	51.2695	75.7277	51.2695	75.6827	51.2695	75.6971	51.2695	75.6747	51.2695	75.6793
52.7344	76.8628	52.7344	76.8897	52.7344	76.8298	52.7344	76.9083	52.7344	76.793	52.7344	76.9165	52.7344	76.7542	52.7344	76.9129	52.7344	76.7149	52.7344	76.8965	52.7344	76.6757	52.7344	76.8669	52.7344	76.6371	52.7344	76.8247	52.7344	76.5987	52.7344	76.7713	52.7344	76.5604	52.7344	76.7088	52.7344	76.5217	52.7344	76.6401	52.7344	76.4827	52.7344	76.5687	52.7344	76.4437	52.7344	76.4985	52.7344	76.4054	52.7344	76.433	52.7344	76.3688	52.7344	76.3758	52.7344	76.3353	52.7344	76.3295	52.7344	76.3065	52.7344	76.2956	52.7344	76.2843	52.7344	76.2748	52.7344	76.2704	52.7344	76.2668
54.1992	77.3993	54.1992	77.42	54.1992	77.3717	54.1992	77.4321	54.1992	77.3384	54.1992	77.4343	54.1992	77.301	54.1992	77.4254	54.1992	77.2605	54.1992	77.4047	54.1992	77.2178	54.1992	77.3715	54.1992	77.1734	54.1992	77.3263	54.1992	77.1277	54.1992	77.2699	54.1992	77.0806	54.1992	77.2041	54.1992	77.0323	54.1992	77.1315	54.1992	76.9831	54.1992	77.0554	54.1992	76.9337	54.1992	76.9795	54.1992	76.8852	54.1992	76.9077	54.1992	76.8391	54.1992	76.8437	54.1992	76.7973	54.1992	76.7906	54.1992	76.7619	54.1992	76.7508	54.1992	76.7349	54.1992	76.7255	54.1992	76.7187	54.1992	76.7151
55.6641	78.05	55.6641	78.0646	55.6641	78.0263	55.6641	78.0688	55.6641	77.9948	55.6641	78.0615	55.6641	77.9568	55.6641	78.0421	55.6641	77.9132	55.6641	78.0102	55.6641	77.8649	55.6641	77.966	55.6641	77.8124	55.6641	77.9104	55.6641	77.7562	55.6641	77.8448	55.6641	77.6966	55.6641	77.7712	55.6641	77.6343	55.6641	77.6922	55.6641	77.5703	55.6641	77.6109	55.6641	77.5061	55.6641	77.5306	55.6641	77.4437	55.6641	77.4548	55.6641	77.3854	55.6641	77.3867	55.6641	77.3338	55.6641	77.3294	55.6641	77.2915	55.6641	77.2852	55.6641	77.2609	55.6641	77.2557	55.6641	77.2439	55.6641	77.242
58.5938	78.8675	58.5938	78.8587	58.5938	78.8663	58.5938	78.8395	58.5938	78.8554	58.5938	78.8098	58.5938	78.8353	58.5938	78.7696	58.5938	78.8064	58.5938	78.7195	58.5938	78.7687	58.5938	78.6601	58.5938	78.7224	58.5938	78.5925	58.5938	78.6676	58.5938	78.5181	58.5938	78.6046	58.5938	78.4385	58.5938	78.5342	58.5938	78.3559	58.5938	78.4574	58.5938	78.2726	58.5938	78.3761	58.5938	78.1917	58.5938	78.2928	58.5938	78.1165	58.5938	78.2106	58.5938	78.0505	58.5938	78.1329	58.5938	77.9975	58.5938	78.0638	58.5938	77.9607	58.5938	78.0072	58.5938	77.9426	58.5938	77.9666	58.5938	77.9445
60.0586	79.1534	60.0586	79.1414	60.0586	79.1589	60.0586	79.1229	60.0586	79.1578	60.0586	79.0981	60.0586	79.1503	60.0586	79.0676	60.0586	79.1366	60.0586	79.032	60.0586	79.1168	60.0586	78.992	60.0586	79.0912	60.0586	78.9486	60.0586	79.0599	60.0586	78.903	60.0586	79.0233	60.0586	78.8563	60.0586	78.9819	60.0586	78.81	60.0586	78.9365	60.0586	78.7654	60.0586	78.888	60.0586	78.7239	60.0586	78.838	60.0586	78.687	60.0586	78.7882	60.0586	78.656	60.0586	78.7408	60.0586	78.6325	60.0586	78.6981	60.0586	78.6178	60.0586	78.6623	60.0586	78.613	60.0586	78.6355	60.0586	78.6188
62.9883	79.7484	62.9883	79.7369	62.9883	79.752	62.9883	79.7177	62.9883	79.7483	62.9883	79.6909	62.9883	79.7377	62.9883	79.6574	62.9883	79.721	62.9883	79.6181	62.9883	79.6991	62.9883	79.5744	62.9883	79.6727	62.9883	79.5279	62.9883	79.6428	62.9883	79.4802	62.9883	79.6102	62.9883	79.4334	62.9883	79.5754	62.9883	79.3894	62.9883	79.5391	62.9883	79.3499	62.9883	79.5021	62.9883	79.3167	62.9883	79.4649	62.9883	79.2908	62.9883	79.4282	62.9883	79.273	62.9883	79.3928	62.9883	79.2636	62.9883	79.3596	62.9883	79.2626	62.9883	79.3297	62.9883	79.2694	62.9883	79.3039	62.9883	79.2835
64.4531	80.0691	64.4531	80.0521	64.4531	80.0782	64.4531	80.0273	64.4531	80.0796	64.4531	79.9949	64.4531	80.0739	64.4531	79.9559	64.4531	80.0618	64.4531	79.9114	64.4531	80.044	64.4531	79.8629	64.4531	80.0215	64.4531	79.8122	64.4531	79.995	64.4531	79.7614	64.4531	79.9653	64.4531	79.7128	64.4531	79.933	64.4531	79.6684	64.4531	79.8987	64.4531	79.6304	64.4531	79.8628	64.4531	79.6004	64.4531	79.8258	64.4531	79.5795	64.4531	79.788	64.4531	79.5684	64.4531	79.75	64.4531	79.5671	64.4531	79.7125	64.4531	79.575	64.4531	79.6767	64.4531	79.5913	64.4531	79.6436	64.4531	79.6146
67.3828	80.6876	67.3828	80.663	67.3828	80.7026	67.3828	80.6293	67.3828	80.708	67.3828	80.5875	67.3828	80.704	67.3828	80.5388	67.3828	80.6915	67.3828	80.4847	67.3828	80.6714	67.3828	80.4274	67.3828	80.6447	67.3828	80.3688	67.3828	80.613	67.3828	80.3115	67.3828	80.5773	67.3828	80.2578	67.3828	80.5389	67.3828	80.21	67.3828	80.4987	67.3828	80.1703	67.3828	80.4575	67.3828	80.1403	67.3828	80.4156	67.3828	80.121	67.3828	80.3735	67.3828	80.113	67.3828	80.3315	67.3828	80.1158	67.3828	80.2902	67.3828	80.1286	67.3828	80.2501	67.3828	80.15	67.3828	80.2125	67.3828	80.1786
68.8477	80.941	68.8477	80.9137	68.8477	80.9583	68.8477	80.8769	68.8477	80.9653	68.8477	80.8317	68.8477	80.9624	68.8477	80.7795	68.8477	80.9502	68.8477	80.7221	68.8477	80.9297	68.8477	80.6617	68.8477	80.9024	68.8477	80.6005	68.8477	80.8695	68.8477	80.5412	68.8477	80.8325	68.8477	80.4864	68.8477	80.7929	68.8477	80.4384	68.8477	80.7516	68.8477	80.3995	68.8477	80.7096	68.8477	80.3711	68.8477	80.6673	68.8477	80.3542	68.8477	80.625	68.8477	80.3491	68.8477	80.5829	68.8477	80.3551	68.8477	80.5412	68.8477	80.3711	68.8477	80.5006	68.8477	80.3954	68.8477	80.4619	68.8477	80.4263
71.7773	81.5134	71.7773	81.4811	71.7773	81.5342	71.7773	81.438	71.7773	81.5431	71.7773	81.3855	71.7773	81.5401	71.7773	81.3254	71.7773	81.5261	71.7773	81.2599	71.7773	81.5023	71.7773	81.1914	71.7773	81.4702	71.7773	81.1226	71.7773	81.4316	71.7773	81.0562	71.7773	81.3882	71.7773	80.995	71.7773	81.3418	71.7773	80.9416	71.7773	81.2937	71.7773	80.8981	71.7773	81.2449	71.7773	80.8663	71.7773	81.1959	71.7773	80.8469	71.7773	81.1472	71.7773	80.8403	71.7773	81.0989	71.7773	80.8459	71.7773	81.0515	71.7773	80.8627	71.7773	81.0055	71.7773	80.8889	71.7773	80.9621	71.7773	80.9226
74.707	82.0027	74.707	81.9639	74.707	82.0293	74.707	81.9141	74.707	82.0433	74.707	81.8551	74.707	82.0447	74.707	81.789	74.707	82.0343	74.707	81.7184	74.707	82.0134	74.707	81.6463	74.707	81.9838	74.707	81.5758	74.707	81.9475	74.707	81.5099	74.707	81.9067	74.707	81.4516	74.707	81.863	74.707	81.4033	74.707	81.8181	74.707	81.3671	74.707	81.7727	74.707	81.3442	74.707	81.7272	74.707	81.3349	74.707	81.6816	74.707	81.3387	74.707	81.6358	74.707	81.3545	74.707	81.5896	74.707	81.3805	74.707	81.5434	74.707	81.4145	74.707	81.4978	74.707	81.4543
77.6367	82.3814	77.6367	82.3388	77.6367	82.4103	77.6367	82.284	77.6367	82.4248	77.6367	82.2189	77.6367	82.425	77.6367	82.1462	77.6367	82.412	77.6367	82.069	77.6367	82.3873	77.6367	81.9906	77.6367	82.3532	77.6367	81.9145	77.6367	82.3121	77.6367	81.8443	77.6367	82.2668	77.6367	81.783	77.6367	82.2196	77.6367	81.7336	77.6367	82.1721	77.6367	81.698	77.6367	82.1257	77.6367	81.6773	77.6367	82.0805	77.6367	81.6718	77.6367	82.0364	77.6367	81.6805	77.6367	81.9926	77.6367	81.7017	77.6367	81.9486	77.6367	81.7328	77.6367	81.9038	77.6367	81.771	77.6367	81.8586	77.6367	81.8138
79.1016	82.6105	79.1016	82.5649	79.1016	82.6417	79.1016	82.5064	79.1016	82.6578	79.1016	82.4372	79.1016	82.6586	79.1016	82.3601	79.1016	82.6452	79.1016	82.2782	79.1016	82.6191	79.1016	82.1951	79.1016	82.5826	79.1016	82.1144	79.1016	82.5384	79.1016	82.0396	79.1016	82.4892	79.1016	81.9742	79.1016	82.4376	79.1016	81.9211	79.1016	82.3856	79.1016	81.8824	79.1016	82.3345	79.1016	81.8594	79.1016	82.2848	79.1016	81.8523	79.1016	82.2363	79.1016	81.8603	79.1016	82.1886	79.1016	81.8814	79.1016	82.141	79.1016	81.9133	79.1016	82.093	79.1016	81.953	79.1016	82.0449	79.1016	81.9977
82.0312	83.1685	82.0312	83.118	82.0312	83.2041	82.0312	83.0543	82.0312	83.2238	82.0312	82.9799	82.0312	83.2274	82.0312	82.8976	82.0312	83.2159	82.0312	82.8108	82.0312	83.1906	82.0312	82.7232	82.0312	83.1539	82.0312	82.6387	82.0312	83.1085	82.0312	82.5608	82.0312	83.0572	82.0312	82.4932	82.0312	83.0026	82.0312	82.4387	82.0312	82.9469	82.0312	82.3995	82.0312	82.8916	82.0312	82.3766	82.0312	82.8372	82.0312	82.3703	82.0312	82.784	82.0312	82.3793	82.0312	82.7315	82.0312	82.402	82.0312	82.6792	82.0312	82.4357	82.0312	82.627	82.0312	82.4775	82.0312	82.5753	82.0312	82.5248
84.9609	83.5673	84.9609	83.516	84.9609	83.6043	84.9609	83.4519	84.9609	83.6262	84.9609	83.3773	84.9609	83.6331	84.9609	83.2951	84.9609	83.6258	84.9609	83.2087	84.9609	83.606	84.9609	83.1221	84.9609	83.5757	84.9609	83.0393	84.9609	83.5374	84.9609	82.9644	84.9609	83.4935	84.9609	82.9009	84.9609	83.4463	84.9609	82.8518	84.9609	83.3975	84.9609	82.8191	84.9609	83.3482	84.9609	82.8037	84.9609	83.2987	84.9609	82.8052	84.9609	83.2491	84.9609	82.822	84.9609	83.1989	84.9609	82.8518	84.9609	83.1477	84.9609	82.8917	84.9609	83.0954	84.9609	82.9385	84.9609	83.0423	84.9609	82.9895
87.8906	83.9335	87.8906	83.876	87.8906	83.9744	87.8906	83.8038	87.8906	83.9978	87.8906	83.7196	87.8906	84.004	87.8906	83.6272	87.8906	83.9942	87.8906	83.5307	87.8906	83.9706	87.8906	83.435	87.8906	83.9362	87.8906	83.3447	87.8906	83.8942	87.8906	83.2646	87.8906	83.8481	87.8906	83.1987	87.8906	83.8005	87.8906	83.1503	87.8906	83.7536	87.8906	83.1214	87.8906	83.7082	87.8906	83.1126	87.8906	83.6642	87.8906	83.1232	87.8906	83.6203	87.8906	83.1509	87.8906	83.5751	87.8906	83.1925	87.8906	83.5272	87.8906	83.244	87.8906	83.4754	87.8906	83.3015	87.8906	83.4197	87.8906	83.3611
90.8203	84.2868	90.8203	84.2263	90.8203	84.3307	90.8203	84.1512	90.8203	84.3569	90.8203	84.0643	90.8203	84.3656	90.8203	83.9697	90.8203	84.3579	90.8203	83.8716	90.8203	84.3362	90.8203	83.7749	90.8203	84.3032	90.8203	83.6845	90.8203	84.2625	90.8203	83.605	90.8203	84.2173	90.8203	83.5404	90.8203	84.1705	90.8203	83.4939	90.8203	84.1242	90.8203	83.4673	90.8203	84.0791	90.8203	83.461	90.8203	84.0349	90.8203	83.4741	90.8203	83.9905	90.8203	83.5042	90.8203	83.9444	90.8203	83.5481	90.8203	83.8951	90.8203	83.6019	90.8203	83.8416	90.8203	83.6615	90.8203	83.784	90.8203	83.7232
95.2148	84.9629	95.2148	84.8984	95.2148	85.0084	95.2148	84.8171	95.2148	85.0339	95.2148	84.7222	95.2148	85.0393	95.2148	84.6178	95.2148	85.026	95.2148	84.5086	95.2148	84.9962	95.2148	84.4001	95.2148	84.9533	95.2148	84.2975	95.2148	84.9012	95.2148	84.2062	95.2148	84.8439	95.2148	84.1306	95.2148	84.7851	95.2148	84.0746	95.2148	84.7278	95.2148	84.0403	95.2148	84.6733	95.2148	84.0285	95.2148	84.6219	95.2148	84.0383	95.2148	84.5723	95.2148	84.0673	95.2148	84.5227	95.2148	84.1117	95.2148	84.4711	95.2148	84.1673	95.2148	84.4158	95.2148	84.2292	95.2148	84.3563	95.2148	84.2934
98.1445	85.304	98.1445	85.2286	98.1445	85.3587	98.1445	85.1356	98.1445	85.3909	98.1445	85.029	98.1445	85.4004	98.1445	84.9139	98.1445	85.3884	98.1445	84.7957	98.1445	85.3574	98.1445	84.6802	98.1445	85.3112	98.1445	84.5732	98.1445	85.2541	98.1445	84.4799	98.1445	85.1909	98.1445	84.4049	98.1445	85.1258	98.1445	84.3515	98.1445	85.0619	98.1445	84.3215	98.1445	85.0014	98.1445	84.315	98.1445	84.9444	98.1445	84.3303	98.1445	84.8902	98.1445	84.3643	98.1445	84.8369	98.1445	84.4129	98.1445	84.7826	98.1445	84.4715	98.1445	84.7255	98.1445	84.5354	98.1445	84.6648	98.1445	84.6009
101.074	85.6379	101.074	85.5729	101.074	85.682	101.074	85.4895	101.074	85.7042	101.074	85.3912	101.074	85.7047	101.074	85.2825	101.074	85.6853	101.074	85.1685	101.074	85.6489	101.074	85.0547	101.074	85.5995	101.074	84.9469	101.074	85.5418	101.074	84.8505	101.074	85.4801	101.074	84.7702	101.074	85.4186	101.074	84.7101	101.074	85.36	101.074	84.6726	101.074	85.3055	101.074	84.6589	101.074	85.2551	101.074	84.6681	101.074	85.2071	101.074	84.6977	101.074	85.1593	101.074	84.7439	101.074	85.1091	101.074	84.8016	101.074	85.0547	101.074	84.8658	101.074	84.9954	101.074	84.9316
105.469	86.0512	105.469	85.9803	105.469	86.1013	105.469	85.8918	105.469	86.1293	105.469	85.7903	105.469	86.1351	105.469	85.6814	105.469	86.1207	105.469	85.5712	105.469	86.0893	105.469	85.4662	105.469	86.0455	105.469	85.3725	105.469	85.9944	105.469	85.2954	105.469	85.9411	105.469	85.2388	105.469	85.8897	105.469	85.2048	105.469	85.8431	105.469	85.1939	105.469	85.8023	105.469	85.2045	105.469	85.7663	105.469	85.2339	105.469	85.7329	105.469	85.2782	105.469	85.6991	105.469	85.3328	105.469	85.6621	105.469	85.3933	105.469	85.6195	105.469	85.4553	105.469	85.5705	105.469	85.5152
108.398	86.3384	108.398	86.2593	108.398	86.3948	108.398	86.1607	108.398	86.4267	108.398	86.0476	108.398	86.4343	108.398	85.9258	108.398	86.4195	108.398	85.8023	108.398	86.3857	108.398	85.6842	108.398	86.338	108.398	85.5786	108.398	86.282	108.398	85.4917	108.398	86.2236	108.398	85.4282	108.398	86.1676	108.398	85.3911	108.398	86.1176	108.398	85.3811	108.398	86.0747	108.398	85.3967	108.398	86.038	108.398	85.4346	108.398	86.0047	108.398	85.4899	108.398	85.9711	108.398	85.5568	108.398	85.9334	108.398	85.6297	108.398	85.8886	108.398	85.7031	108.398	85.835	108.398	85.7726
112.793	86.8633	112.793	86.7827	112.793	86.9188	112.793	86.6803	112.793	86.9473	112.793	86.5614	112.793	86.9492	112.793	86.4324	112.793	86.9267	112.793	86.3005	112.793	86.884	112.793	86.1733	112.793	86.8265	112.793	86.0583	112.793	86.7606	112.793	85.9621	112.793	86.6926	112.793	85.8897	112.793	86.6281	112.793	85.8444	112.793	86.5707	112.793	85.8272	112.793	86.5221	112.793	85.8368	112.793	86.481	112.793	85.8701	112.793	86.4446	112.793	85.9222	112.793	86.4088	112.793	85.9874	112.793	86.3694	112.793	86.0597	112.793	86.323	112.793	86.1336	112.793	86.2679	112.793	86.2041
117.188	87.1814	117.188	87.101	117.188	87.2371	117.188	86.9999	117.188	87.2664	117.188	86.8838	117.188	87.2695	117.188	86.7598	117.188	87.2489	117.188	86.636	117.188	87.209	117.188	86.5205	117.188	87.1559	117.188	86.4211	117.188	87.0966	117.188	86.3444	117.188	87.0386	117.188	86.2951	117.188	86.988	117.188	86.2756	117.188	86.9493	117.188	86.2855	117.188	86.9238	117.188	86.3221	117.188	86.9097	117.188	86.3806	117.188	86.9025	117.188	86.4546	117.188	86.8959	117.188	86.5369	117.188	86.8834	117.188	86.6206	117.188	86.8596	117.188	86.6992	117.188	86.8212	117.188	86.7672
120.117	87.4501	120.117	87.365	120.117	87.5095	120.117	87.2583	120.117	87.5415	120.117	87.1358	120.117	87.5462	120.117	87.0052	120.117	87.526	120.117	86.8752	120.117	87.4851	120.117	86.7553	120.117	87.4295	120.117	86.6544	120.117	87.3666	120.117	86.5802	120.117	87.3044	120.117	86.538	120.117	87.2505	120.117	86.53	120.117	87.2107	120.117	86.5553	120.117	87.1876	120.117	86.6094	120.117	87.18	120.117	86.6858	120.117	87.1831	120.117	86.7759	120.117	87.1898	120.117	86.871	120.117	87.1919	120.117	86.9627	120.117	87.1821	120.117	87.0438	120.117	87.1553	120.117	87.1091
124.512	88.1602	124.512	88.0566	124.512	88.2323	124.512	87.9261	124.512	88.2695	124.512	87.7743	124.512	88.2699	124.512	87.6078	124.512	88.2335	124.512	87.4345	124.512	88.1628	124.512	87.2632	124.512	88.0629	124.512	87.1034	124.512	87.9418	124.512	86.965	124.512	87.8095	124.512	86.8567	124.512	87.6776	124.512	86.7853	124.512	87.5573	124.512	86.7542	124.512	87.4574	124.512	86.7626	124.512	87.3829	124.512	86.8054	124.512	87.3334	124.512	86.8736	124.512	87.3031	124.512	86.9563	124.512	87.2828	124.512	87.0419	124.512	87.2619	124.512	87.1204	124.512	87.2312	124.512	87.1845
128.906	88.5083	128.906	88.413	128.906	88.5702	128.906	88.2882	128.906	88.5966	128.906	88.1391	128.906	88.5873	128.906	87.9723	128.906	88.544	128.906	87.7951	128.906	88.4701	128.906	87.6158	128.906	88.3707	128.906	87.4427	128.906	88.252	128.906	87.2839	128.906	88.1208	128.906	87.1469	128.906	87.9842	128.906	87.0377	128.906	87.8488	128.906	86.9603	128.906	87.7205	128.906	86.9163	128.906	87.6038	128.906	86.9046	128.906	87.5012	128.906	86.9211	128.906	87.4128	128.906	86.9597	128.906	87.3364	128.906	87.0132	128.906	87.2679	128.906	87.0747	128.906	87.203	128.906	87.1388
133.301	88.6895	133.301	88.5874	133.301	88.7599	133.301	88.4582	133.301	88.7965	133.301	88.308	133.301	88.7991	133.301	88.1446	133.301	88.77	133.301	87.9767	133.301	88.7134	133.301	87.8135	133.301	88.635	133.301	87.664	133.301	88.5417	133.301	87.5359	133.301	88.4403	133.301	87.4353	133.301	88.3371	133.301	87.3657	133.301	88.2373	133.301	87.3284	133.301	88.1441	133.301	87.3216	133.301	88.0592	133.301	87.3418	133.301	87.9824	133.301	87.3837	133.301	87.9122	133.301	87.441	133.301	87.8463	133.301	87.5076	133.301	87.7818	133.301	87.578	133.301	87.7163	133.301	87.6483
139.16	88.8167	139.16	88.7144	139.16	88.887	139.16	88.5846	139.16	88.924	139.16	88.4352	139.16	88.9297	139.16	88.2761	139.16	88.909	139.16	88.1189	139.16	88.8685	139.16	87.9747	139.16	88.8156	139.16	87.8535	139.16	88.7574	139.16	87.7627	139.16	88.6999	139.16	87.7062	139.16	88.647	139.16	87.6846	139.16	88.6002	139.16	87.6953	139.16	88.5587	139.16	87.7335	139.16	88.5202	139.16	87.793	139.16	88.4814	139.16	87.8673	139.16	88.4392	139.16	87.9501	139.16	88.3912	139.16	88.0359	139.16	88.3356	139.16	88.1202	139.16	88.2717	139.16	88.1995
143.555	88.9927	143.555	88.8742	143.555	89.0839	143.555	88.7336	143.555	89.1454	143.555	88.5787	143.555	89.1773	143.555	88.4197	143.555	89.182	143.555	88.2683	143.555	89.1641	143.555	88.1366	143.555	89.1301	143.555	88.0358	143.555	89.0879	143.555	87.9745	143.555	89.0456	143.555	87.9572	143.555	89.0104	143.555	87.9837	143.555	88.9867	143.555	88.049	143.555	88.9752	143.555	88.1445	143.555	88.9729	143.555	88.2598	143.555	88.9737	143.555	88.384	143.555	88.9706	143.555	88.5079	143.555	88.9568	143.555	88.6238	143.555	88.9274	143.555	88.7266	143.555	88.8797	143.555	88.8125
147.949	89.559	147.949	89.4397	147.949	89.6451	147.949	89.292	147.949	89.6949	147.949	89.1227	147.949	89.7072	147.949	88.9397	147.949	89.683	147.949	88.7529	147.949	89.6261	147.949	88.5736	147.949	89.5431	147.949	88.4137	147.949	89.4431	147.949	88.2844	147.949	89.3368	147.949	88.1951	147.949	89.235	147.949	88.1513	147.949	89.1465	147.949	88.1538	147.949	89.0766	147.949	88.1981	147.949	89.0261	147.949	88.2757	147.949	88.9909	147.949	88.3756	147.949	88.9641	147.949	88.4859	147.949	88.9369	147.949	88.5959	147.949	88.9013	147.949	88.6969	147.949	88.851	147.949	88.783
153.809	89.7336	153.809	89.616	153.809	89.8124	153.809	89.4646	153.809	89.8497	153.809	89.2872	153.809	89.8457	153.809	89.0934	153.809	89.8041	153.809	88.8944	153.809	89.7312	153.809	88.7029	153.809	89.6363	153.809	88.5315	153.809	89.5306	153.809	88.3921	153.809	89.4259	153.809	88.2945	153.809	89.333	153.809	88.2445	153.809	89.2595	153.809	88.2435	153.809	89.2081	153.809	88.2879	153.809	89.1767	153.809	88.3699	153.809	89.1582	153.809	88.4783	153.809	89.143	153.809	88.6012	153.809	89.121	153.809	88.7264	153.809	89.0838	153.809	88.8438	153.809	89.0258	153.809	88.9453
159.668	90.0574	159.668	89.9374	159.668	90.136	159.668	89.7813	159.668	90.1706	159.668	89.5974	159.668	90.1617	159.668	89.3961	159.668	90.1132	159.668	89.1897	159.668	90.0317	159.668	88.9917	159.668	89.927	159.668	88.8156	159.668	89.8106	159.668	88.674	159.668	89.6952	159.668	88.5764	159.668	89.5924	159.668	88.5286	159.668	89.5114	159.668	88.5314	159.668	89.4564	159.668	88.5809	159.668	89.4262	159.668	88.6685	159.668	89.414	159.668	88.7826	159.668	89.4092	159.668	88.9105	159.668	89.4	159.668	89.039	159.668	89.3756	159.668	89.1568	159.668	89.3284	159.668	89.255
165.527	90.2655	165.527	90.1369	165.527	90.3509	165.527	89.9717	165.527	90.3896	165.527	89.7791	165.527	90.381	165.527	89.5702	165.527	90.3282	165.527	89.3582	165.527	90.2378	165.527	89.157	165.527	90.1197	165.527	88.9808	165.527	89.9866	165.527	88.8425	165.527	89.853	165.527	88.7518	165.527	89.7331	165.527	88.714	165.527	89.6386	165.527	88.7289	165.527	89.576	165.527	88.7907	165.527	89.5454	165.527	88.8888	165.527	89.5401	165.527	89.0101	165.527	89.5482	165.527	89.1402	165.527	89.5557	165.527	89.2659	165.527	89.5494	165.527	89.376	165.527	89.5199	165.527	89.4621
171.387	90.4575	171.387	90.3328	171.387	90.5375	171.387	90.1696	171.387	90.5699	171.387	89.9766	171.387	90.5549	171.387	89.7646	171.387	90.4959	171.387	89.5456	171.387	90.3993	171.387	89.3326	171.387	90.2744	171.387	89.1384	171.387	90.1322	171.387	88.9751	171.387	89.9854	171.387	88.8532	171.387	89.8465	171.387	88.7803	171.387	89.7266	171.387	88.7598	171.387	89.6338	171.387	88.79	171.387	89.5713	171.387	88.8634	171.387	89.5364	171.387	88.9679	171.387	89.5208	171.387	89.0885	171.387	89.5122	171.387	89.2099	171.387	89.4969	171.387	89.3185	171.387	89.4634	171.387	89.4045
177.246	90.5423	177.246	90.407	177.246	90.6276	177.246	90.2273	177.246	90.661	177.246	90.0125	177.246	90.6446	177.246	89.7756	177.246	90.5835	177.246	89.5326	177.246	90.486	177.246	89.3015	177.246	90.3625	177.246	89.1001	177.246	90.2248	177.246	88.9443	177.246	90.085	177.246	88.8453	177.246	89.9542	177.246	88.8072	177.246	89.8412	177.246	88.8271	177.246	89.752	177.246	88.8954	177.246	89.6887	177.246	88.9984	177.246	89.6493	177.246	89.1202	177.246	89.628	177.246	89.2454	177.246	89.6158	177.246	89.3609	177.246	89.6018	177.246	89.4571	177.246	89.5756	177.246	89.5288
183.105	90.5752	183.105	90.4467	183.105	90.6556	183.105	90.2762	183.105	90.6853	183.105	90.0726	183.105	90.6654	183.105	89.8478	183.105	90.6012	183.105	89.6159	183.105	90.5022	183.105	89.3923	183.105	90.3816	183.105	89.1931	183.105	90.2547	183.105	89.0332	183.105	90.1368	183.105	88.9246	183.105	90.0404	183.105	88.8749	183.105	89.9722	183.105	88.8855	183.105	89.9326	183.105	88.951	183.105	89.9158	183.105	89.0604	183.105	89.9121	183.105	89.1986	183.105	89.9102	183.105	89.3491	183.105	89.8994	183.105	89.4965	183.105	89.8706	183.105	89.6285	183.105	89.8176	183.105	89.7369
188.965	90.8158	188.965	90.6904	188.965	90.884	188.965	90.5143	188.965	90.8921	188.965	90.2974	188.965	90.8417	188.965	90.0521	188.965	90.7388	188.965	89.7933	188.965	90.5945	188.965	89.5375	188.965	90.4239	188.965	89.3022	188.965	90.2451	188.965	89.1044	188.965	90.0773	188.965	88.9591	188.965	89.9378	188.965	88.8764	188.965	89.8387	188.965	88.8604	188.965	89.7839	188.965	88.9073	188.965	89.7686	188.965	89.0061	188.965	89.78	188.965	89.1409	188.965	89.801	188.965	89.2931	188.965	89.8143	188.965	89.4449	188.965	89.8056	188.965	89.581	188.965	89.7654	188.965	89.6901
196.289	90.8416	196.289	90.7122	196.289	90.9145	196.289	90.5333	196.289	90.9278	196.289	90.3168	196.289	90.883	196.289	90.0779	196.289	90.786	196.289	89.8346	196.289	90.6466	196.289	89.6063	196.289	90.4791	196.289	89.411	196.289	90.3019	196.289	89.2634	196.289	90.1358	196.289	89.1727	196.289	90.0014	196.289	89.1416	196.289	89.914	196.289	89.1662	196.289	89.8793	196.289	89.2377	196.289	89.8911	196.289	89.3442	196.289	89.933	196.289	89.4722	196.289	89.9833	196.289	89.6085	196.289	90.0217	196.289	89.7407	196.289	90.033	196.289	89.8575	196.289	90.0094	196.289	89.9495
203.613	90.9356	203.613	90.813	203.613	90.9987	203.613	90.6383	203.613	90.9991	203.613	90.4226	203.613	90.9384	203.613	90.1799	203.613	90.8236	203.613	89.9264	203.613	90.6661	203.613	89.6794	203.613	90.482	203.613	89.456	203.613	90.2907	203.613	89.2718	203.613	90.1129	203.613	89.1392	203.613	89.9678	203.613	89.0656	203.613	89.869	203.613	89.0528	203.613	89.8214	203.613	89.0963	203.613	89.8191	203.613	89.1865	203.613	89.8475	203.613	89.31	203.613	89.8868	203.613	89.4509	203.613	89.917	203.613	89.5932	203.613	89.9221	203.613	89.7218	203.613	89.8922	203.613	89.8244
210.938	91.0326	210.938	90.8905	210.938	91.1115	210.938	90.6937	210.938	91.1225	210.938	90.454	210.938	91.0647	210.938	90.1863	210.938	90.9417	210.938	89.9086	210.938	90.762	210.938	89.6407	210.938	90.5395	210.938	89.4029	210.938	90.2928	210.938	89.2142	210.938	90.0453	210.938	89.0887	210.938	89.8231	210.938	89.0341	210.938	89.6517	210.938	89.0498	210.938	89.5509	210.938	89.1269	210.938	89.5276	210.938	89.25	210.938	89.5725	210.938	89.3998	210.938	89.661	210.938	89.5554	210.938	89.7611	210.938	89.6967	210.938	89.8423	210.938	89.8063	210.938	89.8826	210.938	89.8708
218.262	90.9196	218.262	90.7749	218.262	91.0006	218.262	90.5758	218.262	91.0142	218.262	90.3361	218.262	90.9617	218.262	90.0741	218.262	90.85	218.262	89.8106	218.262	90.6906	218.262	89.5677	218.262	90.4995	218.262	89.3665	218.262	90.296	218.262	89.2241	218.262	90.1022	218.262	89.1507	218.262	89.9404	218.262	89.1487	218.262	89.8299	218.262	89.212	218.262	89.7823	218.262	89.3281	218.262	89.7982	218.262	89.4802	218.262	89.8653	218.262	89.6496	218.262	89.9614	218.262	89.8176	218.262	90.0594	218.262	89.9666	218.262	90.1345	218.262	90.0815	218.262	90.1681	218.262	90.1507
225.586	91.1324	225.586	90.9766	225.586	91.2148	225.586	90.7563	225.586	91.2196	225.586	90.4851	225.586	91.1474	225.586	90.181	225.586	91.0037	225.586	89.8666	225.586	90.7991	225.586	89.5671	225.586	90.5496	225.586	89.3088	225.586	90.2768	225.586	89.1152	225.586	90.007	225.586	89.0025	225.586	89.7697	225.586	88.9768	225.586	89.5937	225.586	89.0326	225.586	89.5005	225.586	89.1545	225.586	89.4974	225.586	89.3212	225.586	89.5728	225.586	89.5088	225.586	89.6984	225.586	89.6935	225.586	89.8372	225.586	89.8533	225.586	89.954	225.586	89.9696	225.586	90.0224	225.586	90.0283
232.91	91.1544	232.91	90.9998	232.91	91.2322	232.91	90.7771	232.91	91.2286	232.91	90.4996	232.91	91.1438	232.91	90.1848	232.91	90.9829	232.91	89.8544	232.91	90.756	232.91	89.534	232.91	90.4785	232.91	89.2505	232.91	90.1708	232.91	89.0293	232.91	89.8579	232.91	88.8889	232.91	89.5681	232.91	88.8367	232.91	89.3308	232.91	88.8672	232.91	89.1717	232.91	88.9642	232.91	89.1063	232.91	89.1045	232.91	89.1327	232.91	89.2628	232.91	89.2301	232.91	89.4146	232.91	89.3638	232.91	89.5382	232.91	89.4953	232.91	89.6157	232.91	89.5925	232.91	89.6351
241.699	90.9684	241.699	90.7818	241.699	91.0802	241.699	90.5291	241.699	91.1139	241.699	90.2243	241.699	91.0711	241.699	89.8867	241.699	90.9579	241.699	89.5407	241.699	90.7841	241.699	89.2143	241.699	90.5628	241.699	88.9365	241.699	90.3098	241.699	88.7327	241.699	90.0437	241.699	88.6193	241.699	89.7851	241.699	88.5994	241.699	89.5556	241.699	88.6627	241.699	89.3756	241.699	88.7881	241.699	89.2607	241.699	88.949	241.699	89.2172	241.699	89.1186	241.699	89.2382	241.699	89.2728	241.699	89.3034	241.699	89.3924	241.699	89.3844	241.699	89.4645	241.699	89.452	241.699	89.4832
250.488	91.3695	250.488	91.1455	250.488	91.5005	250.488	90.8355	250.488	91.5354	250.488	90.4517	250.488	91.476	250.488	90.0122	250.488	91.3289	250.488	89.5426	250.488	91.1061	250.488	89.0773	250.488	90.8256	250.488	88.6584	250.488	90.5101	250.488	88.3306	250.488	90.1867	250.488	88.1298	250.488	89.884	250.488	88.0713	250.488	89.6292	250.488	88.1441	250.488	89.4436	250.488	88.3163	250.488	89.338	250.488	88.5463	250.488	89.3084	250.488	88.7941	250.488	89.3366	250.488	89.0276	250.488	89.3939	250.488	89.2234	250.488	89.4488	250.488	89.3666	250.488	89.4739	250.488	89.4498
259.277	91.3298	259.277	91.1444	259.277	91.4254	259.277	90.8751	259.277	91.43	259.277	90.5318	259.277	91.3475	259.277	90.1294	259.277	91.187	259.277	89.6889	259.277	90.9639	259.277	89.239	259.277	90.6983	259.277	88.817	259.277	90.4145	259.277	88.4667	259.277	90.1374	259.277	88.2299	259.277	89.8896	259.277	88.134	259.277	89.6879	259.277	88.1805	259.277	89.5417	259.277	88.3432	259.277	89.4536	259.277	88.5785	259.277	89.4194	259.277	88.8391	259.277	89.429	259.277	89.085	259.277	89.4656	259.277	89.2873	259.277	89.5071	259.277	89.43	259.277	89.5288	259.277	89.5084
268.066	91.2359	268.066	91.0364	268.066	91.3385	268.066	90.7471	268.066	91.3419	268.066	90.3798	268.066	91.2491	268.066	89.9509	268.066	91.0694	268.066	89.4821	268.066	90.8184	268.066	89.0018	268.066	90.5188	268.066	88.5461	268.066	90.1999	268.066	88.1581	268.066	89.8952	268.066	87.8813	268.066	89.6375	268.066	87.7487	268.066	89.4507	268.066	87.7686	268.066	89.3431	268.066	87.9205	268.066	89.3047	268.066	88.1615	268.066	89.3131	268.066	88.442	268.066	89.3423	268.066	88.7181	268.066	89.3693	268.066	88.9588	268.066	89.3763	268.066	89.1464	268.066	89.349	268.066	89.2753
276.855	91.5086	276.855	91.3042	276.855	91.6019	276.855	90.9957	276.855	91.5836	276.855	90.5967	276.855	91.4585	276.855	90.1287	276.855	91.2369	276.855	89.6209	276.855	90.9344	276.855	89.1093	276.855	90.5737	276.855	88.6346	276.855	90.1862	276.855	88.2385	276.855	89.8138	276.855	87.9578	276.855	89.5058	276.855	87.8159	276.855	89.3077	276.855	87.8167	276.855	89.2416	276.855	87.9424	276.855	89.2917	276.855	88.1588	276.855	89.4083	276.855	88.426	276.855	89.5303	276.855	88.7078	276.855	89.6082	276.855	88.9772	276.855	89.6156	276.855	89.2155	276.855	89.5468	276.855	89.4095
287.109	91.2625	287.109	91.1012	287.109	91.332	287.109	90.8514	287.109	91.3088	287.109	90.5193	287.109	91.1959	287.109	90.1143	287.109	91.0004	287.109	89.6515	287.109	90.7336	287.109	89.1563	287.109	90.4117	287.109	88.6676	287.109	90.0564	287.109	88.2392	287.109	89.698	287.109	87.9307	287.109	89.3783	287.109	87.7899	287.109	89.1483	287.109	87.8318	287.109	89.0539	287.109	88.0314	287.109	89.111	287.109	88.3376	287.109	89.2889	287.109	88.6935	287.109	89.5204	287.109	89.0512	287.109	89.7316	287.109	89.3748	287.109	89.8667	287.109	89.6375	287.109	89.8971	287.109	89.8175
297.363	91.6979	297.363	91.5198	297.363	91.7645	297.363	91.2424	297.363	91.7141	297.363	90.8823	297.363	91.548	297.363	90.4581	297.363	91.2741	297.363	89.9894	297.363	90.9061	297.363	89.4957	297.363	90.4611	297.363	88.9997	297.363	89.9601	297.363	88.5321	297.363	89.4312	297.363	88.1362	297.363	88.916	297.363	87.8668	297.363	88.4774	297.363	87.7737	297.363	88.1963	297.363	87.8761	297.363	88.141	297.363	88.1447	297.363	88.3177	297.363	88.512	297.363	88.6523	297.363	88.8988	297.363	89.0293	297.363	89.2367	297.363	89.3462	297.363	89.4755	297.363	89.5393	297.363	89.5824
307.617	91.5908	307.617	91.3798	307.617	91.6937	307.617	91.0695	307.617	91.6852	307.617	90.6749	307.617	91.5671	307.617	90.2176	307.617	91.3457	307.617	89.7262	307.617	91.0322	307.617	89.2355	307.617	90.6426	307.617	88.7833	307.617	90.1983	307.617	88.4051	307.617	89.725	307.617	88.1272	307.617	89.2534	307.617	87.9632	307.617	88.8221	307.617	87.9152	307.617	88.4805	307.617	87.9761	307.617	88.283	307.617	88.1309	307.617	88.2644	307.617	88.354	307.617	88.4096	307.617	88.6082	307.617	88.6487	307.617	88.8475	307.617	88.8889	307.617	89.0247	307.617	89.0533	307.617	89.1005
319.336	91.6614	319.336	91.4719	319.336	91.732	319.336	91.1714	319.336	91.6814	319.336	90.7721	319.336	91.5133	319.336	90.2901	319.336	91.2383	319.336	89.7476	319.336	90.8727	319.336	89.1753	319.336	90.4383	319.336	88.617	319.336	89.9615	319.336	88.1301	319.336	89.4737	319.336	87.7774	319.336	89.0121	319.336	87.6071	319.336	88.6194	319.336	87.63	319.336	88.339	319.336	87.8131	319.336	88.2037	319.336	88.0954	319.336	88.2215	319.336	88.4112	319.336	88.3674	319.336	88.7047	319.336	88.5884	319.336	88.9333	319.336	88.8194	319.336	89.0674	319.336	89.0006	319.336	89.09
329.59	91.4791	329.59	91.2865	329.59	91.5601	329.59	90.9919	329.59	91.5268	329.59	90.6106	329.59	91.3839	329.59	90.1616	329.59	91.1424	329.59	89.6662	329.59	90.818	329.59	89.1475	329.59	90.428	329.59	88.6326	329.59	89.9892	329.59	88.1559	329.59	89.5179	329.59	87.7617	329.59	89.0345	329.59	87.4987	329.59	88.573	329.59	87.4043	329.59	88.1883	329.59	87.4835	329.59	87.9469	329.59	87.7013	329.59	87.8936	329.59	87.9945	329.59	88.0146	329.59	88.2939	329.59	88.2391	329.59	88.5411	329.59	88.4774	329.59	88.6958	329.59	88.6573	329.59	88.7358
341.309	91.435	341.309	91.204	341.309	91.5412	341.309	90.857	341.309	91.523	341.309	90.4118	341.309	91.3886	341.309	89.8945	341.309	91.1532	341.309	89.338	341.309	90.8378	341.309	88.7801	341.309	90.4684	341.309	88.2621	341.309	90.0736	341.309	87.8253	341.309	89.6804	341.309	87.5061	341.309	89.3078	341.309	87.3289	341.309	88.9662	341.309	87.299	341.309	88.6644	341.309	87.4007	341.309	88.4212	341.309	87.6013	341.309	88.2673	341.309	87.8585	341.309	88.2285	341.309	88.126	341.309	88.2977	341.309	88.3588	341.309	88.4245	341.309	88.5182	341.309	88.5379	341.309	88.5786
353.027	91.5204	353.027	91.2981	353.027	91.6145	353.027	90.9591	353.027	91.5735	353.027	90.5179	353.027	91.3975	353.027	89.991	353.027	91.0964	353.027	89.3973	353.027	90.6901	353.027	88.7613	353.027	90.2085	353.027	88.1186	353.027	89.6884	353.027	87.5219	353.027	89.172	353.027	87.0425	353.027	88.7063	353.027	86.7554	353.027	88.3414	353.027	86.7078	353.027	88.1221	353.027	86.8896	353.027	88.0683	353.027	87.2348	353.027	88.1588	353.027	87.6536	353.027	88.3371	353.027	88.0639	353.027	88.5359	353.027	88.407	353.027	88.6988	353.027	88.6485	353.027	88.7866	353.027	88.7745
366.211	91.9528	366.211	91.7482	366.211	92.0107	366.211	91.4043	366.211	91.9221	366.211	90.9348	366.211	91.6948	366.211	90.3589	366.211	91.3433	366.211	89.7007	366.211	90.8868	366.211	88.9917	366.211	90.3476	366.211	88.2729	366.211	89.7518	366.211	87.5994	366.211	89.1328	366.211	87.0386	366.211	88.537	366.211	86.6602	366.211	88.0282	366.211	86.5125	366.211	87.6807	366.211	86.5992	366.211	87.5505	366.211	86.8742	366.211	87.6369	366.211	87.2606	366.211	87.8711	366.211	87.6761	366.211	88.1503	366.211	88.0507	366.211	88.3815	366.211	88.3327	366.211	88.504	366.211	88.489
379.395	91.826	379.395	91.5914	379.395	91.934	379.395	91.2393	379.395	91.9095	379.395	90.783	379.395	91.7515	379.395	90.24	379.395	91.465	379.395	89.6329	379.395	91.0641	379.395	88.9922	379.395	90.5716	379.395	88.3586	379.395	90.0151	379.395	87.7849	379.395	89.4196	379.395	87.3315	379.395	88.8059	379.395	87.0533	379.395	88.2036	379.395	86.9805	379.395	87.6789	379.395	87.1046	379.395	87.3469	379.395	87.3811	379.395	87.3168	379.395	87.7457	379.395	87.5851	379.395	88.1305	379.395	88.0129	379.395	88.4711	379.395	88.4257	379.395	88.7097	379.395	88.7038	379.395	88.7979
392.578	91.5725	392.578	91.332	392.578	91.6625	392.578	90.9595	392.578	91.5951	392.578	90.4828	392.578	91.3788	392.578	89.9341	392.578	91.0384	392.578	89.3455	392.578	90.6137	392.578	88.7447	392.578	90.1513	392.578	88.1563	392.578	89.6904	392.578	87.6097	392.578	89.2505	392.578	87.1474	392.578	88.8291	392.578	86.8248	392.578	88.4164	392.578	86.6919	392.578	88.021	392.578	86.7647	392.578	87.6893	392.578	87.0104	392.578	87.4958	392.578	87.3584	392.578	87.4939	392.578	87.7248	392.578	87.664	392.578	88.032	392.578	87.9164	392.578	88.2205	392.578	88.1418	392.578	88.2569
405.762	91.6442	405.762	91.4402	405.762	91.6445	405.762	91.0432	405.762	91.4483	405.762	90.4787	405.762	91.0839	405.762	89.7876	405.762	90.6035	405.762	89.0259	405.762	90.077	405.762	88.2623	405.762	89.5785	405.762	87.5705	405.762	89.1683	405.762	87.0205	405.762	88.8766	405.762	86.6683	405.762	88.6964	405.762	86.5432	405.762	88.5958	405.762	86.6361	405.762	88.5455	405.762	86.8998	405.762	88.5401	405.762	87.2677	405.762	88.5906	405.762	87.676	405.762	88.6965	405.762	88.0758	405.762	88.8279	405.762	88.4307	405.762	88.9339	405.762	88.7112	405.762	88.9658	405.762	88.8937
420.41	92.1476	420.41	91.9368	420.41	92.1789	420.41	91.5491	420.41	92.0393	420.41	90.9983	420.41	91.7472	420.41	90.3092	420.41	91.3252	420.41	89.5182	420.41	90.794	420.41	88.6731	420.41	90.1718	420.41	87.8371	420.41	89.4846	420.41	87.096	420.41	88.7767	420.41	86.5625	420.41	88.1117	420.41	86.3471	420.41	87.5647	420.41	86.491	420.41	87.2179	420.41	86.9234	420.41	87.1495	420.41	87.5069	420.41	87.3875	420.41	88.1115	420.41	87.8581	420.41	88.6473	420.41	88.4109	420.41	89.058	420.41	88.8998	420.41	89.3072	420.41	89.2324	420.41	89.3699
435.059	92.0257	435.059	91.8381	435.059	92.0438	435.059	91.4715	435.059	91.9105	435.059	90.9281	435.059	91.6474	435.059	90.2248	435.059	91.2717	435.059	89.3963	435.059	90.792	435.059	88.4967	435.059	90.2133	435.059	87.6008	435.059	89.5495	435.059	86.8074	435.059	88.8332	435.059	86.2409	435.059	88.1131	435.059	86.026	435.059	87.4524	435.059	86.2204	435.059	86.9441	435.059	86.7576	435.059	86.725	435.059	87.4798	435.059	86.9136	435.059	88.2229	435.059	87.4761	435.059	88.8678	435.059	88.2108	435.059	89.3416	435.059	88.8932	435.059	89.6015	435.059	89.3819	435.059	89.6202
451.172	92.2699	451.172	92.0524	451.172	92.3174	451.172	91.6698	451.172	92.1963	451.172	91.1299	451.172	91.9145	451.172	90.4388	451.172	91.481	451.172	89.6013	451.172	90.904	451.172	88.6269	451.172	90.197	451.172	87.546	451.172	89.3905	451.172	86.4377	451.172	88.5372	451.172	85.4608	451.172	87.7	451.172	84.8483	451.172	86.9357	451.172	84.7859	451.172	86.3001	451.172	85.2382	451.172	85.8784	451.172	85.972	451.172	85.7791	451.172	86.7401	451.172	86.0409	451.172	87.3806	451.172	86.5552	451.172	87.8102	451.172	87.1347	451.172	87.9933	451.172	87.6224	451.172	87.9245
465.82	91.9875	465.82	91.7644	465.82	92.0321	465.82	91.3662	465.82	91.9006	465.82	90.8042	465.82	91.5968	465.82	90.0973	465.82	91.1265	465.82	89.267	465.82	90.5049	465.82	88.3324	465.82	89.7695	465.82	87.3122	465.82	88.9844	465.82	86.2467	465.82	88.2271	465.82	85.2493	465.82	87.5637	465.82	84.5627	465.82	87.031	465.82	84.4757	465.82	86.6434	465.82	85.0315	465.82	86.4247	465.82	85.9471	465.82	86.435	465.82	86.8983	465.82	86.7289	465.82	87.6968	465.82	87.2571	465.82	88.2629	465.82	87.853	465.82	88.5646	465.82	88.335	465.82	88.5873
483.398	92.2564	483.398	92.094	483.398	92.2222	483.398	91.7364	483.398	92.0073	483.398	91.1984	483.398	91.6451	483.398	90.5048	483.398	91.1762	483.398	89.6888	483.398	90.6317	483.398	88.7868	483.398	90.0248	483.398	87.8261	483.398	89.3597	483.398	86.8156	483.398	88.6478	483.398	85.7626	483.398	87.9161	483.398	84.7393	483.398	87.2105	483.398	83.9836	483.398	86.6119	483.398	83.8622	483.398	86.25	483.398	84.4936	483.398	86.2514	483.398	85.5454	483.398	86.6131	483.398	86.6048	483.398	87.1666	483.398	87.4386	483.398	87.6995	483.398	87.9617	483.398	88.0594	483.398	88.1617
499.512	92.4355	499.512	92.2566	499.512	92.4254	499.512	91.8944	499.512	92.2352	499.512	91.3706	499.512	91.8829	499.512	90.7176	499.512	91.3867	499.512	89.9683	499.512	90.7612	499.512	89.1429	499.512	90.0208	499.512	88.2429	499.512	89.1889	499.512	87.2641	499.512	88.3033	499.512	86.2325	499.512	87.417	499.512	85.2598	499.512	86.6035	499.512	84.5846	499.512	85.9843	499.512	84.4888	499.512	85.7485	499.512	85.0382	499.512	86.044	499.512	85.9825	499.512	86.773	499.512	86.9942	499.512	87.6267	499.512	87.8569	499.512	88.3236	499.512	88.4632	499.512	88.716	499.512	88.7598
517.09	91.6129	517.09	91.5597	517.09	91.5271	517.09	91.3598	517.09	91.3158	517.09	91.0138	517.09	90.9946	517.09	90.531	517.09	90.5784	517.09	89.9291	517.09	90.0809	517.09	89.2353	517.09	89.5148	517.09	88.4844	517.09	88.8895	517.09	87.7088	517.09	88.2075	517.09	86.9242	517.09	87.4596	517.09	86.142	517.09	86.618	517.09	85.4397	517.09	85.6582	517.09	85.0447	517.09	84.6652	517.09	85.2247	517.09	84.0316	517.09	85.9521	517.09	84.3268	517.09	86.8823	517.09	85.4657	517.09	87.6769	517.09	86.7505	517.09	88.1383	517.09	87.7006	517.09	88.1641
536.133	91.4847	536.133	91.3993	536.133	91.3443	536.133	91.1015	536.133	90.9963	536.133	90.6233	536.133	90.4906	536.133	90.0052	536.133	89.8821	536.133	89.2946	536.133	89.195	536.133	88.5494	536.133	88.4255	536.133	87.8316	536.133	87.5938	536.133	87.1839	536.133	86.7937	536.133	86.6058	536.133	86.1713	536.133	86.0677	536.133	85.8052	536.133	85.5826	536.133	85.5986	536.133	85.2865	536.133	85.3571	536.133	85.3921	536.133	85.026	536.133	85.9447	536.133	84.8783	536.133	86.7077	536.133	85.3054	536.133	87.3697	536.133	86.2113	536.133	87.7169	536.133	87.1027	536.133	87.6378
555.176	91.2189	555.176	91.1355	555.176	91.0994	555.176	90.8281	555.176	90.8097	555.176	90.3055	555.176	90.3716	555.176	89.6175	555.176	89.784	555.176	88.8548	555.176	89.0365	555.176	88.1207	555.176	88.1386	555.176	87.4766	555.176	87.1285	555.176	86.9012	555.176	86.0443	555.176	86.3165	555.176	84.909	555.176	85.6665	555.176	83.8014	555.176	84.9944	555.176	82.9795	555.176	84.4746	555.176	82.785	555.176	84.3438	555.176	83.2435	555.176	84.6993	555.176	84.0503	555.176	85.3697	555.176	84.9371	555.176	86.0556	555.176	85.7476	555.176	86.5163	555.176	86.3484	555.176	86.6233
574.219	91.6811	574.219	91.604	574.219	91.5206	574.219	91.3124	574.219	91.1143	574.219	90.8402	574.219	90.4728	574.219	90.2273	574.219	89.6364	574.219	89.5176	574.219	88.6903	574.219	88.768	574.219	87.7551	574.219	88.053	574.219	86.9226	574.219	87.4416	574.219	86.1694	574.219	86.9449	574.219	85.354	574.219	86.5022	574.219	84.3326	574.219	86.0666	574.219	83.1165	574.219	85.7277	574.219	81.993	574.219	85.7004	574.219	81.4718	574.219	86.0753	574.219	81.9116	574.219	86.6464	574.219	83.1625	574.219	87.101	574.219	84.6921	574.219	87.2151	574.219	86.0084	574.219	86.8669
594.727	92.076	594.727	92.2239	594.727	91.6304	594.727	92.0744	594.727	90.9441	594.727	91.6696	594.727	90.1177	594.727	91.0697	594.727	89.2412	594.727	90.3289	594.727	88.3542	594.727	89.4831	594.727	87.4819	594.727	88.5727	594.727	86.6953	594.727	87.6955	594.727	86.1068	594.727	87.0076	594.727	85.783	594.727	86.6065	594.727	85.624	594.727	86.4375	594.727	85.3525	594.727	86.4015	594.727	84.6593	594.727	86.5083	594.727	83.4405	594.727	86.8329	594.727	82.3123	594.727	87.3206	594.727	82.7524	594.727	87.7406	594.727	84.5719	594.727	87.8304	594.727	86.3019	594.727	87.3925
615.234	92.5982	615.234	92.6647	615.234	92.3092	615.234	92.4909	615.234	91.8589	615.234	92.1035	615.234	91.3014	615.234	91.5472	615.234	90.6184	615.234	90.8535	615.234	89.7411	615.234	90.0312	615.234	88.671	615.234	89.0991	615.234	87.5563	615.234	88.1307	615.234	86.6104	615.234	87.2575	615.234	85.9215	615.234	86.6158	615.234	85.4117	615.234	86.2922	615.234	85.094	615.234	86.3362	615.234	85.1779	615.234	86.7585	615.234	85.6015	615.234	87.4352	615.234	85.9386	615.234	88.1063	615.234	86.043	615.234	88.5098	615.234	86.3034	615.234	88.4664	615.234	87.0417	615.234	87.9202
637.207	92.5204	637.207	92.3451	637.207	92.459	637.207	91.9386	637.207	92.1998	637.207	91.3523	637.207	91.7791	637.207	90.6571	637.207	91.1928	637.207	89.9135	637.207	90.4371	637.207	89.1499	637.207	89.5683	637.207	88.3713	637.207	88.6608	637.207	87.5956	637.207	87.7039	637.207	86.8613	637.207	86.6431	637.207	86.1624	637.207	85.5725	637.207	85.4262	637.207	84.7243	637.207	84.7147	637.207	84.1157	637.207	84.4654	637.207	83.5944	637.207	85.0464	637.207	83.4464	637.207	86.0439	637.207	84.1436	637.207	86.8273	637.207	85.3079	637.207	87.1247	637.207	86.3083	637.207	86.9302
659.18	92.4118	659.18	92.23	659.18	92.3248	659.18	91.7911	659.18	91.9758	659.18	91.1595	659.18	91.3626	659.18	90.4494	659.18	90.5036	659.18	89.782	659.18	89.5136	659.18	89.2157	659.18	88.6311	659.18	88.6977	659.18	88.0646	659.18	88.1129	659.18	87.7248	659.18	87.4172	659.18	87.2788	659.18	86.7194	659.18	86.5896	659.18	86.1831	659.18	85.9804	659.18	85.8472	659.18	85.6859	659.18	85.7109	659.18	85.2361	659.18	85.9404	659.18	84.3006	659.18	86.6488	659.18	83.9723	659.18	87.5542	659.18	85.443	659.18	88.1824	659.18	87.2139	659.18	88.1505
682.617	93.3997	682.617	93.2501	682.617	93.1844	682.617	92.7334	682.617	92.6895	682.617	91.9379	682.617	92.049	682.617	91.0201	682.617	91.3582	682.617	90.1236	682.617	90.5896	682.617	89.2928	682.617	89.6311	682.617	88.498	682.617	88.4696	682.617	87.7456	682.617	87.4476	682.617	87.0958	682.617	87.0372	682.617	86.5308	682.617	86.9281	682.617	85.9588	682.617	86.4281	682.617	85.5028	682.617	85.5891	682.617	85.584	682.617	85.4152	682.617	86.3445	682.617	86.1017	682.617	87.353	682.617	86.6494	682.617	88.1247	682.617	86.9326	682.617	88.3928	682.617	87.445	682.617	88.0939
707.52	92.9346	707.52	92.7199	707.52	92.7804	707.52	92.0888	707.52	92.373	707.52	91.1305	707.52	91.768	707.52	90.0621	707.52	90.8989	707.52	89.1166	707.52	89.7336	707.52	88.4086	707.52	88.4435	707.52	87.902	707.52	87.234	707.52	87.4338	707.52	86.0416	707.52	86.8304	707.52	84.8239	707.52	86.0842	707.52	84.0689	707.52	85.357	707.52	84.0603	707.52	84.7759	707.52	84.0487	707.52	84.4544	707.52	83.4212	707.52	84.7193	707.52	82.6773	707.52	85.6073	707.52	82.8966	707.52	86.4863	707.52	83.9814	707.52	86.7894	707.52	85.2847	707.52	86.3434
732.422	92.2748	732.422	92.2329	732.422	92.0103	732.422	91.8396	732.422	91.5613	732.422	91.156	732.422	90.9839	732.422	90.2821	732.422	90.2208	732.422	89.2963	732.422	89.2821	732.422	88.2994	732.422	88.3065	732.422	87.4458	732.422	87.3758	732.422	86.8072	732.422	86.4961	732.422	86.2904	732.422	85.6454	732.422	85.7969	732.422	84.7431	732.422	85.3434	732.422	84.0389	732.422	85.0047	732.422	84.166	732.422	85.0108	732.422	84.6696	732.422	85.7114	732.422	84.4885	732.422	86.9664	732.422	83.7904	732.422	88.1318	732.422	84.5144	732.422	88.657	732.422	86.6432	732.422	88.2077
757.324	92.9783	757.324	92.6804	757.324	92.9912	757.324	92.1964	757.324	92.6912	757.324	91.6294	757.324	92.1191	757.324	91.0101	757.324	91.342	757.324	90.2871	757.324	90.4492	757.324	89.3872	757.324	89.5613	757.324	88.2941	757.324	88.7095	757.324	87.1126	757.324	87.7773	757.324	86.1311	757.324	86.7164	757.324	85.5859	757.324	85.4145	757.324	85.0655	757.324	83.5196	757.324	83.8559	757.324	81.652	757.324	81.9997	757.324	82.2079	757.324	81.3912	757.324	84.0172	757.324	83.2844	757.324	85.154	757.324	85.4466	757.324	85.795	757.324	86.6651	757.324	86.4193	757.324	86.8768
785.156	93.0895	785.156	93.093	785.156	92.6507	785.156	92.5153	785.156	91.994	785.156	91.4328	785.156	91.1089	785.156	90.1205	785.156	89.8709	785.156	88.9319	785.156	88.5143	785.156	88.081	785.156	87.514	785.156	87.4794	785.156	86.8012	785.156	86.8089	785.156	85.7672	785.156	85.8874	785.156	84.3236	785.156	85.0793	785.156	83.726	785.156	84.8524	785.156	84.5516	785.156	84.882	785.156	85.0195	785.156	84.7579	785.156	84.1881	785.156	84.7488	785.156	82.8884	785.156	85.4416	785.156	82.4338	785.156	86.4569	785.156	82.9944	785.156	86.8409	785.156	84.5616	785.156	86.1549
811.523	92.3664	811.523	92.1103	811.523	92.3636	811.523	91.5958	811.523	92.0807	811.523	90.9033	811.523	91.4765	811.523	90.17	811.523	90.6009	811.523	89.4006	811.523	89.5665	811.523	88.4531	811.523	88.4058	811.523	87.2562	811.523	87.1419	811.523	85.8925	811.523	85.8666	811.523	84.4473	811.523	84.4616	811.523	82.9649	811.523	82.4733	811.523	81.9248	811.523	80.4451	811.523	82.1479	811.523	81.3535	811.523	83.3248	811.523	83.5118	811.523	84.571	811.523	84.3714	811.523	85.586	811.523	83.9078	811.523	86.1651	811.523	83.0244	811.523	85.961	811.523	83.3476	811.523	84.8349
840.82	92.2181	840.82	91.995	840.82	92.1693	840.82	91.4232	840.82	92.0167	840.82	90.7564	840.82	91.5715	840.82	90.2758	840.82	90.5628	840.82	89.8721	840.82	89.2839	840.82	89.2418	840.82	88.4351	840.82	88.4223	840.82	87.9954	840.82	87.6093	840.82	87.3157	840.82	86.4531	840.82	86.116	840.82	84.3302	840.82	84.6483	840.82	81.668	840.82	83.0683	840.82	80.8232	840.82	80.6158	840.82	81.8489	840.82	75.3811	840.82	83.0224	840.82	72.9965	840.82	84.3272	840.82	79.9566	840.82	85.3257	840.82	83.1747	840.82	85.3941	840.82	84.3381	840.82	84.8698
870.117	92.7565	870.117	92.5646	870.117	92.4459	870.117	91.8456	870.117	91.6589	870.117	90.7043	870.117	90.4414	870.117	89.4025	870.117	89.133	870.117	88.3501	870.117	88.1836	870.117	87.7802	870.117	87.2671	870.117	87.3509	870.117	85.5854	870.117	86.8026	870.117	83.1663	870.117	86.2404	870.117	81.6191	870.117	85.4815	870.117	81.9347	870.117	84.0214	870.117	82.7733	870.117	81.9999	870.117	83.5404	870.117	80.66	870.117	83.9159	870.117	81.4568	870.117	82.6446	870.117	83.5354	870.117	79.4679	870.117	85.6221	870.117	81.3423	870.117	86.9942	870.117	85.3559	870.117	87.0887
900.879	92.6411	900.879	92.7563	900.879	91.8167	900.879	92.0459	900.879	90.6736	900.879	90.7634	900.879	89.46	900.879	89.3761	900.879	88.061	900.879	88.1276	900.879	86.4328	900.879	86.9214	900.879	84.859	900.879	85.9111	900.879	83.6803	900.879	85.3065	900.879	82.73	900.879	84.6289	900.879	81.2038	900.879	83.6677	900.879	78.8951	900.879	82.8797	900.879	78.0663	900.879	82.0364	900.879	78.8703	900.879	80.5305	900.879	78.9517	900.879	79.2245	900.879	79.5554	900.879	80.065	900.879	79.6666	900.879	82.0347	900.879	78.4562	900.879	83.0812	900.879	79.8593	900.879	82.3654
933.105	91.0098	933.105	91.5502	933.105	90.1391	933.105	91.4275	933.105	89.2447	933.105	90.6402	933.105	87.8974	933.105	89.3035	933.105	85.5249	933.105	87.694	933.105	82.6981	933.105	86.3989	933.105	81.0161	933.105	85.4464	933.105	79.9471	933.105	84.3683	933.105	78.39	933.105	83.5974	933.105	77.2542	933.105	83.5949	933.105	77.5931	933.105	83.5173	933.105	77.536	933.105	82.8623	933.105	76.8322	933.105	81.9796	933.105	78.0009	933.105	82.0245	933.105	77.0896	933.105	83.4138	933.105	74.3801	933.105	84.709	933.105	79.3872	933.105	85.0237	933.105	82.9062	933.105	84.4245
965.332	90.6456	965.332	91.076	965.332	89.4659	965.332	90.8981	965.332	87.6466	965.332	90.4145	965.332	85.1933	965.332	89.6603	965.332	82.7821	965.332	88.2566	965.332	82.7469	965.332	86.1199	965.332	83.5204	965.332	84.3199	965.332	83.1736	965.332	83.621	965.332	82.3373	965.332	83.0969	965.332	81.3226	965.332	82.2343	965.332	79.5472	965.332	81.5814	965.332	78.5204	965.332	81.6828	965.332	78.4756	965.332	82.0934	965.332	76.7037	965.332	82.1244	965.332	75.3496	965.332	82.2104	965.332	76.437	965.332	82.921	965.332	75.7324	965.332	83.2687	965.332	78.8707	965.332	82.1586
1,000.49	90.4586	1,000.49	91.7329	1,000.49	88.7122	1,000.49	91.8793	1,000.49	88.1864	1,000.49	91.2014	1,000.49	88.0782	1,000.49	90.0092	1,000.49	87.4311	1,000.49	88.6762	1,000.49	86.712	1,000.49	87.6568	1,000.49	85.928	1,000.49	87.1364	1,000.49	85.3865	1,000.49	87.1751	1,000.49	85.6553	1,000.49	87.1867	1,000.49	85.6832	1,000.49	86.4037	1,000.49	84.0244	1,000.49	84.8095	1,000.49	80.8991	1,000.49	83.0899	1,000.49	81.3849	1,000.49	82.0829	1,000.49	83.5036	1,000.49	82.712	1,000.49	83.1366	1,000.49	84.3546	1,000.49	80.1715	1,000.49	85.1612	1,000.49	75.5194	1,000.49	84.3774	1,000.49	77.2776	1,000.49	81.8053
1,035.64	89.9902	1,035.64	91.2076	1,035.64	89.4899	1,035.64	92.1457	1,035.64	89.1666	1,035.64	92.3926	1,035.64	88.1304	1,035.64	91.7396	1,035.64	87.9424	1,035.64	89.629	1,035.64	88.8875	1,035.64	86.003	1,035.64	88.8838	1,035.64	83.0051	1,035.64	87.547	1,035.64	82.2062	1,035.64	85.6836	1,035.64	81.7666	1,035.64	84.2753	1,035.64	82.0015	1,035.64	83.6383	1,035.64	82.8396	1,035.64	83.841	1,035.64	83.293	1,035.64	83.4223	1,035.64	82.981	1,035.64	81.3744	1,035.64	82.9023	1,035.64	80.0928	1,035.64	83.6249	1,035.64	80.0579	1,035.64	83.8729	1,035.64	78.3611	1,035.64	82.5558	1,035.64	76.5684	1,035.64	79.4136
1,072.27	89.8767	1,072.27	91.4421	1,072.27	89.2214	1,072.27	92.4026	1,072.27	89.3725	1,072.27	92.359	1,072.27	89.2352	1,072.27	91.4743	1,072.27	89.2542	1,072.27	89.8044	1,072.27	89.316	1,072.27	87.6981	1,072.27	89.1026	1,072.27	86.2459	1,072.27	88.4262	1,072.27	85.0282	1,072.27	87.1165	1,072.27	83.2732	1,072.27	86.1035	1,072.27	83.0261	1,072.27	84.9184	1,072.27	84.1833	1,072.27	81.5663	1,072.27	83.6877	1,072.27	79.6617	1,072.27	81.2413	1,072.27	83.4058	1,072.27	80.2231	1,072.27	85.0994	1,072.27	82.1851	1,072.27	83.8962	1,072.27	83.8618	1,072.27	79.7551	1,072.27	84.0623	1,072.27	80.2792	1,072.27	83.0913
1,108.89	88.884	1,108.89	89.6995	1,108.89	89.1265	1,108.89	90.7536	1,108.89	89.0173	1,108.89	90.9816	1,108.89	88.5105	1,108.89	90.2581	1,108.89	88.8971	1,108.89	88.4539	1,108.89	89.192	1,108.89	85.531	1,108.89	88.4052	1,108.89	82.8859	1,108.89	86.9721	1,108.89	82.458	1,108.89	86.0781	1,108.89	82.3468	1,108.89	85.8922	1,108.89	81.6201	1,108.89	85.3739	1,108.89	81.9588	1,108.89	84.6224	1,108.89	82.5012	1,108.89	83.9373	1,108.89	81.7292	1,108.89	82.8562	1,108.89	80.7602	1,108.89	82.6176	1,108.89	82.1148	1,108.89	82.8501	1,108.89	83.0678	1,108.89	81.0469	1,108.89	81.7222	1,108.89	77.35	1,108.89	78.2882
1,148.44	87.7428	1,148.44	87.2362	1,148.44	88.8968	1,148.44	88.0447	1,148.44	89.6723	1,148.44	89.0718	1,148.44	90.3665	1,148.44	89.4177	1,148.44	91.1098	1,148.44	88.5579	1,148.44	91.2806	1,148.44	86.3686	1,148.44	90.37	1,148.44	83.9897	1,148.44	88.1549	1,148.44	83.3438	1,148.44	85.4881	1,148.44	83.6227	1,148.44	84.8455	1,148.44	82.7711	1,148.44	84.997	1,148.44	81.7042	1,148.44	83.4693	1,148.44	81.1641	1,148.44	82.3013	1,148.44	79.3679	1,148.44	82.4059	1,148.44	76.6351	1,148.44	83.5396	1,148.44	78.4934	1,148.44	84.4995	1,148.44	80.3529	1,148.44	82.4868	1,148.44	80.0024	1,148.44	79.3319	1,148.44	79.5389
1,189.45	90.2842	1,189.45	88.6373	1,189.45	91.5675	1,189.45	87.5933	1,189.45	91.7022	1,189.45	86.2615	1,189.45	91.2137	1,189.45	83.776	1,189.45	90.7217	1,189.45	80.7964	1,189.45	89.6304	1,189.45	78.7215	1,189.45	87.5176	1,189.45	79.0691	1,189.45	84.9737	1,189.45	80.2087	1,189.45	82.5567	1,189.45	81.1113	1,189.45	81.1805	1,189.45	81.3918	1,189.45	80.1371	1,189.45	80.6278	1,189.45	78.8679	1,189.45	80.2858	1,189.45	78.3486	1,189.45	80.6944	1,189.45	79.5151	1,189.45	77.5094	1,189.45	80.8066	1,189.45	74.4843	1,189.45	81.9506	1,189.45	76.9927	1,189.45	82.1671	1,189.45	78.5593	1,189.45	80.8482	1,189.45	79.7512
1,230.47	90.9135	1,230.47	89.9891	1,230.47	91.4737	1,230.47	88.9446	1,230.47	91.0923	1,230.47	87.477	1,230.47	89.8131	1,230.47	85.3678	1,230.47	88.1135	1,230.47	82.8365	1,230.47	86.32	1,230.47	80.9463	1,230.47	84.6082	1,230.47	79.7513	1,230.47	82.0602	1,230.47	76.8118	1,230.47	79.4766	1,230.47	71.49	1,230.47	78.8733	1,230.47	75.3808	1,230.47	77.584	1,230.47	78.7062	1,230.47	75.9468	1,230.47	78.072	1,230.47	75.3547	1,230.47	75.5515	1,230.47	69.1083	1,230.47	72.0066	1,230.47	74.8829	1,230.47	72.7352	1,230.47	79.8994	1,230.47	76.4241	1,230.47	80.2101	1,230.47	78.7285	1,230.47	81.1672	1,230.47	81.2703
1,274.41	90.2126	1,274.41	89.8043	1,274.41	89.954	1,274.41	89.3986	1,274.41	88.5392	1,274.41	88.7327	1,274.41	86.9895	1,274.41	86.8792	1,274.41	86.1591	1,274.41	84.2377	1,274.41	84.8193	1,274.41	82.8698	1,274.41	84.0411	1,274.41	81.5042	1,274.41	83.6803	1,274.41	78.3856	1,274.41	81.6716	1,274.41	73.2178	1,274.41	78.5806	1,274.41	67.505	1,274.41	78.1427	1,274.41	74.9149	1,274.41	78.0614	1,274.41	77.9533	1,274.41	75.1467	1,274.41	78.8553	1,274.41	76.3506	1,274.41	77.19	1,274.41	77.2467	1,274.41	71.2677	1,274.41	77.441	1,274.41	71.5237	1,274.41	78.9478	1,274.41	77.9201	1,274.41	78.9469	1,274.41	79.7896
1,319.82	88.5911	1,319.82	88.4433	1,319.82	88.4087	1,319.82	88.5353	1,319.82	87.5952	1,319.82	88.1957	1,319.82	87.2929	1,319.82	86.1085	1,319.82	86.9058	1,319.82	82.8177	1,319.82	85.7048	1,319.82	81.631	1,319.82	84.8309	1,319.82	81.347	1,319.82	83.4212	1,319.82	80.0689	1,319.82	82.2212	1,319.82	79.2368	1,319.82	79.8976	1,319.82	77.6671	1,319.82	76.9938	1,319.82	76.6002	1,319.82	76.8927	1,319.82	77.3867	1,319.82	77.0853	1,319.82	77.7326	1,319.82	79.4826	1,319.82	76.2434	1,319.82	76.2558	1,319.82	70.5716	1,319.82	77.6183	1,319.82	70.7314	1,319.82	80.0271	1,319.82	77.3953	1,319.82	77.4736	1,319.82	78.6101
1,366.7	88.2	1,366.7	88.3727	1,366.7	88.0213	1,366.7	88.158	1,366.7	87.8726	1,366.7	87.348	1,366.7	87.1336	1,366.7	85.7117	1,366.7	85.2537	1,366.7	83.2129	1,366.7	83.5641	1,366.7	80.4784	1,366.7	83.4042	1,366.7	77.5907	1,366.7	83.0153	1,366.7	76.0032	1,366.7	80.8455	1,366.7	75.7702	1,366.7	77.6467	1,366.7	75.6106	1,366.7	76.7908	1,366.7	73.4595	1,366.7	76.0749	1,366.7	74.0801	1,366.7	74.1998	1,366.7	77.7742	1,366.7	72.1049	1,366.7	77.2777	1,366.7	73.9834	1,366.7	73.5509	1,366.7	76.4836	1,366.7	73.6899	1,366.7	76.1582	1,366.7	76.7744	1,366.7	74.9608	1,366.7	76.7946
1,413.57	89.2881	1,413.57	88.6974	1,413.57	88.8739	1,413.57	88.0923	1,413.57	87.8132	1,413.57	87.3381	1,413.57	86.7344	1,413.57	85.8457	1,413.57	84.2654	1,413.57	84.5489	1,413.57	83.1817	1,413.57	82.9229	1,413.57	83.8276	1,413.57	79.1752	1,413.57	83.4939	1,413.57	73.9505	1,413.57	83.1484	1,413.57	71.8329	1,413.57	81.3206	1,413.57	70.1826	1,413.57	78.5864	1,413.57	68.2342	1,413.57	75.7459	1,413.57	70.1537	1,413.57	72.0117	1,413.57	76.3998	1,413.57	66.4421	1,413.57	78.6684	1,413.57	72.2859	1,413.57	76.0824	1,413.57	74.2333	1,413.57	73.1486	1,413.57	78.2721	1,413.57	77.169	1,413.57	77.5196	1,413.57	76.9043
1,463.38	89.4	1,463.38	89.4606	1,463.38	88.4602	1,463.38	88.6024	1,463.38	87.6215	1,463.38	88.0001	1,463.38	86.3723	1,463.38	87.1464	1,463.38	84.8319	1,463.38	85.9174	1,463.38	84.0126	1,463.38	84.2819	1,463.38	83.2452	1,463.38	80.4094	1,463.38	82.2035	1,463.38	76.3589	1,463.38	81.4095	1,463.38	77.0426	1,463.38	79.0675	1,463.38	73.3947	1,463.38	76.7112	1,463.38	68.8186	1,463.38	78.1493	1,463.38	71.3997	1,463.38	78.2069	1,463.38	75.3452	1,463.38	78.4697	1,463.38	78.0141	1,463.38	75.5276	1,463.38	75.6874	1,463.38	74.5915	1,463.38	75.2273	1,463.38	78.5716	1,463.38	77.917	1,463.38	73.9347	1,463.38	76.8945
1,516.11	88.7171	1,516.11	89.5354	1,516.11	88.4223	1,516.11	89.2174	1,516.11	87.9878	1,516.11	87.7502	1,516.11	86.726	1,516.11	86.5444	1,516.11	85.852	1,516.11	85.9761	1,516.11	84.6983	1,516.11	83.7004	1,516.11	82.7913	1,516.11	79.7223	1,516.11	81.2805	1,516.11	79.1899	1,516.11	80.8227	1,516.11	79.0602	1,516.11	79.1776	1,516.11	78.1697	1,516.11	75.6231	1,516.11	78.7728	1,516.11	74.2767	1,516.11	77.1807	1,516.11	76.4194	1,516.11	73.6202	1,516.11	79.3969	1,516.11	75.2803	1,516.11	76.731	1,516.11	76.619	1,516.11	72.7582	1,516.11	75.2857	1,516.11	77.2721	1,516.11	74.8594	1,516.11	75.4077	1,516.11	73.4456
1,568.85	87.6644	1,568.85	88.4236	1,568.85	87.5828	1,568.85	88.8237	1,568.85	87.1619	1,568.85	87.2261	1,568.85	86.5491	1,568.85	85.5795	1,568.85	85.4972	1,568.85	84.5447	1,568.85	84.6035	1,568.85	81.8722	1,568.85	82.4258	1,568.85	80.9538	1,568.85	81.5083	1,568.85	79.2712	1,568.85	82.0547	1,568.85	77.0432	1,568.85	81.2521	1,568.85	79.4615	1,568.85	77.5358	1,568.85	78.7715	1,568.85	76.4525	1,568.85	77.4466	1,568.85	75.9141	1,568.85	74.4605	1,568.85	73.8744	1,568.85	72.4286	1,568.85	74.6722	1,568.85	75.9899	1,568.85	74.3015	1,568.85	77.6154	1,568.85	72.5357	1,568.85	77.4422	1,568.85	75.2627	1,568.85	73.6131
1,624.51	86.8853	1,624.51	87.3444	1,624.51	86.9552	1,624.51	87.6245	1,624.51	87.7506	1,624.51	87.733	1,624.51	86.6656	1,624.51	86.4693	1,624.51	85.0494	1,624.51	82.7341	1,624.51	84.8544	1,624.51	78.9601	1,624.51	83.7299	1,624.51	80.2637	1,624.51	82.5236	1,624.51	79.6602	1,624.51	81.2684	1,624.51	74.7609	1,624.51	78.4934	1,624.51	72.1897	1,624.51	76.0633	1,624.51	75.2295	1,624.51	76.4586	1,624.51	77.2433	1,624.51	74.2975	1,624.51	75.771	1,624.51	73.139	1,624.51	70.2735	1,624.51	70.9499	1,624.51	70.6518	1,624.51	71.1583	1,624.51	71.7853	1,624.51	77.5563	1,624.51	74.2585	1,624.51	78.7406	1,624.51	73.1833
1,681.64	88.1911	1,681.64	88.3034	1,681.64	87.8423	1,681.64	87.3024	1,681.64	87.8259	1,681.64	87.2123	1,681.64	86.8303	1,681.64	85.9492	1,681.64	86.0965	1,681.64	81.9347	1,681.64	85.5609	1,681.64	79.2442	1,681.64	84.9984	1,681.64	76.8898	1,681.64	84.23	1,681.64	77.0061	1,681.64	83.545	1,681.64	77.2673	1,681.64	82.1158	1,681.64	72.5056	1,681.64	79.9629	1,681.64	59.7665	1,681.64	71.3565	1,681.64	72.0658	1,681.64	73.0099	1,681.64	75.6246	1,681.64	71.4067	1,681.64	74.6453	1,681.64	79.0033	1,681.64	72.4147	1,681.64	72.6563	1,681.64	62.344	1,681.64	78.7689	1,681.64	70.3588	1,681.64	74.1489	1,681.64	76.0664
1,741.7	88.5265	1,741.7	88.9815	1,741.7	87.7608	1,741.7	88.1159	1,741.7	87.3717	1,741.7	86.631	1,741.7	87.0905	1,741.7	85.2595	1,741.7	85.4185	1,741.7	82.4294	1,741.7	83.8862	1,741.7	81.9011	1,741.7	82.6663	1,741.7	82.3473	1,741.7	82.9057	1,741.7	76.0542	1,741.7	84.0461	1,741.7	66.7576	1,741.7	84.6637	1,741.7	63.5699	1,741.7	81.6195	1,741.7	64.4302	1,741.7	76.7709	1,741.7	70.2093	1,741.7	74.3275	1,741.7	75.899	1,741.7	77.9867	1,741.7	76.5812	1,741.7	73.2413	1,741.7	75.2307	1,741.7	75.6555	1,741.7	72.5256	1,741.7	78.9573	1,741.7	74.5093	1,741.7	79.8277	1,741.7	73.3786
1,803.22	88.5612	1,803.22	88.1327	1,803.22	88.5781	1,803.22	86.6582	1,803.22	87.733	1,803.22	85.0504	1,803.22	86.3547	1,803.22	84.5676	1,803.22	84.4462	1,803.22	82.8543	1,803.22	83.2377	1,803.22	83.3923	1,803.22	80.4976	1,803.22	81.6397	1,803.22	81.1251	1,803.22	75.7528	1,803.22	82.5233	1,803.22	77.2798	1,803.22	82.4786	1,803.22	73.2273	1,803.22	81.7855	1,803.22	68.0917	1,803.22	79.239	1,803.22	63.4177	1,803.22	76.0167	1,803.22	72.7225	1,803.22	77.8658	1,803.22	77.248	1,803.22	77.1454	1,803.22	79.9354	1,803.22	73.1098	1,803.22	76.5756	1,803.22	77.5475	1,803.22	71.4363	1,803.22	77.4722	1,803.22	74.9579
1,866.21	87.4629	1,866.21	87.0574	1,866.21	88.385	1,866.21	87.5069	1,866.21	87.3469	1,866.21	87.2609	1,866.21	85.9403	1,866.21	85.6007	1,866.21	85.0471	1,866.21	84.2362	1,866.21	83.7116	1,866.21	83.8578	1,866.21	81.3729	1,866.21	81.5106	1,866.21	79.8127	1,866.21	76.3406	1,866.21	79.7681	1,866.21	78.481	1,866.21	79.2663	1,866.21	76.7619	1,866.21	82.6384	1,866.21	79.2494	1,866.21	78.9941	1,866.21	73.7824	1,866.21	77.6886	1,866.21	70.0086	1,866.21	78.1201	1,866.21	75.3357	1,866.21	75.5241	1,866.21	72.2177	1,866.21	73.5425	1,866.21	74.3879	1,866.21	76.6813	1,866.21	71.9743	1,866.21	78.0489	1,866.21	70.7611
1,932.13	87.2293	1,932.13	87.2849	1,932.13	88.8942	1,932.13	88.5081	1,932.13	88.4057	1,932.13	87.8702	1,932.13	86.5723	1,932.13	85.44	1,932.13	86.0326	1,932.13	84.293	1,932.13	85.3193	1,932.13	82.2056	1,932.13	84.4882	1,932.13	79.3774	1,932.13	81.0084	1,932.13	73.1815	1,932.13	78.5091	1,932.13	77.4783	1,932.13	75.8794	1,932.13	79.6582	1,932.13	80.114	1,932.13	80.7844	1,932.13	77.2679	1,932.13	77.1656	1,932.13	77.503	1,932.13	73.6275	1,932.13	81.6551	1,932.13	76.2816	1,932.13	75.125	1,932.13	75.5804	1,932.13	75.6858	1,932.13	73.3975	1,932.13	77.0241	1,932.13	72.0551	1,932.13	79.4161	1,932.13	69.8829
1,999.51	89.6035	1,999.51	88.3722	1,999.51	89.4617	1,999.51	87.1809	1,999.51	88.3619	1,999.51	87.3535	1,999.51	86.7758	1,999.51	87.4775	1,999.51	86.0921	1,999.51	84.9991	1,999.51	85.8752	1,999.51	83.293	1,999.51	84.4451	1,999.51	81.564	1,999.51	82.9353	1,999.51	75.6064	1,999.51	79.4988	1,999.51	70.9513	1,999.51	78.5465	1,999.51	67.4921	1,999.51	80.8227	1,999.51	77.1318	1,999.51	80.4993	1,999.51	77.0022	1,999.51	76.3528	1,999.51	61.6792	1,999.51	76.1834	1,999.51	75.8378	1,999.51	77.3415	1,999.51	75.1003	1,999.51	76.1778	1,999.51	70.839	1,999.51	77.0776	1,999.51	71.5616	1,999.51	77.4166	1,999.51	73.9065
2,069.82	90.1245	2,069.82	89.0375	2,069.82	89.56	2,069.82	87.0401	2,069.82	88.1645	2,069.82	86.8463	2,069.82	86.3095	2,069.82	86.8808	2,069.82	86.5738	2,069.82	84.9336	2,069.82	85.6384	2,069.82	82.4297	2,069.82	85.1461	2,069.82	77.7457	2,069.82	82.8021	2,069.82	78.8111	2,069.82	80.1511	2,069.82	78.3328	2,069.82	80.2944	2,069.82	73.6119	2,069.82	80.1704	2,069.82	72.4258	2,069.82	78.8372	2,069.82	76.4428	2,069.82	74.322	2,069.82	68.8694	2,069.82	72.4096	2,069.82	74.475	2,069.82	75.7451	2,069.82	76.6159	2,069.82	75.0165	2,069.82	70.9701	2,069.82	76.831	2,069.82	70.5733	2,069.82	77.1925	2,069.82	73.4173
2,143.07	89.2255	2,143.07	88.4443	2,143.07	89.1278	2,143.07	87.8407	2,143.07	87.7988	2,143.07	86.4351	2,143.07	86.2792	2,143.07	85.7625	2,143.07	85.8466	2,143.07	84.0481	2,143.07	85.3279	2,143.07	81.6397	2,143.07	84.0512	2,143.07	79.445	2,143.07	81.4787	2,143.07	75.8572	2,143.07	80.6582	2,143.07	72.6306	2,143.07	79.6927	2,143.07	72.4133	2,143.07	79.6107	2,143.07	70.4324	2,143.07	78.3031	2,143.07	73.9644	2,143.07	75.9319	2,143.07	72.072	2,143.07	73.3638	2,143.07	70.4555	2,143.07	73.8541	2,143.07	75.512	2,143.07	75.5538	2,143.07	68.2111	2,143.07	73.9598	2,143.07	66.9591	2,143.07	76.3587	2,143.07	72.0053
2,219.24	88.9319	2,219.24	87.5594	2,219.24	88.8963	2,219.24	86.8682	2,219.24	87.2819	2,219.24	86.3128	2,219.24	85.6644	2,219.24	83.7721	2,219.24	84.9248	2,219.24	81.3309	2,219.24	85.235	2,219.24	82.0949	2,219.24	83.489	2,219.24	77.2939	2,219.24	81.6919	2,219.24	75.2003	2,219.24	78.8847	2,219.24	77.83	2,219.24	79.2929	2,219.24	71.96	2,219.24	78.1477	2,219.24	68.4723	2,219.24	76.7441	2,219.24	72.6615	2,219.24	75.8745	2,219.24	73.5783	2,219.24	73.8252	2,219.24	66.2009	2,219.24	73.1918	2,219.24	73.8973	2,219.24	74.116	2,219.24	66.7769	2,219.24	72.8511	2,219.24	65.5011	2,219.24	75.5537	2,219.24	74.1753
2,296.88	89.7433	2,296.88	87.9713	2,296.88	89.3832	2,296.88	86.3733	2,296.88	87.3251	2,296.88	84.7101	2,296.88	84.2997	2,296.88	81.2238	2,296.88	84.757	2,296.88	81.3544	2,296.88	84.3388	2,296.88	81.5571	2,296.88	82.9972	2,296.88	81.7522	2,296.88	80.9424	2,296.88	80.0923	2,296.88	80.937	2,296.88	77.1719	2,296.88	79.28	2,296.88	76.6256	2,296.88	68.7534	2,296.88	70.9441	2,296.88	65.506	2,296.88	70.8122	2,296.88	73.8895	2,296.88	76.2067	2,296.88	73.8465	2,296.88	65.965	2,296.88	72.4435	2,296.88	73.5949	2,296.88	73.2398	2,296.88	65.7808	2,296.88	70.5657	2,296.88	44.2209	2,296.88	72.7062	2,296.88	71.3722
2,378.91	89.004	2,378.91	88.3133	2,378.91	89.1977	2,378.91	86.2159	2,378.91	87.235	2,378.91	82.4169	2,378.91	84.9968	2,378.91	82.3334	2,378.91	84.6964	2,378.91	80.2641	2,378.91	83.9246	2,378.91	81.1975	2,378.91	82.9228	2,378.91	81.5447	2,378.91	81.7422	2,378.91	73.3058	2,378.91	83.2721	2,378.91	73.2699	2,378.91	82.3069	2,378.91	72.4908	2,378.91	76.4056	2,378.91	76.533	2,378.91	75.0081	2,378.91	67.3021	2,378.91	69.9889	2,378.91	75.2478	2,378.91	75.0722	2,378.91	69.0398	2,378.91	74.5027	2,378.91	70.3866	2,378.91	73.5847	2,378.91	65.9426	2,378.91	73.0979	2,378.91	58.3253	2,378.91	74.4919	2,378.91	70.9939
2,462.4	89.1459	2,462.4	88.2232	2,462.4	89.092	2,462.4	86.4149	2,462.4	87.7725	2,462.4	83.8684	2,462.4	85.3289	2,462.4	82.4381	2,462.4	85.0068	2,462.4	82.2019	2,462.4	85.187	2,462.4	78.5955	2,462.4	85.5316	2,462.4	77.2726	2,462.4	83.1174	2,462.4	80.2445	2,462.4	79.328	2,462.4	76.4483	2,462.4	79.8878	2,462.4	75.1339	2,462.4	76.6128	2,462.4	74.3571	2,462.4	78.1133	2,462.4	69.9881	2,462.4	75.6738	2,462.4	75.3116	2,462.4	77.5227	2,462.4	72.6963	2,462.4	77.1551	2,462.4	65.3336	2,462.4	73.0195	2,462.4	65.3462	2,462.4	76.6212	2,462.4	66.935	2,462.4	75.4302	2,462.4	73.8396
2,548.83	90.1003	2,548.83	90.0995	2,548.83	89.1154	2,548.83	89.0588	2,548.83	86.6107	2,548.83	87.0062	2,548.83	83.4292	2,548.83	80.838	2,548.83	83.2434	2,548.83	73.5788	2,548.83	85.1828	2,548.83	72.6124	2,548.83	87.1954	2,548.83	77.5471	2,548.83	84.2278	2,548.83	69.647	2,548.83	86.4748	2,548.83	73.5163	2,548.83	82.6223	2,548.83	74.8728	2,548.83	76.6118	2,548.83	76.0866	2,548.83	72.2979	2,548.83	72.9415	2,548.83	78.8992	2,548.83	70.4931	2,548.83	74.92	2,548.83	72.1431	2,548.83	73.1205	2,548.83	65.8461	2,548.83	76.6448	2,548.83	59.5835	2,548.83	78.5071	2,548.83	63.73	2,548.83	76.3264	2,548.83	74.9513
2,639.65	87.935	2,639.65	89.2406	2,639.65	86.2554	2,639.65	89.6705	2,639.65	83.1273	2,639.65	87.9778	2,639.65	82.0886	2,639.65	82.4981	2,639.65	84.7103	2,639.65	77.5609	2,639.65	87.5716	2,639.65	63.5896	2,639.65	87.3678	2,639.65	68.9331	2,639.65	86.8655	2,639.65	76.2024	2,639.65	86.5231	2,639.65	77.8065	2,639.65	81.2339	2,639.65	71.7108	2,639.65	79.6147	2,639.65	68.5157	2,639.65	77.0345	2,639.65	73.6977	2,639.65	77.3704	2,639.65	65.987	2,639.65	74.6203	2,639.65	68.0279	2,639.65	73.6056	2,639.65	65.9963	2,639.65	74.8739	2,639.65	65.6817	2,639.65	78.3805	2,639.65	67.8555	2,639.65	75.5528	2,639.65	70.5268
2,731.93	87.2412	2,731.93	88.8257	2,731.93	85.4355	2,731.93	88.8434	2,731.93	81.7887	2,731.93	85.8877	2,731.93	82.5872	2,731.93	83.1802	2,731.93	84.885	2,731.93	78.3912	2,731.93	87.3469	2,731.93	75.8558	2,731.93	85.6632	2,731.93	73.9526	2,731.93	85.0098	2,731.93	62.7118	2,731.93	82.0331	2,731.93	65.2808	2,731.93	78.8979	2,731.93	58.4795	2,731.93	81.8595	2,731.93	66.735	2,731.93	77.4869	2,731.93	68.4539	2,731.93	72.8391	2,731.93	70.8384	2,731.93	73.0209	2,731.93	64.7166	2,731.93	72.6924	2,731.93	69.1897	2,731.93	72.323	2,731.93	65.4138	2,731.93	73.8894	2,731.93	63.7817	2,731.93	73.411	2,731.93	72.0461
2,828.61	88.868	2,828.61	89.7723	2,828.61	86.6583	2,828.61	89.0786	2,828.61	82.0257	2,828.61	86.5946	2,828.61	80.2802	2,828.61	78.6403	2,828.61	85.2862	2,828.61	72.0104	2,828.61	88.1568	2,828.61	76.7492	2,828.61	86.739	2,828.61	74.7431	2,828.61	86.3722	2,828.61	72.1197	2,828.61	83.6535	2,828.61	66.2379	2,828.61	80.2703	2,828.61	75.7873	2,828.61	85.8321	2,828.61	72.4725	2,828.61	81.021	2,828.61	71.2844	2,828.61	74.0184	2,828.61	71.9709	2,828.61	65.0257	2,828.61	69.8422	2,828.61	76.3667	2,828.61	70.4288	2,828.61	72.849	2,828.61	66.4043	2,828.61	73.8082	2,828.61	67.3605	2,828.61	69.4933	2,828.61	69.7823
2,928.22	89.7278	2,928.22	91.3552	2,928.22	85.452	2,928.22	91.8046	2,928.22	74.7533	2,928.22	88.8167	2,928.22	83.1956	2,928.22	80.638	2,928.22	88.768	2,928.22	70.2279	2,928.22	90.3767	2,928.22	77.2174	2,928.22	88.1923	2,928.22	73.3532	2,928.22	86.9005	2,928.22	73.7946	2,928.22	76.5851	2,928.22	77.0843	2,928.22	84.2123	2,928.22	74.1824	2,928.22	86.3884	2,928.22	75.3942	2,928.22	83.1299	2,928.22	71.0091	2,928.22	77.5274	2,928.22	72.359	2,928.22	76.5419	2,928.22	72.3	2,928.22	71.9085	2,928.22	69.6451	2,928.22	71.8743	2,928.22	63.8036	2,928.22	77.0891	2,928.22	67.768	2,928.22	63.1119	2,928.22	69.1548
3,030.76	88.7012	3,030.76	92.1189	3,030.76	77.9058	3,030.76	92.8377	3,030.76	81.6434	3,030.76	89.9827	3,030.76	88.0853	3,030.76	84.9887	3,030.76	90.5296	3,030.76	73.8065	3,030.76	90.1173	3,030.76	72.4895	3,030.76	86.6799	3,030.76	73.2036	3,030.76	85.4722	3,030.76	77.8109	3,030.76	78.989	3,030.76	72.0593	3,030.76	84.7887	3,030.76	65.0536	3,030.76	82.1629	3,030.76	70.4479	3,030.76	81.1654	3,030.76	73.2309	3,030.76	75.7234	3,030.76	66.3962	3,030.76	76.4424	3,030.76	71.545	3,030.76	70.7745	3,030.76	71.4041	3,030.76	67.1988	3,030.76	63.8895	3,030.76	76.616	3,030.76	68.6448	3,030.76	71.4862	3,030.76	70.7829
3,137.7	83.2821	3,137.7	89.5097	3,137.7	77.0084	3,137.7	91.0041	3,137.7	88.3428	3,137.7	89.996	3,137.7	90.5738	3,137.7	86.0898	3,137.7	89.3191	3,137.7	80.0636	3,137.7	88.1541	3,137.7	68.9398	3,137.7	84.2196	3,137.7	73.4094	3,137.7	79.8453	3,137.7	69.2739	3,137.7	79.3836	3,137.7	67.2926	3,137.7	78.7522	3,137.7	73.0594	3,137.7	73.7654	3,137.7	68.0569	3,137.7	74.7024	3,137.7	70.7072	3,137.7	69.9924	3,137.7	70.0997	3,137.7	71.862	3,137.7	71.4503	3,137.7	58.1914	3,137.7	72.7531	3,137.7	56.3258	3,137.7	73.782	3,137.7	70.5549	3,137.7	72.4098	3,137.7	74.1287	3,137.7	72.0311
3,249.02	80.7127	3,249.02	86.7941	3,249.02	84.9087	3,249.02	89.8039	3,249.02	89.6983	3,249.02	88.9919	3,249.02	89.6917	3,249.02	85.1113	3,249.02	86.9404	3,249.02	80.1313	3,249.02	83.3923	3,249.02	72.853	3,249.02	78.1992	3,249.02	55.9887	3,249.02	73.1374	3,249.02	54.6487	3,249.02	71.395	3,249.02	66.9843	3,249.02	66.4857	3,249.02	70.7303	3,249.02	69.9867	3,249.02	70.8611	3,249.02	70.4839	3,249.02	54.843	3,249.02	68.8314	3,249.02	67.5649	3,249.02	61.7966	3,249.02	61.3324	3,249.02	61.6135	3,249.02	69.0709	3,249.02	62.3368	3,249.02	70.6938	3,249.02	59.3893	3,249.02	66.5263	3,249.02	67.4861	3,249.02	64.4399
3,363.28	84.1489	3,363.28	86.9368	3,363.28	85.9029	3,363.28	88.9556	3,363.28	88.5874	3,363.28	87.6946	3,363.28	88.5236	3,363.28	83.4798	3,363.28	84.2485	3,363.28	77.9057	3,363.28	79.1599	3,363.28	73.987	3,363.28	70.0983	3,363.28	70.3544	3,363.28	67.3686	3,363.28	69.8342	3,363.28	72.1394	3,363.28	66.2675	3,363.28	70.1623	3,363.28	61.9761	3,363.28	74.6594	3,363.28	65.6387	3,363.28	71.453	3,363.28	65.0554	3,363.28	67.9692	3,363.28	58.4728	3,363.28	57.6662	3,363.28	57.2099	3,363.28	64.107	3,363.28	63.3366	3,363.28	58.3937	3,363.28	65.8696	3,363.28	56.4958	3,363.28	66.1162	3,363.28	66.7685	3,363.28	62.1933
3,481.93	85.9856	3,481.93	87.4843	3,481.93	87.2284	3,481.93	88.4798	3,481.93	88.8397	3,481.93	86.9746	3,481.93	87.4984	3,481.93	81.6118	3,481.93	82.8045	3,481.93	74.5903	3,481.93	78.891	3,481.93	72.9315	3,481.93	70.4152	3,481.93	70.2159	3,481.93	68.7414	3,481.93	71.3069	3,481.93	70.4579	3,481.93	67.8268	3,481.93	74.102	3,481.93	66.4153	3,481.93	76.7639	3,481.93	66.547	3,481.93	74.0387	3,481.93	63.1358	3,481.93	64.2391	3,481.93	62.9836	3,481.93	62.1012	3,481.93	61.5869	3,481.93	63.5018	3,481.93	63.3755	3,481.93	63.7223	3,481.93	65.8272	3,481.93	61.5195	3,481.93	63.7068	3,481.93	66.6313	3,481.93	64.5051
3,604.98	86.8928	3,604.98	88.2836	3,604.98	87.568	3,604.98	88.2797	3,604.98	89.5868	3,604.98	86.3906	3,604.98	87.8562	3,604.98	80.6033	3,604.98	82.4532	3,604.98	72.2072	3,604.98	80.0387	3,604.98	71.0837	3,604.98	73.2712	3,604.98	69.2142	3,604.98	64.6492	3,604.98	70.056	3,604.98	75.2059	3,604.98	68.2506	3,604.98	78.0153	3,604.98	66.4988	3,604.98	78.4552	3,604.98	65.5401	3,604.98	73.8761	3,604.98	60.5058	3,604.98	71.4387	3,604.98	59.5532	3,604.98	67.8306	3,604.98	60.0802	3,604.98	56.2369	3,604.98	66.2547	3,604.98	65.9378	3,604.98	67.7589	3,604.98	67.1481	3,604.98	48.25	3,604.98	58.0896	3,604.98	57.9519
3,732.42	88.1882	3,732.42	88.7423	3,732.42	88.4457	3,732.42	87.4347	3,732.42	89.4975	3,732.42	84.1299	3,732.42	87.8372	3,732.42	79.4033	3,732.42	84.4599	3,732.42	72.3065	3,732.42	78.5001	3,732.42	67.2439	3,732.42	74.7619	3,732.42	66.7945	3,732.42	71.543	3,732.42	62.4074	3,732.42	77.6105	3,732.42	65.2026	3,732.42	79.0641	3,732.42	61.9559	3,732.42	77.2812	3,732.42	54.1295	3,732.42	77.7477	3,732.42	58.4623	3,732.42	75.881	3,732.42	62.8541	3,732.42	71.7916	3,732.42	65.1389	3,732.42	59.8844	3,732.42	66.8168	3,732.42	66.2778	3,732.42	66.1214	3,732.42	70.2726	3,732.42	62.2652	3,732.42	62.2983	3,732.42	56.737
3,864.26	87.2058	3,864.26	87.4806	3,864.26	88.3254	3,864.26	86.7328	3,864.26	88.4005	3,864.26	82.8578	3,864.26	86.3261	3,864.26	76.2239	3,864.26	82.622	3,864.26	65.8018	3,864.26	75.7155	3,864.26	59.9399	3,864.26	76.0005	3,864.26	66.6506	3,864.26	69.3338	3,864.26	58.6047	3,864.26	79.7986	3,864.26	62.377	3,864.26	78.9017	3,864.26	62.1103	3,864.26	78.8856	3,864.26	56.5397	3,864.26	81.1902	3,864.26	56.8341	3,864.26	74.6981	3,864.26	67.2861	3,864.26	70.7165	3,864.26	70.1698	3,864.26	69.6941	3,864.26	67.8347	3,864.26	68.9239	3,864.26	66.6675	3,864.26	68.5325	3,864.26	68.7175	3,864.26	66.7535	3,864.26	64.1782
4,000.49	87.3924	4,000.49	86.849	4,000.49	86.9484	4,000.49	85.827	4,000.49	86.1899	4,000.49	81.6969	4,000.49	85.2465	4,000.49	73.346	4,000.49	80.7839	4,000.49	69.75	4,000.49	76.6747	4,000.49	68.7042	4,000.49	76.7539	4,000.49	74.2666	4,000.49	75.079	4,000.49	72.8176	4,000.49	80.7313	4,000.49	70.5634	4,000.49	79.4711	4,000.49	63.5564	4,000.49	83.594	4,000.49	67.4564	4,000.49	83.1389	4,000.49	66.745	4,000.49	76.1344	4,000.49	69.06	4,000.49	69.6632	4,000.49	71.6409	4,000.49	72.7713	4,000.49	67.9654	4,000.49	69.8091	4,000.49	61.4461	4,000.49	65.8778	4,000.49	67.8771	4,000.49	68.7666	4,000.49	62.3919
4,141.11	88.4961	4,141.11	87.2014	4,141.11	87.0242	4,141.11	85.6523	4,141.11	86.2128	4,141.11	81.3652	4,141.11	84.1676	4,141.11	72.7176	4,141.11	82.5798	4,141.11	70.107	4,141.11	81.3512	4,141.11	73.5591	4,141.11	77.1435	4,141.11	77.5208	4,141.11	74.6589	4,141.11	73.4172	4,141.11	80.1636	4,141.11	73.5081	4,141.11	80.8496	4,141.11	71.045	4,141.11	85.4286	4,141.11	69.0473	4,141.11	81.5351	4,141.11	67.6646	4,141.11	78.5903	4,141.11	65.9264	4,141.11	72.7	4,141.11	73.0476	4,141.11	72.8276	4,141.11	68.8107	4,141.11	69.0877	4,141.11	53.277	4,141.11	67.5874	4,141.11	70.1327	4,141.11	70.9646	4,141.11	62.9877
4,287.6	89.6298	4,287.6	87.1976	4,287.6	88.268	4,287.6	85.1588	4,287.6	87.3182	4,287.6	80.5992	4,287.6	84.6368	4,287.6	68.3647	4,287.6	84.6346	4,287.6	75.5613	4,287.6	82.3685	4,287.6	78.3814	4,287.6	69.2329	4,287.6	78.9416	4,287.6	75.0515	4,287.6	77.0713	4,287.6	81.9034	4,287.6	72.2654	4,287.6	80.9565	4,287.6	69.5099	4,287.6	84.2011	4,287.6	72.2411	4,287.6	80.6337	4,287.6	71.0315	4,287.6	76.6948	4,287.6	67.7105	4,287.6	73.9531	4,287.6	72.4252	4,287.6	69.1549	4,287.6	69.547	4,287.6	64.4639	4,287.6	55.8169	4,287.6	67.621	4,287.6	71.0145	4,287.6	71.1147	4,287.6	61.9764
4,438.48	90.7468	4,438.48	88.7463	4,438.48	90.3595	4,438.48	85.7042	4,438.48	88.8408	4,438.48	81.737	4,438.48	85.7774	4,438.48	76.4932	4,438.48	84.4196	4,438.48	78.5455	4,438.48	80.765	4,438.48	78.8517	4,438.48	61.7007	4,438.48	79.5997	4,438.48	78.3575	4,438.48	77.0722	4,438.48	82.5728	4,438.48	72.3007	4,438.48	84.0497	4,438.48	70.9296	4,438.48	84.8678	4,438.48	68.8566	4,438.48	83.0735	4,438.48	70.0549	4,438.48	73.2568	4,438.48	67.4348	4,438.48	68.0636	4,438.48	72.3568	4,438.48	62.363	4,438.48	67.6246	4,438.48	65.429	4,438.48	56.8495	4,438.48	68.2133	4,438.48	68.7088	4,438.48	70.3672	4,438.48	63.7441
4,595.21	92.2239	4,595.21	90.7644	4,595.21	92.5874	4,595.21	87.4176	4,595.21	90.974	4,595.21	84.6468	4,595.21	88.7474	4,595.21	79.6375	4,595.21	85.1265	4,595.21	81.0133	4,595.21	81.2834	4,595.21	80.3233	4,595.21	73.3154	4,595.21	80.3003	4,595.21	78.6457	4,595.21	74.1201	4,595.21	82.3112	4,595.21	72.972	4,595.21	86.1286	4,595.21	66.0859	4,595.21	88.0998	4,595.21	70.3633	4,595.21	86.7968	4,595.21	69.3561	4,595.21	74.7731	4,595.21	65.5996	4,595.21	67.7364	4,595.21	71.6997	4,595.21	60.9879	4,595.21	67.044	4,595.21	67.9374	4,595.21	55.5762	4,595.21	65.7234	4,595.21	67.4814	4,595.21	67.487	4,595.21	58.8827
4,756.35	91.1013	4,756.35	88.946	4,756.35	90.3097	4,756.35	85.017	4,756.35	87.129	4,756.35	80.5579	4,756.35	85.8354	4,756.35	76.3192	4,756.35	83.2396	4,756.35	79.2029	4,756.35	72.2371	4,756.35	78.1255	4,756.35	76.3893	4,756.35	75.7889	4,756.35	76.8053	4,756.35	71.9752	4,756.35	79.1487	4,756.35	65.5587	4,756.35	84.1891	4,756.35	63.2898	4,756.35	85.3679	4,756.35	57.31	4,756.35	83.3466	4,756.35	65.7748	4,756.35	72.7005	4,756.35	63.4719	4,756.35	66.1522	4,756.35	67.4998	4,756.35	67.3551	4,756.35	64.2219	4,756.35	62.2247	4,756.35	54.2046	4,756.35	64.5126	4,756.35	64.4455	4,756.35	63.3019	4,756.35	61.6978
4,924.8	91.8353	4,924.8	89.87	4,924.8	90.5683	4,924.8	86.0639	4,924.8	87.8188	4,924.8	84.0373	4,924.8	89.0466	4,924.8	85.076	4,924.8	85.9054	4,924.8	85.4242	4,924.8	69.6088	4,924.8	82.9922	4,924.8	82.7805	4,924.8	80.1252	4,924.8	81.0572	4,924.8	74.7639	4,924.8	83.5664	4,924.8	69.6837	4,924.8	87.7808	4,924.8	64.7209	4,924.8	89.0352	4,924.8	64.3506	4,924.8	88.0062	4,924.8	68.0678	4,924.8	79.869	4,924.8	64.8181	4,924.8	63.9681	4,924.8	71.4269	4,924.8	69.4218	4,924.8	66.6258	4,924.8	67.2595	4,924.8	64.6698	4,924.8	67.1351	4,924.8	65.0874	4,924.8	66.4729	4,924.8	65.3405
5,097.66	91.056	5,097.66	89.7331	5,097.66	89.1831	5,097.66	86.2111	5,097.66	89.1802	5,097.66	87.2727	5,097.66	91.137	5,097.66	87.6608	5,097.66	89.0598	5,097.66	84.4463	5,097.66	75.6752	5,097.66	79.5048	5,097.66	81.202	5,097.66	73.4742	5,097.66	80.4059	5,097.66	67.3986	5,097.66	84.514	5,097.66	56.7687	5,097.66	88.136	5,097.66	56.9065	5,097.66	90.0953	5,097.66	54.6455	5,097.66	88.6507	5,097.66	61.0912	5,097.66	78.8016	5,097.66	57.7157	5,097.66	68.7773	5,097.66	60.7825	5,097.66	67.9734	5,097.66	64.2263	5,097.66	63.1512	5,097.66	63.8353	5,097.66	65.758	5,097.66	59.1987	5,097.66	66.6434	5,097.66	63.8086
5,277.83	90.6855	5,277.83	90.1585	5,277.83	88.184	5,277.83	87.8606	5,277.83	88.7348	5,277.83	87.1486	5,277.83	89.1188	5,277.83	85.063	5,277.83	85.5885	5,277.83	81.3052	5,277.83	75.9562	5,277.83	74.446	5,277.83	70.6172	5,277.83	67.8121	5,277.83	71.168	5,277.83	65.6552	5,277.83	79.985	5,277.83	55.7715	5,277.83	84.3685	5,277.83	55.5317	5,277.83	87.9818	5,277.83	55.5444	5,277.83	86.1558	5,277.83	60.2227	5,277.83	74.6135	5,277.83	62.2246	5,277.83	61.4317	5,277.83	53.7663	5,277.83	52.5695	5,277.83	46.0232	5,277.83	44.7665	5,277.83	61.799	5,277.83	58.2042	5,277.83	60.4224	5,277.83	61.8247	5,277.83	61.9935
5,463.87	92.495	5,463.87	91.7498	5,463.87	90.9995	5,463.87	87.0313	5,463.87	90.2158	5,463.87	87.4158	5,463.87	88.7488	5,463.87	83.7864	5,463.87	83.0352	5,463.87	76.5768	5,463.87	74.9741	5,463.87	65.6142	5,463.87	64.6568	5,463.87	69.338	5,463.87	67.2876	5,463.87	67.8244	5,463.87	75.497	5,463.87	65.0246	5,463.87	83.7725	5,463.87	60.2669	5,463.87	87.5393	5,463.87	60.5161	5,463.87	85.5476	5,463.87	60.5498	5,463.87	72.7359	5,463.87	66.4697	5,463.87	56.9305	5,463.87	60.7167	5,463.87	55.9594	5,463.87	61.3286	5,463.87	54.6878	5,463.87	61.7047	5,463.87	42.7044	5,463.87	62.4059	5,463.87	49.6808	5,463.87	62.7138
5,657.23	90.8041	5,657.23	89.123	5,657.23	90.2682	5,657.23	86.1062	5,657.23	87.5108	5,657.23	84.3855	5,657.23	86.4768	5,657.23	79.9549	5,657.23	80.8549	5,657.23	71.5287	5,657.23	71.9024	5,657.23	69.0976	5,657.23	70.5998	5,657.23	67.6242	5,657.23	70.7309	5,657.23	67.4913	5,657.23	68.6244	5,657.23	63.4232	5,657.23	80.1227	5,657.23	62.2811	5,657.23	84.0066	5,657.23	59.384	5,657.23	82.1991	5,657.23	61.0646	5,657.23	70.1609	5,657.23	63.6549	5,657.23	59.1289	5,657.23	62.2509	5,657.23	57.2147	5,657.23	63.7725	5,657.23	48.7136	5,657.23	60.3175	5,657.23	45.6586	5,657.23	63.1995	5,657.23	46.3833	5,657.23	57.6524
5,856.45	87.2223	5,856.45	84.5474	5,856.45	85.5737	5,856.45	82.2644	5,856.45	81.8612	5,856.45	80.2098	5,856.45	82.2769	5,856.45	71.6314	5,856.45	72.1506	5,856.45	49.0922	5,856.45	66.942	5,856.45	68.5137	5,856.45	68.4798	5,856.45	69.2901	5,856.45	66.7227	5,856.45	66.4347	5,856.45	68.1486	5,856.45	64.6101	5,856.45	76.5276	5,856.45	58.0455	5,856.45	79.1835	5,856.45	56.3343	5,856.45	78.2929	5,856.45	58.2904	5,856.45	66.4382	5,856.45	61.521	5,856.45	59.0074	5,856.45	62.8487	5,856.45	59.9536	5,856.45	62.2562	5,856.45	36.7066	5,856.45	61.1351	5,856.45	52.4511	5,856.45	56.2642	5,856.45	51.631	5,856.45	54.167
6,062.99	85.2522	6,062.99	83.1321	6,062.99	83.3587	6,062.99	79.5665	6,062.99	80.864	6,062.99	78.2114	6,062.99	77.4226	6,062.99	67.6548	6,062.99	70.7647	6,062.99	58.6323	6,062.99	70.4766	6,062.99	71.1056	6,062.99	65.4724	6,062.99	71.7864	6,062.99	67.8802	6,062.99	68.316	6,062.99	68.4826	6,062.99	64.7637	6,062.99	72.9708	6,062.99	58.5341	6,062.99	77.2634	6,062.99	59.5557	6,062.99	74.682	6,062.99	59.3088	6,062.99	60.5459	6,062.99	60.284	6,062.99	46.4724	6,062.99	64.1866	6,062.99	60.6341	6,062.99	60.6464	6,062.99	51.4834	6,062.99	56.9512	6,062.99	56.3028	6,062.99	56.5445	6,062.99	51.6631	6,062.99	57.0983
6,276.86	86.4808	6,276.86	83.4589	6,276.86	85.6509	6,276.86	80.1756	6,276.86	82.3662	6,276.86	78.6629	6,276.86	76.8625	6,276.86	63.1803	6,276.86	73.6178	6,276.86	71.878	6,276.86	71.3775	6,276.86	73.9915	6,276.86	60.4593	6,276.86	72.6685	6,276.86	56.487	6,276.86	67.0607	6,276.86	66.1533	6,276.86	59.0104	6,276.86	71.8008	6,276.86	45.4925	6,276.86	76.7686	6,276.86	38.4101	6,276.86	76.0233	6,276.86	49.1863	6,276.86	65.9737	6,276.86	55.6201	6,276.86	58.7577	6,276.86	61.8011	6,276.86	58.9729	6,276.86	55.4363	6,276.86	57.2774	6,276.86	47.7269	6,276.86	61.6395	6,276.86	52.602	6,276.86	54.4717	6,276.86	55.0085
6,498.05	86.8714	6,498.05	83.2885	6,498.05	87.5497	6,498.05	81.4508	6,498.05	82.2977	6,498.05	76.7335	6,498.05	76.6311	6,498.05	62.2289	6,498.05	74.5294	6,498.05	75.5922	6,498.05	69.4491	6,498.05	73.2601	6,498.05	60.3312	6,498.05	68.561	6,498.05	50.0514	6,498.05	55.0101	6,498.05	56.1077	6,498.05	55.5029	6,498.05	70.2322	6,498.05	56.4455	6,498.05	75.1917	6,498.05	58.9117	6,498.05	73.6143	6,498.05	55.2225	6,498.05	63.0672	6,498.05	54.7456	6,498.05	55.1758	6,498.05	53.8996	6,498.05	53.4796	6,498.05	57.2613	6,498.05	57.6977	6,498.05	56.7234	6,498.05	60.5522	6,498.05	59.992	6,498.05	59.6171	6,498.05	56.3755
6,726.56	87.2979	6,726.56	82.4019	6,726.56	88.0941	6,726.56	84.42	6,726.56	80.0921	6,726.56	77.7456	6,726.56	78.1143	6,726.56	70.8716	6,726.56	73.9127	6,726.56	77.8456	6,726.56	63.2528	6,726.56	72.2165	6,726.56	67.2732	6,726.56	66.0862	6,726.56	61.6667	6,726.56	63.2379	6,726.56	62.0613	6,726.56	59.4202	6,726.56	68.6724	6,726.56	59.0385	6,726.56	74.1524	6,726.56	62.2885	6,726.56	73.4309	6,726.56	59.6341	6,726.56	62.6267	6,726.56	62.1969	6,726.56	54.6645	6,726.56	58.8604	6,726.56	57.4698	6,726.56	53.1951	6,726.56	56.7239	6,726.56	61.7719	6,726.56	54.7697	6,726.56	63.5963	6,726.56	63.1297	6,726.56	60.9216
6,963.87	85.2643	6,963.87	82.146	6,963.87	87.9643	6,963.87	84.8939	6,963.87	74.5779	6,963.87	77.7314	6,963.87	80.3413	6,963.87	74.4904	6,963.87	78.1413	6,963.87	79.4606	6,963.87	74.2494	6,963.87	73.1984	6,963.87	70.6891	6,963.87	66.0229	6,963.87	71.0878	6,963.87	68.1181	6,963.87	63.7472	6,963.87	62.805	6,963.87	47.6327	6,963.87	63.1745	6,963.87	72.2528	6,963.87	61.7719	6,963.87	74.1229	6,963.87	64.4761	6,963.87	67.3572	6,963.87	67.7431	6,963.87	62.35	6,963.87	61.9962	6,963.87	61.513	6,963.87	57.2749	6,963.87	59.5055	6,963.87	61.9728	6,963.87	58.4853	6,963.87	64.068	6,963.87	61.4803	6,963.87	58.701
7,209.96	83.8202	7,209.96	81.6005	7,209.96	86.1573	7,209.96	84.736	7,209.96	57.6198	7,209.96	78.9241	7,209.96	81.4668	7,209.96	76.8292	7,209.96	75.9476	7,209.96	78.8946	7,209.96	77.5867	7,209.96	67.7216	7,209.96	70.6182	7,209.96	68.8115	7,209.96	71.833	7,209.96	70.4137	7,209.96	67.7148	7,209.96	62.1628	7,209.96	71.8056	7,209.96	60.0059	7,209.96	70.5307	7,209.96	57.4896	7,209.96	70.7425	7,209.96	62.5053	7,209.96	66.2911	7,209.96	64.242	7,209.96	62.6278	7,209.96	63.0872	7,209.96	57.6929	7,209.96	60.2164	7,209.96	61.7952	7,209.96	55.3042	7,209.96	56.304	7,209.96	58.8958	7,209.96	62.2275	7,209.96	51.1499
7,464.84	85.588	7,464.84	81.3921	7,464.84	86.8208	7,464.84	85.5596	7,464.84	75.8381	7,464.84	77.6686	7,464.84	82.631	7,464.84	79.1114	7,464.84	76.4758	7,464.84	76.4734	7,464.84	78.5531	7,464.84	71.7534	7,464.84	68.4625	7,464.84	70.5861	7,464.84	74.7898	7,464.84	65.119	7,464.84	72.9105	7,464.84	51.2532	7,464.84	73.896	7,464.84	52.1427	7,464.84	71.6529	7,464.84	58.83	7,464.84	70.8552	7,464.84	52.5858	7,464.84	56.291	7,464.84	57.2193	7,464.84	61.9644	7,464.84	61.2523	7,464.84	60.4607	7,464.84	59.0103	7,464.84	50.6226	7,464.84	54.4871	7,464.84	62.6381	7,464.84	56.292	7,464.84	53.4342	7,464.84	59.9841
7,727.05	88.5733	7,727.05	83.2934	7,727.05	86.8091	7,727.05	86.6086	7,727.05	81.0044	7,727.05	79.0133	7,727.05	84.1632	7,727.05	80.8887	7,727.05	75.6253	7,727.05	75.9109	7,727.05	80.0362	7,727.05	74.4264	7,727.05	66.959	7,727.05	64.1206	7,727.05	80.3455	7,727.05	69.8705	7,727.05	73.6049	7,727.05	66.2069	7,727.05	72.4376	7,727.05	64.8497	7,727.05	73.3733	7,727.05	64.3135	7,727.05	68.547	7,727.05	62.174	7,727.05	55.6364	7,727.05	61.5609	7,727.05	58.9297	7,727.05	65.9671	7,727.05	64.5859	7,727.05	65.1905	7,727.05	63.1291	7,727.05	61.8542	7,727.05	60.2076	7,727.05	58.9215	7,727.05	60.3326	7,727.05	63.0641
7,999.51	90.1128	7,999.51	88.0643	7,999.51	89.117	7,999.51	88.8556	7,999.51	84.4474	7,999.51	83.9621	7,999.51	86.6012	7,999.51	80.8563	7,999.51	77.4342	7,999.51	80.9897	7,999.51	81.0545	7,999.51	77.4392	7,999.51	80.2306	7,999.51	76.4903	7,999.51	81.3708	7,999.51	76.3848	7,999.51	74.1398	7,999.51	71.9936	7,999.51	72.2187	7,999.51	68.9388	7,999.51	69.6943	7,999.51	66.6913	7,999.51	65.9209	7,999.51	66.8222	7,999.51	61.4511	7,999.51	67.4894	7,999.51	62.8864	7,999.51	68.719	7,999.51	62.7991	7,999.51	65.8761	7,999.51	67.6928	7,999.51	60.0255	7,999.51	53.4405	7,999.51	60.5661	7,999.51	62.3504	7,999.51	64.0687
8,282.23	92.2079	8,282.23	91.6979	8,282.23	91.0901	8,282.23	91.2837	8,282.23	89.4669	8,282.23	87.0601	8,282.23	87.8786	8,282.23	84.305	8,282.23	83.8786	8,282.23	84.0968	8,282.23	82.1244	8,282.23	82.1587	8,282.23	84.2307	8,282.23	80.8741	8,282.23	78.0454	8,282.23	78.0722	8,282.23	75.2191	8,282.23	73.6788	8,282.23	74.9287	8,282.23	71.0749	8,282.23	70.582	8,282.23	66.62	8,282.23	70.6023	8,282.23	68.6522	8,282.23	58.8935	8,282.23	68.3168	8,282.23	56.3123	8,282.23	70.5746	8,282.23	55.6361	8,282.23	68.4622	8,282.23	65.8742	8,282.23	58.522	8,282.23	62.7518	8,282.23	62.4279	8,282.23	60.2571	8,282.23	68.9333
8,573.73	92.4604	8,573.73	91.0259	8,573.73	90.2984	8,573.73	90.5909	8,573.73	90.6203	8,573.73	85.7244	8,573.73	85.2629	8,573.73	85.3891	8,573.73	84.053	8,573.73	82.2055	8,573.73	83.2235	8,573.73	84.1722	8,573.73	82.1232	8,573.73	79.9797	8,573.73	75.2205	8,573.73	75.0301	8,573.73	72.6886	8,573.73	71.4463	8,573.73	72.4123	8,573.73	68.8397	8,573.73	70.6037	8,573.73	67.4474	8,573.73	71.5298	8,573.73	67.3575	8,573.73	50.5169	8,573.73	66.612	8,573.73	55.8672	8,573.73	70.2862	8,573.73	52.9263	8,573.73	69.9874	8,573.73	62.6409	8,573.73	60.8129	8,573.73	61.3837	8,573.73	65.2454	8,573.73	57.8445	8,573.73	67.1429
8,876.95	91.7754	8,876.95	89.6014	8,876.95	88.4055	8,876.95	90.071	8,876.95	89.7849	8,876.95	85.2445	8,876.95	83.3562	8,876.95	83.5798	8,876.95	84.2228	8,876.95	82.1361	8,876.95	81.6594	8,876.95	82.2611	8,876.95	74.9213	8,876.95	78.4943	8,876.95	79.7831	8,876.95	78.1738	8,876.95	75.2898	8,876.95	74.2316	8,876.95	75.8652	8,876.95	69.1442	8,876.95	71.8185	8,876.95	67.4143	8,876.95	72.5082	8,876.95	67.9297	8,876.95	55.1003	8,876.95	68.6002	8,876.95	54.4031	8,876.95	70.8418	8,876.95	49.7907	8,876.95	70.0493	8,876.95	56.5169	8,876.95	60.7728	8,876.95	61.372	8,876.95	63.3258	8,876.95	61.4684	8,876.95	63.0254
9,188.96	90.4873	9,188.96	87.8789	9,188.96	87.1063	9,188.96	88.1443	9,188.96	88.5479	9,188.96	84.5109	9,188.96	84.1917	9,188.96	78.6709	9,188.96	83.7688	9,188.96	82.1842	9,188.96	78.4051	9,188.96	79.952	9,188.96	78.6325	9,188.96	80.4851	9,188.96	80.6091	9,188.96	77.8044	9,188.96	78.8032	9,188.96	71.8092	9,188.96	76.3564	9,188.96	67.4422	9,188.96	71.4306	9,188.96	64.8665	9,188.96	72.7247	9,188.96	65.0783	9,188.96	63.4864	9,188.96	67.6023	9,188.96	57.2189	9,188.96	68.4139	9,188.96	56.0723	9,188.96	66.4724	9,188.96	50.474	9,188.96	60.2471	9,188.96	58.4205	9,188.96	59.5525	9,188.96	58.3508	9,188.96	56.8466
9,514.16	88.5736	9,514.16	85.7661	9,514.16	84.8291	9,514.16	86.4851	9,514.16	86.2611	9,514.16	81.7156	9,514.16	83.3843	9,514.16	79.7446	9,514.16	81.5294	9,514.16	78.9929	9,514.16	75.0684	9,514.16	81.6019	9,514.16	80.1056	9,514.16	76.7721	9,514.16	78.7457	9,514.16	74.0317	9,514.16	76.4403	9,514.16	69.8079	9,514.16	73.4733	9,514.16	65.5739	9,514.16	70.3143	9,514.16	64.6536	9,514.16	73.421	9,514.16	63.7877	9,514.16	64.618	9,514.16	64.3092	9,514.16	58.385	9,514.16	65.5443	9,514.16	50.4992	9,514.16	64.5156	9,514.16	49.6007	9,514.16	60.2078	9,514.16	57.6472	9,514.16	59.429	9,514.16	53.8155	9,514.16	55.5898
9,849.61	86.6997	9,849.61	82.7936	9,849.61	80.1591	9,849.61	85.067	9,849.61	84.8917	9,849.61	80.4545	9,849.61	81.5448	9,849.61	77.7295	9,849.61	79.704	9,849.61	79.1719	9,849.61	79.5681	9,849.61	79.3896	9,849.61	78.1101	9,849.61	74.2022	9,849.61	76.6749	9,849.61	73.7721	9,849.61	71.1519	9,849.61	69.7085	9,849.61	71.0657	9,849.61	63.9757	9,849.61	70.9612	9,849.61	62.7566	9,849.61	73.459	9,849.61	62.3667	9,849.61	59.183	9,849.61	63.2215	9,849.61	56.7623	9,849.61	63.8013	9,849.61	51.0313	9,849.61	63.2752	9,849.61	46.5258	9,849.61	58.281	9,849.61	55.6873	9,849.61	57.5206	9,849.61	49.7731	9,849.61	54.029
10,196.8	85.2261	10,196.8	81.3975	10,196.8	77.7222	10,196.8	83.7078	10,196.8	83.7078	10,196.8	77.8496	10,196.8	79.6718	10,196.8	76.7061	10,196.8	79.8172	10,196.8	80.7178	10,196.8	78.1882	10,196.8	75.9361	10,196.8	74.9778	10,196.8	72.0143	10,196.8	70.2833	10,196.8	69.368	10,196.8	69.3812	10,196.8	63.357	10,196.8	70.3502	10,196.8	58.2737	10,196.8	72.7154	10,196.8	58.6875	10,196.8	71.9555	10,196.8	58.3821	10,196.8	60.1701	10,196.8	56.7718	10,196.8	49.2151	10,196.8	60.4883	10,196.8	50.6049	10,196.8	59.4767	10,196.8	52.3182	10,196.8	54.6673	10,196.8	55.1197	10,196.8	57.6467	10,196.8	46.5938	10,196.8	54.5941
10,555.7	84.1228	10,555.7	79.7079	10,555.7	74.5637	10,555.7	80.9427	10,555.7	83.6443	10,555.7	76.0895	10,555.7	78.4397	10,555.7	78.7912	10,555.7	79.5432	10,555.7	77.1071	10,555.7	73.9065	10,555.7	76.1116	10,555.7	71.2711	10,555.7	64.5648	10,555.7	70.7182	10,555.7	70.2155	10,555.7	63.9858	10,555.7	65.5896	10,555.7	68.235	10,555.7	56.774	10,555.7	69.377	10,555.7	56.3719	10,555.7	71.3403	10,555.7	56.2065	10,555.7	60.5841	10,555.7	57.0915	10,555.7	54.888	10,555.7	61.6006	10,555.7	55.6781	10,555.7	61.0443	10,555.7	51.6976	10,555.7	57.6268	10,555.7	52.8062	10,555.7	56.3799	10,555.7	41.2843	10,555.7	53.3673
10,927.7	82.8475	10,927.7	73.2703	10,927.7	74.6802	10,927.7	82.4165	10,927.7	84.477	10,927.7	73.6099	10,927.7	76.7923	10,927.7	76.1352	10,927.7	79.1517	10,927.7	76.9799	10,927.7	66.6462	10,927.7	73.535	10,927.7	67.8284	10,927.7	69.7427	10,927.7	74.528	10,927.7	72.3747	10,927.7	65.9323	10,927.7	61.4385	10,927.7	68.5924	10,927.7	60.7865	10,927.7	68.4824	10,927.7	52.6756	10,927.7	69.4084	10,927.7	57.6657	10,927.7	63.7632	10,927.7	49.6697	10,927.7	59.0128	10,927.7	60.4238	10,927.7	59.7565	10,927.7	58.7783	10,927.7	56.5352	10,927.7	56.5586	10,927.7	58.6968	10,927.7	60.4697	10,927.7	47.3762	10,927.7	51.8127
11,313	82.5924	11,313	78.2412	11,313	81.0046	11,313	80.9592	11,313	84.334	11,313	77.3077	11,313	76.7861	11,313	75.8292	11,313	78.6157	11,313	78.8241	11,313	73.4125	11,313	74.5312	11,313	69.0109	11,313	62.1633	11,313	75.4441	11,313	55.1703	11,313	70.0527	11,313	59.5445	11,313	69.0168	11,313	54.1028	11,313	69.7574	11,313	58.0974	11,313	69.5993	11,313	43.6249	11,313	61.6675	11,313	56.7661	11,313	61.7352	11,313	61.0787	11,313	59.4275	11,313	52.8619	11,313	57.2033	11,313	55.4638	11,313	58.119	11,313	56.8491	11,313	52.7785	11,313	54.8853
11,712.9	83.4519	11,712.9	78.4556	11,712.9	77.3495	11,712.9	82.1494	11,712.9	83.0699	11,712.9	78.2135	11,712.9	76.1238	11,712.9	76.7323	11,712.9	75.9926	11,712.9	78.0255	11,712.9	75.304	11,712.9	71.2299	11,712.9	68.8201	11,712.9	70.0807	11,712.9	76.8713	11,712.9	67.0027	11,712.9	65.3718	11,712.9	63.6476	11,712.9	68.6801	11,712.9	50.3011	11,712.9	71.7851	11,712.9	61.4201	11,712.9	70.3267	11,712.9	49.8198	11,712.9	63.925	11,712.9	54.0714	11,712.9	61.3676	11,712.9	60.2523	11,712.9	62.0258	11,712.9	56.766	11,712.9	59.5632	11,712.9	57.8129	11,712.9	60.0515	11,712.9	59.2023	11,712.9	47.0184	11,712.9	56.6152
12,126	79.8023	12,126	74.9268	12,126	78.4777	12,126	80.7265	12,126	82.8703	12,126	76.5739	12,126	76.9214	12,126	73.8493	12,126	72.3776	12,126	74.3988	12,126	74.8565	12,126	74.0557	12,126	63.3146	12,126	69.3903	12,126	75.4068	12,126	57.9373	12,126	64.7468	12,126	59.7335	12,126	64.555	12,126	60.051	12,126	71.2359	12,126	52.508	12,126	69.8429	12,126	53.9389	12,126	64.3735	12,126	60.6532	12,126	58.9089	12,126	58.8397	12,126	59.6364	12,126	54.9531	12,126	57.0867	12,126	55.6617	12,126	56.4399	12,126	56.851	12,126	46.7983	12,126	59.5927
12,553.7	69.844	12,553.7	74.8915	12,553.7	81.2095	12,553.7	77.7756	12,553.7	81.6313	12,553.7	77.1976	12,553.7	75.8514	12,553.7	72.523	12,553.7	73.5527	12,553.7	72.5866	12,553.7	74.9482	12,553.7	73.3422	12,553.7	62.3924	12,553.7	68.1756	12,553.7	72.3182	12,553.7	51.0025	12,553.7	66.0206	12,553.7	52.9287	12,553.7	57.44	12,553.7	55.353	12,553.7	69.6085	12,553.7	47.4188	12,553.7	67.4339	12,553.7	54.2479	12,553.7	62.167	12,553.7	58.4704	12,553.7	58.7402	12,553.7	51.9752	12,553.7	57.7658	12,553.7	53.7826	12,553.7	54.0827	12,553.7	51.1024	12,553.7	55.2768	12,553.7	50.3376	12,553.7	47.1128	12,553.7	57.4126
12,996.1	74.6628	12,996.1	77.5532	12,996.1	82.0253	12,996.1	77.0751	12,996.1	79.7318	12,996.1	75.6169	12,996.1	74.0623	12,996.1	72.4449	12,996.1	73.8863	12,996.1	70.4548	12,996.1	72.7589	12,996.1	68.5596	12,996.1	66.3642	12,996.1	64.0605	12,996.1	66.8736	12,996.1	55.6485	12,996.1	61.7807	12,996.1	54.0452	12,996.1	51.6734	12,996.1	52.9628	12,996.1	65.3448	12,996.1	48.6127	12,996.1	65.0568	12,996.1	53.8495	12,996.1	59.219	12,996.1	56.5231	12,996.1	55.7734	12,996.1	37.3214	12,996.1	57.8092	12,996.1	52.1622	12,996.1	47.0898	12,996.1	41.2207	12,996.1	48.8177	12,996.1	50.677	12,996.1	49.0652	12,996.1	52.9121
13,454.6	79.4351	13,454.6	80.928	13,454.6	81.8115	13,454.6	76.5051	13,454.6	78.9809	13,454.6	76.0283	13,454.6	75.4759	13,454.6	69.9146	13,454.6	74.1964	13,454.6	69.2758	13,454.6	72.8233	13,454.6	64.3109	13,454.6	68.7037	13,454.6	64.1783	13,454.6	59.7479	13,454.6	61.5111	13,454.6	61.0439	13,454.6	55.6357	13,454.6	54.5883	13,454.6	54.4755	13,454.6	57.8926	13,454.6	49.8462	13,454.6	61.1582	13,454.6	50.554	13,454.6	52.9027	13,454.6	40.3225	13,454.6	49.2732	13,454.6	43.4645	13,454.6	54.188	13,454.6	48.476	13,454.6	47.1647	13,454.6	47.4759	13,454.6	44.6349	13,454.6	51.6979	13,454.6	48.601	13,454.6	52.3267
13,929.2	81.6616	13,929.2	78.3622	13,929.2	82.6187	13,929.2	76.0533	13,929.2	80.2818	13,929.2	73.2783	13,929.2	76.7674	13,929.2	73.614	13,929.2	71.8952	13,929.2	67.8093	13,929.2	71.0751	13,929.2	64.8115	13,929.2	68.9949	13,929.2	64.2751	13,929.2	53.074	13,929.2	59.6272	13,929.2	61.5835	13,929.2	53.4878	13,929.2	51.2058	13,929.2	48.2372	13,929.2	54.6879	13,929.2	48.8949	13,929.2	61.3124	13,929.2	51.5384	13,929.2	43.3946	13,929.2	44.6868	13,929.2	40.3046	13,929.2	45.5202	13,929.2	49.2675	13,929.2	41.5486	13,929.2	44.9297	13,929.2	44.1118	13,929.2	45.6305	13,929.2	50.8835	13,929.2	47.3875	13,929.2	39.6767
14,419.9	83.1319	14,419.9	80.094	14,419.9	84.3966	14,419.9	76.1333	14,419.9	81.3305	14,419.9	73.2662	14,419.9	77.8664	14,419.9	70.3443	14,419.9	74.5252	14,419.9	67.9882	14,419.9	69.589	14,419.9	67.6531	14,419.9	66.0385	14,419.9	50.4496	14,419.9	55.8472	14,419.9	55.0077	14,419.9	57.094	14,419.9	46.7385	14,419.9	50.0464	14,419.9	42.4537	14,419.9	54.2006	14,419.9	40.7198	14,419.9	61.29	14,419.9	38.5749	14,419.9	48.1513	14,419.9	45.6662	14,419.9	37.2964	14,419.9	47.5167	14,419.9	36.8374	14,419.9	44.181	14,419.9	45.1216	14,419.9	39.795	14,419.9	50.3205	14,419.9	49.3326	14,419.9	48.5175	14,419.9	46.1245
14,928.2	81.6762	14,928.2	80.6889	14,928.2	84.0275	14,928.2	75.8408	14,928.2	81.3844	14,928.2	73.069	14,928.2	76.4807	14,928.2	70.4738	14,928.2	72.9061	14,928.2	66.0751	14,928.2	67.9529	14,928.2	66.804	14,928.2	42.6792	14,928.2	61.3989	14,928.2	62.8231	14,928.2	57.0263	14,928.2	59.488	14,928.2	47.8887	14,928.2	50.4448	14,928.2	30.3487	14,928.2	60.9975	14,928.2	45.8673	14,928.2	62.1347	14,928.2	43.8486	14,928.2	52.5794	14,928.2	41.161	14,928.2	36.7113	14,928.2	45.7283	14,928.2	36.4358	14,928.2	42.2602	14,928.2	29.7538	14,928.2	46.6529	14,928.2	47.1304	14,928.2	51.6385	14,928.2	51.078	14,928.2	40.3249
15,455.6	80.0288	15,455.6	79.1039	15,455.6	81.2948	15,455.6	76.0514	15,455.6	77.997	15,455.6	71.6734	15,455.6	74.3638	15,455.6	70.1299	15,455.6	69.1442	15,455.6	67.0321	15,455.6	65.1441	15,455.6	66.975	15,455.6	60.9965	15,455.6	65.3967	15,455.6	62.3643	15,455.6	56.2531	15,455.6	54.7232	15,455.6	43.0316	15,455.6	55.2655	15,455.6	46.5478	15,455.6	57.0942	15,455.6	46.0198	15,455.6	60.9014	15,455.6	34.2686	15,455.6	49.0592	15,455.6	44.2972	15,455.6	43.8849	15,455.6	48.9077	15,455.6	42.7501	15,455.6	44.9582	15,455.6	38.177	15,455.6	47.7276	15,455.6	38.8722	15,455.6	46.1815	15,455.6	43.0688	15,455.6	39.2532
16,000.5	77.8522	16,000.5	77.3152	16,000.5	78.4938	16,000.5	75.0756	16,000.5	75.9296	16,000.5	69.404	16,000.5	72.7465	16,000.5	67.4271	16,000.5	68.4299	16,000.5	67.5955	16,000.5	67.9527	16,000.5	68.0608	16,000.5	61.4773	16,000.5	63.9551	16,000.5	60.3059	16,000.5	59.7957	16,000.5	39.8058	16,000.5	51.3467	16,000.5	59.3392	16,000.5	52.0822	16,000.5	56.1157	16,000.5	40.0929	16,000.5	59.053	16,000.5	42.7517	16,000.5	47.889	16,000.5	46.4523	16,000.5	44.4624	16,000.5	44.0717	16,000.5	43.2425	16,000.5	41.8017	16,000.5	31.4843	16,000.5	49.058	16,000.5	34.302	16,000.5	45.3994	16,000.5	45.4436	16,000.5	36.9238
16,564.5	77.5675	16,564.5	77.8728	16,564.5	78.8429	16,564.5	75.0844	16,564.5	75.8803	16,564.5	68.4524	16,564.5	72.2364	16,564.5	69.7762	16,564.5	69.5319	16,564.5	70.5591	16,564.5	68.3061	16,564.5	68.6822	16,564.5	63.1464	16,564.5	65.7037	16,564.5	64.4092	16,564.5	60.5859	16,564.5	58.0904	16,564.5	54.8015	16,564.5	59.1637	16,564.5	53.7505	16,564.5	58.913	16,564.5	38.8106	16,564.5	60.667	16,564.5	47.7084	16,564.5	50.0768	16,564.5	49.389	16,564.5	41.0161	16,564.5	45.8232	16,564.5	45.5297	16,564.5	39.3003	16,564.5	40.0581	16,564.5	53.1473	16,564.5	42.3689	16,564.5	34.5386	16,564.5	46.075	16,564.5	42.2088
17,148.9	77.3115	17,148.9	77.8125	17,148.9	78.9729	17,148.9	74.7398	17,148.9	77.8081	17,148.9	71.6829	17,148.9	74.6123	17,148.9	73.703	17,148.9	70.808	17,148.9	70.9478	17,148.9	69.1386	17,148.9	68.0241	17,148.9	64.4417	17,148.9	66.1617	17,148.9	62.5165	17,148.9	61.8912	17,148.9	57.5146	17,148.9	54.5702	17,148.9	53.7941	17,148.9	52.1699	17,148.9	57.139	17,148.9	37.8176	17,148.9	58.9385	17,148.9	47.3672	17,148.9	50.8057	17,148.9	49.8062	17,148.9	34.2951	17,148.9	42.463	17,148.9	42.9142	17,148.9	48.3939	17,148.9	39.1288	17,148.9	52.775	17,148.9	43.0341	17,148.9	37.6266	17,148.9	44.3843	17,148.9	40.3149
17,752.4	77.3688	17,752.4	77.4752	17,752.4	78.5393	17,752.4	75.5703	17,752.4	77.7309	17,752.4	71.8864	17,752.4	73.8903	17,752.4	73.4706	17,752.4	71.4	17,752.4	70.3274	17,752.4	67.0861	17,752.4	65.9507	17,752.4	64.3408	17,752.4	65.1589	17,752.4	53.8751	17,752.4	60.6849	17,752.4	52.6712	17,752.4	54.6624	17,752.4	52.8903	17,752.4	51.1501	17,752.4	51.67	17,752.4	41.1511	17,752.4	56.0433	17,752.4	47.0703	17,752.4	47.4643	17,752.4	52.4581	17,752.4	39.647	17,752.4	41.8691	17,752.4	41.3845	17,752.4	50.9942	17,752.4	45.0111	17,752.4	49.3692	17,752.4	37.7337	17,752.4	45.8471	17,752.4	41.2499	17,752.4	36.615
18,379.4	78.7264	18,379.4	78.3524	18,379.4	78.6917	18,379.4	77.1619	18,379.4	78.4513	18,379.4	72.1377	18,379.4	73.3593	18,379.4	73.139	18,379.4	69.2749	18,379.4	69.0833	18,379.4	68.908	18,379.4	65.9754	18,379.4	62.1587	18,379.4	65.3027	18,379.4	59.1635	18,379.4	58.7057	18,379.4	50.9832	18,379.4	53.2789	18,379.4	54.4047	18,379.4	48.3968	18,379.4	49.2036	18,379.4	34.7423	18,379.4	53.3549	18,379.4	47.914	18,379.4	48.8316	18,379.4	55.4277	18,379.4	46.0258	18,379.4	42.5867	18,379.4	46.4443	18,379.4	51.1289	18,379.4	33.2345	18,379.4	46.2002	18,379.4	47.8346	18,379.4	47.654	18,379.4	46.5825	18,379.4	36.2906
19,026.9	79.8201	19,026.9	79.4354	19,026.9	79.1209	19,026.9	77.9025	19,026.9	78.7647	19,026.9	72.8024	19,026.9	72.9814	19,026.9	72.3551	19,026.9	69.4107	19,026.9	68.0822	19,026.9	67.5483	19,026.9	66.4202	19,026.9	65.664	19,026.9	64.1607	19,026.9	60.282	19,026.9	58.684	19,026.9	47.7636	19,026.9	45.4385	19,026.9	47.6678	19,026.9	37.0113	19,026.9	46.5397	19,026.9	36.5744	19,026.9	47.1754	19,026.9	45.1151	19,026.9	46.5791	19,026.9	51.7364	19,026.9	46.3466	19,026.9	38.3036	19,026.9	45.8102	19,026.9	49.8811	19,026.9	40.2001	19,026.9	35.0763	19,026.9	46.6589	19,026.9	46.0448	19,026.9	45.9918	19,026.9	35.8257
19,697.8	80.3783	19,697.8	79.6745	19,697.8	79.8141	19,697.8	78.8217	19,697.8	78.5456	19,697.8	72.5865	19,697.8	71.8941	19,697.8	71.3919	19,697.8	68.9765	19,697.8	67.5943	19,697.8	67.4659	19,697.8	64.8568	19,697.8	65.6911	19,697.8	62.5948	19,697.8	58.352	19,697.8	59.2204	19,697.8	49.3479	19,697.8	49.5012	19,697.8	46.6286	19,697.8	42.7963	19,697.8	45.3742	19,697.8	44.1015	19,697.8	50.3524	19,697.8	45.867	19,697.8	44.0228	19,697.8	48.5595	19,697.8	41.217	19,697.8	44.421	19,697.8	49.4749	19,697.8	47.8111	19,697.8	42.904	19,697.8	49.086	19,697.8	52.3223	19,697.8	43.953	19,697.8	50.0168	19,697.8	47.9389
19,999.5	80.2793	19,999.5	79.5604	19,999.5	79.5746	19,999.5	78.6672	19,999.5	78.3451	19,999.5	72.1396	19,999.5	72.3383	19,999.5	70.6217	19,999.5	67.2247	19,999.5	67.0522	19,999.5	68.3153	19,999.5	64.8306	19,999.5	65.0696	19,999.5	62.3652	19,999.5	58.1082	19,999.5	58.5995	19,999.5	53.5417	19,999.5	49.3001	19,999.5	41.7544	19,999.5	33.2798	19,999.5	51.1612	19,999.5	37.6896	19,999.5	51.0451	19,999.5	34.6885	19,999.5	49.9784	19,999.5	45.1503	19,999.5	34.7448	19,999.5	47.8658	19,999.5	53.4814	19,999.5	37.7117	19,999.5	45.6417	19,999.5	52.253	19,999.5	50.7603	19,999.5	52.8082	19,999.5	51.7398	19,999.5	51.7954
