"SPL Horizontal"
"On-Axis"		"10°"		"-10°"		"20°"		"-20°"		"30°"		"-30°"		"40°"		"-40°"		"50°"		"-50°"		"60°"		"-60°"		"70°"		"-70°"		"80°"		"-80°"		"90°"		"-90°"		"100°"		"-100°"		"110°"		"-110°"		"120°"		"-120°"		"130°"		"-130°"		"140°"		"-140°"		"150°"		"-150°"		"160°"		"-160°"		"170°"		"-170°"		"180°"
"Frequency / Hz"	"Sound Pressure Level / dB (re 20 µPa/V)  [2.83  V @ 1. m]"	"Frequency / Hz"	"Sound Pressure Level / dB (re 20 µPa/V)  [2.83  V @ 1. m]"	"Frequency / Hz"	"Sound Pressure Level / dB (re 20 µPa/V)  [2.83  V @ 1. m]"	"Frequency / Hz"	"Sound Pressure Level / dB (re 20 µPa/V)  [2.83  V @ 1. m]"	"Frequency / Hz"	"Sound Pressure Level / dB (re 20 µPa/V)  [2.83  V @ 1. m]"	"Frequency / Hz"	"Sound Pressure Level / dB (re 20 µPa/V)  [2.83  V @ 1. m]"	"Frequency / Hz"	"Sound Pressure Level / dB (re 20 µPa/V)  [2.83  V @ 1. m]"	"Frequency / Hz"	"Sound Pressure Level / dB (re 20 µPa/V)  [2.83  V @ 1. m]"	"Frequency / Hz"	"Sound Pressure Level / dB (re 20 µPa/V)  [2.83  V @ 1. m]"	"Frequency / Hz"	"Sound Pressure Level / dB (re 20 µPa/V)  [2.83  V @ 1. m]"	"Frequency / Hz"	"Sound Pressure Level / dB (re 20 µPa/V)  [2.83  V @ 1. m]"	"Frequency / Hz"	"Sound Pressure Level / dB (re 20 µPa/V)  [2.83  V @ 1. m]"	"Frequency / Hz"	"Sound Pressure Level / dB (re 20 µPa/V)  [2.83  V @ 1. m]"	"Frequency / Hz"	"Sound Pressure Level / dB (re 20 µPa/V)  [2.83  V @ 1. m]"	"Frequency / Hz"	"Sound Pressure Level / dB (re 20 µPa/V)  [2.83  V @ 1. m]"	"Frequency / Hz"	"Sound Pressure Level / dB (re 20 µPa/V)  [2.83  V @ 1. m]"	"Frequency / Hz"	"Sound Pressure Level / dB (re 20 µPa/V)  [2.83  V @ 1. m]"	"Frequency / Hz"	"Sound Pressure Level / dB (re 20 µPa/V)  [2.83  V @ 1. m]"	"Frequency / Hz"	"Sound Pressure Level / dB (re 20 µPa/V)  [2.83  V @ 1. m]"	"Frequency / Hz"	"Sound Pressure Level / dB (re 20 µPa/V)  [2.83  V @ 1. m]"	"Frequency / Hz"	"Sound Pressure Level / dB (re 20 µPa/V)  [2.83  V @ 1. m]"	"Frequency / Hz"	"Sound Pressure Level / dB (re 20 µPa/V)  [2.83  V @ 1. m]"	"Frequency / Hz"	"Sound Pressure Level / dB (re 20 µPa/V)  [2.83  V @ 1. m]"	"Frequency / Hz"	"Sound Pressure Level / dB (re 20 µPa/V)  [2.83  V @ 1. m]"	"Frequency / Hz"	"Sound Pressure Level / dB (re 20 µPa/V)  [2.83  V @ 1. m]"	"Frequency / Hz"	"Sound Pressure Level / dB (re 20 µPa/V)  [2.83  V @ 1. m]"	"Frequency / Hz"	"Sound Pressure Level / dB (re 20 µPa/V)  [2.83  V @ 1. m]"	"Frequency / Hz"	"Sound Pressure Level / dB (re 20 µPa/V)  [2.83  V @ 1. m]"	"Frequency / Hz"	"Sound Pressure Level / dB (re 20 µPa/V)  [2.83  V @ 1. m]"	"Frequency / Hz"	"Sound Pressure Level / dB (re 20 µPa/V)  [2.83  V @ 1. m]"	"Frequency / Hz"	"Sound Pressure Level / dB (re 20 µPa/V)  [2.83  V @ 1. m]"	"Frequency / Hz"	"Sound Pressure Level / dB (re 20 µPa/V)  [2.83  V @ 1. m]"	"Frequency / Hz"	"Sound Pressure Level / dB (re 20 µPa/V)  [2.83  V @ 1. m]"	"Frequency / Hz"	"Sound Pressure Level / dB (re 20 µPa/V)  [2.83  V @ 1. m]"	"Frequency / Hz"	"Sound Pressure Level / dB (re 20 µPa/V)  [2.83  V @ 1. m]"	"Frequency / Hz"	"Sound Pressure Level / dB (re 20 µPa/V)  [2.83  V @ 1. m]"
20.5078	65.153	20.5078	65.144	20.5078	65.1369	20.5078	65.1104	20.5078	65.0954	20.5078	65.0529	20.5078	65.0289	20.5078	64.9729	20.5078	64.9381	20.5078	64.8717	20.5078	64.8244	20.5078	64.7509	20.5078	64.6899	20.5078	64.6125	20.5078	64.5373	20.5078	64.4588	20.5078	64.3699	20.5078	64.2925	20.5078	64.1917	20.5078	64.1172	20.5078	64.0073	20.5078	63.9374	20.5078	63.8224	20.5078	63.7586	20.5078	63.6434	20.5078	63.5874	20.5078	63.4775	20.5078	63.431	20.5078	63.3324	20.5078	63.2964	20.5078	63.2154	20.5078	63.1902	20.5078	63.1323	20.5078	63.1176	20.5078	63.0875	20.5078	63.0826
21.9727	65.0114	21.9727	64.9851	21.9727	65.0138	21.9727	64.9355	21.9727	64.9918	21.9727	64.8638	21.9727	64.9455	21.9727	64.7714	21.9727	64.8751	21.9727	64.6598	21.9727	64.7817	21.9727	64.5312	21.9727	64.6667	21.9727	64.3877	21.9727	64.5323	21.9727	64.2322	21.9727	64.3812	21.9727	64.0677	21.9727	64.2171	21.9727	63.8983	21.9727	64.0442	21.9727	63.7287	21.9727	63.8679	21.9727	63.5648	21.9727	63.6942	21.9727	63.4133	21.9727	63.5297	21.9727	63.2812	21.9727	63.3811	21.9727	63.175	21.9727	63.2546	21.9727	63.1001	21.9727	63.1557	21.9727	63.0599	21.9727	63.0886	21.9727	63.0561
23.4375	63.5521	23.4375	63.5181	23.4375	63.5542	23.4375	63.4531	23.4375	63.5241	23.4375	63.3581	23.4375	63.4618	23.4375	63.2347	23.4375	63.3676	23.4375	63.0847	23.4375	63.2428	23.4375	62.9105	23.4375	63.0888	23.4375	62.7149	23.4375	62.9078	23.4375	62.5014	23.4375	62.703	23.4375	62.2742	23.4375	62.4781	23.4375	62.0386	23.4375	62.2382	23.4375	61.8009	23.4375	61.9897	23.4375	61.5689	23.4375	61.7408	23.4375	61.3513	23.4375	61.5011	23.4375	61.1578	23.4375	61.2812	23.4375	60.9981	23.4375	61.0923	23.4375	60.8812	23.4375	60.9445	23.4375	60.8143	23.4375	60.846	23.4375	60.802
24.9023	63.9169	24.9023	63.8828	24.9023	63.9268	24.9023	63.8252	24.9023	63.9117	24.9023	63.7454	24.9023	63.8717	24.9023	63.6449	24.9023	63.8069	24.9023	63.5256	24.9023	63.7183	24.9023	63.3896	24.9023	63.6072	24.9023	63.2397	24.9023	63.4756	24.9023	63.0787	24.9023	63.3259	24.9023	62.9104	24.9023	63.1613	24.9023	62.739	24.9023	62.9859	24.9023	62.5696	24.9023	62.8044	24.9023	62.4078	24.9023	62.623	24.9023	62.2598	24.9023	62.4484	24.9023	62.132	24.9023	62.2883	24.9023	62.0303	24.9023	62.1501	24.9023	61.9596	24.9023	62.0404	24.9023	61.9237	24.9023	61.9643	24.9023	61.9251
26.3672	66.5585	26.3672	66.536	26.3672	66.5677	26.3672	66.5006	26.3672	66.5635	26.3672	66.4528	26.3672	66.5457	26.3672	66.3936	26.3672	66.5145	26.3672	66.3239	26.3672	66.4703	26.3672	66.2451	26.3672	66.4133	26.3672	66.1586	26.3672	66.3443	26.3672	66.0664	26.3672	66.264	26.3672	65.9704	26.3672	66.1735	26.3672	65.873	26.3672	66.0745	26.3672	65.7769	26.3672	65.9693	26.3672	65.685	26.3672	65.8615	26.3672	65.6008	26.3672	65.7551	26.3672	65.5278	26.3672	65.6551	26.3672	65.4696	26.3672	65.5668	26.3672	65.4297	26.3672	65.4951	26.3672	65.4111	26.3672	65.4438	26.3672	65.4155
27.832	68.7956	27.832	68.7793	27.832	68.8005	27.832	68.752	27.832	68.7941	27.832	68.7141	27.832	68.7764	27.832	68.6663	27.832	68.7477	27.832	68.6095	27.832	68.7084	27.832	68.5447	27.832	68.6591	27.832	68.4734	27.832	68.6006	27.832	68.397	27.832	68.5337	27.832	68.3175	27.832	68.4598	27.832	68.2369	27.832	68.3805	27.832	68.1577	27.832	68.298	27.832	68.0826	27.832	68.2147	27.832	68.0147	27.832	68.1337	27.832	67.9568	27.832	68.0583	27.832	67.912	27.832	67.9919	27.832	67.8824	27.832	67.9376	27.832	67.8699	27.832	67.898	27.832	67.8751
29.2969	70.6786	29.2969	70.6629	29.2969	70.6858	29.2969	70.6389	29.2969	70.6843	29.2969	70.607	29.2969	70.674	29.2969	70.5677	29.2969	70.6551	29.2969	70.5215	29.2969	70.6278	29.2969	70.4693	29.2969	70.5925	29.2969	70.412	29.2969	70.5497	29.2969	70.3508	29.2969	70.5001	29.2969	70.2872	29.2969	70.4444	29.2969	70.223	29.2969	70.3839	29.2969	70.1604	29.2969	70.3199	29.2969	70.1017	29.2969	70.2544	29.2969	70.0496	29.2969	70.1894	29.2969	70.0065	29.2969	70.1276	29.2969	69.975	29.2969	70.0715	29.2969	69.9566	29.2969	70.0239	29.2969	69.9524	29.2969	69.987	29.2969	69.9627
30.7617	72.6691	30.7617	72.6569	30.7617	72.6734	30.7617	72.637	30.7617	72.6695	30.7617	72.6099	30.7617	72.6573	30.7617	72.5762	30.7617	72.6371	30.7617	72.5366	30.7617	72.609	30.7617	72.492	30.7617	72.5736	30.7617	72.4434	30.7617	72.5316	30.7617	72.3918	30.7617	72.4839	30.7617	72.3387	30.7617	72.4316	30.7617	72.2852	30.7617	72.3762	30.7617	72.2331	30.7617	72.3193	30.7617	72.184	30.7617	72.2627	30.7617	72.1396	30.7617	72.2085	30.7617	72.1017	30.7617	72.1589	30.7617	72.072	30.7617	72.116	30.7617	72.0517	30.7617	72.0816	30.7617	72.0422	30.7617	72.0573	30.7617	72.044
32.2266	74.047	32.2266	74.0372	32.2266	74.0485	32.2266	74.0191	32.2266	74.0415	32.2266	73.9933	32.2266	74.026	32.2266	73.9603	32.2266	74.0023	32.2266	73.9208	32.2266	73.9709	32.2266	73.8757	32.2266	73.9324	32.2266	73.8261	32.2266	73.8878	32.2266	73.7733	32.2266	73.8382	32.2266	73.7186	32.2266	73.7848	32.2266	73.6637	32.2266	73.7292	32.2266	73.6103	32.2266	73.6731	32.2266	73.5603	32.2266	73.6184	32.2266	73.5154	32.2266	73.567	32.2266	73.4773	32.2266	73.5207	32.2266	73.4475	32.2266	73.4813	32.2266	73.4271	32.2266	73.4502	32.2266	73.417	32.2266	73.4287	32.2266	73.4175
33.6914	75.3266	33.6914	75.315	33.6914	75.3285	33.6914	75.2941	33.6914	75.3207	33.6914	75.2642	33.6914	75.3034	33.6914	75.2262	33.6914	75.2769	33.6914	75.1809	33.6914	75.242	33.6914	75.1295	33.6914	75.1993	33.6914	75.0733	33.6914	75.1502	33.6914	75.0139	33.6914	75.0957	33.6914	74.9531	33.6914	75.0374	33.6914	74.8926	33.6914	74.9771	33.6914	74.8345	33.6914	74.9164	33.6914	74.7807	33.6914	74.8573	33.6914	74.7331	33.6914	74.8017	33.6914	74.6933	33.6914	74.7515	33.6914	74.6629	33.6914	74.7084	33.6914	74.6427	33.6914	74.6741	33.6914	74.6337	33.6914	74.6497	33.6914	74.636
35.1562	76.2896	35.1562	76.2758	35.1562	76.293	35.1562	76.2519	35.1562	76.286	35.1562	76.2184	35.1562	76.2687	35.1562	76.1762	35.1562	76.2418	35.1562	76.1262	35.1562	76.2059	35.1562	76.0699	35.1562	76.1621	35.1562	76.0088	35.1562	76.1115	35.1562	75.9448	35.1562	76.0556	35.1562	75.8797	35.1562	75.9958	35.1562	75.8158	35.1562	75.934	35.1562	75.7551	35.1562	75.8719	35.1562	75.6998	35.1562	75.8112	35.1562	75.6519	35.1562	75.7537	35.1562	75.6132	35.1562	75.7011	35.1562	75.585	35.1562	75.6551	35.1562	75.5682	35.1562	75.617	35.1562	75.5633	35.1562	75.5884	35.1562	75.5702
36.6211	77.4247	36.6211	77.4116	36.6211	77.4264	36.6211	77.3873	36.6211	77.4169	36.6211	77.3524	36.6211	77.3963	36.6211	77.3077	36.6211	77.3654	36.6211	77.2544	36.6211	77.325	36.6211	77.194	36.6211	77.2764	36.6211	77.1282	36.6211	77.2209	36.6211	77.059	36.6211	77.1603	36.6211	76.9887	36.6211	77.0963	36.6211	76.9198	36.6211	77.0309	36.6211	76.8546	36.6211	76.9659	36.6211	76.7955	36.6211	76.9032	36.6211	76.7447	36.6211	76.8444	36.6211	76.7039	36.6211	76.7912	36.6211	76.6746	36.6211	76.7449	36.6211	76.6573	36.6211	76.7068	36.6211	76.6524	36.6211	76.6779	36.6211	76.6595
38.0859	78.3533	38.0859	78.3396	38.0859	78.3556	38.0859	78.3147	38.0859	78.3464	38.0859	78.2789	38.0859	78.3262	38.0859	78.2332	38.0859	78.2955	38.0859	78.1786	38.0859	78.2554	38.0859	78.1167	38.0859	78.2068	38.0859	78.0493	38.0859	78.1513	38.0859	77.9783	38.0859	78.0904	38.0859	77.9062	38.0859	78.0259	38.0859	77.8354	38.0859	77.9595	38.0859	77.7685	38.0859	77.8933	38.0859	77.7079	38.0859	77.829	38.0859	77.656	38.0859	77.7682	38.0859	77.6145	38.0859	77.7128	38.0859	77.5848	38.0859	77.664	38.0859	77.5678	38.0859	77.6234	38.0859	77.5636	38.0859	77.5924	38.0859	77.5721
39.5508	78.8727	39.5508	78.8648	39.5508	78.8696	39.5508	78.846	39.5508	78.8556	39.5508	78.8168	39.5508	78.8313	39.5508	78.7778	39.5508	78.7974	39.5508	78.7302	39.5508	78.755	39.5508	78.6752	39.5508	78.7054	39.5508	78.6145	39.5508	78.6503	39.5508	78.5501	39.5508	78.5914	39.5508	78.484	39.5508	78.5305	39.5508	78.4186	39.5508	78.4696	39.5508	78.3562	39.5508	78.4104	39.5508	78.2992	39.5508	78.3544	39.5508	78.2494	39.5508	78.3032	39.5508	78.2088	39.5508	78.2578	39.5508	78.1784	39.5508	78.2192	39.5508	78.159	39.5508	78.1884	39.5508	78.1507	39.5508	78.1661	39.5508	78.1533
41.0156	79.4212	41.0156	79.4223	41.0156	79.4091	41.0156	79.4125	41.0156	79.3864	41.0156	79.392	41.0156	79.3537	41.0156	79.3615	41.0156	79.312	41.0156	79.3218	41.0156	79.2626	41.0156	79.2743	41.0156	79.2073	41.0156	79.2204	41.0156	79.1479	41.0156	79.1617	41.0156	79.0864	41.0156	79.1001	41.0156	79.0249	41.0156	79.0377	41.0156	78.9656	41.0156	78.9765	41.0156	78.91	41.0156	78.9184	41.0156	78.8599	41.0156	78.8653	41.0156	78.8164	41.0156	78.8189	41.0156	78.7803	41.0156	78.7807	41.0156	78.7524	41.0156	78.7515	41.0156	78.7332	41.0156	78.7321	41.0156	78.7232	41.0156	78.7227
42.4805	80.6737	42.4805	80.6776	42.4805	80.6575	42.4805	80.6691	42.4805	80.6292	42.4805	80.6488	42.4805	80.5894	42.4805	80.6174	42.4805	80.5392	42.4805	80.5758	42.4805	80.4802	42.4805	80.5254	42.4805	80.4141	42.4805	80.4677	42.4805	80.3434	42.4805	80.4045	42.4805	80.2703	42.4805	80.3377	42.4805	80.1978	42.4805	80.2693	42.4805	80.1283	42.4805	80.2014	42.4805	80.0643	42.4805	80.136	42.4805	80.0081	42.4805	80.0752	42.4805	79.961	42.4805	80.0205	42.4805	79.9244	42.4805	79.9735	42.4805	79.8987	42.4805	79.9353	42.4805	79.8842	42.4805	79.9067	42.4805	79.8808	42.4805	79.8884
43.9453	81.2394	43.9453	81.2452	43.9453	81.2212	43.9453	81.2386	43.9453	81.1907	43.9453	81.2202	43.9453	81.1485	43.9453	81.1907	43.9453	81.0957	43.9453	81.1512	43.9453	81.0338	43.9453	81.1029	43.9453	80.9645	43.9453	81.0473	43.9453	80.8903	43.9453	80.9861	43.9453	80.8138	43.9453	80.921	43.9453	80.7378	43.9453	80.8539	43.9453	80.6653	43.9453	80.7867	43.9453	80.5991	43.9453	80.721	43.9453	80.5415	43.9453	80.6587	43.9453	80.4946	43.9453	80.6012	43.9453	80.4597	43.9453	80.5499	43.9453	80.4375	43.9453	80.5061	43.9453	80.428	43.9453	80.4709	43.9453	80.4309	43.9453	80.4455
45.4102	81.7937	45.4102	81.7978	45.4102	81.7759	45.4102	81.7885	45.4102	81.7448	45.4102	81.7663	45.4102	81.7008	45.4102	81.7321	45.4102	81.6451	45.4102	81.6871	45.4102	81.5793	45.4102	81.6328	45.4102	81.5053	45.4102	81.5709	45.4102	81.4256	45.4102	81.5033	45.4102	81.343	45.4102	81.432	45.4102	81.2607	45.4102	81.359	45.4102	81.1816	45.4102	81.2865	45.4102	81.109	45.4102	81.2163	45.4102	81.0454	45.4102	81.1502	45.4102	80.9932	45.4102	81.0897	45.4102	80.9537	45.4102	81.0363	45.4102	80.9277	45.4102	80.9912	45.4102	80.9156	45.4102	80.9555	45.4102	80.9166	45.4102	80.9303
46.875	82.206	46.875	82.2053	46.875	82.1926	46.875	82.1907	46.875	82.1651	46.875	82.1628	46.875	82.124	46.875	82.1226	46.875	82.0702	46.875	82.0715	46.875	82.0052	46.875	82.0108	46.875	81.9307	46.875	81.9425	46.875	81.8492	46.875	81.8686	46.875	81.7633	46.875	81.791	46.875	81.6762	46.875	81.7121	46.875	81.5909	46.875	81.6341	46.875	81.5108	46.875	81.5592	46.875	81.4388	46.875	81.4894	46.875	81.3773	46.875	81.4265	46.875	81.3284	46.875	81.3722	46.875	81.2933	46.875	81.3278	46.875	81.2726	46.875	81.2947	46.875	81.2662	46.875	81.2738
48.3398	82.6395	48.3398	82.6362	48.3398	82.6281	48.3398	82.6184	48.3398	82.6021	48.3398	82.5868	48.3398	82.562	48.3398	82.5424	48.3398	82.5089	48.3398	82.4868	48.3398	82.4442	48.3398	82.4216	48.3398	82.37	48.3398	82.3487	48.3398	82.2887	48.3398	82.2706	48.3398	82.2029	48.3398	82.1895	48.3398	82.1158	48.3398	82.1079	48.3398	82.0304	48.3398	82.0284	48.3398	81.9498	48.3398	81.9532	48.3398	81.8768	48.3398	81.8845	48.3398	81.8138	48.3398	81.824	48.3398	81.7625	48.3398	81.7733	48.3398	81.7241	48.3398	81.7336	48.3398	81.6993	48.3398	81.7057	48.3398	81.6881	48.3398	81.6903
51.2695	83.2977	51.2695	83.3005	51.2695	83.2813	51.2695	83.2898	51.2695	83.2514	51.2695	83.2663	51.2695	83.2088	51.2695	83.2308	51.2695	83.1545	51.2695	83.1847	51.2695	83.0902	51.2695	83.1295	51.2695	83.0179	51.2695	83.0671	51.2695	82.9401	51.2695	82.9994	51.2695	82.8595	51.2695	82.9285	51.2695	82.7792	51.2695	82.8565	51.2695	82.7022	51.2695	82.7854	51.2695	82.6313	51.2695	82.7172	51.2695	82.5692	51.2695	82.6536	51.2695	82.5177	51.2695	82.596	51.2695	82.4784	51.2695	82.5457	51.2695	82.452	51.2695	82.5038	51.2695	82.4385	51.2695	82.4712	51.2695	82.4377	51.2695	82.4489
52.7344	83.6017	52.7344	83.6073	52.7344	83.5822	52.7344	83.5995	52.7344	83.5491	52.7344	83.5788	52.7344	83.503	52.7344	83.5464	52.7344	83.4449	52.7344	83.5034	52.7344	83.3766	52.7344	83.4515	52.7344	83.3001	52.7344	83.3924	52.7344	83.2181	52.7344	83.3279	52.7344	83.1336	52.7344	83.26	52.7344	83.0499	52.7344	83.1904	52.7344	82.9705	52.7344	83.1209	52.7344	82.8985	52.7344	83.053	52.7344	82.8367	52.7344	82.9882	52.7344	82.7876	52.7344	82.9278	52.7344	82.7524	52.7344	82.8728	52.7344	82.732	52.7344	82.8246	52.7344	82.726	52.7344	82.7844	52.7344	82.7336	52.7344	82.7536
54.1992	83.8811	54.1992	83.8833	54.1992	83.8656	54.1992	83.8725	54.1992	83.8369	54.1992	83.8496	54.1992	83.7954	54.1992	83.8159	54.1992	83.7424	54.1992	83.7728	54.1992	83.6795	54.1992	83.7222	54.1992	83.609	54.1992	83.6659	54.1992	83.5336	54.1992	83.6061	54.1992	83.4564	54.1992	83.5445	54.1992	83.3806	54.1992	83.4831	54.1992	83.3096	54.1992	83.4233	54.1992	83.2464	54.1992	83.3664	54.1992	83.1935	54.1992	83.3135	54.1992	83.1525	54.1992	83.2651	54.1992	83.1242	54.1992	83.2219	54.1992	83.1086	54.1992	83.1843	54.1992	83.105	54.1992	83.1528	54.1992	83.112	54.1992	83.1284
55.6641	84.1204	55.6641	84.1146	55.6641	84.1121	55.6641	84.0952	55.6641	84.0895	55.6641	84.0633	55.6641	84.0533	55.6641	84.0205	55.6641	84.0043	55.6641	83.9686	55.6641	83.9444	55.6641	83.9099	55.6641	83.8755	55.6641	83.8468	55.6641	83.8004	55.6641	83.7816	55.6641	83.7221	55.6641	83.7167	55.6641	83.6439	55.6641	83.6539	55.6641	83.5693	55.6641	83.5949	55.6641	83.5013	55.6641	83.5409	55.6641	83.4427	55.6641	83.4924	55.6641	83.3955	55.6641	83.4498	55.6641	83.3609	55.6641	83.4131	55.6641	83.339	55.6641	83.3823	55.6641	83.329	55.6641	83.3577	55.6641	83.3298	55.6641	83.3399
58.5938	84.7324	58.5938	84.7194	58.5938	84.731	58.5938	84.6928	58.5938	84.7151	58.5938	84.6537	58.5938	84.6851	58.5938	84.6039	58.5938	84.642	58.5938	84.5456	58.5938	84.5875	58.5938	84.4811	58.5938	84.5235	58.5938	84.4132	58.5938	84.4528	58.5938	84.3445	58.5938	84.3782	58.5938	84.2775	58.5938	84.3028	58.5938	84.2144	58.5938	84.23	58.5938	84.1569	58.5938	84.1625	58.5938	84.1064	58.5938	84.1029	58.5938	84.0634	58.5938	84.053	58.5938	84.0281	58.5938	84.0138	58.5938	84.0002	58.5938	83.9854	58.5938	83.9794	58.5938	83.9674	58.5938	83.9654	58.5938	83.9587	58.5938	83.9584
60.0586	84.9799	60.0586	84.9643	60.0586	84.9808	60.0586	84.9348	60.0586	84.9667	60.0586	84.8926	60.0586	84.9382	60.0586	84.8397	60.0586	84.8962	60.0586	84.7784	60.0586	84.8424	60.0586	84.7112	60.0586	84.779	60.0586	84.6411	60.0586	84.7085	60.0586	84.5707	60.0586	84.6339	60.0586	84.5029	60.0586	84.5585	60.0586	84.4398	60.0586	84.4855	60.0586	84.3832	60.0586	84.4177	60.0586	84.3344	60.0586	84.3577	60.0586	84.2937	60.0586	84.3071	60.0586	84.2612	60.0586	84.2668	60.0586	84.2364	60.0586	84.2371	60.0586	84.2187	60.0586	84.2174	60.0586	84.2078	60.0586	84.2065	60.0586	84.2036
62.9883	85.5373	62.9883	85.5118	62.9883	85.546	62.9883	85.4705	62.9883	85.5376	62.9883	85.4152	62.9883	85.5123	62.9883	85.3482	62.9883	85.4712	62.9883	85.2722	62.9883	85.4157	62.9883	85.1905	62.9883	85.3484	62.9883	85.1066	62.9883	85.272	62.9883	85.0239	62.9883	85.1898	62.9883	84.9457	62.9883	85.1055	62.9883	84.875	62.9883	85.0226	62.9883	84.8137	62.9883	84.9446	62.9883	84.7632	62.9883	84.8742	62.9883	84.7237	62.9883	84.8135	62.9883	84.6948	62.9883	84.7635	62.9883	84.6755	62.9883	84.7245	62.9883	84.6647	62.9883	84.6959	62.9883	84.6615	62.9883	84.6765	62.9883	84.6653
64.4531	85.7172	64.4531	85.6883	64.4531	85.7287	64.4531	85.643	64.4531	85.7223	64.4531	85.5831	64.4531	85.6984	64.4531	85.511	64.4531	85.658	64.4531	85.4297	64.4531	85.6027	64.4531	85.3428	64.4531	85.5351	64.4531	85.2539	64.4531	85.458	64.4531	85.167	64.4531	85.3748	64.4531	85.0856	64.4531	85.2892	64.4531	85.0128	64.4531	85.2048	64.4531	84.9509	64.4531	85.125	64.4531	84.9011	64.4531	85.0527	64.4531	84.8638	64.4531	84.9899	64.4531	84.8381	64.4531	84.9376	64.4531	84.8227	64.4531	84.8959	64.4531	84.8164	64.4531	84.8641	64.4531	84.8176	64.4531	84.8411	64.4531	84.8259
67.3828	86.1158	67.3828	86.0805	67.3828	86.1322	67.3828	86.0276	67.3828	86.1294	67.3828	85.9588	67.3828	86.1078	67.3828	85.8769	67.3828	86.0686	67.3828	85.7851	67.3828	86.0135	67.3828	85.6875	67.3828	85.9452	67.3828	85.5884	67.3828	85.8667	67.3828	85.4924	67.3828	85.7815	67.3828	85.4038	67.3828	85.6936	67.3828	85.3262	67.3828	85.6066	67.3828	85.2624	67.3828	85.524	67.3828	85.214	67.3828	85.4486	67.3828	85.1808	67.3828	85.3823	67.3828	85.162	67.3828	85.3259	67.3828	85.1554	67.3828	85.2792	67.3828	85.1587	67.3828	85.2415	67.3828	85.1699	67.3828	85.2113	67.3828	85.1876
68.8477	86.315	68.8477	86.2771	68.8477	86.3332	68.8477	86.2206	68.8477	86.3314	68.8477	86.1472	68.8477	86.31	68.8477	86.0598	68.8477	86.2702	68.8477	85.9618	68.8477	86.214	68.8477	85.8572	68.8477	86.1439	68.8477	85.7508	68.8477	86.0631	68.8477	85.6475	68.8477	85.9752	68.8477	85.5519	68.8477	85.884	68.8477	85.4682	68.8477	85.7934	68.8477	85.3997	68.8477	85.7067	68.8477	85.3481	68.8477	85.627	68.8477	85.3136	68.8477	85.556	68.8477	85.2951	68.8477	85.4947	68.8477	85.2905	68.8477	85.443	68.8477	85.2972	68.8477	85.3999	68.8477	85.3127	68.8477	85.3644	68.8477	85.3354
71.7773	86.606	71.7773	86.5652	71.7773	86.6261	71.7773	86.5044	71.7773	86.6252	71.7773	86.4253	71.7773	86.6042	71.7773	86.3306	71.7773	86.5642	71.7773	86.2236	71.7773	86.5075	71.7773	86.1088	71.7773	86.4366	71.7773	85.991	71.7773	86.3546	71.7773	85.8756	71.7773	86.2651	71.7773	85.7682	71.7773	86.1717	71.7773	85.6737	71.7773	86.078	71.7773	85.5961	71.7773	85.9871	71.7773	85.538	71.7773	85.9018	71.7773	85.5002	71.7773	85.8238	71.7773	85.4819	71.7773	85.7539	71.7773	85.4807	71.7773	85.6922	71.7773	85.4938	71.7773	85.6382	71.7773	85.518	71.7773	85.5912	71.7773	85.551
74.707	86.9036	74.707	86.8697	74.707	86.9162	74.707	86.8149	74.707	86.9076	74.707	86.7405	74.707	86.879	74.707	86.649	74.707	86.8322	74.707	86.5435	74.707	86.7695	74.707	86.4281	74.707	86.694	74.707	86.3078	74.707	86.6091	74.707	86.1882	74.707	86.5185	74.707	86.075	74.707	86.4259	74.707	85.9737	74.707	86.3345	74.707	85.889	74.707	86.2474	74.707	85.8242	74.707	86.1664	74.707	85.7808	74.707	86.0927	74.707	85.7584	74.707	86.0265	74.707	85.755	74.707	85.9674	74.707	85.7675	74.707	85.9146	74.707	85.7923	74.707	85.8676	74.707	85.8264
77.6367	87.1588	77.6367	87.134	77.6367	87.1618	77.6367	87.0878	77.6367	87.1435	77.6367	87.0213	77.6367	87.1054	77.6367	86.9368	77.6367	87.0497	77.6367	86.8375	77.6367	86.9791	77.6367	86.7274	77.6367	86.8974	77.6367	86.6115	77.6367	86.8085	77.6367	86.4954	77.6367	86.7166	77.6367	86.385	77.6367	86.6258	77.6367	86.2857	77.6367	86.5396	77.6367	86.2024	77.6367	86.4607	77.6367	86.1383	77.6367	86.3907	77.6367	86.095	77.6367	86.33	77.6367	86.072	77.6367	86.2777	77.6367	86.0669	77.6367	86.2323	77.6367	86.0764	77.6367	86.1922	77.6367	86.0965	77.6367	86.1562	77.6367	86.1239
79.1016	87.2857	79.1016	87.2672	79.1016	87.282	79.1016	87.2267	79.1016	87.2567	79.1016	87.1653	79.1016	87.2112	79.1016	87.0854	79.1016	87.1479	79.1016	86.9899	79.1016	87.0699	79.1016	86.883	79.1016	86.9812	79.1016	86.7695	79.1016	86.886	79.1016	86.6549	79.1016	86.7891	79.1016	86.5449	79.1016	86.695	79.1016	86.4453	79.1016	86.6075	79.1016	86.3606	79.1016	86.5296	79.1016	86.2942	79.1016	86.4631	79.1016	86.2476	79.1016	86.4079	79.1016	86.2203	79.1016	86.363	79.1016	86.2101	79.1016	86.3263	79.1016	86.2133	79.1016	86.2955	79.1016	86.2263	79.1016	86.2688	79.1016	86.2455
82.0312	87.404	82.0312	87.3932	82.0312	87.3908	82.0312	87.3584	82.0312	87.354	82.0312	87.3011	82.0312	87.2953	82.0312	87.2234	82.0312	87.2171	82.0312	87.1284	82.0312	87.123	82.0312	87.0202	82.0312	87.0173	82.0312	86.9038	82.0312	86.905	82.0312	86.7847	82.0312	86.7917	82.0312	86.6687	82.0312	86.6829	82.0312	86.5616	82.0312	86.5836	82.0312	86.4683	82.0312	86.4977	82.0312	86.3922	82.0312	86.4275	82.0312	86.3349	82.0312	86.3732	82.0312	86.2959	82.0312	86.3337	82.0312	86.2729	82.0312	86.3061	82.0312	86.2626	82.0312	86.2873	82.0312	86.2613	82.0312	86.2745	82.0312	86.2658
84.9609	87.6062	84.9609	87.5919	84.9609	87.597	84.9609	87.5549	84.9609	87.5647	84.9609	87.4967	84.9609	87.5103	84.9609	87.4196	84.9609	87.4359	84.9609	87.3268	84.9609	87.3447	84.9609	87.2223	84.9609	87.2405	84.9609	87.1105	84.9609	87.1284	84.9609	86.9966	84.9609	87.0135	84.9609	86.8856	84.9609	86.9016	84.9609	86.7824	84.9609	86.7979	84.9609	86.6914	84.9609	86.7065	84.9609	86.6154	84.9609	86.6305	84.9609	86.556	84.9609	86.5709	84.9609	86.513	84.9609	86.527	84.9609	86.4845	84.9609	86.4967	84.9609	86.4681	84.9609	86.4771	84.9609	86.4608	84.9609	86.4656	84.9609	86.4603
87.8906	87.5634	87.8906	87.5515	87.8906	87.5516	87.8906	87.5164	87.8906	87.5165	87.8906	87.4597	87.8906	87.4599	87.8906	87.3843	87.8906	87.3848	87.8906	87.2941	87.8906	87.2951	87.8906	87.1941	87.8906	87.1958	87.8906	87.0898	87.8906	87.0928	87.8906	86.9875	87.8906	86.9924	87.8906	86.8934	87.8906	86.9005	87.8906	86.8126	87.8906	86.8224	87.8906	86.7492	87.8906	86.7615	87.8906	86.7047	87.8906	86.7192	87.8906	86.6788	87.8906	86.6943	87.8906	86.6684	87.8906	86.6837	87.8906	86.6691	87.8906	86.6825	87.8906	86.6756	87.8906	86.6856	87.8906	86.683	87.8906	86.6884	87.8906	86.6878
90.8203	87.8382	90.8203	87.8282	90.8203	87.8213	90.8203	87.7919	90.8203	87.7777	90.8203	87.7312	90.8203	87.7087	90.8203	87.6488	90.8203	87.6168	90.8203	87.5482	90.8203	87.5056	90.8203	87.4342	90.8203	87.3799	90.8203	87.3121	90.8203	87.2457	90.8203	87.1879	90.8203	87.1097	90.8203	87.0675	90.8203	86.9791	90.8203	86.9566	90.8203	86.8608	90.8203	86.8596	90.8203	86.7604	90.8203	86.7795	90.8203	86.6815	90.8203	86.7171	90.8203	86.6255	90.8203	86.671	90.8203	86.5908	90.8203	86.6383	90.8203	86.574	90.8203	86.6152	90.8203	86.5703	90.8203	86.5982	90.8203	86.5752	90.8203	86.5851
95.2148	87.7209	95.2148	87.7041	95.2148	87.7112	95.2148	87.6615	95.2148	87.6753	95.2148	87.5952	95.2148	87.6149	95.2148	87.5082	95.2148	87.533	95.2148	87.4049	95.2148	87.4337	95.2148	87.2908	95.2148	87.3224	95.2148	87.1722	95.2148	87.2057	95.2148	87.0559	95.2148	87.0904	95.2148	86.9489	95.2148	86.9838	95.2148	86.8571	95.2148	86.892	95.2148	86.785	95.2148	86.8195	95.2148	86.7347	95.2148	86.7682	95.2148	86.7056	95.2148	86.7371	95.2148	86.6946	95.2148	86.7227	95.2148	86.6964	95.2148	86.7196	95.2148	86.705	95.2148	86.7216	95.2148	86.7147	95.2148	86.7234	95.2148	86.7214
98.1445	87.7011	98.1445	87.692	98.1445	87.6821	98.1445	87.6556	98.1445	87.6352	98.1445	87.5941	98.1445	87.5621	98.1445	87.5108	98.1445	87.4661	98.1445	87.4104	98.1445	87.3517	98.1445	87.2984	98.1445	87.2251	98.1445	87.1814	98.1445	87.0935	98.1445	87.0663	98.1445	86.9654	98.1445	86.96	98.1445	86.8489	98.1445	86.8683	98.1445	86.7514	98.1445	86.7954	98.1445	86.6783	98.1445	86.7432	98.1445	86.6317	98.1445	86.7106	98.1445	86.6103	98.1445	86.694	98.1445	86.6095	98.1445	86.6881	98.1445	86.6226	98.1445	86.6865	98.1445	86.6421	98.1445	86.6837	98.1445	86.6613	98.1445	86.6758
101.074	87.7063	101.074	87.6887	101.074	87.6932	101.074	87.6421	101.074	87.6491	101.074	87.5693	101.074	87.5755	101.074	87.4746	101.074	87.4752	101.074	87.3638	101.074	87.3528	101.074	87.2434	101.074	87.2149	101.074	87.121	101.074	87.0695	101.074	87.0043	101.074	86.9261	101.074	86.9006	101.074	86.7948	101.074	86.8155	101.074	86.6845	101.074	86.7525	101.074	86.6025	101.074	86.7116	101.074	86.5523	101.074	86.6902	101.074	86.5329	101.074	86.6826	101.074	86.5396	101.074	86.6819	101.074	86.5641	101.074	86.681	101.074	86.5973	101.074	86.6738	101.074	86.6304	101.074	86.657
105.469	87.96	105.469	87.9244	105.469	87.962	105.469	87.8563	105.469	87.9306	105.469	87.7579	105.469	87.867	105.469	87.633	105.469	87.7741	105.469	87.4871	105.469	87.6558	105.469	87.3274	105.469	87.5181	105.469	87.1629	105.469	87.3683	105.469	87.0039	105.469	87.2156	105.469	86.8611	105.469	87.0698	105.469	86.7442	105.469	86.9406	105.469	86.66	105.469	86.8361	105.469	86.6111	105.469	86.7611	105.469	86.595	105.469	86.7159	105.469	86.6046	105.469	86.6963	105.469	86.6299	105.469	86.6944	105.469	86.6601	105.469	86.7006	105.469	86.6858	105.469	86.7052	105.469	86.7014
108.398	88.0847	108.398	88.0655	108.398	88.0689	108.398	88.0118	108.398	88.0186	108.398	87.9255	108.398	87.9358	108.398	87.8099	108.398	87.8236	108.398	87.6697	108.398	87.6865	108.398	87.5115	108.398	87.5309	108.398	87.3435	108.398	87.3645	108.398	87.1754	108.398	87.1968	108.398	87.0175	108.398	87.0378	108.398	86.8799	108.398	86.8974	108.398	86.7704	108.398	86.7838	108.398	86.6935	108.398	86.702	108.398	86.6488	108.398	86.6525	108.398	86.6314	108.398	86.6311	108.398	86.6326	108.398	86.6301	108.398	86.6427	108.398	86.6396	108.398	86.6523	108.398	86.6503	108.398	86.6555
112.793	88.0977	112.793	88.0795	112.793	88.0798	112.793	88.0262	112.793	88.0264	112.793	87.9402	112.793	87.9391	112.793	87.825	112.793	87.8213	112.793	87.6857	112.793	87.6779	112.793	87.5291	112.793	87.5156	112.793	87.363	112.793	87.3427	112.793	87.1967	112.793	87.1688	112.793	87.0398	112.793	87.0044	112.793	86.9015	112.793	86.8596	112.793	86.789	112.793	86.7423	112.793	86.7062	112.793	86.6573	112.793	86.6532	112.793	86.6052	112.793	86.6254	112.793	86.5818	112.793	86.6156	112.793	86.5795	112.793	86.615	112.793	86.5892	112.793	86.6155	112.793	86.602	112.793	86.6117
117.188	87.9943	117.188	87.9668	117.188	87.9849	117.188	87.9042	117.188	87.938	117.188	87.8098	117.188	87.8548	117.188	87.6881	117.188	87.7382	117.188	87.5453	117.188	87.5928	117.188	87.3889	117.188	87.4258	117.188	87.2278	117.188	87.2462	117.188	87.0714	117.188	87.0651	117.188	86.9292	117.188	86.8946	117.188	86.8092	117.188	86.7467	117.188	86.7168	117.188	86.6307	117.188	86.6538	117.188	86.5521	117.188	86.6178	117.188	86.5109	117.188	86.6029	117.188	86.5017	117.188	86.6005	117.188	86.5152	117.188	86.6019	117.188	86.5405	117.188	86.5993	117.188	86.5672	117.188	86.588
120.117	88.0678	120.117	88.0251	120.117	88.0717	120.117	87.9458	120.117	88.0361	120.117	87.8337	120.117	87.9618	120.117	87.6939	120.117	87.8511	120.117	87.5336	120.117	87.7083	120.117	87.3617	120.117	87.54	120.117	87.1884	120.117	87.3552	120.117	87.025	120.117	87.1651	120.117	86.882	120.117	86.9826	120.117	86.7682	120.117	86.8208	120.117	86.6884	120.117	86.6913	120.117	86.6425	120.117	86.6015	120.117	86.6256	120.117	86.5529	120.117	86.6286	120.117	86.5409	120.117	86.6408	120.117	86.5558	120.117	86.6517	120.117	86.5853	120.117	86.6534	120.117	86.6171	120.117	86.6416
124.512	88.1389	124.512	88.0751	124.512	88.1615	124.512	87.9715	124.512	88.1433	124.512	87.8307	124.512	88.086	124.512	87.6578	124.512	87.9927	124.512	87.46	124.512	87.8684	124.512	87.2475	124.512	87.7194	124.512	87.0329	124.512	87.554	124.512	86.8312	124.512	87.3824	124.512	86.6576	124.512	87.2155	124.512	86.5254	124.512	87.0645	124.512	86.4433	124.512	86.9389	124.512	86.4124	124.512	86.8448	124.512	86.4266	124.512	86.7832	124.512	86.4733	124.512	86.7498	124.512	86.5371	124.512	86.7359	124.512	86.6028	124.512	86.7299	124.512	86.6587	124.512	86.7203	124.512	86.6981
128.906	88.0673	128.906	88.0233	128.906	88.0687	128.906	87.9364	128.906	88.0289	128.906	87.8082	128.906	87.9511	128.906	87.6422	128.906	87.8399	128.906	87.4445	128.906	87.7016	128.906	87.2239	128.906	87.5442	128.906	86.9931	128.906	87.3776	128.906	86.7676	128.906	87.2129	128.906	86.5652	128.906	87.0613	128.906	86.4036	128.906	86.933	128.906	86.2963	128.906	86.835	128.906	86.2496	128.906	86.7698	128.906	86.2604	128.906	86.7342	128.906	86.3166	128.906	86.7201	128.906	86.4004	128.906	86.7157	128.906	86.4929	128.906	86.7083	128.906	86.5777	128.906	86.6869	128.906	86.6439
133.301	88.0528	133.301	88.0429	133.301	88.018	133.301	87.9878	133.301	87.94	133.301	87.8886	133.301	87.8221	133.301	87.7481	133.301	87.6692	133.301	87.5711	133.301	87.4886	133.301	87.3647	133.301	87.2902	133.301	87.1395	133.301	87.0862	133.301	86.9094	133.301	86.891	133.301	86.6912	133.301	86.7195	133.301	86.503	133.301	86.5848	133.301	86.3612	133.301	86.4952	133.301	86.2763	133.301	86.452	133.301	86.2498	133.301	86.4484	133.301	86.2735	133.301	86.4714	133.301	86.3311	133.301	86.5043	133.301	86.4027	133.301	86.5305	133.301	86.4693	133.301	86.537	133.301	86.5166
139.16	87.8565	139.16	87.8479	139.16	87.8189	139.16	87.7952	139.16	87.7346	139.16	87.7016	139.16	87.6044	139.16	87.5719	139.16	87.4313	139.16	87.4122	139.16	87.2207	139.16	87.2307	139.16	86.9815	139.16	87.0373	139.16	86.7261	139.16	86.8437	139.16	86.4711	139.16	86.6628	139.16	86.2364	139.16	86.5068	139.16	86.0424	139.16	86.3854	139.16	85.9062	139.16	86.3036	139.16	85.8371	139.16	86.2596	139.16	85.8333	139.16	86.2448	139.16	85.8821	139.16	86.2459	139.16	85.9634	139.16	86.2474	139.16	86.0551	139.16	86.2352	139.16	86.1381	139.16	86.1998
143.555	87.7069	143.555	87.6635	143.555	87.7023	143.555	87.5742	143.555	87.649	143.555	87.4423	143.555	87.5478	143.555	87.2732	143.555	87.4011	143.555	87.074	143.555	87.2133	143.555	86.8545	143.555	86.992	143.555	86.627	143.555	86.7476	143.555	86.4063	143.555	86.4947	143.555	86.2081	143.555	86.2509	143.555	86.047	143.555	86.0358	143.555	85.9333	143.555	85.8676	143.555	85.8705	143.555	85.7585	143.555	85.8532	143.555	85.7117	143.555	85.8687	143.555	85.7192	143.555	85.8996	143.555	85.7643	143.555	85.928	143.555	85.8263	143.555	85.9393	143.555	85.8849	143.555	85.9251
147.949	87.551	147.949	87.4936	147.949	87.5595	147.949	87.3889	147.949	87.5189	147.949	87.2403	147.949	87.4305	147.949	87.0528	147.949	87.2972	147.949	86.8342	147.949	87.1242	147.949	86.5952	147.949	86.9192	147.949	86.3497	147.949	86.6932	147.949	86.1148	147.949	86.4603	147.949	85.9087	147.949	86.2373	147.949	85.7484	147.949	86.042	147.949	85.6454	147.949	85.8897	147.949	85.6024	147.949	85.7901	147.949	85.6122	147.949	85.744	147.949	85.6593	147.949	85.7428	147.949	85.7237	147.949	85.7706	147.949	85.7858	147.949	85.8086	147.949	85.8303	147.949	85.839	147.949	85.8484
153.809	87.6341	153.809	87.6073	153.809	87.6072	153.809	87.5274	153.809	87.5273	153.809	87.3966	153.809	87.3964	153.809	87.2185	153.809	87.2183	153.809	86.9993	153.809	86.9996	153.809	86.7484	153.809	86.75	153.809	86.4792	153.809	86.4833	153.809	86.2096	153.809	86.2176	153.809	85.9607	153.809	85.9739	153.809	85.7545	153.809	85.7736	153.809	85.609	153.809	85.6338	153.809	85.5332	153.809	85.5622	153.809	85.5238	153.809	85.5542	153.809	85.5653	153.809	85.5941	153.809	85.6346	153.809	85.6588	153.809	85.707	153.809	85.7244	153.809	85.7616	153.809	85.7706	153.809	85.7844
159.668	87.5635	159.668	87.5207	159.668	87.5486	159.668	87.422	159.668	87.4754	159.668	87.2709	159.668	87.3445	159.668	87.0725	159.668	87.1586	159.668	86.835	159.668	86.923	159.668	86.5703	159.668	86.647	159.668	86.2947	159.668	86.3454	159.668	86.0292	159.668	86.039	159.668	85.7976	159.668	85.7547	159.668	85.623	159.668	85.5221	159.668	85.5213	159.668	85.367	159.668	85.4964	159.668	85.3034	159.668	85.5371	159.668	85.3278	159.668	85.6201	159.668	85.4193	159.668	85.7165	159.668	85.5464	159.668	85.798	159.668	85.6756	159.668	85.8426	159.668	85.7788	159.668	85.8371
165.527	87.6985	165.527	87.666	165.527	87.6718	165.527	87.575	165.527	87.5855	165.527	87.4269	165.527	87.4398	165.527	87.2242	165.527	87.2362	165.527	86.9712	165.527	86.9777	165.527	86.6753	165.527	86.6706	165.527	86.3487	165.527	86.3263	165.527	86.0092	165.527	85.9623	165.527	85.6811	165.527	85.6041	165.527	85.3932	165.527	85.2833	165.527	85.1729	165.527	85.0327	165.527	85.0384	165.527	84.8768	165.527	84.9914	165.527	84.8226	165.527	85.0145	165.527	84.8553	165.527	85.0773	165.527	84.9434	165.527	85.1449	165.527	85.0489	165.527	85.1879	165.527	85.1379	165.527	85.1873
171.387	87.5291	171.387	87.4543	171.387	87.5471	171.387	87.3245	171.387	87.5071	171.387	87.1424	171.387	87.4086	171.387	86.9124	171.387	87.2515	171.387	86.6414	171.387	87.0375	171.387	86.3403	171.387	86.7707	171.387	86.0248	171.387	86.4592	171.387	85.7159	171.387	86.1167	171.387	85.4384	171.387	85.7647	171.387	85.2166	171.387	85.4313	171.387	85.0682	171.387	85.1489	171.387	84.9979	171.387	84.9462	171.387	84.995	171.387	84.8388	171.387	85.0362	171.387	84.8227	171.387	85.0925	171.387	84.8754	171.387	85.1368	171.387	84.9637	171.387	85.1495	171.387	85.0542	171.387	85.1211
177.246	87.2467	177.246	87.1742	177.246	87.2648	177.246	87.0457	177.246	87.2298	177.246	86.8604	177.246	87.1434	177.246	86.6184	177.246	87.0075	177.246	86.3222	177.246	86.8251	177.246	85.9779	177.246	86.6006	177.246	85.5984	177.246	86.3414	177.246	85.2053	177.246	86.0592	177.246	84.8303	177.246	85.7708	177.246	84.5128	177.246	85.4977	177.246	84.2916	177.246	85.2636	177.246	84.1916	177.246	85.0888	177.246	84.2122	177.246	84.9827	177.246	84.3265	177.246	84.9396	177.246	84.4912	177.246	84.9386	177.246	84.6621	177.246	84.9505	177.246	84.8051	177.246	84.9454	177.246	84.9007
183.105	86.7591	183.105	86.7379	183.105	86.7257	183.105	86.662	183.105	86.6384	183.105	86.5326	183.105	86.4992	183.105	86.3516	183.105	86.3117	183.105	86.1233	183.105	86.0822	183.105	85.8549	183.105	85.8205	183.105	85.5584	183.105	85.5414	183.105	85.2522	183.105	85.265	183.105	84.9613	183.105	85.0157	183.105	84.7156	183.105	84.8194	183.105	84.5438	183.105	84.6965	183.105	84.4647	183.105	84.6554	183.105	84.4789	183.105	84.6878	183.105	84.5674	183.105	84.7705	183.105	84.6976	183.105	84.8716	183.105	84.8331	183.105	84.9594	183.105	84.9424	183.105	85.0086	183.105	85.0039
188.965	87.0772	188.965	87.0191	188.965	87.0669	188.965	86.8934	188.965	86.9881	188.965	86.7017	188.965	86.8411	188.965	86.4474	188.965	86.6277	188.965	86.1371	188.965	86.3515	188.965	85.7823	188.965	86.0205	188.965	85.4023	188.965	85.6489	188.965	85.0261	188.965	85.2604	188.965	84.6915	188.965	84.8893	188.965	84.4402	188.965	84.5784	188.965	84.3054	188.965	84.37	188.965	84.298	188.965	84.2903	188.965	84.3998	188.965	84.3372	188.965	84.5696	188.965	84.4785	188.965	84.7575	188.965	84.6647	188.965	84.9183	188.965	84.8451	188.965	85.0188	188.965	84.9789	188.965	85.0404
196.289	87.5758	196.289	87.5705	196.289	87.5128	196.289	87.4972	196.289	87.3801	196.289	87.3555	196.289	87.1757	196.289	87.1444	196.289	86.8982	196.289	86.8633	196.289	86.5478	196.289	86.5139	196.289	86.129	196.289	86.1036	196.289	85.6544	196.289	85.649	196.289	85.149	196.289	85.1813	196.289	84.655	196.289	84.7476	196.289	84.2309	196.289	84.4049	196.289	83.9394	196.289	84.2023	196.289	83.8227	196.289	84.1573	196.289	83.8784	196.289	84.2439	196.289	84.0585	196.289	84.4037	196.289	84.2914	196.289	84.5703	196.289	84.5093	196.289	84.6889	196.289	84.6626	196.289	84.7245
203.613	87.0091	203.613	86.928	203.613	87.031	203.613	86.7885	203.613	86.9919	203.613	86.5915	203.613	86.8894	203.613	86.3383	203.613	86.7204	203.613	86.0318	203.613	86.4815	203.613	85.6787	203.613	86.1707	203.613	85.2912	203.613	85.7893	203.613	84.89	203.613	85.3456	203.613	84.5053	203.613	84.8601	203.613	84.1754	203.613	84.3702	203.613	83.9378	203.613	83.9314	203.613	83.8166	203.613	83.6068	203.613	83.8092	203.613	83.4441	203.613	83.8845	203.613	83.4495	203.613	83.9937	203.613	83.5815	203.613	84.086	203.613	83.7718	203.613	84.1212	203.613	83.9529	203.613	84.0771
210.938	87.004	210.938	86.9266	210.938	87.0228	210.938	86.79	210.938	86.9818	210.938	86.5924	210.938	86.8785	210.938	86.3308	210.938	86.7093	210.938	86.0031	210.938	86.4706	210.938	85.6097	210.938	86.16	210.938	85.1586	210.938	85.7792	210.938	84.6702	210.938	85.3378	210.938	84.1831	210.938	84.8585	210.938	83.7552	210.938	84.3816	210.938	83.4532	210.938	83.965	210.938	83.3261	210.938	83.6715	210.938	83.3763	210.938	83.5435	210.938	83.5548	210.938	83.5785	210.938	83.7844	210.938	83.7265	210.938	83.9908	210.938	83.9137	210.938	84.1208	210.938	84.0706	210.938	84.1478
218.262	86.5972	218.262	86.5187	218.262	86.6234	218.262	86.3856	218.262	86.5989	218.262	86.1952	218.262	86.5243	218.262	85.9444	218.262	86.3992	218.262	85.6309	218.262	86.2222	218.262	85.2544	218.262	85.9916	218.262	84.8202	218.262	85.7071	218.262	84.3436	218.262	85.3727	218.262	83.8561	218.262	85.0003	218.262	83.4086	218.262	84.6133	218.262	83.0657	218.262	84.2481	218.262	82.8843	218.262	83.9483	218.262	82.8843	218.262	83.7509	218.262	83.0326	218.262	83.6682	218.262	83.2597	218.262	83.6784	218.262	83.4903	218.262	83.7333	218.262	83.6679	218.262	83.777	218.262	83.7636
225.586	86.8428	225.586	86.8279	225.586	86.7905	225.586	86.7421	225.586	86.6748	225.586	86.5814	225.586	86.4993	225.586	86.3418	225.586	86.2687	225.586	86.02	225.586	85.9885	225.586	85.6159	225.586	85.6672	225.586	85.1364	225.586	85.3174	225.586	84.6016	225.586	84.959	225.586	84.0531	225.586	84.6206	225.586	83.5584	225.586	84.3379	225.586	83.2026	225.586	84.1465	225.586	83.0567	225.586	84.0687	225.586	83.1363	225.586	84.1008	225.586	83.3885	225.586	84.2111	225.586	83.7219	225.586	84.35	225.586	84.0486	225.586	84.4652	225.586	84.3067	225.586	84.5129	225.586	84.4641
232.91	87.0897	232.91	87.1402	232.91	86.9672	232.91	87.1181	232.91	86.772	232.91	87.0213	232.91	86.5034	232.91	86.8455	232.91	86.1614	232.91	86.5841	232.91	85.748	232.91	86.2289	232.91	85.2693	232.91	85.7737	232.91	84.7388	232.91	85.219	232.91	84.1833	232.91	84.5813	232.91	83.6475	232.91	83.9058	232.91	83.1954	232.91	83.2769	232.91	82.8972	232.91	82.8095	232.91	82.799	232.91	82.6014	232.91	82.8928	232.91	82.6672	232.91	83.1149	232.91	82.9229	232.91	83.3751	232.91	83.2418	232.91	83.5904	232.91	83.5157	232.91	83.7019	232.91	83.6783
241.699	87.0581	241.699	86.9759	241.699	87.0768	241.699	86.837	241.699	87.0235	241.699	86.6469	241.699	86.8885	241.699	86.4098	241.699	86.6603	241.699	86.1285	241.699	86.3266	241.699	85.8063	241.699	85.8749	241.699	85.4483	241.699	85.2967	241.699	85.0654	241.699	84.5937	241.699	84.6779	241.699	83.7916	241.699	84.3171	241.699	82.9597	241.699	84.022	241.699	82.2283	241.699	83.8264	241.699	81.7675	241.699	83.7422	241.699	81.6927	241.699	83.7485	241.699	81.9674	241.699	83.7966	241.699	82.4337	241.699	83.8268	241.699	82.9271	241.699	83.7844	241.699	83.3415	241.699	83.6294
250.488	86.8611	250.488	86.7204	250.488	86.9338	250.488	86.509	250.488	86.9407	250.488	86.2243	250.488	86.8823	250.488	85.8643	250.488	86.7573	250.488	85.4298	250.488	86.5619	250.488	84.9259	250.488	86.29	250.488	84.3674	250.488	85.9358	250.488	83.7843	250.488	85.4971	250.488	83.2286	250.488	84.9822	250.488	82.7737	250.488	84.4189	250.488	82.4971	250.488	83.862	250.488	82.4427	250.488	83.3921	250.488	82.5899	250.488	83.091	250.488	82.8605	250.488	82.9988	250.488	83.1572	250.488	83.0846	250.488	83.399	250.488	83.2638	250.488	83.535	250.488	83.4418	250.488	83.5459
259.277	87.9856	259.277	87.9543	259.277	87.9397	259.277	87.8415	259.277	87.8164	259.277	87.6396	259.277	87.6115	259.277	87.337	259.277	87.3174	259.277	86.9205	259.277	86.9239	259.277	86.3774	259.277	86.4211	259.277	85.7019	259.277	85.8045	259.277	84.9065	259.277	85.085	259.277	84.0428	259.277	84.3058	259.277	83.2276	259.277	83.563	259.277	82.6459	259.277	83.0093	259.277	82.4703	259.277	82.7962	259.277	82.7192	259.277	82.9619	259.277	83.2334	259.277	83.3898	259.277	83.8075	259.277	83.8989	259.277	84.2927	259.277	84.3417	259.277	84.6098	259.277	84.631	259.277	84.725
268.066	87.2933	268.066	87.2512	268.066	87.296	268.066	87.1666	268.066	87.2591	268.066	87.0316	268.066	87.1783	268.066	86.8327	268.066	87.0458	268.066	86.5509	268.066	86.8488	268.066	86.1616	268.066	86.5706	268.066	85.6393	268.066	86.1917	268.066	84.9644	268.066	85.6941	268.066	84.1389	268.066	85.0702	268.066	83.2152	268.066	84.3373	268.066	82.3344	268.066	83.5603	268.066	81.7311	268.066	82.8689	268.066	81.6062	268.066	82.4325	268.066	81.9292	268.066	82.3566	268.066	82.4609	268.066	82.5842	268.066	82.959	268.066	82.9378	268.066	83.281	268.066	83.2397	268.066	83.3728
276.855	86.7776	276.855	86.7579	276.855	86.7696	276.855	86.7076	276.855	86.7322	276.855	86.6197	276.855	86.6592	276.855	86.4831	276.855	86.539	276.855	86.2824	276.855	86.3549	276.855	85.9991	276.855	86.0861	276.855	85.6137	276.855	85.7118	276.855	85.1107	276.855	85.217	276.855	84.4883	276.855	84.6033	276.855	83.7744	276.855	83.9053	276.855	83.0492	276.855	83.2098	276.855	82.4549	276.855	82.6583	276.855	82.1516	276.855	82.3937	276.855	82.2043	276.855	82.4556	276.855	82.5169	276.855	82.7376	276.855	82.9073	276.855	83.0671	276.855	83.2184	276.855	83.3014	276.855	83.3596
287.109	87.4609	287.109	87.4542	287.109	87.405	287.109	87.3829	287.109	87.2888	287.109	87.244	287.109	87.1147	287.109	87.032	287.109	86.8828	287.109	86.7368	287.109	86.5888	287.109	86.3434	287.109	86.2218	287.109	85.8339	287.109	85.7645	287.109	85.1947	287.109	85.1992	287.109	84.4292	287.109	84.5199	287.109	83.5806	287.109	83.7531	287.109	82.7608	287.109	82.9872	287.109	82.1561	287.109	82.3858	287.109	81.9445	287.109	82.1269	287.109	82.144	287.109	82.2612	287.109	82.5854	287.109	82.6515	287.109	83.0514	287.109	83.0861	287.109	83.3862	287.109	83.4014	287.109	83.5103
297.363	87.0855	297.363	87.0371	297.363	87.0713	297.363	86.9315	297.363	86.9885	297.363	86.7724	297.363	86.8311	297.363	86.5589	297.363	86.592	297.363	86.2831	297.363	86.2619	297.363	85.9297	297.363	85.8277	297.363	85.4774	297.363	85.2734	297.363	84.906	297.363	84.5837	297.363	84.2091	297.363	83.7549	297.363	83.417	297.363	82.8177	297.363	82.6253	297.363	81.8739	297.363	82.0062	297.363	81.1261	297.363	81.7379	297.363	80.8132	297.363	81.8566	297.363	81.0108	297.363	82.2096	297.363	81.5383	297.363	82.5821	297.363	82.1275	297.363	82.8148	297.363	82.5873	297.363	82.8248
307.617	87.4073	307.617	87.3369	307.617	87.4232	307.617	87.2075	307.617	87.3854	307.617	87.0117	307.617	87.2911	307.617	86.7382	307.617	87.1322	307.617	86.372	307.617	86.8945	307.617	85.8951	307.617	86.5571	307.617	85.2886	307.617	86.0938	307.617	84.5391	307.617	85.4772	307.617	83.652	307.617	84.6869	307.617	82.6748	307.617	83.7244	307.617	81.7292	307.617	82.6406	307.617	81.0157	307.617	81.5736	307.617	80.716	307.617	80.7593	307.617	80.8284	307.617	80.4188	307.617	81.1588	307.617	80.5557	307.617	81.4827	307.617	80.9494	307.617	81.6539	307.617	81.3527	307.617	81.6098
319.336	86.4941	319.336	86.5205	319.336	86.4512	319.336	86.521	319.336	86.3989	319.336	86.4822	319.336	86.3414	319.336	86.3843	319.336	86.2765	319.336	86.1981	319.336	86.1909	319.336	85.8856	319.336	86.0576	319.336	85.4017	319.336	85.8373	319.336	84.6993	319.336	85.4843	319.336	83.7403	319.336	84.9578	319.336	82.5227	319.336	84.2387	319.336	81.1492	319.336	83.3582	319.336	79.9481	319.336	82.4393	319.336	79.447	319.336	81.7162	319.336	79.8408	319.336	81.426	319.336	80.6992	319.336	81.5822	319.336	81.5302	319.336	81.9489	319.336	82.0962	319.336	82.2564	319.336	82.3326
329.59	86.5057	329.59	86.5375	329.59	86.4373	329.59	86.5442	329.59	86.3225	329.59	86.5328	329.59	86.1559	329.59	86.4994	329.59	85.9355	329.59	86.4248	329.59	85.6594	329.59	86.2745	329.59	85.321	329.59	86.0031	329.59	84.9063	329.59	85.5618	329.59	84.3958	329.59	84.9068	329.59	83.7748	329.59	84.0129	329.59	83.0532	329.59	82.9013	329.59	82.2939	329.59	81.6983	329.59	81.6358	329.59	80.7034	329.59	81.2582	329.59	80.2955	329.59	81.2523	329.59	80.5524	329.59	81.5205	329.59	81.1409	329.59	81.8507	329.59	81.6918	329.59	82.0527	329.59	82.0124
341.309	86.9634	341.309	86.8728	341.309	87.0175	341.309	86.7634	341.309	87.0266	341.309	86.6586	341.309	86.9882	341.309	86.5766	341.309	86.8982	341.309	86.5145	341.309	86.7433	341.309	86.438	341.309	86.4952	341.309	86.2852	341.309	86.1098	341.309	85.9825	341.309	85.5313	341.309	85.4643	341.309	84.702	341.309	84.6963	341.309	83.5836	341.309	83.7109	341.309	82.2114	341.309	82.6681	341.309	80.8221	341.309	81.8931	341.309	79.9765	341.309	81.7019	341.309	80.1563	341.309	82.0499	341.309	81.0537	341.309	82.579	341.309	82.0283	341.309	82.9653	341.309	82.7252	341.309	83.037
353.027	87.5323	353.027	87.4248	353.027	87.5639	353.027	87.2481	353.027	87.5238	353.027	87.0203	353.027	87.4241	353.027	86.7675	353.027	87.2792	353.027	86.5165	353.027	87.0968	353.027	86.2804	353.027	86.8693	353.027	86.0462	353.027	86.5687	353.027	85.7706	353.027	86.1481	353.027	85.392	353.027	85.5505	353.027	84.8542	353.027	84.7246	353.027	84.1373	353.027	83.6537	353.027	83.2991	353.027	82.4164	353.027	82.5127	353.027	81.2862	353.027	82.0296	353.027	80.7173	353.027	81.9809	353.027	80.9181	353.027	82.2172	353.027	81.5461	353.027	82.4492	353.027	82.1389	353.027	82.4547
366.211	87.7108	366.211	87.5891	366.211	87.7428	366.211	87.3679	366.211	87.701	366.211	87.0434	366.211	87.6054	366.211	86.6157	366.211	87.4739	366.211	86.0856	366.211	87.3137	366.211	85.4525	366.211	87.1144	366.211	84.7158	366.211	86.8452	366.211	83.8847	366.211	86.4606	366.211	83.0005	366.211	85.9119	366.211	82.17	366.211	85.1632	366.211	81.5768	366.211	84.2154	366.211	81.4012	366.211	83.149	366.211	81.6616	366.211	82.1794	366.211	82.1792	366.211	81.6311	366.211	82.7213	366.211	81.6866	366.211	83.1153	366.211	82.166	366.211	83.264	366.211	82.7274	366.211	83.1286
379.395	87.2286	379.395	87.2334	379.395	87.144	379.395	87.1654	379.395	86.9797	379.395	87.0332	379.395	86.7436	379.395	86.8419	379.395	86.4507	379.395	86.5855	379.395	86.1168	379.395	86.2428	379.395	85.7483	379.395	85.7771	379.395	85.3314	379.395	85.14	379.395	84.8274	379.395	84.2808	379.395	84.1823	379.395	83.1651	379.395	83.3512	379.395	81.8177	379.395	82.3446	379.395	80.4216	379.395	81.3032	379.395	79.4326	379.395	80.5538	379.395	79.3421	379.395	80.4286	379.395	80.0307	379.395	80.8661	379.395	80.9261	379.395	81.465	379.395	81.6194	379.395	81.8812	379.395	81.9488
392.578	86.9045	392.578	86.8699	392.578	86.8817	392.578	86.7853	392.578	86.8072	392.578	86.6653	392.578	86.6985	392.578	86.5208	392.578	86.5777	392.578	86.3444	392.578	86.4568	392.578	86.1002	392.578	86.3224	392.578	85.723	392.578	86.1292	392.578	85.1293	392.578	85.8065	392.578	84.2366	392.578	85.2751	392.578	82.9981	392.578	84.4662	392.578	81.4946	392.578	83.3499	392.578	80.1362	392.578	81.9972	392.578	79.6795	392.578	80.7038	392.578	80.3163	392.578	80.0265	392.578	81.3308	392.578	80.2829	392.578	82.1228	392.578	81.0877	392.578	82.4861	392.578	81.8905	392.578	82.395
405.762	86.9729	405.762	86.9747	405.762	86.8943	405.762	86.9303	405.762	86.7244	405.762	86.8771	405.762	86.47	405.762	86.8451	405.762	86.16	405.762	86.8378	405.762	85.8385	405.762	86.8176	405.762	85.5423	405.762	86.7078	405.762	85.2703	405.762	86.4069	405.762	84.9695	405.762	85.806	405.762	84.5552	405.762	84.8013	405.762	83.9556	405.762	83.3147	405.762	83.1659	405.762	81.381	405.762	82.3095	405.762	79.4625	405.762	81.6659	405.762	78.754	405.762	81.5147	405.762	79.6629	405.762	81.8298	405.762	81.0139	405.762	82.2945	405.762	82.0272	405.762	82.5954	405.762	82.5416
420.41	87.7402	420.41	87.5694	420.41	87.8068	420.41	87.3118	420.41	87.7684	420.41	87.0019	420.41	87.6352	420.41	86.6826	420.41	87.4212	420.41	86.386	420.41	87.1346	420.41	86.1082	420.41	86.7671	420.41	85.7977	420.41	86.2856	420.41	85.3671	420.41	85.6273	420.41	84.7218	420.41	84.7019	420.41	83.7945	420.41	83.4014	420.41	82.5926	420.41	81.6269	420.41	81.2906	420.41	79.4048	420.41	80.3232	420.41	77.3351	420.41	80.1418	420.41	76.9446	420.41	80.6315	420.41	78.3243	420.41	81.2638	420.41	79.9229	420.41	81.6476	420.41	81.0449	420.41	81.6036
435.059	87.739	435.059	87.62	435.059	87.7295	435.059	87.3711	435.059	87.6236	435.059	87.0188	435.059	87.4793	435.059	86.61	435.059	87.3624	435.059	86.1931	435.059	87.3115	435.059	85.7875	435.059	87.3056	435.059	85.3564	435.059	87.2618	435.059	84.8032	435.059	87.0642	435.059	83.9939	435.059	86.5949	435.059	82.7856	435.059	85.7523	435.059	81.0631	435.059	84.4633	435.059	78.8854	435.059	82.7252	435.059	77.0241	435.059	80.7631	435.059	77.0503	435.059	79.3233	435.059	78.58	435.059	79.2349	435.059	80.0613	435.059	80.0602	435.059	80.9515	435.059	80.8609	435.059	81.2017
451.172	87.406	451.172	87.342	451.172	87.3161	451.172	87.1643	451.172	87.0667	451.172	86.9452	451.172	86.6903	451.172	86.775	451.172	86.264	451.172	86.7209	451.172	85.9021	451.172	86.7758	451.172	85.7026	451.172	86.8431	451.172	85.6611	451.172	86.7736	451.172	85.6435	451.172	86.4135	451.172	85.4553	451.172	85.629	451.172	84.9237	451.172	84.3185	451.172	83.9396	451.172	82.4642	451.172	82.5121	451.172	80.3715	451.172	80.9406	451.172	79.1424	451.172	80.0254	451.172	79.6851	451.172	80.3593	451.172	80.9739	451.172	81.3208	451.172	81.9573	451.172	82.0943	451.172	82.3376
465.82	88.2306	465.82	88.0088	465.82	88.2215	465.82	87.5776	465.82	87.9803	465.82	86.9978	465.82	87.5226	465.82	86.3979	465.82	86.8923	465.82	85.9686	465.82	86.1821	465.82	85.8566	465.82	85.5335	465.82	86.014	465.82	85.0722	465.82	86.2079	465.82	84.7909	465.82	86.1737	465.82	84.5189	465.82	85.7052	465.82	84.0261	465.82	84.6583	465.82	83.1341	465.82	82.9671	465.82	81.8063	465.82	80.8491	465.82	80.364	465.82	79.4344	465.82	79.7515	465.82	80.0326	465.82	80.5437	465.82	81.5572	465.82	81.8602	465.82	82.7043	465.82	82.8259	465.82	83.1333
483.398	87.9066	483.398	87.785	483.398	87.8708	483.398	87.481	483.398	87.6967	483.398	86.9659	483.398	87.4041	483.398	86.2232	483.398	87.0247	483.398	85.2828	483.398	86.6093	483.398	84.2735	483.398	86.2197	483.398	83.4394	483.398	85.8916	483.398	82.9874	483.398	85.5856	483.398	82.8363	483.398	85.1704	483.398	82.6641	483.398	84.4519	483.398	82.182	483.398	83.2065	483.398	81.285	483.398	81.1862	483.398	80.1456	483.398	78.1726	483.398	79.3237	483.398	74.8493	483.398	79.3759	483.398	74.9929	483.398	80.0206	483.398	77.6503	483.398	80.5413	483.398	79.5819	483.398	80.4795
499.512	87.1843	499.512	87.1232	499.512	87.0715	499.512	86.9324	499.512	86.7689	499.512	86.6717	499.512	86.301	499.512	86.3998	499.512	85.7475	499.512	86.1504	499.512	85.2454	499.512	85.9123	499.512	84.9395	499.512	85.6241	499.512	84.8722	499.512	85.1872	499.512	84.9242	499.512	84.4843	499.512	84.8878	499.512	83.393	499.512	84.5696	499.512	81.7952	499.512	83.8317	499.512	79.6224	499.512	82.6002	499.512	77.128	499.512	80.9256	499.512	75.6689	499.512	79.2009	499.512	76.5216	499.512	78.3216	499.512	78.1611	499.512	78.6646	499.512	79.3005	499.512	79.3773	499.512	79.6862
517.09	88.0425	517.09	87.8111	517.09	87.9964	517.09	87.2968	517.09	87.6892	517.09	86.5257	517.09	87.1478	517.09	85.604	517.09	86.4243	517.09	84.7828	517.09	85.6239	517.09	84.4038	517.09	84.9189	517.09	84.5711	517.09	84.4751	517.09	84.9681	517.09	84.2867	517.09	85.1665	517.09	84.1271	517.09	84.878	517.09	83.6936	517.09	83.9587	517.09	82.739	517.09	82.4069	517.09	81.121	517.09	80.5511	517.09	78.9597	517.09	79.3642	517.09	77.2273	517.09	79.5632	517.09	77.4532	517.09	80.3473	517.09	78.8943	517.09	80.8508	517.09	80.1411	517.09	80.8003
536.133	89.5608	536.133	89.493	536.133	89.3872	536.133	89.1687	536.133	88.9772	536.133	88.571	536.133	88.3316	536.133	87.7048	536.133	87.4675	536.133	86.6435	536.133	86.4609	536.133	85.5923	536.133	85.4952	536.133	84.8595	536.133	84.8286	536.133	84.5715	536.133	84.5668	536.133	84.4448	536.133	84.4805	536.133	84.0228	536.133	84.181	536.133	82.941	536.133	83.3479	536.133	80.9787	536.133	81.7918	536.133	78.3433	536.133	79.6069	536.133	76.9977	536.133	77.9079	536.133	78.5864	536.133	78.4913	536.133	80.6065	536.133	80.2511	536.133	81.8111	536.133	81.5874	536.133	82.1228
555.176	88.6628	555.176	88.5272	555.176	88.5869	555.176	88.1776	555.176	88.2965	555.176	87.6068	555.176	87.7934	555.176	86.8144	555.176	87.1055	555.176	85.8353	555.176	86.3227	555.176	84.782	555.176	85.6241	555.176	83.8612	555.176	85.2103	555.176	83.2575	555.176	85.1095	555.176	82.9146	555.176	85.0933	555.176	82.5238	555.176	84.8399	555.176	81.7385	555.176	84.088	555.176	80.3211	555.176	82.6657	555.176	78.3002	555.176	80.5343	555.176	76.5974	555.176	78.1524	555.176	76.9242	555.176	77.1417	555.176	78.4877	555.176	78.1288	555.176	79.6509	555.176	79.385	555.176	79.9562
574.219	89.3455	574.219	89.1238	574.219	89.385	574.219	88.6985	574.219	89.2242	574.219	88.0235	574.219	88.8038	574.219	87.0682	574.219	88.037	574.219	85.9045	574.219	86.8478	574.219	84.8506	574.219	85.2814	574.219	84.4289	574.219	83.776	574.219	84.7312	574.219	83.2099	574.219	85.159	574.219	83.6565	574.219	85.0829	574.219	84.0922	574.219	84.1016	574.219	83.7437	574.219	81.8851	574.219	82.2385	574.219	78.2552	574.219	79.4672	574.219	76.0776	574.219	77.1917	574.219	79.2384	574.219	79.2278	574.219	82.2514	574.219	82.119	574.219	83.9009	574.219	83.8381	574.219	84.4026
594.727	88.2948	594.727	88.2718	594.727	88.247	594.727	88.1617	594.727	88.0955	594.727	87.897	594.727	87.774	594.727	87.3723	594.727	87.2066	594.727	86.4749	594.727	86.3416	594.727	85.1563	594.727	85.2089	594.727	83.6187	594.727	84.0117	594.727	82.5587	594.727	83.1325	594.727	82.5452	594.727	82.7731	594.727	82.925	594.727	82.5998	594.727	82.752	594.727	82.059	594.727	81.507	594.727	80.7006	594.727	78.8201	594.727	78.1571	594.727	74.5034	594.727	74.6077	594.727	72.6295	594.727	73.9994	594.727	76.1281	594.727	76.9512	594.727	78.6277	594.727	78.976	594.727	79.5175
615.234	88.2942	615.234	88.1904	615.234	88.2171	615.234	87.8911	615.234	87.9843	615.234	87.3919	615.234	87.6161	615.234	86.6915	615.234	87.1052	615.234	85.7982	615.234	86.4147	615.234	84.7657	615.234	85.5208	615.234	83.752	615.234	84.507	615.234	83.0057	615.234	83.6597	615.234	82.6446	615.234	83.3171	615.234	82.4284	615.234	83.3788	615.234	81.8841	615.234	83.2818	615.234	80.5046	615.234	82.4462	615.234	77.7101	615.234	80.3405	615.234	72.9781	615.234	76.0763	615.234	71.5651	615.234	67.5712	615.234	75.7177	615.234	71.103	615.234	77.9777	615.234	76.3365	615.234	78.2004
637.207	89.0939	637.207	88.9933	637.207	89.0097	637.207	88.7109	637.207	88.7326	637.207	88.228	637.207	88.2568	637.207	87.4939	637.207	87.5719	637.207	86.4493	637.207	86.664	637.207	85.1256	637.207	85.5654	637.207	83.878	637.207	84.4827	637.207	83.425	637.207	83.839	637.207	83.8433	637.207	83.8118	637.207	84.226	637.207	83.9239	637.207	83.8149	637.207	83.5457	637.207	82.2368	637.207	82.2898	637.207	79.3049	637.207	80.0391	637.207	75.7392	637.207	77.4548	637.207	75.5214	637.207	76.9238	637.207	77.8787	637.207	78.4475	637.207	79.4974	637.207	79.7109	637.207	80.0763
659.18	87.8719	659.18	87.866	659.18	87.8229	659.18	87.774	659.18	87.697	659.18	87.5261	659.18	87.4289	659.18	87.038	659.18	86.938	659.18	86.2357	659.18	86.162	659.18	85.0879	659.18	85.0882	659.18	83.6812	659.18	83.798	659.18	82.3424	659.18	82.5246	659.18	81.5375	659.18	81.6099	659.18	81.2542	659.18	81.1824	659.18	80.8783	659.18	80.905	659.18	79.7967	659.18	80.2307	659.18	77.5636	659.18	78.661	659.18	73.9008	659.18	75.7611	659.18	70.7968	659.18	71.8407	659.18	72.7094	659.18	71.4868	659.18	74.8947	659.18	74.1015	659.18	75.3727
682.617	88.172	682.617	88.1147	682.617	88.1355	682.617	87.9959	682.617	87.9719	682.617	87.8006	682.617	87.6553	682.617	87.4315	682.617	87.1402	682.617	86.731	682.617	86.3385	682.617	85.5562	682.617	85.1401	682.617	83.9268	682.617	83.5438	682.617	82.3799	682.617	82.0224	682.617	82.0041	682.617	81.6302	682.617	82.6904	682.617	82.3005	682.617	83.1226	682.617	82.6975	682.617	82.452	682.617	81.9344	682.617	80.1195	682.617	79.454	682.617	75.3391	682.617	74.8913	682.617	72.4873	682.617	74.3053	682.617	77.7896	682.617	78.8139	682.617	80.9388	682.617	81.3483	682.617	82.0002
707.52	87.5603	707.52	87.4641	707.52	87.5932	707.52	87.3115	707.52	87.5483	707.52	87.0834	707.52	87.3958	707.52	86.7078	707.52	87.0767	707.52	86.0656	707.52	86.5055	707.52	85.0565	707.52	85.5954	707.52	83.7497	707.52	84.3165	707.52	82.6006	707.52	82.8318	707.52	82.1971	707.52	81.6636	707.52	82.2741	707.52	81.3126	707.52	81.9703	707.52	81.3821	707.52	80.6666	707.52	80.9959	707.52	77.9086	707.52	79.4696	707.52	73.3488	707.52	76.0806	707.52	70.9681	707.52	69.6634	707.52	74.3625	707.52	69.2879	707.52	76.4627	707.52	74.4656	707.52	76.5464
732.422	87.6352	732.422	87.4482	732.422	87.5618	732.422	87.0396	732.422	87.2679	732.422	86.4991	732.422	86.859	732.422	85.901	732.422	86.4299	732.422	85.2214	732.422	85.9541	732.422	84.3197	732.422	85.2648	732.422	83.039	732.422	84.1966	732.422	81.4395	732.422	82.8451	732.422	80.2313	732.422	81.7967	732.422	80.3644	732.422	81.5764	732.422	81.1097	732.422	81.6626	732.422	81.0855	732.422	81.1838	732.422	79.532	732.422	79.5822	732.422	75.8847	732.422	76.3989	732.422	70.5879	732.422	71.3316	732.422	71.4054	732.422	69.236	732.422	74.0102	732.422	72.5797	732.422	74.3542
757.324	86.833	757.324	86.737	757.324	86.894	757.324	86.6227	757.324	86.8995	757.324	86.4894	757.324	86.8114	757.324	86.2717	757.324	86.5557	757.324	85.8131	757.324	86.0186	757.324	84.9273	757.324	85.0571	757.324	83.568	757.324	83.5353	757.324	82.137	757.324	81.5059	757.324	81.4836	757.324	79.8294	757.324	81.6247	757.324	79.9209	757.324	81.5835	757.324	80.8802	757.324	80.6678	757.324	81.0693	757.324	78.53	757.324	79.8066	757.324	75.1511	757.324	76.6483	757.324	73.1738	757.324	71.6901	757.324	75.3297	757.324	72.0317	757.324	77.2039	757.324	75.7154	757.324	77.3937
785.156	86.8008	785.156	86.3611	785.156	86.7533	785.156	85.4809	785.156	86.3681	785.156	84.4947	785.156	85.9262	785.156	83.9315	785.156	85.6833	785.156	83.8618	785.156	85.6166	785.156	83.7337	785.156	85.3943	785.156	83.076	785.156	84.6456	785.156	81.7672	785.156	83.2019	785.156	80.1471	785.156	81.2907	785.156	79.2033	785.156	79.7784	785.156	79.0842	785.156	79.3717	785.156	78.4204	785.156	79.228	785.156	76.2875	785.156	78.2166	785.156	72.0746	785.156	75.8536	785.156	62.9981	785.156	73.6458	785.156	68.7523	785.156	75.5712	785.156	75.4353	785.156	77.8475	785.156	77.9691
811.523	85.0227	811.523	84.6931	811.523	85.2171	811.523	84.3196	811.523	85.2369	811.523	83.9454	811.523	85.1097	811.523	83.5363	811.523	84.8339	811.523	83.0763	811.523	84.2879	811.523	82.6328	811.523	83.2604	811.523	82.3108	811.523	81.6047	811.523	82.2519	811.523	79.6935	811.523	82.5854	811.523	79.2736	811.523	83.0963	811.523	81.0558	811.523	83.2557	811.523	83.0011	811.523	82.6488	811.523	83.9967	811.523	81.0338	811.523	83.7671	811.523	78.1729	811.523	82.2426	811.523	74.2734	811.523	79.5939	811.523	72.9861	811.523	76.9572	811.523	75.0478	811.523	76.2127	811.523	76.1918
840.82	89.2176	840.82	89.2645	840.82	88.7806	840.82	88.8791	840.82	88.0488	840.82	88.1386	840.82	87.1547	840.82	87.3118	840.82	86.2752	840.82	86.7034	840.82	85.6012	840.82	86.2151	840.82	85.1682	840.82	85.3176	840.82	84.6982	840.82	83.468	840.82	83.7813	840.82	80.6265	840.82	82.1997	840.82	78.8951	840.82	80.2365	840.82	79.8154	840.82	78.7899	840.82	80.3046	840.82	78.0656	840.82	78.9377	840.82	76.8781	840.82	74.4913	840.82	74.053	840.82	53.7584	840.82	71.6961	840.82	73.1034	840.82	75.8311	840.82	78.3311	840.82	79.0452	840.82	79.8591
870.117	86.3935	870.117	86.3828	870.117	86.0029	870.117	86.0399	870.117	85.2942	870.117	85.5141	870.117	84.4516	870.117	84.8324	870.117	83.6711	870.117	83.8497	870.117	83.0686	870.117	82.4455	870.117	82.574	870.117	80.6801	870.117	81.8677	870.117	79.0712	870.117	80.5412	870.117	78.9828	870.117	78.6419	870.117	80.5289	870.117	77.704	870.117	81.9215	870.117	78.7086	870.117	82.1558	870.117	79.3318	870.117	80.8739	870.117	77.7595	870.117	77.6454	870.117	72.5912	870.117	71.5236	870.117	69.8594	870.117	69.2909	870.117	75.1704	870.117	74.485	870.117	77.1411	870.117	76.857
900.879	88.201	900.879	87.8552	900.879	88.328	900.879	87.2959	900.879	88.134	900.879	86.4176	900.879	87.5106	900.879	85.2186	900.879	86.4179	900.879	84.0213	900.879	85.0568	900.879	83.1155	900.879	83.9217	900.879	82.1184	900.879	83.1737	900.879	80.2843	900.879	82.2753	900.879	77.5523	900.879	80.6255	900.879	76.685	900.879	78.3093	900.879	78.6277	900.879	76.679	900.879	80.031	900.879	75.9825	900.879	79.8494	900.879	74.6142	900.879	77.6987	900.879	72.346	900.879	72.6602	900.879	72.0805	900.879	55.7417	900.879	74.918	900.879	70.7345	900.879	76.7365	900.879	75.8691
933.105	88.5956	933.105	88.3058	933.105	88.1327	933.105	87.2749	933.105	87.0691	933.105	85.7586	933.105	85.7485	933.105	84.4243	933.105	84.6975	933.105	83.7614	933.105	84.3755	933.105	83.2982	933.105	84.5197	933.105	82.6103	933.105	84.2952	933.105	81.6542	933.105	83.1776	933.105	79.9934	933.105	81.0477	933.105	77.0606	933.105	77.9262	933.105	74.5146	933.105	75.2836	933.105	74.0995	933.105	76.9963	933.105	72.8972	933.105	79.3989	933.105	71.5028	933.105	79.5675	933.105	72.1526	933.105	75.8815	933.105	75.111	933.105	62.2626	933.105	78.1694	933.105	75.664	933.105	78.9502
965.332	85.0467	965.332	85.464	965.332	84.7594	965.332	85.7876	965.332	84.6405	965.332	85.7235	965.332	84.5201	965.332	85.075	965.332	84.0916	965.332	83.8407	965.332	83.0895	965.332	82.2264	965.332	81.5759	965.332	80.3465	965.332	80.183	965.332	77.631	965.332	79.3965	965.332	73.0755	965.332	78.6622	965.332	69.5681	965.332	77.7925	965.332	73.5078	965.332	77.469	965.332	76.5674	965.332	77.1845	965.332	77.4996	965.332	75.4293	965.332	76.4754	965.332	72.396	965.332	73.9369	965.332	69.9769	965.332	70.8878	965.332	66.6011	965.332	70.0823	965.332	68.8674	965.332	70.9995
1,000.49	86.5707	1,000.49	86.3627	1,000.49	86.7551	1,000.49	86.1114	1,000.49	86.7848	1,000.49	85.5377	1,000.49	86.5501	1,000.49	84.3734	1,000.49	85.9114	1,000.49	82.7433	1,000.49	84.7176	1,000.49	81.293	1,000.49	83.1361	1,000.49	80.686	1,000.49	81.794	1,000.49	80.6099	1,000.49	80.9406	1,000.49	80.1872	1,000.49	80.0314	1,000.49	79.2395	1,000.49	78.8313	1,000.49	78.5296	1,000.49	77.8926	1,000.49	78.1906	1,000.49	77.5367	1,000.49	77.0218	1,000.49	77.2854	1,000.49	73.6683	1,000.49	76.4866	1,000.49	66.1979	1,000.49	74.6952	1,000.49	42.6255	1,000.49	71.5483	1,000.49	55.9301	1,000.49	66.4602	1,000.49	61.0781
1,035.64	87.27	1,035.64	87.1448	1,035.64	86.7676	1,035.64	86.2836	1,035.64	85.7933	1,035.64	84.8326	1,035.64	84.4872	1,035.64	83.4288	1,035.64	83.1271	1,035.64	82.826	1,035.64	82.1727	1,035.64	82.6936	1,035.64	81.6988	1,035.64	82.2724	1,035.64	81.3049	1,035.64	81.4419	1,035.64	80.7508	1,035.64	80.2131	1,035.64	79.9035	1,035.64	78.3447	1,035.64	78.4259	1,035.64	76.8994	1,035.64	76.3246	1,035.64	77.5268	1,035.64	75.6933	1,035.64	78.0067	1,035.64	77.0981	1,035.64	76.9799	1,035.64	77.6506	1,035.64	73.8342	1,035.64	75.2943	1,035.64	67.2112	1,035.64	68.0655	1,035.64	72.0691	1,035.64	73.0705	1,035.64	75.5315
1,072.27	85.1425	1,072.27	84.6401	1,072.27	85.2712	1,072.27	84.0442	1,072.27	85.077	1,072.27	83.5602	1,072.27	84.7745	1,072.27	82.9206	1,072.27	84.3604	1,072.27	81.9163	1,072.27	83.5119	1,072.27	80.8852	1,072.27	82.0645	1,072.27	79.8262	1,072.27	80.6263	1,072.27	77.6112	1,072.27	80.0121	1,072.27	74.3855	1,072.27	79.5287	1,072.27	74.6134	1,072.27	78.5993	1,072.27	76.9948	1,072.27	78.4244	1,072.27	78.5421	1,072.27	79.0624	1,072.27	78.5049	1,072.27	78.0646	1,072.27	75.9624	1,072.27	73.4574	1,072.27	69.8297	1,072.27	66.562	1,072.27	69.3795	1,072.27	69.5808	1,072.27	72.2896	1,072.27	71.2044	1,072.27	72.2172
1,108.89	85.8115	1,108.89	85.7076	1,108.89	85.6594	1,108.89	85.1768	1,108.89	85.4461	1,108.89	84.1749	1,108.89	85.0352	1,108.89	82.6832	1,108.89	83.9903	1,108.89	80.7981	1,108.89	82.1583	1,108.89	79.0972	1,108.89	80.3721	1,108.89	78.5619	1,108.89	79.7169	1,108.89	78.7633	1,108.89	79.4	1,108.89	78.3204	1,108.89	78.3371	1,108.89	77.0805	1,108.89	76.9817	1,108.89	77.7509	1,108.89	76.753	1,108.89	79.6599	1,108.89	76.3634	1,108.89	79.6727	1,108.89	74.4186	1,108.89	76.8027	1,108.89	70.6798	1,108.89	70.1562	1,108.89	65.0024	1,108.89	66.6316	1,108.89	67.364	1,108.89	70.9092	1,108.89	71.7851	1,108.89	72.9547
1,148.44	83.649	1,148.44	84.0578	1,148.44	83.8852	1,148.44	84.717	1,148.44	84.3485	1,148.44	84.7521	1,148.44	84.4999	1,148.44	83.6782	1,148.44	83.9564	1,148.44	81.7126	1,148.44	82.4905	1,148.44	79.7493	1,148.44	80.238	1,148.44	78.0689	1,148.44	77.9805	1,148.44	76.2753	1,148.44	76.4955	1,148.44	75.1959	1,148.44	74.8473	1,148.44	73.3789	1,148.44	72.1341	1,148.44	68.7416	1,148.44	69.9873	1,148.44	72.5266	1,148.44	73.0943	1,148.44	75.5143	1,148.44	77.0115	1,148.44	74.5389	1,148.44	78.5272	1,148.44	70.2412	1,148.44	77.0098	1,148.44	63.5389	1,148.44	70.4513	1,148.44	72.7009	1,148.44	71.6538	1,148.44	75.6086
1,189.45	86.9462	1,189.45	86.7453	1,189.45	86.1766	1,189.45	85.4084	1,189.45	85.1073	1,189.45	83.7543	1,189.45	83.9927	1,189.45	82.6754	1,189.45	82.6557	1,189.45	81.8768	1,189.45	81.3391	1,189.45	80.9406	1,189.45	80.3342	1,189.45	79.9719	1,189.45	79.4441	1,189.45	78.5661	1,189.45	78.6525	1,189.45	75.6702	1,189.45	78.4426	1,189.45	70.0931	1,189.45	77.4137	1,189.45	64.9479	1,189.45	73.9011	1,189.45	73.0655	1,189.45	72.3282	1,189.45	76.3054	1,189.45	73.8496	1,189.45	76.0742	1,189.45	72.5163	1,189.45	72.3689	1,189.45	68.8562	1,189.45	61.7847	1,189.45	64.2417	1,189.45	63.1808	1,189.45	54.9256	1,189.45	63.7391
1,230.47	86.5683	1,230.47	85.6327	1,230.47	86.886	1,230.47	84.4685	1,230.47	86.5703	1,230.47	83.61	1,230.47	85.7405	1,230.47	83.1126	1,230.47	84.4756	1,230.47	82.5893	1,230.47	82.8066	1,230.47	81.6831	1,230.47	80.9463	1,230.47	80.2612	1,230.47	79.2915	1,230.47	78.5196	1,230.47	77.9064	1,230.47	77.1384	1,230.47	77.2557	1,230.47	76.2541	1,230.47	76.2554	1,230.47	73.3698	1,230.47	72.2922	1,230.47	68.608	1,230.47	69.2304	1,230.47	72.6128	1,230.47	72.3925	1,230.47	74.1497	1,230.47	72.9717	1,230.47	70.7886	1,230.47	71.2586	1,230.47	64.8215	1,230.47	65.55	1,230.47	69.5002	1,230.47	69.6728	1,230.47	72.5534
1,274.41	87.5689	1,274.41	87.6004	1,274.41	86.6873	1,274.41	86.4071	1,274.41	85.6935	1,274.41	84.676	1,274.41	84.8067	1,274.41	83.505	1,274.41	83.851	1,274.41	82.5386	1,274.41	82.7012	1,274.41	80.799	1,274.41	81.5025	1,274.41	79.6728	1,274.41	80.425	1,274.41	80.2435	1,274.41	79.6833	1,274.41	80.3478	1,274.41	79.6695	1,274.41	79.3715	1,274.41	78.5886	1,274.41	77.4892	1,274.41	78.1515	1,274.41	75.722	1,274.41	78.3191	1,274.41	75.7995	1,274.41	75.5972	1,274.41	75.2293	1,274.41	73.8206	1,274.41	74.1751	1,274.41	75.5755	1,274.41	71.0325	1,274.41	74.1891	1,274.41	62.7747	1,274.41	68.0535	1,274.41	65.6186
1,319.82	86.9041	1,319.82	86.4727	1,319.82	86.4925	1,319.82	85.4511	1,319.82	85.7207	1,319.82	84.4214	1,319.82	84.9575	1,319.82	83.4872	1,319.82	83.925	1,319.82	82.412	1,319.82	82.5542	1,319.82	80.7812	1,319.82	81.2789	1,319.82	78.6202	1,319.82	80.0054	1,319.82	76.8986	1,319.82	78.2517	1,319.82	75.7185	1,319.82	75.5587	1,319.82	75.2021	1,319.82	71.8218	1,319.82	72.7898	1,319.82	71.6961	1,319.82	65.4177	1,319.82	70.4494	1,319.82	72.8259	1,319.82	72.2512	1,319.82	76.7739	1,319.82	76.0212	1,319.82	75.4445	1,319.82	74.2088	1,319.82	67.3506	1,319.82	68.4285	1,319.82	55.5231	1,319.82	61.8004	1,319.82	59.6503
1,366.7	86.1345	1,366.7	86.1807	1,366.7	85.4846	1,366.7	85.4944	1,366.7	84.7053	1,366.7	84.8616	1,366.7	84.0275	1,366.7	84.7066	1,366.7	83.0418	1,366.7	84.1319	1,366.7	81.3488	1,366.7	82.8615	1,366.7	79.7388	1,366.7	81.3781	1,366.7	78.3139	1,366.7	79.3224	1,366.7	75.4175	1,366.7	76.931	1,366.7	73.1079	1,366.7	75.926	1,366.7	74.0632	1,366.7	74.1505	1,366.7	74.7691	1,366.7	68.5153	1,366.7	74.0431	1,366.7	73.7108	1,366.7	74.841	1,366.7	76.1351	1,366.7	74.975	1,366.7	75.024	1,366.7	73.1499	1,366.7	71.6471	1,366.7	70.5711	1,366.7	70.3248	1,366.7	71.7576	1,366.7	72.7864
1,413.57	85.7927	1,413.57	85.1479	1,413.57	85.6381	1,413.57	84.3111	1,413.57	84.6776	1,413.57	83.6045	1,413.57	83.6932	1,413.57	82.9495	1,413.57	82.8167	1,413.57	82.5421	1,413.57	81.8679	1,413.57	81.6639	1,413.57	81.1589	1,413.57	79.595	1,413.57	79.6813	1,413.57	77.5577	1,413.57	76.7805	1,413.57	78.3065	1,413.57	75.215	1,413.57	77.2585	1,413.57	74.7845	1,413.57	70.6315	1,413.57	72.8762	1,413.57	66.9495	1,413.57	63.4998	1,413.57	70.5219	1,413.57	69.7824	1,413.57	73.3877	1,413.57	74.1849	1,413.57	75.1163	1,413.57	73.0794	1,413.57	74.2342	1,413.57	64.2803	1,413.57	70.2534	1,413.57	65.9314	1,413.57	69.2417
1,463.38	86.4164	1,463.38	85.3709	1,463.38	86.6009	1,463.38	83.963	1,463.38	85.871	1,463.38	82.8856	1,463.38	84.5297	1,463.38	82.0792	1,463.38	82.9313	1,463.38	81.1494	1,463.38	81.3372	1,463.38	80.2436	1,463.38	80.0206	1,463.38	79.2707	1,463.38	78.0538	1,463.38	78.0538	1,463.38	74.9018	1,463.38	77.8198	1,463.38	72.84	1,463.38	77.2613	1,463.38	74.048	1,463.38	72.6642	1,463.38	75.2431	1,463.38	71.6251	1,463.38	72.8901	1,463.38	75.4741	1,463.38	73.8919	1,463.38	74.4702	1,463.38	71.926	1,463.38	69.8367	1,463.38	65.1239	1,463.38	52.6028	1,463.38	64.1983	1,463.38	65.7954	1,463.38	75.3754	1,463.38	75.8888
1,516.11	86.6825	1,516.11	86.3123	1,516.11	86.8391	1,516.11	85.8597	1,516.11	86.4373	1,516.11	85.5157	1,516.11	85.633	1,516.11	84.719	1,516.11	84.3221	1,516.11	82.4767	1,516.11	82.1563	1,516.11	80.1897	1,516.11	80.8184	1,516.11	79.4645	1,516.11	80.2653	1,516.11	77.8218	1,516.11	77.7563	1,516.11	78.2937	1,516.11	75.8967	1,516.11	77.2116	1,516.11	76.3222	1,516.11	73.2651	1,516.11	73.1256	1,516.11	68.4012	1,516.11	65.3286	1,516.11	73.3452	1,516.11	67.4322	1,516.11	76.9916	1,516.11	75.1351	1,516.11	74.5325	1,516.11	74.9527	1,516.11	73.0881	1,516.11	71.1314	1,516.11	75.1507	1,516.11	76.6976	1,516.11	76.716
1,568.85	87.1256	1,568.85	86.2503	1,568.85	87.2004	1,568.85	84.9327	1,568.85	86.3633	1,568.85	84.1745	1,568.85	85.2196	1,568.85	84.059	1,568.85	83.8729	1,568.85	83.5303	1,568.85	81.794	1,568.85	81.7699	1,568.85	80.9125	1,568.85	80.5754	1,568.85	79.2822	1,568.85	80.9648	1,568.85	76.2129	1,568.85	80.1654	1,568.85	76.8112	1,568.85	77.4779	1,568.85	75.4337	1,568.85	74.0457	1,568.85	74.6576	1,568.85	72.6476	1,568.85	71.0461	1,568.85	71.8157	1,568.85	73.783	1,568.85	77.6696	1,568.85	75.0493	1,568.85	77.3542	1,568.85	74.5266	1,568.85	71.7911	1,568.85	74.2371	1,568.85	69.8277	1,568.85	76.5539	1,568.85	73.4332
1,624.51	86.63	1,624.51	86.9762	1,624.51	86.4382	1,624.51	86.8692	1,624.51	86.0396	1,624.51	85.6472	1,624.51	85.2341	1,624.51	83.9026	1,624.51	84.2631	1,624.51	82.9489	1,624.51	82.1523	1,624.51	81.6274	1,624.51	79.5744	1,624.51	79.7529	1,624.51	78.2363	1,624.51	79.3976	1,624.51	76.0927	1,624.51	78.2495	1,624.51	74.4668	1,624.51	74.2699	1,624.51	76.0969	1,624.51	71.7085	1,624.51	75.0272	1,624.51	74.7128	1,624.51	68.2999	1,624.51	68.8213	1,624.51	64.0803	1,624.51	72.5437	1,624.51	75.3855	1,624.51	75.6228	1,624.51	78.0224	1,624.51	69.8028	1,624.51	73.6592	1,624.51	76.2649	1,624.51	75.3278	1,624.51	77.9583
1,681.64	87.2369	1,681.64	87.0205	1,681.64	86.3576	1,681.64	85.9198	1,681.64	85.3186	1,681.64	84.9294	1,681.64	83.6789	1,681.64	83.4386	1,681.64	81.7975	1,681.64	81.8668	1,681.64	81.752	1,681.64	81.4072	1,681.64	81.1366	1,681.64	80.3381	1,681.64	78.6827	1,681.64	79.3306	1,681.64	77.442	1,681.64	78.8941	1,681.64	78.8863	1,681.64	73.4866	1,681.64	79.0286	1,681.64	70.863	1,681.64	76.1414	1,681.64	73.5012	1,681.64	72.9783	1,681.64	72.1186	1,681.64	64.7203	1,681.64	76.3858	1,681.64	70.3416	1,681.64	76.1396	1,681.64	72.9967	1,681.64	61.9147	1,681.64	65.8128	1,681.64	61.9853	1,681.64	66.9106	1,681.64	67.1919
1,741.7	84.944	1,741.7	84.5819	1,741.7	85.5506	1,741.7	84.5976	1,741.7	85.3119	1,741.7	83.5865	1,741.7	84.6529	1,741.7	83.0688	1,741.7	84.13	1,741.7	82.4929	1,741.7	81.6863	1,741.7	78.4764	1,741.7	79.3032	1,741.7	77.7692	1,741.7	80.0623	1,741.7	78.6007	1,741.7	79.5223	1,741.7	76.298	1,741.7	76.5965	1,741.7	73.8406	1,741.7	75.0963	1,741.7	68.7226	1,741.7	73.3084	1,741.7	66.1488	1,741.7	70.2495	1,741.7	69.1282	1,741.7	69.1302	1,741.7	71.0473	1,741.7	68.2081	1,741.7	72.4891	1,741.7	73.2102	1,741.7	70.4935	1,741.7	69.2274	1,741.7	73.8112	1,741.7	69.4398	1,741.7	76.1148
1,803.22	86.2534	1,803.22	86.0546	1,803.22	86.709	1,803.22	85.1547	1,803.22	86.565	1,803.22	84.5517	1,803.22	85.3093	1,803.22	84.2183	1,803.22	84.9138	1,803.22	81.5501	1,803.22	83.5081	1,803.22	80.0097	1,803.22	81.3584	1,803.22	78.8623	1,803.22	81.0951	1,803.22	76.2036	1,803.22	81.8997	1,803.22	79.7381	1,803.22	81.7941	1,803.22	78.2261	1,803.22	78.0369	1,803.22	67.7845	1,803.22	74.3838	1,803.22	71.4831	1,803.22	74.2622	1,803.22	74.7753	1,803.22	73.8766	1,803.22	72.791	1,803.22	73.8039	1,803.22	72.8877	1,803.22	72.8638	1,803.22	70.3777	1,803.22	69.0193	1,803.22	53.9183	1,803.22	66.5591	1,803.22	72.1455
1,866.21	86.8521	1,866.21	86.5685	1,866.21	86.904	1,866.21	86.3406	1,866.21	86.9006	1,866.21	86.2918	1,866.21	86.1651	1,866.21	85.2652	1,866.21	85.3898	1,866.21	83.3252	1,866.21	85.1097	1,866.21	81.8974	1,866.21	83.0765	1,866.21	79.9979	1,866.21	81.5893	1,866.21	78.3914	1,866.21	80.9041	1,866.21	79.6412	1,866.21	79.11	1,866.21	77.6371	1,866.21	74.526	1,866.21	74.6371	1,866.21	73.7026	1,866.21	72.0784	1,866.21	75.0128	1,866.21	66.4958	1,866.21	73.5138	1,866.21	73.9228	1,866.21	70.3706	1,866.21	72.4542	1,866.21	72.8821	1,866.21	70.922	1,866.21	73.4628	1,866.21	58.8135	1,866.21	63.7192	1,866.21	70.0072
1,932.13	85.4692	1,932.13	86.0194	1,932.13	85.5168	1,932.13	85.6479	1,932.13	85.1	1,932.13	84.6601	1,932.13	86.0198	1,932.13	85.553	1,932.13	85.2234	1,932.13	84.9538	1,932.13	83.0226	1,932.13	80.7811	1,932.13	82.5896	1,932.13	79.3593	1,932.13	79.5556	1,932.13	79.0687	1,932.13	76.3321	1,932.13	75.1924	1,932.13	74.4329	1,932.13	72.966	1,932.13	74.4409	1,932.13	76.4978	1,932.13	75.2029	1,932.13	77.9983	1,932.13	74.167	1,932.13	75.4977	1,932.13	73.9015	1,932.13	74.5105	1,932.13	73.1151	1,932.13	75.7445	1,932.13	74.9823	1,932.13	68.0753	1,932.13	73.0225	1,932.13	62.9621	1,932.13	70.3996	1,932.13	67.1022
1,999.51	84.8497	1,999.51	84.8041	1,999.51	84.9286	1,999.51	84.548	1,999.51	84.6539	1,999.51	83.9728	1,999.51	84.2954	1,999.51	83.0822	1,999.51	83.3174	1,999.51	82.257	1,999.51	82.9263	1,999.51	81.0866	1,999.51	82.0412	1,999.51	78.962	1,999.51	79.4105	1,999.51	78.3908	1,999.51	78.6922	1,999.51	75.6612	1,999.51	76.9718	1,999.51	73.1568	1,999.51	72.6605	1,999.51	73.6309	1,999.51	72.659	1,999.51	72.3615	1,999.51	71.7221	1,999.51	70.6902	1,999.51	71.29	1,999.51	67.7809	1,999.51	64.2773	1,999.51	71.8693	1,999.51	72.0151	1,999.51	70.0691	1,999.51	70.7328	1,999.51	67.1874	1,999.51	54.9586	1,999.51	64.8082
2,069.82	85.2502	2,069.82	85.324	2,069.82	85.3851	2,069.82	85.0026	2,069.82	85.3564	2,069.82	84.6171	2,069.82	85.0407	2,069.82	83.7583	2,069.82	84.517	2,069.82	82.5873	2,069.82	83.5015	2,069.82	81.4374	2,069.82	82.936	2,069.82	79.0324	2,069.82	81.2893	2,069.82	77.7425	2,069.82	78.9787	2,069.82	76.3933	2,069.82	78.1725	2,069.82	72.372	2,069.82	75.6437	2,069.82	71.6665	2,069.82	74.0374	2,069.82	71.5552	2,069.82	71.2929	2,069.82	71.2134	2,069.82	72.9971	2,069.82	67.4348	2,069.82	70.8345	2,069.82	70.8645	2,069.82	69.8228	2,069.82	67.0457	2,069.82	71.3812	2,069.82	59.032	2,069.82	69.4055	2,069.82	70.095
2,143.07	85.6323	2,143.07	85.3947	2,143.07	85.6313	2,143.07	85.5206	2,143.07	85.8445	2,143.07	85.7356	2,143.07	85.7772	2,143.07	84.8858	2,143.07	85.34	2,143.07	83.6461	2,143.07	84.1491	2,143.07	82.629	2,143.07	82.8816	2,143.07	81.2196	2,143.07	81.6912	2,143.07	79.1247	2,143.07	79.5212	2,143.07	77.4163	2,143.07	78.3662	2,143.07	74.1989	2,143.07	75.1468	2,143.07	72.3625	2,143.07	74.8017	2,143.07	70.5154	2,143.07	73.0081	2,143.07	72.7049	2,143.07	71.3571	2,143.07	70.8847	2,143.07	71.3693	2,143.07	72.3363	2,143.07	72.0796	2,143.07	70.5374	2,143.07	70.2435	2,143.07	64.4473	2,143.07	61.1229	2,143.07	63.9032
2,219.24	84.9666	2,219.24	85.1155	2,219.24	85.0176	2,219.24	85.3587	2,219.24	85.185	2,219.24	85.544	2,219.24	85.251	2,219.24	85.2582	2,219.24	84.8737	2,219.24	84.0604	2,219.24	83.8961	2,219.24	82.7321	2,219.24	82.2001	2,219.24	81.2486	2,219.24	80.9319	2,219.24	79.1123	2,219.24	78.5483	2,219.24	78.6541	2,219.24	77.5078	2,219.24	75.7605	2,219.24	75.4393	2,219.24	74.7376	2,219.24	72.1084	2,219.24	72.8645	2,219.24	72.4437	2,219.24	70.8673	2,219.24	68.7956	2,219.24	71.0745	2,219.24	68.6625	2,219.24	71.0757	2,219.24	70.0222	2,219.24	69.5934	2,219.24	68.8425	2,219.24	67.8471	2,219.24	66.5928	2,219.24	72.5855
2,296.88	84.2252	2,296.88	84.6699	2,296.88	84.2759	2,296.88	85.1729	2,296.88	84.5999	2,296.88	85.3177	2,296.88	84.6534	2,296.88	84.8706	2,296.88	84.7566	2,296.88	83.7177	2,296.88	84.0218	2,296.88	82.1992	2,296.88	82.3467	2,296.88	80.9826	2,296.88	80.8907	2,296.88	78.5627	2,296.88	79.4367	2,296.88	77.3822	2,296.88	77.0774	2,296.88	74.6612	2,296.88	75.4853	2,296.88	73.5784	2,296.88	72.1684	2,296.88	71.5091	2,296.88	73.0873	2,296.88	72.1979	2,296.88	71.1162	2,296.88	70.0778	2,296.88	69.5952	2,296.88	70.4039	2,296.88	71.3807	2,296.88	68.2667	2,296.88	70.5318	2,296.88	62.0586	2,296.88	67.0599	2,296.88	69.7159
2,378.91	85.5599	2,378.91	85.905	2,378.91	85.6384	2,378.91	86.1904	2,378.91	85.8245	2,378.91	86.1014	2,378.91	85.9699	2,378.91	85.8526	2,378.91	85.7416	2,378.91	84.8771	2,378.91	85.1502	2,378.91	82.2294	2,378.91	83.5807	2,378.91	80.6837	2,378.91	81.58	2,378.91	78.4283	2,378.91	80.3874	2,378.91	76.9571	2,378.91	78.2319	2,378.91	74.1997	2,378.91	76.8885	2,378.91	72.6359	2,378.91	74.528	2,378.91	70.6788	2,378.91	73.2055	2,378.91	71.2985	2,378.91	73.0185	2,378.91	72.3079	2,378.91	72.6722	2,378.91	67.2913	2,378.91	72.7614	2,378.91	68.2154	2,378.91	72.1615	2,378.91	65.7603	2,378.91	64.8383	2,378.91	61.0094
2,462.4	85.1788	2,462.4	85.405	2,462.4	85.3308	2,462.4	86.0747	2,462.4	85.9283	2,462.4	86.1445	2,462.4	86.1034	2,462.4	85.5421	2,462.4	85.5458	2,462.4	85.2143	2,462.4	84.6738	2,462.4	83.8011	2,462.4	83.6337	2,462.4	81.2463	2,462.4	81.445	2,462.4	79.6469	2,462.4	78.8881	2,462.4	77.431	2,462.4	76.9592	2,462.4	76.6327	2,462.4	75.5018	2,462.4	71.5974	2,462.4	71.9322	2,462.4	72.8052	2,462.4	70.6308	2,462.4	69.2477	2,462.4	68.2589	2,462.4	72.6464	2,462.4	71.8691	2,462.4	71.8326	2,462.4	69.5816	2,462.4	70.5143	2,462.4	72.8899	2,462.4	65.2737	2,462.4	56.783	2,462.4	71.2706
2,548.83	84.9554	2,548.83	85.33	2,548.83	85.0967	2,548.83	85.8578	2,548.83	85.6233	2,548.83	85.8009	2,548.83	85.8658	2,548.83	85.2349	2,548.83	85.3157	2,548.83	84.2235	2,548.83	84.3977	2,548.83	82.9281	2,548.83	82.9794	2,548.83	80.7897	2,548.83	80.7806	2,548.83	79.4599	2,548.83	79.2203	2,548.83	77.2504	2,548.83	76.5759	2,548.83	75.8881	2,548.83	75.4428	2,548.83	71.1325	2,548.83	71.4706	2,548.83	72.6819	2,548.83	71.5074	2,548.83	68.8466	2,548.83	65.3019	2,548.83	73.3898	2,548.83	70.1258	2,548.83	72.0253	2,548.83	68.203	2,548.83	70.2287	2,548.83	69.1367	2,548.83	66.6751	2,548.83	59.9561	2,548.83	69.9225
2,639.65	85.937	2,639.65	85.9093	2,639.65	86.064	2,639.65	86.3441	2,639.65	86.5707	2,639.65	86.5079	2,639.65	86.8292	2,639.65	85.723	2,639.65	86.6439	2,639.65	84.5817	2,639.65	85.5423	2,639.65	83.3389	2,639.65	84.1446	2,639.65	80.5048	2,639.65	82.1066	2,639.65	78.51	2,639.65	80.1001	2,639.65	76.1086	2,639.65	78.176	2,639.65	74.7943	2,639.65	75.5105	2,639.65	71.7329	2,639.65	74.2896	2,639.65	71.3895	2,639.65	72.3402	2,639.65	66.6007	2,639.65	69.5445	2,639.65	68.3093	2,639.65	70.0363	2,639.65	68.4776	2,639.65	68.7172	2,639.65	67.7454	2,639.65	71.613	2,639.65	53.3696	2,639.65	68.7826	2,639.65	66.8915
2,731.93	85.9932	2,731.93	86.2563	2,731.93	86.1352	2,731.93	86.5781	2,731.93	86.3433	2,731.93	86.76	2,731.93	86.424	2,731.93	86.2964	2,731.93	86.129	2,731.93	84.9611	2,731.93	85.426	2,731.93	83.625	2,731.93	83.7084	2,731.93	81.8432	2,731.93	81.96	2,731.93	79.5958	2,731.93	79.7575	2,731.93	77.1786	2,731.93	77.8523	2,731.93	75.4648	2,731.93	76.2037	2,731.93	71.3362	2,731.93	74.4184	2,731.93	73.521	2,731.93	72.1775	2,731.93	65.6333	2,731.93	69.9468	2,731.93	72.7439	2,731.93	70.3677	2,731.93	70.1346	2,731.93	67.8445	2,731.93	69.8505	2,731.93	69.9884	2,731.93	60.9197	2,731.93	57.4037	2,731.93	57.9098
2,828.61	85.7128	2,828.61	85.9197	2,828.61	85.7134	2,828.61	86.4466	2,828.61	86.158	2,828.61	86.5036	2,828.61	85.9965	2,828.61	85.7314	2,828.61	85.6005	2,828.61	84.9033	2,828.61	84.6845	2,828.61	82.8781	2,828.61	83.5269	2,828.61	81.1512	2,828.61	81.627	2,828.61	78.9498	2,828.61	79.0523	2,828.61	77.4511	2,828.61	76.4923	2,828.61	76.177	2,828.61	73.7362	2,828.61	73.5007	2,828.61	74.4793	2,828.61	72.3349	2,828.61	68.8022	2,828.61	68.7597	2,828.61	68.9812	2,828.61	69.4748	2,828.61	69.1814	2,828.61	67.2962	2,828.61	69.457	2,828.61	66.739	2,828.61	68.3123	2,828.61	63.4264	2,828.61	63.6216	2,828.61	66.2646
2,928.22	86.0124	2,928.22	86.1806	2,928.22	86.2318	2,928.22	86.5386	2,928.22	86.5974	2,928.22	86.8719	2,928.22	87.0945	2,928.22	86.2487	2,928.22	86.7091	2,928.22	84.7527	2,928.22	85.7411	2,928.22	83.362	2,928.22	84.0133	2,928.22	81.8491	2,928.22	82.4254	2,928.22	78.5331	2,928.22	80.52	2,928.22	77.2295	2,928.22	78.6737	2,928.22	74.307	2,928.22	76.2902	2,928.22	73.6108	2,928.22	74.2584	2,928.22	70.2229	2,928.22	71.5442	2,928.22	68.588	2,928.22	71.3023	2,928.22	69.7626	2,928.22	68.0134	2,928.22	71.1256	2,928.22	68.2048	2,928.22	68.1956	2,928.22	70.2912	2,928.22	64.5077	2,928.22	51.6011	2,928.22	67.3113
3,030.76	86.473	3,030.76	86.4925	3,030.76	86.7589	3,030.76	86.5809	3,030.76	86.6843	3,030.76	86.5814	3,030.76	86.7194	3,030.76	85.8833	3,030.76	86.1283	3,030.76	84.953	3,030.76	85.0344	3,030.76	83.6935	3,030.76	84.1878	3,030.76	82.0822	3,030.76	81.6491	3,030.76	79.7753	3,030.76	80.0794	3,030.76	77.5004	3,030.76	77.7324	3,030.76	75.2292	3,030.76	74.9469	3,030.76	75.201	3,030.76	74.7066	3,030.76	71.7484	3,030.76	71.6829	3,030.76	72.2465	3,030.76	72.2808	3,030.76	66.1478	3,030.76	69.2476	3,030.76	66.7397	3,030.76	71.9281	3,030.76	67.9791	3,030.76	69.6129	3,030.76	60.7976	3,030.76	65.1071	3,030.76	69.3724
3,137.7	86.1486	3,137.7	85.8945	3,137.7	85.9603	3,137.7	86.1289	3,137.7	86.1317	3,137.7	85.9031	3,137.7	86.0483	3,137.7	85.1007	3,137.7	85.0725	3,137.7	83.9892	3,137.7	84.0317	3,137.7	82.0706	3,137.7	83.1042	3,137.7	81.4987	3,137.7	81.7161	3,137.7	79.4915	3,137.7	79.6772	3,137.7	77.1312	3,137.7	77.1293	3,137.7	75.4841	3,137.7	76.0393	3,137.7	75.0533	3,137.7	74.3939	3,137.7	69.3263	3,137.7	68.6923	3,137.7	72.7354	3,137.7	71.3622	3,137.7	67.7435	3,137.7	66.4793	3,137.7	74.6031	3,137.7	67.8341	3,137.7	69.2458	3,137.7	67.5388	3,137.7	59.701	3,137.7	54.8508	3,137.7	66.7319
3,249.02	86.3707	3,249.02	86.0811	3,249.02	86.6205	3,249.02	85.9764	3,249.02	86.4319	3,249.02	85.7028	3,249.02	86.2065	3,249.02	85.0404	3,249.02	85.3174	3,249.02	83.7945	3,249.02	84.3252	3,249.02	82.6156	3,249.02	82.8683	3,249.02	80.8746	3,249.02	82.0659	3,249.02	79.8784	3,249.02	80.2899	3,249.02	76.8941	3,249.02	77.9994	3,249.02	74.8199	3,249.02	76.0594	3,249.02	73.901	3,249.02	72.7626	3,249.02	71.472	3,249.02	73.7196	3,249.02	70.0698	3,249.02	70.7729	3,249.02	65.0836	3,249.02	66.3765	3,249.02	69.9317	3,249.02	74.0684	3,249.02	69.8989	3,249.02	69.7882	3,249.02	63.0863	3,249.02	65.1675	3,249.02	69.2199
3,363.28	86.2679	3,363.28	86.1134	3,363.28	86.2634	3,363.28	86.0781	3,363.28	85.9552	3,363.28	85.7516	3,363.28	86.1833	3,363.28	85.5117	3,363.28	85.6185	3,363.28	84.6242	3,363.28	84.2792	3,363.28	83.2746	3,363.28	83.746	3,363.28	82.002	3,363.28	81.7456	3,363.28	80.5257	3,363.28	80.3642	3,363.28	78.2467	3,363.28	78.7699	3,363.28	76.9833	3,363.28	76.1382	3,363.28	75.6563	3,363.28	75.7566	3,363.28	74.1557	3,363.28	72.9152	3,363.28	73.5803	3,363.28	71.8908	3,363.28	68.802	3,363.28	70.1968	3,363.28	73.1717	3,363.28	69.0308	3,363.28	70.5127	3,363.28	69.2511	3,363.28	64.6163	3,363.28	59.3845	3,363.28	66.3942
3,481.93	85.8657	3,481.93	85.3852	3,481.93	85.6515	3,481.93	85.3345	3,481.93	85.5561	3,481.93	85.4005	3,481.93	85.6066	3,481.93	85.1584	3,481.93	85.6658	3,481.93	84.6177	3,481.93	85.0179	3,481.93	83.3768	3,481.93	83.1793	3,481.93	82.019	3,481.93	82.1664	3,481.93	79.3514	3,481.93	80.9679	3,481.93	77.0486	3,481.93	78.2179	3,481.93	75.8151	3,481.93	76.907	3,481.93	73.4357	3,481.93	73.2309	3,481.93	71.971	3,481.93	73.7096	3,481.93	71.1923	3,481.93	65.6737	3,481.93	70.5069	3,481.93	69.8002	3,481.93	73.4941	3,481.93	71.9733	3,481.93	70.5601	3,481.93	69.6934	3,481.93	64.1203	3,481.93	60.5831	3,481.93	70.4353
3,604.98	85.8878	3,604.98	85.4108	3,604.98	86.0247	3,604.98	85.2393	3,604.98	85.3156	3,604.98	85.3849	3,604.98	85.3465	3,604.98	85.3114	3,604.98	85.6216	3,604.98	85.4011	3,604.98	85.8665	3,604.98	83.7072	3,604.98	83.9739	3,604.98	82.175	3,604.98	83.0898	3,604.98	80.1671	3,604.98	80.507	3,604.98	78.2765	3,604.98	78.9748	3,604.98	74.9981	3,604.98	76.0553	3,604.98	74.4477	3,604.98	74.04	3,604.98	73.3282	3,604.98	74.6908	3,604.98	68.0734	3,604.98	71.7634	3,604.98	69.4035	3,604.98	69.8816	3,604.98	67.9979	3,604.98	73.2215	3,604.98	71.1275	3,604.98	71.1559	3,604.98	62.7137	3,604.98	65.1151	3,604.98	66.0516
3,732.42	86.3757	3,732.42	85.6944	3,732.42	86.0801	3,732.42	84.9704	3,732.42	84.9808	3,732.42	85.016	3,732.42	84.9527	3,732.42	85.63	3,732.42	85.4238	3,732.42	85.7063	3,732.42	85.473	3,732.42	84.1894	3,732.42	84.8507	3,732.42	82.3693	3,732.42	82.8099	3,732.42	80.7383	3,732.42	80.7947	3,732.42	78.5998	3,732.42	79.9025	3,732.42	76.3902	3,732.42	77.2155	3,732.42	72.8514	3,732.42	75.2775	3,732.42	73.304	3,732.42	74.6698	3,732.42	70.3917	3,732.42	72.4563	3,732.42	68.6119	3,732.42	67.3633	3,732.42	74.3292	3,732.42	70.9588	3,732.42	70.1452	3,732.42	68.3828	3,732.42	64.1961	3,732.42	59.9644	3,732.42	69.8607
3,864.26	86.2324	3,864.26	85.0365	3,864.26	85.582	3,864.26	84.3156	3,864.26	84.8427	3,864.26	84.6257	3,864.26	84.6749	3,864.26	85.7123	3,864.26	85.4184	3,864.26	85.297	3,864.26	85.9507	3,864.26	84.311	3,864.26	85.1003	3,864.26	82.3604	3,864.26	82.8549	3,864.26	79.8072	3,864.26	81.2878	3,864.26	77.8893	3,864.26	78.2716	3,864.26	76.7688	3,864.26	76.5713	3,864.26	72.4417	3,864.26	74.4329	3,864.26	71.9532	3,864.26	69.8931	3,864.26	71.0186	3,864.26	73.363	3,864.26	67.7417	3,864.26	69.7367	3,864.26	72.048	3,864.26	73.2121	3,864.26	71.7822	3,864.26	71.885	3,864.26	64.0272	3,864.26	67.7048	3,864.26	67.0191
4,000.49	86.9287	4,000.49	85.8523	4,000.49	86.3036	4,000.49	85.0657	4,000.49	85.5379	4,000.49	85.6155	4,000.49	85.45	4,000.49	86.1557	4,000.49	85.9132	4,000.49	86.1061	4,000.49	86.6271	4,000.49	85.2328	4,000.49	85.31	4,000.49	83.1211	4,000.49	83.4499	4,000.49	80.139	4,000.49	81.3679	4,000.49	78.0476	4,000.49	78.4895	4,000.49	76.4159	4,000.49	76.328	4,000.49	72.9772	4,000.49	73.8091	4,000.49	71.6456	4,000.49	71.2278	4,000.49	71.3234	4,000.49	72.974	4,000.49	70.4882	4,000.49	70.2882	4,000.49	72.2645	4,000.49	70.4827	4,000.49	70.1979	4,000.49	70.8214	4,000.49	63.1982	4,000.49	69.889	4,000.49	63.6275
4,141.11	86.7672	4,141.11	85.8316	4,141.11	86.6936	4,141.11	85.0746	4,141.11	85.4456	4,141.11	85.6811	4,141.11	85.5284	4,141.11	86.4957	4,141.11	86.3989	4,141.11	86.8171	4,141.11	86.675	4,141.11	85.1611	4,141.11	85.6475	4,141.11	82.8617	4,141.11	83.6175	4,141.11	80.4811	4,141.11	81.0973	4,141.11	78.7208	4,141.11	78.7187	4,141.11	76.3417	4,141.11	76.558	4,141.11	73.6319	4,141.11	73.9901	4,141.11	70.1025	4,141.11	69.6997	4,141.11	72.7509	4,141.11	71.5002	4,141.11	69.5202	4,141.11	71.2538	4,141.11	71.5039	4,141.11	70.7544	4,141.11	71.0452	4,141.11	71.15	4,141.11	64.9118	4,141.11	69.8712	4,141.11	64.2772
4,287.6	86.8577	4,287.6	86.3843	4,287.6	86.6362	4,287.6	85.2691	4,287.6	85.4925	4,287.6	86.007	4,287.6	85.313	4,287.6	86.7544	4,287.6	86.612	4,287.6	86.8115	4,287.6	86.7669	4,287.6	85.4503	4,287.6	85.6665	4,287.6	82.907	4,287.6	83.3626	4,287.6	80.7784	4,287.6	81.1001	4,287.6	78.4141	4,287.6	78.8832	4,287.6	76.067	4,287.6	76.1759	4,287.6	73.8397	4,287.6	73.745	4,287.6	69.1424	4,287.6	70.2372	4,287.6	72.1456	4,287.6	69.1612	4,287.6	70.7655	4,287.6	70.375	4,287.6	73.188	4,287.6	69.262	4,287.6	70.5275	4,287.6	71.2994	4,287.6	62.0341	4,287.6	69.3565	4,287.6	68.1786
4,438.48	87.4456	4,438.48	86.6655	4,438.48	87.1365	4,438.48	85.502	4,438.48	85.7917	4,438.48	85.8967	4,438.48	86.1029	4,438.48	86.7085	4,438.48	86.741	4,438.48	86.5318	4,438.48	86.9481	4,438.48	85.4287	4,438.48	86.246	4,438.48	83.2017	4,438.48	83.9536	4,438.48	80.2688	4,438.48	81.1214	4,438.48	77.8432	4,438.48	78.5768	4,438.48	75.8024	4,438.48	76.8414	4,438.48	72.2925	4,438.48	75.1564	4,438.48	68.1896	4,438.48	70.6744	4,438.48	69.7977	4,438.48	70.1199	4,438.48	69.3325	4,438.48	70.562	4,438.48	71.0421	4,438.48	68.55	4,438.48	68.4642	4,438.48	71.9386	4,438.48	66.3453	4,438.48	68.6872	4,438.48	67.9373
4,595.21	87.2436	4,595.21	86.4381	4,595.21	86.6617	4,595.21	85.4489	4,595.21	85.6617	4,595.21	85.8133	4,595.21	85.4311	4,595.21	86.7953	4,595.21	86.1927	4,595.21	86.1977	4,595.21	86.1247	4,595.21	84.9474	4,595.21	84.9913	4,595.21	83.0013	4,595.21	83.3308	4,595.21	80.4063	4,595.21	80.5248	4,595.21	78.3317	4,595.21	78.0887	4,595.21	75.6527	4,595.21	75.0181	4,595.21	73.5476	4,595.21	73.4674	4,595.21	69.2004	4,595.21	69.9117	4,595.21	69.8953	4,595.21	69.5519	4,595.21	68.8054	4,595.21	68.9322	4,595.21	70.7777	4,595.21	67.4594	4,595.21	71.3876	4,595.21	69.5034	4,595.21	64.3103	4,595.21	71.1426	4,595.21	59.0219
4,756.35	88.1314	4,756.35	87.3949	4,756.35	87.5482	4,756.35	86.368	4,756.35	86.7832	4,756.35	86.1805	4,756.35	86.1849	4,756.35	86.4325	4,756.35	86.4925	4,756.35	86.1091	4,756.35	86.4423	4,756.35	84.4723	4,756.35	85.1378	4,756.35	82.6728	4,756.35	83.6262	4,756.35	79.0961	4,756.35	80.7785	4,756.35	77.2695	4,756.35	78.2915	4,756.35	74.1091	4,756.35	75.7377	4,756.35	72.369	4,756.35	73.2964	4,756.35	67.8393	4,756.35	71.8239	4,756.35	67.9513	4,756.35	67.4849	4,756.35	67.5259	4,756.35	69.7935	4,756.35	70.32	4,756.35	67.8307	4,756.35	68.7023	4,756.35	69.9807	4,756.35	65.8989	4,756.35	69.6634	4,756.35	64.5785
4,924.8	87.2779	4,924.8	86.7234	4,924.8	87.0724	4,924.8	86.1515	4,924.8	86.4128	4,924.8	85.7223	4,924.8	85.7116	4,924.8	85.9517	4,924.8	85.5042	4,924.8	85.1638	4,924.8	85.5656	4,924.8	83.81	4,924.8	84.4215	4,924.8	81.7593	4,924.8	82.5653	4,924.8	79.1665	4,924.8	80.147	4,924.8	77.2602	4,924.8	76.8832	4,924.8	74.7265	4,924.8	75.16	4,924.8	72.3867	4,924.8	72.6948	4,924.8	70.1488	4,924.8	68.7628	4,924.8	68.1842	4,924.8	68.5384	4,924.8	67.9816	4,924.8	69.1205	4,924.8	70.6427	4,924.8	65.896	4,924.8	66.889	4,924.8	68.1343	4,924.8	66.4639	4,924.8	67.6013	4,924.8	64.5701
5,097.66	87.576	5,097.66	87.5231	5,097.66	87.6913	5,097.66	86.8416	5,097.66	87.0391	5,097.66	85.7356	5,097.66	85.797	5,097.66	85.5112	5,097.66	85.3225	5,097.66	85.0243	5,097.66	85.1706	5,097.66	83.7226	5,097.66	83.9204	5,097.66	81.7898	5,097.66	82.304	5,097.66	78.694	5,097.66	79.8884	5,097.66	76.0722	5,097.66	77.2974	5,097.66	73.8199	5,097.66	75.1178	5,097.66	70.5909	5,097.66	71.4074	5,097.66	67.7813	5,097.66	69.8747	5,097.66	66.6937	5,097.66	67.4093	5,097.66	66.682	5,097.66	66.2252	5,097.66	68.4556	5,097.66	64.6932	5,097.66	66.6639	5,097.66	67.7204	5,097.66	66.4064	5,097.66	68.0768	5,097.66	63.0043
5,277.83	86.9033	5,277.83	87.1227	5,277.83	87.1886	5,277.83	86.3941	5,277.83	87.0692	5,277.83	84.7587	5,277.83	85.4934	5,277.83	83.9775	5,277.83	84.6938	5,277.83	83.8387	5,277.83	84.5746	5,277.83	82.9212	5,277.83	83.8238	5,277.83	81.1338	5,277.83	82.5129	5,277.83	78.3941	5,277.83	79.8907	5,277.83	76.1354	5,277.83	77.2342	5,277.83	73.5354	5,277.83	73.3846	5,277.83	71.4726	5,277.83	72.157	5,277.83	68.8497	5,277.83	67.8406	5,277.83	69.0627	5,277.83	68.6467	5,277.83	68.2186	5,277.83	67.8184	5,277.83	68.8722	5,277.83	65.3532	5,277.83	68.0751	5,277.83	68.3976	5,277.83	64.1645	5,277.83	68.0635	5,277.83	63.0949
5,463.87	86.906	5,463.87	87.5021	5,463.87	87.3828	5,463.87	86.9297	5,463.87	87.2577	5,463.87	85.3502	5,463.87	85.5665	5,463.87	84.8522	5,463.87	84.2947	5,463.87	84.69	5,463.87	84.7621	5,463.87	84.04	5,463.87	84.4175	5,463.87	82.0568	5,463.87	82.801	5,463.87	79.3481	5,463.87	80.2626	5,463.87	77.0391	5,463.87	77.0241	5,463.87	74.2262	5,463.87	73.9806	5,463.87	70.7532	5,463.87	72.1489	5,463.87	66.4287	5,463.87	69.3978	5,463.87	67.7677	5,463.87	66.4046	5,463.87	66.2692	5,463.87	66.0793	5,463.87	66.1465	5,463.87	65.2338	5,463.87	66.2734	5,463.87	68.746	5,463.87	62.5035	5,463.87	67.3158	5,463.87	62.3375
5,657.23	86.8268	5,657.23	87.6012	5,657.23	87.3521	5,657.23	86.8472	5,657.23	87.2141	5,657.23	84.7871	5,657.23	85.4889	5,657.23	84.4997	5,657.23	84.3228	5,657.23	84.8073	5,657.23	84.7716	5,657.23	83.9474	5,657.23	84.1287	5,657.23	81.5679	5,657.23	82.6379	5,657.23	79.0411	5,657.23	79.7132	5,657.23	75.0869	5,657.23	76.8843	5,657.23	73.7119	5,657.23	74.1423	5,657.23	69.9152	5,657.23	71.0164	5,657.23	66.8934	5,657.23	70.1802	5,657.23	68.8325	5,657.23	66.6753	5,657.23	65.0773	5,657.23	65.7203	5,657.23	67.3423	5,657.23	65.7946	5,657.23	65.9782	5,657.23	69.1466	5,657.23	60.925	5,657.23	67.601	5,657.23	61.0679
5,856.45	86.8672	5,856.45	87.8639	5,856.45	87.6153	5,856.45	86.9045	5,856.45	87.8124	5,856.45	84.7298	5,856.45	85.8483	5,856.45	84.5805	5,856.45	84.9899	5,856.45	84.9814	5,856.45	85.5841	5,856.45	84.1494	5,856.45	84.789	5,856.45	81.3052	5,856.45	82.6767	5,856.45	78.626	5,856.45	80.1619	5,856.45	76.2329	5,856.45	76.6393	5,856.45	73.2721	5,856.45	74.06	5,856.45	70.575	5,856.45	72.5522	5,856.45	67.2483	5,856.45	68.4679	5,856.45	69.2638	5,856.45	64.6956	5,856.45	65.9448	5,856.45	66.7793	5,856.45	65.2784	5,856.45	63.6742	5,856.45	67.7878	5,856.45	67.2338	5,856.45	63.204	5,856.45	65.8635	5,856.45	60.5673
6,062.99	86.1672	6,062.99	87.2534	6,062.99	86.9584	6,062.99	86.4668	6,062.99	87.1946	6,062.99	84.5326	6,062.99	85.4575	6,062.99	84.424	6,062.99	84.8441	6,062.99	84.325	6,062.99	84.8361	6,062.99	83.8855	6,062.99	84.3229	6,062.99	80.665	6,062.99	82.0555	6,062.99	78.2964	6,062.99	79.484	6,062.99	75.5062	6,062.99	76.1911	6,062.99	73.2472	6,062.99	74.1179	6,062.99	70.1901	6,062.99	71.3996	6,062.99	68.2076	6,062.99	69.693	6,062.99	65.2569	6,062.99	63.6077	6,062.99	65.1437	6,062.99	66.2018	6,062.99	63.0933	6,062.99	63.7377	6,062.99	66.2503	6,062.99	67.0184	6,062.99	61.9456	6,062.99	64.6522	6,062.99	58.8899
6,276.86	86.8302	6,276.86	87.4759	6,276.86	87.2198	6,276.86	86.872	6,276.86	87.1988	6,276.86	85.3936	6,276.86	85.7505	6,276.86	85.1248	6,276.86	85.1723	6,276.86	84.7546	6,276.86	84.9482	6,276.86	83.7669	6,276.86	83.9135	6,276.86	81.5699	6,276.86	81.6668	6,276.86	78.335	6,276.86	79.1968	6,276.86	75.1158	6,276.86	76.8808	6,276.86	72.2416	6,276.86	73.3376	6,276.86	68.6736	6,276.86	71.5203	6,276.86	70.1147	6,276.86	69.4751	6,276.86	61.6065	6,276.86	64.935	6,276.86	64.1834	6,276.86	67.3656	6,276.86	63.998	6,276.86	65.2634	6,276.86	66.2393	6,276.86	66.7196	6,276.86	62.6503	6,276.86	64.5373	6,276.86	60.8524
6,498.05	87.3077	6,498.05	87.281	6,498.05	87.5038	6,498.05	86.8175	6,498.05	87.1488	6,498.05	85.4436	6,498.05	86.1528	6,498.05	84.6085	6,498.05	85.1639	6,498.05	83.7276	6,498.05	84.9353	6,498.05	82.4389	6,498.05	83.7894	6,498.05	80.3958	6,498.05	81.4917	6,498.05	76.7399	6,498.05	78.977	6,498.05	74.1985	6,498.05	75.9046	6,498.05	72.0211	6,498.05	72.0963	6,498.05	68.5366	6,498.05	70.6948	6,498.05	67.5508	6,498.05	68.9076	6,498.05	62.5321	6,498.05	64.5217	6,498.05	61.8837	6,498.05	67.9265	6,498.05	62.9471	6,498.05	66.2426	6,498.05	66.2129	6,498.05	65.5162	6,498.05	58.6916	6,498.05	63.9041	6,498.05	58.8338
6,726.56	87.1401	6,726.56	86.9057	6,726.56	86.8181	6,726.56	86.5833	6,726.56	86.6146	6,726.56	85.1853	6,726.56	85.8803	6,726.56	84.3897	6,726.56	84.4228	6,726.56	83.2032	6,726.56	84.0181	6,726.56	81.8098	6,726.56	82.9185	6,726.56	79.7061	6,726.56	81.4427	6,726.56	76.8684	6,726.56	78.6207	6,726.56	74.2543	6,726.56	75.5994	6,726.56	72.0696	6,726.56	72.4131	6,726.56	69.7712	6,726.56	70.3198	6,726.56	67.5155	6,726.56	69.1546	6,726.56	62.5676	6,726.56	64.7251	6,726.56	62.6598	6,726.56	67.0421	6,726.56	62.6982	6,726.56	64.5807	6,726.56	64.2725	6,726.56	62.3982	6,726.56	60.9022	6,726.56	62.0093	6,726.56	59.1586
6,963.87	87.7953	6,963.87	87.2657	6,963.87	87.3168	6,963.87	87.1049	6,963.87	86.8398	6,963.87	85.6459	6,963.87	86.0068	6,963.87	83.8466	6,963.87	84.1934	6,963.87	83.0484	6,963.87	83.5202	6,963.87	82.1846	6,963.87	83.2236	6,963.87	79.6602	6,963.87	81.4597	6,963.87	77.4199	6,963.87	79.1058	6,963.87	73.6607	6,963.87	75.4619	6,963.87	70.199	6,963.87	73.0353	6,963.87	69.4293	6,963.87	70.001	6,963.87	67.6258	6,963.87	67.9678	6,963.87	59.571	6,963.87	65.9745	6,963.87	63.039	6,963.87	65.358	6,963.87	60.5193	6,963.87	65.821	6,963.87	63.9598	6,963.87	61.7507	6,963.87	60.123	6,963.87	61.9942	6,963.87	59.9548
7,209.96	87.9005	7,209.96	87.2802	7,209.96	87.2821	7,209.96	86.8942	7,209.96	87.0013	7,209.96	85.2724	7,209.96	86.0526	7,209.96	82.9168	7,209.96	83.9682	7,209.96	82.4451	7,209.96	83.3057	7,209.96	81.577	7,209.96	83.472	7,209.96	79.1262	7,209.96	81.8496	7,209.96	75.7442	7,209.96	78.6081	7,209.96	72.8537	7,209.96	75.1858	7,209.96	69.4444	7,209.96	72.198	7,209.96	66.6741	7,209.96	69.027	7,209.96	65.8948	7,209.96	66.1556	7,209.96	60.3396	7,209.96	66.8721	7,209.96	61.7425	7,209.96	64.6399	7,209.96	62.652	7,209.96	61.6525	7,209.96	63.8391	7,209.96	63.2647	7,209.96	59.9249	7,209.96	61.3738	7,209.96	57.2767
7,464.84	87.8878	7,464.84	87.0454	7,464.84	87.1353	7,464.84	86.5499	7,464.84	86.4424	7,464.84	84.586	7,464.84	85.7725	7,464.84	82.4189	7,464.84	83.4363	7,464.84	82.1138	7,464.84	83.1195	7,464.84	81.7689	7,464.84	82.9117	7,464.84	79.0042	7,464.84	81.0561	7,464.84	75.4268	7,464.84	78.2192	7,464.84	72.3989	7,464.84	75.0607	7,464.84	69.0661	7,464.84	71.0133	7,464.84	66.1448	7,464.84	69.5194	7,464.84	64.9954	7,464.84	65.6058	7,464.84	62.5197	7,464.84	67.9979	7,464.84	62.1759	7,464.84	63.8734	7,464.84	61.5567	7,464.84	62.424	7,464.84	64.1923	7,464.84	62.9437	7,464.84	56.7882	7,464.84	59.0813	7,464.84	49.2635
7,727.05	88.1066	7,727.05	86.9404	7,727.05	87.3169	7,727.05	86.5033	7,727.05	86.3223	7,727.05	84.7615	7,727.05	85.7598	7,727.05	82.6567	7,727.05	83.5066	7,727.05	82.3322	7,727.05	82.9972	7,727.05	81.4234	7,727.05	82.6536	7,727.05	78.6788	7,727.05	80.1117	7,727.05	75.4671	7,727.05	77.0376	7,727.05	71.8469	7,727.05	73.7564	7,727.05	68.743	7,727.05	70.8568	7,727.05	66.7149	7,727.05	68.8583	7,727.05	65.0642	7,727.05	66.1848	7,727.05	65.9423	7,727.05	65.5151	7,727.05	60.4094	7,727.05	63.6702	7,727.05	62.3821	7,727.05	61.9744	7,727.05	64.0095	7,727.05	64.7422	7,727.05	58.7907	7,727.05	53.9227	7,727.05	56.9032
7,999.51	87.7972	7,999.51	87.0707	7,999.51	87.2047	7,999.51	86.7582	7,999.51	86.661	7,999.51	85.166	7,999.51	85.9407	7,999.51	82.8848	7,999.51	84.0953	7,999.51	82.4533	7,999.51	82.9717	7,999.51	81.232	7,999.51	82.4486	7,999.51	78.3245	7,999.51	79.912	7,999.51	75.6833	7,999.51	77.3207	7,999.51	72.0983	7,999.51	73.0243	7,999.51	69.4019	7,999.51	70.5714	7,999.51	67.0317	7,999.51	66.6761	7,999.51	64.2166	7,999.51	64.7739	7,999.51	63.4615	7,999.51	65.4889	7,999.51	60.573	7,999.51	64.732	7,999.51	63.4244	7,999.51	62.3758	7,999.51	61.4461	7,999.51	63.5038	7,999.51	60.9733	7,999.51	58.7874	7,999.51	58.1714
8,282.23	87.4649	8,282.23	87.069	8,282.23	87.2435	8,282.23	86.4704	8,282.23	86.5602	8,282.23	85.0851	8,282.23	85.7312	8,282.23	82.9613	8,282.23	83.7359	8,282.23	81.9101	8,282.23	82.6142	8,282.23	81.2635	8,282.23	81.9683	8,282.23	79.009	8,282.23	80.0229	8,282.23	76.2236	8,282.23	77.442	8,282.23	72.4794	8,282.23	74.2753	8,282.23	69.9292	8,282.23	71.3099	8,282.23	66.7186	8,282.23	68.6262	8,282.23	63.5009	8,282.23	64.9359	8,282.23	63.0825	8,282.23	64.3646	8,282.23	60.5095	8,282.23	61.6268	8,282.23	62.3524	8,282.23	61.7423	8,282.23	63.7732	8,282.23	62.0629	8,282.23	59.3568	8,282.23	56.8525	8,282.23	53.418
8,573.73	86.8906	8,573.73	86.7696	8,573.73	86.8378	8,573.73	85.6931	8,573.73	85.8166	8,573.73	84.6841	8,573.73	85.348	8,573.73	82.4657	8,573.73	83.4877	8,573.73	81.3552	8,573.73	81.9479	8,573.73	81.496	8,573.73	81.7947	8,573.73	79.4764	8,573.73	80.7417	8,573.73	76.6279	8,573.73	78.0462	8,573.73	72.766	8,573.73	74.6638	8,573.73	69.914	8,573.73	70.9203	8,573.73	67.9979	8,573.73	68.8321	8,573.73	64.0745	8,573.73	66.8603	8,573.73	63.6725	8,573.73	65.6655	8,573.73	60.6584	8,573.73	64.6008	8,573.73	63.4075	8,573.73	61.647	8,573.73	61.4173	8,573.73	63.0874	8,573.73	62.7943	8,573.73	56.6179	8,573.73	56.9514
8,876.95	86.1228	8,876.95	86.1593	8,876.95	86.4481	8,876.95	84.7422	8,876.95	84.7983	8,876.95	83.9753	8,876.95	84.4871	8,876.95	81.4731	8,876.95	82.7146	8,876.95	80.7992	8,876.95	81.382	8,876.95	81.6556	8,876.95	81.8817	8,876.95	79.5648	8,876.95	80.7788	8,876.95	76.5928	8,876.95	77.9002	8,876.95	72.7235	8,876.95	74.3814	8,876.95	69.5402	8,876.95	71.0284	8,876.95	66.8342	8,876.95	68.9736	8,876.95	63.3789	8,876.95	65.9347	8,876.95	63.1429	8,876.95	63.535	8,876.95	59.8365	8,876.95	61.6132	8,876.95	59.3893	8,876.95	61.8935	8,876.95	63.4047	8,876.95	61.1202	8,876.95	59.3569	8,876.95	57.6463	8,876.95	54.5342
9,188.96	85.328	9,188.96	85.3884	9,188.96	86.0186	9,188.96	83.8283	9,188.96	84.0103	9,188.96	83.2643	9,188.96	83.7623	9,188.96	80.3395	9,188.96	81.8364	9,188.96	80.5434	9,188.96	80.7838	9,188.96	80.9418	9,188.96	81.8959	9,188.96	78.5105	9,188.96	80.5087	9,188.96	75.7169	9,188.96	77.4619	9,188.96	71.9351	9,188.96	73.6508	9,188.96	68.8605	9,188.96	71.208	9,188.96	66.0588	9,188.96	67.9988	9,188.96	63.0784	9,188.96	66.4613	9,188.96	63.6592	9,188.96	61.4422	9,188.96	58.1363	9,188.96	61.878	9,188.96	61.7588	9,188.96	60.3483	9,188.96	60.842	9,188.96	61.1126	9,188.96	59.0069	9,188.96	59.5121	9,188.96	53.9782
9,514.16	85.6371	9,514.16	85.0887	9,514.16	85.7012	9,514.16	83.4738	9,514.16	84.5793	9,514.16	82.378	9,514.16	83.3405	9,514.16	79.5488	9,514.16	82.0041	9,514.16	79.3277	9,514.16	80.1106	9,514.16	79.2431	9,514.16	81.2181	9,514.16	76.8339	9,514.16	80.1654	9,514.16	74.0319	9,514.16	77.5387	9,514.16	70.7353	9,514.16	73.5555	9,514.16	67.2766	9,514.16	70.8415	9,514.16	64.372	9,514.16	66.5783	9,514.16	63.0029	9,514.16	65.0008	9,514.16	60.7717	9,514.16	60.336	9,514.16	56.9101	9,514.16	60.473	9,514.16	58.251	9,514.16	58.8809	9,514.16	58.7729	9,514.16	58.5107	9,514.16	57.9033	9,514.16	52.8526	9,514.16	54.4511
9,849.61	86.8198	9,849.61	85.6275	9,849.61	86.3187	9,849.61	83.5432	9,849.61	85.5948	9,849.61	81.3247	9,849.61	83.557	9,849.61	79.6374	9,849.61	82.7561	9,849.61	77.6542	9,849.61	79.8859	9,849.61	76.8345	9,849.61	80.2793	9,849.61	75.6409	9,849.61	79.7874	9,849.61	71.896	9,849.61	76.3105	9,849.61	67.7937	9,849.61	72.8628	9,849.61	64.7048	9,849.61	69.4821	9,849.61	61.8603	9,849.61	65.9021	9,849.61	56.7258	9,849.61	63.9851	9,849.61	57.8652	9,849.61	60.3323	9,849.61	55.2524	9,849.61	56.5896	9,849.61	54.2251	9,849.61	55.8196	9,849.61	59.6012	9,849.61	53.783	9,849.61	58.3911	9,849.61	51.083	9,849.61	52.1381
10,196.8	87.9252	10,196.8	86.3251	10,196.8	87.7848	10,196.8	84.5276	10,196.8	86.6508	10,196.8	81.8141	10,196.8	84.6868	10,196.8	80.025	10,196.8	83.4077	10,196.8	76.0941	10,196.8	80.3209	10,196.8	75.1891	10,196.8	79.5128	10,196.8	73.1232	10,196.8	78.4834	10,196.8	68.054	10,196.8	74.7019	10,196.8	62.593	10,196.8	70.9583	10,196.8	58.0933	10,196.8	66.7878	10,196.8	55.2916	10,196.8	64.0508	10,196.8	58.0513	10,196.8	61.488	10,196.8	55.4678	10,196.8	59.9283	10,196.8	56.3364	10,196.8	54.5813	10,196.8	53.6613	10,196.8	57.6021	10,196.8	56.8095	10,196.8	54.0966	10,196.8	57.774	10,196.8	51.1295	10,196.8	52.9552
10,555.7	89.0904	10,555.7	87.7158	10,555.7	89.1199	10,555.7	86.1851	10,555.7	88.2158	10,555.7	83.8876	10,555.7	86.0005	10,555.7	81.5075	10,555.7	84.3084	10,555.7	77.9915	10,555.7	80.7677	10,555.7	76.2735	10,555.7	79.3989	10,555.7	70.4896	10,555.7	76.9697	10,555.7	67.5828	10,555.7	73.6048	10,555.7	61.4661	10,555.7	69.1313	10,555.7	58.986	10,555.7	65.4206	10,555.7	56.8969	10,555.7	61.1059	10,555.7	57.8342	10,555.7	60.1884	10,555.7	55.0228	10,555.7	59.441	10,555.7	55.6813	10,555.7	53.5036	10,555.7	50.7314	10,555.7	53.2507	10,555.7	55.6256	10,555.7	57.7687	10,555.7	56.4086	10,555.7	50.1868	10,555.7	48.7297
10,927.7	90.1845	10,927.7	89.1485	10,927.7	89.9486	10,927.7	87.7021	10,927.7	89.1933	10,927.7	85.542	10,927.7	86.9157	10,927.7	83.0472	10,927.7	84.9097	10,927.7	79.9539	10,927.7	80.9055	10,927.7	77.8543	10,927.7	79.3971	10,927.7	73.8624	10,927.7	76.6206	10,927.7	69.4467	10,927.7	72.6165	10,927.7	63.8489	10,927.7	68.1722	10,927.7	60.7884	10,927.7	64.0863	10,927.7	59.6581	10,927.7	59.2574	10,927.7	58.6845	10,927.7	59.29	10,927.7	52.5207	10,927.7	54.46	10,927.7	55.4015	10,927.7	49.9858	10,927.7	54.1491	10,927.7	52.0397	10,927.7	52.8685	10,927.7	58.6333	10,927.7	54.342	10,927.7	49.7131	10,927.7	52.1728
11,313	90.581	11,313	89.7025	11,313	90.2824	11,313	88.2916	11,313	89.2854	11,313	86.1425	11,313	87.1329	11,313	83.4746	11,313	84.9215	11,313	80.1021	11,313	80.8171	11,313	77.3883	11,313	78.6229	11,313	73.8409	11,313	75.7537	11,313	68.4876	11,313	71.05	11,313	64.1911	11,313	65.8212	11,313	61.4718	11,313	62.5938	11,313	58.2705	11,313	57.2015	11,313	56.3062	11,313	55.7408	11,313	44.8517	11,313	52.4412	11,313	52.0933	11,313	53.1441	11,313	52.372	11,313	53.2675	11,313	31.8724	11,313	50.7927	11,313	54.9494	11,313	40.6234	11,313	51.5865
11,712.9	90.5637	11,712.9	89.6891	11,712.9	90.327	11,712.9	88.2314	11,712.9	89.0879	11,712.9	85.9652	11,712.9	86.8811	11,712.9	83.0368	11,712.9	84.3827	11,712.9	78.7382	11,712.9	80.418	11,712.9	75.5854	11,712.9	77.469	11,712.9	71.5278	11,712.9	74.1841	11,712.9	67.1279	11,712.9	69.2019	11,712.9	62.1023	11,712.9	64.6279	11,712.9	61.36	11,712.9	59.5955	11,712.9	55.4959	11,712.9	58.2247	11,712.9	55.5979	11,712.9	53.8084	11,712.9	48.4259	11,712.9	51.2545	11,712.9	53.6331	11,712.9	49.0237	11,712.9	42.0205	11,712.9	42.8983	11,712.9	53.9956	11,712.9	54.4466	11,712.9	56.1628	11,712.9	43.6024	11,712.9	46.7464
12,126	90.1703	12,126	89.3339	12,126	89.9309	12,126	87.7461	12,126	88.5073	12,126	85.3148	12,126	86.1689	12,126	81.8817	12,126	83.2928	12,126	77.0663	12,126	78.9823	12,126	73.0767	12,126	75.0884	12,126	67.9456	12,126	71.1442	12,126	63.3725	12,126	65.9508	12,126	58.6309	12,126	59.1311	12,126	57.9066	12,126	56.1841	12,126	54.4606	12,126	51.1472	12,126	49.6376	12,126	49.2817	12,126	39.8466	12,126	45.617	12,126	44.2176	12,126	48.4759	12,126	44.4743	12,126	46.3891	12,126	38.3339	12,126	42.3768	12,126	48.6108	12,126	43.5453	12,126	40.232
12,553.7	89.6934	12,553.7	88.954	12,553.7	89.2814	12,553.7	87.2	12,553.7	87.6132	12,553.7	84.3318	12,553.7	85.1104	12,553.7	80.1585	12,553.7	81.7656	12,553.7	74.536	12,553.7	76.4545	12,553.7	69.8464	12,553.7	71.4965	12,553.7	66.8409	12,553.7	64.3838	12,553.7	64.7512	12,553.7	51.4948	12,553.7	61.0094	12,553.7	53.5257	12,553.7	56.9515	12,553.7	48.0171	12,553.7	53.7576	12,553.7	25.4082	12,553.7	50.5495	12,553.7	44.6501	12,553.7	43.5679	12,553.7	51.1206	12,553.7	47.5714	12,553.7	42.5266	12,553.7	39.3033	12,553.7	47.8005	12,553.7	52.7557	12,553.7	47.2782	12,553.7	52.7069	12,553.7	45.3317	12,553.7	44.201
12,996.1	89.6107	12,996.1	89.0281	12,996.1	89.1706	12,996.1	87.4799	12,996.1	87.8596	12,996.1	84.2787	12,996.1	85.2451	12,996.1	79.3437	12,996.1	81.637	12,996.1	72.8407	12,996.1	74.9302	12,996.1	72.3982	12,996.1	70.4859	12,996.1	72.5069	12,996.1	64.5217	12,996.1	70.0822	12,996.1	62.8823	12,996.1	66.1279	12,996.1	62.1728	12,996.1	64.1999	12,996.1	53.3918	12,996.1	58.7535	12,996.1	51.6796	12,996.1	55.2714	12,996.1	46.2058	12,996.1	52.2037	12,996.1	56.9916	12,996.1	51.7366	12,996.1	34.7874	12,996.1	42.4596	12,996.1	45.6217	12,996.1	43.3111	12,996.1	53.3116	12,996.1	53.2021	12,996.1	36.6524	12,996.1	39.7469
13,454.6	89.9277	13,454.6	89.3766	13,454.6	89.8624	13,454.6	87.9091	13,454.6	88.8707	13,454.6	84.4307	13,454.6	86.3741	13,454.6	79.6613	13,454.6	82.2025	13,454.6	74.4658	13,454.6	75.6476	13,454.6	75.4334	13,454.6	70.9062	13,454.6	75.2143	13,454.6	68.1205	13,454.6	72.221	13,454.6	64.7191	13,454.6	67.6962	13,454.6	61.1552	13,454.6	64.9867	13,454.6	54.9213	13,454.6	61.8471	13,454.6	49.7892	13,454.6	57.0506	13,454.6	39.8082	13,454.6	51.0828	13,454.6	55.3442	13,454.6	51.2098	13,454.6	33.7281	13,454.6	39.2072	13,454.6	48.7706	13,454.6	38.8438	13,454.6	50.4768	13,454.6	44.9265	13,454.6	30.1564	13,454.6	38.6898
13,929.2	90.4411	13,929.2	89.9994	13,929.2	90.4265	13,929.2	88.5401	13,929.2	89.5157	13,929.2	85.0698	13,929.2	87.1186	13,929.2	81.0996	13,929.2	83.023	13,929.2	76.6911	13,929.2	77.0054	13,929.2	76.5083	13,929.2	71.5981	13,929.2	75.1765	13,929.2	66.3209	13,929.2	71.9463	13,929.2	54.2331	13,929.2	67.3145	13,929.2	56.3077	13,929.2	65.0298	13,929.2	35.1983	13,929.2	61.3416	13,929.2	36.4416	13,929.2	56.609	13,929.2	43.1202	13,929.2	50.8116	13,929.2	54.7099	13,929.2	41.4537	13,929.2	32.9107	13,929.2	46.0671	13,929.2	48.3545	13,929.2	39.7988	13,929.2	38.357	13,929.2	41.7691	13,929.2	46.3432	13,929.2	43.9585
14,419.9	91.1936	14,419.9	90.6206	14,419.9	90.9421	14,419.9	88.888	14,419.9	89.5621	14,419.9	85.2529	14,419.9	86.572	14,419.9	81.0477	14,419.9	82.5266	14,419.9	76.6353	14,419.9	75.6352	14,419.9	74.8354	14,419.9	69.1268	14,419.9	72.0262	14,419.9	54.228	14,419.9	67.8045	14,419.9	62.0051	14,419.9	63.1506	14,419.9	59.8899	14,419.9	61.3948	14,419.9	57.1071	14,419.9	56.0484	14,419.9	55.2914	14,419.9	52.9675	14,419.9	52.9688	14,419.9	46.678	14,419.9	57.1977	14,419.9	39.622	14,419.9	34.27	14,419.9	42.493	14,419.9	46.3128	14,419.9	37.0263	14,419.9	45.303	14,419.9	47.681	14,419.9	50.5151	14,419.9	47.9883
14,928.2	90.9967	14,928.2	90.4131	14,928.2	90.5649	14,928.2	88.3156	14,928.2	89.1012	14,928.2	84.2575	14,928.2	85.9119	14,928.2	79.1087	14,928.2	80.9974	14,928.2	72.9404	14,928.2	71.673	14,928.2	69.4991	14,928.2	59.5117	14,928.2	67.8576	14,928.2	64.058	14,928.2	64.2107	14,928.2	64.8797	14,928.2	61.7411	14,928.2	61.6534	14,928.2	59.339	14,928.2	58.1423	14,928.2	55.2151	14,928.2	54.9541	14,928.2	50.2233	14,928.2	50.6307	14,928.2	46.1426	14,928.2	52.7	14,928.2	43.3578	14,928.2	39.5325	14,928.2	48.8667	14,928.2	45.7925	14,928.2	44.7302	14,928.2	36.253	14,928.2	43.493	14,928.2	43.0008	14,928.2	33.6784
15,455.6	90.3198	15,455.6	89.8703	15,455.6	89.7312	15,455.6	87.7553	15,455.6	88.0504	15,455.6	83.3649	15,455.6	84.6302	15,455.6	77.9091	15,455.6	78.4006	15,455.6	72.2589	15,455.6	64.0267	15,455.6	70.875	15,455.6	59.3506	15,455.6	70.527	15,455.6	68.5139	15,455.6	67.0884	15,455.6	68.2341	15,455.6	63.6527	15,455.6	63.7413	15,455.6	58.4719	15,455.6	59.7915	15,455.6	56.4131	15,455.6	54.893	15,455.6	53.1012	15,455.6	52.8538	15,455.6	49.66	15,455.6	57.2806	15,455.6	40.7072	15,455.6	36.0379	15,455.6	52.2459	15,455.6	35.9682	15,455.6	48.3221	15,455.6	44.7116	15,455.6	39.7172	15,455.6	48.5782	15,455.6	45.341
16,000.5	90.0283	16,000.5	89.3755	16,000.5	89.4259	16,000.5	87.0436	16,000.5	87.6407	16,000.5	82.5957	16,000.5	83.9545	16,000.5	77.6221	16,000.5	77.4807	16,000.5	72.7168	16,000.5	67.0096	16,000.5	70.0799	16,000.5	66.8476	16,000.5	68.8612	16,000.5	71.0988	16,000.5	64.2861	16,000.5	68.9743	16,000.5	61.7586	16,000.5	65.3439	16,000.5	57.6526	16,000.5	59.0835	16,000.5	53.5093	16,000.5	56.7446	16,000.5	42.0532	16,000.5	50.6918	16,000.5	51.1971	16,000.5	57.2512	16,000.5	47.0149	16,000.5	47.4504	16,000.5	52.4326	16,000.5	42.6191	16,000.5	39.6623	16,000.5	52.8785	16,000.5	40.5471	16,000.5	47.2689	16,000.5	41.975
16,564.5	89.9046	16,564.5	88.8662	16,564.5	89.3097	16,564.5	86.0263	16,564.5	87.4788	16,564.5	81.2387	16,564.5	83.632	16,564.5	76.2791	16,564.5	77.3634	16,564.5	68.8178	16,564.5	67.1508	16,564.5	64.0836	16,564.5	63.9734	16,564.5	61.7644	16,564.5	69.1162	16,564.5	61.2093	16,564.5	66.6169	16,564.5	56.253	16,564.5	62.4667	16,564.5	52.4678	16,564.5	59.5491	16,564.5	40.4621	16,564.5	54.0339	16,564.5	36.5855	16,564.5	51.1161	16,564.5	48.3115	16,564.5	56.1461	16,564.5	40.1338	16,564.5	45.5954	16,564.5	42.939	16,564.5	37.115	16,564.5	47.64	16,564.5	47.4999	16,564.5	43.3346	16,564.5	44.1365	16,564.5	41.2283
17,148.9	89.515	17,148.9	88.2318	17,148.9	88.8685	17,148.9	84.7603	17,148.9	86.5118	17,148.9	79.6883	17,148.9	82.3998	17,148.9	73.3295	17,148.9	75.1201	17,148.9	57.0216	17,148.9	61.1119	17,148.9	60.6489	17,148.9	61.4851	17,148.9	65.2326	17,148.9	69.1257	17,148.9	62.7151	17,148.9	67.4714	17,148.9	59.0345	17,148.9	62.8676	17,148.9	53.1143	17,148.9	58.2272	17,148.9	49.6178	17,148.9	53.9421	17,148.9	44.3572	17,148.9	52.7146	17,148.9	47.485	17,148.9	56.0486	17,148.9	43.3245	17,148.9	44.6357	17,148.9	44.4494	17,148.9	44.3417	17,148.9	39.7619	17,148.9	45.8363	17,148.9	41.5344	17,148.9	45.478	17,148.9	35.7724
17,752.4	88.9726	17,752.4	87.2457	17,752.4	88.1984	17,752.4	83.4964	17,752.4	85.3213	17,752.4	77.2864	17,752.4	80.6242	17,752.4	67.9237	17,752.4	72.819	17,752.4	57.1287	17,752.4	44.6459	17,752.4	64.4462	17,752.4	65.4623	17,752.4	67.0201	17,752.4	70.2457	17,752.4	64.2988	17,752.4	68.0002	17,752.4	60.5684	17,752.4	63.6766	17,752.4	54.4758	17,752.4	59.7659	17,752.4	52.9833	17,752.4	55.4425	17,752.4	50.0569	17,752.4	53.6476	17,752.4	50.2935	17,752.4	57.9997	17,752.4	45.1248	17,752.4	47.8431	17,752.4	46.2063	17,752.4	49.2606	17,752.4	37.7567	17,752.4	47.6734	17,752.4	44.797	17,752.4	46.2248	17,752.4	43.7555
18,379.4	88.0589	18,379.4	85.9871	18,379.4	87.2038	18,379.4	81.4465	18,379.4	84.186	18,379.4	74.93	18,379.4	78.9734	18,379.4	63.7347	18,379.4	70.4595	18,379.4	57.486	18,379.4	57.4777	18,379.4	62.307	18,379.4	65.7709	18,379.4	64.0499	18,379.4	69.0144	18,379.4	60.9206	18,379.4	66.433	18,379.4	56.0728	18,379.4	61.2074	18,379.4	50.2842	18,379.4	57.5303	18,379.4	47.9999	18,379.4	52.7492	18,379.4	47.5682	18,379.4	51.5782	18,379.4	46.0594	18,379.4	55.6087	18,379.4	31.1168	18,379.4	47.8984	18,379.4	33.7081	18,379.4	48.8882	18,379.4	49.3774	18,379.4	45.7155	18,379.4	44.118	18,379.4	42.1491	18,379.4	37.8408
19,026.9	86.8031	19,026.9	84.3514	19,026.9	85.8935	19,026.9	79.4124	19,026.9	82.5888	19,026.9	72.3054	19,026.9	76.6754	19,026.9	64.7016	19,026.9	69.3083	19,026.9	64.8673	19,026.9	67.6419	19,026.9	62.2691	19,026.9	67.0622	19,026.9	62.9887	19,026.9	68.3844	19,026.9	55.7794	19,026.9	64.6198	19,026.9	53.8975	19,026.9	59.8649	19,026.9	50.3464	19,026.9	54.9409	19,026.9	42.5005	19,026.9	49.9119	19,026.9	42.0179	19,026.9	48.1077	19,026.9	48.8267	19,026.9	50.5266	19,026.9	45.8312	19,026.9	39.0752	19,026.9	37.7182	19,026.9	41.9933	19,026.9	36.4187	19,026.9	44.6345	19,026.9	47.1016	19,026.9	48.8055	19,026.9	40.6751
19,697.8	85.4599	19,697.8	82.5065	19,697.8	84.4763	19,697.8	76.869	19,697.8	80.5439	19,697.8	67.6874	19,697.8	73.3669	19,697.8	67.8612	19,697.8	68.7122	19,697.8	69.1291	19,697.8	72.2494	19,697.8	66.361	19,697.8	71.6342	19,697.8	66.4531	19,697.8	71.3622	19,697.8	62.028	19,697.8	67.9558	19,697.8	57.591	19,697.8	63.5759	19,697.8	52.7461	19,697.8	57.919	19,697.8	48.013	19,697.8	52.7255	19,697.8	41.4808	19,697.8	50.1832	19,697.8	44.151	19,697.8	55.2683	19,697.8	40.6851	19,697.8	45.9898	19,697.8	41.1545	19,697.8	42.3743	19,697.8	46.0396	19,697.8	45.3065	19,697.8	45.9174	19,697.8	37.7081	19,697.8	43.7173
19,999.5	84.8927	19,999.5	82.1057	19,999.5	83.7784	19,999.5	75.8157	19,999.5	79.6802	19,999.5	65.4379	19,999.5	71.924	19,999.5	68.8859	19,999.5	68.049	19,999.5	69.7876	19,999.5	73.5839	19,999.5	67.4453	19,999.5	72.6447	19,999.5	66.3607	19,999.5	71.9504	19,999.5	60.0592	19,999.5	69.5006	19,999.5	56.3932	19,999.5	64.2637	19,999.5	54.2665	19,999.5	60.5834	19,999.5	50.8781	19,999.5	51.1676	19,999.5	51.8842	19,999.5	55.7088	19,999.5	53.3406	19,999.5	59.2159	19,999.5	49.5978	19,999.5	48.2835	19,999.5	41.2467	19,999.5	44.1507	19,999.5	38.346	19,999.5	46.7285	19,999.5	31.5983	19,999.5	46.2172	19,999.5	43.0332
