"SPL Vertical"
"On-Axis"		"10°"		"-10°"		"20°"		"-20°"		"30°"		"-30°"		"40°"		"-40°"		"50°"		"-50°"		"60°"		"-60°"		"70°"		"-70°"		"80°"		"-80°"		"90°"		"-90°"		"100°"		"-100°"		"110°"		"-110°"		"120°"		"-120°"		"130°"		"-130°"		"140°"		"-140°"		"150°"		"-150°"		"160°"		"-160°"		"170°"		"-170°"		"180°"
"Frequency / Hz"	"Sound Pressure Level / dB (re 20 µPa/V)  [2.83  V @ 1. m]"	"Frequency / Hz"	"Sound Pressure Level / dB (re 20 µPa/V)  [2.83  V @ 1. m]"	"Frequency / Hz"	"Sound Pressure Level / dB (re 20 µPa/V)  [2.83  V @ 1. m]"	"Frequency / Hz"	"Sound Pressure Level / dB (re 20 µPa/V)  [2.83  V @ 1. m]"	"Frequency / Hz"	"Sound Pressure Level / dB (re 20 µPa/V)  [2.83  V @ 1. m]"	"Frequency / Hz"	"Sound Pressure Level / dB (re 20 µPa/V)  [2.83  V @ 1. m]"	"Frequency / Hz"	"Sound Pressure Level / dB (re 20 µPa/V)  [2.83  V @ 1. m]"	"Frequency / Hz"	"Sound Pressure Level / dB (re 20 µPa/V)  [2.83  V @ 1. m]"	"Frequency / Hz"	"Sound Pressure Level / dB (re 20 µPa/V)  [2.83  V @ 1. m]"	"Frequency / Hz"	"Sound Pressure Level / dB (re 20 µPa/V)  [2.83  V @ 1. m]"	"Frequency / Hz"	"Sound Pressure Level / dB (re 20 µPa/V)  [2.83  V @ 1. m]"	"Frequency / Hz"	"Sound Pressure Level / dB (re 20 µPa/V)  [2.83  V @ 1. m]"	"Frequency / Hz"	"Sound Pressure Level / dB (re 20 µPa/V)  [2.83  V @ 1. m]"	"Frequency / Hz"	"Sound Pressure Level / dB (re 20 µPa/V)  [2.83  V @ 1. m]"	"Frequency / Hz"	"Sound Pressure Level / dB (re 20 µPa/V)  [2.83  V @ 1. m]"	"Frequency / Hz"	"Sound Pressure Level / dB (re 20 µPa/V)  [2.83  V @ 1. m]"	"Frequency / Hz"	"Sound Pressure Level / dB (re 20 µPa/V)  [2.83  V @ 1. m]"	"Frequency / Hz"	"Sound Pressure Level / dB (re 20 µPa/V)  [2.83  V @ 1. m]"	"Frequency / Hz"	"Sound Pressure Level / dB (re 20 µPa/V)  [2.83  V @ 1. m]"	"Frequency / Hz"	"Sound Pressure Level / dB (re 20 µPa/V)  [2.83  V @ 1. m]"	"Frequency / Hz"	"Sound Pressure Level / dB (re 20 µPa/V)  [2.83  V @ 1. m]"	"Frequency / Hz"	"Sound Pressure Level / dB (re 20 µPa/V)  [2.83  V @ 1. m]"	"Frequency / Hz"	"Sound Pressure Level / dB (re 20 µPa/V)  [2.83  V @ 1. m]"	"Frequency / Hz"	"Sound Pressure Level / dB (re 20 µPa/V)  [2.83  V @ 1. m]"	"Frequency / Hz"	"Sound Pressure Level / dB (re 20 µPa/V)  [2.83  V @ 1. m]"	"Frequency / Hz"	"Sound Pressure Level / dB (re 20 µPa/V)  [2.83  V @ 1. m]"	"Frequency / Hz"	"Sound Pressure Level / dB (re 20 µPa/V)  [2.83  V @ 1. m]"	"Frequency / Hz"	"Sound Pressure Level / dB (re 20 µPa/V)  [2.83  V @ 1. m]"	"Frequency / Hz"	"Sound Pressure Level / dB (re 20 µPa/V)  [2.83  V @ 1. m]"	"Frequency / Hz"	"Sound Pressure Level / dB (re 20 µPa/V)  [2.83  V @ 1. m]"	"Frequency / Hz"	"Sound Pressure Level / dB (re 20 µPa/V)  [2.83  V @ 1. m]"	"Frequency / Hz"	"Sound Pressure Level / dB (re 20 µPa/V)  [2.83  V @ 1. m]"	"Frequency / Hz"	"Sound Pressure Level / dB (re 20 µPa/V)  [2.83  V @ 1. m]"	"Frequency / Hz"	"Sound Pressure Level / dB (re 20 µPa/V)  [2.83  V @ 1. m]"	"Frequency / Hz"	"Sound Pressure Level / dB (re 20 µPa/V)  [2.83  V @ 1. m]"	"Frequency / Hz"	"Sound Pressure Level / dB (re 20 µPa/V)  [2.83  V @ 1. m]"
20.5078	65.153	20.5078	65.0219	20.5078	65.2666	20.5078	64.8779	20.5078	65.3565	20.5078	64.7244	20.5078	65.4151	20.5078	64.5641	20.5078	65.4342	20.5078	64.3992	20.5078	65.4054	20.5078	64.2319	20.5078	65.3227	20.5078	64.0645	20.5078	65.184	20.5078	63.8996	20.5078	64.9925	20.5078	63.7401	20.5078	64.7581	20.5078	63.5889	20.5078	64.496	20.5078	63.4496	20.5078	64.2249	20.5078	63.3257	20.5078	63.9635	20.5078	63.2209	20.5078	63.7273	20.5078	63.1386	20.5078	63.5257	20.5078	63.0817	20.5078	63.3621	20.5078	63.0526	20.5078	63.2355	20.5078	63.0526	20.5078	63.1432	20.5078	63.0826
21.9727	65.0114	21.9727	64.9197	21.9727	65.0845	21.9727	64.8137	21.9727	65.1332	21.9727	64.6965	21.9727	65.1504	21.9727	64.5704	21.9727	65.1282	21.9727	64.4373	21.9727	65.059	21.9727	64.2989	21.9727	64.9378	21.9727	64.157	21.9727	64.7638	21.9727	64.0137	21.9727	64.5426	21.9727	63.8714	21.9727	64.2865	21.9727	63.7327	21.9727	64.0143	21.9727	63.6004	21.9727	63.7489	21.9727	63.4776	21.9727	63.5126	21.9727	63.367	21.9727	63.3227	21.9727	63.2712	21.9727	63.1865	21.9727	63.1918	21.9727	63.1015	21.9727	63.1295	21.9727	63.0583	21.9727	63.0844	21.9727	63.046	21.9727	63.0561
23.4375	63.5521	23.4375	63.506	23.4375	63.5682	23.4375	63.4333	23.4375	63.5498	23.4375	63.3359	23.4375	63.4915	23.4375	63.2156	23.4375	63.3874	23.4375	63.0738	23.4375	63.2326	23.4375	62.9121	23.4375	63.0253	23.4375	62.7329	23.4375	62.7679	23.4375	62.5391	23.4375	62.4682	23.4375	62.3343	23.4375	62.139	23.4375	62.1233	23.4375	61.7984	23.4375	61.9112	23.4375	61.4687	23.4375	61.7038	23.4375	61.1754	23.4375	61.5066	23.4375	60.9425	23.4375	61.3247	23.4375	60.7856	23.4375	61.1618	23.4375	60.7063	23.4375	61.0199	23.4375	60.6935	23.4375	60.8997	23.4375	60.7303	23.4375	60.802
24.9023	63.9169	24.9023	63.8592	24.9023	63.9642	24.9023	63.7905	24.9023	64.0006	24.9023	63.7098	24.9023	64.0244	24.9023	63.6159	24.9023	64.0328	24.9023	63.5083	24.9023	64.0213	24.9023	63.3869	24.9023	63.9844	24.9023	63.2529	24.9023	63.9153	24.9023	63.108	24.9023	63.8056	24.9023	62.9552	24.9023	63.6473	24.9023	62.7981	24.9023	63.4363	24.9023	62.6411	24.9023	63.177	24.9023	62.489	24.9023	62.8866	24.9023	62.3463	24.9023	62.5943	24.9023	62.2178	24.9023	62.3337	24.9023	62.1073	24.9023	62.132	24.9023	62.0186	24.9023	62.0006	24.9023	61.9559	24.9023	61.9357	24.9023	61.9251
26.3672	66.5585	26.3672	66.3247	26.3672	66.8122	26.3672	66.1117	26.3672	67.0831	26.3672	65.9196	26.3672	67.3654	26.3672	65.7481	26.3672	67.6492	26.3672	65.5965	26.3672	67.9189	26.3672	65.4645	26.3672	68.1532	26.3672	65.3513	26.3672	68.3267	26.3672	65.2561	26.3672	68.4136	26.3672	65.1783	26.3672	68.3924	26.3672	65.1169	26.3672	68.2515	26.3672	65.0715	26.3672	67.9938	26.3672	65.0421	26.3672	67.6379	26.3672	65.0297	26.3672	67.2168	26.3672	65.0371	26.3672	66.7714	26.3672	65.0698	26.3672	66.3428	26.3672	65.1361	26.3672	65.9635	26.3672	65.2471	26.3672	65.6526	26.3672	65.4155
27.832	68.7956	27.832	68.517	27.832	69.0956	27.832	68.2627	27.832	69.412	27.832	68.0341	27.832	69.7365	27.832	67.8316	27.832	70.0565	27.832	67.6553	27.832	70.3549	27.832	67.505	27.832	70.6105	27.832	67.3804	27.832	70.7994	27.832	67.2812	27.832	70.8985	27.832	67.2073	27.832	70.8895	27.832	67.1585	27.832	70.7634	27.832	67.1353	27.832	70.5239	27.832	67.1383	27.832	70.188	27.832	67.1692	27.832	69.7845	27.832	67.2303	27.832	69.3491	27.832	67.3256	27.832	68.9169	27.832	67.4604	27.832	68.5167	27.832	67.6413	27.832	68.1668	27.832	67.8751
29.2969	70.6786	29.2969	70.3664	29.2969	71.0116	29.2969	70.0797	29.2969	71.3582	29.2969	69.8216	29.2969	71.7084	29.2969	69.5939	29.2969	72.0485	29.2969	69.398	29.2969	72.361	29.2969	69.2347	29.2969	72.6251	29.2969	69.1043	29.2969	72.819	29.2969	69.0071	29.2969	72.9222	29.2969	68.9435	29.2969	72.9195	29.2969	68.9135	29.2969	72.8044	29.2969	68.9172	29.2969	72.5814	29.2969	68.955	29.2969	72.2669	29.2969	69.0273	29.2969	71.8863	29.2969	69.1349	29.2969	71.4704	29.2969	69.2795	29.2969	71.0493	29.2969	69.4636	29.2969	70.6478	29.2969	69.6902	29.2969	70.2827	29.2969	69.9627
30.7617	72.6691	30.7617	72.3628	30.7617	72.9964	30.7617	72.0829	30.7617	73.3368	30.7617	71.833	30.7617	73.6797	30.7617	71.6156	30.7617	74.011	30.7617	71.4319	30.7617	74.3134	30.7617	71.2828	30.7617	74.5667	30.7617	71.168	30.7617	74.7501	30.7617	71.0872	30.7617	74.8447	30.7617	71.0396	30.7617	74.8369	30.7617	71.0241	30.7617	74.7219	30.7617	71.0396	30.7617	74.5056	30.7617	71.0852	30.7617	74.2046	30.7617	71.1607	30.7617	73.8439	30.7617	71.2666	30.7617	73.4525	30.7617	71.4046	30.7617	73.0581	30.7617	71.5778	30.7617	72.6831	30.7617	71.7897	30.7617	72.3425	30.7617	72.044
32.2266	74.047	32.2266	73.7334	32.2266	74.3792	32.2266	73.4442	32.2266	74.7215	32.2266	73.1836	32.2266	75.063	32.2266	72.9547	32.2266	75.3895	32.2266	72.7593	32.2266	75.6842	32.2266	72.5987	32.2266	75.9278	32.2266	72.4735	32.2266	76.1008	32.2266	72.3838	32.2266	76.1863	32.2266	72.3294	32.2266	76.1724	32.2266	72.31	32.2266	76.0558	32.2266	72.3253	32.2266	75.8431	32.2266	72.3748	32.2266	75.5505	32.2266	72.4585	32.2266	75.2013	32.2266	72.5768	32.2266	74.8219	32.2266	72.7305	32.2266	74.4371	32.2266	72.9209	32.2266	74.0667	32.2266	73.1496	32.2266	73.7243	32.2266	73.4175
33.6914	75.3266	33.6914	75.0156	33.6914	75.6539	33.6914	74.7274	33.6914	75.9891	33.6914	74.4666	33.6914	76.321	33.6914	74.2363	33.6914	76.6355	33.6914	74.0389	33.6914	76.916	33.6914	73.8758	33.6914	77.144	33.6914	73.7478	33.6914	77.301	33.6914	73.6552	33.6914	77.3712	33.6914	73.5979	33.6914	77.3441	33.6914	73.5757	33.6914	77.2176	33.6914	73.588	33.6914	76.9993	33.6914	73.6343	33.6914	76.7061	33.6914	73.7142	33.6914	76.3611	33.6914	73.828	33.6914	75.9902	33.6914	73.976	33.6914	75.617	33.6914	74.1592	33.6914	75.2597	33.6914	74.3789	33.6914	74.9305	33.6914	74.636
35.1562	76.2896	35.1562	75.951	35.1562	76.6427	35.1562	75.6345	35.1562	77.0006	35.1562	75.3458	35.1562	77.3514	35.1562	75.0896	35.1562	77.6807	35.1562	74.8693	35.1562	77.9716	35.1562	74.6871	35.1562	78.206	35.1562	74.5447	35.1562	78.3657	35.1562	74.4428	35.1562	78.4355	35.1562	74.3815	35.1562	78.4057	35.1562	74.3605	35.1562	78.2747	35.1562	74.3791	35.1562	78.05	35.1562	74.4364	35.1562	77.7482	35.1562	74.5318	35.1562	77.3925	35.1562	74.6646	35.1562	77.0079	35.1562	74.8348	35.1562	76.6178	35.1562	75.0424	35.1562	76.2407	35.1562	75.2875	35.1562	75.8891	35.1562	75.5702
36.6211	77.4247	36.6211	77.1082	36.6211	77.7529	36.6211	76.8106	36.6211	78.0841	36.6211	76.5372	36.6211	78.4069	36.6211	76.2924	36.6211	78.7081	36.6211	76.0794	36.6211	78.9718	36.6211	75.9009	36.6211	79.1812	36.6211	75.7586	36.6211	79.3198	36.6211	75.6536	36.6211	79.3738	36.6211	75.5868	36.6211	79.3347	36.6211	75.5581	36.6211	79.2019	36.6211	75.5676	36.6211	78.9833	36.6211	75.6147	36.6211	78.695	36.6211	75.6988	36.6211	78.3588	36.6211	75.8195	36.6211	77.9981	36.6211	75.9763	36.6211	77.634	36.6211	76.1687	36.6211	77.283	36.6211	76.3966	36.6211	76.956	36.6211	76.6595
38.0859	78.3533	38.0859	78.0411	38.0859	78.6768	38.0859	77.747	38.0859	79.0025	38.0859	77.4767	38.0859	79.3193	38.0859	77.2344	38.0859	79.6139	38.0859	77.0234	38.0859	79.8706	38.0859	76.8463	38.0859	80.073	38.0859	76.7048	38.0859	80.2048	38.0859	76.5999	38.0859	80.2528	38.0859	76.5325	38.0859	80.2092	38.0859	76.5026	38.0859	80.0738	38.0859	76.51	38.0859	79.8549	38.0859	76.5545	38.0859	79.5689	38.0859	76.6355	38.0859	79.2373	38.0859	76.7524	38.0859	78.8827	38.0859	76.9049	38.0859	78.5257	38.0859	77.0925	38.0859	78.182	38.0859	77.3151	38.0859	77.8621	38.0859	77.5721
39.5508	78.8727	39.5508	78.5641	39.5508	79.1931	39.5508	78.2743	39.5508	79.5161	39.5508	78.0089	39.5508	79.8307	39.5508	77.7723	39.5508	80.1233	39.5508	77.5675	39.5508	80.3783	39.5508	77.3969	39.5508	80.5793	39.5508	77.2621	39.5508	80.7104	39.5508	77.1641	39.5508	80.7585	39.5508	77.1032	39.5508	80.7163	39.5508	77.0794	39.5508	80.5838	39.5508	77.0923	39.5508	80.37	39.5508	77.1414	39.5508	80.0911	39.5508	77.2258	39.5508	79.7684	39.5508	77.3447	39.5508	79.4243	39.5508	77.4975	39.5508	79.0783	39.5508	77.6835	39.5508	78.7454	39.5508	77.9023	39.5508	78.4352	39.5508	78.1533
41.0156	79.4212	41.0156	79.1087	41.0156	79.7459	41.0156	78.8158	41.0156	80.0731	41.0156	78.5486	41.0156	80.3912	41.0156	78.3114	41.0156	80.6862	41.0156	78.1076	41.0156	80.9424	41.0156	77.9393	41.0156	81.1431	41.0156	77.8081	41.0156	81.2727	41.0156	77.7144	41.0156	81.3186	41.0156	77.6583	41.0156	81.2738	41.0156	77.6394	41.0156	81.1391	41.0156	77.657	41.0156	80.924	41.0156	77.71	41.0156	80.645	41.0156	77.7974	41.0156	80.3236	41.0156	77.9182	41.0156	79.9817	41.0156	78.0716	41.0156	79.6387	41.0156	78.257	41.0156	79.3089	41.0156	78.4741	41.0156	79.0018	41.0156	78.7227
42.4805	80.6737	42.4805	80.3496	42.4805	81.0091	42.4805	80.0444	42.4805	81.3461	42.4805	79.7642	42.4805	81.673	42.4805	79.5138	42.4805	81.9758	42.4805	79.2969	42.4805	82.2381	42.4805	79.116	42.4805	82.4426	42.4805	78.9731	42.4805	82.5722	42.4805	78.8692	42.4805	82.6134	42.4805	78.8046	42.4805	82.5587	42.4805	78.7793	42.4805	82.4094	42.4805	78.7927	42.4805	82.1765	42.4805	78.844	42.4805	81.8788	42.4805	78.9323	42.4805	81.54	42.4805	79.0564	42.4805	81.1835	42.4805	79.2151	42.4805	80.8289	42.4805	79.4074	42.4805	80.49	42.4805	79.6321	42.4805	80.1751	42.4805	79.8884
43.9453	81.2394	43.9453	80.9167	43.9453	81.5724	43.9453	80.6119	43.9453	81.9063	43.9453	80.3313	43.9453	82.2296	43.9453	80.0796	43.9453	82.5286	43.9453	79.8609	43.9453	82.7874	43.9453	79.678	43.9453	82.9891	43.9453	79.5329	43.9453	83.1173	43.9453	79.4268	43.9453	83.1586	43.9453	79.3603	43.9453	83.1056	43.9453	79.3334	43.9453	82.9593	43.9453	79.3457	43.9453	82.73	43.9453	79.3962	43.9453	82.4359	43.9453	79.4842	43.9453	82.0999	43.9453	79.6084	43.9453	81.745	43.9453	79.7677	43.9453	81.3907	43.9453	79.961	43.9453	81.0509	43.9453	80.1873	43.9453	80.7342	43.9453	80.4455
45.4102	81.7937	45.4102	81.474	45.4102	82.1224	45.4102	81.171	45.4102	82.4505	45.4102	80.891	45.4102	82.7665	45.4102	80.6389	45.4102	83.0565	45.4102	80.4188	45.4102	83.3049	45.4102	80.2337	45.4102	83.4948	45.4102	80.0857	45.4102	83.6101	45.4102	79.9761	45.4102	83.6381	45.4102	79.9057	45.4102	83.5725	45.4102	79.8743	45.4102	83.4154	45.4102	79.8815	45.4102	83.1783	45.4102	79.9266	45.4102	82.8803	45.4102	80.0085	45.4102	82.5446	45.4102	80.1261	45.4102	82.1939	45.4102	80.2783	45.4102	81.8468	45.4102	80.4637	45.4102	81.516	45.4102	80.6814	45.4102	81.2091	45.4102	80.9303
46.875	82.206	46.875	81.8885	46.875	82.5318	46.875	81.5868	46.875	82.8563	46.875	81.3071	46.875	83.168	46.875	81.0543	46.875	83.4531	46.875	80.8324	46.875	83.696	46.875	80.6442	46.875	83.8799	46.875	80.492	46.875	83.989	46.875	80.3772	46.875	84.0106	46.875	80.3005	46.875	83.9387	46.875	80.2621	46.875	83.7758	46.875	80.2619	46.875	83.5336	46.875	80.2995	46.875	83.2314	46.875	80.3742	46.875	82.8924	46.875	80.4851	46.875	82.5393	46.875	80.6316	46.875	82.1905	46.875	80.8125	46.875	81.8588	46.875	81.0269	46.875	81.5518	46.875	81.2738
48.3398	82.6395	48.3398	82.3233	48.3398	82.9634	48.3398	82.0225	48.3398	83.2855	48.3398	81.7433	48.3398	83.5942	48.3398	81.4904	48.3398	83.8758	48.3398	81.2679	48.3398	84.1147	48.3398	81.0787	48.3398	84.2942	48.3398	80.9251	48.3398	84.3987	48.3398	80.8086	48.3398	84.4161	48.3398	80.73	48.3398	84.3406	48.3398	80.6898	48.3398	84.1751	48.3398	80.6878	48.3398	83.9317	48.3398	80.7238	48.3398	83.6299	48.3398	80.7971	48.3398	83.2929	48.3398	80.907	48.3398	82.9428	48.3398	81.0524	48.3398	82.5976	48.3398	81.2323	48.3398	82.2695	48.3398	81.4453	48.3398	81.9658	48.3398	81.6903
51.2695	83.2977	51.2695	82.9824	51.2695	83.6211	51.2695	82.6831	51.2695	83.943	51.2695	82.406	51.2695	84.2519	51.2695	82.1565	51.2695	84.5342	51.2695	81.9387	51.2695	84.7745	51.2695	81.7555	51.2695	84.9568	51.2695	81.6093	51.2695	85.0656	51.2695	81.5014	51.2695	85.0893	51.2695	81.4323	51.2695	85.0222	51.2695	81.402	51.2695	84.8669	51.2695	81.41	51.2695	84.635	51.2695	81.4555	51.2695	84.3453	51.2695	81.5374	51.2695	84.0199	51.2695	81.6545	51.2695	83.6802	51.2695	81.8055	51.2695	83.3435	51.2695	81.9891	51.2695	83.0217	51.2695	82.204	51.2695	82.7222	51.2695	82.4489
52.7344	83.6017	52.7344	83.294	52.7344	83.9175	52.7344	83.0021	52.7344	84.2322	52.7344	82.7319	52.7344	84.5344	52.7344	82.4882	52.7344	84.8107	52.7344	82.2748	52.7344	85.0458	52.7344	82.0946	52.7344	85.2237	52.7344	81.9495	52.7344	85.3294	52.7344	81.841	52.7344	85.3513	52.7344	81.7699	52.7344	85.284	52.7344	81.7364	52.7344	85.1305	52.7344	81.7403	52.7344	84.9025	52.7344	81.7813	52.7344	84.6182	52.7344	81.8586	52.7344	84.2993	52.7344	81.9713	52.7344	83.9663	52.7344	82.1186	52.7344	83.6359	52.7344	82.2991	52.7344	83.3193	52.7344	82.5113	52.7344	83.0238	52.7344	82.7536
54.1992	83.8811	54.1992	83.5729	54.1992	84.1987	54.1992	83.2819	54.1992	84.5157	54.1992	83.0145	54.1992	84.8202	54.1992	82.7755	54.1992	85.0984	54.1992	82.5686	54.1992	85.3345	54.1992	82.3965	54.1992	85.5125	54.1992	82.2609	54.1992	85.6174	54.1992	82.1627	54.1992	85.6383	54.1992	82.1023	54.1992	85.5704	54.1992	82.0797	54.1992	85.4179	54.1992	82.0941	54.1992	85.1934	54.1992	82.1448	54.1992	84.9161	54.1992	82.2306	54.1992	84.6076	54.1992	82.3501	54.1992	84.288	54.1992	82.5016	54.1992	83.9725	54.1992	82.6831	54.1992	83.6708	54.1992	82.8927	54.1992	83.3884	54.1992	83.1284
55.6641	84.1204	55.6641	83.7989	55.6641	84.4507	55.6641	83.4949	55.6641	84.7792	55.6641	83.2151	55.6641	85.0936	55.6641	82.9651	55.6641	85.3795	55.6641	82.749	55.6641	85.6213	55.6641	82.5696	55.6641	85.8025	55.6641	82.4289	55.6641	85.9084	55.6641	82.3277	55.6641	85.9279	55.6641	82.2664	55.6641	85.8568	55.6641	82.2448	55.6641	85.699	55.6641	82.262	55.6641	85.4675	55.6641	82.3169	55.6641	85.1818	55.6641	82.4081	55.6641	84.8642	55.6641	82.5336	55.6641	84.5349	55.6641	82.6917	55.6641	84.2098	55.6641	82.88	55.6641	83.8989	55.6641	83.0967	55.6641	83.6079	55.6641	83.3399
58.5938	84.7324	58.5938	84.4031	58.5938	85.0689	58.5938	84.0903	58.5938	85.4015	58.5938	83.8019	58.5938	85.7178	58.5938	83.5446	58.5938	86.0033	58.5938	83.3235	58.5938	86.2425	58.5938	83.1423	58.5938	86.4193	58.5938	83.0033	58.5938	86.5194	58.5938	82.9074	58.5938	86.5322	58.5938	82.8544	58.5938	86.4538	58.5938	82.8428	58.5938	86.2892	58.5938	82.8708	58.5938	86.0523	58.5938	82.9357	58.5938	85.7634	58.5938	83.0349	58.5938	85.4456	58.5938	83.1655	58.5938	85.1197	58.5938	83.3251	58.5938	84.8009	58.5938	83.5115	58.5938	84.4985	58.5938	83.7229	58.5938	84.2171	58.5938	83.9584
60.0586	84.9799	60.0586	84.657	60.0586	85.3094	60.0586	84.35	60.0586	85.635	60.0586	84.0664	60.0586	85.9443	60.0586	83.8129	60.0586	86.2234	60.0586	83.5945	60.0586	86.4571	60.0586	83.4149	60.0586	86.6299	60.0586	83.2765	60.0586	86.7275	60.0586	83.1803	60.0586	86.7398	60.0586	83.1261	60.0586	86.663	60.0586	83.1128	60.0586	86.5019	60.0586	83.1383	60.0586	86.2698	60.0586	83.2003	60.0586	85.9865	60.0586	83.2961	60.0586	85.6743	60.0586	83.4232	60.0586	85.3532	60.0586	83.5792	60.0586	85.0383	60.0586	83.7623	60.0586	84.739	60.0586	83.9708	60.0586	84.46	60.0586	84.2036
62.9883	85.5373	62.9883	85.2067	62.9883	85.8737	62.9883	84.8913	62.9883	86.2051	62.9883	84.599	62.9883	86.5189	62.9883	84.3364	62.9883	86.8006	62.9883	84.1087	62.9883	87.0345	62.9883	83.9199	62.9883	87.2044	62.9883	83.7727	62.9883	87.2957	62.9883	83.6684	62.9883	87.2979	62.9883	83.6069	62.9883	87.2077	62.9883	83.5872	62.9883	87.0312	62.9883	83.6073	62.9883	86.7836	62.9883	83.6649	62.9883	86.4866	62.9883	83.7573	62.9883	86.1634	62.9883	83.882	62.9883	85.8341	62.9883	84.0368	62.9883	85.513	62.9883	84.2199	62.9883	85.2086	62.9883	84.4298	62.9883	84.9253	62.9883	84.6653
64.4531	85.7172	64.4531	85.3845	64.4531	86.0552	64.4531	85.0666	64.4531	86.3872	64.4531	84.7718	64.4531	86.7005	64.4531	84.5069	64.4531	86.9804	64.4531	84.2773	64.4531	87.2112	64.4531	84.0872	64.4531	87.3767	64.4531	83.9391	64.4531	87.4626	64.4531	83.8343	64.4531	87.4587	64.4531	83.7728	64.4531	87.3625	64.4531	83.7533	64.4531	87.1807	64.4531	83.7738	64.4531	86.9292	64.4531	83.8317	64.4531	86.6302	64.4531	83.9244	64.4531	86.3071	64.4531	84.049	64.4531	85.9799	64.4531	84.2032	64.4531	85.6621	64.4531	84.3852	64.4531	85.3617	64.4531	84.5931	64.4531	85.0824	64.4531	84.8259
67.3828	86.1158	67.3828	85.775	67.3828	86.4598	67.3828	85.4478	67.3828	86.7954	67.3828	85.1432	67.3828	87.1097	67.3828	84.8686	67.3828	87.3879	67.3828	84.6305	67.3828	87.6144	67.3828	84.4334	67.3828	87.7734	67.3828	84.2807	67.3828	87.8509	67.3828	84.1735	67.3828	87.8376	67.3828	84.1119	67.3828	87.7316	67.3828	84.0943	67.3828	87.5407	67.3828	84.1182	67.3828	87.2821	67.3828	84.1805	67.3828	86.9787	67.3828	84.2776	67.3828	86.6543	67.3828	84.4064	67.3828	86.3283	67.3828	84.5639	67.3828	86.0137	67.3828	84.7477	67.3828	85.7172	67.3828	84.9561	67.3828	85.4415	67.3828	85.1876
68.8477	86.315	68.8477	85.9727	68.8477	86.6595	68.8477	85.643	68.8477	86.9944	68.8477	85.3349	68.8477	87.3067	68.8477	85.0563	68.8477	87.5819	68.8477	84.8138	68.8477	87.8042	68.8477	84.6123	68.8477	87.9581	68.8477	84.4552	68.8477	88.0295	68.8477	84.3441	68.8477	88.0094	68.8477	84.2791	68.8477	87.8962	68.8477	84.2588	68.8477	87.6983	68.8477	84.2804	68.8477	87.4331	68.8477	84.3409	68.8477	87.1245	68.8477	84.4364	68.8477	86.7965	68.8477	84.5636	68.8477	86.4689	68.8477	84.7194	68.8477	86.1544	68.8477	84.901	68.8477	85.8595	68.8477	85.1068	68.8477	85.5863	68.8477	85.3354
71.7773	86.606	71.7773	86.2622	71.7773	86.9504	71.7773	85.9293	71.7773	87.2833	71.7773	85.6169	71.7773	87.5918	71.7773	85.3332	71.7773	87.8614	71.7773	85.0852	71.7773	88.0767	71.7773	84.8782	71.7773	88.222	71.7773	84.7161	71.7773	88.2839	71.7773	84.6005	71.7773	88.2536	71.7773	84.5316	71.7773	88.13	71.7773	84.5079	71.7773	87.9222	71.7773	84.5265	71.7773	87.6484	71.7773	84.5838	71.7773	87.333	71.7773	84.6761	71.7773	87.0008	71.7773	84.7995	71.7773	86.6716	71.7773	84.9508	71.7773	86.358	71.7773	85.1275	71.7773	86.0658	71.7773	85.3278	71.7773	85.7969	71.7773	85.551
74.707	86.9036	74.707	86.5618	74.707	87.2453	74.707	86.2302	74.707	87.5751	74.707	85.9185	74.707	87.8799	74.707	85.6348	74.707	88.1453	74.707	85.3862	74.707	88.356	74.707	85.1783	74.707	88.4965	74.707	85.0148	74.707	88.5536	74.707	84.8978	74.707	88.5187	74.707	84.8274	74.707	88.3912	74.707	84.8022	74.707	88.1804	74.707	84.8192	74.707	87.9051	74.707	84.875	74.707	87.5898	74.707	84.9655	74.707	87.2591	74.707	85.0868	74.707	86.9326	74.707	85.2357	74.707	86.6224	74.707	85.4095	74.707	86.3339	74.707	85.6067	74.707	86.0687	74.707	85.8264
77.6367	87.1588	77.6367	86.8113	77.6367	87.5057	77.6367	86.4741	77.6367	87.8398	77.6367	86.1574	77.6367	88.1477	77.6367	85.8698	77.6367	88.4148	77.6367	85.6188	77.6367	88.6257	77.6367	85.4102	77.6367	88.7654	77.6367	85.2479	77.6367	88.8207	77.6367	85.1338	77.6367	88.7839	77.6367	85.068	77.6367	88.6549	77.6367	85.0487	77.6367	88.4439	77.6367	85.073	77.6367	88.1702	77.6367	85.1367	77.6367	87.8588	77.6367	85.2354	77.6367	87.534	77.6367	85.3648	77.6367	87.2142	77.6367	85.521	77.6367	86.9106	77.6367	85.701	77.6367	86.6275	77.6367	85.9023	77.6367	86.3655	77.6367	86.1239
79.1016	87.2857	79.1016	86.9386	79.1016	87.6313	79.1016	86.601	79.1016	87.9631	79.1016	86.2834	79.1016	88.2676	79.1016	85.9949	79.1016	88.5306	79.1016	85.7431	79.1016	88.7368	79.1016	85.5341	79.1016	88.8713	79.1016	85.3721	79.1016	88.9215	79.1016	85.2589	79.1016	88.8797	79.1016	85.1947	79.1016	88.7463	79.1016	85.1773	79.1016	88.5321	79.1016	85.2036	79.1016	88.2568	79.1016	85.2691	79.1016	87.9459	79.1016	85.369	79.1016	87.6237	79.1016	85.4988	79.1016	87.3088	79.1016	85.6541	79.1016	87.0115	79.1016	85.8317	79.1016	86.7355	79.1016	86.0292	79.1016	86.4806	79.1016	86.2455
82.0312	87.404	82.0312	87.0514	82.0312	87.7533	82.0312	86.7068	82.0312	88.0868	82.0312	86.3807	82.0312	88.3911	82.0312	86.0828	82.0312	88.6517	82.0312	85.8211	82.0312	88.8536	82.0312	85.6023	82.0312	88.9817	82.0312	85.431	82.0312	89.0235	82.0312	85.3096	82.0312	88.9716	82.0312	85.2383	82.0312	88.8271	82.0312	85.2152	82.0312	88.6011	82.0312	85.2371	82.0312	88.3144	82.0312	85.2992	82.0312	87.9929	82.0312	85.3966	82.0312	87.6619	82.0312	85.5242	82.0312	87.3399	82.0312	85.6777	82.0312	87.0374	82.0312	85.8537	82.0312	86.758	82.0312	86.05	82.0312	86.5013	82.0312	86.2658
84.9609	87.6062	84.9609	87.2635	84.9609	87.9459	84.9609	86.9291	84.9609	88.2703	84.9609	86.6134	84.9609	88.566	84.9609	86.3255	84.9609	88.8186	84.9609	86.073	84.9609	89.0132	84.9609	85.862	84.9609	89.1349	84.9609	85.6965	84.9609	89.1716	84.9609	85.5784	84.9609	89.116	84.9609	85.5078	84.9609	88.9692	84.9609	85.4828	84.9609	88.7426	84.9609	85.5001	84.9609	88.457	84.9609	85.5557	84.9609	88.1384	84.9609	85.6447	84.9609	87.8119	84.9609	85.7628	84.9609	87.4961	84.9609	85.9058	84.9609	87.2015	84.9609	86.0708	84.9609	86.9313	84.9609	86.2558	84.9609	86.6849	84.9609	86.4603
87.8906	87.5634	87.8906	87.2079	87.8906	87.9151	87.8906	86.8614	87.8906	88.2498	87.8906	86.5358	87.8906	88.5537	87.8906	86.2422	87.8906	88.8127	87.8906	85.9904	87.8906	89.012	87.8906	85.7876	87.8906	89.138	87.8906	85.6386	87.8906	89.1792	87.8906	85.5451	87.8906	89.1302	87.8906	85.5058	87.8906	88.9938	87.8906	85.5169	87.8906	88.7834	87.8906	85.5727	87.8906	88.5207	87.8906	85.6663	87.8906	88.2311	87.8906	85.7906	87.8906	87.9372	87.8906	85.9389	87.8906	87.6537	87.8906	86.1059	87.8906	87.3872	87.8906	86.2876	87.8906	87.1386	87.8906	86.4818	87.8906	86.9062	87.8906	86.6878
90.8203	87.8382	90.8203	87.4788	90.8203	88.1914	90.8203	87.1255	90.8203	88.5252	90.8203	86.7896	90.8203	88.8258	90.8203	86.4814	90.8203	89.0783	90.8203	86.2097	90.8203	89.2675	90.8203	85.9816	90.8203	89.3785	90.8203	85.802	90.8203	89.3994	90.8203	85.6734	90.8203	89.3237	90.8203	85.5961	90.8203	89.1542	90.8203	85.5683	90.8203	88.9046	90.8203	85.5862	90.8203	88.599	90.8203	85.6452	90.8203	88.2661	90.8203	85.7399	90.8203	87.9321	90.8203	85.8649	90.8203	87.615	90.8203	86.0152	90.8203	87.3225	90.8203	86.1869	90.8203	87.0552	90.8203	86.3773	90.8203	86.8104	90.8203	86.5851
95.2148	87.7209	95.2148	87.3526	95.2148	88.0827	95.2148	86.9914	95.2148	88.4237	95.2148	86.6506	95.2148	88.7297	95.2148	86.3421	95.2148	88.9859	95.2148	86.0764	95.2148	89.1776	95.2148	85.8615	95.2148	89.2911	95.2148	85.7022	95.2148	89.3155	95.2148	85.6004	95.2148	89.2461	95.2148	85.5547	95.2148	89.0871	95.2148	85.5613	95.2148	88.8535	95.2148	85.6143	95.2148	88.5695	95.2148	85.7065	95.2148	88.2631	95.2148	85.8304	95.2148	87.9583	95.2148	85.9791	95.2148	87.6705	95.2148	86.1463	95.2148	87.405	95.2148	86.3273	95.2148	87.161	95.2148	86.5193	95.2148	86.9344	95.2148	86.7214
98.1445	87.7011	98.1445	87.3238	98.1445	88.0699	98.1445	86.9525	98.1445	88.4154	98.1445	86.6015	98.1445	88.7229	98.1445	86.2839	98.1445	88.9777	98.1445	86.0108	98.1445	89.1651	98.1445	85.7908	98.1445	89.272	98.1445	85.629	98.1445	89.2882	98.1445	85.527	98.1445	89.2096	98.1445	85.4832	98.1445	89.0417	98.1445	85.4929	98.1445	88.8007	98.1445	85.5497	98.1445	88.512	98.1445	85.6461	98.1445	88.204	98.1445	85.7741	98.1445	87.9005	98.1445	85.9263	98.1445	87.6157	98.1445	86.0965	98.1445	87.3539	98.1445	86.2798	98.1445	87.1128	98.1445	86.4732	98.1445	86.8881	98.1445	86.6758
101.074	87.7063	101.074	87.3132	101.074	88.0866	101.074	86.923	101.074	88.439	101.074	86.5514	101.074	88.7486	101.074	86.2135	101.074	89.0011	101.074	85.9226	101.074	89.1825	101.074	85.689	101.074	89.2805	101.074	85.5191	101.074	89.2859	101.074	85.4149	101.074	89.1956	101.074	85.3744	101.074	89.0166	101.074	85.392	101.074	88.7665	101.074	85.4601	101.074	88.4723	101.074	85.5696	101.074	88.163	101.074	85.7113	101.074	87.8623	101.074	85.8767	101.074	87.5829	101.074	86.0585	101.074	87.3273	101.074	86.2511	101.074	87.0914	101.074	86.4511	101.074	86.8695	101.074	86.657
105.469	87.96	105.469	87.549	105.469	88.3497	105.469	87.1324	105.469	88.7032	105.469	86.727	105.469	89.0066	105.469	86.35	105.469	89.2468	105.469	86.0176	105.469	89.4108	105.469	85.7439	105.469	89.4872	105.469	85.5387	105.469	89.4678	105.469	85.4072	105.469	89.3509	105.469	85.3489	105.469	89.1445	105.469	85.3586	105.469	88.8685	105.469	85.4277	105.469	88.5518	105.469	85.5451	105.469	88.2258	105.469	85.6992	105.469	87.9148	105.469	85.8791	105.469	87.6308	105.469	86.0751	105.469	87.3743	105.469	86.2802	105.469	87.1388	105.469	86.4895	105.469	86.9166	105.469	86.7014
108.398	88.0847	108.398	87.6783	108.398	88.4659	108.398	87.2619	108.398	88.8082	108.398	86.8516	108.398	89.0984	108.398	86.4644	108.398	89.3239	108.398	86.1167	108.398	89.4726	108.398	85.8234	108.398	89.5335	108.398	85.5959	108.398	89.4986	108.398	85.4411	108.398	89.3666	108.398	85.3605	108.398	89.146	108.398	85.3504	108.398	88.8574	108.398	85.4034	108.398	88.5307	108.398	85.5088	108.398	88.1973	108.398	85.6551	108.398	87.8816	108.398	85.8305	108.398	87.5946	108.398	86.0249	108.398	87.3357	108.398	86.2303	108.398	87.098	108.398	86.4413	108.398	86.8733	108.398	86.6555
112.793	88.0977	112.793	87.7026	112.793	88.4668	112.793	87.2962	112.793	88.7966	112.793	86.8941	112.793	89.074	112.793	86.5126	112.793	89.2867	112.793	86.1676	112.793	89.4224	112.793	85.8736	112.793	89.47	112.793	85.6422	112.793	89.4218	112.793	85.4805	112.793	89.2766	112.793	85.391	112.793	89.0442	112.793	85.3712	112.793	88.7465	112.793	85.4144	112.793	88.4153	112.793	85.5108	112.793	88.0833	112.793	85.649	112.793	87.7749	112.793	85.8173	112.793	87.4996	112.793	86.005	112.793	87.2545	112.793	86.2034	112.793	87.0306	112.793	86.4066	112.793	86.8186	112.793	86.6117
117.188	87.9943	117.188	87.5886	117.188	88.3725	117.188	87.1712	117.188	88.7089	117.188	86.7589	117.188	88.9902	117.188	86.3697	117.188	89.2039	117.188	86.0207	117.188	89.3381	117.188	85.7274	117.188	89.382	117.188	85.5014	117.188	89.3286	117.188	85.3495	117.188	89.1778	117.188	85.2729	117.188	88.9406	117.188	85.268	117.188	88.6408	117.188	85.3266	117.188	88.3119	117.188	85.4382	117.188	87.988	117.188	85.5903	117.188	87.6927	117.188	85.7709	117.188	87.4335	117.188	85.9688	117.188	87.2044	117.188	86.1749	117.188	86.9938	117.188	86.3825	117.188	86.7908	117.188	86.588
120.117	88.0678	120.117	87.6584	120.117	88.4457	120.117	87.2327	120.117	88.7785	120.117	86.8078	120.117	89.0536	120.117	86.4019	120.117	89.2592	120.117	86.0337	120.117	89.3841	120.117	85.7203	120.117	89.4184	120.117	85.4758	120.117	89.3556	120.117	85.309	120.117	89.1964	120.117	85.223	120.117	88.9529	120.117	85.2151	120.117	88.65	120.117	85.2774	120.117	88.322	120.117	85.3986	120.117	88.0033	120.117	85.5653	120.117	87.717	120.117	85.7637	120.117	87.4686	120.117	85.9807	120.117	87.2502	120.117	86.2047	120.117	87.0475	120.117	86.4269	120.117	86.8474	120.117	86.6416
124.512	88.1389	124.512	87.7404	124.512	88.5051	124.512	87.3257	124.512	88.8247	124.512	86.9121	124.512	89.0844	124.512	86.5179	124.512	89.2719	124.512	86.1615	124.512	89.3756	124.512	85.8591	124.512	89.3858	124.512	85.6242	124.512	89.2966	124.512	85.4651	124.512	89.1102	124.512	85.3848	124.512	88.841	124.512	85.3805	124.512	88.5178	124.512	85.4446	124.512	88.1792	124.512	85.5653	124.512	87.8628	124.512	85.7284	124.512	87.5922	124.512	85.9186	124.512	87.3711	124.512	86.1213	124.512	87.1877	124.512	86.3241	124.512	87.0245	124.512	86.5179	124.512	86.8651	124.512	86.6981
128.906	88.0673	128.906	87.6577	128.906	88.4419	128.906	87.2298	128.906	88.7666	128.906	86.8023	128.906	89.0282	128.906	86.3952	128.906	89.2145	128.906	86.0284	128.906	89.3142	128.906	85.7198	128.906	89.3178	128.906	85.4838	128.906	89.2197	128.906	85.3289	128.906	89.0225	128.906	85.2575	128.906	88.7415	128.906	85.2657	128.906	88.4074	128.906	85.3444	128.906	88.0611	128.906	85.4803	128.906	87.7428	128.906	85.6575	128.906	87.4767	128.906	85.8595	128.906	87.2658	128.906	86.0704	128.906	87.096	128.906	86.2769	128.906	86.9471	128.906	86.4696	128.906	86.8008	128.906	86.6439
133.301	88.0528	133.301	87.6311	133.301	88.4354	133.301	87.188	133.301	88.7634	133.301	86.7433	133.301	89.0233	133.301	86.3186	133.301	89.2028	133.301	85.9354	133.301	89.2907	133.301	85.6133	133.301	89.2774	133.301	85.3675	133.301	89.1576	133.301	85.2075	133.301	88.9343	133.301	85.1355	133.301	88.6243	133.301	85.1471	133.301	88.2607	133.301	85.2317	133.301	87.8891	133.301	85.3746	133.301	87.5533	133.301	85.558	133.301	87.2805	133.301	85.7637	133.301	87.0732	133.301	85.9743	133.301	86.9151	133.301	86.1754	133.301	86.7829	133.301	86.3575	133.301	86.6554	133.301	86.5166
139.16	87.8565	139.16	87.4178	139.16	88.252	139.16	86.9543	139.16	88.5887	139.16	86.4874	139.16	88.8531	139.16	86.0402	139.16	89.0333	139.16	85.6365	139.16	89.1183	139.16	85.2978	139.16	89.0988	139.16	85.0408	139.16	88.969	139.16	84.8755	139.16	88.7316	139.16	84.8035	139.16	88.4028	139.16	84.819	139.16	88.0162	139.16	84.9099	139.16	87.6192	139.16	85.0594	139.16	87.2595	139.16	85.2485	139.16	86.9679	139.16	85.4576	139.16	86.7493	139.16	85.6689	139.16	86.587	139.16	85.8681	139.16	86.4561	139.16	86.0461	139.16	86.3329	139.16	86.1998
143.555	87.7069	143.555	87.2633	143.555	88.1021	143.555	86.79	143.555	88.4337	143.555	86.3088	143.555	88.6891	143.555	85.8446	143.555	88.8577	143.555	85.4228	143.555	88.93	143.555	85.0672	143.555	88.8979	143.555	84.7969	143.555	88.7571	143.555	84.6229	143.555	88.5108	143.555	84.5477	143.555	88.1752	143.555	84.5647	143.555	87.7833	143.555	84.6599	143.555	87.3805	143.555	84.8147	143.555	87.0124	143.555	85.0076	143.555	86.709	143.555	85.2174	143.555	86.4771	143.555	85.4252	143.555	86.3042	143.555	85.6165	143.555	86.169	143.555	85.7833	143.555	86.0491	143.555	85.9251
147.949	87.551	147.949	87.0884	147.949	87.9627	147.949	86.5947	147.949	88.3074	147.949	86.0936	147.949	88.5719	147.949	85.6115	147.949	88.7455	147.949	85.1756	147.949	88.8187	147.949	84.811	147.949	88.784	147.949	84.5371	147.949	88.6382	147.949	84.3651	147.949	88.3868	147.949	84.2968	147.949	88.0497	147.949	84.3246	147.949	87.6635	147.949	84.434	147.949	87.2765	147.949	84.6053	147.949	86.9327	147.949	84.8165	147.949	86.6557	147.949	85.046	147.949	86.4434	147.949	85.2749	147.949	86.2774	147.949	85.4892	147.949	86.1348	147.949	85.6808	147.949	85.9965	147.949	85.8484
153.809	87.6341	153.809	87.1538	153.809	88.0493	153.809	86.628	153.809	88.3847	153.809	86.0816	153.809	88.6293	153.809	85.5445	153.809	88.775	153.809	85.0491	153.809	88.815	153.809	84.6271	153.809	88.7446	153.809	84.3048	153.809	88.5628	153.809	84.0989	153.809	88.2774	153.809	84.0136	153.809	87.9108	153.809	84.0415	153.809	87.5032	153.809	84.1656	153.809	87.1064	153.809	84.3628	153.809	86.7673	153.809	84.6072	153.809	86.5082	153.809	84.8734	153.809	86.322	153.809	85.1388	153.809	86.183	153.809	85.3856	153.809	86.0618	153.809	85.6023	153.809	85.9345	153.809	85.7844
159.668	87.5635	159.668	87.0673	159.668	87.9844	159.668	86.5155	159.668	88.3157	159.668	85.9352	159.668	88.5478	159.668	85.3594	159.668	88.674	159.668	84.8259	159.668	88.689	159.668	84.3728	159.668	88.5891	159.668	84.0324	159.668	88.3742	159.668	83.8256	159.668	88.0534	159.668	83.7581	159.668	87.6526	159.668	83.8204	159.668	87.2191	159.668	83.9911	159.668	86.8149	159.668	84.2415	159.668	86.4948	159.668	84.5402	159.668	86.2818	159.668	84.8564	159.668	86.1606	159.668	85.1626	159.668	86.0924	159.668	85.4368	159.668	86.0355	159.668	85.6641	159.668	85.9574	159.668	85.8371
165.527	87.6985	165.527	87.235	165.527	88.0778	165.527	86.7014	165.527	88.3641	165.527	86.1182	165.527	88.5516	165.527	85.5134	165.527	88.636	165.527	84.9222	165.527	88.6125	165.527	84.3846	165.527	88.4759	165.527	83.9409	165.527	88.2227	165.527	83.6251	165.527	87.8577	165.527	83.4571	165.527	87.4014	165.527	83.4384	165.527	86.8975	165.527	83.5515	165.527	86.4075	165.527	83.7648	165.527	85.993	165.527	84.0396	165.527	85.6902	165.527	84.3366	165.527	85.4991	165.527	84.6208	165.527	85.3914	165.527	84.8658	165.527	85.3281	165.527	85.0556	165.527	85.2708	165.527	85.1873
171.387	87.5291	171.387	87.0847	171.387	87.8969	171.387	86.5763	171.387	88.1793	171.387	86.0221	171.387	88.3697	171.387	85.4465	171.387	88.4621	171.387	84.8806	171.387	88.4498	171.387	84.3595	171.387	88.327	171.387	83.9197	171.387	88.091	171.387	83.5927	171.387	87.7489	171.387	83.3997	171.387	87.3252	171.387	83.3466	171.387	86.8659	171.387	83.4228	171.387	86.4304	171.387	83.6036	171.387	86.07	171.387	83.856	171.387	85.8057	171.387	84.1443	171.387	85.6247	171.387	84.4358	171.387	85.4955	171.387	84.7048	171.387	85.3851	171.387	84.9351	171.387	85.2669	171.387	85.1211
177.246	87.2467	177.246	86.7901	177.246	87.6279	177.246	86.2726	177.246	87.9221	177.246	85.7134	177.246	88.1202	177.246	85.1371	177.246	88.2139	177.246	84.5737	177.246	88.1955	177.246	84.0574	177.246	88.0584	177.246	83.6239	177.246	87.8	177.246	83.3054	177.246	87.4282	177.246	83.1239	177.246	86.9702	177.246	83.0864	177.246	86.4779	177.246	83.1819	177.246	86.0195	177.246	83.3841	177.246	85.6544	177.246	83.6568	177.246	85.4053	177.246	83.9604	177.246	85.2546	177.246	84.259	177.246	85.1634	177.246	84.5246	177.246	85.0931	177.246	84.74	177.246	85.0131	177.246	84.9007
183.105	86.7591	183.105	86.2605	183.105	87.182	183.105	85.7069	183.105	87.5128	183.105	85.1236	183.105	87.739	183.105	84.54	183.105	87.8509	183.105	83.9888	183.105	87.8415	183.105	83.5039	183.105	87.7065	183.105	83.1175	183.105	87.4477	183.105	82.8561	183.105	87.0793	183.105	82.7361	183.105	86.637	183.105	82.7594	183.105	86.1826	183.105	82.9129	183.105	85.7907	183.105	83.17	183.105	85.5167	183.105	83.4957	183.105	85.3676	183.105	83.8526	183.105	85.3051	183.105	84.2058	183.105	85.2751	183.105	84.527	183.105	85.2322	183.105	84.7966	183.105	85.1471	183.105	85.0039
188.965	87.0772	188.965	86.523	188.965	87.5277	188.965	85.8873	188.965	87.8593	188.965	85.2001	188.965	88.0622	188.965	84.4993	188.965	88.1303	188.965	83.8294	188.965	88.0594	188.965	83.2385	188.965	87.8469	188.965	82.7722	188.965	87.4946	188.965	82.4673	188.965	87.0168	188.965	82.3444	188.965	86.453	188.965	82.4025	188.965	85.8783	188.965	82.6197	188.965	85.3932	188.965	82.9574	188.965	85.0816	188.965	83.3682	188.965	84.9615	188.965	83.8036	188.965	84.9805	188.965	84.2193	188.965	85.0575	188.965	84.5793	188.965	85.1213	188.965	84.8579	188.965	85.1245	188.965	85.0404
196.289	87.5758	196.289	87.0602	196.289	87.975	196.289	86.4419	196.289	88.2499	196.289	85.7424	196.289	88.3965	196.289	84.9927	196.289	88.4127	196.289	84.2341	196.289	88.2966	196.289	83.5179	196.289	88.0456	196.289	82.9019	196.289	87.6587	196.289	82.4427	196.289	87.1433	196.289	82.1834	196.289	86.5266	196.289	82.141	196.289	85.8686	196.289	82.3007	196.289	85.2613	196.289	82.6201	196.289	84.8031	196.289	83.0404	196.289	84.5525	196.289	83.499	196.289	84.4979	196.289	83.9381	196.289	84.5705	196.289	84.3095	196.289	84.6809	196.289	84.578	196.289	84.7501	196.289	84.7245
203.613	87.0091	203.613	86.5122	203.613	87.4054	203.613	85.9309	203.613	87.6882	203.613	85.2858	203.613	87.8477	203.613	84.6023	203.613	87.8764	203.613	83.911	203.613	87.7687	203.613	83.2489	203.613	87.5217	203.613	82.6591	203.613	87.138	203.613	82.1889	203.613	86.6334	203.613	81.8836	203.613	86.0481	203.613	81.7739	203.613	85.4527	203.613	81.8636	203.613	84.9336	203.613	82.1234	203.613	84.5546	203.613	82.4981	203.613	84.326	203.613	82.9213	203.613	84.2143	203.613	83.3298	203.613	84.1743	203.613	83.6743	203.613	84.1647	203.613	83.9255	203.613	84.1457	203.613	84.0771
210.938	87.004	210.938	86.4678	210.938	87.4251	210.938	85.8369	210.938	87.7168	210.938	85.1375	210.938	87.8697	210.938	84.4023	210.938	87.8777	210.938	83.6689	210.938	87.7366	210.938	82.9791	210.938	87.4425	210.938	82.3778	210.938	86.9943	210.938	81.911	210.938	86.4017	210.938	81.6205	210.938	85.7028	210.938	81.5345	210.938	84.9814	210.938	81.6564	210.938	84.3632	210.938	81.9577	210.938	83.9627	210.938	82.3825	210.938	83.8114	210.938	82.8612	210.938	83.8476	210.938	83.3248	210.938	83.9733	210.938	83.7161	210.938	84.103	210.938	83.9962	210.938	84.1752	210.938	84.1478
218.262	86.5972	218.262	86.064	218.262	87.0187	218.262	85.4387	218.262	87.3152	218.262	84.7474	218.262	87.4781	218.262	84.0223	218.262	87.5032	218.262	83.3015	218.262	87.3883	218.262	82.6272	218.262	87.1327	218.262	82.0444	218.262	86.7383	218.262	81.5981	218.262	86.2155	218.262	81.328	218.262	85.5955	218.262	81.2593	218.262	84.9415	218.262	81.3924	218.262	84.3459	218.262	81.6974	218.262	83.8989	218.262	82.118	218.262	83.6453	218.262	82.5845	218.262	83.568	218.262	83.0284	218.262	83.6097	218.262	83.3933	218.262	83.6997	218.262	83.6425	218.262	83.7701	218.262	83.7636
225.586	86.8428	225.586	86.2568	225.586	87.2947	225.586	85.5616	225.586	87.5958	225.586	84.7907	225.586	87.7367	225.586	83.9855	225.586	87.7141	225.586	83.1938	225.586	87.5301	225.586	82.4674	225.586	87.1912	225.586	81.8588	225.586	86.7106	225.586	81.4175	225.586	86.1164	225.586	81.1847	225.586	85.4656	225.586	81.1838	225.586	84.8527	225.586	81.41	225.586	84.3874	225.586	81.8246	225.586	84.1377	225.586	82.3614	225.586	84.0903	225.586	82.9421	225.586	84.1758	225.586	83.492	225.586	84.316	225.586	83.9513	225.586	84.4454	225.586	84.2806	225.586	84.5095	225.586	84.4641
232.91	87.0897	232.91	86.5219	232.91	87.5083	232.91	85.8281	232.91	87.763	232.91	85.0398	232.91	87.847	232.91	84.1965	232.91	87.759	232.91	83.3439	232.91	87.5013	232.91	82.5331	232.91	87.0769	232.91	81.8197	232.91	86.4905	232.91	81.2625	232.91	85.7583	232.91	80.9168	232.91	84.9268	232.91	80.8219	232.91	84.0942	232.91	80.9828	232.91	83.401	232.91	81.3603	232.91	82.9659	232.91	81.878	232.91	82.8151	232.91	82.4426	232.91	82.8893	232.91	82.9646	232.91	83.0999	232.91	83.3715	232.91	83.3576	232.91	83.6154	232.91	83.5757	232.91	83.6783
241.699	87.0581	241.699	86.4912	241.699	87.479	241.699	85.8023	241.699	87.739	241.699	85.0252	241.699	87.831	241.699	84.2023	241.699	87.7538	241.699	83.3815	241.699	87.5102	241.699	82.6126	241.699	87.1053	241.699	81.9441	241.699	86.5483	241.699	81.4221	241.699	85.8599	241.699	81.089	241.699	85.0883	241.699	80.9775	241.699	84.3238	241.699	81.0974	241.699	83.684	241.699	81.4222	241.699	83.2601	241.699	81.8892	241.699	83.0692	241.699	82.4137	241.699	83.0694	241.699	82.9094	241.699	83.1995	241.699	83.3044	241.699	83.3893	241.699	83.5504	241.699	83.5583	241.699	83.6294
250.488	86.8611	250.488	86.2303	250.488	87.3249	250.488	85.4591	250.488	87.6056	250.488	84.586	250.488	87.6959	250.488	83.6608	250.488	87.5962	250.488	82.7436	250.488	87.3134	250.488	81.8993	250.488	86.8603	250.488	81.1927	250.488	86.2594	250.488	80.6823	250.488	85.5541	250.488	80.414	250.488	84.8261	250.488	80.4108	250.488	84.1973	250.488	80.6602	250.488	83.7768	250.488	81.1098	250.488	83.5779	250.488	81.6766	250.488	83.5156	250.488	82.2669	250.488	83.4985	250.488	82.7952	250.488	83.4943	250.488	83.1987	250.488	83.5122	250.488	83.4461	250.488	83.5456	250.488	83.5459
259.277	87.9856	259.277	87.3495	259.277	88.4099	259.277	86.5183	259.277	88.6156	259.277	85.523	259.277	88.6039	259.277	84.4116	259.277	88.3815	259.277	83.2522	259.277	87.9574	259.277	82.1328	259.277	87.3413	259.277	81.1544	259.277	86.5448	259.277	80.42	259.277	85.5964	259.277	80.0169	259.277	84.58	259.277	79.9942	259.277	83.6812	259.277	80.3397	259.277	83.1523	259.277	80.975	259.277	83.1166	259.277	81.7787	259.277	83.4409	259.277	82.6236	259.277	83.8918	259.277	83.4027	259.277	84.3077	259.277	84.0392	259.277	84.6104	259.277	84.4863	259.277	84.7595	259.277	84.725
268.066	87.2933	268.066	86.7375	268.066	87.6775	268.066	86.0261	268.066	87.8802	268.066	85.1816	268.066	87.8964	268.066	84.2344	268.066	87.7253	268.066	83.2239	268.066	87.3694	268.066	82.2	268.066	86.8323	268.066	81.2265	268.066	86.1204	268.066	80.3855	268.066	85.2531	268.066	79.7784	268.066	84.2909	268.066	79.5084	268.066	83.369	268.066	79.6335	268.066	82.6788	268.066	80.1187	268.066	82.347	268.066	80.8393	268.066	82.3332	268.066	81.6361	268.066	82.5059	268.066	82.3672	268.066	82.7632	268.066	82.9309	268.066	83.0419	268.066	83.2701	268.066	83.273	268.066	83.3728
276.855	86.7776	276.855	86.1727	276.855	87.2033	276.855	85.4153	276.855	87.4307	276.855	84.5396	276.855	87.4498	276.855	83.5855	276.855	87.2589	276.855	82.5972	276.855	86.8644	276.855	81.622	276.855	86.2794	276.855	80.7113	276.855	85.5253	276.855	79.9275	276.855	84.6451	276.855	79.3516	276.855	83.7322	276.855	79.0792	276.855	82.9529	276.855	79.1847	276.855	82.4877	276.855	79.6636	276.855	82.3862	276.855	80.4103	276.855	82.5282	276.855	81.2638	276.855	82.7619	276.855	82.0715	276.855	83.0049	276.855	82.723	276.855	83.2197	276.855	83.1571	276.855	83.3601	276.855	83.3596
287.109	87.4609	287.109	86.9023	287.109	87.8013	287.109	86.1453	287.109	87.9125	287.109	85.2197	287.109	87.792	287.109	84.1672	287.109	87.4442	287.109	83.0426	287.109	86.8791	287.109	81.9138	287.109	86.1103	287.109	80.8595	287.109	85.1582	287.109	79.9651	287.109	84.0685	287.109	79.3219	287.109	82.9577	287.109	79.0214	287.109	82.0548	287.109	79.1282	287.109	81.615	287.109	79.6309	287.109	81.6793	287.109	80.4193	287.109	82.0386	287.109	81.3245	287.109	82.475	287.109	82.1825	287.109	82.8859	287.109	82.8718	287.109	83.2306	287.109	83.3217	287.109	83.4609	287.109	83.5103
297.363	87.0855	297.363	86.5289	297.363	87.4264	297.363	85.7896	297.363	87.5296	297.363	84.9088	297.363	87.3836	297.363	83.932	297.363	86.9866	297.363	82.9039	297.363	86.3445	297.363	81.8651	297.363	85.4687	297.363	80.8537	297.363	84.3795	297.363	79.9157	297.363	83.1284	297.363	79.1231	297.363	81.8568	297.363	78.5909	297.363	80.8605	297.363	78.4592	297.363	80.4632	297.363	78.8056	297.363	80.6667	297.363	79.5525	297.363	81.1582	297.363	80.495	297.363	81.6759	297.363	81.4152	297.363	82.1302	297.363	82.1564	297.363	82.504	297.363	82.6339	297.363	82.7591	297.363	82.8248
307.617	87.4073	307.617	86.841	307.617	87.7281	307.617	86.0586	307.617	87.7876	307.617	85.1049	307.617	87.5815	307.617	84.038	307.617	87.1143	307.617	82.9235	307.617	86.3962	307.617	81.8244	307.617	85.4411	307.617	80.7934	307.617	84.2681	307.617	79.8738	307.617	82.918	307.617	79.1133	307.617	81.5052	307.617	78.5804	307.617	80.2917	307.617	78.3623	307.617	79.6235	307.617	78.5177	307.617	79.5997	307.617	79.0124	307.617	79.9638	307.617	79.7109	307.617	80.435	307.617	80.4393	307.617	80.8858	307.617	81.0512	307.617	81.2682	307.617	81.4539	307.617	81.5312	307.617	81.6098
319.336	86.4941	319.336	86.0303	319.336	86.7332	319.336	85.371	319.336	86.7276	319.336	84.5556	319.336	86.4648	319.336	83.6327	319.336	85.9381	319.336	82.656	319.336	85.1481	319.336	81.6766	319.336	84.1049	319.336	80.7391	319.336	82.8394	319.336	79.8841	319.336	81.4416	319.336	79.1644	319.336	80.1452	319.336	78.6657	319.336	79.3612	319.336	78.5061	319.336	79.3467	319.336	78.7756	319.336	79.8352	319.336	79.4394	319.336	80.3973	319.336	80.3213	319.336	80.8571	319.336	81.1979	319.336	81.2645	319.336	81.8868	319.336	81.694	319.336	82.2772	319.336	82.0973	319.336	82.3326
329.59	86.5057	329.59	85.8475	329.59	86.92	329.59	84.9942	329.59	87.0564	329.59	84.0106	329.59	86.8921	329.59	82.9736	329.59	86.4128	329.59	81.9593	329.59	85.6106	329.59	81.0238	329.59	84.485	329.59	80.1933	329.59	83.0509	329.59	79.4742	329.59	81.3833	329.59	78.8819	329.59	79.762	329.59	78.4716	329.59	78.8308	329.59	78.3432	329.59	79.0634	329.59	78.5898	329.59	79.9686	329.59	79.1998	329.59	80.8366	329.59	80.0218	329.59	81.3945	329.59	80.8448	329.59	81.6798	329.59	81.4962	329.59	81.8368	329.59	81.8853	329.59	81.9595	329.59	82.0124
341.309	86.9634	341.309	86.2838	341.309	87.3564	341.309	85.3606	341.309	87.4329	341.309	84.2518	341.309	87.1743	341.309	83.0325	341.309	86.571	341.309	81.7926	341.309	85.6201	341.309	80.6253	341.309	84.3228	341.309	79.6073	341.309	82.687	341.309	78.7831	341.309	80.7662	341.309	78.1769	341.309	78.8447	341.309	77.8294	341.309	77.7739	341.309	77.8238	341.309	78.296	341.309	78.2449	341.309	79.68	341.309	79.0717	341.309	80.9826	341.309	80.1346	341.309	81.9158	341.309	81.2061	341.309	82.5183	341.309	82.1034	341.309	82.8897	341.309	82.7235	341.309	83.0731	341.309	83.037
353.027	87.5323	353.027	86.8962	353.027	87.8628	353.027	85.9904	353.027	87.8668	353.027	84.8693	353.027	87.5339	353.027	83.6093	353.027	86.8599	353.027	82.3048	353.027	85.843	353.027	81.0523	353.027	84.4797	353.027	79.9206	353.027	82.7648	353.027	78.9279	353.027	80.7199	353.027	78.053	353.027	78.5748	353.027	77.289	353.027	77.2474	353.027	76.7221	353.027	77.8053	353.027	76.581	353.027	79.446	353.027	77.1012	353.027	80.9756	353.027	78.2191	353.027	82.0304	353.027	79.5765	353.027	82.6246	353.027	80.8322	353.027	82.8546	353.027	81.8077	353.027	82.7936	353.027	82.4547
366.211	87.7108	366.211	87.1296	366.211	87.966	366.211	86.2551	366.211	87.8701	366.211	85.1333	366.211	87.404	366.211	83.8341	366.211	86.5542	366.211	82.4631	366.211	85.3135	366.211	81.1652	366.211	83.6801	366.211	80.0945	366.211	81.6616	366.211	79.3508	366.211	79.311	366.211	78.9329	366.211	76.9211	366.211	78.7683	366.211	75.4955	366.211	78.7878	366.211	76.0943	366.211	78.9776	366.211	77.8975	366.211	79.377	366.211	79.76	366.211	80.022	366.211	81.2914	366.211	80.8697	366.211	82.4052	366.211	81.7823	366.211	83.0792	366.211	82.585	366.211	83.3124	366.211	83.1286
379.395	87.2286	379.395	86.6334	379.395	87.4696	379.395	85.7409	379.395	87.3195	379.395	84.6327	379.395	86.7542	379.395	83.4109	379.395	85.7555	379.395	82.1838	379.395	84.3073	379.395	81.0435	379.395	82.4008	379.395	80.0527	379.395	80.0645	379.395	79.2518	379.395	77.4767	379.395	78.6782	379.395	75.2499	379.395	78.3797	379.395	74.3945	379.395	78.4096	379.395	74.9485	379.395	78.7925	379.395	75.9862	379.395	79.4803	379.395	77.0384	379.395	80.3356	379.395	78.1123	379.395	81.1702	379.395	79.2721	379.395	81.8008	379.395	80.4243	379.395	82.0876	379.395	81.3708	379.395	81.9488
392.578	86.9045	392.578	86.3886	392.578	87.019	392.578	85.5195	392.578	86.7025	392.578	84.3717	392.578	85.936	392.578	83.054	392.578	84.7039	392.578	81.7109	392.578	82.9883	392.578	80.5028	392.578	80.7747	392.578	79.5621	392.578	78.0954	392.578	78.9485	392.578	75.2188	392.578	78.6522	392.578	73.1257	392.578	78.64	392.578	73.0466	392.578	78.8957	392.578	74.3116	392.578	79.4147	392.578	75.7092	392.578	80.1579	392.578	76.9126	392.578	81.0143	392.578	78.0596	392.578	81.8186	392.578	79.3145	392.578	82.4003	392.578	80.6069	392.578	82.6217	392.578	81.6986	392.578	82.395
405.762	86.9729	405.762	86.6682	405.762	86.8371	405.762	85.9577	405.762	86.2437	405.762	84.91	405.762	85.178	405.762	83.64	405.762	83.6136	405.762	82.306	405.762	81.5043	405.762	81.072	405.762	78.7978	405.762	80.0449	405.762	75.5393	405.762	79.2448	405.762	72.3998	405.762	78.6507	405.762	71.4978	405.762	78.285	405.762	73.1886	405.762	78.2675	405.762	75.3331	405.762	78.7544	405.762	77.0273	405.762	79.7418	405.762	78.1326	405.762	80.9716	405.762	78.7868	405.762	82.0925	405.762	79.386	405.762	82.8245	405.762	80.3401	405.762	82.9957	405.762	81.5482	405.762	82.5416
420.41	87.7402	420.41	87.3065	420.41	87.7676	420.41	86.5023	420.41	87.35	420.41	85.3706	420.41	86.4383	420.41	83.977	420.41	84.962	420.41	82.4285	420.41	82.8112	420.41	80.8851	420.41	79.799	420.41	79.5395	420.41	75.587	420.41	78.5493	420.41	70.0403	420.41	77.9659	420.41	68.9452	420.41	77.7451	420.41	73.124	420.41	77.8284	420.41	76.2213	420.41	78.1951	420.41	78.25	420.41	78.8358	420.41	79.5384	420.41	79.678	420.41	80.284	420.41	80.5514	420.41	80.694	420.41	81.2467	420.41	81.0041	420.41	81.6089	420.41	81.3387	420.41	81.6036
435.059	87.739	435.059	87.1217	435.059	87.93	435.059	86.1413	435.059	87.6448	435.059	84.8784	435.059	86.8397	435.059	83.4365	435.059	85.4677	435.059	81.9393	435.059	83.4596	435.059	80.5165	435.059	80.6937	435.059	79.2815	435.059	76.9651	435.059	78.322	435.059	72.2624	435.059	77.7172	435.059	69.8327	435.059	77.5454	435.059	72.663	435.059	77.8339	435.059	75.5965	435.059	78.4915	435.059	77.6389	435.059	79.3302	435.059	78.9883	435.059	80.1546	435.059	79.8107	435.059	80.8179	435.059	80.2766	435.059	81.2275	435.059	80.5928	435.059	81.3452	435.059	80.9072	435.059	81.2017
451.172	87.406	451.172	86.9626	451.172	87.3622	451.172	86.0776	451.172	86.8134	451.172	84.8316	451.172	85.7604	451.172	83.3439	451.172	84.2115	451.172	81.7634	451.172	82.1707	451.172	80.2327	451.172	79.6297	451.172	78.8401	451.172	76.583	451.172	77.6073	451.172	73.175	451.172	76.5598	451.172	70.4517	451.172	75.8586	451.172	70.6487	451.172	75.8526	451.172	72.9602	451.172	76.756	451.172	75.4182	451.172	78.2627	451.172	77.5117	451.172	79.8417	451.172	79.1807	451.172	81.134	451.172	80.4425	451.172	81.9847	451.172	81.3541	451.172	82.3679	451.172	81.9807	451.172	82.3376
465.82	88.2306	465.82	88.1627	465.82	87.6069	465.82	87.4568	465.82	86.2448	465.82	86.1953	465.82	84.0845	465.82	84.5172	465.82	81.0628	465.82	82.6374	465.82	77.3411	465.82	80.817	465.82	74.3738	465.82	79.2492	465.82	74.0538	465.82	77.9524	465.82	74.4016	465.82	76.8202	465.82	73.7856	465.82	75.8064	465.82	72.0982	465.82	75.1694	465.82	70.233	465.82	75.5311	465.82	70.673	465.82	77.0898	465.82	73.6237	465.82	79.1472	465.82	76.7934	465.82	81.0087	465.82	79.3785	465.82	82.3554	465.82	81.2868	465.82	83.0741	465.82	82.5353	465.82	83.1333
483.398	87.9066	483.398	87.3848	483.398	87.8687	483.398	86.3459	483.398	87.2296	483.398	84.8632	483.398	85.9132	483.398	83.0675	483.398	83.7567	483.398	81.1624	483.398	80.4045	483.398	79.3988	483.398	74.9655	483.398	77.9842	483.398	65.1963	483.398	76.976	483.398	68.7106	483.398	76.2817	483.398	73.3069	483.398	75.7793	483.398	74.9858	483.398	75.4425	483.398	75.3336	483.398	75.3959	483.398	74.9272	483.398	75.8644	483.398	74.262	483.398	76.9401	483.398	74.3639	483.398	78.3543	483.398	75.9743	483.398	79.6407	483.398	78.0986	483.398	80.4225	483.398	79.7034	483.398	80.4795
499.512	87.1843	499.512	86.9817	499.512	86.8734	499.512	86.2838	499.512	86.0341	499.512	85.1369	499.512	84.6297	499.512	83.6421	499.512	82.5664	499.512	81.9768	499.512	79.6459	499.512	80.3795	499.512	75.5623	499.512	79.0548	499.512	70.8759	499.512	78.044	499.512	70.7764	499.512	77.224	499.512	73.4688	499.512	76.4918	499.512	75.1104	499.512	76.0212	499.512	75.7369	499.512	76.3259	499.512	75.6629	499.512	77.5993	499.512	75.1107	499.512	79.234	499.512	74.3439	499.512	80.5438	499.512	74.0526	499.512	81.1571	499.512	75.2899	499.512	80.8964	499.512	77.618	499.512	79.6862
517.09	88.0425	517.09	87.6123	517.09	87.9109	517.09	86.6819	517.09	87.1426	517.09	85.3264	517.09	85.6268	517.09	83.6689	517.09	83.196	517.09	81.9127	517.09	79.6473	517.09	80.329	517.09	75.1919	517.09	79.1427	517.09	72.5079	517.09	78.372	517.09	73.09	517.09	77.8115	517.09	73.8738	517.09	77.1851	517.09	74.5755	517.09	76.344	517.09	75.5621	517.09	75.6119	517.09	76.5929	517.09	76.1002	517.09	77.5093	517.09	78.0769	517.09	78.2706	517.09	80.1497	517.09	78.733	517.09	81.39	517.09	79.0145	517.09	81.5619	517.09	79.688	517.09	80.8003
536.133	89.5608	536.133	89.0702	536.133	89.4275	536.133	87.9993	536.133	88.65	536.133	86.4166	536.133	87.2244	536.133	84.4192	536.133	85.1564	536.133	82.1568	536.133	82.4622	536.133	79.9101	536.133	79.1729	536.133	78.2059	536.133	75.3216	536.133	77.6049	536.133	71.3749	536.133	77.9471	536.133	70.883	536.133	78.4583	536.133	73.9478	536.133	78.5247	536.133	76.2515	536.133	77.866	536.133	77.2063	536.133	76.7294	536.133	77.3639	536.133	76.6835	536.133	77.7162	536.133	78.6594	536.133	78.8616	536.133	80.7566	536.133	80.3395	536.133	81.9242	536.133	81.5302	536.133	82.1228
555.176	88.6628	555.176	88.5828	555.176	87.9027	555.176	87.7169	555.176	86.2943	555.176	86.1777	555.176	83.9313	555.176	84.1574	555.176	81.2865	555.176	81.928	555.176	79.5374	555.176	79.7758	555.176	79.0722	555.176	77.8917	555.176	78.4793	555.176	76.3553	555.176	76.5209	555.176	75.3168	555.176	72.2977	555.176	75.0568	555.176	66.0839	555.176	75.5163	555.176	67.4062	555.176	76.1988	555.176	69.6226	555.176	76.8441	555.176	70.2077	555.176	77.6733	555.176	71.7571	555.176	78.8329	555.176	74.3627	555.176	79.907	555.176	76.7747	555.176	80.3643	555.176	78.6981	555.176	79.9562
574.219	89.3455	574.219	88.9808	574.219	88.8662	574.219	87.8165	574.219	87.4958	574.219	85.9748	574.219	85.078	574.219	83.7232	574.219	81.2579	574.219	81.4756	574.219	76.3159	574.219	79.6286	574.219	75.5931	574.219	78.3298	574.219	77.2364	574.219	77.4234	574.219	76.5046	574.219	76.7171	574.219	72.734	574.219	76.3792	574.219	66.2312	574.219	76.7291	574.219	66.1074	574.219	77.4176	574.219	69.6431	574.219	77.6795	574.219	73.0096	574.219	77.2637	574.219	75.9525	574.219	77.4823	574.219	79.4648	574.219	79.981	574.219	82.6754	574.219	82.8125	574.219	84.3919	574.219	84.4026
594.727	88.2948	594.727	87.9295	594.727	88.114	594.727	87.059	594.727	87.3465	594.727	85.7499	594.727	85.9551	594.727	84.111	594.727	83.9831	594.727	82.2857	594.727	81.7398	594.727	80.4589	594.727	79.8827	594.727	78.9004	594.727	78.6874	594.727	77.8657	594.727	77.448	594.727	77.2614	594.727	75.3611	594.727	76.6759	594.727	72.7393	594.727	75.9181	594.727	73.1539	594.727	75.6124	594.727	75.9216	594.727	76.8217	594.727	77.4495	594.727	78.911	594.727	77.2146	594.727	80.5534	594.727	75.8364	594.727	81.2147	594.727	75.6282	594.727	80.828	594.727	77.5145	594.727	79.5175
615.234	88.2942	615.234	88.1409	615.234	87.7801	615.234	87.4215	615.234	86.5243	615.234	86.2222	615.234	84.5894	615.234	84.6198	615.234	82.3907	615.234	82.7172	615.234	80.7642	615.234	80.6998	615.234	80.0327	615.234	78.93	615.234	79.4229	615.234	77.9231	615.234	78.1705	615.234	77.7994	615.234	76.1412	615.234	78.0222	615.234	74.7228	615.234	78.0626	615.234	76.1643	615.234	77.745	615.234	78.3836	615.234	77.3076	615.234	79.3472	615.234	77.52	615.234	78.5707	615.234	78.7064	615.234	76.0052	615.234	79.82	615.234	73.1171	615.234	79.8209	615.234	74.9511	615.234	78.2004
637.207	89.0939	637.207	88.8762	637.207	88.2018	637.207	87.6847	637.207	86.1736	637.207	85.7451	637.207	83.3542	637.207	83.4192	637.207	81.232	637.207	81.1867	637.207	81.2246	637.207	79.3886	637.207	81.7365	637.207	77.9467	637.207	81.2859	637.207	76.5231	637.207	79.4106	637.207	75.0583	637.207	76.1972	637.207	74.4436	637.207	73.3907	637.207	75.496	637.207	73.2957	637.207	76.9388	637.207	74.4461	637.207	77.5287	637.207	75.1653	637.207	77.2051	637.207	74.2896	637.207	77.2643	637.207	74.0618	637.207	78.5922	637.207	77.1898	637.207	79.775	637.207	79.3945	637.207	80.0763
659.18	87.8719	659.18	87.7421	659.18	87.1712	659.18	86.902	659.18	85.6023	659.18	85.5776	659.18	83.1734	659.18	84.0473	659.18	80.1874	659.18	82.5106	659.18	78.416	659.18	81.0174	659.18	79.0712	659.18	79.5721	659.18	79.6477	659.18	78.2485	659.18	78.7356	659.18	77.0672	659.18	76.1493	659.18	75.8106	659.18	73.1405	659.18	74.4319	659.18	72.5149	659.18	73.8847	659.18	72.2556	659.18	74.6834	659.18	70.6939	659.18	75.3238	659.18	70.1495	659.18	75.0456	659.18	71.4143	659.18	74.7552	659.18	72.7771	659.18	75.2586	659.18	74.3395	659.18	75.3727
682.617	88.172	682.617	87.9033	682.617	87.7503	682.617	87.0689	682.617	86.619	682.617	85.8285	682.617	85.0061	682.617	84.3431	682.617	83.4663	682.617	82.7335	682.617	82.3971	682.617	81.0847	682.617	81.3734	682.617	79.5465	682.617	79.6562	682.617	78.2782	682.617	77.0693	682.617	77.192	682.617	75.3334	682.617	76.0576	682.617	76.1616	682.617	75.0141	682.617	77.1064	682.617	74.9336	682.617	76.9439	682.617	76.1085	682.617	76.1416	682.617	77.2938	682.617	76.1203	682.617	77.8837	682.617	77.6384	682.617	78.8276	682.617	80.0652	682.617	80.6686	682.617	81.8217	682.617	82.0002
707.52	87.5603	707.52	87.7399	707.52	86.4643	707.52	87.0775	707.52	84.4712	707.52	85.7338	707.52	81.9893	707.52	83.9789	707.52	80.5951	707.52	82.0939	707.52	81.2928	707.52	80.1939	707.52	82.3348	707.52	78.3078	707.52	82.562	707.52	76.6968	707.52	81.6599	707.52	75.736	707.52	79.3516	707.52	75.2521	707.52	75.0688	707.52	74.9808	707.52	68.9453	707.52	75.5126	707.52	71.0607	707.52	77.0501	707.52	74.8451	707.52	78.3988	707.52	76.1508	707.52	78.7344	707.52	75.3072	707.52	78.2174	707.52	73.3701	707.52	77.5564	707.52	74.365	707.52	76.5464
732.422	87.6352	732.422	87.9347	732.422	86.5766	732.422	87.4607	732.422	84.9234	732.422	86.3011	732.422	83.0356	732.422	84.6306	732.422	81.4043	732.422	82.7028	732.422	80.3635	732.422	80.7942	732.422	79.82	732.422	79.1434	732.422	79.4292	732.422	77.9943	732.422	78.9062	732.422	77.4035	732.422	78.0557	732.422	76.7813	732.422	76.7816	732.422	75.0479	732.422	75.4488	732.422	71.3868	732.422	74.898	732.422	72.6225	732.422	75.2631	732.422	77.6977	732.422	76.0159	732.422	79.8595	732.422	76.4181	732.422	79.2738	732.422	75.8949	732.422	76.5772	732.422	74.7596	732.422	74.3542
757.324	86.833	757.324	87.2146	757.324	85.6389	757.324	86.8381	757.324	83.818	757.324	85.8975	757.324	82.0144	757.324	84.6267	757.324	81.0527	757.324	83.1172	757.324	80.6589	757.324	81.3532	757.324	79.9146	757.324	79.5554	757.324	78.837	757.324	78.3457	757.324	78.4776	757.324	78.0705	757.324	78.7789	757.324	78.1668	757.324	78.4892	757.324	77.9061	757.324	77.5423	757.324	76.8647	757.324	76.9222	757.324	74.9128	757.324	75.9478	757.324	73.4433	757.324	73.2305	757.324	75.5291	757.324	70.1835	757.324	78.2278	757.324	68.7852	757.324	79.0495	757.324	72.8668	757.324	77.3937
785.156	86.8008	785.156	87.5977	785.156	85.7642	785.156	87.5926	785.156	85.467	785.156	86.7261	785.156	85.0152	785.156	85.077	785.156	82.9739	785.156	83.1836	785.156	79.3033	785.156	81.6369	785.156	78.3515	785.156	80.2169	785.156	81.0174	785.156	79.0263	785.156	82.1363	785.156	78.4761	785.156	81.1457	785.156	77.5275	785.156	78.274	785.156	74.7568	785.156	73.1268	785.156	70.2285	785.156	56.1807	785.156	71.8556	785.156	72.0654	785.156	75.7959	785.156	77.3486	785.156	78.2177	785.156	77.9177	785.156	79.5871	785.156	76.2459	785.156	79.593	785.156	75.8846	785.156	77.9691
811.523	85.0227	811.523	86.2422	811.523	85.163	811.523	87.8867	811.523	85.3111	811.523	88.4805	811.523	84.2721	811.523	87.6501	811.523	80.5468	811.523	85.7945	811.523	71.7461	811.523	83.9424	811.523	82.2826	811.523	83.1008	811.523	87.7311	811.523	83.5541	811.523	90.3015	811.523	84.762	811.523	91.1877	811.523	85.9029	811.523	90.6401	811.523	86.4069	811.523	88.703	811.523	85.7121	811.523	85.5718	811.523	82.6461	811.523	82.5613	811.523	71.7199	811.523	81.931	811.523	76.7776	811.523	80.2797	811.523	82.5324	811.523	73.1869	811.523	81.9018	811.523	59.3675	811.523	76.1918
840.82	89.2176	840.82	88.253	840.82	87.3461	840.82	84.5058	840.82	82.1038	840.82	82.1854	840.82	78.8637	840.82	85.9187	840.82	84.097	840.82	88.3471	840.82	86.7833	840.82	89.036	840.82	87.4013	840.82	88.71	840.82	86.9348	840.82	88.1605	840.82	87.095	840.82	87.5903	840.82	88.2562	840.82	86.4177	840.82	88.6123	840.82	83.892	840.82	87.2494	840.82	79.0835	840.82	84.0292	840.82	75.9793	840.82	79.0757	840.82	81.2137	840.82	76.0242	840.82	83.1295	840.82	73.376	840.82	80.3353	840.82	74.8169	840.82	72.8768	840.82	80.6496	840.82	79.8591
870.117	86.3935	870.117	87.5588	870.117	85.5555	870.117	88.2222	870.117	85.3487	870.117	87.5547	870.117	84.2726	870.117	84.5003	870.117	81.2682	870.117	77.8555	870.117	78.1341	870.117	71.3273	870.117	83.2725	870.117	74.0745	870.117	87.4767	870.117	73.8237	870.117	89.328	870.117	70.2807	870.117	89.2808	870.117	71.0589	870.117	87.2745	870.117	76.8267	870.117	83.4059	870.117	79.6451	870.117	79.7188	870.117	80.3105	870.117	79.1545	870.117	79.4152	870.117	76.6764	870.117	76.394	870.117	74.7781	870.117	74.3964	870.117	76.3131	870.117	77.7313	870.117	74.0539	870.117	76.857
900.879	88.201	900.879	86.8789	900.879	87.0107	900.879	84.5735	900.879	82.2958	900.879	86.0484	900.879	71.5215	900.879	87.9429	900.879	81.4564	900.879	87.8876	900.879	86.2378	900.879	86.3772	900.879	87.3591	900.879	84.208	900.879	85.7376	900.879	83.0849	900.879	83.6526	900.879	83.75	900.879	84.8951	900.879	84.4573	900.879	85.288	900.879	84.3396	900.879	82.9498	900.879	83.2513	900.879	78.4735	900.879	81.0356	900.879	74.2912	900.879	77.2506	900.879	68.491	900.879	74.2756	900.879	75.471	900.879	77.0096	900.879	79.6055	900.879	76.7462	900.879	78.925	900.879	75.8691
933.105	88.5956	933.105	89.136	933.105	85.3461	933.105	87.4526	933.105	82.0411	933.105	85.4294	933.105	82.8242	933.105	85.9279	933.105	84.434	933.105	87.3344	933.105	84.3379	933.105	87.327	933.105	80.8754	933.105	86.5117	933.105	73.8915	933.105	86.5713	933.105	83.151	933.105	87.4722	933.105	88.0459	933.105	88.0305	933.105	89.228	933.105	87.4867	933.105	87.227	933.105	84.813	933.105	82.1763	933.105	77.4483	933.105	76.1803	933.105	79.0882	933.105	73.7406	933.105	83.0986	933.105	74.5851	933.105	80.3494	933.105	73.7883	933.105	66.2076	933.105	80.8049	933.105	78.9502
965.332	85.0467	965.332	85.2504	965.332	85.0788	965.332	86.9003	965.332	84.2992	965.332	88.015	965.332	82.5717	965.332	87.4733	965.332	81.0811	965.332	85.3515	965.332	84.7064	965.332	82.8183	965.332	86.9289	965.332	81.6628	965.332	86.5706	965.332	81.0333	965.332	84.7655	965.332	79.1865	965.332	83.1796	965.332	74.2337	965.332	81.4997	965.332	65.3343	965.332	77.3642	965.332	78.1307	965.332	67.2121	965.332	82.2686	965.332	65.9529	965.332	82.1835	965.332	76.1487	965.332	78.1742	965.332	77.1789	965.332	77.4104	965.332	73.2564	965.332	78.3469	965.332	69.8268	965.332	70.9995
1,000.49	86.5707	1,000.49	86.4056	1,000.49	85.7508	1,000.49	85.8751	1,000.49	83.7878	1,000.49	86.4349	1,000.49	81.5154	1,000.49	86.7947	1,000.49	84.9573	1,000.49	85.873	1,000.49	87.2981	1,000.49	83.7545	1,000.49	86.1817	1,000.49	80.004	1,000.49	82.1236	1,000.49	71.816	1,000.49	79.9209	1,000.49	68.3379	1,000.49	82.2739	1,000.49	78.5473	1,000.49	83.5601	1,000.49	82.2679	1,000.49	83.862	1,000.49	83.3334	1,000.49	81.3153	1,000.49	81.2039	1,000.49	74.2576	1,000.49	73.3327	1,000.49	71.4358	1,000.49	79.1106	1,000.49	72.5865	1,000.49	79.361	1,000.49	80.0344	1,000.49	68.3712	1,000.49	77.1096	1,000.49	61.0781
1,035.64	87.27	1,035.64	88.5478	1,035.64	84.3393	1,035.64	87.8318	1,035.64	81.6672	1,035.64	86.2053	1,035.64	81.6249	1,035.64	85.1768	1,035.64	82.6388	1,035.64	84.4743	1,035.64	83.3555	1,035.64	83.0299	1,035.64	83.3505	1,035.64	80.311	1,035.64	81.9228	1,035.64	76.9886	1,035.64	79.2153	1,035.64	74.8338	1,035.64	78.716	1,035.64	74.6502	1,035.64	78.1862	1,035.64	76.4745	1,035.64	74.0771	1,035.64	78.402	1,035.64	68.8415	1,035.64	77.4125	1,035.64	69.306	1,035.64	70.0102	1,035.64	74.2547	1,035.64	72.4674	1,035.64	73.7501	1,035.64	75.9655	1,035.64	67.8095	1,035.64	75.7702	1,035.64	76.4345	1,035.64	75.5315
1,072.27	85.1425	1,072.27	85.4613	1,072.27	86.2774	1,072.27	88.0066	1,072.27	86.0545	1,072.27	89.2452	1,072.27	84.2578	1,072.27	87.8361	1,072.27	85.4717	1,072.27	84.4172	1,072.27	87.2006	1,072.27	81.9935	1,072.27	85.9497	1,072.27	81.8546	1,072.27	80.2143	1,072.27	81.9615	1,072.27	60.1674	1,072.27	82.0544	1,072.27	78.2113	1,072.27	81.8931	1,072.27	80.2883	1,072.27	79.8942	1,072.27	79.0788	1,072.27	69.6187	1,072.27	74.3801	1,072.27	77.0313	1,072.27	69.8803	1,072.27	82.5942	1,072.27	76.5382	1,072.27	80.022	1,072.27	79.653	1,072.27	76.3585	1,072.27	73.8736	1,072.27	79.3217	1,072.27	69.407	1,072.27	72.2172
1,108.89	85.8115	1,108.89	86.414	1,108.89	85.5667	1,108.89	87.7904	1,108.89	84.8242	1,108.89	88.5424	1,108.89	83.6613	1,108.89	87.3821	1,108.89	83.9384	1,108.89	84.3483	1,108.89	84.4182	1,108.89	80.9724	1,108.89	83.4202	1,108.89	79.666	1,108.89	82.8528	1,108.89	79.0511	1,108.89	82.8873	1,108.89	78.7094	1,108.89	79.9954	1,108.89	80.0886	1,108.89	78.3175	1,108.89	80.1272	1,108.89	77.2914	1,108.89	73.3858	1,108.89	63.1221	1,108.89	75.3971	1,108.89	71.9063	1,108.89	82.7004	1,108.89	69.2861	1,108.89	80.6429	1,108.89	71.0708	1,108.89	76.4425	1,108.89	76.1593	1,108.89	75.2873	1,108.89	77.3519	1,108.89	72.9547
1,148.44	83.649	1,148.44	86.5736	1,148.44	82.4667	1,148.44	88.0546	1,148.44	83.3844	1,148.44	88.1232	1,148.44	84.9352	1,148.44	87.3678	1,148.44	86.8915	1,148.44	86.4985	1,148.44	87.1231	1,148.44	85.1727	1,148.44	85.5962	1,148.44	82.889	1,148.44	83.2079	1,148.44	79.7057	1,148.44	80.653	1,148.44	75.8344	1,148.44	77.0303	1,148.44	72.8735	1,148.44	71.9364	1,148.44	73.7568	1,148.44	70.0338	1,148.44	74.2804	1,148.44	70.7842	1,148.44	76.243	1,148.44	71.5433	1,148.44	77.5908	1,148.44	75.8998	1,148.44	74.4434	1,148.44	77.0578	1,148.44	73.3017	1,148.44	69.3701	1,148.44	76.3967	1,148.44	70.6103	1,148.44	75.6086
1,189.45	86.9462	1,189.45	87.7668	1,189.45	83.1375	1,189.45	86.4313	1,189.45	78.6181	1,189.45	85.6785	1,189.45	79.1989	1,189.45	86.9965	1,189.45	82.9517	1,189.45	87.5103	1,189.45	84.7527	1,189.45	85.7519	1,189.45	84.6929	1,189.45	82.9927	1,189.45	83.262	1,189.45	79.9458	1,189.45	81.6279	1,189.45	74.624	1,189.45	78.8322	1,189.45	70.5981	1,189.45	72.3276	1,189.45	77.8599	1,189.45	59.7232	1,189.45	80.7071	1,189.45	71.6472	1,189.45	76.5772	1,189.45	77.6267	1,189.45	75.8342	1,189.45	72.1929	1,189.45	80.7836	1,189.45	72.1684	1,189.45	78.5806	1,189.45	72.4175	1,189.45	74.9167	1,189.45	52.6068	1,189.45	63.7391
1,230.47	86.5683	1,230.47	87.7141	1,230.47	83.8965	1,230.47	87.5557	1,230.47	82.3404	1,230.47	87.7818	1,230.47	84.4012	1,230.47	88.0425	1,230.47	86.2806	1,230.47	86.9222	1,230.47	86.6363	1,230.47	84.3461	1,230.47	86.3475	1,230.47	81.4408	1,230.47	85.4954	1,230.47	78.385	1,230.47	81.9307	1,230.47	75.2704	1,230.47	73.0487	1,230.47	76.1311	1,230.47	76.3808	1,230.47	78.2098	1,230.47	76.85	1,230.47	78.4824	1,230.47	75.2003	1,230.47	74.9715	1,230.47	78.9436	1,230.47	75.6467	1,230.47	80.2872	1,230.47	78.851	1,230.47	77.2542	1,230.47	73.0684	1,230.47	72.4019	1,230.47	55.1225	1,230.47	73.5907	1,230.47	72.5534
1,274.41	87.5689	1,274.41	86.4566	1,274.41	85.4581	1,274.41	86.3127	1,274.41	81.1761	1,274.41	89.1339	1,274.41	82.1401	1,274.41	90.4486	1,274.41	85.5203	1,274.41	88.9507	1,274.41	87.0304	1,274.41	85.9266	1,274.41	85.8475	1,274.41	83.0027	1,274.41	83.4885	1,274.41	80.2788	1,274.41	82.5781	1,274.41	77.5171	1,274.41	77.4342	1,274.41	73.2419	1,274.41	64.9404	1,274.41	51.3584	1,274.41	74.4194	1,274.41	71.4697	1,274.41	68.4077	1,274.41	77.0315	1,274.41	73.3061	1,274.41	80.1625	1,274.41	74.9634	1,274.41	78.9818	1,274.41	71.9533	1,274.41	77.1023	1,274.41	79.7206	1,274.41	75.0112	1,274.41	73.9678	1,274.41	65.6186
1,319.82	86.9041	1,319.82	88.125	1,319.82	85.5493	1,319.82	88.5774	1,319.82	84.8498	1,319.82	88.3478	1,319.82	86.3306	1,319.82	87.8643	1,319.82	87.0938	1,319.82	86.9999	1,319.82	86.7133	1,319.82	85.5967	1,319.82	85.8805	1,319.82	83.1948	1,319.82	84.7028	1,319.82	80.4236	1,319.82	82.5333	1,319.82	78.6229	1,319.82	80.3152	1,319.82	77.1877	1,319.82	80.7906	1,319.82	75.2484	1,319.82	79.6937	1,319.82	75.913	1,319.82	80.7204	1,319.82	78.4159	1,319.82	80.9204	1,319.82	75.514	1,319.82	78.175	1,319.82	76.9402	1,319.82	77.0729	1,319.82	76.0914	1,319.82	78.0658	1,319.82	65.6968	1,319.82	73.1768	1,319.82	59.6503
1,366.7	86.1345	1,366.7	88.3382	1,366.7	84.1904	1,366.7	88.9956	1,366.7	84.0863	1,366.7	88.0688	1,366.7	85.2523	1,366.7	87.409	1,366.7	85.3312	1,366.7	87.4913	1,366.7	83.7251	1,366.7	86.0801	1,366.7	84.1415	1,366.7	82.7687	1,366.7	86.3707	1,366.7	78.6632	1,366.7	84.8268	1,366.7	75.3536	1,366.7	78.9961	1,366.7	74.8459	1,366.7	70.2172	1,366.7	74.6912	1,366.7	67.2558	1,366.7	57.2111	1,366.7	68.4166	1,366.7	77.6064	1,366.7	77.8913	1,366.7	81.8533	1,366.7	80.0851	1,366.7	77.5863	1,366.7	62.3949	1,366.7	76.5508	1,366.7	79.7503	1,366.7	75.2274	1,366.7	73.6122	1,366.7	72.7864
1,413.57	85.7927	1,413.57	87.996	1,413.57	84.3758	1,413.57	88.6373	1,413.57	84.5587	1,413.57	87.7995	1,413.57	85.0371	1,413.57	87.8472	1,413.57	84.6563	1,413.57	87.5018	1,413.57	85.6504	1,413.57	86.1251	1,413.57	86.6966	1,413.57	83.5863	1,413.57	85.0928	1,413.57	78.9352	1,413.57	81.6664	1,413.57	72.6502	1,413.57	80.504	1,413.57	76.9309	1,413.57	75.9148	1,413.57	80.001	1,413.57	76.4963	1,413.57	78.4481	1,413.57	75.2172	1,413.57	72.1465	1,413.57	80.6313	1,413.57	75.2121	1,413.57	80.2339	1,413.57	72.9699	1,413.57	73.3959	1,413.57	74.217	1,413.57	71.9466	1,413.57	70.4299	1,413.57	63.6548	1,413.57	69.2417
1,463.38	86.4164	1,463.38	87.0105	1,463.38	84.1805	1,463.38	88.1008	1,463.38	83.0575	1,463.38	89.0649	1,463.38	86.0141	1,463.38	88.6418	1,463.38	87.7858	1,463.38	86.6018	1,463.38	87.3772	1,463.38	84.0742	1,463.38	85.5979	1,463.38	82.3962	1,463.38	85.521	1,463.38	81.7803	1,463.38	84.9688	1,463.38	80.4576	1,463.38	78.9869	1,463.38	72.4514	1,463.38	78.2828	1,463.38	77.1345	1,463.38	80.5322	1,463.38	83.1795	1,463.38	77.5643	1,463.38	77.9339	1,463.38	79.1424	1,463.38	79.0334	1,463.38	82.4367	1,463.38	83.1946	1,463.38	64.7608	1,463.38	75.6488	1,463.38	77.5475	1,463.38	70.6999	1,463.38	75.4814	1,463.38	75.8888
1,516.11	86.6825	1,516.11	86.9512	1,516.11	84.4437	1,516.11	87.1741	1,516.11	81.7142	1,516.11	88.3354	1,516.11	83.0193	1,516.11	88.69	1,516.11	83.1483	1,516.11	87.3623	1,516.11	82.1629	1,516.11	85.7033	1,516.11	87.236	1,516.11	83.5992	1,516.11	89.0494	1,516.11	78.3873	1,516.11	85.7372	1,516.11	73.6771	1,516.11	79.3933	1,516.11	74.6042	1,516.11	71.8321	1,516.11	71.1866	1,516.11	82.0508	1,516.11	77.3578	1,516.11	74.3883	1,516.11	77.8473	1,516.11	73.9059	1,516.11	74.7907	1,516.11	70.5095	1,516.11	78.4295	1,516.11	78.3221	1,516.11	68.7525	1,516.11	67.5127	1,516.11	74.8257	1,516.11	74.4092	1,516.11	76.716
1,568.85	87.1256	1,568.85	88.1994	1,568.85	85.6198	1,568.85	88.3396	1,568.85	81.9168	1,568.85	87.2135	1,568.85	81.5408	1,568.85	87.4595	1,568.85	84.0011	1,568.85	87.5013	1,568.85	85.4128	1,568.85	84.9202	1,568.85	86.3434	1,568.85	80.8274	1,568.85	87.511	1,568.85	78.7217	1,568.85	85.1093	1,568.85	74.9573	1,568.85	82.0958	1,568.85	67.1509	1,568.85	72.9117	1,568.85	74.7433	1,568.85	77.4892	1,568.85	75.4122	1,568.85	75.3255	1,568.85	76.3316	1,568.85	76.96	1,568.85	77.4316	1,568.85	82.7041	1,568.85	78.338	1,568.85	79.4948	1,568.85	81.882	1,568.85	67.9585	1,568.85	63.8911	1,568.85	77.2299	1,568.85	73.4332
1,624.51	86.63	1,624.51	87.534	1,624.51	83.6098	1,624.51	87.9054	1,624.51	83.0188	1,624.51	88.708	1,624.51	84.7369	1,624.51	88.5585	1,624.51	86.1712	1,624.51	86.772	1,624.51	85.7825	1,624.51	84.0286	1,624.51	85.3117	1,624.51	81.4609	1,624.51	88.7193	1,624.51	79.3051	1,624.51	87.385	1,624.51	72.0661	1,624.51	72.5192	1,624.51	75.6931	1,624.51	79.6146	1,624.51	80.1977	1,624.51	72.158	1,624.51	76.2516	1,624.51	64.8407	1,624.51	73.4106	1,624.51	74.2552	1,624.51	79.0073	1,624.51	69.0077	1,624.51	69.6743	1,624.51	76.9565	1,624.51	61.4206	1,624.51	69.0897	1,624.51	75.9475	1,624.51	68.7782	1,624.51	77.9583
1,681.64	87.2369	1,681.64	87.2153	1,681.64	83.2768	1,681.64	87.3868	1,681.64	78.0651	1,681.64	87.9682	1,681.64	84.6085	1,681.64	87.0051	1,681.64	86.8738	1,681.64	85.7013	1,681.64	85.2847	1,681.64	84.3522	1,681.64	87.1616	1,681.64	82.4825	1,681.64	89.0767	1,681.64	80.5492	1,681.64	86.4247	1,681.64	77.8087	1,681.64	80.4508	1,681.64	77.3369	1,681.64	69.3717	1,681.64	70.1845	1,681.64	72.0544	1,681.64	70.4827	1,681.64	77.6674	1,681.64	65.1589	1,681.64	78.2968	1,681.64	78.1991	1,681.64	79.0277	1,681.64	73.6549	1,681.64	75.9216	1,681.64	77.5853	1,681.64	68.0748	1,681.64	64.652	1,681.64	71.0691	1,681.64	67.1919
1,741.7	84.944	1,741.7	86.501	1,741.7	84.1564	1,741.7	87.1957	1,741.7	83.3574	1,741.7	88.7642	1,741.7	80.6988	1,741.7	88.5356	1,741.7	84.1371	1,741.7	85.5519	1,741.7	87.8401	1,741.7	84.33	1,741.7	89.3383	1,741.7	83.7503	1,741.7	89.5907	1,741.7	80.6747	1,741.7	86.6735	1,741.7	77.7281	1,741.7	76.9394	1,741.7	80.0533	1,741.7	65.8567	1,741.7	81.7981	1,741.7	69.7948	1,741.7	75.5486	1,741.7	76.9617	1,741.7	73.5179	1,741.7	79.6486	1,741.7	77.6414	1,741.7	80.3094	1,741.7	78.5866	1,741.7	73.7675	1,741.7	64.5757	1,741.7	74.7594	1,741.7	72.8213	1,741.7	55.9309	1,741.7	76.1148
1,803.22	86.2534	1,803.22	85.7401	1,803.22	84.0583	1,803.22	86.6233	1,803.22	83.9072	1,803.22	88.7635	1,803.22	81.4492	1,803.22	87.7605	1,803.22	84.4127	1,803.22	86.1448	1,803.22	86.2284	1,803.22	86.0662	1,803.22	87.6427	1,803.22	85.2213	1,803.22	89.2889	1,803.22	81.2395	1,803.22	85.7742	1,803.22	75.5284	1,803.22	75.5682	1,803.22	72.4728	1,803.22	65.8404	1,803.22	72.5832	1,803.22	77.1743	1,803.22	75.5309	1,803.22	68.8152	1,803.22	68.4937	1,803.22	69.5701	1,803.22	75.9631	1,803.22	67.7998	1,803.22	76.8493	1,803.22	67.8608	1,803.22	68.5862	1,803.22	73.27	1,803.22	65.3484	1,803.22	77.1038	1,803.22	72.1455
1,866.21	86.8521	1,866.21	86.8263	1,866.21	84.9918	1,866.21	87.0447	1,866.21	83.5649	1,866.21	87.3604	1,866.21	84.6705	1,866.21	88.0176	1,866.21	86.4163	1,866.21	87.7504	1,866.21	87.3083	1,866.21	84.8916	1,866.21	87.3347	1,866.21	81.1988	1,866.21	87.5557	1,866.21	79.0849	1,866.21	86.2966	1,866.21	75.7428	1,866.21	78.5829	1,866.21	76.7115	1,866.21	78.8032	1,866.21	80.8625	1,866.21	73.1384	1,866.21	67.7045	1,866.21	73.9607	1,866.21	74.8607	1,866.21	72.616	1,866.21	72.8796	1,866.21	71.5435	1,866.21	70.3314	1,866.21	75.7886	1,866.21	66.351	1,866.21	63.4846	1,866.21	74.7189	1,866.21	68.1222	1,866.21	70.0072
1,932.13	85.4692	1,932.13	87.9229	1,932.13	84.1132	1,932.13	87.1202	1,932.13	82.5799	1,932.13	87.2048	1,932.13	84.4012	1,932.13	88.1717	1,932.13	85.9119	1,932.13	86.1072	1,932.13	88.4042	1,932.13	84.6641	1,932.13	86.5237	1,932.13	83.86	1,932.13	86.8571	1,932.13	80.2019	1,932.13	87.0327	1,932.13	78.5979	1,932.13	78.8574	1,932.13	75.6973	1,932.13	67.64	1,932.13	70.0101	1,932.13	72.4394	1,932.13	74.4981	1,932.13	78.1031	1,932.13	72.6501	1,932.13	79.1178	1,932.13	80.1924	1,932.13	81.2518	1,932.13	72.2062	1,932.13	75.0651	1,932.13	75.3842	1,932.13	68.5637	1,932.13	60.6226	1,932.13	75.4662	1,932.13	67.1022
1,999.51	84.8497	1,999.51	86.9454	1,999.51	82.7211	1,999.51	87.8227	1,999.51	82.6225	1,999.51	88.2014	1,999.51	84.2993	1,999.51	87.6921	1,999.51	85.8225	1,999.51	85.3836	1,999.51	87.381	1,999.51	82.2542	1,999.51	87.6606	1,999.51	78.8427	1,999.51	86.902	1,999.51	72.6738	1,999.51	85.9726	1,999.51	69.8752	1,999.51	80.4802	1,999.51	55.4332	1,999.51	75.9638	1,999.51	68.0427	1,999.51	75.5494	1,999.51	67.4118	1,999.51	74.5144	1,999.51	71.2663	1,999.51	71.5252	1,999.51	66.9352	1,999.51	67.6259	1,999.51	70.5519	1,999.51	66.2022	1,999.51	70.2962	1,999.51	67.2771	1,999.51	73.655	1,999.51	65.7226	1,999.51	64.8082
2,069.82	85.2502	2,069.82	86.0132	2,069.82	82.6989	2,069.82	87.3172	2,069.82	80.9736	2,069.82	88.2933	2,069.82	83.75	2,069.82	87.0778	2,069.82	86.004	2,069.82	83.9402	2,069.82	87.6654	2,069.82	80.1228	2,069.82	87.6002	2,069.82	75.7696	2,069.82	87.2018	2,069.82	71.0097	2,069.82	84.8812	2,069.82	69.2658	2,069.82	78.4479	2,069.82	58.9647	2,069.82	72.3031	2,069.82	67.7689	2,069.82	77.5038	2,069.82	66.5326	2,069.82	75.3916	2,069.82	69.7632	2,069.82	68.5774	2,069.82	70.3514	2,069.82	71.2161	2,069.82	73.4627	2,069.82	70.3664	2,069.82	65.8484	2,069.82	64.4867	2,069.82	66.1234	2,069.82	67.3448	2,069.82	70.095
2,143.07	85.6323	2,143.07	86.8839	2,143.07	82.3549	2,143.07	86.8165	2,143.07	80.8876	2,143.07	87.6329	2,143.07	83.3329	2,143.07	86.0466	2,143.07	85.2811	2,143.07	81.3723	2,143.07	87.0515	2,143.07	77.9223	2,143.07	87.4184	2,143.07	74.9046	2,143.07	87.3737	2,143.07	71.1403	2,143.07	85.1913	2,143.07	62.3992	2,143.07	78.4923	2,143.07	67.1924	2,143.07	72.2355	2,143.07	60.9168	2,143.07	75.5009	2,143.07	70.9959	2,143.07	71.7967	2,143.07	60.3249	2,143.07	69.1634	2,143.07	70.0988	2,143.07	73.07	2,143.07	72.508	2,143.07	69.4114	2,143.07	72.6783	2,143.07	55.7769	2,143.07	70.0034	2,143.07	64.9298	2,143.07	63.9032
2,219.24	84.9666	2,219.24	87.0511	2,219.24	83.1991	2,219.24	87.841	2,219.24	81.0524	2,219.24	87.2476	2,219.24	83.3361	2,219.24	84.7793	2,219.24	84.9588	2,219.24	80.9399	2,219.24	87.1444	2,219.24	75.2303	2,219.24	86.6229	2,219.24	69.3475	2,219.24	87.1577	2,219.24	64.9211	2,219.24	85.1541	2,219.24	57.7369	2,219.24	76.5101	2,219.24	65.872	2,219.24	73.6202	2,219.24	66.389	2,219.24	72.4212	2,219.24	56.7236	2,219.24	67.7395	2,219.24	70.6032	2,219.24	72.2623	2,219.24	61.9623	2,219.24	72.4245	2,219.24	69.1032	2,219.24	65.0491	2,219.24	68.9315	2,219.24	62.8525	2,219.24	72.0963	2,219.24	54.4934	2,219.24	72.5855
2,296.88	84.2252	2,296.88	86.6031	2,296.88	81.6431	2,296.88	88.1214	2,296.88	78.3629	2,296.88	86.5323	2,296.88	82.9437	2,296.88	82.1644	2,296.88	85.3605	2,296.88	79.5837	2,296.88	87.0596	2,296.88	73.0282	2,296.88	87.0204	2,296.88	56.9958	2,296.88	87.0155	2,296.88	45.394	2,296.88	85.0812	2,296.88	62.7421	2,296.88	68.5801	2,296.88	60.1159	2,296.88	73.5934	2,296.88	69.2064	2,296.88	75.3471	2,296.88	63.7543	2,296.88	68.474	2,296.88	62.8741	2,296.88	73.7127	2,296.88	60.9508	2,296.88	72.2466	2,296.88	65.2436	2,296.88	60.8581	2,296.88	71.0511	2,296.88	60.8999	2,296.88	67.6284	2,296.88	66.0813	2,296.88	69.7159
2,378.91	85.5599	2,378.91	86.4647	2,378.91	82.2972	2,378.91	87.2193	2,378.91	75.2601	2,378.91	85.3696	2,378.91	81.7431	2,378.91	80.4483	2,378.91	84.8725	2,378.91	74.1074	2,378.91	86.1017	2,378.91	66.3461	2,378.91	86.5276	2,378.91	65.688	2,378.91	87.0438	2,378.91	69.6558	2,378.91	85.8839	2,378.91	68.4104	2,378.91	66.364	2,378.91	69.7103	2,378.91	70.6425	2,378.91	33.0209	2,378.91	71.2722	2,378.91	63.3465	2,378.91	67.9336	2,378.91	54.32	2,378.91	72.403	2,378.91	63.6765	2,378.91	73.8455	2,378.91	61.3654	2,378.91	33.6832	2,378.91	69.5151	2,378.91	59.5855	2,378.91	72.8858	2,378.91	63.6738	2,378.91	61.0094
2,462.4	85.1788	2,462.4	87.1602	2,462.4	81.9969	2,462.4	86.0973	2,462.4	73.502	2,462.4	84.0305	2,462.4	81.7417	2,462.4	79.3836	2,462.4	84.7737	2,462.4	71.4147	2,462.4	86.0018	2,462.4	66.029	2,462.4	85.3896	2,462.4	69.9504	2,462.4	86.2508	2,462.4	71.8157	2,462.4	85.2741	2,462.4	68.9901	2,462.4	75.2519	2,462.4	67.6754	2,462.4	71.186	2,462.4	70.8154	2,462.4	63.0238	2,462.4	66.1815	2,462.4	71.6128	2,462.4	63.5487	2,462.4	68.8048	2,462.4	49.4367	2,462.4	71.2964	2,462.4	56.049	2,462.4	57.4601	2,462.4	57.9625	2,462.4	56.771	2,462.4	73.6049	2,462.4	56.2184	2,462.4	71.2706
2,548.83	84.9554	2,548.83	86.7212	2,548.83	81.3327	2,548.83	86.1576	2,548.83	67.7426	2,548.83	83.0115	2,548.83	81.5551	2,548.83	77.6136	2,548.83	84.8297	2,548.83	67.7683	2,548.83	85.0141	2,548.83	72.5495	2,548.83	86.2272	2,548.83	74.548	2,548.83	86.2313	2,548.83	76.2732	2,548.83	85.4311	2,548.83	76.301	2,548.83	74.8994	2,548.83	72.7633	2,548.83	69.8759	2,548.83	61.2574	2,548.83	71.6523	2,548.83	66.1674	2,548.83	72.2579	2,548.83	59.633	2,548.83	68.2867	2,548.83	56.7172	2,548.83	70.4394	2,548.83	63.0073	2,548.83	65.8728	2,548.83	62.239	2,548.83	61.559	2,548.83	63.0508	2,548.83	57.0373	2,548.83	69.9225
2,639.65	85.937	2,639.65	86.1324	2,639.65	80.639	2,639.65	85.6489	2,639.65	63.8619	2,639.65	83.0884	2,639.65	80.7976	2,639.65	77.032	2,639.65	84.4465	2,639.65	72.8358	2,639.65	84.6669	2,639.65	78.9422	2,639.65	85.7647	2,639.65	78.4174	2,639.65	86.7631	2,639.65	75.7809	2,639.65	86.4096	2,639.65	68.1644	2,639.65	80.4639	2,639.65	68.0587	2,639.65	66.0738	2,639.65	70.189	2,639.65	68.4443	2,639.65	65.1223	2,639.65	70.961	2,639.65	59.1161	2,639.65	70.295	2,639.65	59.6479	2,639.65	72.5359	2,639.65	59.6851	2,639.65	64.0921	2,639.65	70.7396	2,639.65	63.4431	2,639.65	66.1377	2,639.65	66.185	2,639.65	66.8915
2,731.93	85.9932	2,731.93	86.4	2,731.93	81.4267	2,731.93	83.7737	2,731.93	66.9309	2,731.93	81.6943	2,731.93	80.0026	2,731.93	77.3832	2,731.93	84.6017	2,731.93	77.8298	2,731.93	85.0071	2,731.93	79.0586	2,731.93	85.2906	2,731.93	76.9843	2,731.93	86.2194	2,731.93	76.1223	2,731.93	84.094	2,731.93	77.9681	2,731.93	76.7498	2,731.93	72.1736	2,731.93	71.9615	2,731.93	63.353	2,731.93	68.1269	2,731.93	59.0048	2,731.93	66.5526	2,731.93	59.5752	2,731.93	69.9314	2,731.93	63.0425	2,731.93	69.0483	2,731.93	61.055	2,731.93	64.8719	2,731.93	67.0076	2,731.93	64.855	2,731.93	71.0081	2,731.93	64.9824	2,731.93	57.9098
2,828.61	85.7128	2,828.61	85.5283	2,828.61	80.8694	2,828.61	83.4658	2,828.61	73.9542	2,828.61	80.9471	2,828.61	78.1386	2,828.61	78.5593	2,828.61	84.3341	2,828.61	80.4839	2,828.61	85.5821	2,828.61	79.596	2,828.61	84.7165	2,828.61	79.4978	2,828.61	85.0283	2,828.61	77.343	2,828.61	84.3399	2,828.61	68.7593	2,828.61	70.2146	2,828.61	69.8256	2,828.61	71.804	2,828.61	72.2292	2,828.61	73.0989	2,828.61	52.1727	2,828.61	67.111	2,828.61	51.2088	2,828.61	71.3031	2,828.61	60.8577	2,828.61	66.7396	2,828.61	55.2551	2,828.61	65.955	2,828.61	64.1142	2,828.61	69.193	2,828.61	70.8267	2,828.61	41.1563	2,828.61	66.2646
2,928.22	86.0124	2,928.22	85.1335	2,928.22	81.1032	2,928.22	82.7991	2,928.22	75.268	2,928.22	78.7566	2,928.22	78.1924	2,928.22	79.759	2,928.22	83.3642	2,928.22	80.3406	2,928.22	86.0866	2,928.22	80.7826	2,928.22	85.7893	2,928.22	79.4892	2,928.22	83.9576	2,928.22	78.4869	2,928.22	83.8631	2,928.22	79.538	2,928.22	73.0652	2,928.22	75.1951	2,928.22	46.535	2,928.22	67.5701	2,928.22	65.2746	2,928.22	65.3936	2,928.22	64.8489	2,928.22	59.3807	2,928.22	68.3001	2,928.22	65.1164	2,928.22	69.5151	2,928.22	46.1113	2,928.22	62.7208	2,928.22	55.8066	2,928.22	71.2838	2,928.22	70.7907	2,928.22	64.0934	2,928.22	67.3113
3,030.76	86.473	3,030.76	86.074	3,030.76	81.1029	3,030.76	83.1011	3,030.76	77.6204	3,030.76	79.8236	3,030.76	78.3096	3,030.76	80.8477	3,030.76	83.6961	3,030.76	80.598	3,030.76	85.7507	3,030.76	82.3336	3,030.76	85.8994	3,030.76	81.7179	3,030.76	85.4086	3,030.76	78.891	3,030.76	82.2058	3,030.76	71.9055	3,030.76	76.2382	3,030.76	72.9624	3,030.76	69.3412	3,030.76	68.3473	3,030.76	62.0956	3,030.76	57.7955	3,030.76	70.3301	3,030.76	58.4043	3,030.76	69.7814	3,030.76	61.6275	3,030.76	66.7822	3,030.76	49.0858	3,030.76	66.6753	3,030.76	60.4345	3,030.76	69.4233	3,030.76	65.0224	3,030.76	57.4141	3,030.76	69.3724
3,137.7	86.1486	3,137.7	85.7834	3,137.7	81.0318	3,137.7	81.393	3,137.7	78.4129	3,137.7	79.6335	3,137.7	79.7344	3,137.7	80.9652	3,137.7	83.8476	3,137.7	82.8037	3,137.7	85.2764	3,137.7	82.7999	3,137.7	86.2623	3,137.7	80.6252	3,137.7	84.8798	3,137.7	80.0918	3,137.7	82.5388	3,137.7	79.3966	3,137.7	69.6503	3,137.7	75.5956	3,137.7	58.4227	3,137.7	63.8134	3,137.7	65.043	3,137.7	65.0808	3,137.7	65.7961	3,137.7	64.0414	3,137.7	68.6167	3,137.7	63.6032	3,137.7	60.7843	3,137.7	56.0698	3,137.7	59.322	3,137.7	62.5121	3,137.7	70.4568	3,137.7	66.3481	3,137.7	62.4175	3,137.7	66.7319
3,249.02	86.3707	3,249.02	86.2553	3,249.02	82.4556	3,249.02	82.6113	3,249.02	78.4478	3,249.02	80.4579	3,249.02	82.5703	3,249.02	80.2554	3,249.02	83.2507	3,249.02	83.7866	3,249.02	85.2062	3,249.02	84.1944	3,249.02	85.0676	3,249.02	82.6387	3,249.02	84.1488	3,249.02	78.9164	3,249.02	84.8542	3,249.02	67.2552	3,249.02	77.8995	3,249.02	75.0362	3,249.02	67.4172	3,249.02	72.6745	3,249.02	64.9222	3,249.02	56.5743	3,249.02	67.1003	3,249.02	58.6928	3,249.02	66.9305	3,249.02	64.4699	3,249.02	63.2553	3,249.02	56.2587	3,249.02	68.5617	3,249.02	63.4008	3,249.02	67.1229	3,249.02	64.0655	3,249.02	61.6004	3,249.02	69.2199
3,363.28	86.2679	3,363.28	87.4792	3,363.28	82.862	3,363.28	84.2341	3,363.28	81.1661	3,363.28	80.8813	3,363.28	84.1282	3,363.28	81.2363	3,363.28	83.7184	3,363.28	83.8779	3,363.28	84.7506	3,363.28	84.1795	3,363.28	84.1355	3,363.28	81.5331	3,363.28	84.6123	3,363.28	81.6004	3,363.28	83.955	3,363.28	81.1501	3,363.28	80.7389	3,363.28	77.3532	3,363.28	60.5267	3,363.28	55.4616	3,363.28	47.6158	3,363.28	66.0963	3,363.28	69.7118	3,363.28	63.8843	3,363.28	70.4382	3,363.28	66.2746	3,363.28	63.2418	3,363.28	57.6544	3,363.28	70.5394	3,363.28	65.2747	3,363.28	67.6422	3,363.28	66.1521	3,363.28	66.8619	3,363.28	66.3942
3,481.93	85.8657	3,481.93	87.6349	3,481.93	83.4697	3,481.93	84.3979	3,481.93	82.8154	3,481.93	80.1674	3,481.93	85.2472	3,481.93	81.9065	3,481.93	83.0459	3,481.93	83.8661	3,481.93	83.2124	3,481.93	84.8468	3,481.93	83.5776	3,481.93	84.0409	3,481.93	84.7736	3,481.93	79.6433	3,481.93	82.7645	3,481.93	79.0137	3,481.93	77.724	3,481.93	67.6104	3,481.93	58.2535	3,481.93	75.3866	3,481.93	70.1449	3,481.93	53.1306	3,481.93	66.3838	3,481.93	51.8309	3,481.93	67.05	3,481.93	61.9105	3,481.93	66.6654	3,481.93	61.7687	3,481.93	66.1234	3,481.93	63.8803	3,481.93	66.1926	3,481.93	61.6398	3,481.93	66.8849	3,481.93	70.4353
3,604.98	85.8878	3,604.98	88.2823	3,604.98	84.0413	3,604.98	84.94	3,604.98	84.006	3,604.98	79.8777	3,604.98	86.3772	3,604.98	82.119	3,604.98	82.9995	3,604.98	84.2087	3,604.98	80.9699	3,604.98	85.1648	3,604.98	83.1104	3,604.98	84.1619	3,604.98	85.6963	3,604.98	82.5554	3,604.98	84.7594	3,604.98	74.3795	3,604.98	75.0591	3,604.98	78.9211	3,604.98	63.7725	3,604.98	73.2078	3,604.98	66.9493	3,604.98	61.5141	3,604.98	67.5813	3,604.98	61.9856	3,604.98	60.8434	3,604.98	60.7754	3,604.98	68.3315	3,604.98	60.8136	3,604.98	72.1935	3,604.98	68.4093	3,604.98	62.769	3,604.98	64.8392	3,604.98	69.4441	3,604.98	66.0516
3,732.42	86.3757	3,732.42	89.19	3,732.42	85.2051	3,732.42	85.9295	3,732.42	85.4349	3,732.42	81.6044	3,732.42	86.3144	3,732.42	82.8904	3,732.42	83.0452	3,732.42	85.3865	3,732.42	81.2323	3,732.42	85.6147	3,732.42	80.8036	3,732.42	83.03	3,732.42	84.7522	3,732.42	79.1606	3,732.42	85.7897	3,732.42	81.1802	3,732.42	76.1182	3,732.42	72.8841	3,732.42	63.9566	3,732.42	65.9485	3,732.42	67.775	3,732.42	61.5634	3,732.42	66.3848	3,732.42	64.7218	3,732.42	66.6433	3,732.42	58.8838	3,732.42	66.8663	3,732.42	47.1536	3,732.42	72.9875	3,732.42	64.8593	3,732.42	67.5071	3,732.42	65.7474	3,732.42	70.2247	3,732.42	69.8607
3,864.26	86.2324	3,864.26	88.7087	3,864.26	84.7246	3,864.26	85.7921	3,864.26	86.7042	3,864.26	83.0175	3,864.26	86.8169	3,864.26	83.0968	3,864.26	83.5769	3,864.26	85.8922	3,864.26	80.4473	3,864.26	84.4695	3,864.26	83.0833	3,864.26	83.4949	3,864.26	83.1473	3,864.26	78.3907	3,864.26	86.8528	3,864.26	74.4973	3,864.26	75.3438	3,864.26	65.2812	3,864.26	68.5269	3,864.26	74.4165	3,864.26	69.5664	3,864.26	66.9399	3,864.26	65.3591	3,864.26	64.4269	3,864.26	65.7833	3,864.26	63.4324	3,864.26	66.885	3,864.26	62.3177	3,864.26	73.2001	3,864.26	66.3846	3,864.26	66.5827	3,864.26	67.7606	3,864.26	69.6952	3,864.26	67.0191
4,000.49	86.9287	4,000.49	89.1811	4,000.49	85.198	4,000.49	86.5699	4,000.49	87.0782	4,000.49	83.3602	4,000.49	87.3577	4,000.49	84.163	4,000.49	84.0154	4,000.49	85.6375	4,000.49	80.4709	4,000.49	84.0841	4,000.49	83.7079	4,000.49	82.0036	4,000.49	86.569	4,000.49	80.2814	4,000.49	86.3369	4,000.49	74.2444	4,000.49	74.853	4,000.49	72.7104	4,000.49	62.9649	4,000.49	71.6989	4,000.49	66.3835	4,000.49	68.6417	4,000.49	66.355	4,000.49	64.2992	4,000.49	65.8092	4,000.49	64.2886	4,000.49	60.4302	4,000.49	64.7337	4,000.49	70.1601	4,000.49	62.4356	4,000.49	65.814	4,000.49	68.5424	4,000.49	69.8137	4,000.49	63.6275
4,141.11	86.7672	4,141.11	88.7716	4,141.11	85.5523	4,141.11	87.0242	4,141.11	87.7885	4,141.11	84.6979	4,141.11	87.4441	4,141.11	84.7531	4,141.11	84.71	4,141.11	85.3417	4,141.11	81.2224	4,141.11	83.9252	4,141.11	81.7997	4,141.11	81.8419	4,141.11	84.9314	4,141.11	78.9249	4,141.11	85.1403	4,141.11	77.2087	4,141.11	72.3683	4,141.11	71.9258	4,141.11	62.6373	4,141.11	66.9326	4,141.11	54.796	4,141.11	69.722	4,141.11	65.9768	4,141.11	60.5573	4,141.11	63.1798	4,141.11	60.6223	4,141.11	65.6406	4,141.11	60.9546	4,141.11	68.1253	4,141.11	63.1034	4,141.11	65.0141	4,141.11	62.2023	4,141.11	68.8596	4,141.11	64.2772
4,287.6	86.8577	4,287.6	88.7057	4,287.6	85.4575	4,287.6	87.0656	4,287.6	88.0059	4,287.6	85.4963	4,287.6	87.6613	4,287.6	84.7434	4,287.6	85.5657	4,287.6	85.0569	4,287.6	81.6632	4,287.6	83.4679	4,287.6	83.2979	4,287.6	81.5735	4,287.6	79.2203	4,287.6	78.3917	4,287.6	79.6302	4,287.6	75.141	4,287.6	79.5617	4,287.6	71.0159	4,287.6	66.6222	4,287.6	70.5321	4,287.6	56.543	4,287.6	68.8632	4,287.6	67.1073	4,287.6	48.6552	4,287.6	64.1062	4,287.6	55.2746	4,287.6	68.1977	4,287.6	47.6491	4,287.6	67.6291	4,287.6	62.4967	4,287.6	66.5638	4,287.6	58.8624	4,287.6	66.1027	4,287.6	68.1786
4,438.48	87.4456	4,438.48	88.8151	4,438.48	85.8751	4,438.48	87.4021	4,438.48	87.8393	4,438.48	86.3616	4,438.48	88.0528	4,438.48	84.6734	4,438.48	86.5526	4,438.48	84.9999	4,438.48	80.9107	4,438.48	83.3735	4,438.48	83.2586	4,438.48	82.7226	4,438.48	82.8193	4,438.48	80.4594	4,438.48	79.2418	4,438.48	75.6929	4,438.48	80.0704	4,438.48	74.1929	4,438.48	69.026	4,438.48	66.2361	4,438.48	47.311	4,438.48	65.1195	4,438.48	64.1695	4,438.48	61.56	4,438.48	64.6938	4,438.48	59.1576	4,438.48	65.5071	4,438.48	63.828	4,438.48	68.8438	4,438.48	63.7826	4,438.48	65.087	4,438.48	62.1383	4,438.48	64.2268	4,438.48	67.9373
4,595.21	87.2436	4,595.21	88.3154	4,595.21	85.6327	4,595.21	87.4521	4,595.21	87.766	4,595.21	86.8879	4,595.21	88.5529	4,595.21	84.8133	4,595.21	86.7331	4,595.21	84.4121	4,595.21	81.4335	4,595.21	84.7074	4,595.21	82.1157	4,595.21	82.9037	4,595.21	79.8084	4,595.21	80.4706	4,595.21	81.8769	4,595.21	74.7296	4,595.21	80.1942	4,595.21	75.8867	4,595.21	62.2323	4,595.21	62.3876	4,595.21	66.1994	4,595.21	71.0165	4,595.21	62.2413	4,595.21	61.8085	4,595.21	59.7611	4,595.21	65.9065	4,595.21	67.9771	4,595.21	64.0973	4,595.21	66.5694	4,595.21	60.7648	4,595.21	64.3885	4,595.21	59.779	4,595.21	66.5033	4,595.21	59.0219
4,756.35	88.1314	4,756.35	88.019	4,756.35	85.6232	4,756.35	87.8675	4,756.35	86.957	4,756.35	86.7365	4,756.35	88.8124	4,756.35	84.884	4,756.35	85.9438	4,756.35	84.7106	4,756.35	82.1057	4,756.35	84.7176	4,756.35	80.9295	4,756.35	82.6039	4,756.35	83.188	4,756.35	79.1868	4,756.35	83.6163	4,756.35	76.1263	4,756.35	77.9297	4,756.35	71.315	4,756.35	61.9142	4,756.35	65.9503	4,756.35	66.5547	4,756.35	63.1855	4,756.35	52.4982	4,756.35	62.8643	4,756.35	63.5568	4,756.35	54.0831	4,756.35	68.2398	4,756.35	65.5238	4,756.35	66.374	4,756.35	63.8253	4,756.35	61.3534	4,756.35	52.4652	4,756.35	57.8409	4,756.35	64.5785
4,924.8	87.2779	4,924.8	87.5531	4,924.8	85.3207	4,924.8	87.3952	4,924.8	86.9469	4,924.8	86.4915	4,924.8	88.001	4,924.8	84.7691	4,924.8	86.1436	4,924.8	84.6756	4,924.8	81.7075	4,924.8	84.1073	4,924.8	80.0418	4,924.8	82.1009	4,924.8	84.2206	4,924.8	78.0084	4,924.8	86.1692	4,924.8	74.0577	4,924.8	76.9957	4,924.8	72.7119	4,924.8	65.9894	4,924.8	60.2578	4,924.8	51.29	4,924.8	64.5574	4,924.8	64.7375	4,924.8	66.7055	4,924.8	66.1789	4,924.8	59.6569	4,924.8	65.8815	4,924.8	67.4899	4,924.8	64.6113	4,924.8	65.6135	4,924.8	60.8639	4,924.8	61.7088	4,924.8	65.8776	4,924.8	64.5701
5,097.66	87.576	5,097.66	87.6542	5,097.66	85.1231	5,097.66	86.7261	5,097.66	86.374	5,097.66	86.5344	5,097.66	88.0566	5,097.66	85.4802	5,097.66	85.5726	5,097.66	84.7235	5,097.66	82.7593	5,097.66	83.4515	5,097.66	79.0981	5,097.66	80.9479	5,097.66	81.3748	5,097.66	77.6712	5,097.66	84.465	5,097.66	73.121	5,097.66	76.6699	5,097.66	71.6654	5,097.66	64.69	5,097.66	64.2162	5,097.66	59.8176	5,097.66	69.6646	5,097.66	64.0541	5,097.66	62.441	5,097.66	64.9305	5,097.66	63.5222	5,097.66	66.8289	5,097.66	62.6096	5,097.66	66.1389	5,097.66	62.9845	5,097.66	61.5146	5,097.66	56.2691	5,097.66	55.5783	5,097.66	63.0043
5,277.83	86.9033	5,277.83	86.9239	5,277.83	84.8412	5,277.83	86.5931	5,277.83	86.2893	5,277.83	86.2437	5,277.83	87.6738	5,277.83	85.6909	5,277.83	85.7243	5,277.83	84.2592	5,277.83	83.1893	5,277.83	83.1991	5,277.83	80.5967	5,277.83	81.8393	5,277.83	81.6877	5,277.83	78.3425	5,277.83	84.4761	5,277.83	73.7841	5,277.83	75.9778	5,277.83	73.5222	5,277.83	53.9223	5,277.83	54.3479	5,277.83	59.041	5,277.83	67.3473	5,277.83	59.2671	5,277.83	65.2128	5,277.83	63.5859	5,277.83	62.142	5,277.83	59.6443	5,277.83	57.1325	5,277.83	61.7431	5,277.83	56.3646	5,277.83	63.055	5,277.83	63.8741	5,277.83	62.8753	5,277.83	63.0949
5,463.87	86.906	5,463.87	87.4383	5,463.87	84.7099	5,463.87	85.7409	5,463.87	86.2039	5,463.87	86.3273	5,463.87	86.8795	5,463.87	85.804	5,463.87	85.8842	5,463.87	83.604	5,463.87	83.8902	5,463.87	83.4561	5,463.87	80.017	5,463.87	81.8642	5,463.87	80.2778	5,463.87	77.5721	5,463.87	82.0548	5,463.87	74.1244	5,463.87	70.6268	5,463.87	69.3735	5,463.87	55.692	5,463.87	66.3044	5,463.87	52.91	5,463.87	62.6761	5,463.87	63.8954	5,463.87	65.6596	5,463.87	62.4971	5,463.87	58.3825	5,463.87	62.6936	5,463.87	64.3131	5,463.87	65.8296	5,463.87	52.7773	5,463.87	63.8236	5,463.87	58.5224	5,463.87	59.0377	5,463.87	62.3375
5,657.23	86.8268	5,657.23	86.8296	5,657.23	85.2722	5,657.23	85.1992	5,657.23	85.5595	5,657.23	86.4744	5,657.23	86.0149	5,657.23	84.503	5,657.23	86.0388	5,657.23	83.2938	5,657.23	84.5365	5,657.23	82.9506	5,657.23	79.2994	5,657.23	81.6941	5,657.23	78.7816	5,657.23	77.3475	5,657.23	80.4129	5,657.23	74.3286	5,657.23	77.3746	5,657.23	70.3388	5,657.23	64.3941	5,657.23	65.3778	5,657.23	58.7262	5,657.23	63.6359	5,657.23	58.9311	5,657.23	44.6722	5,657.23	64.4437	5,657.23	64.5472	5,657.23	62.3107	5,657.23	62.2319	5,657.23	65.6818	5,657.23	58.0319	5,657.23	65.882	5,657.23	61.3273	5,657.23	57.0655	5,657.23	61.0679
5,856.45	86.8672	5,856.45	87.1893	5,856.45	85.1535	5,856.45	84.8532	5,856.45	84.9241	5,856.45	86.647	5,856.45	85.3956	5,856.45	83.7282	5,856.45	86.2461	5,856.45	83.5262	5,856.45	84.2857	5,856.45	83.1711	5,856.45	79.2947	5,856.45	81.5318	5,856.45	78.5052	5,856.45	78.2499	5,856.45	80.0471	5,856.45	74.38	5,856.45	76.188	5,856.45	69.5147	5,856.45	64.6993	5,856.45	64.6126	5,856.45	65.0047	5,856.45	56.4831	5,856.45	62.7085	5,856.45	63.9617	5,856.45	60.2185	5,856.45	46.3336	5,856.45	63.2312	5,856.45	57.0499	5,856.45	67.091	5,856.45	60.9904	5,856.45	64.9853	5,856.45	52.9018	5,856.45	56.5637	5,856.45	60.5673
6,062.99	86.1672	6,062.99	86.5358	6,062.99	85.7563	6,062.99	84.8416	6,062.99	84.8809	6,062.99	86.0685	6,062.99	84.2085	6,062.99	83.7727	6,062.99	86.5562	6,062.99	83.0261	6,062.99	83.7831	6,062.99	83.3253	6,062.99	79.8443	6,062.99	81.3319	6,062.99	77.7447	6,062.99	76.9278	6,062.99	76.8062	6,062.99	74.0762	6,062.99	71.6635	6,062.99	68.1736	6,062.99	62.0196	6,062.99	68.1058	6,062.99	64.0424	6,062.99	62.1281	6,062.99	58.7972	6,062.99	65.4669	6,062.99	61.6519	6,062.99	55.7645	6,062.99	63.8081	6,062.99	59.8248	6,062.99	62.124	6,062.99	59.1505	6,062.99	62.5589	6,062.99	56.3418	6,062.99	58.5284	6,062.99	58.8899
6,276.86	86.8302	6,276.86	86.6809	6,276.86	85.7596	6,276.86	85.6202	6,276.86	85.6832	6,276.86	84.7403	6,276.86	84.0518	6,276.86	83.7423	6,276.86	85.7701	6,276.86	82.4802	6,276.86	84.0351	6,276.86	83.8558	6,276.86	79.469	6,276.86	81.4299	6,276.86	79.5689	6,276.86	77.8269	6,276.86	75.4869	6,276.86	72.0323	6,276.86	76.9413	6,276.86	70.2643	6,276.86	56.4155	6,276.86	65.0084	6,276.86	53.7411	6,276.86	62.0737	6,276.86	63.4733	6,276.86	62.5529	6,276.86	62.5051	6,276.86	50.3226	6,276.86	62.4067	6,276.86	66.5651	6,276.86	61.4205	6,276.86	45.6397	6,276.86	63.3317	6,276.86	51.4259	6,276.86	57.354	6,276.86	60.8524
6,498.05	87.3077	6,498.05	86.3398	6,498.05	84.9993	6,498.05	85.8581	6,498.05	86.539	6,498.05	83.4837	6,498.05	84.3356	6,498.05	84.0014	6,498.05	85.3088	6,498.05	83.0049	6,498.05	83.4201	6,498.05	82.7902	6,498.05	80.3259	6,498.05	80.5069	6,498.05	78.9344	6,498.05	76.7149	6,498.05	79.1584	6,498.05	69.8869	6,498.05	76.753	6,498.05	68.2242	6,498.05	60.0239	6,498.05	65.2663	6,498.05	55.5946	6,498.05	61.4271	6,498.05	47.4453	6,498.05	63.937	6,498.05	45.18	6,498.05	60.901	6,498.05	58.4471	6,498.05	66.2248	6,498.05	61.8134	6,498.05	52.6784	6,498.05	62.5613	6,498.05	55.4974	6,498.05	53.3654	6,498.05	58.8338
6,726.56	87.1401	6,726.56	86.6992	6,726.56	85.5612	6,726.56	85.5436	6,726.56	86.1406	6,726.56	83.1404	6,726.56	84.364	6,726.56	83.7292	6,726.56	84.8281	6,726.56	82.4467	6,726.56	82.9668	6,726.56	81.9957	6,726.56	80.5006	6,726.56	79.6399	6,726.56	78.8829	6,726.56	75.2671	6,726.56	80.2736	6,726.56	68.9715	6,726.56	74.3026	6,726.56	66.0801	6,726.56	60.2125	6,726.56	64.2697	6,726.56	60.856	6,726.56	50.7416	6,726.56	54.2516	6,726.56	56.0599	6,726.56	50.812	6,726.56	63.5854	6,726.56	61.1746	6,726.56	56.2087	6,726.56	59.7155	6,726.56	56.4376	6,726.56	58.9224	6,726.56	46.4166	6,726.56	52.128	6,726.56	59.1586
6,963.87	87.7953	6,963.87	86.9753	6,963.87	86.4101	6,963.87	85.3464	6,963.87	85.8216	6,963.87	83.8413	6,963.87	83.7214	6,963.87	84.0739	6,963.87	84.2446	6,963.87	81.371	6,963.87	82.7486	6,963.87	81.4508	6,963.87	81.2398	6,963.87	77.7164	6,963.87	76.7892	6,963.87	73.5562	6,963.87	80.1423	6,963.87	68.4454	6,963.87	74.1531	6,963.87	69.5029	6,963.87	62.6038	6,963.87	49.1122	6,963.87	60.0468	6,963.87	57.3273	6,963.87	44.9805	6,963.87	57.4572	6,963.87	43.6335	6,963.87	58.1552	6,963.87	60.8355	6,963.87	68.8519	6,963.87	60.7356	6,963.87	54.377	6,963.87	54.895	6,963.87	56.7702	6,963.87	57.3367	6,963.87	59.9548
7,209.96	87.9005	7,209.96	87.4164	7,209.96	86.7386	7,209.96	85.3882	7,209.96	86.2107	7,209.96	84.6225	7,209.96	82.7813	7,209.96	83.4081	7,209.96	83.9584	7,209.96	80.3764	7,209.96	82.6508	7,209.96	80.3734	7,209.96	80.9941	7,209.96	77.83	7,209.96	77.8795	7,209.96	73.6925	7,209.96	76.1838	7,209.96	70.6289	7,209.96	71.438	7,209.96	65.9594	7,209.96	62.3058	7,209.96	65.9951	7,209.96	55.1625	7,209.96	55.9328	7,209.96	41.8918	7,209.96	60.1505	7,209.96	57.6235	7,209.96	54.2867	7,209.96	59.0703	7,209.96	61.2362	7,209.96	56.5758	7,209.96	62.4375	7,209.96	55.6682	7,209.96	46.8731	7,209.96	55.5005	7,209.96	57.2767
7,464.84	87.8878	7,464.84	87.1293	7,464.84	86.9396	7,464.84	85.6012	7,464.84	86.4776	7,464.84	84.4739	7,464.84	83.7074	7,464.84	83.0013	7,464.84	83.6108	7,464.84	79.6369	7,464.84	82.6833	7,464.84	79.6384	7,464.84	79.6314	7,464.84	77.1024	7,464.84	77.5662	7,464.84	73.1182	7,464.84	66.1207	7,464.84	66.6723	7,464.84	76.042	7,464.84	61.9755	7,464.84	44.5361	7,464.84	60.0659	7,464.84	59.3269	7,464.84	57.9225	7,464.84	49.0581	7,464.84	62.9799	7,464.84	54.3743	7,464.84	56.0882	7,464.84	59.5687	7,464.84	64.6551	7,464.84	58.1792	7,464.84	53.2624	7,464.84	59.1113	7,464.84	58.1909	7,464.84	55.8397	7,464.84	49.2635
7,727.05	88.1066	7,727.05	86.8899	7,727.05	87.3665	7,727.05	86.4181	7,727.05	86.8078	7,727.05	83.9672	7,727.05	85.1624	7,727.05	83.1457	7,727.05	82.5971	7,727.05	79.1532	7,727.05	83.2594	7,727.05	79.2396	7,727.05	77.9037	7,727.05	76.0769	7,727.05	79.4112	7,727.05	71.2507	7,727.05	74.6152	7,727.05	65.2321	7,727.05	76.0312	7,727.05	57.3056	7,727.05	57.6699	7,727.05	65.4571	7,727.05	55.09	7,727.05	56.632	7,727.05	43.0948	7,727.05	63.5765	7,727.05	54.2858	7,727.05	59.7222	7,727.05	54.3122	7,727.05	64.0304	7,727.05	56.1476	7,727.05	59.7373	7,727.05	58.5444	7,727.05	45.2461	7,727.05	56.6636	7,727.05	56.9032
7,999.51	87.7972	7,999.51	86.8386	7,999.51	87.2634	7,999.51	86.4774	7,999.51	86.1706	7,999.51	83.9805	7,999.51	85.1393	7,999.51	83.3279	7,999.51	81.5933	7,999.51	78.0886	7,999.51	82.4193	7,999.51	78.9594	7,999.51	75.5884	7,999.51	76.249	7,999.51	78.5335	7,999.51	73.784	7,999.51	75.5037	7,999.51	67.3541	7,999.51	74.8558	7,999.51	62.8826	7,999.51	52.0156	7,999.51	62.3044	7,999.51	52.8659	7,999.51	57.8844	7,999.51	36.4927	7,999.51	58.4732	7,999.51	50.2117	7,999.51	56.9275	7,999.51	58.5233	7,999.51	59.054	7,999.51	57.3989	7,999.51	52.9091	7,999.51	57.7336	7,999.51	49.6769	7,999.51	54.4868	7,999.51	58.1714
8,282.23	87.4649	8,282.23	86.5146	8,282.23	87.1196	8,282.23	86.411	8,282.23	85.9351	8,282.23	84.0384	8,282.23	84.6434	8,282.23	83.0016	8,282.23	81.6004	8,282.23	78.0595	8,282.23	81.1146	8,282.23	78.3081	8,282.23	76.2844	8,282.23	76.6112	8,282.23	77.2855	8,282.23	73.9977	8,282.23	74.636	8,282.23	67.1326	8,282.23	70.2742	8,282.23	63.7477	8,282.23	38.2744	8,282.23	64.1406	8,282.23	53.7048	8,282.23	50.6537	8,282.23	42.3902	8,282.23	43.8452	8,282.23	49.4068	8,282.23	50.5253	8,282.23	55.9362	8,282.23	60.2621	8,282.23	58.7589	8,282.23	50.4292	8,282.23	57.8399	8,282.23	59.3685	8,282.23	54.259	8,282.23	53.418
8,573.73	86.8906	8,573.73	86.275	8,573.73	86.8308	8,573.73	86.0401	8,573.73	85.5626	8,573.73	84.0173	8,573.73	83.824	8,573.73	82.2149	8,573.73	81.3457	8,573.73	77.802	8,573.73	80.7542	8,573.73	78.0552	8,573.73	76.8583	8,573.73	76.8016	8,573.73	75.21	8,573.73	73.0294	8,573.73	74.4596	8,573.73	65.9259	8,573.73	67.294	8,573.73	62.9186	8,573.73	52.2353	8,573.73	59.9863	8,573.73	48.3512	8,573.73	49.3216	8,573.73	39.3654	8,573.73	60.7649	8,573.73	45.6553	8,573.73	58.7671	8,573.73	54.168	8,573.73	61.9723	8,573.73	57.1421	8,573.73	52.2188	8,573.73	58.644	8,573.73	56.9888	8,573.73	55.7839	8,573.73	56.9514
8,876.95	86.1228	8,876.95	85.7537	8,876.95	86.7176	8,876.95	85.62	8,876.95	85.05	8,876.95	82.9891	8,876.95	82.8595	8,876.95	81.7575	8,876.95	80.4197	8,876.95	76.3889	8,876.95	80.1852	8,876.95	78.2263	8,876.95	76.7917	8,876.95	76.2316	8,876.95	73.7951	8,876.95	72.4261	8,876.95	73.2614	8,876.95	69.0912	8,876.95	71.789	8,876.95	62.7146	8,876.95	54.0432	8,876.95	62.638	8,876.95	50.9337	8,876.95	51.8485	8,876.95	53.5587	8,876.95	54.6955	8,876.95	32.5409	8,876.95	43.3792	8,876.95	44.9261	8,876.95	53.7985	8,876.95	56.3026	8,876.95	56.9441	8,876.95	57.8676	8,876.95	60.5522	8,876.95	56.7789	8,876.95	54.5342
9,188.96	85.328	9,188.96	85.5485	9,188.96	86.5532	9,188.96	84.7041	9,188.96	84.9031	9,188.96	81.9018	9,188.96	82.7527	9,188.96	81.6674	9,188.96	80.9649	9,188.96	75.9998	9,188.96	80.319	9,188.96	78.5458	9,188.96	77.4407	9,188.96	77.6133	9,188.96	74.6326	9,188.96	72.8865	9,188.96	74.2369	9,188.96	68.484	9,188.96	70.3843	9,188.96	61.5516	9,188.96	55.073	9,188.96	59.3192	9,188.96	58.5299	9,188.96	56.8626	9,188.96	56.5473	9,188.96	52.1356	9,188.96	44.1716	9,188.96	58.3486	9,188.96	42.229	9,188.96	58.1567	9,188.96	51.5166	9,188.96	48.8293	9,188.96	54.6483	9,188.96	57.0893	9,188.96	55.727	9,188.96	53.9782
9,514.16	85.6371	9,514.16	86.1003	9,514.16	86.2476	9,514.16	84.6487	9,514.16	85.0961	9,514.16	82.1097	9,514.16	83.7074	9,514.16	80.9168	9,514.16	81.9384	9,514.16	78.5371	9,514.16	80.9212	9,514.16	78.2438	9,514.16	79.1841	9,514.16	77.926	9,514.16	74.5802	9,514.16	70.6573	9,514.16	76.0294	9,514.16	70.284	9,514.16	72.8734	9,514.16	58.3703	9,514.16	54.5818	9,514.16	61.3382	9,514.16	56.8103	9,514.16	56.0675	9,514.16	57.3396	9,514.16	57.7109	9,514.16	38.958	9,514.16	57.811	9,514.16	48.6535	9,514.16	57.1939	9,514.16	52.2296	9,514.16	50.9124	9,514.16	53.3018	9,514.16	56.8073	9,514.16	53.8465	9,514.16	54.4511
9,849.61	86.8198	9,849.61	86.7272	9,849.61	86.2526	9,849.61	86.1098	9,849.61	86.0766	9,849.61	81.8338	9,849.61	84.5419	9,849.61	82.1037	9,849.61	82.4725	9,849.61	79.2754	9,849.61	81.1579	9,849.61	78.5843	9,849.61	80.1602	9,849.61	77.1875	9,849.61	73.8953	9,849.61	72.2467	9,849.61	76.1995	9,849.61	69.4753	9,849.61	70.6394	9,849.61	59.4049	9,849.61	52.724	9,849.61	61.1113	9,849.61	51.1374	9,849.61	58.721	9,849.61	49.0172	9,849.61	54.1504	9,849.61	48.0695	9,849.61	58.9963	9,849.61	44.2455	9,849.61	55.1783	9,849.61	47.7899	9,849.61	54.7872	9,849.61	51.5499	9,849.61	49.1245	9,849.61	52.6438	9,849.61	52.1381
10,196.8	87.9252	10,196.8	87.8419	10,196.8	87.0022	10,196.8	86.7565	10,196.8	86.6585	10,196.8	82.3124	10,196.8	85.682	10,196.8	83.0036	10,196.8	83.0226	10,196.8	79.7441	10,196.8	81.1776	10,196.8	78.356	10,196.8	80.7569	10,196.8	77.2475	10,196.8	73.6253	10,196.8	72.8946	10,196.8	74.4222	10,196.8	68.7908	10,196.8	69.8299	10,196.8	61.6904	10,196.8	54.5904	10,196.8	59.3097	10,196.8	36.9486	10,196.8	60.275	10,196.8	49.7681	10,196.8	54.3204	10,196.8	54.7279	10,196.8	58.3786	10,196.8	44.239	10,196.8	57.4182	10,196.8	32.0549	10,196.8	50.517	10,196.8	48.7705	10,196.8	53.5646	10,196.8	49.7204	10,196.8	52.9552
10,555.7	89.0904	10,555.7	88.9706	10,555.7	88.4008	10,555.7	87.2235	10,555.7	87.515	10,555.7	84.3819	10,555.7	85.9308	10,555.7	83.6077	10,555.7	83.6295	10,555.7	80.2008	10,555.7	81.6018	10,555.7	77.3759	10,555.7	80.1015	10,555.7	76.255	10,555.7	72.2678	10,555.7	71.5895	10,555.7	70.9603	10,555.7	66.7745	10,555.7	65.359	10,555.7	60.6935	10,555.7	42.0137	10,555.7	51.9386	10,555.7	38.1246	10,555.7	60.6634	10,555.7	46.326	10,555.7	49.9899	10,555.7	51.5083	10,555.7	60.5878	10,555.7	45.7405	10,555.7	58.1695	10,555.7	46.7138	10,555.7	56.6917	10,555.7	50.3302	10,555.7	55.194	10,555.7	52.722	10,555.7	48.7297
10,927.7	90.1845	10,927.7	89.7674	10,927.7	89.4596	10,927.7	88.3104	10,927.7	88.2666	10,927.7	85.4202	10,927.7	85.7097	10,927.7	83.9699	10,927.7	83.2069	10,927.7	79.037	10,927.7	80.6565	10,927.7	76.6098	10,927.7	77.2942	10,927.7	73.6908	10,927.7	68.6334	10,927.7	68.1692	10,927.7	65.4903	10,927.7	64.4323	10,927.7	60.5923	10,927.7	52.5674	10,927.7	50.4257	10,927.7	60.61	10,927.7	46.6648	10,927.7	59.7713	10,927.7	25.4968	10,927.7	54.1389	10,927.7	49.1454	10,927.7	57.6239	10,927.7	48.5339	10,927.7	55.3212	10,927.7	45.122	10,927.7	48.828	10,927.7	50.2517	10,927.7	52.8582	10,927.7	50.2344	10,927.7	52.1728
11,313	90.581	11,313	90.1785	11,313	89.9641	11,313	88.7451	11,313	88.5138	11,313	85.4848	11,313	85.7096	11,313	83.4557	11,313	82.4985	11,313	78.0551	11,313	79.0074	11,313	74.6163	11,313	74.5794	11,313	71.2028	11,313	68.7693	11,313	65.0917	11,313	64.2649	11,313	58.5108	11,313	63.1667	11,313	54.2804	11,313	45.5873	11,313	65.1304	11,313	40.37	11,313	59.9957	11,313	39.152	11,313	56.7083	11,313	40.8718	11,313	57.1877	11,313	43.425	11,313	58.9304	11,313	41.1468	11,313	58.0184	11,313	51.1208	11,313	54.9993	11,313	48.4312	11,313	51.5865
11,712.9	90.5637	11,712.9	90.3215	11,712.9	89.7824	11,712.9	88.9368	11,712.9	88.0619	11,712.9	85.3775	11,712.9	85.1927	11,712.9	83.3082	11,712.9	81.3807	11,712.9	77.7881	11,712.9	77.7668	11,712.9	73.7297	11,712.9	71.4065	11,712.9	69.9479	11,712.9	66.2299	11,712.9	65.0573	11,712.9	60.698	11,712.9	58.3718	11,712.9	51.9005	11,712.9	56.8014	11,712.9	47.1884	11,712.9	61.7953	11,712.9	34.5119	11,712.9	62.0844	11,712.9	38.1955	11,712.9	54.398	11,712.9	39.1715	11,712.9	60.079	11,712.9	46.9944	11,712.9	58.3601	11,712.9	40.8218	11,712.9	51.2387	11,712.9	51.8361	11,712.9	55.8173	11,712.9	45.7369	11,712.9	46.7464
12,126	90.1703	12,126	90.1185	12,126	89.1363	12,126	88.8829	12,126	87.3773	12,126	85.4905	12,126	84.4185	12,126	83.2574	12,126	80.5765	12,126	77.6868	12,126	76.2319	12,126	73.7621	12,126	71.19	12,126	71.6775	12,126	56.1583	12,126	66.4578	12,126	61.0562	12,126	63.3399	12,126	45.1191	12,126	51.8831	12,126	36.8988	12,126	63.3317	12,126	35.2786	12,126	61.8159	12,126	31.694	12,126	49.8554	12,126	26.7988	12,126	62.0104	12,126	29.877	12,126	51.9542	12,126	37.3252	12,126	46.4586	12,126	42.1883	12,126	52.4973	12,126	38.1445	12,126	40.232
12,553.7	89.6934	12,553.7	89.8398	12,553.7	88.4082	12,553.7	89.1206	12,553.7	86.7822	12,553.7	85.7098	12,553.7	84.3126	12,553.7	83.3151	12,553.7	80.5217	12,553.7	78.1634	12,553.7	76.076	12,553.7	73.8508	12,553.7	70.0634	12,553.7	72.0862	12,553.7	62.1317	12,553.7	67.2063	12,553.7	60.8593	12,553.7	61.0897	12,553.7	49.7221	12,553.7	54.488	12,553.7	42.8084	12,553.7	59.6553	12,553.7	43.9501	12,553.7	64.7632	12,553.7	41.2067	12,553.7	58.0734	12,553.7	42.8726	12,553.7	59.2421	12,553.7	20.4961	12,553.7	54.9254	12,553.7	37.6559	12,553.7	47.9288	12,553.7	50.0846	12,553.7	48.6536	12,553.7	45.4215	12,553.7	44.201
12,996.1	89.6107	12,996.1	90.1505	12,996.1	88.5588	12,996.1	89.5514	12,996.1	87.0668	12,996.1	85.829	12,996.1	84.813	12,996.1	83.1754	12,996.1	80.8726	12,996.1	77.9017	12,996.1	76.4355	12,996.1	73.1231	12,996.1	69.8717	12,996.1	70.4847	12,996.1	64.6105	12,996.1	64.7001	12,996.1	62.1277	12,996.1	58.7416	12,996.1	43.2648	12,996.1	48.7396	12,996.1	45.6815	12,996.1	64.9645	12,996.1	47.9605	12,996.1	63.1112	12,996.1	45.5497	12,996.1	56.8076	12,996.1	36.9538	12,996.1	53.5138	12,996.1	37.3429	12,996.1	51.3928	12,996.1	42.1089	12,996.1	47.8385	12,996.1	51.9399	12,996.1	53.574	12,996.1	49.1882	12,996.1	39.7469
13,454.6	89.9277	13,454.6	90.4093	13,454.6	88.7764	13,454.6	89.4727	13,454.6	87.0028	13,454.6	85.4031	13,454.6	84.1939	13,454.6	82.5935	13,454.6	79.8886	13,454.6	76.3066	13,454.6	75.0613	13,454.6	70.2323	13,454.6	67.7397	13,454.6	64.5428	13,454.6	62.2198	13,454.6	57.7293	13,454.6	60.4247	13,454.6	52.2878	13,454.6	55.735	13,454.6	55.2582	13,454.6	47.4047	13,454.6	65.1576	13,454.6	44.265	13,454.6	62.0196	13,454.6	40.916	13,454.6	51.4499	13,454.6	44.6397	13,454.6	56.7264	13,454.6	40.2945	13,454.6	55.304	13,454.6	32.9621	13,454.6	48.4235	13,454.6	49.4612	13,454.6	52.487	13,454.6	49.3653	13,454.6	38.6898
13,929.2	90.4411	13,929.2	90.892	13,929.2	89.3486	13,929.2	89.6236	13,929.2	87.2629	13,929.2	85.3111	13,929.2	83.5905	13,929.2	81.9604	13,929.2	77.9897	13,929.2	73.3202	13,929.2	72.2987	13,929.2	66.0919	13,929.2	64.1931	13,929.2	56.9559	13,929.2	61.2389	13,929.2	60.8794	13,929.2	56.9768	13,929.2	48.0847	13,929.2	56.3934	13,929.2	53.5104	13,929.2	49.3433	13,929.2	65.319	13,929.2	48.634	13,929.2	60.57	13,929.2	45.5639	13,929.2	54.0662	13,929.2	48.5239	13,929.2	56.1509	13,929.2	35.6736	13,929.2	60.3664	13,929.2	31.4296	13,929.2	54.4648	13,929.2	49.6044	13,929.2	53.2584	13,929.2	49.9995	13,929.2	43.9585
14,419.9	91.1936	14,419.9	91.2268	14,419.9	90.074	14,419.9	89.8597	14,419.9	87.4934	14,419.9	85.0953	14,419.9	82.2327	14,419.9	80.3036	14,419.9	74.4082	14,419.9	69.8199	14,419.9	67.1195	14,419.9	60.0301	14,419.9	63.2972	14,419.9	61.1519	14,419.9	65.5743	14,419.9	62.7628	14,419.9	60.1896	14,419.9	57.7811	14,419.9	58.0495	14,419.9	45.0504	14,419.9	48.6359	14,419.9	63.8366	14,419.9	48.0088	14,419.9	59.6943	14,419.9	51.3062	14,419.9	55.6694	14,419.9	49.2518	14,419.9	49.3834	14,419.9	45.6825	14,419.9	60.5986	14,419.9	42.6005	14,419.9	58.7328	14,419.9	48.3743	14,419.9	55.9287	14,419.9	49.4646	14,419.9	47.9883
14,928.2	90.9967	14,928.2	90.9927	14,928.2	89.7118	14,928.2	89.7239	14,928.2	86.9767	14,928.2	83.7589	14,928.2	81.0133	14,928.2	77.6707	14,928.2	70.0097	14,928.2	62.6854	14,928.2	53.9047	14,928.2	61.3758	14,928.2	66.1559	14,928.2	62.6679	14,928.2	67.8673	14,928.2	63.1375	14,928.2	61.5496	14,928.2	54.1545	14,928.2	55.4796	14,928.2	52.9351	14,928.2	34.2039	14,928.2	65.6916	14,928.2	35.7587	14,928.2	59.8619	14,928.2	42.784	14,928.2	52.6801	14,928.2	40.1723	14,928.2	33.0715	14,928.2	40.6407	14,928.2	57.0994	14,928.2	37.7786	14,928.2	54.8828	14,928.2	39.703	14,928.2	50.0126	14,928.2	37.6713	14,928.2	33.6784
15,455.6	90.3198	15,455.6	90.2999	15,455.6	88.98	15,455.6	89.005	15,455.6	86.0429	15,455.6	82.7055	15,455.6	78.8839	15,455.6	75.7741	15,455.6	67.0618	15,455.6	52.9656	15,455.6	60.3406	15,455.6	66.396	15,455.6	65.6916	15,455.6	64.6357	15,455.6	67.5441	15,455.6	63.0059	15,455.6	54.13	15,455.6	55.0771	15,455.6	59.2472	15,455.6	49.7638	15,455.6	43.2578	15,455.6	58.5779	15,455.6	45.7574	15,455.6	65.0376	15,455.6	40.6147	15,455.6	57.1952	15,455.6	45.3938	15,455.6	45.5701	15,455.6	40.6886	15,455.6	58.6077	15,455.6	46.2692	15,455.6	53.9217	15,455.6	50.9019	15,455.6	55.8202	15,455.6	38.6448	15,455.6	45.341
16,000.5	90.0283	16,000.5	89.9118	16,000.5	88.7203	16,000.5	88.2448	16,000.5	85.5072	16,000.5	81.1616	16,000.5	77.5387	16,000.5	72.2858	16,000.5	63.4547	16,000.5	65.0853	16,000.5	64.7838	16,000.5	69.3765	16,000.5	67.6023	16,000.5	66.7189	16,000.5	67.1329	16,000.5	64.6705	16,000.5	59.4859	16,000.5	52.3188	16,000.5	57.0823	16,000.5	51.1909	16,000.5	41.8027	16,000.5	58.849	16,000.5	45.2968	16,000.5	64.8052	16,000.5	44.8119	16,000.5	53.9746	16,000.5	49.6554	16,000.5	39.9138	16,000.5	49.167	16,000.5	58.1779	16,000.5	40.6761	16,000.5	42.4399	16,000.5	41.487	16,000.5	52.4821	16,000.5	41.8855	16,000.5	41.975
16,564.5	89.9046	16,564.5	89.1196	16,564.5	88.7107	16,564.5	86.4369	16,564.5	85.057	16,564.5	77.6219	16,564.5	77.1344	16,564.5	66.5498	16,564.5	63.6018	16,564.5	69.6654	16,564.5	68.7923	16,564.5	70.802	16,564.5	69.0488	16,564.5	67.792	16,564.5	68.7635	16,564.5	66.6628	16,564.5	60.953	16,564.5	52.6851	16,564.5	48.0194	16,564.5	56.529	16,564.5	45.1569	16,564.5	58.8544	16,564.5	36.7765	16,564.5	64.4813	16,564.5	20.1393	16,564.5	52.8477	16,564.5	34.0111	16,564.5	49.5261	16,564.5	44.6097	16,564.5	52.2301	16,564.5	33.883	16,564.5	49.5134	16,564.5	44.9018	16,564.5	36.7315	16,564.5	35.9849	16,564.5	41.2283
17,148.9	89.515	17,148.9	88.2485	17,148.9	88.3498	17,148.9	83.9693	17,148.9	84.1146	17,148.9	73.6065	17,148.9	77.5874	17,148.9	67.1743	17,148.9	68.7659	17,148.9	72.4486	17,148.9	70.4149	17,148.9	70.9796	17,148.9	71.7672	17,148.9	69.0335	17,148.9	69.7139	17,148.9	67.0871	17,148.9	63.2714	17,148.9	54.1721	17,148.9	52.7501	17,148.9	55.5667	17,148.9	50.2335	17,148.9	58.7021	17,148.9	47.9744	17,148.9	62.677	17,148.9	44.7811	17,148.9	40.7608	17,148.9	42.4261	17,148.9	53.052	17,148.9	39.74	17,148.9	51.7363	17,148.9	37.6004	17,148.9	49.1789	17,148.9	46.3923	17,148.9	37.9643	17,148.9	40.5324	17,148.9	35.7724
17,752.4	88.9726	17,752.4	87.2283	17,752.4	87.7846	17,752.4	80.919	17,752.4	82.6387	17,752.4	65.8607	17,752.4	76.335	17,752.4	72.4503	17,752.4	70.7173	17,752.4	74.0894	17,752.4	71.4703	17,752.4	73.5126	17,752.4	72.3639	17,752.4	69.4774	17,752.4	69.3907	17,752.4	66.1299	17,752.4	62.947	17,752.4	53.7607	17,752.4	53.0418	17,752.4	54.7751	17,752.4	48.8783	17,752.4	59.5135	17,752.4	50.9137	17,752.4	60.7667	17,752.4	46.2045	17,752.4	50.6572	17,752.4	45.2934	17,752.4	50.5386	17,752.4	37.4482	17,752.4	48.6267	17,752.4	40.559	17,752.4	47.5021	17,752.4	48.3035	17,752.4	40.2847	17,752.4	45.2838	17,752.4	43.7555
18,379.4	88.0589	18,379.4	85.7349	18,379.4	86.963	18,379.4	77.0348	18,379.4	81.7709	18,379.4	61.245	18,379.4	74.2499	18,379.4	74.5404	18,379.4	71.1251	18,379.4	74.7385	18,379.4	71.4197	18,379.4	73.1031	18,379.4	70.4841	18,379.4	68.4262	18,379.4	67.9789	18,379.4	63.6725	18,379.4	61.1331	18,379.4	54.8358	18,379.4	53.0725	18,379.4	52.322	18,379.4	50.7414	18,379.4	59.7244	18,379.4	51.4332	18,379.4	60.3903	18,379.4	46.4578	18,379.4	50.427	18,379.4	43.0921	18,379.4	50.6959	18,379.4	39.7397	18,379.4	39.0837	18,379.4	38.3134	18,379.4	52.6346	18,379.4	35.7861	18,379.4	46.4433	18,379.4	37.2205	18,379.4	37.8408
19,026.9	86.8031	19,026.9	83.9571	19,026.9	85.7742	19,026.9	75.3091	19,026.9	81.0573	19,026.9	70.3446	19,026.9	73.1901	19,026.9	73.8215	19,026.9	68.8539	19,026.9	73.4846	19,026.9	70.2096	19,026.9	70.705	19,026.9	68.9563	19,026.9	63.989	19,026.9	66.0191	19,026.9	55.8192	19,026.9	58.5209	19,026.9	50.1409	19,026.9	51.4766	19,026.9	49.5899	19,026.9	50.8302	19,026.9	59.5314	19,026.9	49.5562	19,026.9	51.1985	19,026.9	43.0097	19,026.9	55.9669	19,026.9	40.0109	19,026.9	52.0255	19,026.9	41.2502	19,026.9	52.6162	19,026.9	29.4163	19,026.9	48.0365	19,026.9	44.8356	19,026.9	29.0098	19,026.9	40.1227	19,026.9	40.6751
19,697.8	85.4599	19,697.8	82.3459	19,697.8	84.0686	19,697.8	75.4281	19,697.8	79.5023	19,697.8	72.1885	19,697.8	71.5828	19,697.8	72.2753	19,697.8	65.049	19,697.8	71.6606	19,697.8	69.468	19,697.8	66.9297	19,697.8	68.9851	19,697.8	59.1901	19,697.8	65.8097	19,697.8	53.4295	19,697.8	53.4336	19,697.8	42.2478	19,697.8	51.4256	19,697.8	42.1894	19,697.8	48.4355	19,697.8	54.8002	19,697.8	52.7008	19,697.8	52.6301	19,697.8	48.745	19,697.8	54.6746	19,697.8	44.6715	19,697.8	55.3421	19,697.8	41.0623	19,697.8	54.3897	19,697.8	35.9688	19,697.8	39.9302	19,697.8	42.124	19,697.8	48.5771	19,697.8	34.1761	19,697.8	43.7173
19,999.5	84.8927	19,999.5	81.8485	19,999.5	83.113	19,999.5	75.9887	19,999.5	78.4988	19,999.5	72.1512	19,999.5	69.2186	19,999.5	70.2269	19,999.5	64.747	19,999.5	71.1508	19,999.5	68.9686	19,999.5	65.1726	19,999.5	69.5225	19,999.5	58.353	19,999.5	66.0559	19,999.5	52.2219	19,999.5	55.3065	19,999.5	47.5018	19,999.5	50.8557	19,999.5	45.5072	19,999.5	35.2101	19,999.5	54.092	19,999.5	47.9795	19,999.5	49.0095	19,999.5	51.4936	19,999.5	55.046	19,999.5	47.6454	19,999.5	56.7308	19,999.5	29.0382	19,999.5	57.6246	19,999.5	36.7725	19,999.5	44.9617	19,999.5	40.8849	19,999.5	40.2903	19,999.5	37.394	19,999.5	43.0332
