Freq[Hz]     dBSPL  Phase[Deg]
5.00000    -20.623    80.331
5.07273    -20.465    83.631
5.14651    -20.317    87.215
5.22137    -20.197    91.594
5.29732    -20.078    95.972
5.37437    -19.958   100.350
5.45254    -19.839   104.727
5.53185    -19.570   108.838
5.61231    -19.144   112.665
5.69394    -18.717   116.492
5.77676    -18.291   120.320
5.86079    -17.872   124.126
5.94604    -17.901   126.723
6.03252    -17.929   129.320
6.12027    -17.958   131.917
6.20929    -17.986   134.513
6.29961    -17.771   141.735
6.39124    -17.502   149.981
6.48420    -17.233   158.228
6.57851    -16.964   166.475
6.67420    -16.269   169.090
6.77128    -15.506   170.791
6.86977    -14.742   172.492
6.96969    -14.139   174.484
7.07107    -14.757   178.686
7.17392    -15.375  -177.113
7.27827    -15.992  -172.911
7.38413    -15.582  -164.577
7.49154    -14.378  -153.049
7.60050    -13.174  -141.521
7.71105    -12.086  -132.518
7.82321    -11.510  -134.601
7.93701    -10.933  -136.684
8.05245    -10.356  -138.767
8.16958    -11.309  -126.144
8.28841    -12.319  -112.972
8.40896    -13.329   -99.801
8.53128    -11.182   -92.025
8.65537     -8.628   -84.946
8.78126     -6.074   -77.867
8.90899     -6.149   -80.118
9.03857     -6.397   -82.979
9.17004     -6.516   -82.543
9.30342     -5.621   -55.854
9.43874     -4.726   -29.165
9.57603     -2.894   -13.677
9.71532      0.371   -15.303
9.85663      3.637   -16.929
10.0000      5.238   -19.232
10.1455      6.375   -21.725
10.2930      7.614   -22.847
10.4427      9.135   -20.142
10.5946     10.657   -17.437
10.7487     12.545   -21.290
10.9051     14.507   -26.453
11.0637     15.965   -34.232
11.2246     16.891   -44.780
11.3879     17.528   -55.141
11.5535     17.112   -64.823
11.7216     16.678   -74.329
11.8921     15.160   -73.445
12.0650     13.642   -72.562
12.2405     14.051   -61.550
12.4186     14.707   -49.232
12.5992     16.220   -47.929
12.7825     17.922   -49.069
12.9684     18.921   -54.219
13.1570     19.755   -60.303
13.3484     20.072   -66.908
13.5426     20.304   -73.598
13.7395     19.943   -80.412
13.9394     19.446   -86.900
14.1421     18.093   -90.872
14.3478     16.580   -90.494
14.5565     14.724   -80.759
14.7683     14.638   -67.120
14.9831     15.918   -50.465
15.2010     17.887   -48.055
15.4221     19.795   -49.282
15.6464     20.914   -55.803
15.8740     21.544   -62.901
16.1049     21.782   -70.462
16.3392     21.319   -75.861
16.5768     20.735   -79.018
16.8179     20.016   -79.035
17.0626     19.829   -76.134
17.3107     19.868   -73.698
17.5625     20.146   -72.543
17.8180     20.292   -72.072
18.0771     20.506   -71.131
18.3401     20.821   -69.898
18.6068     21.349   -70.274
18.8775     21.679   -72.115
19.1521     21.805   -73.936
19.4306     21.735   -74.776
19.7133     21.760   -73.665
20.0000     21.905   -72.604
20.2909     22.049   -71.113
20.5860     22.250   -68.678
20.8855     22.717   -64.874
21.1893     23.677   -63.185
21.4975     24.471   -64.561
21.8102     24.877   -66.159
22.1274     25.107   -65.567
22.4492     25.595   -62.728
22.7758     26.600   -60.513
23.1071     27.741   -61.896
23.4432     28.513   -65.404
23.7841     28.924   -67.952
24.1301     29.331   -68.919
24.4811     29.840   -69.619
24.8372     30.330   -70.382
25.1984     30.812   -70.359
25.5649     31.482   -69.641
25.9368     32.384   -69.913
26.3141     33.263   -72.013
26.6968     33.931   -74.648
27.0851     34.519   -76.471
27.4791     35.211   -78.242
27.8788     35.857   -80.903
28.2843     36.348   -83.260
28.6957     36.866   -84.623
29.1131     37.516   -86.021
29.5365     38.190   -88.097
29.9661     38.811   -90.498
30.4020     39.385   -92.903
30.8442     39.932   -95.095
31.2929     40.508   -97.144
31.7480     41.119   -99.461
32.2098     41.684  -102.248
32.6783     42.141  -104.668
33.1536     42.664  -106.378
33.6359     43.293  -108.544
34.1251     43.857  -111.280
34.6215     44.382  -113.704
35.1250     44.943  -116.084
35.6359     45.518  -118.641
36.1543     46.087  -121.416
36.6802     46.631  -124.229
37.2137     47.181  -127.061
37.7550     47.716  -129.985
38.3041     48.254  -132.863
38.8613     48.794  -135.875
39.4265     49.336  -138.957
40.0000     49.865  -142.253
40.5818     50.374  -145.524
41.1721     50.878  -149.042
41.7710     51.331  -152.524
42.3785     51.794  -155.948
42.9949     52.232  -159.530
43.6203     52.605  -163.095
44.2548     52.976  -165.829
44.8985     53.463  -168.871
45.5515     53.915  -172.206
46.2141     54.350  -175.645
46.8863     54.755  -178.813
47.5683     55.210   178.023
48.2602     55.679   174.651
48.9621     56.116   171.194
49.6743     56.589   167.668
50.3968     57.012   163.934
51.1299     57.445   160.330
51.8736     57.871   156.585
52.6281     58.285   152.797
53.3936     58.697   148.962
54.1702     59.089   145.099
54.9581     59.489   141.211
55.7575     59.875   137.273
56.5685     60.259   133.279
57.3914     60.628   129.247
58.2261     60.995   125.251
59.0730     61.357   121.127
59.9323     61.701   117.102
60.8040     62.052   112.992
61.6884     62.402   108.993
62.5857     62.755   104.831
63.4960     63.115   100.649
64.4196     63.457    96.302
65.3566     63.789    91.965
66.3073     64.118    87.570
67.2717     64.431    83.134
68.2502     64.742    78.684
69.2429     65.047    74.208
70.2501     65.359    69.719
71.2719     65.661    65.124
72.3086     65.978    60.416
73.3603     66.267    55.542
74.4274     66.535    50.611
75.5099     66.788    45.697
76.6083     67.011    40.767
77.7226     67.227    36.056
78.8531     67.468    31.387
80.0000     67.725    26.562
81.1636     67.982    21.594
82.3442     68.228    16.495
83.5419     68.467    11.262
84.7570     68.679     5.882
85.9899     68.863     0.485
87.2406     69.033    -4.834
88.5096     69.206   -10.174
89.7970     69.374   -15.619
91.1031     69.528   -21.278
92.4282     69.637   -27.060
93.7726     69.694   -32.776
95.1366     69.715   -38.132
96.5204     69.767   -43.217
97.9243     69.838   -48.371
99.3486     69.915   -53.570
100.794     69.986   -58.877
102.260     70.053   -64.222
103.747     70.112   -69.618
105.256     70.162   -75.058
106.787     70.206   -80.592
108.340     70.226   -86.257
109.916     70.187   -91.869
111.515     70.141   -97.029
113.137     70.141  -102.187
114.783     70.137  -107.472
116.452     70.122  -112.725
118.146     70.117  -117.909
119.865     70.115  -123.166
121.608     70.108  -128.463
123.377     70.105  -133.751
125.171     70.102  -139.121
126.992     70.098  -144.525
128.839     70.091  -150.032
130.713     70.071  -155.674
132.615     70.010  -161.268
134.543     69.948  -166.752
136.500     69.913  -172.293
138.486     69.879  -177.407
140.500     69.815   176.979
142.544     69.736   171.245
144.617     69.685   165.988
146.721     69.622   160.931
148.855     69.619   155.537
151.020     69.626   149.605
153.217     69.537   143.759
155.445     69.497   138.423
157.706     69.478   132.342
160.000     69.249   126.078
162.327     69.076   121.253
164.688     69.051   116.624
167.084     69.047   111.578
169.514     69.094   105.195
171.980     68.927    98.772
174.481     68.752    93.930
177.019     68.681    89.485
179.594     68.683    84.528
182.206     68.677    79.120
184.856     68.730    73.761
187.545     68.801    68.310
190.273     68.846    62.331
193.041     68.836    56.215
195.849     68.823    50.641
198.697     68.873    44.390
201.587     68.869    37.452
204.520     68.708    30.634
207.494     68.525    25.486
210.512     68.294    20.427
213.574     68.362    14.661
216.681     68.396     9.539
219.833     68.329     4.431
223.030     68.313    -0.981
226.274     68.391    -6.941
229.565     68.376   -13.013
232.905     68.301   -18.751
236.292     68.286   -23.407
239.729     68.190   -28.753
243.216     68.235   -33.427
246.754     68.302   -39.283
250.343     68.276   -45.693
253.984     68.161   -51.516
257.678     68.090   -56.712
261.426     68.077   -62.225
265.229     68.033   -68.018
269.087     67.834   -73.655
273.001     67.786   -77.790
276.972     67.873   -81.767
281.000     67.691   -86.367
285.088     67.818   -91.915
289.234     67.979   -96.709
293.441     68.179  -102.269
297.709     68.195  -109.179
302.040     67.872  -114.226
306.433     67.635  -118.231
310.890     67.766  -121.219
315.412     67.954  -127.133
320.000     67.887  -132.226
324.655     67.753  -136.700
329.377     67.722  -140.966
334.168     67.857  -145.886
339.028     67.606  -151.583
343.959     67.539  -154.623
348.962     67.610  -158.763
354.038     67.590  -161.615
359.188     67.772  -166.065
364.412     67.714  -170.932
369.713     67.636  -176.111
375.090     67.519  -178.500
380.546     67.585   178.397
386.081     67.789   173.789
391.697     67.535   169.804
397.394     67.656   167.360
403.175     67.626   164.212
409.039     67.785   161.398
414.989     67.797   158.664
421.025     67.972   155.651
427.149     68.153   152.953
433.362     68.316   149.412
439.665     68.528   145.476
446.060     68.618   141.691
452.548     68.667   137.459
459.131     68.730   133.526
465.809     68.766   129.466
472.584     68.779   125.258
479.458     68.755   121.498
486.432     68.651   117.404
493.507     68.608   113.762
500.686     68.552   109.899
507.968     68.469   106.078
515.357     68.357   102.492
522.853     68.246    99.163
530.458     68.177    95.918
538.174     68.109    92.896
546.002     68.051    89.892
553.943     68.024    86.928
562.001     68.008    84.032
570.175     68.004    81.206
578.469     68.021    78.410
586.883     68.043    75.632
595.419     68.085    72.888
604.080     68.133    70.063
612.866     68.198    67.211
621.780     68.265    64.211
630.824     68.351    61.142
640.000     68.422    58.067
649.309     68.497    54.891
658.753     68.566    51.626
668.335     68.633    48.228
678.056     68.689    44.820
687.919     68.731    41.347
697.925     68.764    37.860
708.077     68.773    34.382
718.376     68.774    30.941
728.825     68.753    27.521
739.426     68.721    24.121
750.181     68.678    20.774
761.093     68.627    17.551
772.163     68.572    14.447
783.394     68.511    11.484
794.789     68.457     8.547
806.349     68.409     5.774
818.078     68.376     3.113
829.977     68.344     0.483
842.050     68.343    -2.135
854.298     68.352    -4.697
866.724     68.374    -7.283
879.330     68.412    -9.991
892.120     68.459   -12.795
905.097     68.516   -15.675
918.262     68.574   -18.697
931.618     68.624   -21.818
945.169     68.674   -25.025
958.917     68.711   -28.281
972.864     68.734   -31.661
987.015     68.746   -35.020
1001.37     68.742   -38.450
1015.94     68.717   -41.863
1030.71     68.687   -45.258
1045.71     68.650   -48.619
1060.92     68.599   -51.983
1076.35     68.545   -55.282
1092.00     68.482   -58.541
1107.89     68.416   -61.799
1124.00     68.344   -65.078
1140.35     68.280   -68.292
1156.94     68.204   -71.447
1173.77     68.121   -74.640
1190.84     68.040   -77.781
1208.16     67.962   -80.850
1225.73     67.878   -83.896
1243.56     67.797   -86.989
1261.65     67.723   -90.084
1280.00     67.658   -93.117
1298.62     67.598   -96.244
1317.51     67.539   -99.369
1336.67     67.472  -102.655
1356.11     67.403  -105.956
1375.84     67.317  -109.399
1395.85     67.225  -112.771
1416.15     67.104  -116.210
1436.75     66.970  -119.537
1457.65     66.823  -122.813
1478.85     66.674  -125.968
1500.36     66.525  -129.000
1522.19     66.391  -131.964
1544.33     66.269  -134.912
1566.79     66.170  -137.848
1589.58     66.078  -140.923
1612.70     66.004  -144.101
1636.16     65.927  -147.407
1659.95     65.845  -150.944
1684.10     65.747  -154.594
1708.60     65.631  -158.429
1733.45     65.493  -162.359
1758.66     65.322  -166.382
1784.24     65.113  -170.529
1810.19     64.870  -174.644
1836.52     64.591  -178.797
1863.24     64.277   177.189
1890.34     63.926   173.262
1917.83     63.559   169.440
1945.73     63.190   165.728
1974.03     62.803   162.010
2002.74     62.411   158.274
2031.87     62.006   154.418
2061.43     61.563   150.562
2091.41     61.090   146.568
2121.83     60.606   142.540
2152.69     60.111   138.413
2184.01     59.622   133.790
2215.77     59.111   128.443
2248.00     58.514   121.937
2280.70     57.774   114.248
2313.87     56.781   105.136
2347.53     55.482    94.860
2381.68     53.797    83.189
2416.32     51.706    70.172
2451.46     49.139    54.627
2487.12     46.333    34.762
2523.30     44.040     9.340
2560.00     43.155   -17.267
2597.24     43.954   -36.425
2635.01     45.619   -46.395
2673.34     47.805   -51.548
2712.23     50.086   -55.889
2751.68     52.247   -61.024
2791.70     54.081   -66.949
2832.31     55.642   -72.647
2873.50     56.993   -78.153
2915.30     58.219   -83.604
2957.70     59.327   -89.484
3000.72     60.238   -95.730
3044.37     60.924  -101.854
3088.65     61.427  -107.281
3133.58     61.845  -111.924
3179.16     62.242  -115.964
3225.40     62.596  -119.684
3272.31     62.913  -123.039
3319.91     63.239  -125.868
3368.20     63.621  -128.489
3417.19     64.015  -131.372
3466.89     64.365  -134.465
3517.32     64.687  -137.290
3568.48     65.045  -139.921
3620.39     65.440  -142.930
3673.05     65.790  -146.349
3726.47     66.078  -149.849
3780.67     66.347  -153.298
3835.67     66.583  -157.014
3891.46     66.725  -160.788
3948.06     66.812  -164.096
4005.49     66.925  -167.229
4063.75     67.013  -170.776
4122.86     66.972  -174.169
4182.82     66.883  -176.644
4243.66     66.872  -178.774
4305.39     66.877   178.862
4368.01     66.836   176.581
4431.55     66.792   174.469
4496.01     66.697   172.322
4561.40     66.535   170.861
4627.75     66.465   170.043
4695.06     66.436   168.939
4763.35     66.357   168.256
4832.64     66.408   168.173
4902.93     66.538   167.323
4974.24     66.610   166.448
5046.60     66.798   165.630
5120.00     66.974   163.548
5194.47     66.999   161.439
5270.03     67.022   159.312
5346.68     66.880   156.950
5424.45     66.662   155.915
5503.35     66.549   154.852
5583.40     66.281   154.021
5664.61     66.089   154.530
5747.01     65.931   154.717
5830.60     65.780   156.287
5915.41     65.838   157.716
6001.45     65.892   159.554
6088.74     66.316   161.088
6177.30     66.648   160.374
6267.15     66.941   160.052
6358.31     67.188   158.320
6450.80     67.309   157.497
6544.62     67.531   155.610
6639.82     67.495   153.741
6736.40     67.473   152.017
6834.38     67.211   151.121
6933.79     67.151   151.216
7034.64     67.003   151.297
7136.96     67.063   151.537
7240.77     66.902   151.270
7346.09     66.891   151.940
7452.94     66.765   152.650
7561.35     66.840   153.493
7671.33     66.773   154.722
7782.91     66.948   155.608
7896.12     67.046   156.851
8010.97     67.283   156.771
8127.49     67.452   157.065
8245.71     67.494   155.626
8365.65     67.370   154.691
8487.33     66.921   154.916
8610.78     66.802   156.343
8736.03     66.620   156.999
8863.09     66.278   157.324
8992.01     65.996   159.539
9122.80     65.821   162.412
9255.50     65.960   164.070
9390.12     66.159   164.795
9526.70     66.209   163.997
9665.27     66.122   162.934
9805.86     65.998   163.072
9948.49     65.879   163.669
10093.2     65.897   164.610
10240.0     66.083   165.572
10388.9     66.292   165.823
10540.1     66.424   165.097
10693.4     66.444   164.150
10848.9     66.372   163.767
11006.7     66.275   164.158
11166.8     66.232   164.609
11329.2     66.204   164.498
11494.0     66.094   164.540
11661.2     65.961   165.305
11830.8     65.888   166.355
12002.9     65.904   167.220
12177.5     65.925   166.927
12354.6     65.803   165.928
12534.3     65.409   165.015
12716.6     64.807   166.264
12901.6     64.378   169.956
13089.2     64.274   174.450
13279.6     64.591   177.649
13472.8     64.828   177.105
13668.8     64.555   176.026
13867.6     63.995   177.762
14069.3     63.772  -178.069
14273.9     63.874  -175.322
14481.5     63.854  -174.089
14692.2     63.674  -172.215
14905.9     63.694  -169.978
15122.7     63.681  -170.036
15342.7     63.227  -170.022
15565.8     62.602  -167.298
15792.2     62.286  -162.390
16021.9     62.297  -158.823
16255.0     62.107  -157.143
16491.4     61.678  -153.903
16731.3     61.513  -148.607
16974.7     61.663  -145.967
17221.6     61.314  -144.590
17472.1     60.819  -139.907
17726.2     60.651  -134.399
17984.0     60.527  -129.809
18245.6     60.336  -123.857
18511.0     60.543  -117.103
18780.2     61.005  -112.942
19053.4     61.144  -110.522
19330.5     61.090  -106.107
19611.7     61.364  -100.361
19897.0     62.125   -95.531
20186.4     62.789   -97.165
20480.0     62.439   -97.974
20777.9     62.079   -93.212
21080.1     62.410   -86.806
21386.7     63.034   -84.208
21697.8     63.435   -83.122
22013.4     63.654   -81.399
22333.6     64.043   -79.227
22658.4     64.531   -78.225
22988.0     64.915   -77.665
23322.4     65.427   -76.152
23661.6     66.386   -76.029
24005.8     67.471   -79.970
24355.0     68.419   -87.483
24709.2     68.852   -99.592
25068.6     68.440  -110.856
25433.2     68.030  -120.666
25803.2     67.593  -132.988
26178.5     66.626  -149.003
26559.3     64.637  -165.030
26945.6     62.142  -177.054
27337.5     59.643   170.639
27735.2     56.528   155.711
28138.6     52.983   131.854
28547.9     48.912    73.232
28963.1     49.122   -19.834
29384.4     49.208   -81.101
29811.8     47.096  -108.909
30245.4     41.174  -120.262
30685.3     36.928   -90.477
31131.7     36.940   -60.137
31584.5     38.747   -54.597
32043.9     37.739   -47.048
32510.0     38.399   -40.624
32982.8     39.586   -36.565
33462.6     40.623   -41.055
33949.3     43.370   -47.729
34443.1     45.998   -78.811
34944.1     46.366  -110.800
35452.4     46.520  -140.783
35968.0     45.422  -178.924
36491.2     39.060   159.206
37022.0     38.974  -177.776
37560.5     39.048   167.534
38106.8     38.345   168.438
38661.1     38.485   143.770
39223.4     31.936   124.131
39793.9     29.189   167.820
