Freq[Hz]     dBSPL  Phase[Deg]
5.00000    -21.388    79.416
5.07273    -21.227    82.715
5.14651    -21.076    86.297
5.22137    -20.954    90.674
5.29732    -20.831    95.050
5.37437    -20.709    99.426
5.45254    -20.586   103.802
5.53185    -20.315   107.911
5.61231    -19.886   111.736
5.69394    -19.456   115.562
5.77676    -19.027   119.387
5.86079    -18.606   123.192
5.94604    -18.631   125.787
6.03252    -18.657   128.382
6.12027    -18.683   130.976
6.20929    -18.709   133.571
6.29961    -18.491   140.790
6.39124    -18.219   149.035
6.48420    -17.947   157.279
6.57851    -17.675   165.524
6.67420    -16.977   168.137
6.77128    -16.211   169.836
6.86977    -15.445   171.535
6.96969    -14.839   173.524
7.07107    -15.454   177.724
7.17392    -16.068  -178.077
7.27827    -16.683  -173.878
7.38413    -16.270  -165.546
7.49154    -15.063  -154.020
7.60050    -13.857  -142.495
7.71105    -12.766  -133.495
7.82321    -12.186  -135.580
7.93701    -11.607  -137.665
8.05245    -11.027  -139.751
8.16958    -11.977  -127.131
8.28841    -12.984  -113.962
8.40896    -13.992  -100.793
8.53128    -11.842   -93.020
8.65537     -9.285   -85.944
8.78126     -6.728   -78.868
8.90899     -6.801   -81.121
9.03857     -7.045   -83.986
9.17004     -7.162   -83.553
9.30342     -6.264   -56.866
9.43874     -5.366   -30.180
9.57603     -3.531   -14.696
9.71532     -0.263   -16.325
9.85663      3.005   -17.954
10.0000      4.609   -20.261
10.1455      5.749   -22.756
10.2930      6.991   -23.882
10.4427      8.515   -21.180
10.5946     10.040   -18.479
10.7487     11.931   -22.335
10.9051     13.895   -27.501
11.0637     15.356   -35.284
11.2246     16.285   -45.836
11.3879     16.925   -56.201
11.5535     16.512   -65.887
11.7216     16.081   -75.396
11.8921     14.566   -74.516
12.0650     13.051   -73.637
12.2405     13.462   -62.629
12.4186     14.121   -50.315
12.5992     15.637   -49.016
12.7825     17.342   -50.160
12.9684     18.343   -55.314
13.1570     19.181   -61.403
13.3484     19.500   -68.012
13.5426     19.735   -74.706
13.7395     19.377   -81.525
13.9394     18.883   -88.018
14.1421     17.532   -91.995
14.3478     16.022   -91.621
14.5565     14.170   -81.891
14.7683     14.086   -68.256
14.9831     15.369   -51.606
15.2010     17.341   -49.201
15.4221     19.252   -50.433
15.6464     20.374   -56.959
15.8740     21.006   -64.063
16.1049     21.247   -71.628
16.3392     20.787   -77.033
16.5768     20.206   -80.195
16.8179     19.489   -80.218
17.0626     19.305   -77.322
17.3107     19.347   -74.892
17.5625     19.629   -73.742
17.8180     19.777   -73.278
18.0771     19.993   -72.342
18.3401     20.311   -71.115
18.6068     20.843   -71.497
18.8775     21.175   -73.345
19.1521     21.304   -75.171
19.4306     21.237   -76.018
19.7133     21.265   -74.913
20.0000     21.413   -73.859
20.2909     21.560   -72.374
20.5860     21.764   -69.946
20.8855     22.233   -66.149
21.1893     23.197   -64.467
21.4975     23.993   -65.850
21.8102     24.402   -67.455
22.1274     24.634   -66.870
22.4492     25.125   -64.038
22.7758     26.133   -61.830
23.1071     27.277   -63.221
23.4432     28.052   -66.737
23.7841     28.466   -69.293
24.1301     28.876   -70.268
24.4811     29.387   -70.976
24.8372     29.880   -71.747
25.1984     30.365   -71.732
25.5649     31.038   -71.022
25.9368     31.942   -71.303
26.3141     32.824   -73.411
26.6968     33.495   -76.054
27.0851     34.087   -77.886
27.4791     34.781   -79.666
27.8788     35.430   -82.336
28.2843     35.924   -84.702
28.6957     36.444   -86.074
29.1131     37.097   -87.482
29.5365     37.774   -89.568
29.9661     38.398   -91.978
30.4020     38.975   -94.393
30.8442     39.525   -96.595
31.2929     40.104   -98.654
31.7480     40.717  -100.982
32.2098     41.285  -103.780
32.6783     41.745  -106.210
33.1536     42.271  -107.931
33.6359     42.903  -110.107
34.1251     43.470  -112.855
34.6215     43.998  -115.290
35.1250     44.561  -117.682
35.6359     45.139  -120.250
36.1543     45.711  -123.037
36.6802     46.258  -125.862
37.2137     46.811  -128.705
37.7550     47.349  -131.642
38.3041     47.890  -134.533
38.8613     48.433  -137.558
39.4265     48.977  -140.652
40.0000     49.508  -143.961
40.5818     50.021  -147.245
41.1721     50.527  -150.776
41.7710     50.984  -154.272
42.3785     51.449  -157.709
42.9949     51.890  -161.306
43.6203     52.266  -164.885
44.2548     52.640  -167.634
44.8985     53.130  -170.690
45.5515     53.584  -174.039
46.2141     54.023  -177.494
46.8863     54.430   179.323
47.5683     54.888   176.144
48.2602     55.360   172.756
48.9621     55.800   169.283
49.6743     56.276   165.741
50.3968     56.701   161.991
51.1299     57.137   158.370
51.8736     57.566   154.608
52.6281     57.983   150.803
53.3936     58.398   146.951
54.1702     58.793   143.070
54.9581     59.195   139.164
55.7575     59.585   135.208
56.5685     59.971   131.195
57.3914     60.343   127.145
58.2261     60.713   123.130
59.0730     61.078   118.986
59.9323     61.425   114.942
60.8040     61.779   110.813
61.6884     62.131   106.794
62.5857     62.487   102.612
63.4960     62.850    98.409
64.4196     63.194    94.041
65.3566     63.529    89.682
66.3073     63.862    85.266
67.2717     64.177    80.808
68.2502     64.491    76.336
69.2429     64.798    71.838
70.2501     65.113    67.325
71.2719     65.419    62.707
72.3086     65.738    57.976
73.3603     66.030    53.078
74.4274     66.302    48.123
75.5099     66.557    43.184
76.6083     66.782    38.230
77.7226     67.002    33.494
78.8531     67.245    28.798
80.0000     67.506    23.948
81.1636     67.765    18.954
82.3442     68.014    13.828
83.5419     68.256     8.567
84.7570     68.471     3.160
85.9899     68.657    -2.265
87.2406     68.831    -7.612
88.5096     69.006   -12.981
89.7970     69.177   -18.456
91.1031     69.334   -24.144
92.4282     69.446   -29.956
93.7726     69.505   -35.702
95.1366     69.529   -41.089
96.5204     69.585   -46.205
97.9243     69.658   -51.392
99.3486     69.738   -56.623
100.794     69.811   -61.963
102.260     69.882   -67.340
103.747     69.943   -72.770
105.256     69.997   -78.244
106.787     70.043   -83.814
108.340     70.065   -89.514
109.916     70.029   -95.161
111.515     69.986  -100.358
113.137     69.990  -105.552
114.783     69.989  -110.875
116.452     69.976  -116.166
118.146     69.973  -121.388
119.865     69.975  -126.684
121.608     69.971  -132.020
123.377     69.970  -137.348
125.171     69.970  -142.759
126.992     69.970  -148.204
128.839     69.965  -153.753
130.713     69.947  -159.438
132.615     69.890  -165.075
134.543     69.831  -170.602
136.500     69.798  -176.188
138.486     69.767   178.653
140.500     69.706   172.994
142.544     69.630   167.214
144.617     69.581   161.910
146.721     69.522   156.805
148.855     69.521   151.363
151.020     69.531   145.382
153.217     69.445   139.486
155.445     69.407   134.099
157.706     69.391   127.967
160.000     69.165   121.651
162.327     68.995   116.773
164.688     68.973   112.091
167.084     68.972   106.991
169.514     69.022   100.553
171.980     68.858    94.074
174.481     68.685    89.175
177.019     68.618    84.673
179.594     68.622    79.657
182.206     68.619    74.190
184.856     68.675    68.771
187.545     68.749    63.259
190.273     68.796    57.218
193.041     68.789    51.039
195.849     68.779    45.402
198.697     68.832    39.086
201.587     68.831    32.083
204.520     68.641    25.351
207.494     68.421    19.951
210.512     68.213    14.454
213.574     68.342     8.614
216.681     68.397     3.706
219.833     68.314    -1.322
223.030     68.287    -6.831
226.274     68.375   -12.902
229.565     68.376   -18.931
232.905     68.281   -24.549
236.292     68.231   -29.396
239.729     68.146   -35.017
243.216     68.202   -39.778
246.754     68.278   -45.791
250.343     68.275   -52.238
253.984     68.158   -58.066
257.678     68.090   -63.339
261.426     68.072   -68.958
265.229     68.053   -74.918
269.087     67.867   -80.390
273.001     67.786   -84.577
276.972     67.879   -88.760
281.000     67.703   -93.414
285.088     67.826   -99.034
289.234     67.983  -103.994
293.441     68.198  -109.620
297.709     68.189  -116.602
302.040     67.882  -121.982
306.433     67.667  -125.959
310.890     67.793  -129.067
315.412     67.982  -135.037
320.000     67.909  -140.379
324.655     67.805  -145.002
329.377     67.792  -149.313
334.168     67.929  -154.132
339.028     67.659  -160.083
343.959     67.632  -163.034
348.962     67.641  -167.203
354.038     67.639  -170.417
359.188     67.815  -174.957
364.412     67.779   179.999
369.713     67.681   174.756
375.090     67.582   172.104
380.546     67.647   168.958
386.081     67.853   164.186
391.697     67.592   160.039
397.394     67.720   157.431
403.175     67.688   154.082
409.039     67.854   151.163
414.989     67.861   148.227
421.025     68.040   145.046
427.149     68.217   142.198
433.362     68.377   138.466
439.665     68.584   134.301
446.060     68.675   130.242
452.548     68.747   125.868
459.131     68.792   121.791
465.809     68.834   117.585
472.584     68.818   113.152
479.458     68.799   109.091
486.432     68.698   104.817
493.507     68.639   101.051
500.686     68.569    96.899
507.968     68.476    92.800
515.357     68.361    89.042
522.853     68.242    85.528
530.458     68.151    82.089
538.174     68.075    78.830
546.002     68.009    75.656
553.943     67.973    72.602
562.001     67.928    69.629
570.175     67.908    66.611
578.469     67.895    63.650
586.883     67.916    60.694
595.419     67.943    57.801
604.080     67.995    54.849
612.866     68.051    51.922
621.780     68.120    48.818
630.824     68.193    45.589
640.000     68.273    42.354
649.309     68.351    39.063
658.753     68.428    35.663
668.335     68.494    32.109
678.056     68.552    28.495
687.919     68.605    24.818
697.925     68.638    21.118
708.077     68.652    17.417
718.376     68.654    13.700
728.825     68.637    10.008
739.426     68.606     6.296
750.181     68.568     2.696
761.093     68.510    -0.796
772.163     68.445    -4.227
783.394     68.381    -7.477
794.789     68.315   -10.685
806.349     68.252   -13.731
818.078     68.199   -16.674
829.977     68.162   -19.566
842.050     68.139   -22.392
854.298     68.135   -25.211
866.724     68.147   -28.010
879.330     68.177   -30.895
892.120     68.224   -33.936
905.097     68.276   -37.009
918.262     68.330   -40.242
931.618     68.393   -43.581
945.169     68.441   -47.026
958.917     68.484   -50.590
972.864     68.515   -54.210
987.015     68.531   -57.934
1001.37     68.528   -61.699
1015.94     68.513   -65.480
1030.71     68.480   -69.232
1045.71     68.435   -72.991
1060.92     68.380   -76.785
1076.35     68.313   -80.510
1092.00     68.239   -84.170
1107.89     68.163   -87.859
1124.00     68.079   -91.467
1140.35     67.981   -95.020
1156.94     67.887   -98.585
1173.77     67.786  -102.111
1190.84     67.688  -105.541
1208.16     67.587  -108.932
1225.73     67.498  -112.304
1243.56     67.412  -115.657
1261.65     67.335  -119.012
1280.00     67.271  -122.404
1298.62     67.214  -125.847
1317.51     67.159  -129.415
1336.67     67.102  -133.121
1356.11     67.030  -136.960
1375.84     66.958  -140.986
1395.85     66.842  -144.918
1416.15     66.711  -149.011
1436.75     66.557  -152.932
1457.65     66.372  -156.811
1478.85     66.179  -160.508
1500.36     65.983  -164.065
1522.19     65.800  -167.468
1544.33     65.634  -170.789
1566.79     65.499  -174.138
1589.58     65.391  -177.477
1612.70     65.294   179.004
1636.16     65.215   175.310
1659.95     65.142   171.365
1684.10     65.056   167.207
1708.60     64.954   162.785
1733.45     64.832   158.160
1758.66     64.691   153.276
1784.24     64.507   148.256
1810.19     64.281   143.041
1836.52     64.014   137.674
1863.24     63.702   132.277
1890.34     63.327   126.868
1917.83     62.931   121.460
1945.73     62.504   116.140
1974.03     62.059   110.783
2002.74     61.600   105.398
2031.87     61.111    99.847
2061.43     60.635    94.014
2091.41     60.127    87.961
2121.83     59.639    81.578
2152.69     59.144    74.812
2184.01     58.711    67.176
2215.77     58.311    58.417
2248.00     57.963    48.194
2280.70     57.611    36.224
2313.87     57.249    22.395
2347.53     56.892     6.977
2381.68     56.551    -9.370
2416.32     56.248   -26.071
2451.46     56.019   -42.261
2487.12     55.837   -57.140
2523.30     55.716   -69.933
2560.00     55.643   -80.196
2597.24     55.700   -87.662
2635.01     55.990   -92.810
2673.34     56.579   -96.479
2712.23     57.432  -100.390
2751.68     58.385  -105.105
2791.70     59.306  -110.732
2832.31     60.108  -116.429
2873.50     60.831  -122.028
2915.30     61.515  -127.485
2957.70     62.163  -133.011
3000.72     62.742  -138.775
3044.37     63.220  -144.344
3088.65     63.632  -149.545
3133.58     64.023  -154.383
3179.16     64.415  -159.133
3225.40     64.772  -163.971
3272.31     65.074  -168.518
3319.91     65.383  -172.719
3368.20     65.733  -176.891
3417.19     66.088   178.464
3466.89     66.373   173.513
3517.32     66.577   168.711
3568.48     66.759   164.193
3620.39     66.941   159.624
3673.05     67.079   154.905
3726.47     67.147   150.305
3780.67     67.189   145.966
3835.67     67.203   141.595
3891.46     67.130   137.405
3948.06     67.008   133.991
4005.49     66.954   131.077
4063.75     66.933   127.983
4122.86     66.861   125.045
4182.82     66.799   122.866
4243.66     66.872   120.755
4305.39     66.990   117.964
4368.01     67.061   114.793
4431.55     67.095   111.382
4496.01     67.029   107.721
4561.40     66.851   104.737
4627.75     66.712   102.412
4695.06     66.566    99.937
4763.35     66.332    98.258
4832.64     66.228    97.593
4902.93     66.250    96.495
4974.24     66.259    95.510
5046.60     66.419    94.507
5120.00     66.590    92.190
5194.47     66.627    89.749
5270.03     66.654    87.244
5346.68     66.526    84.700
5424.45     66.380    83.574
5503.35     66.349    82.195
5583.40     66.178    81.419
5664.61     66.225    81.982
5747.01     66.397    81.675
5830.60     66.646    81.760
5915.41     67.101    80.654
6001.45     67.503    78.555
6088.74     67.970    74.938
6177.30     68.064    69.945
6267.15     68.001    66.556
6358.31     67.886    63.008
6450.80     67.693    61.123
6544.62     67.676    58.749
6639.82     67.496    56.846
6736.40     67.448    55.172
6834.38     67.296    54.012
6933.79     67.404    52.793
7034.64     67.360    50.771
7136.96     67.401    48.587
7240.77     67.145    46.425
7346.09     67.028    45.589
7452.94     66.844    45.205
7561.35     66.915    44.919
7671.33     66.922    44.939
7782.91     67.211    43.866
7896.12     67.395    42.384
8010.97     67.560    38.985
8127.49     67.456    36.248
8245.71     67.111    33.250
8365.65     66.697    32.510
8487.33     66.310    33.780
8610.78     66.477    33.653
8736.03     66.336    31.880
8863.09     65.965    30.114
8992.01     65.673    30.542
9122.80     65.531    31.300
9255.50     65.652    30.499
9390.12     65.762    28.461
9526.70     65.584    25.655
9665.27     65.395    23.427
9805.86     65.229    21.981
9948.49     65.075    20.882
10093.2     65.068    19.867
10240.0     65.176    18.589
10388.9     65.246    16.854
10540.1     65.204    15.017
10693.4     65.188    13.471
10848.9     65.273    12.223
11006.7     65.403    10.386
11166.8     65.495     7.205
11329.2     65.333     3.127
11494.0     64.920     0.294
11661.2     64.498    -0.252
11830.8     64.340     0.564
12002.9     64.521    -0.075
12177.5     64.601    -3.523
12354.6     64.222    -7.435
12534.3     63.557    -8.451
12716.6     63.234    -6.447
12901.6     63.346    -5.595
13089.2     63.504    -6.906
13279.6     63.372   -10.170
13472.8     62.854   -11.343
13668.8     62.625   -10.155
13867.6     62.740   -10.703
14069.3     62.543   -13.398
14273.9     61.999   -13.796
14481.5     61.832   -11.552
14692.2     62.100   -11.988
14905.9     61.965   -15.949
15122.7     61.127   -17.366
15342.7     60.495   -13.738
15565.8     60.618    -9.253
15792.2     61.068    -8.624
16021.9     61.212   -10.415
16255.0     61.106   -11.397
16491.4     61.010   -11.638
16731.3     61.041   -11.809
16974.7     61.072   -13.517
17221.6     60.797   -15.103
17472.1     60.493   -15.366
17726.2     60.163   -14.756
17984.0     59.935   -12.866
18245.6     60.002   -10.673
18511.0     60.170    -9.152
18780.2     60.487    -8.219
19053.4     60.879    -8.332
19330.5     61.262    -9.491
19611.7     61.704   -11.036
19897.0     62.145   -15.121
20186.4     62.131   -19.263
20480.0     61.897   -23.125
20777.9     61.689   -23.663
21080.1     61.926   -24.314
21386.7     62.078   -27.811
21697.8     62.046   -30.519
22013.4     62.013   -32.556
22333.6     62.104   -33.189
22658.4     62.654   -34.206
22988.0     63.276   -37.842
23322.4     63.891   -41.021
23661.6     65.187   -45.750
24005.8     66.576   -57.504
24355.0     67.509   -73.420
24709.2     67.790   -94.328
25068.6     66.824  -113.009
25433.2     66.333  -127.289
25803.2     65.994  -148.591
26178.5     64.580  -172.056
26559.3     62.845   166.429
26945.6     60.854   143.888
27337.5     58.851   122.005
27735.2     57.348    93.181
28138.6     55.126    55.681
28547.9     53.550    12.226
28963.1     51.859   -51.296
29384.4     46.938  -113.440
29811.8     43.045  -154.738
30245.4     39.236   151.338
30685.3     32.591   107.695
31131.7     27.704    70.748
31584.5     19.854    17.345
32043.9     22.875    76.850
32510.0     19.528  -173.466
32982.8     28.091   144.995
33462.6     33.693   114.895
33949.3     34.899   117.430
34443.1     41.779   108.643
34944.1     43.582    68.138
35452.4     43.144    49.957
35968.0     43.172    27.889
36491.2     40.677     8.658
37022.0     40.506     6.266
37560.5     37.658    -7.555
38106.8     38.803    -5.917
38661.1     38.452   -45.812
39223.4     28.377   -62.459
39793.9     27.450    31.089
