Freq[Hz]     dBSPL  Phase[Deg]
5.00000     -8.681    83.144
5.07273     -8.567    86.453
5.14651     -8.463    90.045
5.22137     -8.387    94.432
5.29732     -8.312    98.819
5.37437     -8.236   103.206
5.45254     -8.161   107.592
5.53185     -7.936   111.712
5.61231     -7.554   115.549
5.69394     -7.171   119.385
5.77676     -6.789   123.222
5.86079     -6.414   127.038
5.94604     -6.487   129.645
6.03252     -6.560   132.252
6.12027     -6.632   134.859
6.20929     -6.705   137.466
6.29961     -6.534   144.697
6.39124     -6.309   152.955
6.48420     -6.083   161.212
6.57851     -5.858   169.469
6.67420     -5.208   172.096
6.77128     -4.488   173.808
6.86977     -3.769   175.521
6.96969     -3.210   177.524
7.07107     -3.872  -178.263
7.17392     -4.533  -174.049
7.27827     -5.195  -169.836
7.38413     -4.829  -161.489
7.49154     -3.669  -149.949
7.60050     -2.509  -138.409
7.71105     -1.465  -129.393
7.82321     -0.932  -131.463
7.93701     -0.400  -133.532
8.05245      0.133  -135.602
8.16958     -0.864  -122.966
8.28841     -1.918  -109.781
8.40896     -2.972   -96.595
8.53128     -0.869   -88.805
8.65537      1.640   -81.712
8.78126      4.150   -74.619
8.90899      4.031   -76.854
9.03857      3.740   -79.701
9.17004      3.576   -79.250
9.30342      4.427   -52.545
9.43874      5.278   -25.840
9.57603      7.067   -10.337
9.71532     10.288   -11.947
9.85663     13.509   -13.556
10.0000     15.066   -15.843
10.1455     16.160   -18.319
10.2930     17.354   -19.424
10.4427     18.832   -16.702
10.5946     20.310   -13.979
10.7487     22.154   -17.815
10.9051     24.071   -22.959
11.0637     25.485   -30.720
11.2246     26.367   -41.250
11.3879     26.961   -51.592
11.5535     26.501   -61.255
11.7216     26.022   -70.741
11.8921     24.460   -69.838
12.0650     22.899   -68.935
12.2405     23.263   -57.902
12.4186     23.875   -45.564
12.5992     25.344   -44.240
12.7825     27.002   -45.359
12.9684     27.957   -50.488
13.1570     28.747   -56.550
13.3484     29.020   -63.133
13.5426     29.208   -69.800
13.7395     28.803   -76.592
13.9394     28.262   -83.057
14.1421     26.865   -87.006
14.3478     25.308   -86.604
14.5565     23.408   -76.845
14.7683     23.277   -63.182
14.9831     24.514   -46.502
15.2010     26.439   -44.066
15.4221     28.303   -45.268
15.6464     29.378   -51.763
15.8740     29.963   -58.835
16.1049     30.158   -66.369
16.3392     29.650   -71.741
16.5768     29.023   -74.871
16.8179     28.259   -74.861
17.0626     28.028   -71.931
17.3107     28.023   -69.466
17.5625     28.258   -68.282
17.8180     28.359   -67.782
18.0771     28.529   -66.811
18.3401     28.800   -65.547
18.6068     29.284   -65.893
18.8775     29.570   -67.703
19.1521     29.652   -69.492
19.4306     29.539   -70.300
19.7133     29.520   -69.156
20.0000     29.620   -68.062
20.2909     29.721   -66.538
20.5860     29.877   -64.069
20.8855     30.300   -60.231
21.1893     31.216   -58.506
21.4975     31.966   -59.847
21.8102     32.328   -61.409
22.1274     32.514   -60.780
22.4492     32.957   -57.904
22.7758     33.919   -55.651
23.1071     35.016   -56.996
23.4432     35.744   -60.466
23.7841     36.111   -62.975
24.1301     36.474   -63.902
24.4811     36.938   -64.561
24.8372     37.385   -65.283
25.1984     37.822   -65.219
25.5649     38.449   -64.459
25.9368     39.306   -64.688
26.3141     40.141   -66.743
26.6968     40.765   -69.335
27.0851     41.310   -71.113
27.4791     41.957   -72.838
27.8788     42.559   -75.453
28.2843     43.006   -77.764
28.6957     43.480   -79.079
29.1131     44.086   -80.429
29.5365     44.716   -82.456
29.9661     45.293   -84.808
30.4020     45.823   -87.163
30.8442     46.326   -89.304
31.2929     46.858   -91.301
31.7480     47.425   -93.565
32.2098     47.946   -96.299
32.6783     48.359   -98.665
33.1536     48.838  -100.321
33.6359     49.423  -102.431
34.1251     49.943  -105.110
34.6215     50.424  -107.477
35.1250     50.940  -109.800
35.6359     51.471  -112.298
36.1543     51.997  -115.013
36.6802     52.497  -117.765
37.2137     53.003  -120.535
37.7550     53.494  -123.397
38.3041     53.988  -126.212
38.8613     54.484  -129.160
39.4265     54.982  -132.177
40.0000     55.466  -135.407
40.5818     55.932  -138.610
41.1721     56.391  -142.060
41.7710     56.801  -145.473
42.3785     57.219  -148.827
42.9949     57.614  -152.339
43.6203     57.943  -155.832
44.2548     58.269  -158.493
44.8985     58.713  -161.460
45.5515     59.120  -164.719
46.2141     59.512  -168.082
46.8863     59.872  -171.173
47.5683     60.283  -174.258
48.2602     60.708  -177.551
48.9621     61.101   179.073
49.6743     61.531   175.629
50.3968     61.909   171.979
51.1299     62.298   168.459
51.8736     62.680   164.800
52.6281     63.050   161.099
53.3936     63.418   157.352
54.1702     63.766   153.579
54.9581     64.122   149.781
55.7575     64.464   145.936
56.5685     64.804   142.035
57.3914     65.129   138.098
58.2261     65.452   134.197
59.0730     65.770   130.171
59.9323     66.070   126.245
60.8040     66.377   122.236
61.6884     66.683   118.339
62.5857     66.991   114.281
63.4960     67.308   110.203
64.4196     67.605   105.963
65.3566     67.893   101.733
66.3073     68.179    97.448
67.2717     68.447    93.123
68.2502     68.714    88.786
69.2429     68.975    84.425
70.2501     69.243    80.051
71.2719     69.502    75.574
72.3086     69.774    70.986
73.3603     70.019    66.233
74.4274     70.244    61.425
75.5099     70.452    56.635
76.6083     70.631    51.832
77.7226     70.803    47.250
78.8531     71.000    42.710
80.0000     71.214    38.018
81.1636     71.426    33.185
82.3442     71.628    28.221
83.5419     71.823    23.126
84.7570     71.991    17.886
85.9899     72.131    12.632
87.2406     72.257     7.457
88.5096     72.386     2.263
89.7970     72.510    -3.034
91.1031     72.620    -8.542
92.4282     72.685   -14.172
93.7726     72.697   -19.732
95.1366     72.674   -24.932
96.5204     72.683   -29.857
97.9243     72.710   -34.849
99.3486     72.743   -39.884
100.794     72.769   -45.025
102.260     72.793   -50.200
103.747     72.807   -55.425
105.256     72.814   -60.691
106.787     72.814   -66.049
108.340     72.789   -71.535
109.916     72.706   -76.965
111.515     72.616   -81.941
113.137     72.573   -86.912
114.783     72.525   -92.008
116.452     72.465   -97.068
118.146     72.416  -102.057
119.865     72.371  -107.116
121.608     72.320  -112.212
123.377     72.272  -117.296
125.171     72.225  -122.459
126.992     72.178  -127.653
128.839     72.126  -132.948
130.713     72.062  -138.374
132.615     71.957  -143.749
134.543     71.851  -149.010
136.500     71.772  -154.326
138.486     71.694  -159.211
140.500     71.586  -164.592
142.544     71.463  -170.091
144.617     71.367  -175.109
146.721     71.261  -179.924
148.855     71.214   174.929
151.020     71.177   169.246
153.217     71.044   163.653
155.445     70.959   158.573
157.706     70.896   152.753
160.000     70.623   146.754
162.327     70.406   142.197
164.688     70.338   137.840
167.084     70.290   133.070
169.514     70.293   126.967
171.980     70.082   120.828
174.481     69.862   116.274
177.019     69.748   112.122
179.594     69.706   107.461
182.206     69.655   102.355
184.856     69.665    97.301
187.545     69.692    92.160
190.273     69.692    86.495
193.041     69.638    80.698
195.849     69.581    75.448
198.697     69.587    69.525
201.587     69.539    62.921
204.520     69.298    56.542
207.494     69.069    51.532
210.512     68.816    46.758
213.574     68.858    41.307
216.681     68.881    36.585
219.833     68.771    32.105
223.030     68.666    27.077
226.274     68.698    21.289
229.565     68.639    15.609
232.905     68.499    10.064
236.292     68.474     5.559
239.729     68.350     0.827
243.216     68.309    -3.486
246.754     68.337    -9.203
250.343     68.271   -15.201
253.984     68.101   -20.761
257.678     68.000   -25.637
261.426     67.935   -30.777
265.229     67.867   -36.249
269.087     67.621   -41.241
273.001     67.480   -45.057
276.972     67.537   -48.852
281.000     67.308   -52.937
285.088     67.382   -58.161
289.234     67.504   -62.327
293.441     67.607   -67.380
297.709     67.544   -73.950
302.040     67.136   -78.795
306.433     66.870   -82.658
310.890     66.972   -85.079
315.412     67.096   -90.366
320.000     66.937   -94.967
324.655     66.740   -99.121
329.377     66.647  -102.904
334.168     66.718  -107.299
339.028     66.379  -112.469
343.959     66.267  -114.943
348.962     66.213  -118.295
354.038     66.106  -120.944
359.188     66.217  -124.765
364.412     66.075  -129.065
369.713     65.892  -133.552
375.090     65.687  -135.453
380.546     65.654  -137.842
386.081     65.762  -141.794
391.697     65.393  -145.056
397.394     65.396  -146.779
403.175     65.266  -149.304
409.039     65.318  -151.186
414.989     65.191  -153.123
421.025     65.264  -155.304
427.149     65.309  -157.067
433.362     65.364  -159.658
439.665     65.444  -162.493
446.060     65.387  -165.194
452.548     65.323  -168.296
459.131     65.252  -170.860
465.809     65.139  -173.618
472.584     65.009  -176.345
479.458     64.857  -178.859
486.432     64.659   178.615
493.507     64.500   176.814
500.686     64.326   174.740
507.968     64.135   172.589
515.357     63.954   170.838
522.853     63.785   169.362
530.458     63.655   167.928
538.174     63.582   166.745
546.002     63.506   165.482
553.943     63.465   164.347
562.001     63.448   163.064
570.175     63.441   161.645
578.469     63.463   160.229
586.883     63.477   158.712
595.419     63.507   157.051
604.080     63.542   155.274
612.866     63.553   153.480
621.780     63.564   151.474
630.824     63.542   149.393
640.000     63.500   147.361
649.309     63.447   145.180
658.753     63.355   143.011
668.335     63.265   140.946
678.056     63.116   139.003
687.919     62.947   137.011
697.925     62.764   135.242
708.077     62.572   133.626
718.376     62.357   132.327
728.825     62.124   131.137
739.426     61.890   130.084
750.181     61.679   129.238
761.093     61.482   128.567
772.163     61.284   128.090
783.394     61.114   127.544
794.789     60.962   127.072
806.349     60.807   126.708
818.078     60.639   125.993
829.977     60.481   125.337
842.050     60.303   124.626
854.298     60.086   123.920
866.724     59.837   123.400
879.330     59.531   122.845
892.120     59.193   122.643
905.097     58.829   122.847
918.262     58.431   123.571
931.618     58.067   124.911
945.169     57.719   126.956
958.917     57.459   129.480
972.864     57.305   132.364
987.015     57.288   135.281
1001.37     57.366   138.009
1015.94     57.567   140.236
1030.71     57.774   141.878
1045.71     58.005   142.943
1060.92     58.237   143.210
1076.35     58.428   143.287
1092.00     58.549   143.035
1107.89     58.639   142.581
1124.00     58.661   141.942
1140.35     58.680   141.335
1156.94     58.652   140.789
1173.77     58.611   140.543
1190.84     58.473   140.196
1208.16     58.332   139.708
1225.73     58.197   139.299
1243.56     58.005   139.237
1261.65     57.765   139.448
1280.00     57.501   139.768
1298.62     57.246   140.729
1317.51     57.036   141.883
1336.67     56.853   143.848
1356.11     56.732   145.393
1375.84     56.659   146.689
1395.85     56.692   147.554
1416.15     56.672   148.383
1436.75     56.583   148.989
1457.65     56.431   149.212
1478.85     56.228   149.976
1500.36     56.009   151.293
1522.19     55.807   153.051
1544.33     55.758   155.148
1566.79     55.813   156.927
1589.58     55.905   157.794
1612.70     56.032   157.342
1636.16     56.025   155.992
1659.95     55.829   154.258
1684.10     55.362   152.632
1708.60     54.706   152.098
1733.45     53.888   153.458
1758.66     53.174   156.842
1784.24     52.747   161.911
1810.19     52.641   166.351
1836.52     52.730   169.126
1863.24     52.737   169.966
1890.34     52.491   170.291
1917.83     51.930   171.164
1945.73     51.221   174.216
1974.03     50.700   179.822
2002.74     50.613  -173.435
2031.87     50.970  -168.543
2061.43     51.309  -165.573
2091.41     51.492  -164.889
2121.83     51.448  -164.111
2152.69     51.302  -162.401
2184.01     51.250  -160.104
2215.77     51.380  -158.341
2248.00     51.516  -158.021
2280.70     51.405  -159.279
2313.87     50.925  -160.045
2347.53     50.194  -158.514
2381.68     49.627  -153.066
2416.32     49.753  -146.234
2451.46     50.487  -142.596
2487.12     51.205  -143.437
2523.30     51.631  -146.803
2560.00     51.618  -150.659
2597.24     51.390  -153.426
2635.01     51.200  -155.495
2673.34     51.095  -157.807
2712.23     50.973  -161.144
2751.68     50.699  -164.846
2791.70     50.385  -167.572
2832.31     50.278  -169.178
2873.50     50.499  -172.047
2915.30     50.865  -178.090
2957.70     50.940   173.961
3000.72     50.658   166.333
3044.37     50.343   161.495
3088.65     50.442   158.597
3133.58     51.065   153.671
3179.16     51.653   145.350
3225.40     51.823   136.221
3272.31     51.697   128.893
3319.91     51.705   124.350
3368.20     52.010   119.497
3417.19     52.228   112.883
3466.89     52.042   106.450
3517.32     51.718   103.360
3568.48     51.843   101.939
3620.39     52.128    97.912
3673.05     52.001    92.376
3726.47     51.439    90.045
3780.67     51.343    91.061
3835.67     51.717    89.800
3891.46     51.776    85.876
3948.06     51.554    84.232
4005.49     51.864    83.235
4063.75     52.264    77.889
4122.86     51.925    71.018
4182.82     51.298    69.027
4243.66     51.451    68.039
4305.39     51.646    61.315
4368.01     50.997    54.910
4431.55     50.507    53.440
4496.01     50.707    49.661
4561.40     50.341    42.368
4627.75     49.605    40.314
4695.06     49.773    38.536
4763.35     49.633    31.333
4832.64     48.705    29.374
4902.93     48.957    31.181
4974.24     49.238    25.720
5046.60     48.559    23.916
5120.00     48.950    26.233
5194.47     49.264    21.705
5270.03     48.885    22.185
5346.68     49.680    23.056
5424.45     49.856    16.900
5503.35     49.482    17.558
5583.40     50.118    16.183
5664.61     49.864    11.294
5747.01     49.769    12.890
5830.60     50.140     8.129
5915.41     49.465     5.108
6001.45     49.524     4.194
6088.74     48.982    -2.492
6177.30     48.221    -1.221
6267.15     48.064    -5.957
6358.31     46.762    -5.977
6450.80     46.948    -4.829
6544.62     46.147    -8.480
6639.82     46.376    -6.422
6736.40     45.968   -14.489
6834.38     45.621   -13.051
6933.79     45.551   -22.484
7034.64     44.358   -22.225
7136.96     44.374   -28.040
7240.77     43.067   -25.882
7346.09     43.345   -29.576
7452.94     42.015   -25.760
7561.35     42.241   -27.864
7671.33     41.220   -19.101
7782.91     41.960   -21.169
7896.12     41.788   -14.837
8010.97     41.840   -21.608
8127.49     41.282   -14.306
8245.71     40.530   -16.898
8365.65     41.286   -11.063
8487.33     40.216   -16.823
8610.78     39.898   -21.639
8736.03     37.563   -18.677
8863.09     36.489   -24.401
8992.01     34.879   -12.706
9122.80     32.584   -14.080
9255.50     32.369    -6.862
9390.12     30.930    10.812
9526.70     31.671     6.633
9665.27     32.340     6.367
9805.86     30.239     7.228
9948.49     30.184     5.121
10093.2     31.027    16.536
10240.0     30.438    21.168
10388.9     31.020    20.241
10540.1     32.775    24.158
10693.4     32.925    26.404
10848.9     32.363    21.251
11006.7     32.508    20.833
11166.8     32.658    32.721
11329.2     33.417    39.096
11494.0     33.951    39.275
11661.2     35.136    36.091
11830.8     35.408    32.544
12002.9     35.476    31.521
12177.5     34.935    31.144
12354.6     34.854    33.115
12534.3     35.208    33.660
12716.6     35.842    32.379
12901.6     36.164    29.394
13089.2     36.337    27.715
13279.6     36.528    25.250
13472.8     36.672    23.318
13668.8     36.853    22.084
13867.6     37.219    18.916
14069.3     37.334    15.344
14273.9     37.249    13.127
14481.5     37.432    10.669
14692.2     37.501     5.523
14905.9     37.283     0.312
15122.7     36.789    -6.691
15342.7     35.799   -12.976
15565.8     34.599   -15.819
15792.2     34.011   -16.147
16021.9     33.692   -16.532
16255.0     33.229   -20.675
16491.4     32.875   -24.645
16731.3     32.178   -27.700
16974.7     30.143   -28.377
17221.6     28.463   -19.443
17472.1     29.301   -15.842
17726.2     29.515   -18.178
17984.0     28.461   -29.714
18245.6     26.987   -29.282
18511.0     26.022   -35.910
18780.2     25.360   -36.683
19053.4     24.245   -39.382
19330.5     24.024   -38.203
19611.7     23.559   -32.495
19897.0     23.802   -38.286
20186.4     21.064   -40.015
20480.0     19.667   -34.593
20777.9     16.439  -179.646
21080.1     14.196   142.661
21386.7     12.684  -112.613
21697.8     14.054    44.472
22013.4     13.176   -35.538
22333.6     12.205   -61.741
22658.4     16.977  -176.300
22988.0     18.069   -17.407
23322.4     20.365   -14.107
23661.6     23.031    50.385
24005.8     24.517  -141.929
24355.0     25.069     0.142
24709.2     23.886   -21.979
25068.6     21.354    -5.875
25433.2     19.210   -16.654
25803.2     21.340    -4.290
26178.5     23.833    -7.057
26559.3     27.085   -24.410
26945.6     28.390   -44.989
27337.5     28.667   -63.654
27735.2     28.814   -81.368
28138.6     29.002  -102.577
28547.9     28.477  -123.255
28963.1     27.769  -140.022
29384.4     26.626  -152.159
29811.8     24.640  -168.477
30245.4     23.646   179.183
30685.3     23.335   166.942
31131.7     22.608   149.492
31584.5     20.538   144.677
32043.9     17.667  -138.975
32510.0     14.988   155.899
32982.8     15.639  -172.613
33462.6     16.642   141.341
33949.3     18.650  -146.044
34443.1     19.356  -110.452
34944.1     18.259  -155.470
35452.4     17.941    54.300
35968.0     15.565  -117.023
36491.2     14.419   -32.065
37022.0     13.036    76.461
37560.5     14.403   -21.358
38106.8     14.480   -63.442
38661.1     13.556  -131.779
39223.4     13.342   -71.598
39793.9     13.288  -134.199
