"SPL Horizontal"
"On-Axis"		"10°"		"-10°"		"20°"		"-20°"		"30°"		"-30°"		"40°"		"-40°"		"50°"		"-50°"		"60°"		"-60°"		"70°"		"-70°"		"80°"		"-80°"		"90°"		"-90°"		"100°"		"-100°"		"110°"		"-110°"		"120°"		"-120°"		"130°"		"-130°"		"140°"		"-140°"		"150°"		"-150°"		"160°"		"-160°"		"170°"		"-170°"		"180°"
"Frequency / Hz"	"Sound Pressure Level / dB (re 20 µPa/V)  [2.83  V @ 1. m]"	"Frequency / Hz"	"Sound Pressure Level / dB (re 20 µPa/V)  [2.83  V @ 1. m]"	"Frequency / Hz"	"Sound Pressure Level / dB (re 20 µPa/V)  [2.83  V @ 1. m]"	"Frequency / Hz"	"Sound Pressure Level / dB (re 20 µPa/V)  [2.83  V @ 1. m]"	"Frequency / Hz"	"Sound Pressure Level / dB (re 20 µPa/V)  [2.83  V @ 1. m]"	"Frequency / Hz"	"Sound Pressure Level / dB (re 20 µPa/V)  [2.83  V @ 1. m]"	"Frequency / Hz"	"Sound Pressure Level / dB (re 20 µPa/V)  [2.83  V @ 1. m]"	"Frequency / Hz"	"Sound Pressure Level / dB (re 20 µPa/V)  [2.83  V @ 1. m]"	"Frequency / Hz"	"Sound Pressure Level / dB (re 20 µPa/V)  [2.83  V @ 1. m]"	"Frequency / Hz"	"Sound Pressure Level / dB (re 20 µPa/V)  [2.83  V @ 1. m]"	"Frequency / Hz"	"Sound Pressure Level / dB (re 20 µPa/V)  [2.83  V @ 1. m]"	"Frequency / Hz"	"Sound Pressure Level / dB (re 20 µPa/V)  [2.83  V @ 1. m]"	"Frequency / Hz"	"Sound Pressure Level / dB (re 20 µPa/V)  [2.83  V @ 1. m]"	"Frequency / Hz"	"Sound Pressure Level / dB (re 20 µPa/V)  [2.83  V @ 1. m]"	"Frequency / Hz"	"Sound Pressure Level / dB (re 20 µPa/V)  [2.83  V @ 1. m]"	"Frequency / Hz"	"Sound Pressure Level / dB (re 20 µPa/V)  [2.83  V @ 1. m]"	"Frequency / Hz"	"Sound Pressure Level / dB (re 20 µPa/V)  [2.83  V @ 1. m]"	"Frequency / Hz"	"Sound Pressure Level / dB (re 20 µPa/V)  [2.83  V @ 1. m]"	"Frequency / Hz"	"Sound Pressure Level / dB (re 20 µPa/V)  [2.83  V @ 1. m]"	"Frequency / Hz"	"Sound Pressure Level / dB (re 20 µPa/V)  [2.83  V @ 1. m]"	"Frequency / Hz"	"Sound Pressure Level / dB (re 20 µPa/V)  [2.83  V @ 1. m]"	"Frequency / Hz"	"Sound Pressure Level / dB (re 20 µPa/V)  [2.83  V @ 1. m]"	"Frequency / Hz"	"Sound Pressure Level / dB (re 20 µPa/V)  [2.83  V @ 1. m]"	"Frequency / Hz"	"Sound Pressure Level / dB (re 20 µPa/V)  [2.83  V @ 1. m]"	"Frequency / Hz"	"Sound Pressure Level / dB (re 20 µPa/V)  [2.83  V @ 1. m]"	"Frequency / Hz"	"Sound Pressure Level / dB (re 20 µPa/V)  [2.83  V @ 1. m]"	"Frequency / Hz"	"Sound Pressure Level / dB (re 20 µPa/V)  [2.83  V @ 1. m]"	"Frequency / Hz"	"Sound Pressure Level / dB (re 20 µPa/V)  [2.83  V @ 1. m]"	"Frequency / Hz"	"Sound Pressure Level / dB (re 20 µPa/V)  [2.83  V @ 1. m]"	"Frequency / Hz"	"Sound Pressure Level / dB (re 20 µPa/V)  [2.83  V @ 1. m]"	"Frequency / Hz"	"Sound Pressure Level / dB (re 20 µPa/V)  [2.83  V @ 1. m]"	"Frequency / Hz"	"Sound Pressure Level / dB (re 20 µPa/V)  [2.83  V @ 1. m]"	"Frequency / Hz"	"Sound Pressure Level / dB (re 20 µPa/V)  [2.83  V @ 1. m]"	"Frequency / Hz"	"Sound Pressure Level / dB (re 20 µPa/V)  [2.83  V @ 1. m]"	"Frequency / Hz"	"Sound Pressure Level / dB (re 20 µPa/V)  [2.83  V @ 1. m]"	"Frequency / Hz"	"Sound Pressure Level / dB (re 20 µPa/V)  [2.83  V @ 1. m]"
20.5078	70.8412	20.5078	70.8169	20.5078	70.8398	20.5078	70.7669	20.5078	70.8127	20.5078	70.6913	20.5078	70.7606	20.5078	70.59	20.5078	70.6846	20.5078	70.4632	20.5078	70.5869	20.5078	70.3117	20.5078	70.4707	20.5078	70.1376	20.5078	70.3396	20.5078	69.9447	20.5078	70.1976	20.5078	69.7384	20.5078	70.0486	20.5078	69.5258	20.5078	69.8961	20.5078	69.3155	20.5078	69.743	20.5078	69.1177	20.5078	69.5916	20.5078	68.9445	20.5078	69.4432	20.5078	68.8089	20.5078	69.2981	20.5078	68.7223	20.5078	69.1566	20.5078	68.6919	20.5078	69.0202	20.5078	68.7168	20.5078	68.8943	20.5078	68.7887
21.9727	72.2306	21.9727	72.2401	21.9727	72.2064	21.9727	72.235	21.9727	72.1669	21.9727	72.2153	21.9727	72.1116	21.9727	72.1809	21.9727	72.0406	21.9727	72.1312	21.9727	71.954	21.9727	72.0662	21.9727	71.8533	21.9727	71.9861	21.9727	71.7404	21.9727	71.8918	21.9727	71.6184	21.9727	71.7853	21.9727	71.4908	21.9727	71.6695	21.9727	71.3619	21.9727	71.5484	21.9727	71.2362	21.9727	71.4258	21.9727	71.1187	21.9727	71.3058	21.9727	71.015	21.9727	71.192	21.9727	70.9307	21.9727	71.0875	21.9727	70.8711	21.9727	70.9958	21.9727	70.84	21.9727	70.9208	21.9727	70.839	21.9727	70.8671
23.4375	73.2076	23.4375	73.1936	23.4375	73.2081	23.4375	73.1664	23.4375	73.1946	23.4375	73.1265	23.4375	73.1669	23.4375	73.0744	23.4375	73.1253	23.4375	73.0104	23.4375	73.0704	23.4375	72.9353	23.4375	73.0032	23.4375	72.8499	23.4375	72.9256	23.4375	72.7559	23.4375	72.8397	23.4375	72.6558	23.4375	72.7483	23.4375	72.5532	23.4375	72.6543	23.4375	72.4527	23.4375	72.5611	23.4375	72.3592	23.4375	72.4718	23.4375	72.2777	23.4375	72.3894	23.4375	72.2123	23.4375	72.3162	23.4375	72.1658	23.4375	72.2538	23.4375	72.139	23.4375	72.2032	23.4375	72.1312	23.4375	72.1651	23.4375	72.1406
24.9023	74.1895	24.9023	74.1851	24.9023	74.1814	24.9023	74.1683	24.9023	74.1607	24.9023	74.1393	24.9023	74.1274	24.9023	74.0985	24.9023	74.0818	24.9023	74.0463	24.9023	74.0243	24.9023	73.983	24.9023	73.9559	24.9023	73.9095	24.9023	73.8777	24.9023	73.8265	24.9023	73.7913	24.9023	73.7354	24.9023	73.6988	24.9023	73.6377	24.9023	73.6027	24.9023	73.5361	24.9023	73.5057	24.9023	73.4337	24.9023	73.4111	24.9023	73.3352	24.9023	73.3221	24.9023	73.2456	24.9023	73.242	24.9023	73.1706	24.9023	73.1738	24.9023	73.1148	24.9023	73.1208	24.9023	73.0816	24.9023	73.086	24.9023	73.0722
26.3672	74.5694	26.3672	74.518	26.3672	74.6114	26.3672	74.4578	26.3672	74.6432	26.3672	74.3902	26.3672	74.6646	26.3672	74.3164	26.3672	74.6754	26.3672	74.2383	26.3672	74.6756	26.3672	74.1579	26.3672	74.6657	26.3672	74.0775	26.3672	74.6458	26.3672	73.9998	26.3672	74.6165	26.3672	73.9275	26.3672	74.578	26.3672	73.8634	26.3672	74.5304	26.3672	73.8101	26.3672	74.4739	26.3672	73.7701	26.3672	74.4084	26.3672	73.7456	26.3672	74.3344	26.3672	73.7389	26.3672	74.2528	26.3672	73.7517	26.3672	74.1655	26.3672	73.7847	26.3672	74.0756	26.3672	73.8371	26.3672	73.9874	26.3672	73.9061
27.832	74.782	27.832	74.8002	27.832	74.7541	27.832	74.8084	27.832	74.7169	27.832	74.8068	27.832	74.6716	27.832	74.7957	27.832	74.6198	27.832	74.7761	27.832	74.5633	27.832	74.7491	27.832	74.5046	27.832	74.716	27.832	74.4464	27.832	74.6786	27.832	74.3915	27.832	74.6383	27.832	74.3421	27.832	74.5966	27.832	74.3003	27.832	74.5544	27.832	74.267	27.832	74.5119	27.832	74.2425	27.832	74.4692	27.832	74.2268	27.832	74.4262	27.832	74.2193	27.832	74.3835	27.832	74.2201	27.832	74.3423	27.832	74.2291	27.832	74.3044	27.832	74.2465	27.832	74.2719
29.2969	76.1479	29.2969	76.1484	29.2969	76.1325	29.2969	76.134	29.2969	76.1025	29.2969	76.1049	29.2969	76.0583	29.2969	76.0614	29.2969	76.0007	29.2969	76.0043	29.2969	75.9308	29.2969	75.9345	29.2969	75.8497	29.2969	75.8532	29.2969	75.7593	29.2969	75.762	29.2969	75.6614	29.2969	75.6628	29.2969	75.5584	29.2969	75.5576	29.2969	75.4532	29.2969	75.4488	29.2969	75.3488	29.2969	75.3393	29.2969	75.2484	29.2969	75.2327	29.2969	75.1554	29.2969	75.1337	29.2969	75.073	29.2969	75.0479	29.2969	75.0047	29.2969	74.9805	29.2969	74.9537	29.2969	74.9361	29.2969	74.9235	29.2969	74.917
30.7617	76.7596	30.7617	76.7542	30.7617	76.7506	30.7617	76.7344	30.7617	76.7275	30.7617	76.7006	30.7617	76.6905	30.7617	76.6531	30.7617	76.6402	30.7617	76.5926	30.7617	76.5774	30.7617	76.5202	30.7617	76.5034	30.7617	76.4371	30.7617	76.4195	30.7617	76.345	30.7617	76.3278	30.7617	76.2459	30.7617	76.2307	30.7617	76.1421	30.7617	76.1312	30.7617	76.0367	30.7617	76.0325	30.7617	75.933	30.7617	75.9378	30.7617	75.8351	30.7617	75.8497	30.7617	75.7478	30.7617	75.7705	30.7617	75.6761	30.7617	75.7024	30.7617	75.6245	30.7617	75.6478	30.7617	75.596	30.7617	75.6098	30.7617	75.5915
32.2266	76.8205	32.2266	76.8151	32.2266	76.8134	32.2266	76.7975	32.2266	76.7943	32.2266	76.7678	32.2266	76.7633	32.2266	76.7265	32.2266	76.7211	32.2266	76.6744	32.2266	76.6685	32.2266	76.6125	32.2266	76.6064	32.2266	76.5418	32.2266	76.5359	32.2266	76.4639	32.2266	76.4585	32.2266	76.3802	32.2266	76.376	32.2266	76.2927	32.2266	76.2905	32.2266	76.2035	32.2266	76.2046	32.2266	76.115	32.2266	76.121	32.2266	76.0305	32.2266	76.0424	32.2266	75.9541	32.2266	75.9713	32.2266	75.8904	32.2266	75.9102	32.2266	75.8438	32.2266	75.8614	32.2266	75.8173	32.2266	75.8278	32.2266	75.8123
33.6914	77.3133	33.6914	77.3099	33.6914	77.3027	33.6914	77.2925	33.6914	77.2786	33.6914	77.2614	33.6914	77.2419	33.6914	77.217	33.6914	77.1933	33.6914	77.1603	33.6914	77.1343	33.6914	77.0928	33.6914	77.0662	33.6914	77.0162	33.6914	76.9908	33.6914	76.9322	33.6914	76.91	33.6914	76.8433	33.6914	76.8259	33.6914	76.7519	33.6914	76.741	33.6914	76.6608	33.6914	76.6577	33.6914	76.5731	33.6914	76.5785	33.6914	76.4921	33.6914	76.5057	33.6914	76.4216	33.6914	76.441	33.6914	76.365	33.6914	76.3864	33.6914	76.325	33.6914	76.3434	33.6914	76.3033	33.6914	76.3139	33.6914	76.2999
35.1562	77.8129	35.1562	77.8164	35.1562	77.7943	35.1562	77.8046	35.1562	77.7611	35.1562	77.7777	35.1562	77.7139	35.1562	77.7361	35.1562	77.6537	35.1562	77.6806	35.1562	77.5818	35.1562	77.6123	35.1562	77.4998	35.1562	77.5326	35.1562	77.4096	35.1562	77.4432	35.1562	77.3135	35.1562	77.346	35.1562	77.2142	35.1562	77.2434	35.1562	77.1145	35.1562	77.1378	35.1562	77.0174	35.1562	77.0324	35.1562	76.9259	35.1562	76.9311	35.1562	76.8427	35.1562	76.8384	35.1562	76.7703	35.1562	76.759	35.1562	76.7111	35.1562	76.6973	35.1562	76.6677	35.1562	76.6566	35.1562	76.6427	35.1562	76.6384
36.6211	77.9231	36.6211	77.9267	36.6211	77.9051	36.6211	77.9163	36.6211	77.8731	36.6211	77.8922	36.6211	77.8276	36.6211	77.8553	36.6211	77.7693	36.6211	77.8066	36.6211	77.6995	36.6211	77.7475	36.6211	77.6197	36.6211	77.6796	36.6211	77.532	36.6211	77.6044	36.6211	77.439	36.6211	77.5237	36.6211	77.3437	36.6211	77.4391	36.6211	77.2496	36.6211	77.3524	36.6211	77.1605	36.6211	77.2656	36.6211	77.08	36.6211	77.1812	36.6211	77.0113	36.6211	77.1023	36.6211	76.9567	36.6211	77.032	36.6211	76.9177	36.6211	76.9736	36.6211	76.8952	36.6211	76.9294	36.6211	76.8896	36.6211	76.9011
38.0859	79.0403	38.0859	79.0006	38.0859	79.0628	38.0859	78.9441	38.0859	79.0677	38.0859	78.8715	38.0859	79.0546	38.0859	78.7832	38.0859	79.023	38.0859	78.6802	38.0859	78.9725	38.0859	78.5633	38.0859	78.9027	38.0859	78.4337	38.0859	78.8133	38.0859	78.2929	38.0859	78.7042	38.0859	78.1429	38.0859	78.5757	38.0859	77.9862	38.0859	78.4287	38.0859	77.8261	38.0859	78.2653	38.0859	77.6678	38.0859	78.0891	38.0859	77.5178	38.0859	77.9057	38.0859	77.3851	38.0859	77.7232	38.0859	77.2795	38.0859	77.5517	38.0859	77.2111	38.0859	77.4024	38.0859	77.1876	38.0859	77.2865	38.0859	77.213
39.5508	79.1767	39.5508	79.167	39.5508	79.1755	39.5508	79.1462	39.5508	79.1635	39.5508	79.1148	39.5508	79.1412	39.5508	79.0732	39.5508	79.1093	39.5508	79.0224	39.5508	79.0684	39.5508	78.9637	39.5508	79.0193	39.5508	78.8986	39.5508	78.9629	39.5508	78.8289	39.5508	78.9	39.5508	78.7564	39.5508	78.8317	39.5508	78.6832	39.5508	78.7591	39.5508	78.6109	39.5508	78.6838	39.5508	78.5417	39.5508	78.6077	39.5508	78.4774	39.5508	78.5336	39.5508	78.4202	39.5508	78.4645	39.5508	78.3724	39.5508	78.4043	39.5508	78.3366	39.5508	78.3569	39.5508	78.3156	39.5508	78.3253	39.5508	78.3114
41.0156	79.1113	41.0156	79.1126	41.0156	79.1075	41.0156	79.1112	41.0156	79.102	41.0156	79.1074	41.0156	79.096	41.0156	79.1021	41.0156	79.0909	41.0156	79.0967	41.0156	79.0885	41.0156	79.0928	41.0156	79.0903	41.0156	79.0924	41.0156	79.0978	41.0156	79.0972	41.0156	79.1121	41.0156	79.1087	41.0156	79.1335	41.0156	79.1277	41.0156	79.1619	41.0156	79.154	41.0156	79.196	41.0156	79.1863	41.0156	79.2336	41.0156	79.2225	41.0156	79.2717	41.0156	79.2597	41.0156	79.3069	41.0156	79.2948	41.0156	79.3357	41.0156	79.325	41.0156	79.3552	41.0156	79.3478	41.0156	79.3639	41.0156	79.3612
42.4805	79.7026	42.4805	79.6989	42.4805	79.6906	42.4805	79.6797	42.4805	79.6636	42.4805	79.6455	42.4805	79.6224	42.4805	79.5974	42.4805	79.5684	42.4805	79.5371	42.4805	79.5037	42.4805	79.4668	42.4805	79.4305	42.4805	79.3892	42.4805	79.3516	42.4805	79.3075	42.4805	79.27	42.4805	79.2249	42.4805	79.1889	42.4805	79.1449	42.4805	79.1115	42.4805	79.0707	42.4805	79.0409	42.4805	79.0048	42.4805	78.9796	42.4805	78.9494	42.4805	78.9297	42.4805	78.9059	42.4805	78.892	42.4805	78.8745	42.4805	78.8661	42.4805	78.8544	42.4805	78.8503	42.4805	78.8436	42.4805	78.8421	42.4805	78.8399
43.9453	80.3526	43.9453	80.3515	43.9453	80.3366	43.9453	80.3335	43.9453	80.3038	43.9453	80.2989	43.9453	80.2545	43.9453	80.2485	43.9453	80.1895	43.9453	80.1833	43.9453	80.1101	43.9453	80.1049	43.9453	80.0177	43.9453	80.0148	43.9453	79.9145	43.9453	79.9152	43.9453	79.8029	43.9453	79.8084	43.9453	79.6863	43.9453	79.697	43.9453	79.5681	43.9453	79.5836	43.9453	79.4521	43.9453	79.4714	43.9453	79.3425	43.9453	79.3637	43.9453	79.243	43.9453	79.2641	43.9453	79.1578	43.9453	79.1768	43.9453	79.0907	43.9453	79.1058	43.9453	79.045	43.9453	79.0548	43.9453	79.0232	43.9453	79.0266
45.4102	80.6323	45.4102	80.6266	45.4102	80.6265	45.4102	80.6097	45.4102	80.6095	45.4102	80.5819	45.4102	80.5814	45.4102	80.544	45.4102	80.5429	45.4102	80.4966	45.4102	80.4949	45.4102	80.4411	45.4102	80.4385	45.4102	80.3784	45.4102	80.3753	45.4102	80.3102	45.4102	80.307	45.4102	80.2379	45.4102	80.2358	45.4102	80.1632	45.4102	80.164	45.4102	80.0883	45.4102	80.0936	45.4102	80.0155	45.4102	80.0267	45.4102	79.9477	45.4102	79.9648	45.4102	79.8879	45.4102	79.9093	45.4102	79.8395	45.4102	79.8616	45.4102	79.805	45.4102	79.8235	45.4102	79.7863	45.4102	79.7968	45.4102	79.7839
46.875	80.511	46.875	80.507	46.875	80.5059	46.875	80.494	46.875	80.4918	46.875	80.4728	46.875	80.4696	46.875	80.4445	46.875	80.4406	46.875	80.4107	46.875	80.4064	46.875	80.3736	46.875	80.3693	46.875	80.3353	46.875	80.3315	46.875	80.298	46.875	80.2957	46.875	80.2639	46.875	80.2645	46.875	80.2343	46.875	80.24	46.875	80.2105	46.875	80.2235	46.875	80.1931	46.875	80.2153	46.875	80.1824	46.875	80.214	46.875	80.1786	46.875	80.2169	46.875	80.1812	46.875	80.2204	46.875	80.1889	46.875	80.2214	46.875	80.1996	46.875	80.218	46.875	80.2102
48.3398	80.5844	48.3398	80.579	48.3398	80.5813	48.3398	80.5655	48.3398	80.5701	48.3398	80.5448	48.3398	80.5519	48.3398	80.5189	48.3398	80.5286	48.3398	80.4902	48.3398	80.5025	48.3398	80.4614	48.3398	80.4764	48.3398	80.4357	48.3398	80.4534	48.3398	80.4156	48.3398	80.4364	48.3398	80.4036	48.3398	80.4277	48.3398	80.4011	48.3398	80.429	48.3398	80.4084	48.3398	80.4406	48.3398	80.425	48.3398	80.4615	48.3398	80.4493	48.3398	80.4891	48.3398	80.4788	48.3398	80.5193	48.3398	80.5101	48.3398	80.5472	48.3398	80.5394	48.3398	80.5682	48.3398	80.5628	48.3398	80.5785	48.3398	80.5766
51.2695	82.4492	51.2695	82.4613	51.2695	82.4063	51.2695	82.4426	51.2695	82.3332	51.2695	82.3934	51.2695	82.2307	51.2695	82.3144	51.2695	82.1003	51.2695	82.2068	51.2695	81.9444	51.2695	82.0727	51.2695	81.7663	51.2695	81.9152	51.2695	81.5707	51.2695	81.7389	51.2695	81.3636	51.2695	81.5493	51.2695	81.1528	51.2695	81.3535	51.2695	80.947	51.2695	81.1586	51.2695	80.7552	51.2695	80.972	51.2695	80.586	51.2695	80.7998	51.2695	80.4464	51.2695	80.647	51.2695	80.3413	51.2695	80.5165	51.2695	80.2727	51.2695	80.4098	51.2695	80.2399	51.2695	80.3275	51.2695	80.2402	51.2695	80.2704
52.7344	82.8329	52.7344	82.8404	52.7344	82.7914	52.7344	82.8137	52.7344	82.7164	52.7344	82.753	52.7344	82.6086	52.7344	82.6589	52.7344	82.4692	52.7344	82.5323	52.7344	82.2996	52.7344	82.3751	52.7344	82.1019	52.7344	82.1898	52.7344	81.8792	52.7344	81.9795	52.7344	81.6355	52.7344	81.7479	52.7344	81.3762	52.7344	81.4995	52.7344	81.1084	52.7344	81.2396	52.7344	80.8406	52.7344	80.9747	52.7344	80.583	52.7344	80.7129	52.7344	80.3468	52.7344	80.4648	52.7344	80.1433	52.7344	80.2421	52.7344	79.9833	52.7344	80.0573	52.7344	79.8761	52.7344	79.9217	52.7344	79.8285	52.7344	79.8438
54.1992	82.2628	54.1992	82.2699	54.1992	82.2285	54.1992	82.2498	54.1992	82.167	54.1992	82.2029	54.1992	82.079	54.1992	82.1298	54.1992	81.9655	54.1992	82.0316	54.1992	81.8282	54.1992	81.9096	54.1992	81.6692	54.1992	81.7657	54.1992	81.4917	54.1992	81.6024	54.1992	81.2996	54.1992	81.423	54.1992	81.098	54.1992	81.2321	54.1992	80.8933	54.1992	81.035	54.1992	80.6934	54.1992	80.8382	54.1992	80.5073	54.1992	80.649	54.1992	80.3438	54.1992	80.4747	54.1992	80.2108	54.1992	80.3225	54.1992	80.1134	54.1992	80.1985	54.1992	80.0542	54.1992	80.1073	54.1992	80.0338	54.1992	80.0518
55.6641	82.0298	55.6641	82.0143	55.6641	82.0261	55.6641	81.9801	55.6641	82.0029	55.6641	81.928	55.6641	81.9601	55.6641	81.8587	55.6641	81.8977	55.6641	81.7732	55.6641	81.816	55.6641	81.6727	55.6641	81.7155	55.6641	81.5585	55.6641	81.5971	55.6641	81.432	55.6641	81.4622	55.6641	81.2949	55.6641	81.3126	55.6641	81.1495	55.6641	81.1513	55.6641	80.9986	55.6641	80.9826	55.6641	80.8465	55.6641	80.813	55.6641	80.6983	55.6641	80.6511	55.6641	80.5606	55.6641	80.5061	55.6641	80.4401	55.6641	80.3874	55.6641	80.344	55.6641	80.3022	55.6641	80.2781	55.6641	80.2551	55.6641	80.2474
58.5938	82.488	58.5938	82.4634	58.5938	82.5	58.5938	82.4266	58.5938	82.4991	58.5938	82.3781	58.5938	82.4855	58.5938	82.3187	58.5938	82.4591	58.5938	82.2495	58.5938	82.4202	58.5938	82.1718	58.5938	82.3692	58.5938	82.0872	58.5938	82.3066	58.5938	81.9978	58.5938	82.2334	58.5938	81.9061	58.5938	82.1511	58.5938	81.8152	58.5938	82.0618	58.5938	81.7284	58.5938	81.9683	58.5938	81.6496	58.5938	81.8742	58.5938	81.5824	58.5938	81.7832	58.5938	81.5298	58.5938	81.6992	58.5938	81.4937	58.5938	81.6256	58.5938	81.4748	58.5938	81.5648	58.5938	81.473	58.5938	81.5186	58.5938	81.4878
60.0586	82.6355	60.0586	82.5995	60.0586	82.6572	60.0586	82.5496	60.0586	82.6645	60.0586	82.4867	60.0586	82.6576	60.0586	82.4119	60.0586	82.6373	60.0586	82.3271	60.0586	82.6042	60.0586	82.2347	60.0586	82.5594	60.0586	82.1375	60.0586	82.5044	60.0586	82.0387	60.0586	82.4406	60.0586	81.9421	60.0586	82.3698	60.0586	81.8517	60.0586	82.2941	60.0586	81.7714	60.0586	82.2154	60.0586	81.7053	60.0586	82.1355	60.0586	81.6568	60.0586	82.056	60.0586	81.6285	60.0586	81.9782	60.0586	81.6215	60.0586	81.9033	60.0586	81.6348	60.0586	81.8328	60.0586	81.666	60.0586	81.7681	60.0586	81.7116
62.9883	83.0518	62.9883	83.0382	62.9883	83.0497	62.9883	83.0091	62.9883	83.0318	62.9883	82.9653	62.9883	82.9984	62.9883	82.908	62.9883	82.9504	62.9883	82.8386	62.9883	82.8888	62.9883	82.7592	62.9883	82.815	62.9883	82.6717	62.9883	82.7307	62.9883	82.5787	62.9883	82.638	62.9883	82.4825	62.9883	82.5394	62.9883	82.3858	62.9883	82.4377	62.9883	82.2912	62.9883	82.336	62.9883	82.2015	62.9883	82.2379	62.9883	82.1194	62.9883	82.1468	62.9883	82.0477	62.9883	82.0665	62.9883	81.989	62.9883	82.0002	62.9883	81.9454	62.9883	81.9509	62.9883	81.9185	62.9883	81.9206	62.9883	81.9099
64.4531	82.9965	64.4531	82.9902	64.4531	82.9903	64.4531	82.9716	64.4531	82.972	64.4531	82.9414	64.4531	82.9424	64.4531	82.9008	64.4531	82.9026	64.4531	82.8515	64.4531	82.8544	64.4531	82.7956	64.4531	82.7993	64.4531	82.7355	64.4531	82.7393	64.4531	82.6736	64.4531	82.6764	64.4531	82.6123	64.4531	82.6124	64.4531	82.5536	64.4531	82.5491	64.4531	82.4992	64.4531	82.4884	64.4531	82.4501	64.4531	82.4321	64.4531	82.4068	64.4531	82.3822	64.4531	82.3693	64.4531	82.3404	64.4531	82.3376	64.4531	82.3086	64.4531	82.3118	64.4531	82.288	64.4531	82.2925	64.4531	82.279	64.4531	82.281
67.3828	83.3335	67.3828	83.3216	67.3828	83.3305	67.3828	83.2952	67.3828	83.3128	67.3828	83.2551	67.3828	83.2812	67.3828	83.203	67.3828	83.2368	67.3828	83.1407	67.3828	83.1816	67.3828	83.071	67.3828	83.1177	67.3828	82.9967	67.3828	83.048	67.3828	82.9212	67.3828	82.9751	67.3828	82.8481	67.3828	82.9022	67.3828	82.7805	67.3828	82.8321	67.3828	82.7212	67.3828	82.7673	67.3828	82.672	67.3828	82.7101	67.3828	82.6334	67.3828	82.6621	67.3828	82.6049	67.3828	82.6241	67.3828	82.585	67.3828	82.5961	67.3828	82.5722	67.3828	82.5775	67.3828	82.5651	67.3828	82.567	67.3828	82.5632
68.8477	83.44	68.8477	83.4266	68.8477	83.4389	68.8477	83.3993	68.8477	83.4233	68.8477	83.3592	68.8477	83.3936	68.8477	83.3079	68.8477	83.3507	68.8477	83.2475	68.8477	83.2964	68.8477	83.1802	68.8477	83.2327	68.8477	83.1089	68.8477	83.1622	68.8477	83.0362	68.8477	83.0878	68.8477	82.9651	68.8477	83.0126	68.8477	82.8982	68.8477	82.9398	68.8477	82.8381	68.8477	82.8721	68.8477	82.7863	68.8477	82.8123	68.8477	82.7439	68.8477	82.762	68.8477	82.7109	68.8477	82.7224	68.8477	82.6869	68.8477	82.6932	68.8477	82.6708	68.8477	82.6738	68.8477	82.6617	68.8477	82.6628	68.8477	82.659
71.7773	83.6535	71.7773	83.613	71.7773	83.677	71.7773	83.5561	71.7773	83.6834	71.7773	83.4845	71.7773	83.6734	71.7773	83.4008	71.7773	83.6486	71.7773	83.3083	71.7773	83.6106	71.7773	83.2109	71.7773	83.562	71.7773	83.1133	71.7773	83.505	71.7773	83.0203	71.7773	83.4422	71.7773	82.9362	71.7773	83.3757	71.7773	82.8649	71.7773	83.3077	71.7773	82.8091	71.7773	83.2398	71.7773	82.7702	71.7773	83.1734	71.7773	82.7484	71.7773	83.1097	71.7773	82.7427	71.7773	83.0492	71.7773	82.7516	71.7773	82.9922	71.7773	82.773	71.7773	82.9389	71.7773	82.8046	71.7773	82.8893	71.7773	82.8441
74.707	83.8372	74.707	83.808	74.707	83.8493	74.707	83.7619	74.707	83.8449	74.707	83.7003	74.707	83.8256	74.707	83.6255	74.707	83.7935	74.707	83.5407	74.707	83.7515	74.707	83.4499	74.707	83.7028	74.707	83.358	74.707	83.6504	74.707	83.27	74.707	83.5974	74.707	83.1909	74.707	83.5459	74.707	83.1252	74.707	83.4976	74.707	83.0761	74.707	83.4532	74.707	83.0457	74.707	83.4124	74.707	83.0342	74.707	83.3744	74.707	83.0404	74.707	83.3377	74.707	83.0616	74.707	83.3007	74.707	83.0942	74.707	83.2618	74.707	83.1341	74.707	83.2205	74.707	83.1772
77.6367	83.8682	77.6367	83.8427	77.6367	83.8744	77.6367	83.7978	77.6367	83.862	77.6367	83.7348	77.6367	83.8331	77.6367	83.6562	77.6367	83.7905	77.6367	83.5655	77.6367	83.7378	77.6367	83.4675	77.6367	83.6792	77.6367	83.3678	77.6367	83.619	77.6367	83.2726	77.6367	83.5612	77.6367	83.1882	77.6367	83.5093	77.6367	83.1203	77.6367	83.4652	77.6367	83.073	77.6367	83.4298	77.6367	83.0486	77.6367	83.4022	77.6367	83.0468	77.6367	83.38	77.6367	83.0651	77.6367	83.3599	77.6367	83.099	77.6367	83.3382	77.6367	83.1428	77.6367	83.3115	77.6367	83.1905	77.6367	83.2778	77.6367	83.2368
79.1016	83.9664	79.1016	83.9413	79.1016	83.9703	79.1016	83.8952	79.1016	83.9537	79.1016	83.8295	79.1016	83.9185	79.1016	83.7464	79.1016	83.8674	79.1016	83.6497	79.1016	83.8041	79.1016	83.5438	79.1016	83.7331	79.1016	83.4345	79.1016	83.6593	79.1016	83.328	79.1016	83.5873	79.1016	83.2312	79.1016	83.5214	79.1016	83.1501	79.1016	83.4646	79.1016	83.0896	79.1016	83.4183	79.1016	83.0527	79.1016	83.3821	79.1016	83.0396	79.1016	83.3537	79.1016	83.0483	79.1016	83.3295	79.1016	83.0746	79.1016	83.3053	79.1016	83.1129	79.1016	83.2772	79.1016	83.1573	79.1016	83.2428	79.1016	83.202
82.0312	84.2117	82.0312	84.1938	82.0312	84.2077	82.0312	84.1542	82.0312	84.183	82.0312	84.0937	82.0312	84.1393	82.0312	84.0144	82.0312	84.0795	82.0312	83.9193	82.0312	84.007	82.0312	83.8127	82.0312	83.926	82.0312	83.6998	82.0312	83.8408	82.0312	83.5866	82.0312	83.7559	82.0312	83.4795	82.0312	83.6751	82.0312	83.3849	82.0312	83.6015	82.0312	83.3079	82.0312	83.5369	82.0312	83.2519	82.0312	83.482	82.0312	83.2177	82.0312	83.4361	82.0312	83.2038	82.0312	83.3978	82.0312	83.2068	82.0312	83.3645	82.0312	83.2223	82.0312	83.3337	82.0312	83.2461	82.0312	83.3037	82.0312	83.2741
84.9609	84.0721	84.9609	84.0729	84.9609	84.051	84.9609	84.053	84.9609	84.0114	84.9609	84.0135	84.9609	83.9565	84.9609	83.9569	84.9609	83.8908	84.9609	83.8869	84.9609	83.82	84.9609	83.808	84.9609	83.75	84.9609	83.7254	84.9609	83.6866	84.9609	83.6448	84.9609	83.635	84.9609	83.5717	84.9609	83.5985	84.9609	83.5113	84.9609	83.5782	84.9609	83.4678	84.9609	83.573	84.9609	83.4436	84.9609	83.5792	84.9609	83.4389	84.9609	83.5918	84.9609	83.4519	84.9609	83.605	84.9609	83.4783	84.9609	83.6134	84.9609	83.5122	84.9609	83.6128	84.9609	83.5476	84.9609	83.6012	84.9609	83.5787
87.8906	84.2861	87.8906	84.2852	87.8906	84.2556	87.8906	84.2529	87.8906	84.195	87.8906	84.1907	87.8906	84.1075	87.8906	84.1017	87.8906	83.9977	87.8906	83.9906	87.8906	83.8722	87.8906	83.8634	87.8906	83.7388	87.8906	83.7275	87.8906	83.6064	87.8906	83.5914	87.8906	83.484	87.8906	83.4641	87.8906	83.38	87.8906	83.3538	87.8906	83.3004	87.8906	83.2674	87.8906	83.2484	87.8906	83.209	87.8906	83.2231	87.8906	83.1789	87.8906	83.22	87.8906	83.1744	87.8906	83.2315	87.8906	83.1888	87.8906	83.2487	87.8906	83.2139	87.8906	83.263	87.8906	83.2402	87.8906	83.2677	87.8906	83.2598
90.8203	84.339	90.8203	84.3627	90.8203	84.2823	90.8203	84.3528	90.8203	84.1947	90.8203	84.3108	90.8203	84.0806	90.8203	84.2394	90.8203	83.9461	90.8203	84.1433	90.8203	83.7997	90.8203	84.0288	90.8203	83.6517	90.8203	83.9035	90.8203	83.514	90.8203	83.7763	90.8203	83.3982	90.8203	83.6568	90.8203	83.3142	90.8203	83.554	90.8203	83.268	90.8203	83.4753	90.8203	83.2602	90.8203	83.4253	90.8203	83.2856	90.8203	83.4044	90.8203	83.3343	90.8203	83.4093	90.8203	83.3935	90.8203	83.4326	90.8203	83.45	90.8203	83.4649	90.8203	83.4928	90.8203	83.4956	90.8203	83.515	90.8203	83.5148
95.2148	85.0256	95.2148	85.0109	95.2148	85.0041	95.2148	84.9626	95.2148	84.9449	95.2148	84.8841	95.2148	84.8474	95.2148	84.7794	95.2148	84.7125	95.2148	84.6533	95.2148	84.5428	95.2148	84.5111	95.2148	84.3432	95.2148	84.3584	95.2148	84.1208	95.2148	84.2009	95.2148	83.8856	95.2148	84.0438	95.2148	83.6496	95.2148	83.8914	95.2148	83.4266	95.2148	83.7468	95.2148	83.2302	95.2148	83.6117	95.2148	83.0716	95.2148	83.4862	95.2148	82.9581	95.2148	83.3697	95.2148	82.8915	95.2148	83.2614	95.2148	82.8687	95.2148	83.1613	95.2148	82.8829	95.2148	83.0702	95.2148	82.926	95.2148	82.9904
98.1445	84.6159	98.1445	84.5677	98.1445	84.6345	98.1445	84.4919	98.1445	84.6219	98.1445	84.3912	98.1445	84.5776	98.1445	84.2689	98.1445	84.5015	98.1445	84.1294	98.1445	84.3949	98.1445	83.9779	98.1445	84.2607	98.1445	83.8207	98.1445	84.1035	98.1445	83.6646	98.1445	83.9302	98.1445	83.5168	98.1445	83.7493	98.1445	83.3839	98.1445	83.5706	98.1445	83.2709	98.1445	83.4041	98.1445	83.1807	98.1445	83.2584	98.1445	83.1128	98.1445	83.14	98.1445	83.0641	98.1445	83.0521	98.1445	83.0292	98.1445	82.9948	98.1445	83.0027	98.1445	82.9652	98.1445	82.9813	98.1445	82.9575	98.1445	82.965
101.074	84.1461	101.074	84.1246	101.074	84.1449	101.074	84.0795	101.074	84.1227	101.074	84.0115	101.074	84.0818	101.074	83.9222	101.074	84.025	101.074	83.8151	101.074	83.9552	101.074	83.695	101.074	83.8756	101.074	83.568	101.074	83.7898	101.074	83.4414	101.074	83.7021	101.074	83.3232	101.074	83.6177	101.074	83.2217	101.074	83.5422	101.074	83.1446	101.074	83.4806	101.074	83.0979	101.074	83.4359	101.074	83.0847	101.074	83.408	101.074	83.1036	101.074	83.3931	101.074	83.1477	101.074	83.3843	101.074	83.206	101.074	83.3732	101.074	83.2657	101.074	83.3521	101.074	83.3164
105.469	84.236	105.469	84.2344	105.469	84.1995	105.469	84.1947	105.469	84.1267	105.469	84.1189	105.469	84.0221	105.469	84.011	105.469	83.8919	105.469	83.8765	105.469	83.7449	105.469	83.7227	105.469	83.5912	105.469	83.5581	105.469	83.4418	105.469	83.3922	105.469	83.3067	105.469	83.2343	105.469	83.1936	105.469	83.0926	105.469	83.1064	105.469	82.9738	105.469	83.045	105.469	82.882	105.469	83.0049	105.469	82.8189	105.469	82.9793	105.469	82.7841	105.469	82.9604	105.469	82.7751	105.469	82.9412	105.469	82.7876	105.469	82.9168	105.469	82.8151	105.469	82.8859	105.469	82.8502
108.398	84.6549	108.398	84.6416	108.398	84.6277	108.398	84.5886	108.398	84.5607	108.398	84.498	108.398	84.4563	108.398	84.3733	108.398	84.3185	108.398	84.2198	108.398	84.1531	108.398	84.0441	108.398	83.9681	108.398	83.8546	108.398	83.7733	108.398	83.661	108.398	83.5795	108.398	83.474	108.398	83.3982	108.398	83.3042	108.398	83.2394	108.398	83.1605	108.398	83.1103	108.398	83.0486	108.398	83.0141	108.398	82.9697	108.398	82.9495	108.398	82.9204	108.398	82.9116	108.398	82.8943	108.398	82.893	108.398	82.8836	108.398	82.8857	108.398	82.8813	108.398	82.8833	108.398	82.8821
112.793	84.3816	112.793	84.3574	112.793	84.3704	112.793	84.2986	112.793	84.3246	112.793	84.2076	112.793	84.2466	112.793	84.0886	112.793	84.1403	112.793	83.9471	112.793	84.0114	112.793	83.7905	112.793	83.867	112.793	83.6274	112.793	83.7155	112.793	83.4672	112.793	83.5662	112.793	83.3195	112.793	83.4283	112.793	83.1931	112.793	83.31	112.793	83.0947	112.793	83.2171	112.793	83.0277	112.793	83.1519	112.793	82.9922	112.793	83.1127	112.793	82.9841	112.793	83.0942	112.793	82.9964	112.793	83.0884	112.793	83.0202	112.793	83.0866	112.793	83.0465	112.793	83.0814	112.793	83.0681
117.188	84.7009	117.188	84.693	117.188	84.6681	117.188	84.6455	117.188	84.5946	117.188	84.5607	117.188	84.4821	117.188	84.4422	117.188	84.3337	117.188	84.2945	117.188	84.1547	117.188	84.1239	117.188	83.9529	117.188	83.938	117.188	83.7385	117.188	83.7459	117.188	83.5245	117.188	83.5584	117.188	83.3254	117.188	83.3869	117.188	83.1558	117.188	83.2423	117.188	83.0278	117.188	83.1332	117.188	82.9481	117.188	83.0633	117.188	82.9158	117.188	83.0303	117.188	82.9224	117.188	83.0254	117.188	82.9536	117.188	83.0353	117.188	82.993	117.188	83.0455	117.188	83.0263	117.188	83.0444
120.117	84.655	120.117	84.6544	120.117	84.6166	120.117	84.6156	120.117	84.5394	120.117	84.5406	120.117	84.4251	120.117	84.4323	120.117	84.2766	120.117	84.2948	120.117	84.0985	120.117	84.1332	120.117	83.8972	120.117	83.9535	120.117	83.6809	120.117	83.7628	120.117	83.4596	120.117	83.5695	120.117	83.2451	120.117	83.3826	120.117	83.0502	120.117	83.2117	120.117	82.8869	120.117	83.0655	120.117	82.7645	120.117	82.9503	120.117	82.6874	120.117	82.8676	120.117	82.653	120.117	82.8135	120.117	82.6525	120.117	82.7794	120.117	82.6731	120.117	82.7546	120.117	82.702	120.117	82.7301
124.512	84.3919	124.512	84.3795	124.512	84.3656	124.512	84.3299	124.512	84.3004	124.512	84.2464	124.512	84.1977	124.512	84.1333	124.512	84.0606	124.512	83.9965	124.512	83.8943	124.512	83.8423	124.512	83.7055	124.512	83.6779	124.512	83.503	124.512	83.5104	124.512	83.2973	124.512	83.3466	124.512	83.0996	124.512	83.1923	124.512	82.9211	124.512	83.0527	124.512	82.7715	124.512	82.9315	124.512	82.6577	124.512	82.8312	124.512	82.5823	124.512	82.7524	124.512	82.5429	124.512	82.6935	124.512	82.5328	124.512	82.6503	124.512	82.5427	124.512	82.6171	124.512	82.5636	124.512	82.5891
128.906	84.5159	128.906	84.482	128.906	84.5085	128.906	84.4075	128.906	84.4597	128.906	84.2944	128.906	84.3705	128.906	84.1455	128.906	84.2424	128.906	83.9653	128.906	84.0784	128.906	83.7604	128.906	83.883	128.906	83.539	128.906	83.6628	128.906	83.3117	128.906	83.4273	128.906	83.0906	128.906	83.1884	128.906	82.8881	128.906	82.9606	128.906	82.7155	128.906	82.7587	128.906	82.5804	128.906	82.5954	128.906	82.4853	128.906	82.4777	128.906	82.4267	128.906	82.4055	128.906	82.3964	128.906	82.3711	128.906	82.3837	128.906	82.3623	128.906	82.3783	128.906	82.3663	128.906	82.3731
133.301	83.9727	133.301	83.956	133.301	83.9579	133.301	83.9083	133.301	83.9116	133.301	83.8316	133.301	83.8355	133.301	83.7288	133.301	83.732	133.301	83.6033	133.301	83.6039	133.301	83.4587	133.301	83.4547	133.301	83.2989	133.301	83.288	133.301	83.1279	133.301	83.1078	133.301	82.9498	133.301	82.9192	133.301	82.7693	133.301	82.7284	133.301	82.5918	133.301	82.5429	133.301	82.4235	133.301	82.3711	133.301	82.271	133.301	82.2208	133.301	82.1403	133.301	82.0976	133.301	82.0361	133.301	82.0043	133.301	81.9608	133.301	81.9406	133.301	81.9146	133.301	81.9051	133.301	81.8964
139.16	83.5319	139.16	83.4801	139.16	83.5371	139.16	83.3833	139.16	83.4973	139.16	83.2462	139.16	83.4173	139.16	83.0772	139.16	83.3047	139.16	82.8881	139.16	83.1699	139.16	82.6941	139.16	83.0257	139.16	82.513	139.16	82.8861	139.16	82.3637	139.16	82.7653	139.16	82.2638	139.16	82.6759	139.16	82.2254	139.16	82.6268	139.16	82.2519	139.16	82.6217	139.16	82.337	139.16	82.658	139.16	82.4649	139.16	82.7269	139.16	82.6143	139.16	82.8146	139.16	82.7625	139.16	82.9043	139.16	82.8892	139.16	82.9786	139.16	82.9792	139.16	83.0222	139.16	83.0241
143.555	84.0628	143.555	84.0239	143.555	84.0494	143.555	83.9337	143.555	83.9844	143.555	83.7953	143.555	83.8708	143.555	83.6136	143.555	83.7132	143.555	83.3956	143.555	83.519	143.555	83.1509	143.555	83.2978	143.555	82.8916	143.555	83.0618	143.555	82.6334	143.555	82.8266	143.555	82.3954	143.555	82.6107	143.555	82.1992	143.555	82.4336	143.555	82.0651	143.555	82.3132	143.555	82.0073	143.555	82.2599	143.555	82.0273	143.555	82.2718	143.555	82.112	143.555	82.3332	143.555	82.2352	143.555	82.4177	143.555	82.365	143.555	82.4951	143.555	82.4713	143.555	82.539	143.555	82.5325
147.949	83.9888	147.949	83.9618	147.949	83.9599	147.949	83.8793	147.949	83.8764	147.949	83.7438	147.949	83.7417	147.949	83.5597	147.949	83.5611	147.949	83.3331	147.949	83.3416	147.949	83.0724	147.949	83.0919	147.949	82.7882	147.949	82.8223	147.949	82.4938	147.949	82.5446	147.949	82.205	147.949	82.2728	147.949	81.9402	147.949	82.023	147.949	81.7185	147.949	81.8131	147.949	81.5558	147.949	81.6583	147.949	81.4608	147.949	81.5667	147.949	81.4305	147.949	81.5338	147.949	81.4503	147.949	81.5422	147.949	81.4971	147.949	81.567	147.949	81.5464	147.949	81.5843	147.949	81.5786
153.809	83.733	153.809	83.7159	153.809	83.6973	153.809	83.6478	153.809	83.609	153.809	83.5325	153.809	83.471	153.809	83.3751	153.809	83.2885	153.809	83.1819	153.809	83.0691	153.809	82.9594	153.809	82.8222	153.809	82.7149	153.809	82.5582	153.809	82.456	153.809	82.2882	153.809	82.1922	153.809	82.0234	153.809	81.9358	153.809	81.7757	153.809	81.702	153.809	81.5581	153.809	81.5069	153.809	81.3841	153.809	81.3632	153.809	81.2644	153.809	81.2749	153.809	81.2018	153.809	81.2351	153.809	81.1871	153.809	81.2279	153.809	81.2013	153.809	81.2332	153.809	81.2222	153.809	81.2342
159.668	83.8315	159.668	83.8158	159.668	83.7977	159.668	83.7508	159.668	83.7159	159.668	83.6388	159.668	83.5892	159.668	83.4841	159.668	83.4227	159.668	83.2928	159.668	83.2227	159.668	83.0733	159.668	82.9971	159.668	82.8348	159.668	82.7546	159.668	82.5871	159.668	82.5042	159.668	82.34	159.668	82.2553	159.668	82.1037	159.668	82.0187	159.668	81.89	159.668	81.8071	159.668	81.7117	159.668	81.6346	159.668	81.581	159.668	81.5135	159.668	81.5041	159.668	81.449	159.668	81.4757	159.668	81.4349	159.668	81.4792	159.668	81.4528	159.668	81.492	159.668	81.4791	159.668	81.4946
165.527	83.4908	165.527	83.4787	165.527	83.45	165.527	83.4151	165.527	83.3575	165.527	83.3034	165.527	83.2168	165.527	83.1493	165.527	83.0345	165.527	82.9606	165.527	82.8203	165.527	82.7473	165.527	82.5872	165.527	82.5207	165.527	82.35	165.527	82.293	165.527	82.1241	165.527	82.0759	165.527	81.9232	165.527	81.88	165.527	81.7574	165.527	81.7145	165.527	81.633	165.527	81.5878	165.527	81.5526	165.527	81.5066	165.527	81.5152	165.527	81.4732	165.527	81.515	165.527	81.4822	165.527	81.54	165.527	81.5189	165.527	81.5725	165.527	81.5618	165.527	81.5937	165.527	81.5906
171.387	83.3305	171.387	83.2935	171.387	83.3134	171.387	83.2042	171.387	83.2424	171.387	83.0661	171.387	83.1195	171.387	82.8846	171.387	82.9488	171.387	82.6663	171.387	82.7361	171.387	82.4192	171.387	82.4895	171.387	82.1527	171.387	82.2198	171.387	81.8783	171.387	81.9409	171.387	81.6095	171.387	81.6697	171.387	81.3618	171.387	81.4252	171.387	81.1521	171.387	81.2259	171.387	80.9958	171.387	81.086	171.387	80.903	171.387	81.0108	171.387	80.8745	171.387	80.9935	171.387	80.8991	171.387	81.0149	171.387	80.9552	171.387	81.0486	171.387	81.0163	171.387	81.0686	171.387	81.0585
177.246	83.0364	177.246	83.016	177.246	83.0056	177.246	82.9449	177.246	82.9265	177.246	82.8264	177.246	82.8048	177.246	82.6662	177.246	82.6484	177.246	82.4714	177.246	82.4656	177.246	82.2494	177.246	82.2641	177.246	82.0074	177.246	82.0492	177.246	81.7521	177.246	81.8247	177.246	81.4909	177.246	81.594	177.246	81.2339	177.246	81.3632	177.246	80.9957	177.246	81.1427	177.246	80.7947	177.246	80.9478	177.246	80.648	177.246	80.7942	177.246	80.5645	177.246	80.6919	177.246	80.5385	177.246	80.6387	177.246	80.5515	177.246	80.6197	177.246	80.5793	177.246	80.6136	177.246	80.6024
183.105	82.7962	183.105	82.7977	183.105	82.7371	183.105	82.7455	183.105	82.6216	183.105	82.6475	183.105	82.4563	183.105	82.5142	183.105	82.2523	183.105	82.3562	183.105	82.0239	183.105	82.182	183.105	81.7855	183.105	81.9956	183.105	81.5485	183.105	81.7958	183.105	81.3196	183.105	81.578	183.105	81.1011	183.105	81.3394	183.105	80.8946	183.105	81.0847	183.105	80.7053	183.105	80.8321	183.105	80.5451	183.105	80.6114	183.105	80.4297	183.105	80.4538	183.105	80.3699	183.105	80.3748	183.105	80.3617	183.105	80.3634	183.105	80.3837	183.105	80.3867	183.105	80.4066	183.105	80.4083
188.965	82.4862	188.965	82.4529	188.965	82.4585	188.965	82.3648	188.965	82.3691	188.965	82.2335	188.965	82.2237	188.965	82.0747	188.965	82.0338	188.965	81.9058	188.965	81.8152	188.965	81.7427	188.965	81.5845	188.965	81.5942	188.965	81.3541	188.965	81.4588	188.965	81.1276	188.965	81.3241	188.965	80.8996	188.965	81.1714	188.965	80.66	188.965	80.985	188.965	80.4035	188.965	80.7614	188.965	80.1385	188.965	80.5156	188.965	79.8909	188.965	80.2763	188.965	79.6971	188.965	80.0727	188.965	79.5873	188.965	79.9164	188.965	79.5672	188.965	79.7973	188.965	79.6148	188.965	79.698
196.289	82.8794	196.289	82.8915	196.289	82.7945	196.289	82.8294	196.289	82.6427	196.289	82.6971	196.289	82.4337	196.289	82.505	196.289	82.1818	196.289	82.2693	196.289	81.9064	196.289	82.01	196.289	81.6303	196.289	81.7452	196.289	81.3756	196.289	81.4858	196.289	81.1564	196.289	81.2304	196.289	80.9725	196.289	80.9673	196.289	80.8107	196.289	80.6829	196.289	80.6534	196.289	80.3758	196.289	80.4903	196.289	80.0681	196.289	80.3251	196.289	79.8062	196.289	80.1724	196.289	79.6413	196.289	80.0452	196.289	79.5962	196.289	79.9421	196.289	79.6476	196.289	79.8466	196.289	79.7449
203.613	80.9755	203.613	80.9707	203.613	80.8865	203.613	80.89	203.613	80.7071	203.613	80.77	203.613	80.4654	203.613	80.6609	203.613	80.2137	203.613	80.6146	203.613	80.0196	203.613	80.6648	203.613	79.9397	203.613	80.8082	203.613	79.9866	203.613	81.0016	203.613	80.1152	203.613	81.1774	203.613	80.2409	203.613	81.2662	203.613	80.273	203.613	81.2116	203.613	80.1402	203.613	80.9766	203.613	79.8028	203.613	80.5457	203.613	79.2619	203.613	79.9275	203.613	78.5708	203.613	79.1633	203.613	77.8447	203.613	78.3391	203.613	77.252	203.613	77.592	203.613	76.9669	203.613	77.0895
210.938	81.9412	210.938	81.7873	210.938	81.8748	210.938	81.4234	210.938	81.5797	210.938	80.8702	210.938	81.0465	210.938	80.1808	210.938	80.2718	210.938	79.4775	210.938	79.2813	210.938	78.983	210.938	78.1892	210.938	78.9536	210.938	77.2943	210.938	79.4657	210.938	77.0473	210.938	80.3203	210.938	77.6275	210.938	81.2321	210.938	78.6897	210.938	82.0042	210.938	79.7923	210.938	82.547	210.938	80.7004	210.938	82.8418	210.938	81.3453	210.938	82.9122	210.938	81.7415	210.938	82.8109	210.938	81.9453	210.938	82.6099	210.938	82.0369	210.938	82.3885	210.938	82.1026	210.938	82.2111
218.262	84.6322	218.262	84.4618	218.262	84.6627	218.262	84.1425	218.262	84.5537	218.262	83.6573	218.262	84.2979	218.262	82.9831	218.262	83.8822	218.262	82.099	218.262	83.2908	218.262	81.0098	218.262	82.5144	218.262	79.8063	218.262	81.5699	218.262	78.78	218.262	80.5464	218.262	78.4375	218.262	79.6731	218.262	79.0388	218.262	79.3053	218.262	80.2132	218.262	79.643	218.262	81.4499	218.262	80.4804	218.262	82.4826	218.262	81.4493	218.262	83.2363	218.262	82.3131	218.262	83.7208	218.262	82.9881	218.262	83.9776	218.262	83.4737	218.262	84.0543	218.262	83.7982	218.262	83.9889
225.586	84.6012	225.586	84.4593	225.586	84.6152	225.586	84.1819	225.586	84.5024	225.586	83.7559	225.586	84.2575	225.586	83.1637	225.586	83.869	225.586	82.3891	225.586	83.3214	225.586	81.4313	225.586	82.6006	225.586	80.3392	225.586	81.7071	225.586	79.2803	225.586	80.6856	225.586	78.5957	225.586	79.6774	225.586	78.6296	225.586	78.9576	225.586	79.3373	225.586	78.8181	225.586	80.3301	225.586	79.2805	225.586	81.2725	225.586	80.0699	225.586	82.0108	225.586	80.8978	225.586	82.509	225.586	81.6102	225.586	82.7826	225.586	82.1593	225.586	82.8633	225.586	82.5454	225.586	82.7794
232.91	85.0389	232.91	84.9271	232.91	85.0446	232.91	84.6983	232.91	84.9494	232.91	84.3344	232.91	84.7533	232.91	83.8082	232.91	84.4517	232.91	83.0812	232.91	84.0358	232.91	82.1028	232.91	83.4963	232.91	80.8169	232.91	82.8295	232.91	79.1948	232.91	82.0533	232.91	77.3608	232.91	81.2325	232.91	75.9192	232.91	80.5062	232.91	75.8998	232.91	80.0686	232.91	77.2257	232.91	80.0521	232.91	78.8486	232.91	80.4037	232.91	80.2117	232.91	80.9366	232.91	81.2042	232.91	81.4742	232.91	81.8514	232.91	81.912	232.91	82.2032	232.91	82.1994	232.91	82.3064
241.699	84.555	241.699	84.5584	241.699	84.47	241.699	84.4764	241.699	84.3036	241.699	84.3016	241.699	84.0528	241.699	84.0222	241.699	83.7109	241.699	83.6215	241.699	83.2687	241.699	83.0774	241.699	82.7176	241.699	82.3666	241.699	82.0556	241.699	81.4768	241.699	81.3013	241.699	80.4378	241.699	80.5168	241.699	79.3778	241.699	79.8329	241.699	78.5758	241.699	79.4338	241.699	78.3539	241.699	79.45	241.699	78.7578	241.699	79.8324	241.699	79.4975	241.699	80.3873	241.699	80.2602	241.699	80.9205	241.699	80.8796	241.699	81.3134	241.699	81.2997	241.699	81.515	241.699	81.5112
250.488	84.8328	250.488	84.8306	250.488	84.7458	250.488	84.7355	250.488	84.5694	250.488	84.5395	250.488	84.2997	250.488	84.2312	250.488	83.9291	250.488	83.7949	250.488	83.4473	250.488	83.2119	250.488	82.844	250.488	82.4629	250.488	82.1153	250.488	81.5379	250.488	81.2779	250.488	80.464	250.488	80.3941	250.488	79.3612	250.488	79.6029	250.488	78.502	250.488	79.1105	250.488	78.2188	250.488	79.0715	250.488	78.5734	250.488	79.4384	250.488	79.2735	250.488	79.9979	250.488	79.9969	250.488	80.5393	250.488	80.5774	250.488	80.9385	250.488	80.9652	250.488	81.1468	250.488	81.1549
259.277	84.0818	259.277	84.0756	259.277	84.0195	259.277	83.9998	259.277	83.8859	259.277	83.8491	259.277	83.6751	259.277	83.6136	259.277	83.3782	259.277	83.2789	259.277	82.9838	259.277	82.8266	259.277	82.4798	259.277	82.2378	259.277	81.8577	259.277	81.5006	259.277	81.1224	259.277	80.6279	259.277	80.3118	259.277	79.6933	259.277	79.5252	259.277	78.875	259.277	78.9371	259.277	78.4346	259.277	78.7306	259.277	78.5278	259.277	78.9475	259.277	79.0287	259.277	79.4361	259.277	79.6609	259.277	79.9805	259.277	80.2127	259.277	80.424	259.277	80.5844	259.277	80.6883	259.277	80.7444
268.066	83.8597	268.066	83.7868	268.066	83.8569	268.066	83.6355	268.066	83.7772	268.066	83.3999	268.066	83.614	268.066	83.0725	268.066	83.3557	268.066	82.6441	268.066	82.9865	268.066	82.1052	268.066	82.4883	268.066	81.4473	268.066	81.8462	268.066	80.6708	268.066	81.0611	268.066	79.803	268.066	80.1744	268.066	78.9343	268.066	79.3039	268.066	78.2548	268.066	78.6575	268.066	78.0053	268.066	78.4425	268.066	78.2763	268.066	78.6849	268.066	78.8882	268.066	79.2002	268.066	79.5648	268.066	79.7618	268.066	80.1171	268.066	80.221	268.066	80.4657	268.066	80.5079	268.066	80.5939
276.855	83.6618	276.855	83.6124	276.855	83.6333	276.855	83.483	276.855	83.5255	276.855	83.2675	276.855	83.3355	276.855	82.9543	276.855	83.0591	276.855	82.5279	276.855	82.6917	276.855	81.972	276.855	82.2272	276.855	81.2765	276.855	81.6573	276.855	80.4479	276.855	80.9755	276.855	79.5263	276.855	80.1972	276.855	78.6089	276.855	79.3985	276.855	77.8686	276.855	78.7532	276.855	77.514	276.855	78.4789	276.855	77.6474	276.855	78.6486	276.855	78.1558	276.855	79.0974	276.855	78.8062	276.855	79.5841	276.855	79.4039	276.855	79.9478	276.855	79.8442	276.855	80.1212	276.855	80.0868
287.109	83.3068	287.109	83.3158	287.109	83.2286	287.109	83.26	287.109	83.0735	287.109	83.1379	287.109	82.8326	287.109	82.9396	287.109	82.4971	287.109	82.6451	287.109	82.0593	287.109	82.2249	287.109	81.5143	287.109	81.6448	287.109	80.8649	287.109	80.8772	287.109	80.1327	287.109	79.9233	287.109	79.3811	287.109	78.8581	287.109	78.7429	287.109	77.8945	287.109	78.4063	287.109	77.3743	287.109	78.4944	287.109	77.5117	287.109	78.9318	287.109	78.1375	287.109	79.5014	287.109	78.9069	287.109	80.006	287.109	79.5863	287.109	80.3385	287.109	80.0835	287.109	80.4629	287.109	80.3768
297.363	83.971	297.363	83.9581	297.363	83.9071	297.363	83.87	297.363	83.761	297.363	83.7066	297.363	83.5206	297.363	83.4642	297.363	83.1664	297.363	83.1304	297.363	82.6726	297.363	82.6792	297.363	82.0098	297.363	82.0694	297.363	81.1489	297.363	81.2521	297.363	80.0667	297.363	80.1943	297.363	78.7644	297.363	78.9333	297.363	77.3338	297.363	77.6828	297.363	76.1166	297.363	76.9098	297.363	75.7553	297.363	77.0199	297.363	76.5111	297.363	77.8258	297.363	77.7989	297.363	78.8173	297.363	79.001	297.363	79.6587	297.363	79.8649	297.363	80.2181	297.363	80.3436	297.363	80.4534
307.617	83.5296	307.617	83.4674	307.617	83.5193	307.617	83.3285	307.617	83.4455	307.617	83.1128	307.617	83.3169	307.617	82.8211	307.617	83.1339	307.617	82.4514	307.617	82.8804	307.617	81.9946	307.617	82.5188	307.617	81.435	307.617	81.9939	307.617	80.7543	307.617	81.2451	307.617	79.9457	307.617	80.2325	307.617	79.0473	307.617	78.987	307.617	78.193	307.617	77.7082	307.617	77.63	307.617	76.8443	307.617	77.5782	307.617	76.8176	307.617	77.9957	307.617	77.4886	307.617	78.6152	307.617	78.3607	307.617	79.1859	307.617	79.0901	307.617	79.5687	307.617	79.5449	307.617	79.6995
319.336	83.5598	319.336	83.5367	319.336	83.5047	319.336	83.4442	319.336	83.3627	319.336	83.2873	319.336	83.1281	319.336	83.0611	319.336	82.7987	319.336	82.7448	319.336	82.3751	319.336	82.3004	319.336	81.8551	319.336	81.6762	319.336	81.2228	319.336	80.8169	319.336	80.4414	319.336	79.6826	319.336	79.4646	319.336	78.2937	319.336	78.2933	319.336	76.8467	319.336	77.1069	319.336	75.8768	319.336	76.4011	319.336	75.9759	319.336	76.6526	319.336	76.9585	319.336	77.6174	319.336	78.144	319.336	78.6821	319.336	79.1188	319.336	79.4924	319.336	79.7542	319.336	79.9445	319.336	80.0298
329.59	83.5519	329.59	83.5007	329.59	83.5489	329.59	83.3976	329.59	83.4935	329.59	83.2514	329.59	83.3875	329.59	83.0732	329.59	83.2272	329.59	82.8652	329.59	83.0013	329.59	82.605	329.59	82.6885	329.59	82.2369	329.59	82.2541	329.59	81.6774	329.59	81.6433	329.59	80.837	329.59	80.7807	329.59	79.6587	329.59	79.587	329.59	78.204	329.59	78.0541	329.59	76.8401	329.59	76.4739	329.59	76.3102	329.59	75.7283	329.59	76.9311	329.59	76.425	329.59	78.0667	329.59	77.7805	329.59	79.0797	329.59	78.9538	329.59	79.7203	329.59	79.6772	329.59	79.9261
341.309	83.598	341.309	83.5663	341.309	83.5271	341.309	83.4373	341.309	83.3517	341.309	83.2177	341.309	83.0783	341.309	82.916	341.309	82.7243	341.309	82.544	341.309	82.316	341.309	82.1122	341.309	81.8776	341.309	81.6176	341.309	81.4169	341.309	81.0287	341.309	80.9191	341.309	80.2848	341.309	80.3564	341.309	79.3273	341.309	79.7155	341.309	78.1808	341.309	79.0327	341.309	77.1012	341.309	78.428	341.309	76.6367	341.309	78.0931	341.309	77.108	341.309	78.1713	341.309	78.0979	341.309	78.607	341.309	79.0311	341.309	79.1739	341.309	79.6261	341.309	79.6328	341.309	79.8157
353.027	83.6207	353.027	83.576	353.027	83.5954	353.027	83.4614	353.027	83.5019	353.027	83.2811	353.027	83.3392	353.027	83.0418	353.027	83.0993	353.027	82.7453	353.027	82.7636	353.027	82.3791	353.027	82.3005	353.027	81.9091	353.027	81.6627	353.027	81.279	353.027	80.7887	353.027	80.4216	353.027	79.6176	353.027	79.287	353.027	78.1451	353.027	77.9076	353.027	76.5897	353.027	76.5419	353.027	75.6379	353.027	75.7933	353.027	75.9637	353.027	76.1252	353.027	77.1225	353.027	77.1579	353.027	78.2919	353.027	78.2435	353.027	79.1088	353.027	79.0499	353.027	79.5014	353.027	79.4771
366.211	84.385	366.211	84.3237	366.211	84.3278	366.211	84.1545	366.211	84.1535	366.211	83.8892	366.211	83.8804	366.211	83.5329	366.211	83.5382	366.211	83.0816	366.211	83.1517	366.211	82.5235	366.211	82.7194	366.211	81.8318	366.211	82.1978	366.211	80.9526	366.211	81.5001	366.211	79.7997	366.211	80.5076	366.211	78.2913	366.211	79.0942	366.211	76.494	366.211	77.2072	366.211	74.9928	366.211	75.1951	366.211	74.8743	366.211	74.3758	366.211	76.0452	366.211	75.4812	366.211	77.4006	366.211	77.1204	366.211	78.411	366.211	78.3482	366.211	79.0081	366.211	79.0224	366.211	79.2173
379.395	83.6523	379.395	83.6871	379.395	83.6049	379.395	83.7165	379.395	83.5418	379.395	83.7465	379.395	83.4616	379.395	83.7689	379.395	83.3614	379.395	83.7505	379.395	83.2316	379.395	83.6373	379.395	83.045	379.395	83.3677	379.395	82.743	379.395	82.8785	379.395	82.2314	379.395	82.0958	379.395	81.3925	379.395	80.9178	379.395	80.1155	379.395	79.2159	379.395	78.3667	379.395	76.9289	379.395	76.4158	379.395	74.5832	379.395	75.2711	379.395	74.1253	379.395	75.8614	379.395	75.8643	379.395	77.3138	379.395	77.7377	379.395	78.5792	379.395	78.9541	379.395	79.3201	379.395	79.4617
392.578	83.604	392.578	83.466	392.578	83.5588	392.578	83.1671	392.578	83.355	392.578	82.7792	392.578	83.0628	392.578	82.4229	392.578	82.7842	392.578	82.2279	392.578	82.6101	392.578	82.2437	392.578	82.5586	392.578	82.376	392.578	82.5483	392.578	82.4322	392.578	82.4321	392.578	82.2138	392.578	82.0461	392.578	81.5709	392.578	81.2341	392.578	80.4319	392.578	79.8716	392.578	78.896	392.578	77.9937	392.578	77.5032	392.578	76.3153	392.578	77.2689	392.578	76.4266	392.578	78.3175	392.578	78.079	392.578	79.6495	392.578	79.6902	392.578	80.6018	392.578	80.6726	392.578	80.9648
405.762	84.4177	405.762	84.3539	405.762	84.2693	405.762	84.084	405.762	83.914	405.762	83.6231	405.762	83.3805	405.762	83.0053	405.762	82.734	405.762	82.3005	405.762	82.0789	405.762	81.6213	405.762	81.5301	405.762	81.0825	405.762	81.1494	405.762	80.7031	405.762	80.8912	405.762	80.3491	405.762	80.6124	405.762	79.8048	405.762	80.1409	405.762	78.8992	405.762	79.3584	405.762	77.6449	405.762	78.3214	405.762	76.5079	405.762	77.4623	405.762	76.4492	405.762	77.48	405.762	77.5936	405.762	78.3836	405.762	78.9664	405.762	79.4456	405.762	79.934	405.762	80.1536	405.762	80.3321
420.41	84.9255	420.41	84.8822	420.41	84.8183	420.41	84.6975	420.41	84.5653	420.41	84.3913	420.41	84.1898	420.41	83.9915	420.41	83.7375	420.41	83.5297	420.41	83.2694	420.41	83.0301	420.41	82.8282	420.41	82.4887	420.41	82.3916	420.41	81.8487	420.41	81.8546	420.41	80.9887	420.41	81.0547	420.41	79.7293	420.41	79.8034	420.41	77.8588	420.41	77.8915	420.41	75.288	420.41	75.1409	420.41	73.0174	420.41	72.1196	420.41	73.7698	420.41	72.1224	420.41	76.2273	420.41	74.9256	420.41	78.1355	420.41	77.3152	420.41	79.1593	420.41	78.7635	420.41	79.3594
435.059	84.4963	435.059	84.4474	435.059	84.3486	435.059	84.2122	435.059	84.0061	435.059	83.8105	435.059	83.4863	435.059	83.2769	435.059	82.8238	435.059	82.6753	435.059	82.0762	435.059	82.0983	435.059	81.3399	435.059	81.6192	435.059	80.7374	435.059	81.2154	435.059	80.3254	435.059	80.7445	435.059	79.9966	435.059	80.0065	435.059	79.5382	435.059	78.8261	435.059	78.796	435.059	77.1549	435.059	77.821	435.059	75.3643	435.059	76.9943	435.059	74.6544	435.059	76.8735	435.059	75.6561	435.059	77.4983	435.059	77.1821	435.059	78.3151	435.059	78.3299	435.059	78.8495	435.059	78.8833
451.172	85.4971	451.172	85.3821	451.172	85.4222	451.172	85.0857	451.172	85.1605	451.172	84.6314	451.172	84.7349	451.172	84.0694	451.172	84.1988	451.172	83.4885	451.172	83.6303	451.172	83.003	451.172	83.0965	451.172	82.6882	451.172	82.6068	451.172	82.4875	451.172	82.0938	451.172	82.1946	451.172	81.418	451.172	81.5245	451.172	80.3614	451.172	80.1629	451.172	78.5953	451.172	77.7513	451.172	75.6656	451.172	74.0978	451.172	71.8771	451.172	72.021	451.172	72.7258	451.172	74.9772	451.172	76.484	451.172	77.8254	451.172	78.8689	451.172	79.4479	451.172	79.9693	451.172	80.1215
465.82	85.3283	465.82	85.1827	465.82	85.232	465.82	84.8037	465.82	84.8957	465.82	84.2092	465.82	84.3416	465.82	83.4406	465.82	83.629	465.82	82.5946	465.82	82.8716	465.82	81.8496	465.82	82.2255	465.82	81.4038	465.82	81.8121	465.82	81.2943	465.82	81.6066	465.82	81.3162	465.82	81.4165	465.82	81.1704	465.82	80.9615	465.82	80.6066	465.82	79.9373	465.82	79.4523	465.82	78.0193	465.82	77.6589	465.82	74.9603	465.82	75.6538	465.82	71.9906	465.82	74.9358	465.82	73.2546	465.82	76.0757	465.82	75.9774	465.82	77.432	465.82	77.59	465.82	78.0249
483.398	85.5354	483.398	85.4617	483.398	85.3632	483.398	85.1402	483.398	84.9535	483.398	84.5791	483.398	84.3233	483.398	83.8068	483.398	83.508	483.398	82.8923	483.398	82.5832	483.398	81.9666	483.398	81.6893	483.398	81.1959	483.398	81.0033	483.398	80.6458	483.398	80.5977	483.398	80.1489	483.398	80.3158	483.398	79.373	483.398	79.8589	483.398	77.9709	483.398	78.9533	483.398	75.6866	483.398	77.4497	483.398	73.0742	483.398	75.5715	483.398	73.3806	483.398	74.6183	483.398	76.2037	483.398	75.8041	483.398	78.4093	483.398	77.7087	483.398	79.5378	483.398	79.106	483.398	79.7341
499.512	85.3653	499.512	85.2972	499.512	85.2782	499.512	85.0545	499.512	85.0267	499.512	84.5997	499.512	84.576	499.512	83.8958	499.512	83.884	499.512	82.9359	499.512	82.9349	499.512	81.793	499.512	81.7921	499.512	80.6826	499.512	80.6579	499.512	79.9102	499.512	79.8156	499.512	79.5616	499.512	79.3283	499.512	79.3059	499.512	78.865	499.512	78.6535	499.512	77.9638	499.512	77.2054	499.512	76.269	499.512	74.7534	499.512	73.6924	499.512	72.0975	499.512	71.6256	499.512	72.6485	499.512	73.1411	499.512	75.4355	499.512	75.8999	499.512	77.45	499.512	77.6772	499.512	78.1974
517.09	85.5645	517.09	85.4647	517.09	85.4707	517.09	85.177	517.09	85.1858	517.09	84.7159	517.09	84.7223	517.09	84.1045	517.09	84.111	517.09	83.3807	517.09	83.4119	517.09	82.6152	517.09	82.711	517.09	81.9212	517.09	82.093	517.09	81.3984	517.09	81.5931	517.09	81.0002	517.09	81.1343	517.09	80.4777	517.09	80.486	517.09	79.4799	517.09	79.2742	517.09	77.6375	517.09	77.0051	517.09	74.5968	517.09	73.2635	517.09	70.9701	517.09	70.8627	517.09	71.4792	517.09	74.0137	517.09	74.6106	517.09	76.73	517.09	76.7834	517.09	77.8978	517.09	77.858
536.133	85.9693	536.133	85.8685	536.133	85.8358	536.133	85.5442	536.133	85.4505	536.133	84.9928	536.133	84.7984	536.133	84.1954	536.133	83.8777	536.133	83.1393	536.133	82.7299	536.133	81.8855	536.133	81.4981	536.133	80.6856	536.133	80.4672	536.133	79.9525	536.133	79.9089	536.133	79.7748	536.133	79.74	536.133	79.6674	536.133	79.5337	536.133	79.0583	536.133	78.8706	536.133	77.5802	536.133	77.517	536.133	75.1875	536.133	75.5224	536.133	73.3399	536.133	73.7616	536.133	74.8826	536.133	74.1531	536.133	77.4091	536.133	76.2238	536.133	78.8439	536.133	78.0766	536.133	79.0195
555.176	85.8156	555.176	85.6978	555.176	85.7268	555.176	85.3863	555.176	85.4335	555.176	84.9011	555.176	84.9456	555.176	84.2459	555.176	84.2718	555.176	83.3976	555.176	83.4179	555.176	82.348	555.176	82.4019	555.176	81.1892	555.176	81.299	555.176	80.1519	555.176	80.2883	555.176	79.4423	555.176	79.57	555.176	78.9676	555.176	79.0911	555.176	78.3623	555.176	78.4227	555.176	77.1668	555.176	76.9217	555.176	74.8045	555.176	73.7973	555.176	70.9691	555.176	69.2555	555.176	70.7816	555.176	71.5736	555.176	74.9223	555.176	75.707	555.176	77.4728	555.176	77.8051	555.176	78.3492
574.219	85.9461	574.219	85.8888	574.219	85.813	574.219	85.6048	574.219	85.5011	574.219	85.068	574.219	84.9919	574.219	84.2959	574.219	84.2613	574.219	83.3454	574.219	83.3145	574.219	82.2895	574.219	82.2258	574.219	81.2483	574.219	81.1776	574.219	80.4513	574.219	80.4373	574.219	80.0644	574.219	80.1451	574.219	79.8018	574.219	80.0171	574.219	78.9974	574.219	79.4107	574.219	76.9045	574.219	77.6019	574.219	72.4637	574.219	73.6964	574.219	65.8547	574.219	67.5271	574.219	71.701	574.219	71.0216	574.219	76.1409	574.219	75.4231	574.219	78.0817	574.219	77.6072	574.219	78.4569
594.727	85.8924	594.727	85.7679	594.727	85.8056	594.727	85.4225	594.727	85.5169	594.727	84.8415	594.727	85.0223	594.727	84.0084	594.727	84.2858	594.727	82.9263	594.727	83.2573	594.727	81.6425	594.727	81.9517	594.727	80.2955	594.727	80.5973	594.727	79.2255	594.727	79.7037	594.727	78.9122	594.727	79.5587	594.727	79.3401	594.727	79.6947	594.727	79.8065	594.727	79.4394	594.727	79.5707	594.727	78.3039	594.727	78.0523	594.727	75.7044	594.727	74.587	594.727	70.5928	594.727	68.8014	594.727	67.8868	594.727	69.9384	594.727	73.2711	594.727	74.2984	594.727	75.9031	594.727	76.1592
615.234	85.8823	615.234	85.8464	615.234	85.7502	615.234	85.61	615.234	85.4517	615.234	85.13	615.234	84.9564	615.234	84.3805	615.234	84.2307	615.234	83.3836	615.234	83.2855	615.234	82.2273	615.234	82.194	615.234	81.0412	615.234	81.0336	615.234	79.9561	615.234	79.878	615.234	79.1389	615.234	78.9872	615.234	78.6607	615.234	78.6706	615.234	78.1404	615.234	78.5566	615.234	76.9762	615.234	77.8571	615.234	74.8289	615.234	76.0762	615.234	71.8359	615.234	73.1015	615.234	70.0461	615.234	70.6207	615.234	72.213	615.234	72.3231	615.234	74.6556	615.234	74.6972	615.234	75.5244
637.207	86.9316	637.207	86.7421	637.207	86.8314	637.207	86.3358	637.207	86.4436	637.207	85.8091	637.207	85.8283	637.207	85.1718	637.207	85.0363	637.207	84.2835	637.207	84.0286	637.207	82.9424	637.207	82.6774	637.207	81.1007	637.207	80.9801	637.207	79.2011	637.207	79.5075	637.207	78.3502	637.207	79.1849	637.207	78.8729	637.207	79.672	637.207	79.5072	637.207	79.8864	637.207	79.0835	637.207	79.2032	637.207	76.7958	637.207	77.2317	637.207	71.5864	637.207	73.6973	637.207	69.0208	637.207	71.6908	637.207	75.3204	637.207	75.6345	637.207	78.6979	637.207	78.76	637.207	79.7503
659.18	86.0693	659.18	85.9236	659.18	86.0084	659.18	85.5557	659.18	85.7438	659.18	84.9629	659.18	85.2783	659.18	84.2007	659.18	84.6358	659.18	83.3633	659.18	83.8575	659.18	82.4787	659.18	82.9366	659.18	81.4472	659.18	81.7698	659.18	80.1269	659.18	80.2967	659.18	78.5743	659.18	78.7718	659.18	77.2998	659.18	77.7536	659.18	76.837	659.18	77.4243	659.18	76.7964	659.18	77.1258	659.18	76.1885	659.18	75.6541	659.18	73.8914	659.18	71.2188	659.18	68.869	659.18	65.0866	659.18	68.9556	659.18	72.0586	659.18	73.4964	659.18	75.1128	659.18	75.3841
682.617	87.129	682.617	87.0723	682.617	86.9568	682.617	86.7608	682.617	86.5678	682.617	86.1731	682.617	85.974	682.617	85.3361	682.617	85.1947	682.617	84.3368	682.617	84.2285	682.617	83.2249	682.617	83.0349	682.617	81.9035	682.617	81.593	682.617	80.3363	682.617	80.0962	682.617	79.0299	682.617	79.1871	682.617	78.7813	682.617	79.3234	682.617	79.2513	682.617	79.6677	682.617	79.3423	682.617	79.0193	682.617	78.1734	682.617	76.5031	682.617	74.8711	682.617	71.3613	682.617	70.8408	682.617	69.9009	682.617	74.4493	682.617	74.5102	682.617	77.3952	682.617	77.0478	682.617	78.0153
707.52	87.2094	707.52	87.0299	707.52	87.072	707.52	86.6346	707.52	86.6092	707.52	86.1022	707.52	85.9225	707.52	85.412	707.52	85.1064	707.52	84.4695	707.52	84.1423	707.52	83.1802	707.52	82.9301	707.52	81.5247	707.52	81.3848	707.52	79.6402	707.52	79.6269	707.52	77.913	707.52	78.3142	707.52	77.1217	707.52	78.0996	707.52	77.5336	707.52	78.3904	707.52	77.6814	707.52	78.071	707.52	76.0977	707.52	76.1445	707.52	71.6307	707.52	71.3644	707.52	58.506	707.52	64.7076	707.52	68.878	707.52	72.4474	707.52	75.661	707.52	76.9427	707.52	77.9669
732.422	87.5518	732.422	87.3846	732.422	87.3426	732.422	86.8565	732.422	86.7798	732.422	86.033	732.422	85.9352	732.422	85.0372	732.422	84.948	732.422	83.9742	732.422	83.9653	732.422	82.8244	732.422	82.9906	732.422	81.5237	732.422	81.8653	732.422	80.1556	732.422	80.4018	732.422	78.9212	732.422	78.6123	732.422	77.9907	732.422	77.2153	732.422	77.5022	732.422	76.9535	732.422	77.1978	732.422	76.8484	732.422	76.18	732.422	75.5431	732.422	73.583	732.422	71.7509	732.422	70.1612	732.422	67.2857	732.422	72.2541	732.422	72.4469	732.422	75.6338	732.422	75.7756	732.422	76.7573
757.324	87.5746	757.324	87.4542	757.324	87.4197	757.324	87.0347	757.324	86.9605	757.324	86.2961	757.324	86.1786	757.324	85.3224	757.324	85.1186	757.324	84.2511	757.324	83.8932	757.324	83.1295	757.324	82.6345	757.324	81.925	757.324	81.3407	757.324	80.5581	757.324	79.9539	757.324	78.9448	757.324	78.6694	757.324	77.721	757.324	78.0579	757.324	77.9445	757.324	78.4676	757.324	78.5417	757.324	78.6529	757.324	77.9878	757.324	77.0941	757.324	74.9375	757.324	72.7023	757.324	68.0522	757.324	62.9769	757.324	72.4255	757.324	71.5329	757.324	76.4513	757.324	76.4683	757.324	77.6202
785.156	88.0704	785.156	87.8893	785.156	87.9883	785.156	87.5003	785.156	87.5088	785.156	86.8076	785.156	86.6051	785.156	85.7306	785.156	85.4961	785.156	84.483	785.156	84.4803	785.156	83.375	785.156	83.533	785.156	82.2222	785.156	82.3404	785.156	80.6497	785.156	80.6002	785.156	78.9001	785.156	78.2099	785.156	77.6194	785.156	75.8291	785.156	76.9747	785.156	75.4176	785.156	77.0107	785.156	76.6057	785.156	77.0422	785.156	76.6189	785.156	75.4947	785.156	73.1308	785.156	69.8622	785.156	66.1322	785.156	65.9734	785.156	73.6094	785.156	74.9478	785.156	77.0546	785.156	77.5798
811.523	88.2331	811.523	88.0594	811.523	87.9761	811.523	87.5273	811.523	87.327	811.523	86.7417	811.523	86.3814	811.523	85.7388	811.523	85.2132	811.523	84.5791	811.523	83.8572	811.523	83.4323	811.523	82.3462	811.523	82.192	811.523	80.7663	811.523	80.4552	811.523	79.0717	811.523	78.5925	811.523	77.2767	811.523	78.0061	811.523	76.4089	811.523	78.3645	811.523	76.7872	811.523	78.6472	811.523	76.8551	811.523	78.3804	811.523	75.3914	811.523	76.3399	811.523	70.4295	811.523	71.4648	811.523	50.6866	811.523	72.1158	811.523	70.6358	811.523	75.6526	811.523	75.4851	811.523	76.725
840.82	87.1349	840.82	87.0501	840.82	86.7634	840.82	86.6429	840.82	85.8396	840.82	85.9616	840.82	84.4943	840.82	84.9849	840.82	82.9356	840.82	83.7384	840.82	81.1315	840.82	82.4222	840.82	79.2206	840.82	81.1352	840.82	77.8701	840.82	79.656	840.82	76.9985	840.82	78.0685	840.82	75.7256	840.82	76.6354	840.82	74.0694	840.82	75.5079	840.82	72.9443	840.82	75.7888	840.82	73.2412	840.82	75.8365	840.82	73.4766	840.82	73.4722	840.82	70.7621	840.82	66.9592	840.82	57.2361	840.82	54.1436	840.82	68.4397	840.82	68.6184	840.82	72.717	840.82	72.2976
870.117	86.7602	870.117	86.7172	870.117	86.4158	870.117	86.3161	870.117	85.6283	870.117	85.5425	870.117	84.3868	870.117	84.4106	870.117	82.8184	870.117	83.0992	870.117	81.1874	870.117	81.8407	870.117	79.6539	870.117	80.5606	870.117	77.9611	870.117	79.1514	870.117	76.0266	870.117	77.8461	870.117	75.0756	870.117	77.2129	870.117	74.7449	870.117	76.961	870.117	73.4889	870.117	75.92	870.117	72.7994	870.117	75.078	870.117	73.0826	870.117	73.9393	870.117	71.8652	870.117	69.8471	870.117	67.2689	870.117	71.1458	870.117	49.5634	870.117	73.6984	870.117	67.3143	870.117	72.5306
900.879	86.3425	900.879	86.3722	900.879	85.9474	900.879	86.1321	900.879	85.1517	900.879	85.5418	900.879	84.0852	900.879	84.3996	900.879	82.9494	900.879	82.8435	900.879	81.7888	900.879	81.4699	900.879	80.307	900.879	80.3744	900.879	78.5277	900.879	78.9161	900.879	77.0434	900.879	76.8895	900.879	75.3709	900.879	74.6345	900.879	74.096	900.879	73.1455	900.879	74.977	900.879	73.4596	900.879	75.4528	900.879	72.8178	900.879	75.0397	900.879	69.2899	900.879	72.9587	900.879	57.4741	900.879	65.463	900.879	66.4711	900.879	61.1813	900.879	71.701	900.879	69.3426	900.879	71.537
933.105	85.2362	933.105	85.3003	933.105	84.8632	933.105	84.8595	933.105	84.3957	933.105	84.0392	933.105	83.6296	933.105	83.0088	933.105	82.2356	933.105	81.6362	933.105	80.5059	933.105	79.8476	933.105	79.3628	933.105	78.3105	933.105	78.546	933.105	77.2623	933.105	77.2035	933.105	75.3352	933.105	75.912	933.105	72.0965	933.105	75.0647	933.105	70.4421	933.105	73.8934	933.105	71.6533	933.105	73.3419	933.105	72.1908	933.105	73.6796	933.105	70.5043	933.105	72.6747	933.105	67.0074	933.105	69.1336	933.105	59.2512	933.105	61.5313	933.105	67.132	933.105	68.1915	933.105	71.1739
965.332	82.7595	965.332	82.7252	965.332	82.4663	965.332	82.1387	965.332	81.874	965.332	81.1016	965.332	80.8224	965.332	79.9181	965.332	79.3559	965.332	78.5664	965.332	77.7082	965.332	77.1042	965.332	76.2486	965.332	75.7508	965.332	75.326	965.332	74.294	965.332	74.3263	965.332	72.3347	965.332	72.7068	965.332	69.6202	965.332	72.164	965.332	68.1237	965.332	71.8167	965.332	69.6079	965.332	71.8533	965.332	70.8263	965.332	72.871	965.332	69.4868	965.332	71.2962	965.332	59.7059	965.332	65.794	965.332	65.1066	965.332	57.674	965.332	70.7696	965.332	67.2156	965.332	70.5654
1,000.49	82.2043	1,000.49	81.9137	1,000.49	81.8288	1,000.49	81.1979	1,000.49	80.8492	1,000.49	80.2702	1,000.49	79.6584	1,000.49	79.0981	1,000.49	78.4872	1,000.49	77.3411	1,000.49	77.106	1,000.49	74.6906	1,000.49	75.4257	1,000.49	72.5295	1,000.49	73.8495	1,000.49	72.0312	1,000.49	72.7804	1,000.49	71.1278	1,000.49	71.1193	1,000.49	70.1638	1,000.49	68.3179	1,000.49	68.7953	1,000.49	68.987	1,000.49	69.3888	1,000.49	70.4562	1,000.49	72.2361	1,000.49	71.688	1,000.49	71.9014	1,000.49	72.2678	1,000.49	67.9853	1,000.49	68.8435	1,000.49	58.8387	1,000.49	64.3828	1,000.49	64.9787	1,000.49	69.0472	1,000.49	69.2152
1,035.64	81.1451	1,035.64	80.9207	1,035.64	80.9083	1,035.64	80.1213	1,035.64	80.3802	1,035.64	79.1161	1,035.64	79.5246	1,035.64	78.1559	1,035.64	78.4474	1,035.64	76.7621	1,035.64	77.3282	1,035.64	74.921	1,035.64	76.1187	1,035.64	73.3812	1,035.64	74.5862	1,035.64	72.0418	1,035.64	72.7395	1,035.64	70.5747	1,035.64	71.0367	1,035.64	68.8623	1,035.64	69.086	1,035.64	65.9383	1,035.64	67.0608	1,035.64	66.7672	1,035.64	65.654	1,035.64	69.5335	1,035.64	68.7069	1,035.64	69.6597	1,035.64	68.556	1,035.64	65.2888	1,035.64	61.7237	1,035.64	59.2616	1,035.64	56.7012	1,035.64	69.7432	1,035.64	66.7302	1,035.64	71.0489
1,072.27	81.1536	1,072.27	81.0218	1,072.27	80.8537	1,072.27	80.6592	1,072.27	80.273	1,072.27	79.7104	1,072.27	79.8151	1,072.27	78.1334	1,072.27	79.1186	1,072.27	76.5706	1,072.27	77.9387	1,072.27	74.7512	1,072.27	76.5877	1,072.27	72.0373	1,072.27	74.9978	1,072.27	69.8117	1,072.27	73.7364	1,072.27	68.383	1,072.27	72.9414	1,072.27	66.6963	1,072.27	70.4479	1,072.27	66.3992	1,072.27	68.0116	1,072.27	65.6383	1,072.27	68.4132	1,072.27	67.2932	1,072.27	68.6848	1,072.27	68.9274	1,072.27	69.4703	1,072.27	66.1641	1,072.27	67.6615	1,072.27	57.4113	1,072.27	61.1099	1,072.27	66.0616	1,072.27	65.6146	1,072.27	67.6062
1,108.89	81.9209	1,108.89	81.6518	1,108.89	81.8234	1,108.89	80.8356	1,108.89	81.4748	1,108.89	79.5763	1,108.89	80.7116	1,108.89	78.0476	1,108.89	79.6243	1,108.89	76.2848	1,108.89	78.5197	1,108.89	74.181	1,108.89	77.7139	1,108.89	72.1296	1,108.89	76.9751	1,108.89	70.526	1,108.89	75.5121	1,108.89	66.2245	1,108.89	73.9371	1,108.89	62.8098	1,108.89	71.8886	1,108.89	64.0863	1,108.89	69.2737	1,108.89	63.8456	1,108.89	68.1683	1,108.89	68.7289	1,108.89	67.923	1,108.89	68.3322	1,108.89	68.9386	1,108.89	61.9733	1,108.89	64.5428	1,108.89	60.8018	1,108.89	60.3152	1,108.89	68.2354	1,108.89	66.7444	1,108.89	69.6838
1,148.44	82.4539	1,148.44	81.9838	1,148.44	82.4398	1,148.44	81.5044	1,148.44	81.7015	1,148.44	80.4576	1,148.44	80.9014	1,148.44	78.5604	1,148.44	80.2395	1,148.44	76.6221	1,148.44	79.1289	1,148.44	75.3408	1,148.44	77.8698	1,148.44	73.9163	1,148.44	77.4424	1,148.44	72.4969	1,148.44	76.4534	1,148.44	71.699	1,148.44	74.7666	1,148.44	70.0095	1,148.44	73.4311	1,148.44	67.415	1,148.44	71.3265	1,148.44	62.146	1,148.44	69.9961	1,148.44	67.4381	1,148.44	71.3293	1,148.44	68.2472	1,148.44	71.1786	1,148.44	66.0436	1,148.44	66.5594	1,148.44	55.7069	1,148.44	60.3967	1,148.44	65.1138	1,148.44	64.6934	1,148.44	68.3043
1,189.45	83.6694	1,189.45	83.1978	1,189.45	83.3812	1,189.45	82.0974	1,189.45	82.7544	1,189.45	80.889	1,189.45	82.0176	1,189.45	79.3811	1,189.45	81.0857	1,189.45	77.3216	1,189.45	80.3702	1,189.45	75.6592	1,189.45	79.4206	1,189.45	73.8129	1,189.45	78.5	1,189.45	72.0428	1,189.45	78.1438	1,189.45	71.4899	1,189.45	76.745	1,189.45	70.2749	1,189.45	74.8016	1,189.45	67.0345	1,189.45	72.049	1,189.45	60.203	1,189.45	71.6694	1,189.45	67.837	1,189.45	72.6472	1,189.45	68.7107	1,189.45	72.2271	1,189.45	67.5005	1,189.45	69.7622	1,189.45	53.7456	1,189.45	63.5955	1,189.45	71.3191	1,189.45	68.7646	1,189.45	72.7947
1,230.47	83.8759	1,230.47	83.2729	1,230.47	83.9931	1,230.47	82.4071	1,230.47	83.4619	1,230.47	81.1271	1,230.47	82.2657	1,230.47	79.7058	1,230.47	80.8755	1,230.47	78.2157	1,230.47	79.8912	1,230.47	76.4945	1,230.47	78.7049	1,230.47	75.6847	1,230.47	77.663	1,230.47	74.4697	1,230.47	77.6993	1,230.47	72.1516	1,230.47	77.4942	1,230.47	69.7636	1,230.47	75.8654	1,230.47	70.3576	1,230.47	73.0635	1,230.47	66.5197	1,230.47	68.9396	1,230.47	57.9013	1,230.47	72.0753	1,230.47	67.554	1,230.47	72.9354	1,230.47	64.554	1,230.47	69.3456	1,230.47	55.9406	1,230.47	61.8825	1,230.47	66.8103	1,230.47	67.4593	1,230.47	70.0273
1,274.41	84.3002	1,274.41	83.8844	1,274.41	84.2218	1,274.41	83.3003	1,274.41	83.7044	1,274.41	82.307	1,274.41	83.1425	1,274.41	80.9975	1,274.41	82.1528	1,274.41	79.2341	1,274.41	80.7837	1,274.41	77.0181	1,274.41	79.6535	1,274.41	75.5801	1,274.41	77.8131	1,274.41	74.4656	1,274.41	77.1229	1,274.41	73.4297	1,274.41	76.5715	1,274.41	72.0748	1,274.41	74.1436	1,274.41	71.5101	1,274.41	73.1771	1,274.41	66.3812	1,274.41	71.59	1,274.41	65.9722	1,274.41	70.853	1,274.41	67.793	1,274.41	73.8146	1,274.41	70.8979	1,274.41	70.6532	1,274.41	63.871	1,274.41	59.9656	1,274.41	67.6665	1,274.41	69.5987	1,274.41	72.2185
1,319.82	84.2274	1,319.82	83.9765	1,319.82	84.3229	1,319.82	83.3505	1,319.82	84.2131	1,319.82	81.8721	1,319.82	83.4234	1,319.82	79.9584	1,319.82	82.6976	1,319.82	78.7289	1,319.82	81.7327	1,319.82	77.501	1,319.82	80.3002	1,319.82	76.6369	1,319.82	77.7583	1,319.82	76.0862	1,319.82	75.8248	1,319.82	76.2354	1,319.82	76.493	1,319.82	74.4473	1,319.82	75.6093	1,319.82	73.185	1,319.82	74.3437	1,319.82	70.6815	1,319.82	71.3953	1,319.82	63.0707	1,319.82	71.0583	1,319.82	65.5312	1,319.82	72.9356	1,319.82	67.602	1,319.82	70.2842	1,319.82	59.4387	1,319.82	66.7411	1,319.82	68.1315	1,319.82	68.2988	1,319.82	72.2837
1,366.7	84.2775	1,366.7	83.9704	1,366.7	84.4712	1,366.7	83.4512	1,366.7	84.3171	1,366.7	82.4105	1,366.7	83.372	1,366.7	80.8363	1,366.7	82.6474	1,366.7	79.4659	1,366.7	82.3425	1,366.7	78.0872	1,366.7	81.3283	1,366.7	75.9585	1,366.7	79.7099	1,366.7	74.881	1,366.7	76.9213	1,366.7	74.8427	1,366.7	76.0977	1,366.7	70.7473	1,366.7	75.632	1,366.7	67.3689	1,366.7	74.9524	1,366.7	71.0992	1,366.7	73.5938	1,366.7	66.5571	1,366.7	68.8817	1,366.7	69.4996	1,366.7	72.6441	1,366.7	68.1109	1,366.7	72.5689	1,366.7	52.5051	1,366.7	65.6589	1,366.7	67.6687	1,366.7	65.653	1,366.7	72.3107
1,413.57	85.5518	1,413.57	85.0963	1,413.57	85.5488	1,413.57	84.2203	1,413.57	85.4769	1,413.57	83.2077	1,413.57	85.0432	1,413.57	82.1272	1,413.57	84.3371	1,413.57	80.3986	1,413.57	83.8682	1,413.57	77.8863	1,413.57	82.8463	1,413.57	76.063	1,413.57	80.657	1,413.57	72.1517	1,413.57	79.2261	1,413.57	70.0666	1,413.57	78.3484	1,413.57	71.6153	1,413.57	77.6503	1,413.57	73.408	1,413.57	75.8924	1,413.57	72.0204	1,413.57	75.9663	1,413.57	68.2347	1,413.57	75.1168	1,413.57	65.3085	1,413.57	74.6661	1,413.57	69.09	1,413.57	74.8414	1,413.57	64.3964	1,413.57	71.4522	1,413.57	71.486	1,413.57	68.8924	1,413.57	72.4898
1,463.38	86.1937	1,463.38	85.3267	1,463.38	86.1463	1,463.38	84.5862	1,463.38	85.8421	1,463.38	84.274	1,463.38	85.9481	1,463.38	83.2304	1,463.38	85.7898	1,463.38	82.3666	1,463.38	84.9419	1,463.38	81.8588	1,463.38	83.9926	1,463.38	79.3753	1,463.38	82.3634	1,463.38	76.7913	1,463.38	81.1325	1,463.38	73.6789	1,463.38	79.3192	1,463.38	75.9333	1,463.38	77.6394	1,463.38	73.1437	1,463.38	77.2721	1,463.38	72.3369	1,463.38	79.0111	1,463.38	71.0953	1,463.38	76.7958	1,463.38	68.5127	1,463.38	75.0582	1,463.38	68.9944	1,463.38	74.2054	1,463.38	61.0751	1,463.38	68.8131	1,463.38	58.4911	1,463.38	71.4301	1,463.38	70.2794
1,516.11	85.5909	1,516.11	85.699	1,516.11	85.8915	1,516.11	85.004	1,516.11	86.3614	1,516.11	83.9304	1,516.11	86.3944	1,516.11	83.3063	1,516.11	86.2692	1,516.11	81.4871	1,516.11	84.5658	1,516.11	81.1922	1,516.11	82.6707	1,516.11	80.2284	1,516.11	82.2123	1,516.11	74.9245	1,516.11	80.0439	1,516.11	75.9468	1,516.11	79.9465	1,516.11	75.6563	1,516.11	78.9888	1,516.11	71.1447	1,516.11	76.3631	1,516.11	68.2911	1,516.11	74.0452	1,516.11	68.3794	1,516.11	76.531	1,516.11	74.3879	1,516.11	71.302	1,516.11	71.5017	1,516.11	75.8329	1,516.11	67.4225	1,516.11	72.0128	1,516.11	67.7123	1,516.11	67.7831	1,516.11	70.0294
1,568.85	85.8845	1,568.85	85.3109	1,568.85	85.5679	1,568.85	85.3931	1,568.85	86.3313	1,568.85	84.7159	1,568.85	87.0258	1,568.85	83.3943	1,568.85	86.1826	1,568.85	82.3425	1,568.85	84.9819	1,568.85	80.6887	1,568.85	82.1656	1,568.85	80.0888	1,568.85	82.0226	1,568.85	77.6003	1,568.85	80.8577	1,568.85	73.6171	1,568.85	78.7754	1,568.85	73.1604	1,568.85	79.6602	1,568.85	68.7349	1,568.85	77.8804	1,568.85	69.6335	1,568.85	74.9592	1,568.85	64.449	1,568.85	71.879	1,568.85	68.9469	1,568.85	69.6151	1,568.85	70.3508	1,568.85	71.5781	1,568.85	66.9433	1,568.85	67.1426	1,568.85	71.2314	1,568.85	70.0176	1,568.85	74.1126
1,624.51	85.936	1,624.51	85.104	1,624.51	85.9993	1,624.51	84.4639	1,624.51	86.2865	1,624.51	84.1084	1,624.51	86.5446	1,624.51	83.8648	1,624.51	85.8091	1,624.51	83.007	1,624.51	85.7611	1,624.51	81.9588	1,624.51	84.6431	1,624.51	80.5977	1,624.51	82.217	1,624.51	77.4337	1,624.51	80.7871	1,624.51	75.381	1,624.51	78.0678	1,624.51	76.1624	1,624.51	74.8973	1,624.51	72.1298	1,624.51	76.11	1,624.51	68.5244	1,624.51	73.8374	1,624.51	66.8009	1,624.51	74.928	1,624.51	68.4232	1,624.51	76.8081	1,624.51	74.2465	1,624.51	75.6576	1,624.51	71.8936	1,624.51	75.8554	1,624.51	68.0449	1,624.51	64.3883	1,624.51	70.3179
1,681.64	85.7905	1,681.64	83.8417	1,681.64	86.5114	1,681.64	83.4599	1,681.64	86.9287	1,681.64	83.9492	1,681.64	86.9528	1,681.64	83.5746	1,681.64	87.6715	1,681.64	83.6686	1,681.64	86.9247	1,681.64	81.1136	1,681.64	86.4764	1,681.64	80.3245	1,681.64	83.9593	1,681.64	79.0131	1,681.64	81.8711	1,681.64	77.0527	1,681.64	79.7535	1,681.64	77.2353	1,681.64	80.462	1,681.64	77.037	1,681.64	78.7817	1,681.64	74.8028	1,681.64	77.4977	1,681.64	71.378	1,681.64	76.5856	1,681.64	69.5928	1,681.64	77.0399	1,681.64	74.0815	1,681.64	75.5789	1,681.64	75.0833	1,681.64	73.5353	1,681.64	74.391	1,681.64	72.1368	1,681.64	73.9884
1,741.7	86.9399	1,741.7	85.1533	1,741.7	88.7647	1,741.7	86.0046	1,741.7	88.4994	1,741.7	85.9539	1,741.7	89.6576	1,741.7	85.0803	1,741.7	89.089	1,741.7	84.7741	1,741.7	88.0316	1,741.7	84.7901	1,741.7	86.7806	1,741.7	82.535	1,741.7	85.1216	1,741.7	81.1237	1,741.7	83.9019	1,741.7	76.7762	1,741.7	81.1574	1,741.7	73.3226	1,741.7	79.8399	1,741.7	77.4358	1,741.7	81.1599	1,741.7	72.6009	1,741.7	78.6598	1,741.7	74.5986	1,741.7	78.2846	1,741.7	71.9789	1,741.7	72.7855	1,741.7	76.7654	1,741.7	74.2711	1,741.7	74.2265	1,741.7	77.5896	1,741.7	68.8615	1,741.7	73.4449	1,741.7	67.9659
1,803.22	88.3727	1,803.22	87.61	1,803.22	89.3665	1,803.22	87.6323	1,803.22	90.0802	1,803.22	87.4618	1,803.22	90.3328	1,803.22	87.3985	1,803.22	89.568	1,803.22	86.5958	1,803.22	88.4324	1,803.22	86.0098	1,803.22	86.5874	1,803.22	84.2882	1,803.22	85.0455	1,803.22	82.0746	1,803.22	83.3834	1,803.22	79.6236	1,803.22	81.1772	1,803.22	76.7435	1,803.22	77.8726	1,803.22	76.6718	1,803.22	77.3638	1,803.22	75.1922	1,803.22	76.5859	1,803.22	74.3091	1,803.22	77.0647	1,803.22	71.5237	1,803.22	75.9487	1,803.22	74.773	1,803.22	76.5775	1,803.22	73.7738	1,803.22	75.7141	1,803.22	70.5787	1,803.22	65.4119	1,803.22	74.8072
1,866.21	88.95	1,866.21	88.3467	1,866.21	89.8766	1,866.21	88.2707	1,866.21	90.4558	1,866.21	88.2627	1,866.21	90.1674	1,866.21	87.652	1,866.21	89.1608	1,866.21	87.3223	1,866.21	87.4036	1,866.21	86.3134	1,866.21	85.5557	1,866.21	84.3166	1,866.21	82.9239	1,866.21	82.255	1,866.21	81.5962	1,866.21	81.5005	1,866.21	80.5077	1,866.21	78.2108	1,866.21	77.1534	1,866.21	77.8242	1,866.21	76.6494	1,866.21	74.52	1,866.21	74.2202	1,866.21	75.084	1,866.21	75.3282	1,866.21	72.4344	1,866.21	75.2598	1,866.21	77.1165	1,866.21	70.2423	1,866.21	75.482	1,866.21	74.5974	1,866.21	73.1044	1,866.21	71.252	1,866.21	74.167
1,932.13	89.7868	1,932.13	89.0847	1,932.13	90.7707	1,932.13	88.8077	1,932.13	90.9678	1,932.13	88.9657	1,932.13	90.7544	1,932.13	88.7417	1,932.13	89.5358	1,932.13	87.4643	1,932.13	87.6294	1,932.13	85.9311	1,932.13	86.1317	1,932.13	84.5106	1,932.13	84.2257	1,932.13	82.3023	1,932.13	81.8425	1,932.13	79.4854	1,932.13	80.5379	1,932.13	76.2656	1,932.13	79.6477	1,932.13	75.8173	1,932.13	76.1646	1,932.13	73.5862	1,932.13	76.2506	1,932.13	76.5989	1,932.13	71.8122	1,932.13	74.0818	1,932.13	77.199	1,932.13	74.5065	1,932.13	74.218	1,932.13	73.339	1,932.13	75.5448	1,932.13	68.7135	1,932.13	68.1055	1,932.13	70.6609
1,999.51	91.0819	1,999.51	90.4989	1,999.51	91.6893	1,999.51	90.244	1,999.51	91.8366	1,999.51	90.065	1,999.51	91.2529	1,999.51	89.4639	1,999.51	90.1419	1,999.51	88.5499	1,999.51	88.0055	1,999.51	86.7569	1,999.51	85.969	1,999.51	84.9934	1,999.51	84.5176	1,999.51	82.5919	1,999.51	82.2792	1,999.51	81.0619	1,999.51	81.0368	1,999.51	78.3679	1,999.51	79.5222	1,999.51	76.478	1,999.51	78.3923	1,999.51	73.8102	1,999.51	75.3335	1,999.51	71.9765	1,999.51	74.8773	1,999.51	74.0905	1,999.51	77.99	1,999.51	74.9226	1,999.51	74.4163	1,999.51	71.1652	1,999.51	77.0291	1,999.51	70.1494	1,999.51	72.0263	1,999.51	71.3654
2,069.82	90.3112	2,069.82	89.9116	2,069.82	90.552	2,069.82	90.1859	2,069.82	90.5948	2,069.82	90.7072	2,069.82	90.0275	2,069.82	90.6357	2,069.82	88.9515	2,069.82	89.7975	2,069.82	87.4417	2,069.82	88.1715	2,069.82	85.7762	2,069.82	86.0496	2,069.82	83.9641	2,069.82	83.2299	2,069.82	82.0962	2,069.82	80.8054	2,069.82	80.4184	2,069.82	79.1597	2,069.82	79.0116	2,069.82	75.7807	2,069.82	77.4622	2,069.82	76.7334	2,069.82	76.4063	2,069.82	74.5567	2,069.82	74.5052	2,069.82	74.6141	2,069.82	76.3443	2,069.82	76.6164	2,069.82	74.4895	2,069.82	75.1668	2,069.82	75.8093	2,069.82	73.3512	2,069.82	72.1458	2,069.82	71.3087
2,143.07	88.1947	2,143.07	88.1792	2,143.07	88.3414	2,143.07	88.982	2,143.07	88.2553	2,143.07	89.9095	2,143.07	87.6495	2,143.07	90.2554	2,143.07	86.5567	2,143.07	89.5402	2,143.07	85.0391	2,143.07	87.8438	2,143.07	83.4601	2,143.07	86.0773	2,143.07	82.4524	2,143.07	84.1626	2,143.07	80.0307	2,143.07	81.4381	2,143.07	79.491	2,143.07	79.5099	2,143.07	77.1259	2,143.07	77.5387	2,143.07	76.4181	2,143.07	76.724	2,143.07	74.2988	2,143.07	74.3957	2,143.07	73.8945	2,143.07	75.3869	2,143.07	75.3609	2,143.07	72.9077	2,143.07	75.4766	2,143.07	73.4315	2,143.07	74.9055	2,143.07	73.016	2,143.07	73.0486	2,143.07	70.7346
2,219.24	87.0043	2,219.24	87.0943	2,219.24	87.0239	2,219.24	87.6248	2,219.24	87.0843	2,219.24	88.2136	2,219.24	86.2053	2,219.24	88.357	2,219.24	84.735	2,219.24	87.9026	2,219.24	83.2973	2,219.24	86.4002	2,219.24	82.4903	2,219.24	84.6586	2,219.24	80.8943	2,219.24	81.8333	2,219.24	79.9742	2,219.24	79.4616	2,219.24	78.9167	2,219.24	78.6203	2,219.24	77.0527	2,219.24	74.7411	2,219.24	76.5321	2,219.24	74.7394	2,219.24	74.3611	2,219.24	75.0028	2,219.24	74.2932	2,219.24	75.0655	2,219.24	72.3456	2,219.24	77.5992	2,219.24	71.0145	2,219.24	72.9398	2,219.24	72.073	2,219.24	73.1166	2,219.24	73.1328	2,219.24	70.4721
2,296.88	87.4145	2,296.88	87.2389	2,296.88	87.2277	2,296.88	87.2092	2,296.88	86.4248	2,296.88	87.631	2,296.88	85.3042	2,296.88	87.761	2,296.88	84.1118	2,296.88	86.8674	2,296.88	83.4791	2,296.88	85.4485	2,296.88	82.4296	2,296.88	82.8806	2,296.88	81.3218	2,296.88	80.6018	2,296.88	80.29	2,296.88	78.5318	2,296.88	78.0248	2,296.88	76.0993	2,296.88	77.7401	2,296.88	73.3703	2,296.88	75.6394	2,296.88	72.7563	2,296.88	74.3831	2,296.88	73.3806	2,296.88	71.4786	2,296.88	73.8686	2,296.88	74.9066	2,296.88	71.5386	2,296.88	75.5017	2,296.88	72.4141	2,296.88	73.9739	2,296.88	67.3207	2,296.88	72.7334	2,296.88	70.2826
2,378.91	86.9719	2,378.91	86.8903	2,378.91	86.6119	2,378.91	86.0947	2,378.91	85.6487	2,378.91	86.1207	2,378.91	84.7592	2,378.91	85.5069	2,378.91	84.6197	2,378.91	85.3909	2,378.91	83.9528	2,378.91	84.5176	2,378.91	82.8182	2,378.91	82.3174	2,378.91	81.9492	2,378.91	81.6634	2,378.91	79.635	2,378.91	77.8571	2,378.91	77.0869	2,378.91	76.9397	2,378.91	75.5958	2,378.91	74.6117	2,378.91	73.5725	2,378.91	71.3721	2,378.91	73.3796	2,378.91	70.8612	2,378.91	70.8255	2,378.91	75.2476	2,378.91	72.2703	2,378.91	74.7933	2,378.91	74.0184	2,378.91	72.9226	2,378.91	70.4518	2,378.91	69.8017	2,378.91	72.6849	2,378.91	71.3391
2,462.4	86.9175	2,462.4	86.2813	2,462.4	86.4808	2,462.4	85.3331	2,462.4	85.8633	2,462.4	84.643	2,462.4	85.8166	2,462.4	84.3212	2,462.4	86.1069	2,462.4	83.1504	2,462.4	85.7859	2,462.4	82.2916	2,462.4	84.6795	2,462.4	80.5581	2,462.4	82.5667	2,462.4	77.7925	2,462.4	81.4281	2,462.4	75.6177	2,462.4	79.1699	2,462.4	75.0026	2,462.4	77.0733	2,462.4	72.9615	2,462.4	74.0051	2,462.4	72.5401	2,462.4	73.0874	2,462.4	72.5958	2,462.4	71.7659	2,462.4	73.5872	2,462.4	73.0585	2,462.4	75.3624	2,462.4	74.8346	2,462.4	71.2703	2,462.4	71.5386	2,462.4	70.8037	2,462.4	71.4537	2,462.4	67.7894
2,548.83	87.3498	2,548.83	86.4205	2,548.83	87.2165	2,548.83	85.6725	2,548.83	87.3553	2,548.83	84.729	2,548.83	87.9089	2,548.83	84.5575	2,548.83	87.8189	2,548.83	82.9946	2,548.83	87.144	2,548.83	80.6494	2,548.83	85.7528	2,548.83	79.5706	2,548.83	83.3418	2,548.83	76.7444	2,548.83	81.909	2,548.83	74.9247	2,548.83	79.6631	2,548.83	70.405	2,548.83	77.7853	2,548.83	70.9369	2,548.83	74.2873	2,548.83	69.8128	2,548.83	74.6497	2,548.83	66.1711	2,548.83	69.938	2,548.83	72.0485	2,548.83	71.8811	2,548.83	72.7326	2,548.83	74.4537	2,548.83	73.9962	2,548.83	71.7504	2,548.83	71.9483	2,548.83	73.6026	2,548.83	71.0054
2,639.65	86.8989	2,639.65	86.731	2,639.65	87.4587	2,639.65	86.0161	2,639.65	88.2992	2,639.65	84.8177	2,639.65	88.1359	2,639.65	83.9541	2,639.65	87.8258	2,639.65	84.0115	2,639.65	86.1083	2,639.65	81.776	2,639.65	83.9711	2,639.65	80.2766	2,639.65	82.0386	2,639.65	79.4228	2,639.65	79.7727	2,639.65	75.422	2,639.65	76.5764	2,639.65	72.602	2,639.65	74.9956	2,639.65	71.6698	2,639.65	73.3062	2,639.65	68.166	2,639.65	73.5792	2,639.65	68.004	2,639.65	68.6146	2,639.65	71.859	2,639.65	70.2803	2,639.65	72.5373	2,639.65	72.6135	2,639.65	72.6509	2,639.65	69.4085	2,639.65	69.3892	2,639.65	72.7871	2,639.65	69.615
2,731.93	87.4081	2,731.93	87.0614	2,731.93	88.2766	2,731.93	86.0577	2,731.93	88.8846	2,731.93	85.0661	2,731.93	88.7256	2,731.93	83.2899	2,731.93	87.6972	2,731.93	82.8233	2,731.93	85.9753	2,731.93	82.6674	2,731.93	83.8592	2,731.93	80.4029	2,731.93	81.932	2,731.93	77.2566	2,731.93	78.7894	2,731.93	76.437	2,731.93	77.0179	2,731.93	73.029	2,731.93	76.66	2,731.93	71.6959	2,731.93	74.8594	2,731.93	68.0322	2,731.93	73.3363	2,731.93	65.9274	2,731.93	71.104	2,731.93	71.451	2,731.93	69.5869	2,731.93	69.657	2,731.93	72.1546	2,731.93	71.5701	2,731.93	67.7769	2,731.93	64.1057	2,731.93	71.7194	2,731.93	69.5059
2,828.61	88.1788	2,828.61	87.0721	2,828.61	88.8107	2,828.61	85.9961	2,828.61	88.7845	2,828.61	85.5022	2,828.61	88.8562	2,828.61	84.9678	2,828.61	87.2763	2,828.61	83.6223	2,828.61	85.5629	2,828.61	82.5735	2,828.61	83.4092	2,828.61	80.7344	2,828.61	81.3331	2,828.61	78.2447	2,828.61	79.7237	2,828.61	78.1128	2,828.61	79.3065	2,828.61	73.8878	2,828.61	76.0991	2,828.61	72.1081	2,828.61	74.706	2,828.61	70.2407	2,828.61	72.466	2,828.61	67.9966	2,828.61	71.8397	2,828.61	71.9289	2,828.61	71.5552	2,828.61	69.6238	2,828.61	72.9667	2,828.61	71.7582	2,828.61	69.3406	2,828.61	65.1661	2,828.61	72.8673	2,828.61	69.3845
2,928.22	86.831	2,928.22	85.4791	2,928.22	87.1803	2,928.22	84.549	2,928.22	87.062	2,928.22	83.4402	2,928.22	86.8482	2,928.22	84.4836	2,928.22	85.1816	2,928.22	83.8135	2,928.22	82.9346	2,928.22	82.8708	2,928.22	80.8588	2,928.22	81.7204	2,928.22	79.667	2,928.22	80.1836	2,928.22	78.1719	2,928.22	78	2,928.22	77.1758	2,928.22	74.9348	2,928.22	74.0479	2,928.22	71.421	2,928.22	73.3806	2,928.22	70.909	2,928.22	71.0532	2,928.22	68.9161	2,928.22	67.9238	2,928.22	69.2014	2,928.22	69.5832	2,928.22	71.9046	2,928.22	70.6006	2,928.22	74.3464	2,928.22	68.9897	2,928.22	67.8988	2,928.22	69.9069	2,928.22	64.721
3,030.76	87.2981	3,030.76	86.4025	3,030.76	87.2312	3,030.76	84.6054	3,030.76	87.292	3,030.76	83.598	3,030.76	86.026	3,030.76	83.5062	3,030.76	84.1554	3,030.76	84.2216	3,030.76	82.4643	3,030.76	83.2853	3,030.76	81.8475	3,030.76	82.479	3,030.76	80.5034	3,030.76	80.1405	3,030.76	79.6168	3,030.76	75.9315	3,030.76	77.6121	3,030.76	74.8629	3,030.76	76.1884	3,030.76	71.6861	3,030.76	74.4966	3,030.76	70.2894	3,030.76	71.7996	3,030.76	68.1126	3,030.76	68.9181	3,030.76	70.6984	3,030.76	69.4876	3,030.76	73.8968	3,030.76	70.274	3,030.76	72.4767	3,030.76	67.6848	3,030.76	67.7756	3,030.76	72.7553	3,030.76	63.5401
3,137.7	87.3882	3,137.7	86.8689	3,137.7	87.4325	3,137.7	85.658	3,137.7	86.5785	3,137.7	84.9534	3,137.7	84.9583	3,137.7	84.7448	3,137.7	83.9	3,137.7	84.4257	3,137.7	83.9292	3,137.7	85.0756	3,137.7	84.138	3,137.7	83.4527	3,137.7	83.4166	3,137.7	80.8901	3,137.7	81.4775	3,137.7	77.8408	3,137.7	79.4108	3,137.7	75.8308	3,137.7	77.5461	3,137.7	73.5376	3,137.7	75.8641	3,137.7	70.0348	3,137.7	72.9284	3,137.7	70.2232	3,137.7	71.7736	3,137.7	70.4611	3,137.7	69.8285	3,137.7	72.3356	3,137.7	72.0341	3,137.7	73.4918	3,137.7	70.3742	3,137.7	66.7691	3,137.7	72.2475	3,137.7	65.632
3,249.02	87.5913	3,249.02	87.429	3,249.02	86.4531	3,249.02	87.0249	3,249.02	85.1633	3,249.02	86.5185	3,249.02	84.6022	3,249.02	86.3727	3,249.02	85.0767	3,249.02	86.0872	3,249.02	86.2596	3,249.02	85.1795	3,249.02	85.8749	3,249.02	83.0706	3,249.02	85.1422	3,249.02	80.3033	3,249.02	82.035	3,249.02	77.3293	3,249.02	79.0401	3,249.02	74.478	3,249.02	78.1731	3,249.02	72.6218	3,249.02	75.2317	3,249.02	70.9343	3,249.02	73.4397	3,249.02	67.9383	3,249.02	70.5518	3,249.02	68.4984	3,249.02	68.41	3,249.02	71.535	3,249.02	69.5323	3,249.02	73.0868	3,249.02	69.9081	3,249.02	65.9026	3,249.02	72.57	3,249.02	59.0969
3,363.28	87.1802	3,363.28	88.1881	3,363.28	86.5408	3,363.28	87.9244	3,363.28	85.8047	3,363.28	86.9751	3,363.28	86.2294	3,363.28	87.0313	3,363.28	87.5554	3,363.28	86.6703	3,363.28	87.7461	3,363.28	85.0894	3,363.28	87.0171	3,363.28	82.4737	3,363.28	85.1352	3,363.28	79.8247	3,363.28	82.7057	3,363.28	77.4043	3,363.28	81.1394	3,363.28	75.2331	3,363.28	78.0966	3,363.28	71.5296	3,363.28	76.0767	3,363.28	69.4749	3,363.28	73.7177	3,363.28	68.5152	3,363.28	73.3012	3,363.28	67.3649	3,363.28	71.579	3,363.28	69.2976	3,363.28	69.559	3,363.28	71.0177	3,363.28	70.9404	3,363.28	65.8668	3,363.28	70.6724	3,363.28	62.8173
3,481.93	87.6771	3,481.93	88.57	3,481.93	86.7762	3,481.93	88.1524	3,481.93	86.7456	3,481.93	87.4614	3,481.93	87.569	3,481.93	87.0747	3,481.93	88.7433	3,481.93	87.2348	3,481.93	88.4185	3,481.93	85.6017	3,481.93	87.0973	3,481.93	83.467	3,481.93	84.6318	3,481.93	81.2504	3,481.93	82.7843	3,481.93	78.4328	3,481.93	80.336	3,481.93	74.6927	3,481.93	77.7059	3,481.93	71.0842	3,481.93	75.6287	3,481.93	70.5027	3,481.93	73.8251	3,481.93	70.5218	3,481.93	72.5861	3,481.93	66.0155	3,481.93	71.1838	3,481.93	72.4682	3,481.93	71.5911	3,481.93	72.2907	3,481.93	72.1152	3,481.93	63.6052	3,481.93	72.1003	3,481.93	59.3122
3,604.98	87.1455	3,604.98	87.8838	3,604.98	85.8179	3,604.98	87.3425	3,604.98	86.2208	3,604.98	87.3067	3,604.98	87.2273	3,604.98	86.9685	3,604.98	87.6265	3,604.98	86.8467	3,604.98	87.641	3,604.98	85.9666	3,604.98	85.9313	3,604.98	83.8311	3,604.98	83.0565	3,604.98	80.5297	3,604.98	81.431	3,604.98	77.5538	3,604.98	78.5808	3,604.98	74.3476	3,604.98	76.7115	3,604.98	70.9395	3,604.98	72.7915	3,604.98	71.1517	3,604.98	72.9911	3,604.98	67.2835	3,604.98	68.4735	3,604.98	68.5356	3,604.98	66.1919	3,604.98	72.8504	3,604.98	69.5986	3,604.98	71.9323	3,604.98	68.8662	3,604.98	60.8713	3,604.98	71.1064	3,604.98	54.3751
3,732.42	86.629	3,732.42	86.8397	3,732.42	86.4593	3,732.42	87.0413	3,732.42	86.7232	3,732.42	86.6463	3,732.42	87.6486	3,732.42	86.8795	3,732.42	88.05	3,732.42	86.7716	3,732.42	86.8952	3,732.42	85.9904	3,732.42	84.9022	3,732.42	83.7298	3,732.42	82.8717	3,732.42	81.5555	3,732.42	80.1001	3,732.42	78.2108	3,732.42	77.8662	3,732.42	75.5261	3,732.42	75.3817	3,732.42	71.4957	3,732.42	73.0116	3,732.42	69.5223	3,732.42	70.913	3,732.42	70.0769	3,732.42	69.2652	3,732.42	68.6638	3,732.42	67.6325	3,732.42	70.2364	3,732.42	68.216	3,732.42	71.5747	3,732.42	68.5622	3,732.42	59.1674	3,732.42	68.9143	3,732.42	57.2
3,864.26	86.3407	3,864.26	86.4857	3,864.26	86.4011	3,864.26	86.6428	3,864.26	86.7579	3,864.26	86.6607	3,864.26	87.1933	3,864.26	86.7998	3,864.26	87.3848	3,864.26	87.4264	3,864.26	86.0592	3,864.26	86.0584	3,864.26	83.9892	3,864.26	84.0013	3,864.26	82.3338	3,864.26	80.8999	3,864.26	80.0069	3,864.26	77.3942	3,864.26	77.8021	3,864.26	75.0655	3,864.26	76.0274	3,864.26	70.7058	3,864.26	73.6075	3,864.26	71.162	3,864.26	72.4726	3,864.26	71.7426	3,864.26	69.4809	3,864.26	68.2503	3,864.26	68.3272	3,864.26	70.5269	3,864.26	69.211	3,864.26	72.377	3,864.26	67.1182	3,864.26	50.8782	3,864.26	66.8596	3,864.26	60.3566
4,000.49	85.6901	4,000.49	86.5093	4,000.49	85.2447	4,000.49	86.7528	4,000.49	85.9724	4,000.49	86.8449	4,000.49	86.4833	4,000.49	87.6721	4,000.49	86.0302	4,000.49	86.9631	4,000.49	85.1648	4,000.49	85.6276	4,000.49	84.4233	4,000.49	82.7093	4,000.49	82.3453	4,000.49	79.4762	4,000.49	80.0277	4,000.49	76.924	4,000.49	78.0528	4,000.49	74.5039	4,000.49	75.8643	4,000.49	72.4641	4,000.49	74.0847	4,000.49	67.7782	4,000.49	70.7276	4,000.49	64.5896	4,000.49	68.9029	4,000.49	68.8043	4,000.49	66.2635	4,000.49	72.3686	4,000.49	69.9442	4,000.49	70.9596	4,000.49	67.7212	4,000.49	59.8905	4,000.49	69.231	4,000.49	52.7533
4,141.11	85.6767	4,141.11	85.4474	4,141.11	85.8098	4,141.11	86.4437	4,141.11	85.3575	4,141.11	86.8484	4,141.11	86.4903	4,141.11	86.7773	4,141.11	87.1612	4,141.11	86.1019	4,141.11	86.5739	4,141.11	84.7992	4,141.11	84.4977	4,141.11	82.3436	4,141.11	83.0791	4,141.11	79.634	4,141.11	81.5888	4,141.11	76.8149	4,141.11	78.8283	4,141.11	74.4055	4,141.11	76.8087	4,141.11	70.1183	4,141.11	74.0078	4,141.11	69.0667	4,141.11	73.3204	4,141.11	67.1885	4,141.11	71.7491	4,141.11	65.6781	4,141.11	67.1025	4,141.11	67.7249	4,141.11	70.3114	4,141.11	70.1578	4,141.11	66.6504	4,141.11	62.3773	4,141.11	66.3268	4,141.11	62.0521
4,287.6	84.5996	4,287.6	86.1377	4,287.6	83.7166	4,287.6	86.4087	4,287.6	85.6188	4,287.6	86.1366	4,287.6	86.7249	4,287.6	85.9761	4,287.6	86.9589	4,287.6	85.7145	4,287.6	85.8557	4,287.6	84.7618	4,287.6	85.5244	4,287.6	83.2788	4,287.6	83.7801	4,287.6	80.5439	4,287.6	82.0848	4,287.6	77.5961	4,287.6	79.888	4,287.6	73.7735	4,287.6	77.029	4,287.6	71.6585	4,287.6	75.1334	4,287.6	68.3712	4,287.6	72.9684	4,287.6	66.3285	4,287.6	70.4006	4,287.6	65.6166	4,287.6	67.8954	4,287.6	70.346	4,287.6	66.8821	4,287.6	71.7416	4,287.6	69.4904	4,287.6	48.0705	4,287.6	67.4207	4,287.6	63.923
4,438.48	85.3111	4,438.48	85.8334	4,438.48	85.7411	4,438.48	86.0482	4,438.48	85.6818	4,438.48	85.4198	4,438.48	86.3796	4,438.48	86.1568	4,438.48	86.2001	4,438.48	85.8883	4,438.48	86.8339	4,438.48	84.6789	4,438.48	86.3337	4,438.48	83.1962	4,438.48	85.4774	4,438.48	80.0898	4,438.48	82.1643	4,438.48	78.5572	4,438.48	80.1823	4,438.48	72.2431	4,438.48	77.0641	4,438.48	72.3807	4,438.48	75.9732	4,438.48	69.4456	4,438.48	72.5499	4,438.48	68.9331	4,438.48	72.5296	4,438.48	66.2826	4,438.48	69.4186	4,438.48	70.9805	4,438.48	69.9875	4,438.48	71.9529	4,438.48	70.9768	4,438.48	60.775	4,438.48	68.4315	4,438.48	65.2107
4,595.21	85.6961	4,595.21	85.8675	4,595.21	85.5211	4,595.21	87.0423	4,595.21	85.388	4,595.21	86.121	4,595.21	85.9004	4,595.21	85.4365	4,595.21	87.0983	4,595.21	86.5658	4,595.21	87.0881	4,595.21	86.0409	4,595.21	86.1099	4,595.21	84.9768	4,595.21	83.8648	4,595.21	82.4645	4,595.21	81.9615	4,595.21	79.4438	4,595.21	78.5003	4,595.21	77.6473	4,595.21	77.4077	4,595.21	73.1185	4,595.21	75.3115	4,595.21	69.1767	4,595.21	73.1823	4,595.21	68.7033	4,595.21	71.6537	4,595.21	66.2469	4,595.21	67.2039	4,595.21	70.5343	4,595.21	63.5925	4,595.21	73.6238	4,595.21	68.6982	4,595.21	59.4107	4,595.21	68.6225	4,595.21	63.9917
4,756.35	85.5609	4,756.35	86.2292	4,756.35	85.6235	4,756.35	86.3879	4,756.35	86.4018	4,756.35	85.5011	4,756.35	86.9359	4,756.35	84.0905	4,756.35	86.4287	4,756.35	85.0074	4,756.35	86.2418	4,756.35	85.4405	4,756.35	86.0603	4,756.35	84.5786	4,756.35	84.1977	4,756.35	81.4499	4,756.35	80.9648	4,756.35	78.4038	4,756.35	78.7639	4,756.35	76.705	4,756.35	75.6521	4,756.35	74.8184	4,756.35	73.6036	4,756.35	71.9063	4,756.35	71.8164	4,756.35	67.8651	4,756.35	67.3036	4,756.35	71.2308	4,756.35	67.6207	4,756.35	73.8496	4,756.35	65.7854	4,756.35	73.3468	4,756.35	66.5805	4,756.35	53.1925	4,756.35	67.8948	4,756.35	63.2636
4,924.8	85.201	4,924.8	85.8492	4,924.8	85.0779	4,924.8	87.4873	4,924.8	85.7154	4,924.8	86.8024	4,924.8	85.2853	4,924.8	85.0579	4,924.8	85.7027	4,924.8	85.8944	4,924.8	86.3765	4,924.8	86.3457	4,924.8	85.2556	4,924.8	85.1267	4,924.8	83.6521	4,924.8	83.308	4,924.8	80.705	4,924.8	80.9123	4,924.8	77.6896	4,924.8	78.1721	4,924.8	74.6892	4,924.8	75.9037	4,924.8	74.3433	4,924.8	70.185	4,924.8	71.1871	4,924.8	70.7633	4,924.8	67.5541	4,924.8	63.7104	4,924.8	68.3199	4,924.8	72.6586	4,924.8	66.2325	4,924.8	74.0212	4,924.8	63.9576	4,924.8	63.7185	4,924.8	66.9847	4,924.8	62.8957
5,097.66	84.746	5,097.66	85.3773	5,097.66	85.0032	5,097.66	85.9957	5,097.66	85.8659	5,097.66	85.6831	5,097.66	85.7184	5,097.66	83.7304	5,097.66	85.4859	5,097.66	83.9772	5,097.66	85.8007	5,097.66	85.4781	5,097.66	84.7462	5,097.66	84.4066	5,097.66	81.9342	5,097.66	81.8268	5,097.66	79.7908	5,097.66	78.5014	5,097.66	77.2769	5,097.66	77.4121	5,097.66	74.6949	5,097.66	72.8389	5,097.66	71.9856	5,097.66	71.0205	5,097.66	69.619	5,097.66	68.5878	5,097.66	68.1383	5,097.66	69.1793	5,097.66	65.4417	5,097.66	70.8357	5,097.66	54.7245	5,097.66	73.6621	5,097.66	60.3104	5,097.66	59.9714	5,097.66	64.3299	5,097.66	63.0155
5,277.83	82.2691	5,277.83	84.5352	5,277.83	83.1222	5,277.83	85.6396	5,277.83	84.6631	5,277.83	84.81	5,277.83	84.1797	5,277.83	83.0279	5,277.83	86.5608	5,277.83	83.4629	5,277.83	86.4899	5,277.83	85.6507	5,277.83	84.0107	5,277.83	85.1989	5,277.83	81.3251	5,277.83	83.0537	5,277.83	79.2947	5,277.83	80.8709	5,277.83	76.2669	5,277.83	75.6273	5,277.83	74.3369	5,277.83	74.5918	5,277.83	71.4487	5,277.83	71.0088	5,277.83	71.1138	5,277.83	69.3008	5,277.83	69.1101	5,277.83	65.373	5,277.83	65.8141	5,277.83	70.1547	5,277.83	61.4982	5,277.83	72.9656	5,277.83	59.0823	5,277.83	61.4082	5,277.83	60.9031	5,277.83	62.7433
5,463.87	83.0812	5,463.87	85.2725	5,463.87	83.7709	5,463.87	84.2929	5,463.87	83.201	5,463.87	83.3432	5,463.87	84.3761	5,463.87	82.7226	5,463.87	86.9646	5,463.87	84.3336	5,463.87	86.1729	5,463.87	85.3458	5,463.87	84.6576	5,463.87	84.4876	5,463.87	82.8118	5,463.87	81.5305	5,463.87	79.9178	5,463.87	77.3767	5,463.87	78.0848	5,463.87	74.301	5,463.87	75.6123	5,463.87	69.692	5,463.87	72.1658	5,463.87	67.5871	5,463.87	72.8789	5,463.87	67.4643	5,463.87	67.1304	5,463.87	63.9482	5,463.87	68.6272	5,463.87	66.2539	5,463.87	63.0923	5,463.87	71.0332	5,463.87	60.8485	5,463.87	52.0922	5,463.87	61.4496	5,463.87	61.4271
5,657.23	84.5384	5,657.23	84.3482	5,657.23	83.6905	5,657.23	83.2485	5,657.23	82.2526	5,657.23	81.2223	5,657.23	84.4517	5,657.23	82.8251	5,657.23	86.342	5,657.23	84.5605	5,657.23	85.6587	5,657.23	85.1707	5,657.23	84.5076	5,657.23	83.7871	5,657.23	83.4269	5,657.23	79.7956	5,657.23	81.5272	5,657.23	76.6671	5,657.23	79.5148	5,657.23	71.7628	5,657.23	75.6006	5,657.23	69.3103	5,657.23	75.2038	5,657.23	65.9104	5,657.23	72.2812	5,657.23	57.2045	5,657.23	70.9527	5,657.23	63.6862	5,657.23	68.3454	5,657.23	66.6543	5,657.23	67.0242	5,657.23	70.5892	5,657.23	65.2348	5,657.23	57.4619	5,657.23	63.8599	5,657.23	63.4912
5,856.45	85.0689	5,856.45	84.0023	5,856.45	84.7392	5,856.45	82.5054	5,856.45	82.9215	5,856.45	81.7484	5,856.45	85.0818	5,856.45	83.265	5,856.45	85.26	5,856.45	85.1647	5,856.45	84.9324	5,856.45	83.9673	5,856.45	85.349	5,856.45	80.7965	5,856.45	84.2519	5,856.45	78.1269	5,856.45	80.9109	5,856.45	73.9223	5,856.45	77.8801	5,856.45	72.7311	5,856.45	76.1482	5,856.45	67.4146	5,856.45	74.0059	5,856.45	64.2899	5,856.45	71.4455	5,856.45	63.9737	5,856.45	71.1081	5,856.45	53.5331	5,856.45	69.6374	5,856.45	63.2487	5,856.45	64.5714	5,856.45	67.4511	5,856.45	64.7143	5,856.45	48.0248	5,856.45	61.5658	5,856.45	56.3457
6,062.99	85.4181	6,062.99	83.8192	6,062.99	84.0982	6,062.99	81.4923	6,062.99	83.2175	6,062.99	82.0679	6,062.99	83.2131	6,062.99	83.2441	6,062.99	83.788	6,062.99	84.2739	6,062.99	84.8128	6,062.99	83.9254	6,062.99	84.464	6,062.99	81.501	6,062.99	83.1329	6,062.99	78.1756	6,062.99	79.7773	6,062.99	74.9021	6,062.99	77.1127	6,062.99	72.4031	6,062.99	74.1437	6,062.99	71.2659	6,062.99	71.9842	6,062.99	65.1842	6,062.99	70.7731	6,062.99	62.2866	6,062.99	69.774	6,062.99	58.9046	6,062.99	66.988	6,062.99	63.6931	6,062.99	66.5103	6,062.99	67.1458	6,062.99	62.7751	6,062.99	52.8149	6,062.99	64.2943	6,062.99	58.6865
6,276.86	86.2637	6,276.86	84.1615	6,276.86	84.0122	6,276.86	81.6274	6,276.86	83.5902	6,276.86	82.9522	6,276.86	83.6518	6,276.86	83.5357	6,276.86	82.1769	6,276.86	83.3256	6,276.86	84.479	6,276.86	81.8093	6,276.86	85.1481	6,276.86	79.6762	6,276.86	82.7149	6,276.86	78.7963	6,276.86	80.0165	6,276.86	75.6379	6,276.86	77.0395	6,276.86	74.2168	6,276.86	75.0946	6,276.86	72.4256	6,276.86	73.1666	6,276.86	69.421	6,276.86	71.3041	6,276.86	67.1329	6,276.86	69.8215	6,276.86	61.1296	6,276.86	67.1138	6,276.86	60.7054	6,276.86	64.2569	6,276.86	66.5934	6,276.86	58.5622	6,276.86	53.0755	6,276.86	64.167	6,276.86	60.2057
6,498.05	86.143	6,498.05	83.87	6,498.05	83.8557	6,498.05	82.2118	6,498.05	84.5105	6,498.05	83.3072	6,498.05	82.6202	6,498.05	83.1819	6,498.05	82.5945	6,498.05	81.1768	6,498.05	85.2201	6,498.05	80.878	6,498.05	83.5078	6,498.05	80.8319	6,498.05	81.002	6,498.05	79.9563	6,498.05	80.3967	6,498.05	76.9267	6,498.05	77.5117	6,498.05	74.1749	6,498.05	75.4912	6,498.05	72.0252	6,498.05	73.597	6,498.05	69.5951	6,498.05	70.7208	6,498.05	66.9845	6,498.05	68.7271	6,498.05	63.2046	6,498.05	69.194	6,498.05	64.0005	6,498.05	67.021	6,498.05	66.1672	6,498.05	62.4963	6,498.05	50.5723	6,498.05	63.1029	6,498.05	59.7702
6,726.56	85.9015	6,726.56	83.2819	6,726.56	84.1965	6,726.56	82.1778	6,726.56	84.0366	6,726.56	82.8905	6,726.56	81.2519	6,726.56	81.8997	6,726.56	82.5096	6,726.56	78.7043	6,726.56	83.5238	6,726.56	80.1206	6,726.56	82.4551	6,726.56	81.5979	6,726.56	81.78	6,726.56	80.3892	6,726.56	80.0748	6,726.56	77.5851	6,726.56	77.9495	6,726.56	74.8391	6,726.56	76.0317	6,726.56	71.6989	6,726.56	73.4098	6,726.56	67.8287	6,726.56	70.7954	6,726.56	67.0095	6,726.56	70.5403	6,726.56	65.1336	6,726.56	69.8074	6,726.56	64.1441	6,726.56	68.7177	6,726.56	67.0386	6,726.56	64.8791	6,726.56	58.7394	6,726.56	63.8469	6,726.56	61.585
6,963.87	85.4692	6,963.87	82.885	6,963.87	84.2104	6,963.87	83.0343	6,963.87	82.8482	6,963.87	83.1579	6,963.87	80.9866	6,963.87	80.6293	6,963.87	82.0404	6,963.87	78.5388	6,963.87	81.9709	6,963.87	81.7827	6,963.87	82.6082	6,963.87	82.0797	6,963.87	82.4042	6,963.87	80.5402	6,963.87	80.9157	6,963.87	76.5026	6,963.87	77.7214	6,963.87	73.8119	6,963.87	74.8283	6,963.87	69.041	6,963.87	70.9447	6,963.87	65.2024	6,963.87	69.6426	6,963.87	64.9095	6,963.87	69.4074	6,963.87	64.0787	6,963.87	68.7436	6,963.87	63.7915	6,963.87	66.3732	6,963.87	66.3671	6,963.87	64.8739	6,963.87	55.9413	6,963.87	61.2743	6,963.87	61.2873
7,209.96	84.6012	7,209.96	83.5038	7,209.96	85.303	7,209.96	84.0184	7,209.96	83.1064	7,209.96	83.3824	7,209.96	82.1421	7,209.96	79.9267	7,209.96	81.9481	7,209.96	80.3379	7,209.96	81.0071	7,209.96	82.8088	7,209.96	82.9691	7,209.96	82.5417	7,209.96	82.2323	7,209.96	78.9721	7,209.96	79.4811	7,209.96	75.421	7,209.96	75.4796	7,209.96	71.0476	7,209.96	72.8224	7,209.96	68.2452	7,209.96	71.3595	7,209.96	64.3993	7,209.96	67.9754	7,209.96	64.4286	7,209.96	68.2854	7,209.96	61.1744	7,209.96	65.9647	7,209.96	62.5263	7,209.96	65.5479	7,209.96	64.1831	7,209.96	61.4505	7,209.96	57.477	7,209.96	62.5922	7,209.96	60.7325
7,464.84	84.9855	7,464.84	85.1841	7,464.84	86.4446	7,464.84	84.48	7,464.84	82.2243	7,464.84	82.3626	7,464.84	83.193	7,464.84	80.0948	7,464.84	81.0323	7,464.84	81.5509	7,464.84	81.9871	7,464.84	82.6705	7,464.84	82.6436	7,464.84	81.5773	7,464.84	79.572	7,464.84	76.7634	7,464.84	75.3659	7,464.84	73.3979	7,464.84	74.2741	7,464.84	69.6221	7,464.84	71.8223	7,464.84	66.6178	7,464.84	69.9586	7,464.84	64.4849	7,464.84	66.2999	7,464.84	61.1468	7,464.84	70.8267	7,464.84	59.1707	7,464.84	66.1223	7,464.84	62.2651	7,464.84	64.8798	7,464.84	62.7628	7,464.84	61.4051	7,464.84	56.4144	7,464.84	57.1671	7,464.84	59.8301
7,727.05	84.4662	7,727.05	84.8503	7,727.05	85.8889	7,727.05	84.4127	7,727.05	82.4331	7,727.05	81.5139	7,727.05	82.6932	7,727.05	80.0591	7,727.05	80.9113	7,727.05	81.0924	7,727.05	82.0483	7,727.05	81.0909	7,727.05	80.5933	7,727.05	78.9556	7,727.05	78.7317	7,727.05	74.7734	7,727.05	77.0027	7,727.05	69.7111	7,727.05	74.4896	7,727.05	68.4187	7,727.05	71.8146	7,727.05	63.5709	7,727.05	67.4167	7,727.05	63.2257	7,727.05	66.9	7,727.05	59.4185	7,727.05	68.516	7,727.05	54.5969	7,727.05	66.2199	7,727.05	61.5146	7,727.05	64.8577	7,727.05	61.1052	7,727.05	59.6065	7,727.05	53.7282	7,727.05	53.9985	7,727.05	59.8044
7,999.51	82.8035	7,999.51	84.1554	7,999.51	85.1393	7,999.51	83.9034	7,999.51	83.736	7,999.51	81.3326	7,999.51	81.5763	7,999.51	80.1608	7,999.51	81.1305	7,999.51	80.7432	7,999.51	80.3841	7,999.51	79.6728	7,999.51	78.9983	7,999.51	76.6198	7,999.51	78.5289	7,999.51	73.3173	7,999.51	76.5123	7,999.51	69.4434	7,999.51	73.7538	7,999.51	67.6515	7,999.51	71.1057	7,999.51	64.2594	7,999.51	68.5588	7,999.51	62.5734	7,999.51	67.2211	7,999.51	60.7841	7,999.51	68.698	7,999.51	51.6743	7,999.51	66.2547	7,999.51	56.8861	7,999.51	63.836	7,999.51	59.3713	7,999.51	59.8947	7,999.51	51.6473	7,999.51	53.5821	7,999.51	58.0145
8,282.23	81.9245	8,282.23	83.8163	8,282.23	84.3179	8,282.23	83.1614	8,282.23	84.3565	8,282.23	81.015	8,282.23	81.3512	8,282.23	80.5904	8,282.23	81.9594	8,282.23	80.0104	8,282.23	79.5956	8,282.23	78.5418	8,282.23	79.1122	8,282.23	76.9144	8,282.23	78.7598	8,282.23	74.3881	8,282.23	75.0806	8,282.23	71.3219	8,282.23	72.3012	8,282.23	67.428	8,282.23	69.5594	8,282.23	65.425	8,282.23	65.1798	8,282.23	62.7556	8,282.23	64.4431	8,282.23	61.2651	8,282.23	66.5526	8,282.23	52.8037	8,282.23	63.8801	8,282.23	57.8493	8,282.23	59.6943	8,282.23	57.605	8,282.23	59.2997	8,282.23	49.7543	8,282.23	53.616	8,282.23	55.6442
8,573.73	81.8177	8,573.73	83.3091	8,573.73	82.6571	8,573.73	82.7923	8,573.73	84.548	8,573.73	81.6529	8,573.73	81.6199	8,573.73	81.0005	8,573.73	81.8001	8,573.73	78.4218	8,573.73	78.8631	8,573.73	77.275	8,573.73	79.2576	8,573.73	76.6361	8,573.73	76.2451	8,573.73	74.4545	8,573.73	71.5071	8,573.73	71.094	8,573.73	68.9452	8,573.73	66.6224	8,573.73	65.7848	8,573.73	63.8016	8,573.73	62.8226	8,573.73	62.4675	8,573.73	62.4556	8,573.73	59.3383	8,573.73	63.6278	8,573.73	50.5286	8,573.73	60.5557	8,573.73	56.1509	8,573.73	55.6028	8,573.73	55.6533	8,573.73	55.6107	8,573.73	38.1954	8,573.73	49.5607	8,573.73	53.8955
8,876.95	82.3208	8,876.95	83.2343	8,876.95	82.7661	8,876.95	82.3276	8,876.95	84.0582	8,876.95	82.682	8,876.95	83.103	8,876.95	81.282	8,876.95	80.3975	8,876.95	76.6704	8,876.95	79.5789	8,876.95	75.1307	8,876.95	77.1896	8,876.95	75.7351	8,876.95	74.1214	8,876.95	74.1602	8,876.95	72.2328	8,876.95	69.9891	8,876.95	70.0234	8,876.95	64.6265	8,876.95	65.7346	8,876.95	61.7063	8,876.95	64.7606	8,876.95	62.1788	8,876.95	63.9618	8,876.95	53.2052	8,876.95	61.3927	8,876.95	37.7414	8,876.95	58.3631	8,876.95	54.91	8,876.95	50.7315	8,876.95	55.7286	8,876.95	53.5409	8,876.95	45.6116	8,876.95	47.0462	8,876.95	49.6699
9,188.96	82.6989	9,188.96	83.6183	9,188.96	82.6305	9,188.96	81.824	9,188.96	83.4329	9,188.96	82.9884	9,188.96	83.08	9,188.96	80.1359	9,188.96	79.7745	9,188.96	75.0814	9,188.96	79.373	9,188.96	74.7546	9,188.96	75.5634	9,188.96	74.6978	9,188.96	75.0952	9,188.96	72.2635	9,188.96	72.9075	9,188.96	66.245	9,188.96	69.1427	9,188.96	62.6255	9,188.96	66.5426	9,188.96	59.1495	9,188.96	63.262	9,188.96	57.8748	9,188.96	61.9803	9,188.96	47.0967	9,188.96	56.0043	9,188.96	49.328	9,188.96	53.1511	9,188.96	49.253	9,188.96	49.3593	9,188.96	55.5562	9,188.96	52.3172	9,188.96	50.8136	9,188.96	50.5136	9,188.96	49.3078
9,514.16	82.6624	9,514.16	83.492	9,514.16	82.6934	9,514.16	82.1121	9,514.16	82.9872	9,514.16	82.3282	9,514.16	82.0276	9,514.16	78.5682	9,514.16	79.9287	9,514.16	74.9855	9,514.16	77.7061	9,514.16	74.4189	9,514.16	74.6338	9,514.16	72.421	9,514.16	73.0697	9,514.16	70.7136	9,514.16	69.8347	9,514.16	63.8255	9,514.16	65.4695	9,514.16	62.931	9,514.16	65.0413	9,514.16	60.0347	9,514.16	60.688	9,514.16	52.3463	9,514.16	54.5864	9,514.16	57.9264	9,514.16	50.8472	9,514.16	55.0678	9,514.16	43.9092	9,514.16	51.2571	9,514.16	44.3163	9,514.16	54.5376	9,514.16	51.5476	9,514.16	50.2518	9,514.16	51.4992	9,514.16	47.4212
9,849.61	82.6736	9,849.61	82.8637	9,849.61	82.6119	9,849.61	82.3694	9,849.61	83.0401	9,849.61	81.9246	9,849.61	80.9463	9,849.61	77.7562	9,849.61	79.3155	9,849.61	75.1975	9,849.61	76.3163	9,849.61	74.0994	9,849.61	73.7532	9,849.61	71.3129	9,849.61	69.5275	9,849.61	69.4363	9,849.61	68.1244	9,849.61	65.5163	9,849.61	62.6881	9,849.61	61.6259	9,849.61	64.0147	9,849.61	57.8611	9,849.61	59.2224	9,849.61	48.3915	9,849.61	51.3575	9,849.61	59.3962	9,849.61	56.8877	9,849.61	55.5537	9,849.61	47.5194	9,849.61	51.0508	9,849.61	52.0182	9,849.61	53.1136	9,849.61	49.5313	9,849.61	51.8476	9,849.61	46.8577	9,849.61	45.1203
10,196.8	82.9207	10,196.8	82.7111	10,196.8	82.0537	10,196.8	82.6591	10,196.8	82.6462	10,196.8	81.0261	10,196.8	80.2794	10,196.8	77.4827	10,196.8	77.3927	10,196.8	75.8366	10,196.8	75.9959	10,196.8	73.7588	10,196.8	73.2286	10,196.8	70.4576	10,196.8	69.457	10,196.8	67.4248	10,196.8	68.1709	10,196.8	65.4972	10,196.8	62.5572	10,196.8	59.5057	10,196.8	62.1507	10,196.8	53.2294	10,196.8	54.2945	10,196.8	53.53	10,196.8	57.201	10,196.8	57.6807	10,196.8	59.9782	10,196.8	53.5288	10,196.8	52.5426	10,196.8	50.9044	10,196.8	54.2854	10,196.8	51.0472	10,196.8	45.4462	10,196.8	53.8397	10,196.8	43.8022	10,196.8	46.681
10,555.7	83.0681	10,555.7	82.5189	10,555.7	82.2685	10,555.7	82.436	10,555.7	81.7599	10,555.7	79.5557	10,555.7	80.2426	10,555.7	77.8329	10,555.7	76.6668	10,555.7	75.3571	10,555.7	75.3117	10,555.7	72.6598	10,555.7	73.1804	10,555.7	68.6448	10,555.7	70.134	10,555.7	65.024	10,555.7	65.6383	10,555.7	62.5427	10,555.7	63.2676	10,555.7	56.3828	10,555.7	57.1354	10,555.7	51.2936	10,555.7	51.9717	10,555.7	53.179	10,555.7	58.8683	10,555.7	52.9541	10,555.7	58.4678	10,555.7	50.6297	10,555.7	50.9835	10,555.7	47.6289	10,555.7	53.2422	10,555.7	48.5143	10,555.7	43.4643	10,555.7	53.6809	10,555.7	45.6857	10,555.7	48.937
10,927.7	83.2658	10,927.7	82.5332	10,927.7	82.7455	10,927.7	82.1563	10,927.7	81.3636	10,927.7	78.6111	10,927.7	79.8435	10,927.7	78.2088	10,927.7	77.4705	10,927.7	73.7507	10,927.7	74.7133	10,927.7	71.2373	10,927.7	73.3955	10,927.7	67.8795	10,927.7	69.7744	10,927.7	61.8952	10,927.7	64.505	10,927.7	59.924	10,927.7	63.6524	10,927.7	55.3761	10,927.7	52.2548	10,927.7	49.4345	10,927.7	55.9822	10,927.7	48.8291	10,927.7	58.5759	10,927.7	43.6074	10,927.7	54.6981	10,927.7	44.5285	10,927.7	49.8631	10,927.7	39.013	10,927.7	53.7095	10,927.7	43.368	10,927.7	44.6155	10,927.7	52.6993	10,927.7	42.0893	10,927.7	46.0754
11,313	83.4746	11,313	82.7778	11,313	83.4837	11,313	81.6513	11,313	81.8175	11,313	78.181	11,313	79.1877	11,313	77.8463	11,313	77.7292	11,313	72.6818	11,313	74.9438	11,313	69.9269	11,313	72.7504	11,313	67.4302	11,313	68.8304	11,313	61.8738	11,313	64.1651	11,313	53.9083	11,313	61.3242	11,313	54.9035	11,313	54.3967	11,313	43.5311	11,313	56.296	11,313	43.455	11,313	55.0772	11,313	31.2936	11,313	48.5361	11,313	35.6223	11,313	47.311	11,313	32.942	11,313	52.7406	11,313	44.1777	11,313	44.429	11,313	52.1846	11,313	40.4042	11,313	43.3179
11,712.9	83.9259	11,712.9	83.2078	11,712.9	83.7706	11,712.9	81.1207	11,712.9	81.8666	11,712.9	78.3926	11,712.9	78.9702	11,712.9	77.0899	11,712.9	77.5741	11,712.9	72.8017	11,712.9	75.0224	11,712.9	68.4032	11,712.9	71.7241	11,712.9	65.5974	11,712.9	67.0879	11,712.9	59.9819	11,712.9	61.0915	11,712.9	51.9847	11,712.9	57.0811	11,712.9	49.1386	11,712.9	55.9095	11,712.9	43.2877	11,712.9	53.8182	11,712.9	47.3347	11,712.9	46.1738	11,712.9	42.3188	11,712.9	37.2791	11,712.9	34.877	11,712.9	41.1694	11,712.9	32.9654	11,712.9	48.5985	11,712.9	46.0709	11,712.9	42.8666	11,712.9	49.9895	11,712.9	30.5522	11,712.9	38.5725
12,126	84.0996	12,126	83.1046	12,126	83.4905	12,126	80.4317	12,126	81.3526	12,126	78.5194	12,126	79.0898	12,126	76.3362	12,126	77.2575	12,126	72.4748	12,126	74.4868	12,126	66.7193	12,126	70.3156	12,126	62.9572	12,126	64.1986	12,126	58.5922	12,126	59.9407	12,126	57.6077	12,126	53.5096	12,126	52.3125	12,126	55.6234	12,126	52.9469	12,126	47.6659	12,126	50.5434	12,126	43.4267	12,126	47.0596	12,126	42.7474	12,126	42.5219	12,126	40.8958	12,126	23.2713	12,126	44.1451	12,126	46.6965	12,126	45.995	12,126	50.1043	12,126	39.7546	12,126	33.4541
12,553.7	83.4109	12,553.7	82.4368	12,553.7	82.973	12,553.7	79.8722	12,553.7	80.9927	12,553.7	78.0993	12,553.7	79.118	12,553.7	74.742	12,553.7	76.1678	12,553.7	71.1887	12,553.7	73.029	12,553.7	66.6619	12,553.7	68.4473	12,553.7	63.6245	12,553.7	66.3235	12,553.7	60.5099	12,553.7	59.6787	12,553.7	59.1774	12,553.7	54.8131	12,553.7	52.5084	12,553.7	52.0566	12,553.7	54.4877	12,553.7	47.138	12,553.7	49.5531	12,553.7	50.1834	12,553.7	45.1441	12,553.7	47.0953	12,553.7	45.2875	12,553.7	40.0008	12,553.7	40.6459	12,553.7	39.1116	12,553.7	46.6083	12,553.7	41.8888	12,553.7	48.531	12,553.7	33.1636	12,553.7	40.03
12,996.1	82.9088	12,996.1	81.4213	12,996.1	81.8012	12,996.1	79.1857	12,996.1	80.3535	12,996.1	78.2274	12,996.1	79.4008	12,996.1	73.8628	12,996.1	75.7143	12,996.1	70.8411	12,996.1	71.8884	12,996.1	66.7831	12,996.1	68.061	12,996.1	65.084	12,996.1	64.6239	12,996.1	63.2469	12,996.1	57.9388	12,996.1	58.9389	12,996.1	55.0677	12,996.1	53.2977	12,996.1	48.6998	12,996.1	52.4634	12,996.1	50.1389	12,996.1	45.4286	12,996.1	47.5495	12,996.1	36.1834	12,996.1	35.5488	12,996.1	45.0968	12,996.1	42.068	12,996.1	42.7601	12,996.1	36.9696	12,996.1	45.4318	12,996.1	40.0053	12,996.1	46.9541	12,996.1	33.2984	12,996.1	38.9536
13,454.6	82.5792	13,454.6	80.876	13,454.6	81.306	13,454.6	78.7938	13,454.6	79.6603	13,454.6	77.8996	13,454.6	78.7075	13,454.6	73.402	13,454.6	74.8986	13,454.6	70.4349	13,454.6	71.2853	13,454.6	67.3735	13,454.6	67.9507	13,454.6	66.4687	13,454.6	63.6115	13,454.6	64.4716	13,454.6	60.073	13,454.6	57.8456	13,454.6	54.0283	13,454.6	53.8885	13,454.6	51.5679	13,454.6	47.0209	13,454.6	47.0915	13,454.6	48.4372	13,454.6	45.0875	13,454.6	44.7035	13,454.6	41.0566	13,454.6	42.6073	13,454.6	42.1722	13,454.6	44.2951	13,454.6	38.3584	13,454.6	47.5521	13,454.6	37.483	13,454.6	40.3843	13,454.6	24.2119	13,454.6	34.5692
13,929.2	81.5706	13,929.2	80.0707	13,929.2	80.5398	13,929.2	78.8097	13,929.2	78.916	13,929.2	76.6349	13,929.2	77.8568	13,929.2	73.0122	13,929.2	74.007	13,929.2	70.6524	13,929.2	70.9792	13,929.2	67.0014	13,929.2	68.3444	13,929.2	64.953	13,929.2	65.2041	13,929.2	60.9827	13,929.2	60.6488	13,929.2	53.3748	13,929.2	54.1815	13,929.2	48.1634	13,929.2	46.8026	13,929.2	43.1517	13,929.2	44.7432	13,929.2	43.9311	13,929.2	42.8361	13,929.2	36.5583	13,929.2	46.8624	13,929.2	39.1641	13,929.2	38.0508	13,929.2	41.0317	13,929.2	34.2363	13,929.2	41.7056	13,929.2	35.9251	13,929.2	37.0584	13,929.2	34.5964	13,929.2	37.4722
14,419.9	80.0477	14,419.9	79.3745	14,419.9	79.4724	14,419.9	78.6285	14,419.9	78.5671	14,419.9	75.6255	14,419.9	76.5912	14,419.9	73.8398	14,419.9	72.2266	14,419.9	71.3249	14,419.9	70.0622	14,419.9	68.1307	14,419.9	67.8978	14,419.9	64.8246	14,419.9	63.0867	14,419.9	61.8485	14,419.9	57.3573	14,419.9	55.5609	14,419.9	52.7509	14,419.9	50.547	14,419.9	46.6558	14,419.9	47.4462	14,419.9	44.2235	14,419.9	42.8784	14,419.9	45.0625	14,419.9	30.9272	14,419.9	45.4453	14,419.9	39.0915	14,419.9	35.367	14,419.9	39.9131	14,419.9	28.2424	14,419.9	37.075	14,419.9	36.7024	14,419.9	32.7141	14,419.9	41.1806	14,419.9	39.5377
14,928.2	78.7084	14,928.2	78.8508	14,928.2	78.8231	14,928.2	77.9882	14,928.2	77.9937	14,928.2	75.1298	14,928.2	75.2264	14,928.2	73.9772	14,928.2	72.5536	14,928.2	71.0276	14,928.2	69.3695	14,928.2	67.3437	14,928.2	66.9159	14,928.2	64.0057	14,928.2	59.9351	14,928.2	61.9375	14,928.2	57.1173	14,928.2	56.9486	14,928.2	52.3767	14,928.2	49.6998	14,928.2	45.1036	14,928.2	48.4472	14,928.2	47.4192	14,928.2	41.2918	14,928.2	45.0846	14,928.2	33.5298	14,928.2	44.2662	14,928.2	39.1376	14,928.2	35.1648	14,928.2	36.6611	14,928.2	35.8107	14,928.2	35.7326	14,928.2	35.8621	14,928.2	33.1313	14,928.2	44.9774	14,928.2	41.5226
15,455.6	78.2196	15,455.6	78.7358	15,455.6	78.6605	15,455.6	77.3361	15,455.6	77.4802	15,455.6	74.6049	15,455.6	74.317	15,455.6	73.515	15,455.6	72.8163	15,455.6	70.7419	15,455.6	69.9884	15,455.6	67.2171	15,455.6	66.1094	15,455.6	64.6523	15,455.6	61.5208	15,455.6	60.9517	15,455.6	56.224	15,455.6	56.1425	15,455.6	48.623	15,455.6	47.3918	15,455.6	50.9698	15,455.6	46.1893	15,455.6	47.1596	15,455.6	40.77	15,455.6	40.8692	15,455.6	31.2898	15,455.6	42.0969	15,455.6	39.818	15,455.6	38.0341	15,455.6	33.7155	15,455.6	39.8105	15,455.6	36.1589	15,455.6	39.5628	15,455.6	38.301	15,455.6	44.928	15,455.6	42.6856
16,000.5	78.4871	16,000.5	78.8111	16,000.5	78.5325	16,000.5	76.9229	16,000.5	77.1466	16,000.5	74.4978	16,000.5	74.0098	16,000.5	72.5511	16,000.5	72.7027	16,000.5	69.9496	16,000.5	69.1665	16,000.5	67.166	16,000.5	66.4996	16,000.5	63.8012	16,000.5	60.9498	16,000.5	58.9589	16,000.5	60.6605	16,000.5	53.7705	16,000.5	52.4876	16,000.5	49.8573	16,000.5	51.395	16,000.5	42.781	16,000.5	42.9817	16,000.5	40.1042	16,000.5	35.3145	16,000.5	35.988	16,000.5	36.3056	16,000.5	44.7668	16,000.5	42.1061	16,000.5	36.1166	16,000.5	41.873	16,000.5	35.0263	16,000.5	44.7707	16,000.5	36.0955	16,000.5	41.8066	16,000.5	42.2352
16,564.5	78.1351	16,564.5	77.7635	16,564.5	78.1195	16,564.5	77.1932	16,564.5	76.5811	16,564.5	75.6142	16,564.5	74.3343	16,564.5	72.2645	16,564.5	72.0678	16,564.5	69.4049	16,564.5	69.5459	16,564.5	67.5926	16,564.5	64.7241	16,564.5	63.634	16,564.5	62.0389	16,564.5	59.1732	16,564.5	59.8527	16,564.5	53.1418	16,564.5	54.9002	16,564.5	51.368	16,564.5	50.6786	16,564.5	39.6011	16,564.5	45.557	16,564.5	27.8101	16,564.5	35.8214	16,564.5	36.247	16,564.5	33.1284	16,564.5	44.9279	16,564.5	43.4161	16,564.5	36.3441	16,564.5	42.9449	16,564.5	29.6867	16,564.5	46.4828	16,564.5	37.7437	16,564.5	37.872	16,564.5	37.6036
17,148.9	77.8267	17,148.9	77.2403	17,148.9	77.485	17,148.9	77.5922	17,148.9	76.2999	17,148.9	76.3245	17,148.9	74.9195	17,148.9	72.5509	17,148.9	71.2236	17,148.9	69.9199	17,148.9	69.9151	17,148.9	65.9131	17,148.9	66.2919	17,148.9	62.2215	17,148.9	61.9225	17,148.9	59.1325	17,148.9	60.0913	17,148.9	51.255	17,148.9	54.902	17,148.9	48.9232	17,148.9	51.2665	17,148.9	38.436	17,148.9	48.1115	17,148.9	34.5003	17,148.9	41.2396	17,148.9	27.5244	17,148.9	40.8278	17,148.9	37.8817	17,148.9	39.1336	17,148.9	36.1569	17,148.9	38.9206	17,148.9	23.0199	17,148.9	43.302	17,148.9	31.213	17,148.9	36.7371	17,148.9	22.0227
17,752.4	77.3097	17,752.4	77.4385	17,752.4	77.3834	17,752.4	77.6044	17,752.4	76.6504	17,752.4	76.3795	17,752.4	75.0828	17,752.4	73.4248	17,752.4	71.4606	17,752.4	69.8333	17,752.4	70.171	17,752.4	65.2967	17,752.4	65.9675	17,752.4	61.8275	17,752.4	62.9933	17,752.4	55.9037	17,752.4	59.2716	17,752.4	49.568	17,752.4	49.3656	17,752.4	39.6751	17,752.4	50.2915	17,752.4	39.9499	17,752.4	46.0256	17,752.4	31.1198	17,752.4	35.507	17,752.4	25.928	17,752.4	47.7632	17,752.4	38.6833	17,752.4	39.3642	17,752.4	36.3344	17,752.4	39.5629	17,752.4	19.1946	17,752.4	38.4364	17,752.4	31.4419	17,752.4	39.0331	17,752.4	37.4161
18,379.4	77.2331	18,379.4	78.2959	18,379.4	77.6825	18,379.4	77.6492	18,379.4	77.1805	18,379.4	76.9091	18,379.4	75.5722	18,379.4	74.7571	18,379.4	71.8118	18,379.4	70.7008	18,379.4	70.7488	18,379.4	67.7858	18,379.4	67.2777	18,379.4	63.4811	18,379.4	63.9452	18,379.4	59.5583	18,379.4	62.8779	18,379.4	57.8789	18,379.4	54.0536	18,379.4	48.1881	18,379.4	53.7029	18,379.4	47.511	18,379.4	42.6283	18,379.4	40.3794	18,379.4	39.16	18,379.4	43.4923	18,379.4	50.8098	18,379.4	39.4873	18,379.4	40.0793	18,379.4	36.3298	18,379.4	43.3287	18,379.4	33.1189	18,379.4	42.9211	18,379.4	40.0751	18,379.4	34.7233	18,379.4	36.5289
19,026.9	79.0862	19,026.9	79.583	19,026.9	79.3581	19,026.9	78.3142	19,026.9	77.7488	19,026.9	77.7807	19,026.9	76.2726	19,026.9	75.5892	19,026.9	72.6325	19,026.9	70.8178	19,026.9	70.5098	19,026.9	67.792	19,026.9	67.1909	19,026.9	65.614	19,026.9	65.8837	19,026.9	65.6951	19,026.9	64.0404	19,026.9	61.0142	19,026.9	59.5146	19,026.9	51.4771	19,026.9	54.2052	19,026.9	42.3815	19,026.9	36.5693	19,026.9	34.7434	19,026.9	43.1838	19,026.9	43.186	19,026.9	54.5521	19,026.9	39.4965	19,026.9	38.3769	19,026.9	39.7277	19,026.9	44.9521	19,026.9	32.2449	19,026.9	46.9662	19,026.9	36.0594	19,026.9	15.3964	19,026.9	39.5593
19,697.8	81.6635	19,697.8	81.3498	19,697.8	81.2786	19,697.8	79.7644	19,697.8	78.7982	19,697.8	78.3749	19,697.8	77.4118	19,697.8	76.181	19,697.8	73.8973	19,697.8	71.7322	19,697.8	71.7406	19,697.8	69.3459	19,697.8	68.4258	19,697.8	70.1203	19,697.8	69.3088	19,697.8	65.1519	19,697.8	67.5366	19,697.8	61.4633	19,697.8	62.2392	19,697.8	43.7233	19,697.8	55.3172	19,697.8	48.1954	19,697.8	44.8154	19,697.8	45.4163	19,697.8	50.0944	19,697.8	40.2355	19,697.8	55.9048	19,697.8	35.5114	19,697.8	38.661	19,697.8	39.7277	19,697.8	43.0987	19,697.8	32.5993	19,697.8	51.9942	19,697.8	43.9236	19,697.8	20.0645	19,697.8	40.4702
19,999.5	82.3871	19,999.5	82.3132	19,999.5	81.9282	19,999.5	80.4624	19,999.5	79.184	19,999.5	78.4489	19,999.5	78.2873	19,999.5	76.3156	19,999.5	74.2748	19,999.5	73.0131	19,999.5	72.5733	19,999.5	70.9647	19,999.5	69.4912	19,999.5	71.5409	19,999.5	70.7686	19,999.5	64.5329	19,999.5	68.7334	19,999.5	63.6927	19,999.5	64.0996	19,999.5	39.0812	19,999.5	55.2627	19,999.5	38.4451	19,999.5	49.5079	19,999.5	53.1248	19,999.5	53.1441	19,999.5	40.9937	19,999.5	58.9315	19,999.5	36.4801	19,999.5	39.165	19,999.5	45.1673	19,999.5	46.8935	19,999.5	30.0393	19,999.5	52.271	19,999.5	45.6357	19,999.5	36.9603	19,999.5	46.7942
