"SPL Vertical"
"On-Axis"		"10°"		"-10°"		"20°"		"-20°"		"30°"		"-30°"		"40°"		"-40°"		"50°"		"-50°"		"60°"		"-60°"		"70°"		"-70°"		"80°"		"-80°"		"90°"		"-90°"		"100°"		"-100°"		"110°"		"-110°"		"120°"		"-120°"		"130°"		"-130°"		"140°"		"-140°"		"150°"		"-150°"		"160°"		"-160°"		"170°"		"-170°"		"180°"
"Frequency / Hz"	"Sound Pressure Level / dB (re 20 µPa/V)  [2.83  V @ 1. m]"	"Frequency / Hz"	"Sound Pressure Level / dB (re 20 µPa/V)  [2.83  V @ 1. m]"	"Frequency / Hz"	"Sound Pressure Level / dB (re 20 µPa/V)  [2.83  V @ 1. m]"	"Frequency / Hz"	"Sound Pressure Level / dB (re 20 µPa/V)  [2.83  V @ 1. m]"	"Frequency / Hz"	"Sound Pressure Level / dB (re 20 µPa/V)  [2.83  V @ 1. m]"	"Frequency / Hz"	"Sound Pressure Level / dB (re 20 µPa/V)  [2.83  V @ 1. m]"	"Frequency / Hz"	"Sound Pressure Level / dB (re 20 µPa/V)  [2.83  V @ 1. m]"	"Frequency / Hz"	"Sound Pressure Level / dB (re 20 µPa/V)  [2.83  V @ 1. m]"	"Frequency / Hz"	"Sound Pressure Level / dB (re 20 µPa/V)  [2.83  V @ 1. m]"	"Frequency / Hz"	"Sound Pressure Level / dB (re 20 µPa/V)  [2.83  V @ 1. m]"	"Frequency / Hz"	"Sound Pressure Level / dB (re 20 µPa/V)  [2.83  V @ 1. m]"	"Frequency / Hz"	"Sound Pressure Level / dB (re 20 µPa/V)  [2.83  V @ 1. m]"	"Frequency / Hz"	"Sound Pressure Level / dB (re 20 µPa/V)  [2.83  V @ 1. m]"	"Frequency / Hz"	"Sound Pressure Level / dB (re 20 µPa/V)  [2.83  V @ 1. m]"	"Frequency / Hz"	"Sound Pressure Level / dB (re 20 µPa/V)  [2.83  V @ 1. m]"	"Frequency / Hz"	"Sound Pressure Level / dB (re 20 µPa/V)  [2.83  V @ 1. m]"	"Frequency / Hz"	"Sound Pressure Level / dB (re 20 µPa/V)  [2.83  V @ 1. m]"	"Frequency / Hz"	"Sound Pressure Level / dB (re 20 µPa/V)  [2.83  V @ 1. m]"	"Frequency / Hz"	"Sound Pressure Level / dB (re 20 µPa/V)  [2.83  V @ 1. m]"	"Frequency / Hz"	"Sound Pressure Level / dB (re 20 µPa/V)  [2.83  V @ 1. m]"	"Frequency / Hz"	"Sound Pressure Level / dB (re 20 µPa/V)  [2.83  V @ 1. m]"	"Frequency / Hz"	"Sound Pressure Level / dB (re 20 µPa/V)  [2.83  V @ 1. m]"	"Frequency / Hz"	"Sound Pressure Level / dB (re 20 µPa/V)  [2.83  V @ 1. m]"	"Frequency / Hz"	"Sound Pressure Level / dB (re 20 µPa/V)  [2.83  V @ 1. m]"	"Frequency / Hz"	"Sound Pressure Level / dB (re 20 µPa/V)  [2.83  V @ 1. m]"	"Frequency / Hz"	"Sound Pressure Level / dB (re 20 µPa/V)  [2.83  V @ 1. m]"	"Frequency / Hz"	"Sound Pressure Level / dB (re 20 µPa/V)  [2.83  V @ 1. m]"	"Frequency / Hz"	"Sound Pressure Level / dB (re 20 µPa/V)  [2.83  V @ 1. m]"	"Frequency / Hz"	"Sound Pressure Level / dB (re 20 µPa/V)  [2.83  V @ 1. m]"	"Frequency / Hz"	"Sound Pressure Level / dB (re 20 µPa/V)  [2.83  V @ 1. m]"	"Frequency / Hz"	"Sound Pressure Level / dB (re 20 µPa/V)  [2.83  V @ 1. m]"	"Frequency / Hz"	"Sound Pressure Level / dB (re 20 µPa/V)  [2.83  V @ 1. m]"	"Frequency / Hz"	"Sound Pressure Level / dB (re 20 µPa/V)  [2.83  V @ 1. m]"	"Frequency / Hz"	"Sound Pressure Level / dB (re 20 µPa/V)  [2.83  V @ 1. m]"	"Frequency / Hz"	"Sound Pressure Level / dB (re 20 µPa/V)  [2.83  V @ 1. m]"	"Frequency / Hz"	"Sound Pressure Level / dB (re 20 µPa/V)  [2.83  V @ 1. m]"
20.5078	70.8412	20.5078	70.6331	20.5078	71.0309	20.5078	70.4119	20.5078	71.1965	20.5078	70.1829	20.5078	71.3319	20.5078	69.9508	20.5078	71.4309	20.5078	69.7206	20.5078	71.4871	20.5078	69.4973	20.5078	71.495	20.5078	69.2855	20.5078	71.4499	20.5078	69.0898	20.5078	71.349	20.5078	68.9142	20.5078	71.1923	20.5078	68.7625	20.5078	70.9834	20.5078	68.6379	20.5078	70.7294	20.5078	68.5436	20.5078	70.4411	20.5078	68.4825	20.5078	70.1322	20.5078	68.4578	20.5078	69.8179	20.5078	68.4728	20.5078	69.5136	20.5078	68.5311	20.5078	69.2335	20.5078	68.6358	20.5078	68.9892	20.5078	68.7887
21.9727	72.2306	21.9727	72.0372	21.9727	72.4161	21.9727	71.8402	21.9727	72.5884	21.9727	71.6439	21.9727	72.7415	21.9727	71.4515	21.9727	72.8691	21.9727	71.2662	21.9727	72.9643	21.9727	71.0908	21.9727	73.0206	21.9727	70.9282	21.9727	73.0321	21.9727	70.7811	21.9727	72.9944	21.9727	70.6523	21.9727	72.906	21.9727	70.5449	21.9727	72.7683	21.9727	70.462	21.9727	72.5858	21.9727	70.4074	21.9727	72.3662	21.9727	70.3848	21.9727	72.1192	21.9727	70.3984	21.9727	71.8559	21.9727	70.4519	21.9727	71.5877	21.9727	70.5479	21.9727	71.3263	21.9727	70.687	21.9727	71.0828	21.9727	70.8671
23.4375	73.2076	23.4375	73.0098	23.4375	73.3978	23.4375	72.8098	23.4375	73.5743	23.4375	72.6127	23.4375	73.7308	23.4375	72.4232	23.4375	73.8606	23.4375	72.2454	23.4375	73.9571	23.4375	72.0831	23.4375	74.0142	23.4375	71.9397	23.4375	74.0271	23.4375	71.8182	23.4375	73.9926	23.4375	71.7211	23.4375	73.9108	23.4375	71.6505	23.4375	73.7844	23.4375	71.608	23.4375	73.6194	23.4375	71.5946	23.4375	73.424	23.4375	71.6112	23.4375	73.2081	23.4375	71.6581	23.4375	72.9816	23.4375	71.7352	23.4375	72.7539	23.4375	71.8422	23.4375	72.5334	23.4375	71.978	23.4375	72.3271	23.4375	72.1406
24.9023	74.1895	24.9023	73.9995	24.9023	74.3722	24.9023	73.8073	24.9023	74.5416	24.9023	73.6179	24.9023	74.6912	24.9023	73.4354	24.9023	74.8142	24.9023	73.2636	24.9023	74.9043	24.9023	73.1058	24.9023	74.9553	24.9023	72.9648	24.9023	74.9626	24.9023	72.8433	24.9023	74.9236	24.9023	72.7435	24.9023	74.8383	24.9023	72.6673	24.9023	74.7097	24.9023	72.6166	24.9023	74.5433	24.9023	72.5928	24.9023	74.3473	24.9023	72.5973	24.9023	74.131	24.9023	72.6313	24.9023	73.9043	24.9023	72.6957	24.9023	73.6768	24.9023	72.791	24.9023	73.4575	24.9023	72.917	24.9023	73.2539	24.9023	73.0722
26.3672	74.5694	26.3672	74.3803	26.3672	74.7547	26.3672	74.1932	26.3672	74.9298	26.3672	74.0132	26.3672	75.0882	26.3672	73.8449	26.3672	75.2232	26.3672	73.6923	26.3672	75.3283	26.3672	73.5589	26.3672	75.3979	26.3672	73.4472	26.3672	75.4277	26.3672	73.3596	26.3672	75.4152	26.3672	73.2975	26.3672	75.3608	26.3672	73.2622	26.3672	75.2675	26.3672	73.254	26.3672	75.1408	26.3672	73.2732	26.3672	74.9879	26.3672	73.3192	26.3672	74.8166	26.3672	73.3912	26.3672	74.6339	26.3672	73.488	26.3672	74.4465	26.3672	73.6078	26.3672	74.2595	26.3672	73.7482	26.3672	74.0779	26.3672	73.9061
27.832	74.782	27.832	74.5806	27.832	74.9826	27.832	74.384	27.832	75.1758	27.832	74.1974	27.832	75.3546	27.832	74.0252	27.832	75.5117	27.832	73.8713	27.832	75.6397	27.832	73.7392	27.832	75.7317	27.832	73.6316	27.832	75.7821	27.832	73.5508	27.832	75.7876	27.832	73.4986	27.832	75.7478	27.832	73.4759	27.832	75.6652	27.832	73.4833	27.832	75.5453	27.832	73.5205	27.832	75.3955	27.832	73.5865	27.832	75.2239	27.832	73.6797	27.832	75.0382	27.832	73.7979	27.832	74.845	27.832	73.9383	27.832	74.6498	27.832	74.0976	27.832	74.4574	27.832	74.2719
29.2969	76.1479	29.2969	75.9598	29.2969	76.3271	29.2969	75.7686	29.2969	76.4917	29.2969	75.579	29.2969	76.6349	29.2969	75.3954	29.2969	76.7502	29.2969	75.2217	29.2969	76.8309	29.2969	75.0613	29.2969	76.871	29.2969	74.9173	29.2969	76.866	29.2969	74.7921	29.2969	76.8136	29.2969	74.688	29.2969	76.714	29.2969	74.6066	29.2969	76.5708	29.2969	74.5493	29.2969	76.3906	29.2969	74.5174	29.2969	76.1826	29.2969	74.5119	29.2969	75.9572	29.2969	74.5339	29.2969	75.7253	29.2969	74.5846	29.2969	75.4973	29.2969	74.665	29.2969	75.2821	29.2969	74.7759	29.2969	75.0869	29.2969	74.917
30.7617	76.7596	30.7617	76.5662	30.7617	76.9439	30.7617	76.3696	30.7617	77.1128	30.7617	76.1753	30.7617	77.2595	30.7617	75.9879	30.7617	77.3773	30.7617	75.8119	30.7617	77.4594	30.7617	75.651	30.7617	77.5002	30.7617	75.5084	30.7617	77.4954	30.7617	75.3868	30.7617	77.4427	30.7617	75.2884	30.7617	77.343	30.7617	75.2148	30.7617	77.2003	30.7617	75.1673	30.7617	77.0217	30.7617	75.1466	30.7617	76.8168	30.7617	75.153	30.7617	76.5966	30.7617	75.1867	30.7617	76.3718	30.7617	75.2477	30.7617	76.1522	30.7617	75.3358	30.7617	75.9454	30.7617	75.4506	30.7617	75.7573	30.7617	75.5915
32.2266	76.8205	32.2266	76.6325	32.2266	77.0021	32.2266	76.4436	32.2266	77.1712	32.2266	76.259	32.2266	77.3211	32.2266	76.0828	32.2266	77.4449	32.2266	75.9191	32.2266	77.5358	32.2266	75.7712	32.2266	77.5876	32.2266	75.642	32.2266	77.5957	32.2266	75.5339	32.2266	77.5577	32.2266	75.4488	32.2266	77.4739	32.2266	75.388	32.2266	77.3475	32.2266	75.3525	32.2266	77.1848	32.2266	75.3426	32.2266	76.9945	32.2266	75.3584	32.2266	76.7867	32.2266	75.3997	32.2266	76.5719	32.2266	75.466	32.2266	76.36	32.2266	75.5571	32.2266	76.159	32.2266	75.6726	32.2266	75.9752	32.2266	75.8123
33.6914	77.3133	33.6914	77.1322	33.6914	77.4869	33.6914	76.949	33.6914	77.6474	33.6914	76.7686	33.6914	77.7884	33.6914	76.5953	33.6914	77.9036	33.6914	76.4328	33.6914	77.9869	33.6914	76.2846	33.6914	78.0329	33.6914	76.1537	33.6914	78.0378	33.6914	76.0425	33.6914	77.9996	33.6914	75.9531	33.6914	77.9191	33.6914	75.8872	33.6914	77.7993	33.6914	75.846	33.6914	77.646	33.6914	75.8305	33.6914	77.4666	33.6914	75.8412	33.6914	77.2693	33.6914	75.8788	33.6914	77.0629	33.6914	75.9437	33.6914	76.8556	33.6914	76.0359	33.6914	76.655	33.6914	76.155	33.6914	76.4679	33.6914	76.2999
35.1562	77.8129	35.1562	77.6308	35.1562	77.9862	35.1562	77.4452	35.1562	78.145	35.1562	77.2608	35.1562	78.2828	35.1562	77.082	35.1562	78.3933	35.1562	76.9126	35.1562	78.47	35.1562	76.7562	35.1562	78.5074	35.1562	76.6158	35.1562	78.5012	35.1562	76.4942	35.1562	78.4496	35.1562	76.3938	35.1562	78.3531	35.1562	76.3164	35.1562	78.2156	35.1562	76.2635	35.1562	78.0434	35.1562	76.2361	35.1562	77.845	35.1562	76.2349	35.1562	77.6305	35.1562	76.2604	35.1562	77.4098	35.1562	76.3131	35.1562	77.1927	35.1562	76.3936	35.1562	76.9876	35.1562	76.5021	35.1562	76.8012	35.1562	76.6384
36.6211	77.9231	36.6211	77.719	36.6211	78.1183	36.6211	77.5127	36.6211	78.2979	36.6211	77.3102	36.6211	78.4549	36.6211	77.1169	36.6211	78.5823	36.6211	76.938	36.6211	78.6735	36.6211	76.7775	36.6211	78.7229	36.6211	76.6392	36.6211	78.7265	36.6211	76.5258	36.6211	78.6825	36.6211	76.4394	36.6211	78.5921	36.6211	76.3814	36.6211	78.4596	36.6211	76.3524	36.6211	78.292	36.6211	76.3523	36.6211	78.0985	36.6211	76.3804	36.6211	77.8892	36.6211	76.4358	36.6211	77.6741	36.6211	76.5169	36.6211	77.4618	36.6211	76.6225	36.6211	77.2592	36.6211	76.751	36.6211	77.0713	36.6211	76.9011
38.0859	79.0403	38.0859	78.843	38.0859	79.2268	38.0859	78.6405	38.0859	79.3962	38.0859	78.4376	38.0859	79.5415	38.0859	78.2383	38.0859	79.6554	38.0859	78.0459	38.0859	79.7308	38.0859	77.8629	38.0859	79.7611	38.0859	77.6915	38.0859	79.741	38.0859	77.5332	38.0859	79.6672	38.0859	77.3894	38.0859	79.5387	38.0859	77.2614	38.0859	79.3575	38.0859	77.1508	38.0859	79.1285	38.0859	77.0598	38.0859	78.8599	38.0859	76.9919	38.0859	78.563	38.0859	76.952	38.0859	78.2525	38.0859	76.9466	38.0859	77.9453	38.0859	76.9835	38.0859	77.6594	38.0859	77.0706	38.0859	77.4113	38.0859	77.213
39.5508	79.1767	39.5508	79.0029	39.5508	79.3466	39.5508	78.8303	39.5508	79.5071	39.5508	78.6631	39.5508	79.6518	39.5508	78.5052	39.5508	79.7745	39.5508	78.3596	39.5508	79.8687	39.5508	78.2289	39.5508	79.9288	39.5508	78.1153	39.5508	79.9503	39.5508	78.0202	39.5508	79.9306	39.5508	77.9451	39.5508	79.8693	39.5508	77.8908	39.5508	79.7685	39.5508	77.8581	39.5508	79.6323	39.5508	77.8478	39.5508	79.4666	39.5508	77.8608	39.5508	79.2788	39.5508	77.8981	39.5508	79.0771	39.5508	77.9608	39.5508	78.8708	39.5508	78.0503	39.5508	78.669	39.5508	78.1674	39.5508	78.4802	39.5508	78.3114
41.0156	79.1113	41.0156	78.9311	41.0156	79.2964	41.0156	78.7621	41.0156	79.4801	41.0156	78.6095	41.0156	79.6554	41.0156	78.4781	41.0156	79.8154	41.0156	78.3717	41.0156	79.9536	41.0156	78.2933	41.0156	80.0645	41.0156	78.2451	41.0156	80.1443	41.0156	78.2282	41.0156	80.1911	41.0156	78.2426	41.0156	80.2056	41.0156	78.2877	41.0156	80.1901	41.0156	78.3616	41.0156	80.1483	41.0156	78.4617	41.0156	80.0841	41.0156	78.5844	41.0156	80.0006	41.0156	78.725	41.0156	79.9003	41.0156	78.8785	41.0156	79.7847	41.0156	79.0393	41.0156	79.6553	41.0156	79.2019	41.0156	79.5134	41.0156	79.3612
42.4805	79.7026	42.4805	79.5018	42.4805	79.893	42.4805	79.2966	42.4805	80.0672	42.4805	79.0928	42.4805	80.2189	42.4805	78.8961	42.4805	80.3422	42.4805	78.712	42.4805	80.4314	42.4805	78.546	42.4805	80.4817	42.4805	78.4028	42.4805	80.49	42.4805	78.2867	42.4805	80.4549	42.4805	78.2011	42.4805	80.3781	42.4805	78.1487	42.4805	80.2639	42.4805	78.1309	42.4805	80.1189	42.4805	78.1479	42.4805	79.9511	42.4805	78.1987	42.4805	79.7688	42.4805	78.2809	42.4805	79.5791	42.4805	78.3906	42.4805	79.3878	42.4805	78.5235	42.4805	79.1991	42.4805	78.6747	42.4805	79.0156	42.4805	78.8399
43.9453	80.3526	43.9453	80.1639	43.9453	80.5296	43.9453	79.9683	43.9453	80.6894	43.9453	79.7706	43.9453	80.8263	43.9453	79.5752	43.9453	80.9347	43.9453	79.3861	43.9453	81.0088	43.9453	79.2073	43.9453	81.0438	43.9453	79.0426	43.9453	81.0359	43.9453	78.8955	43.9453	80.9832	43.9453	78.7695	43.9453	80.8862	43.9453	78.6678	43.9453	80.748	43.9453	78.5936	43.9453	80.5739	43.9453	78.5497	43.9453	80.3711	43.9453	78.539	43.9453	80.1477	43.9453	78.5637	43.9453	79.9124	43.9453	78.6252	43.9453	79.674	43.9453	78.7239	43.9453	79.4414	43.9453	78.8587	43.9453	79.223	43.9453	79.0266
45.4102	80.6323	45.4102	80.4604	45.4102	80.7999	45.4102	80.2896	45.4102	80.9571	45.4102	80.1246	45.4102	81.0974	45.4102	79.969	45.4102	81.2144	45.4102	79.8259	45.4102	81.3019	45.4102	79.6975	45.4102	81.3545	45.4102	79.5853	45.4102	81.3684	45.4102	79.4908	45.4102	81.3416	45.4102	79.4152	45.4102	81.2747	45.4102	79.3597	45.4102	81.1705	45.4102	79.3257	45.4102	81.0344	45.4102	79.3145	45.4102	80.8731	45.4102	79.3275	45.4102	80.6941	45.4102	79.3661	45.4102	80.505	45.4102	79.4314	45.4102	80.313	45.4102	79.5235	45.4102	80.1247	45.4102	79.6417	45.4102	79.9465	45.4102	79.7839
46.875	80.511	46.875	80.3209	46.875	80.6999	46.875	80.1364	46.875	80.8798	46.875	79.964	46.875	81.0432	46.875	79.8087	46.875	81.1827	46.875	79.6748	46.875	81.2918	46.875	79.5653	46.875	81.3654	46.875	79.4825	46.875	81.4001	46.875	79.4275	46.875	81.3952	46.875	79.4011	46.875	81.3527	46.875	79.4031	46.875	81.2773	46.875	79.4329	46.875	81.1757	46.875	79.489	46.875	81.0555	46.875	79.5695	46.875	80.9238	46.875	79.6714	46.875	80.7857	46.875	79.7909	46.875	80.6445	46.875	79.9237	46.875	80.5012	46.875	80.0649	46.875	80.3562	46.875	80.2102
48.3398	80.5844	48.3398	80.3771	48.3398	80.7914	48.3398	80.1778	48.3398	80.9893	48.3398	79.9942	48.3398	81.1696	48.3398	79.8329	48.3398	81.3243	48.3398	79.6993	48.3398	81.4465	48.3398	79.5975	48.3398	81.5311	48.3398	79.5301	48.3398	81.5753	48.3398	79.4984	48.3398	81.5792	48.3398	79.5024	48.3398	81.5461	48.3398	79.5408	48.3398	81.4818	48.3398	79.6113	48.3398	81.3943	48.3398	79.7102	48.3398	81.292	48.3398	79.8328	48.3398	81.1823	48.3398	79.9731	48.3398	81.0695	48.3398	80.1244	48.3398	80.9548	48.3398	80.2795	48.3398	80.8364	48.3398	80.4319	48.3398	80.7112	48.3398	80.5766
51.2695	82.4492	51.2695	82.2551	51.2695	82.6149	51.2695	82.0376	51.2695	82.7479	51.2695	81.802	51.2695	82.8439	51.2695	81.5545	51.2695	82.8988	51.2695	81.3019	51.2695	82.9087	51.2695	81.0513	51.2695	82.8705	51.2695	80.8105	51.2695	82.7822	51.2695	80.5871	51.2695	82.644	51.2695	80.3882	51.2695	82.4587	51.2695	80.2206	51.2695	82.2324	51.2695	80.0894	51.2695	81.9739	51.2695	79.9984	51.2695	81.6949	51.2695	79.949	51.2695	81.4086	51.2695	79.9407	51.2695	81.1288	51.2695	79.9714	51.2695	80.868	51.2695	80.038	51.2695	80.6354	51.2695	80.138	51.2695	80.4359	51.2695	80.2704
52.7344	82.8329	52.7344	82.6794	52.7344	82.9524	52.7344	82.4952	52.7344	83.0353	52.7344	82.2842	52.7344	83.0791	52.7344	82.0507	52.7344	83.0817	52.7344	81.8001	52.7344	83.0417	52.7344	81.538	52.7344	82.9579	52.7344	81.2706	52.7344	82.8301	52.7344	81.0042	52.7344	82.6587	52.7344	80.7452	52.7344	82.4452	52.7344	80.4997	52.7344	82.1925	52.7344	80.2737	52.7344	81.905	52.7344	80.0736	52.7344	81.5893	52.7344	79.9061	52.7344	81.2548	52.7344	79.7788	52.7344	80.9144	52.7344	79.7004	52.7344	80.5846	52.7344	79.68	52.7344	80.2844	52.7344	79.7261	52.7344	80.0326	52.7344	79.8438
54.1992	82.2628	54.1992	82.1069	54.1992	82.3942	54.1992	81.9299	54.1992	82.4978	54.1992	81.735	54.1992	82.5702	54.1992	81.5261	54.1992	82.6082	54.1992	81.3073	54.1992	82.6089	54.1992	81.0833	54.1992	82.5701	54.1992	80.8592	54.1992	82.4906	54.1992	80.6407	54.1992	82.3707	54.1992	80.4333	54.1992	82.212	54.1992	80.2432	54.1992	82.018	54.1992	80.0764	54.1992	81.7939	54.1992	79.9391	54.1992	81.546	54.1992	79.8375	54.1992	81.2816	54.1992	79.7781	54.1992	81.0091	54.1992	79.7666	54.1992	80.7382	54.1992	79.8076	54.1992	80.4802	54.1992	79.9033	54.1992	80.2474	54.1992	80.0518
55.6641	82.0298	55.6641	81.857	55.6641	82.1916	55.6641	81.6773	55.6641	82.3376	55.6641	81.4939	55.6641	82.462	55.6641	81.3093	55.6641	82.5583	55.6641	81.1255	55.6641	82.6203	55.6641	80.9445	55.6641	82.642	55.6641	80.7684	55.6641	82.6186	55.6641	80.5993	55.6641	82.5472	55.6641	80.44	55.6641	82.4274	55.6641	80.2935	55.6641	82.2613	55.6641	80.1641	55.6641	82.0537	55.6641	80.0565	55.6641	81.8119	55.6641	79.9771	55.6641	81.5448	55.6641	79.9333	55.6641	81.2629	55.6641	79.9328	55.6641	80.9783	55.6641	79.9827	55.6641	80.7047	55.6641	80.0876	55.6641	80.4566	55.6641	80.2474
58.5938	82.488	58.5938	82.2982	58.5938	82.6726	58.5938	82.1094	58.5938	82.8452	58.5938	81.9267	58.5938	82.9989	58.5938	81.755	58.5938	83.1261	58.5938	81.5978	58.5938	83.2197	58.5938	81.4584	58.5938	83.2732	58.5938	81.3388	58.5938	83.2817	58.5938	81.2406	58.5938	83.2424	58.5938	81.1647	58.5938	83.1554	58.5938	81.1114	58.5938	83.0242	58.5938	81.0806	58.5938	82.8554	58.5938	81.072	58.5938	82.6585	58.5938	81.0854	58.5938	82.4449	58.5938	81.1205	58.5938	82.2265	58.5938	81.1776	58.5938	82.0142	58.5938	81.2572	58.5938	81.8168	58.5938	81.3603	58.5938	81.6403	58.5938	81.4878
60.0586	82.6355	60.0586	82.4387	60.0586	82.8256	60.0586	82.2417	60.0586	83.0018	60.0586	82.0509	60.0586	83.1567	60.0586	81.8715	60.0586	83.2829	60.0586	81.7082	60.0586	83.3736	60.0586	81.5649	60.0586	83.423	60.0586	81.4447	60.0586	83.427	60.0586	81.3497	60.0586	83.3839	60.0586	81.2811	60.0586	83.2948	60.0586	81.2392	60.0586	83.164	60.0586	81.2234	60.0586	82.9988	60.0586	81.2325	60.0586	82.809	60.0586	81.2647	60.0586	82.6057	60.0586	81.3178	60.0586	82.4001	60.0586	81.3899	60.0586	82.2023	60.0586	81.4797	60.0586	82.0195	60.0586	81.5867	60.0586	81.8556	60.0586	81.7116
62.9883	83.0518	62.9883	82.8671	62.9883	83.2268	62.9883	82.6781	62.9883	83.3861	62.9883	82.4901	62.9883	83.5239	62.9883	82.3079	62.9883	83.6342	62.9883	82.1358	62.9883	83.7115	62.9883	81.9775	62.9883	83.7509	62.9883	81.8364	62.9883	83.7489	62.9883	81.715	62.9883	83.7035	62.9883	81.6155	62.9883	83.6151	62.9883	81.5398	62.9883	83.4865	62.9883	81.4893	62.9883	83.3227	62.9883	81.4651	62.9883	83.1312	62.9883	81.4682	62.9883	82.9209	62.9883	81.4994	62.9883	82.7015	62.9883	81.5591	62.9883	82.4826	62.9883	81.6477	62.9883	82.2732	62.9883	81.765	62.9883	82.0805	62.9883	81.9099
64.4531	82.9965	64.4531	82.8106	64.4531	83.1761	64.4531	82.6243	64.4531	83.3434	64.4531	82.4431	64.4531	83.4924	64.4531	82.2721	64.4531	83.6174	64.4531	82.1161	64.4531	83.713	64.4531	81.9788	64.4531	83.7747	64.4531	81.8636	64.4531	83.7991	64.4531	81.7726	64.4531	83.7847	64.4531	81.7074	64.4531	83.7318	64.4531	81.6687	64.4531	83.6427	64.4531	81.6568	64.4531	83.5214	64.4531	81.6716	64.4531	83.3732	64.4531	81.7125	64.4531	83.2042	64.4531	81.7791	64.4531	83.021	64.4531	81.8706	64.4531	82.8306	64.4531	81.986	64.4531	82.6396	64.4531	82.1236	64.4531	82.4545	64.4531	82.281
67.3828	83.3335	67.3828	83.1395	67.3828	83.5192	67.3828	82.9435	67.3828	83.6901	67.3828	82.7515	67.3828	83.8396	67.3828	82.5693	67.3828	83.9614	67.3828	82.402	67.3828	84.05	67.3828	82.2542	67.3828	84.1009	67.3828	82.1297	67.3828	84.1113	67.3828	82.0318	67.3828	84.0809	67.3828	81.9623	67.3828	84.0115	67.3828	81.9225	67.3828	83.9075	67.3828	81.9127	67.3828	83.7745	67.3828	81.9323	67.3828	83.6193	67.3828	81.9799	67.3828	83.4487	67.3828	82.0539	67.3828	83.2691	67.3828	82.1519	67.3828	83.0862	67.3828	82.2714	67.3828	82.905	67.3828	82.4095	67.3828	82.7294	67.3828	82.5632
68.8477	83.44	68.8477	83.2443	68.8477	83.6272	68.8477	83.0468	68.8477	83.7991	68.8477	82.8535	68.8477	83.9491	68.8477	82.6704	68.8477	84.0706	68.8477	82.5025	68.8477	84.1582	68.8477	82.3546	68.8477	84.2077	68.8477	82.2302	68.8477	84.2165	68.8477	82.1322	68.8477	84.1847	68.8477	82.0627	68.8477	84.1143	68.8477	82.0226	68.8477	84.0097	68.8477	82.0121	68.8477	83.8766	68.8477	82.0307	68.8477	83.7214	68.8477	82.0772	68.8477	83.5507	68.8477	82.15	68.8477	83.3706	68.8477	82.2471	68.8477	83.1867	68.8477	82.3661	68.8477	83.0039	68.8477	82.5044	68.8477	82.8267	68.8477	82.659
71.7773	83.6535	71.7773	83.4591	71.7773	83.8378	71.7773	83.2614	71.7773	84.005	71.7773	83.0672	71.7773	84.1484	71.7773	82.8829	71.7773	84.2619	71.7773	82.714	71.7773	84.3404	71.7773	82.5654	71.7773	84.3804	71.7773	82.4409	71.7773	84.3803	71.7773	82.3433	71.7773	84.3409	71.7773	82.2745	71.7773	84.265	71.7773	82.235	71.7773	84.1574	71.7773	82.2246	71.7773	84.0241	71.7773	82.2426	71.7773	83.8711	71.7773	82.2874	71.7773	83.7045	71.7773	82.3572	71.7773	83.5298	71.7773	82.45	71.7773	83.352	71.7773	82.5637	71.7773	83.1757	71.7773	82.6959	71.7773	83.0051	71.7773	82.8441
74.707	83.8372	74.707	83.6457	74.707	84.0185	74.707	83.4511	74.707	84.1827	74.707	83.2605	74.707	84.3232	74.707	83.0805	74.707	84.4341	74.707	82.9172	74.707	84.5109	74.707	82.7758	74.707	84.5507	74.707	82.6606	74.707	84.5527	74.707	82.5745	74.707	84.5182	74.707	82.5192	74.707	84.4508	74.707	82.4948	74.707	84.3558	74.707	82.5005	74.707	84.2386	74.707	82.5343	74.707	84.105	74.707	82.5939	74.707	83.9595	74.707	82.6764	74.707	83.8061	74.707	82.7789	74.707	83.648	74.707	82.8985	74.707	83.4884	74.707	83.0322	74.707	83.3304	74.707	83.1772
77.6367	83.8682	77.6367	83.6693	77.6367	84.055	77.6367	83.4657	77.6367	84.2224	77.6367	83.2648	77.6367	84.3638	77.6367	83.0739	77.6367	84.4736	77.6367	82.8999	77.6367	84.5472	77.6367	82.7488	77.6367	84.5822	77.6367	82.6258	77.6367	84.5784	77.6367	82.5348	77.6367	84.5382	77.6367	82.4781	77.6367	84.4661	77.6367	82.4563	77.6367	84.3686	77.6367	82.4689	77.6367	84.2524	77.6367	82.5136	77.6367	84.1235	77.6367	82.5873	77.6367	83.9863	77.6367	82.6859	77.6367	83.8432	77.6367	82.8049	77.6367	83.6958	77.6367	82.9396	77.6367	83.5446	77.6367	83.085	77.6367	83.391	77.6367	83.2368
79.1016	83.9664	79.1016	83.7607	79.1016	84.1585	79.1016	83.549	79.1016	84.3295	79.1016	83.339	79.1016	84.4726	79.1016	83.138	79.1016	84.5817	79.1016	82.9532	79.1016	84.6523	79.1016	82.7908	79.1016	84.6817	79.1016	82.6561	79.1016	84.6696	79.1016	82.5534	79.1016	84.6186	79.1016	82.4853	79.1016	84.5337	79.1016	82.4529	79.1016	84.4218	79.1016	82.4559	79.1016	84.2905	79.1016	82.4924	79.1016	84.1464	79.1016	82.5595	79.1016	83.9948	79.1016	82.6532	79.1016	83.8389	79.1016	82.7691	79.1016	83.6805	79.1016	82.9023	79.1016	83.5206	79.1016	83.048	79.1016	83.3605	79.1016	83.202
82.0312	84.2117	82.0312	84.0051	82.0312	84.4033	82.0312	83.7917	82.0312	84.5724	82.0312	83.5795	82.0312	84.7117	82.0312	83.3761	82.0312	84.8153	82.0312	83.1886	82.0312	84.8785	82.0312	83.023	82.0312	84.8988	82.0312	82.8843	82.0312	84.876	82.0312	82.7758	82.0312	84.8125	82.0312	82.6997	82.0312	84.7134	82.0312	82.6566	82.0312	84.5857	82.0312	82.6459	82.0312	84.4369	82.0312	82.666	82.0312	84.2745	82.0312	82.7145	82.0312	84.1046	82.0312	82.7883	82.0312	83.9319	82.0312	82.8843	82.0312	83.7598	82.0312	82.9993	82.0312	83.5913	82.0312	83.1302	82.0312	83.4286	82.0312	83.2741
84.9609	84.0721	84.9609	83.8706	84.9609	84.2611	84.9609	83.6647	84.9609	84.4299	84.9609	83.463	84.9609	84.5717	84.9609	83.2739	84.9609	84.6808	84.9609	83.105	84.9609	84.7534	84.9609	82.9634	84.9609	84.7879	84.9609	82.8541	84.9609	84.7851	84.9609	82.7807	84.9609	84.749	84.9609	82.7441	84.9609	84.6853	84.9609	82.7436	84.9609	84.6009	84.9609	82.7764	84.9609	84.502	84.9609	82.8383	84.9609	84.3927	84.9609	82.9249	84.9609	84.2751	84.9609	83.0314	84.9609	84.1495	84.9609	83.1537	84.9609	84.0157	84.9609	83.288	84.9609	83.8745	84.9609	83.4308	84.9609	83.7278	84.9609	83.5787
87.8906	84.2861	87.8906	84.0659	87.8906	84.4835	87.8906	83.831	87.8906	84.6505	87.8906	83.5894	87.8906	84.7803	87.8906	83.3499	87.8906	84.8672	87.8906	83.1211	87.8906	84.9075	87.8906	82.9118	87.8906	84.9002	87.8906	82.7308	87.8906	84.8473	87.8906	82.5857	87.8906	84.7545	87.8906	82.4828	87.8906	84.6306	87.8906	82.4263	87.8906	84.4859	87.8906	82.4173	87.8906	84.3311	87.8906	82.4541	87.8906	84.1744	87.8906	82.5319	87.8906	84.0207	87.8906	82.6438	87.8906	83.8707	87.8906	82.7813	87.8906	83.7226	87.8906	82.9352	87.8906	83.5729	87.8906	83.097	87.8906	83.419	87.8906	83.2598
90.8203	84.339	90.8203	84.1104	90.8203	84.5432	90.8203	83.8674	90.8203	84.714	90.8203	83.6201	90.8203	84.8436	90.8203	83.379	90.8203	84.9261	90.8203	83.1537	90.8203	84.9581	90.8203	82.9536	90.8203	84.9397	90.8203	82.787	90.8203	84.8745	90.8203	82.661	90.8203	84.7707	90.8203	82.5806	90.8203	84.6402	90.8203	82.5487	90.8203	84.4976	90.8203	82.5655	90.8203	84.3564	90.8203	82.6279	90.8203	84.2263	90.8203	82.7303	90.8203	84.1102	90.8203	82.8644	90.8203	84.0042	90.8203	83.0203	90.8203	83.8996	90.8203	83.1875	90.8203	83.787	90.8203	83.3553	90.8203	83.6595	90.8203	83.5148
95.2148	85.0256	95.2148	84.83	95.2148	85.1913	95.2148	84.6117	95.2148	85.3212	95.2148	84.3782	95.2148	85.4101	95.2148	84.1375	95.2148	85.4544	95.2148	83.8973	95.2148	85.4514	95.2148	83.6649	95.2148	85.3998	95.2148	83.4466	95.2148	85.3003	95.2148	83.2481	95.2148	85.1553	95.2148	83.0743	95.2148	84.9697	95.2148	82.9294	95.2148	84.7509	95.2148	82.8167	95.2148	84.5083	95.2148	82.7386	95.2148	84.2529	95.2148	82.6962	95.2148	83.9962	95.2148	82.6897	95.2148	83.7491	95.2148	82.7179	95.2148	83.5205	95.2148	82.7787	95.2148	83.3162	95.2148	82.87	95.2148	83.1392	95.2148	82.9904
98.1445	84.6159	98.1445	84.4422	98.1445	84.7673	98.1445	84.251	98.1445	84.8917	98.1445	84.0477	98.1445	84.9851	98.1445	83.8378	98.1445	85.0441	98.1445	83.6271	98.1445	85.0659	98.1445	83.4213	98.1445	85.0488	98.1445	83.2259	98.1445	84.9928	98.1445	83.0465	98.1445	84.8994	98.1445	82.8883	98.1445	84.7715	98.1445	82.7562	98.1445	84.6133	98.1445	82.6549	98.1445	84.4297	98.1445	82.5881	98.1445	84.2258	98.1445	82.5584	98.1445	84.0078	98.1445	82.5671	98.1445	83.7825	98.1445	82.6141	98.1445	83.5577	98.1445	82.6977	98.1445	83.3416	98.1445	82.8157	98.1445	83.1419	98.1445	82.965
101.074	84.1461	101.074	83.9719	101.074	84.3021	101.074	83.7871	101.074	84.4327	101.074	83.5995	101.074	84.5319	101.074	83.4166	101.074	84.5953	101.074	83.2453	101.074	84.6209	101.074	83.0914	101.074	84.6098	101.074	82.9593	101.074	84.5663	101.074	82.8522	101.074	84.4982	101.074	82.7721	101.074	84.4144	101.074	82.72	101.074	84.3233	101.074	82.6968	101.074	84.2296	101.074	82.7029	101.074	84.1335	101.074	82.7387	101.074	84.0308	101.074	82.804	101.074	83.9159	101.074	82.8979	101.074	83.7849	101.074	83.0181	101.074	83.6376	101.074	83.1598	101.074	83.4788	101.074	83.3164
105.469	84.236	105.469	84.0003	105.469	84.4405	105.469	83.7435	105.469	84.6043	105.469	83.4765	105.469	84.7192	105.469	83.211	105.469	84.7788	105.469	82.9584	105.469	84.7786	105.469	82.7299	105.469	84.7178	105.469	82.5353	105.469	84.5996	105.469	82.3821	105.469	84.4329	105.469	82.2752	105.469	84.2317	105.469	82.2161	105.469	84.0142	105.469	82.203	105.469	83.7996	105.469	82.2316	105.469	83.6038	105.469	82.2951	105.469	83.4357	105.469	82.3856	105.469	83.2954	105.469	82.4943	105.469	83.1762	105.469	82.6127	105.469	83.0679	105.469	82.7332	105.469	82.9613	105.469	82.8502
108.398	84.6549	108.398	84.4232	108.398	84.8554	108.398	84.1698	108.398	85.0157	108.398	83.9047	108.398	85.1281	108.398	83.6378	108.398	85.1858	108.398	83.3789	108.398	85.1845	108.398	83.1373	108.398	85.1225	108.398	82.9211	108.398	85.0017	108.398	82.7373	108.398	84.8288	108.398	82.591	108.398	84.6149	108.398	82.4856	108.398	84.3753	108.398	82.4223	108.398	84.1273	108.398	82.4004	108.398	83.8872	108.398	82.417	108.398	83.6672	108.398	82.4674	108.398	83.4727	108.398	82.5457	108.398	83.3024	108.398	82.645	108.398	83.1511	108.398	82.7588	108.398	83.0125	108.398	82.8821
112.793	84.3816	112.793	84.1644	112.793	84.5733	112.793	83.9304	112.793	84.7316	112.793	83.689	112.793	84.8495	112.793	83.4497	112.793	84.9216	112.793	83.2224	112.793	84.9445	112.793	83.016	112.793	84.9171	112.793	82.8387	112.793	84.8417	112.793	82.6965	112.793	84.724	112.793	82.5932	112.793	84.5727	112.793	82.5301	112.793	84.3988	112.793	82.5061	112.793	84.2132	112.793	82.518	112.793	84.0256	112.793	82.5611	112.793	83.8427	112.793	82.6299	112.793	83.6683	112.793	82.7192	112.793	83.5038	112.793	82.8241	112.793	83.3492	112.793	82.9411	112.793	83.2042	112.793	83.0681
117.188	84.7009	117.188	84.4632	117.188	84.9075	117.188	84.205	117.188	85.0729	117.188	83.9368	117.188	85.1881	117.188	83.6691	117.188	85.2452	117.188	83.4117	117.188	85.2389	117.188	83.1735	117.188	85.167	117.188	82.9626	117.188	85.0318	117.188	82.7859	117.188	84.8414	117.188	82.6483	117.188	84.6098	117.188	82.5535	117.188	84.3565	117.188	82.5028	117.188	84.1037	117.188	82.4955	117.188	83.872	117.188	82.5285	117.188	83.6748	117.188	82.5962	117.188	83.5147	117.188	82.691	117.188	83.3842	117.188	82.8036	117.188	83.27	117.188	82.9242	117.188	83.1593	117.188	83.0444
120.117	84.655	120.117	84.4266	120.117	84.8512	120.117	84.1763	120.117	85.0053	120.117	83.9146	120.117	85.1087	120.117	83.6521	120.117	85.1545	120.117	83.3986	120.117	85.1377	120.117	83.1628	120.117	85.0566	120.117	82.9521	120.117	84.9129	120.117	82.7724	120.117	84.7131	120.117	82.6276	120.117	84.4685	120.117	82.5202	120.117	84.1953	120.117	82.4509	120.117	83.9131	120.117	82.4184	120.117	83.6426	120.117	82.4198	120.117	83.4017	120.117	82.4501	120.117	83.2011	120.117	82.503	120.117	83.0424	120.117	82.5711	120.117	82.9186	120.117	82.6481	120.117	82.8181	120.117	82.7301
124.512	84.3919	124.512	84.1578	124.512	84.594	124.512	83.9025	124.512	84.7545	124.512	83.6373	124.512	84.8652	124.512	83.3737	124.512	84.9199	124.512	83.1223	124.512	84.9149	124.512	82.8927	124.512	84.8492	124.512	82.6927	124.512	84.7249	124.512	82.5279	124.512	84.5478	124.512	82.4015	124.512	84.3272	124.512	82.3143	124.512	84.0763	124.512	82.2649	124.512	83.8114	124.512	82.25	124.512	83.5501	124.512	82.2649	124.512	83.3089	124.512	82.3039	124.512	83.1002	124.512	82.3606	124.512	82.9289	124.512	82.4293	124.512	82.7923	124.512	82.5058	124.512	82.6822	124.512	82.5891
128.906	84.5159	128.906	84.2865	128.906	84.7087	128.906	84.0305	128.906	84.8562	128.906	83.7581	128.906	84.9514	128.906	83.4799	128.906	84.9894	128.906	83.2054	128.906	84.9672	128.906	82.9435	128.906	84.8839	128.906	82.7022	128.906	84.7408	128.906	82.4891	128.906	84.5413	128.906	82.3112	128.906	84.2924	128.906	82.1744	128.906	84.0054	128.906	82.0832	128.906	83.6967	128.906	82.039	128.906	83.3885	128.906	82.0389	128.906	83.1051	128.906	82.0758	128.906	82.8671	128.906	82.1386	128.906	82.6843	128.906	82.2151	128.906	82.5519	128.906	82.2947	128.906	82.4543	128.906	82.3731
133.301	83.9727	133.301	83.759	133.301	84.1561	133.301	83.5241	133.301	84.3023	133.301	83.2791	133.301	84.407	133.301	83.0349	133.301	84.4686	133.301	82.8012	133.301	84.487	133.301	82.585	133.301	84.4632	133.301	82.3898	133.301	84.3989	133.301	82.2165	133.301	84.2952	133.301	82.0643	133.301	84.1521	133.301	81.9324	133.301	83.9683	133.301	81.8215	133.301	83.7425	133.301	81.7336	133.301	83.4767	133.301	81.6727	133.301	83.1798	133.301	81.6428	133.301	82.8686	133.301	81.6475	133.301	82.5662	133.301	81.6894	133.301	82.2951	133.301	81.771	133.301	82.0702	133.301	81.8964
139.16	83.5319	139.16	83.2438	139.16	83.7859	139.16	82.934	139.16	83.9955	139.16	82.6175	139.16	84.152	139.16	82.3125	139.16	84.2492	139.16	82.0393	139.16	84.284	139.16	81.8189	139.16	84.2582	139.16	81.669	139.16	84.1799	139.16	81.6003	139.16	84.0638	139.16	81.6136	139.16	83.9294	139.16	81.6994	139.16	83.7967	139.16	81.8405	139.16	83.6803	139.16	82.0161	139.16	83.585	139.16	82.2066	139.16	83.5054	139.16	82.3964	139.16	83.4304	139.16	82.5756	139.16	83.3489	139.16	82.74	139.16	83.2547	139.16	82.889	139.16	83.1462	139.16	83.0241
143.555	84.0628	143.555	83.7882	143.555	84.2981	143.555	83.4847	143.555	84.4836	143.555	83.1631	143.555	84.6095	143.555	82.8341	143.555	84.6675	143.555	82.5097	143.555	84.652	143.555	82.2035	143.555	84.561	143.555	81.9309	143.555	84.3979	143.555	81.7089	143.555	84.1726	143.555	81.5534	143.555	83.9031	143.555	81.4757	143.555	83.6155	143.555	81.4794	143.555	83.3412	143.555	81.5577	143.555	83.1093	143.555	81.6948	143.555	82.9375	143.555	81.8694	143.555	82.825	143.555	82.0585	143.555	82.7534	143.555	82.2416	143.555	82.6961	143.555	82.4029	143.555	82.628	143.555	82.5325
147.949	83.9888	147.949	83.7013	147.949	84.2307	147.949	83.3794	147.949	84.4171	147.949	83.035	147.949	84.5397	147.949	82.6801	147.949	84.5924	147.949	82.3265	147.949	84.5714	147.949	81.9854	147.949	84.4751	147.949	81.668	147.949	84.3047	147.949	81.3861	147.949	84.0648	147.949	81.1517	147.949	83.7646	147.949	80.9771	147.949	83.4193	147.949	80.8721	147.949	83.0527	147.949	80.8418	147.949	82.6955	147.949	80.8833	147.949	82.3802	147.949	80.9846	147.949	82.1295	147.949	81.1263	147.949	81.9461	147.949	81.2854	147.949	81.8117	147.949	81.4407	147.949	81.6978	147.949	81.5786
153.809	83.733	153.809	83.4387	153.809	83.9787	153.809	83.1081	153.809	84.1661	153.809	82.756	153.809	84.2894	153.809	82.3976	153.809	84.3464	153.809	82.0477	153.809	84.3384	153.809	81.7188	153.809	84.2691	153.809	81.4208	153.809	84.1437	153.809	81.1611	153.809	83.967	153.809	80.9455	153.809	83.7423	153.809	80.7791	153.809	83.4727	153.809	80.667	153.809	83.1631	153.809	80.6131	153.809	82.8249	153.809	80.6183	153.809	82.4782	153.809	80.6784	153.809	82.1483	153.809	80.783	153.809	81.8573	153.809	80.9183	153.809	81.6136	153.809	81.071	153.809	81.4109	153.809	81.2342
159.668	83.8315	159.668	83.56	159.668	84.0513	159.668	83.2481	159.668	84.2113	159.668	82.909	159.668	84.3065	159.668	82.5575	159.668	84.3355	159.668	82.2082	159.668	84.3007	159.668	81.8747	159.668	84.2079	159.668	81.568	159.668	84.0663	159.668	81.2971	159.668	83.8863	159.668	81.0689	159.668	83.6784	159.668	80.8894	159.668	83.4503	159.668	80.7648	159.668	83.2074	159.668	80.7015	159.668	82.9538	159.668	80.7039	159.668	82.6949	159.668	80.7721	159.668	82.4376	159.668	80.8995	159.668	82.1884	159.668	81.0731	159.668	81.9497	159.668	81.2763	159.668	81.7194	159.668	81.4946
165.527	83.4908	165.527	83.2237	165.527	83.7127	165.527	82.9241	165.527	83.88	165.527	82.6069	165.527	83.9859	165.527	82.2879	165.527	84.0271	165.527	81.983	165.527	84.0033	165.527	81.7057	165.527	83.9176	165.527	81.4658	165.527	83.7755	165.527	81.2693	165.527	83.5849	165.527	81.1184	165.527	83.3552	165.527	81.0135	165.527	83.0978	165.527	80.9544	165.527	82.8275	165.527	80.9417	165.527	82.5628	165.527	80.9751	165.527	82.3238	165.527	81.0523	165.527	82.1248	165.527	81.1661	165.527	81.9673	165.527	81.3041	165.527	81.8384	165.527	81.4503	165.527	81.7182	165.527	81.5906
171.387	83.3305	171.387	83.0692	171.387	83.5426	171.387	82.7681	171.387	83.6989	171.387	82.4389	171.387	83.7955	171.387	82.0949	171.387	83.8313	171.387	81.7508	171.387	83.8084	171.387	81.4215	171.387	83.7307	171.387	81.1211	171.387	83.6027	171.387	80.8624	171.387	83.4274	171.387	80.6565	171.387	83.2052	171.387	80.5119	171.387	82.9353	171.387	80.4337	171.387	82.6215	171.387	80.4224	171.387	82.2789	171.387	80.4721	171.387	81.9381	171.387	80.57	171.387	81.6383	171.387	80.6973	171.387	81.4096	171.387	80.832	171.387	81.2549	171.387	80.9553	171.387	81.1496	171.387	81.0585
177.246	83.0364	177.246	82.7547	177.246	83.2729	177.246	82.443	177.246	83.452	177.246	82.117	177.246	83.5656	177.246	81.7914	177.246	83.6111	177.246	81.4784	177.246	83.5916	177.246	81.1863	177.246	83.5146	177.246	80.9195	177.246	83.3895	177.246	80.6799	177.246	83.2244	177.246	80.469	177.246	83.0228	177.246	80.2905	177.246	82.7834	177.246	80.1519	177.246	82.5045	177.246	80.0636	177.246	82.1903	177.246	80.035	177.246	81.8563	177.246	80.0691	177.246	81.5284	177.246	80.1587	177.246	81.2329	177.246	80.2881	177.246	80.9845	177.246	80.4395	177.246	80.7794	177.246	80.6024
183.105	82.7962	183.105	82.5391	183.105	83.0003	183.105	82.244	183.105	83.1421	183.105	81.9288	183.105	83.2183	183.105	81.6121	183.105	83.2326	183.105	81.3093	183.105	83.1944	183.105	81.0308	183.105	83.1168	183.105	80.7804	183.105	83.0123	183.105	80.5568	183.105	82.8868	183.105	80.3568	183.105	82.7357	183.105	80.1792	183.105	82.545	183.105	80.029	183.105	82.3003	183.105	79.9182	183.105	81.9995	183.105	79.8624	183.105	81.6619	183.105	79.8735	183.105	81.3246	183.105	79.9513	183.105	81.0256	183.105	80.0811	183.105	80.782	183.105	80.2397	183.105	80.5839	183.105	80.4083
188.965	82.4862	188.965	82.2195	188.965	82.704	188.965	81.9258	188.965	82.8561	188.965	81.6295	188.965	82.9336	188.965	81.3533	188.965	82.937	188.965	81.1126	188.965	82.8773	188.965	80.9114	188.965	82.7751	188.965	80.7409	188.965	82.6554	188.965	80.5828	188.965	82.5378	188.965	80.4155	188.965	82.4244	188.965	80.2226	188.965	82.2953	188.965	80.0002	188.965	82.117	188.965	79.7623	188.965	81.8602	188.965	79.5411	188.965	81.5182	188.965	79.3786	188.965	81.1148	188.965	79.3105	188.965	80.6958	188.965	79.3501	188.965	80.3064	188.965	79.4862	188.965	79.9721	188.965	79.698
196.289	82.8794	196.289	82.6217	196.289	83.0786	196.289	82.324	196.289	83.2067	196.289	82.0094	196.289	83.2574	196.289	81.7024	196.289	83.2312	196.289	81.4249	196.289	83.1353	196.289	81.1906	196.289	82.9827	196.289	81.0015	196.289	82.789	196.289	80.8462	196.289	82.5659	196.289	80.7037	196.289	82.3153	196.289	80.5511	196.289	82.0294	196.289	80.3724	196.289	81.7002	196.289	80.1664	196.289	81.3341	196.289	79.9505	196.289	80.9585	196.289	79.7579	196.289	80.6127	196.289	79.6266	196.289	80.3243	196.289	79.583	196.289	80.0935	196.289	79.6293	196.289	79.9036	196.289	79.7449
203.613	80.9755	203.613	80.7119	203.613	81.1573	203.613	80.4058	203.613	81.2368	203.613	80.1105	203.613	81.2147	203.613	79.8817	203.613	81.1164	203.613	79.7581	203.613	80.9964	203.613	79.7445	203.613	80.9341	203.613	79.8082	203.613	81.0067	203.613	79.8941	203.613	81.2368	203.613	79.9444	203.613	81.555	203.613	79.9115	203.613	81.8254	203.613	79.7624	203.613	81.9075	203.613	79.4789	203.613	81.7019	203.613	79.0603	203.613	81.169	203.613	78.531	203.613	80.3383	203.613	77.9511	203.613	79.3195	203.613	77.4248	203.613	78.3007	203.613	77.091	203.613	77.5036	203.613	77.0895
210.938	81.9412	210.938	81.2946	210.938	82.3987	210.938	80.5103	210.938	82.63	210.938	79.6692	210.938	82.6043	210.938	78.9028	210.938	82.2964	210.938	78.3932	210.938	81.695	210.938	78.3053	210.938	80.8273	210.938	78.6675	210.938	79.8187	210.938	79.3422	210.938	78.9816	210.938	80.1326	210.938	78.7585	210.938	80.8839	210.938	79.2895	210.938	81.5073	210.938	80.2087	210.938	81.9649	210.938	81.0896	210.938	82.2525	210.938	81.724	210.938	82.3876	210.938	82.0796	210.938	82.4039	210.938	82.2145	210.938	82.3467	210.938	82.2241	210.938	82.2671	210.938	82.2022	210.938	82.2111
218.262	84.6322	218.262	84.0593	218.262	85.0501	218.262	83.3333	218.262	85.3112	218.262	82.462	218.262	85.4104	218.262	81.4713	218.262	85.3374	218.262	80.4268	218.262	85.0762	218.262	79.4671	218.262	84.6087	218.262	78.8153	218.262	83.9254	218.262	78.6895	218.262	83.051	218.262	79.1208	218.262	82.0954	218.262	79.9201	218.262	81.3091	218.262	80.8466	218.262	81.0143	218.262	81.7339	218.262	81.3136	218.262	82.4974	218.262	81.9652	218.262	83.1034	218.262	82.6607	218.262	83.5455	218.262	83.2312	218.262	83.8312	218.262	83.6329	218.262	83.9746	218.262	83.8783	218.262	83.9889
225.586	84.6012	225.586	84.1169	225.586	84.9365	225.586	83.48	225.586	85.1257	225.586	82.6881	225.586	85.1702	225.586	81.7447	225.586	85.0709	225.586	80.6711	225.586	84.8287	225.586	79.5335	225.586	84.4479	225.586	78.4865	225.586	83.9423	225.586	77.7955	225.586	83.3462	225.586	77.7163	225.586	82.7285	225.586	78.251	225.586	82.1959	225.586	79.1381	225.586	81.8622	225.586	80.0976	225.586	81.7813	225.586	80.9627	225.586	81.9088	225.586	81.6634	225.586	82.142	225.586	82.1829	225.586	82.3886	225.586	82.5287	225.586	82.594	225.586	82.7199	225.586	82.7306	225.586	82.7794
232.91	85.0389	232.91	84.7147	232.91	85.2279	232.91	84.2551	232.91	85.28	232.91	83.658	232.91	85.1921	232.91	82.9203	232.91	84.9609	232.91	82.0422	232.91	84.5831	232.91	81.0387	232.91	84.0595	232.91	79.9618	232.91	83.4035	232.91	78.9378	232.91	82.6587	232.91	78.1896	232.91	81.9231	232.91	77.9561	232.91	81.3538	232.91	78.2897	232.91	81.1015	232.91	78.9983	232.91	81.1904	232.91	79.8278	232.91	81.4939	232.91	80.6081	232.91	81.8458	232.91	81.2604	232.91	82.1352	232.91	81.7595	232.91	82.3154	232.91	82.1052	232.91	82.374	232.91	82.3064
241.699	84.555	241.699	84.2317	241.699	84.7784	241.699	83.8116	241.699	84.8975	241.699	83.2985	241.699	84.9061	241.699	82.6971	241.699	84.794	241.699	82.0163	241.699	84.5473	241.699	81.2742	241.699	84.1496	241.699	80.5083	241.699	83.5889	241.699	79.7868	241.699	82.8704	241.699	79.2128	241.699	82.0422	241.699	78.9002	241.699	81.2257	241.699	78.9137	241.699	80.6136	241.699	79.2194	241.699	80.3696	241.699	79.7046	241.699	80.484	241.699	80.2421	241.699	80.7904	241.699	80.7353	241.699	81.1169	241.699	81.126	241.699	81.3663	241.699	81.3871	241.699	81.5019	241.699	81.5112
250.488	84.8328	250.488	84.4877	250.488	85.0621	250.488	84.0255	250.488	85.1761	250.488	83.4436	250.488	85.174	250.488	82.739	250.488	85.053	250.488	81.9119	250.488	84.8073	250.488	80.9725	250.488	84.4283	250.488	79.9579	250.488	83.9066	250.488	78.9583	250.488	83.2403	250.488	78.142	250.488	82.4523	250.488	77.7221	250.488	81.6168	250.488	77.8151	250.488	80.8774	250.488	78.3256	250.488	80.4071	250.488	79.031	250.488	80.2898	250.488	79.7373	250.488	80.4466	250.488	80.333	250.488	80.7156	250.488	80.7714	250.488	80.9649	250.488	81.0428	250.488	81.1225	250.488	81.1549
259.277	84.0818	259.277	83.8367	259.277	84.241	259.277	83.5068	259.277	84.3139	259.277	83.0929	259.277	84.301	259.277	82.5948	259.277	84.2033	259.277	82.0117	259.277	84.0195	259.277	81.3454	259.277	83.745	259.277	80.608	259.277	83.3706	259.277	79.8344	259.277	82.8866	259.277	79.0981	259.277	82.2917	259.277	78.5186	259.277	81.6118	259.277	78.2307	259.277	80.9227	259.277	78.3052	259.277	80.3562	259.277	78.6872	259.277	80.0516	259.277	79.2328	259.277	80.0533	259.277	79.7948	259.277	80.2658	259.277	80.2689	259.277	80.5297	259.277	80.5949	259.277	80.7136	259.277	80.7444
268.066	83.8597	268.066	83.6009	268.066	84.0122	268.066	83.2383	268.066	84.0582	268.066	82.7752	268.066	83.9996	268.066	82.2157	268.066	83.84	268.066	81.5652	268.066	83.584	268.066	80.8352	268.066	83.2363	268.066	80.0535	268.066	82.8037	268.066	79.2796	268.066	82.2995	268.066	78.6178	268.066	81.7495	268.066	78.204	268.066	81.1967	268.066	78.1416	268.066	80.6974	268.066	78.4213	268.066	80.3083	268.066	78.921	268.066	80.0725	268.066	79.4853	268.066	80.0083	268.066	79.9908	268.066	80.099	268.066	80.3623	268.066	80.2859	268.066	80.5643	268.066	80.4802	268.066	80.5939
276.855	83.6618	276.855	83.4189	276.855	83.7981	276.855	83.0703	276.855	83.8317	276.855	82.6201	276.855	83.7711	276.855	82.0746	276.855	83.6271	276.855	81.4398	276.855	83.4085	276.855	80.7213	276.855	83.1182	276.855	79.9283	276.855	82.7527	276.855	79.084	276.855	82.3081	276.855	78.2464	276.855	81.7942	276.855	77.5324	276.855	81.25	276.855	77.1117	276.855	80.7481	276.855	77.1193	276.855	80.3692	276.855	77.532	276.855	80.1569	276.855	78.1754	276.855	80.0937	276.855	78.8521	276.855	80.1216	276.855	79.4288	276.855	80.1726	276.855	79.844	276.855	80.1809	276.855	80.0868
287.109	83.3068	287.109	83.1137	287.109	83.4114	287.109	82.8379	287.109	83.4214	287.109	82.4817	287.109	83.3342	287.109	82.042	287.109	83.1523	287.109	81.5134	287.109	82.8837	287.109	80.8951	287.109	82.5419	287.109	80.2017	287.109	82.1445	287.109	79.4737	287.109	81.7114	287.109	78.7856	287.109	81.2646	287.109	78.2405	287.109	80.832	287.109	77.9417	287.109	80.4564	287.109	77.9441	287.109	80.1948	287.109	78.2219	287.109	80.0933	287.109	78.6835	287.109	80.1477	287.109	79.2159	287.109	80.2914	287.109	79.719	287.109	80.4282	287.109	80.1204	287.109	80.4738	287.109	80.3768
297.363	83.971	297.363	83.6762	297.363	84.1549	297.363	83.2877	297.363	84.2157	297.363	82.824	297.363	84.1456	297.363	82.2977	297.363	83.9382	297.363	81.7094	297.363	83.5875	297.363	81.0476	297.363	83.0888	297.363	80.2988	297.363	82.4468	297.363	79.4678	297.363	81.6877	297.363	78.6093	297.363	80.8765	297.363	77.8603	297.363	80.1258	297.363	77.429	297.363	79.5721	297.363	77.4733	297.363	79.3088	297.363	77.9483	297.363	79.3323	297.363	78.6427	297.363	79.5606	297.363	79.3426	297.363	79.8848	297.363	79.9134	297.363	80.1986	297.363	80.2907	297.363	80.4104	297.363	80.4534
307.617	83.5296	307.617	83.2383	307.617	83.7205	307.617	82.8638	307.617	83.8015	307.617	82.4268	307.617	83.7693	307.617	81.9465	307.617	83.6258	307.617	81.4338	307.617	83.3736	307.617	80.8868	307.617	83.0126	307.617	80.2936	307.617	82.5368	307.617	79.6406	307.617	81.9378	307.617	78.9286	307.617	81.2179	307.617	78.197	307.617	80.4172	307.617	77.5508	307.617	79.6445	307.617	77.16	307.617	79.0755	307.617	77.1742	307.617	78.8607	307.617	77.5864	307.617	78.9928	307.617	78.2229	307.617	79.3079	307.617	78.875	307.617	79.6117	307.617	79.3936	307.617	79.766	307.617	79.6995
319.336	83.5598	319.336	83.2781	319.336	83.7267	319.336	82.8955	319.336	83.7719	319.336	82.4307	319.336	83.6951	319.336	81.9021	319.336	83.5011	319.336	81.323	319.336	83.1978	319.336	80.7007	319.336	82.7923	319.336	80.042	319.336	82.2881	319.336	79.3645	319.336	81.6847	319.336	78.709	319.336	80.9822	319.336	78.147	319.336	80.1956	319.336	77.7746	319.336	79.3814	319.336	77.6791	319.336	78.6744	319.336	77.8885	319.336	78.2904	319.336	78.3427	319.336	78.3899	319.336	78.9163	319.336	78.8791	319.336	79.4675	319.336	79.4655	319.336	79.8707	319.336	79.8904	319.336	80.0298
329.59	83.5519	329.59	83.2598	329.59	83.7255	329.59	82.8754	329.59	83.7697	329.59	82.4356	329.59	83.6895	329.59	81.9769	329.59	83.504	329.59	81.5199	329.59	83.2385	329.59	81.0574	329.59	82.9145	329.59	80.557	329.59	82.5368	329.59	79.9813	329.59	82.0871	329.59	79.3171	329.59	81.5274	329.59	78.609	329.59	80.8177	329.59	77.99	329.59	79.9511	329.59	77.6666	329.59	79.0141	329.59	77.79	329.59	78.2531	329.59	78.3009	329.59	78.0044	329.59	78.9676	329.59	78.3587	329.59	79.5538	329.59	79.0166	329.59	79.9012	329.59	79.6091	329.59	79.9261
341.309	83.598	341.309	83.3084	341.309	83.7279	341.309	82.8813	341.309	83.696	341.309	82.3574	341.309	83.5195	341.309	81.7905	341.309	83.2323	341.309	81.2359	341.309	82.879	341.309	80.7333	341.309	82.5051	341.309	80.2906	341.309	82.1416	341.309	79.883	341.309	81.7892	341.309	79.4717	341.309	81.4107	341.309	79.036	341.309	80.9443	341.309	78.6079	341.309	80.3358	341.309	78.2914	341.309	79.5908	341.309	78.2263	341.309	78.849	341.309	78.477	341.309	78.4094	341.309	78.9486	341.309	78.5098	341.309	79.4433	341.309	79.0086	341.309	79.7733	341.309	79.5325	341.309	79.8157
353.027	83.6207	353.027	83.3361	353.027	83.7396	353.027	82.9062	353.027	83.6886	353.027	82.3672	353.027	83.4784	353.027	81.7665	353.027	83.1327	353.027	81.1522	353.027	82.6869	353.027	80.5585	353.027	82.1882	353.027	79.9957	353.027	81.69	353.027	79.4542	353.027	81.237	353.027	78.9237	353.027	80.8405	353.027	78.419	353.027	80.4609	353.027	78.0033	353.027	80.0222	353.027	77.787	353.027	79.467	353.027	77.8711	353.027	78.8379	353.027	78.25	353.027	78.3425	353.027	78.7808	353.027	78.2566	353.027	79.2623	353.027	78.6126	353.027	79.5257	353.027	79.1227	353.027	79.4771
366.211	84.385	366.211	84.0686	366.211	84.5197	366.211	83.5813	366.211	84.474	366.211	82.9482	366.211	84.2571	366.211	82.2082	366.211	83.8823	366.211	81.4098	366.211	83.3682	366.211	80.6045	366.211	82.7431	366.211	79.8355	366.211	82.0531	366.211	79.1268	366.211	81.3645	366.211	78.4802	366.211	80.7509	366.211	77.8933	366.211	80.2528	366.211	77.3977	366.211	79.8389	366.211	77.0948	366.211	79.4294	366.211	77.1254	366.211	78.9871	366.211	77.5329	366.211	78.606	366.211	78.1654	366.211	78.4742	366.211	78.7722	366.211	78.6634	366.211	79.1528	366.211	78.9985	366.211	79.2173
379.395	83.6523	379.395	83.3036	379.395	83.8495	379.395	82.8413	379.395	83.8762	379.395	82.3174	379.395	83.7314	379.395	81.7848	379.395	83.4309	379.395	81.276	379.395	83.0029	379.395	80.7926	379.395	82.4827	379.395	80.312	379.395	81.9082	379.395	79.8073	379.395	81.3217	379.395	79.2633	379.395	80.7696	379.395	78.6871	379.395	80.2914	379.395	78.1232	379.395	79.8942	379.395	77.671	379.395	79.5518	379.395	77.4731	379.395	79.2606	379.395	77.6276	379.395	79.0957	379.395	78.0822	379.395	79.1435	379.395	78.657	379.395	79.3455	379.395	79.1607	379.395	79.5068	379.395	79.4617
392.578	83.604	392.578	83.2134	392.578	83.7201	392.578	82.5817	392.578	83.5625	392.578	81.7847	392.578	83.1621	392.578	80.9452	392.578	82.5788	392.578	80.2089	392.578	81.8957	392.578	79.6758	392.578	81.2052	392.578	79.3382	392.578	80.5821	392.578	79.1028	392.578	80.0538	392.578	78.8727	392.578	79.5974	392.578	78.6108	392.578	79.1774	392.578	78.3634	392.578	78.7983	392.578	78.2544	392.578	78.5294	392.578	78.4247	392.578	78.4887	392.578	78.9165	392.578	78.785	392.578	79.6133	392.578	79.405	392.578	80.3085	392.578	80.1449	392.578	80.8054	392.578	80.7275	392.578	80.9648
405.762	84.4177	405.762	84.121	405.762	84.4318	405.762	83.5482	405.762	84.1784	405.762	82.7293	405.762	83.6922	405.762	81.7209	405.762	83.0198	405.762	80.6103	405.762	82.2116	405.762	79.509	405.762	81.3223	405.762	78.526	405.762	80.4171	405.762	77.7283	405.762	79.5653	405.762	77.1257	405.762	78.8059	405.762	76.7076	405.762	78.1172	405.762	76.5066	405.762	77.4556	405.762	76.6262	405.762	76.8666	405.762	77.1604	405.762	76.5735	405.762	78.0457	405.762	76.8622	405.762	79.0441	405.762	77.741	405.762	79.881	405.762	78.8569	405.762	80.3494	405.762	79.8042	405.762	80.3321
420.41	84.9255	420.41	84.6452	420.41	84.976	420.41	84.1341	420.41	84.8176	420.41	83.4164	420.41	84.4789	420.41	82.5409	420.41	83.9852	420.41	81.5754	420.41	83.3576	420.41	80.5931	420.41	82.6224	420.41	79.6512	420.41	81.8237	420.41	78.768	420.41	81.0261	420.41	77.9166	420.41	80.2935	420.41	77.0515	420.41	79.6308	420.41	76.1802	420.41	78.9275	420.41	75.4886	420.41	77.9941	420.41	75.3997	420.41	76.7575	420.41	76.1779	420.41	75.6922	420.41	77.4547	420.41	75.8954	420.41	78.6321	420.41	77.288	420.41	79.3289	420.41	78.6473	420.41	79.3594
435.059	84.4963	435.059	84.2401	435.059	84.4919	435.059	83.7364	435.059	84.2384	435.059	83.0358	435.059	83.7625	435.059	82.2293	435.059	83.1052	435.059	81.4309	435.059	82.3313	435.059	80.7342	435.059	81.5397	435.059	80.1678	435.059	80.8555	435.059	79.6927	435.059	80.3838	435.059	79.2386	435.059	80.1405	435.059	78.7441	435.059	80.0291	435.059	78.188	435.059	79.8926	435.059	77.634	435.059	79.5811	435.059	77.2785	435.059	79.0103	435.059	77.3703	435.059	78.2568	435.059	77.9166	435.059	77.6874	435.059	78.5808	435.059	77.7592	435.059	78.9735	435.059	78.3521	435.059	78.8833
451.172	85.4971	451.172	85.1057	451.172	85.5905	451.172	84.4311	451.172	85.3875	451.172	83.5033	451.172	84.9071	451.172	82.3738	451.172	84.1762	451.172	81.1291	451.172	83.2143	451.172	79.898	451.172	82.0263	451.172	78.8236	451.172	80.6251	451.172	77.9865	451.172	79.1009	451.172	77.3501	451.172	77.7264	451.172	76.8156	451.172	76.9043	451.172	76.3618	451.172	76.7146	451.172	76.1657	451.172	76.7577	451.172	76.5238	451.172	76.7484	451.172	77.4648	451.172	76.8962	451.172	78.617	451.172	77.5778	451.172	79.5742	451.172	78.6484	451.172	80.1069	451.172	79.6035	451.172	80.1215
465.82	85.3283	465.82	85.0297	465.82	85.2835	465.82	84.3909	465.82	84.9403	465.82	83.4693	465.82	84.3714	465.82	82.3714	465.82	83.6442	465.82	81.2294	465.82	82.7977	465.82	80.1564	465.82	81.8449	465.82	79.2038	465.82	80.7896	465.82	78.3585	465.82	79.644	465.82	77.5707	465.82	78.4592	465.82	76.7761	465.82	77.373	465.82	75.9274	465.82	76.5659	465.82	75.0908	465.82	76.0212	465.82	74.6045	465.82	75.4605	465.82	74.9477	465.82	74.8304	465.82	76.0425	465.82	74.8185	465.82	77.2355	465.82	75.9199	465.82	77.9863	465.82	77.2659	465.82	78.0249
483.398	85.5354	483.398	85.3078	483.398	85.4456	483.398	84.7207	483.398	85.0931	483.398	83.7764	483.398	84.5107	483.398	82.5528	483.398	83.6998	483.398	81.2492	483.398	82.6663	483.398	80.1895	483.398	81.4735	483.398	79.6227	483.398	80.2773	483.398	79.4407	483.398	79.3203	483.398	79.2811	483.398	78.8026	483.398	78.8291	483.398	78.6318	483.398	77.9417	483.398	78.4211	483.398	76.7658	483.398	77.7866	483.398	76.041	483.398	76.5703	483.398	76.6749	483.398	75.1364	483.398	78.1731	483.398	74.896	483.398	79.4643	483.398	76.5424	483.398	80.0415	483.398	78.4998	483.398	79.7341
499.512	85.3653	499.512	85.28	499.512	85.2077	499.512	84.8829	499.512	84.8676	499.512	84.1212	499.512	84.3837	499.512	82.9802	499.512	83.7755	499.512	81.5117	499.512	83.0405	499.512	79.8974	499.512	82.1322	499.512	78.5313	499.512	80.95	499.512	77.872	499.512	79.4103	499.512	77.9097	499.512	77.7228	499.512	78.127	499.512	76.8278	499.512	78.0451	499.512	77.3767	499.512	77.4487	499.512	78.2321	499.512	76.4598	499.512	78.2673	499.512	75.8062	499.512	77.132	499.512	76.378	499.512	75.3482	499.512	77.6263	499.512	75.1399	499.512	78.4172	499.512	76.8569	499.512	78.1974
517.09	85.5645	517.09	85.4196	517.09	85.4184	517.09	84.9747	517.09	85.0048	517.09	84.2257	517.09	84.3598	517.09	83.1712	517.09	83.5359	517.09	81.8382	517.09	82.6307	517.09	80.3488	517.09	81.8026	517.09	78.9958	517.09	81.1804	517.09	78.1422	517.09	80.6942	517.09	77.8372	517.09	80.04	517.09	77.7287	517.09	78.8516	517.09	77.4552	517.09	77.0428	517.09	76.9046	517.09	75.6027	517.09	76.3288	517.09	75.9652	517.09	76.3276	517.09	76.7985	517.09	77.1202	517.09	76.7679	517.09	78.0461	517.09	76.3373	517.09	78.3868	517.09	76.7932	517.09	77.858
536.133	85.9693	536.133	85.8377	536.133	85.7655	536.133	85.3426	536.133	85.2607	536.133	84.4747	536.133	84.473	536.133	83.2391	536.133	83.3949	536.133	81.655	536.133	81.9978	536.133	79.8037	536.133	80.2412	536.133	77.9713	536.133	78.1974	536.133	76.7494	536.133	76.5454	536.133	76.4764	536.133	76.4738	536.133	76.6133	536.133	77.4181	536.133	76.4534	536.133	77.947	536.133	75.7379	536.133	77.5463	536.133	74.8367	536.133	76.4121	536.133	74.8831	536.133	75.456	536.133	76.2902	536.133	75.7888	536.133	77.8999	536.133	77.098	536.133	78.8786	536.133	78.3588	536.133	79.0195
555.176	85.8156	555.176	85.8161	555.176	85.5542	555.176	85.506	555.176	85.0839	555.176	84.845	555.176	84.4632	555.176	83.8136	555.176	83.7423	555.176	82.4181	555.176	82.9101	555.176	80.7049	555.176	81.8565	555.176	78.8418	555.176	80.4114	555.176	77.313	555.176	78.4482	555.176	76.7834	555.176	76.1962	555.176	77.1195	555.176	75.068	555.176	77.4489	555.176	76.1364	555.176	77.149	555.176	77.5091	555.176	76.104	555.176	77.756	555.176	75.1777	555.176	76.4069	555.176	76.0151	555.176	73.7132	555.176	77.7577	555.176	73.446	555.176	78.7266	555.176	76.4019	555.176	78.3492
574.219	85.9461	574.219	86.0241	574.219	85.6487	574.219	85.8418	574.219	85.181	574.219	85.3513	574.219	84.5905	574.219	84.4907	574.219	83.8924	574.219	83.1925	574.219	83.0697	574.219	81.4078	574.219	82.1024	574.219	79.1817	574.219	80.9531	574.219	76.8988	574.219	79.491	574.219	75.5518	574.219	77.4622	574.219	75.6753	574.219	74.8176	574.219	76.3276	574.219	73.5298	574.219	76.606	574.219	75.6207	574.219	76.2604	574.219	77.5134	574.219	75.7206	574.219	77.4369	574.219	76.1216	574.219	75.1889	574.219	77.555	574.219	73.644	574.219	78.6623	574.219	76.4196	574.219	78.4569
594.727	85.8924	594.727	85.8647	594.727	85.5609	594.727	85.5	594.727	84.9179	594.727	84.8672	594.727	84.0593	594.727	84.0293	594.727	83.0984	594.727	82.9962	594.727	82.1651	594.727	81.707	594.727	81.3876	594.727	80.0514	594.727	80.8014	594.727	77.9627	594.727	80.2619	594.727	75.7253	594.727	79.4459	594.727	74.5239	594.727	77.8887	594.727	75.1049	594.727	74.96	594.727	76.0437	594.727	70.7653	594.727	76.3071	594.727	72.0964	594.727	76.0446	594.727	75.6875	594.727	76.0798	594.727	76.9224	594.727	76.6508	594.727	76.2924	594.727	76.8625	594.727	75.5044	594.727	76.1592
615.234	85.8823	615.234	85.9687	615.234	85.4252	615.234	85.64	615.234	84.713	615.234	84.9361	615.234	83.877	615.234	83.9681	615.234	83.0002	615.234	82.8796	615.234	82.0984	615.234	81.7724	615.234	81.1268	615.234	80.6255	615.234	80.0073	615.234	79.3156	615.234	78.7461	615.234	77.7823	615.234	77.5449	615.234	76.2557	615.234	76.6763	615.234	75.2155	615.234	76.3149	615.234	74.6485	615.234	76.3946	615.234	73.9672	615.234	76.2173	615.234	73.2703	615.234	74.814	615.234	73.7542	615.234	71.9508	615.234	75.186	615.234	70.932	615.234	76.0107	615.234	73.5516	615.234	75.5244
637.207	86.9316	637.207	86.9277	637.207	86.6123	637.207	86.5874	637.207	86.0023	637.207	85.9113	637.207	85.1534	637.207	84.881	637.207	84.1816	637.207	83.4655	637.207	83.2499	637.207	81.7284	637.207	82.3798	637.207	80.008	637.207	81.3499	637.207	78.8129	637.207	79.9034	637.207	78.1389	637.207	78.1301	637.207	77.4496	637.207	76.8656	637.207	76.4176	637.207	76.8043	637.207	75.0663	637.207	77.1329	637.207	73.6392	637.207	77.0012	637.207	73.1936	637.207	76.0242	637.207	75.0151	637.207	74.7419	637.207	77.5929	637.207	76.0301	637.207	79.3397	637.207	78.5717	637.207	79.7503
659.18	86.0693	659.18	85.9925	659.18	85.7618	659.18	85.6233	659.18	85.0849	659.18	85.1125	659.18	84.1752	659.18	84.5467	659.18	83.2373	659.18	83.8341	659.18	82.3841	659.18	82.7656	659.18	81.5887	659.18	81.2065	659.18	80.8139	659.18	79.3317	659.18	80.0031	659.18	77.8588	659.18	78.9152	659.18	77.5178	659.18	76.9882	659.18	77.87	659.18	73.1394	659.18	77.9336	659.18	69.1611	659.18	77.0179	659.18	74.7361	659.18	74.9637	659.18	77.9659	659.18	73.836	659.18	77.6609	659.18	75.6807	659.18	73.5348	659.18	76.8832	659.18	70.5764	659.18	75.3841
682.617	87.129	682.617	87.3603	682.617	86.4008	682.617	87.0321	682.617	85.3941	682.617	86.2248	682.617	84.3929	682.617	85.1107	682.617	83.5606	682.617	83.8294	682.617	82.8703	682.617	82.3465	682.617	82.1838	682.617	80.5493	682.617	81.365	682.617	78.6346	682.617	80.4709	682.617	77.3052	682.617	79.8361	682.617	76.929	682.617	79.4781	682.617	77.0349	682.617	78.6402	682.617	77.1639	682.617	76.6994	682.617	77.0482	682.617	74.384	682.617	76.7344	682.617	73.2179	682.617	77.0248	682.617	72.0987	682.617	78.1872	682.617	72.0119	682.617	78.8783	682.617	75.2751	682.617	78.0153
707.52	87.2094	707.52	87.34	707.52	86.73	707.52	87.0705	707.52	86.0328	707.52	86.4319	707.52	85.2468	707.52	85.4672	707.52	84.434	707.52	84.1712	707.52	83.6119	707.52	82.5331	707.52	82.7414	707.52	80.6616	707.52	81.6755	707.52	78.7993	707.52	80.3502	707.52	77.1278	707.52	79.0802	707.52	75.7796	707.52	78.0478	707.52	75.1101	707.52	76.8979	707.52	74.9533	707.52	76.2032	707.52	73.8242	707.52	76.5069	707.52	70.4166	707.52	76.6373	707.52	69.4639	707.52	76.23	707.52	74.1143	707.52	76.3386	707.52	76.9876	707.52	77.4292	707.52	77.9669
732.422	87.5518	732.422	87.6335	732.422	87.0326	732.422	87.2135	732.422	86.131	732.422	86.339	732.422	84.9152	732.422	85.2166	732.422	83.6746	732.422	84.0556	732.422	82.8555	732.422	82.8439	732.422	82.4895	732.422	81.4862	732.422	82.0327	732.422	80.1044	732.422	80.8507	732.422	78.913	732.422	78.7271	732.422	77.9782	732.422	76.5313	732.422	77.6134	732.422	75.2403	732.422	78.0461	732.422	73.0976	732.422	78.3239	732.422	71.7191	732.422	77.3794	732.422	76.1604	732.422	75.2488	732.422	78.158	732.422	75.1825	732.422	76.5081	732.422	77.0677	732.422	74.584	732.422	76.7573
757.324	87.5746	757.324	88.0234	757.324	86.6937	757.324	87.8505	757.324	85.667	757.324	87.0089	757.324	84.7824	757.324	85.6516	757.324	84.1769	757.324	84.1805	757.324	83.7152	757.324	82.9193	757.324	83.1258	757.324	81.598	757.324	82.2798	757.324	79.805	757.324	81.2879	757.324	77.7728	757.324	80.2091	757.324	76.4891	757.324	78.7628	757.324	76.3549	757.324	77.4614	757.324	76.4317	757.324	77.5286	757.324	75.8824	757.324	77.028	757.324	74.9234	757.324	75.2798	757.324	75.549	757.324	73.4992	757.324	77.9611	757.324	67.6856	757.324	79.2037	757.324	71.1052	757.324	77.6202
785.156	88.0704	785.156	88.2929	785.156	87.782	785.156	88.4438	785.156	86.982	785.156	88.142	785.156	85.5484	785.156	87.0997	785.156	84.2117	785.156	85.1366	785.156	83.7393	785.156	82.2023	785.156	83.771	785.156	78.9782	785.156	83.7104	785.156	76.9995	785.156	83.2185	785.156	76.1405	785.156	82.2701	785.156	75.7175	785.156	80.8941	785.156	76.0757	785.156	78.2972	785.156	77.4324	785.156	74.2651	785.156	78.8071	785.156	75.9506	785.156	78.2939	785.156	77.7323	785.156	74.3931	785.156	76.7303	785.156	72.642	785.156	76.5997	785.156	76.0804	785.156	77.6805	785.156	77.5798
811.523	88.2331	811.523	88.2822	811.523	87.5786	811.523	87.7578	811.523	86.5473	811.523	86.896	811.523	85.4815	811.523	85.8242	811.523	84.619	811.523	84.4197	811.523	83.9511	811.523	82.6112	811.523	83.2981	811.523	80.5827	811.523	82.2891	811.523	78.6728	811.523	80.5708	811.523	77.6224	811.523	78.2249	811.523	77.922	811.523	76.2095	811.523	78.4674	811.523	75.2	811.523	78.5765	811.523	73.1987	811.523	78.8002	811.523	67.8602	811.523	78.4501	811.523	73.7251	811.523	76.7753	811.523	77.7809	811.523	75.7701	811.523	76.7857	811.523	76.9404	811.523	74.6527	811.523	76.725
840.82	87.1349	840.82	87.715	840.82	86.5045	840.82	87.8142	840.82	85.4406	840.82	87.0067	840.82	83.6334	840.82	85.3584	840.82	81.943	840.82	83.1866	840.82	80.8675	840.82	80.6606	840.82	80.1139	840.82	77.892	840.82	80.2401	840.82	75.2101	840.82	80.5962	840.82	73.2931	840.82	80.0536	840.82	73.5886	840.82	78.2069	840.82	74.6557	840.82	75.0438	840.82	75.025	840.82	72.0805	840.82	75.5644	840.82	72.118	840.82	76.4853	840.82	71.3342	840.82	76.6527	840.82	72.9205	840.82	76.5912	840.82	73.8794	840.82	76.1316	840.82	69.7307	840.82	72.2976
870.117	86.7602	870.117	86.7236	870.117	85.9258	870.117	86.3245	870.117	84.6511	870.117	85.8403	870.117	84.3491	870.117	84.9019	870.117	84.3969	870.117	83.157	870.117	83.3344	870.117	80.894	870.117	81.0425	870.117	78.6758	870.117	78.3777	870.117	75.9744	870.117	76.7925	870.117	71.0699	870.117	76.7552	870.117	67.7223	870.117	77.0731	870.117	73.8706	870.117	77.7282	870.117	76.565	870.117	77.4126	870.117	76.7638	870.117	73.2783	870.117	75.1168	870.117	56.3555	870.117	72.9486	870.117	68.7006	870.117	74.7497	870.117	69.9185	870.117	75.7396	870.117	67.3911	870.117	72.5306
900.879	86.3425	900.879	86.5156	900.879	86.3018	900.879	86.4681	900.879	85.8146	900.879	85.6322	900.879	84.5674	900.879	84.1228	900.879	83.1276	900.879	82.3146	900.879	81.8985	900.879	79.8906	900.879	80.5232	900.879	76.8711	900.879	78.8221	900.879	74.9064	900.879	77.2676	900.879	72.7403	900.879	76.6299	900.879	65.7722	900.879	75.8002	900.879	67.465	900.879	73.9016	900.879	72.3076	900.879	76.6908	900.879	74.047	900.879	79.084	900.879	74.7822	900.879	76.739	900.879	75.6775	900.879	65.3442	900.879	76.8088	900.879	70.8196	900.879	75.7927	900.879	71.6569	900.879	71.537
933.105	85.2362	933.105	85.0024	933.105	84.6332	933.105	84.0269	933.105	83.7994	933.105	82.9557	933.105	83.0518	933.105	81.8511	933.105	81.8638	933.105	79.9498	933.105	79.9884	933.105	76.8422	933.105	77.849	933.105	73.4354	933.105	75.855	933.105	71.6236	933.105	74.7914	933.105	70.5617	933.105	74.9011	933.105	68.2512	933.105	74.4772	933.105	65.1321	933.105	72.762	933.105	66.8299	933.105	69.2171	933.105	70.0355	933.105	68.8317	933.105	69.5383	933.105	73.3079	933.105	61.9529	933.105	70.4599	933.105	54.7668	933.105	61.4212	933.105	65.17	933.105	71.9583	933.105	71.1739
965.332	82.7595	965.332	83.2224	965.332	82.2192	965.332	82.6831	965.332	81.2342	965.332	80.665	965.332	78.5711	965.332	77.5323	965.332	75.0723	965.332	74.91	965.332	74.3055	965.332	73.4515	965.332	75.6197	965.332	72.6874	965.332	76.2654	965.332	72.4544	965.332	74.7918	965.332	71.2673	965.332	71.9829	965.332	68.142	965.332	72.2272	965.332	66.5492	965.332	72.5841	965.332	68.7028	965.332	72.7603	965.332	70.1193	965.332	72.4196	965.332	69.2198	965.332	69.551	965.332	67.2011	965.332	69.2172	965.332	69.082	965.332	68.7881	965.332	71.8912	965.332	68.0813	965.332	70.5654
1,000.49	82.2043	1,000.49	81.7841	1,000.49	81.5722	1,000.49	80.8777	1,000.49	79.241	1,000.49	79.4911	1,000.49	76.3641	1,000.49	77.4858	1,000.49	75.2509	1,000.49	74.7656	1,000.49	73.8666	1,000.49	71.0548	1,000.49	71.9822	1,000.49	65.3439	1,000.49	72.0385	1,000.49	53.2053	1,000.49	73.2595	1,000.49	50.0489	1,000.49	72.7862	1,000.49	50.2249	1,000.49	69.9032	1,000.49	60.5333	1,000.49	67.9294	1,000.49	57.4055	1,000.49	61.8629	1,000.49	58.6289	1,000.49	66.9145	1,000.49	67.2581	1,000.49	72.6873	1,000.49	65.4299	1,000.49	70.8754	1,000.49	60.4658	1,000.49	65.9307	1,000.49	64.0586	1,000.49	70.627	1,000.49	69.2152
1,035.64	81.1451	1,035.64	81.444	1,035.64	80.4741	1,035.64	81.188	1,035.64	78.505	1,035.64	79.688	1,035.64	75.1316	1,035.64	76.6985	1,035.64	73.9199	1,035.64	73.813	1,035.64	73.9693	1,035.64	72.8198	1,035.64	72.8043	1,035.64	72.0196	1,035.64	72.2158	1,035.64	69.688	1,035.64	73.5667	1,035.64	66.2976	1,035.64	73.6652	1,035.64	63.1333	1,035.64	71.613	1,035.64	58.6525	1,035.64	70.4479	1,035.64	51.7393	1,035.64	71.7854	1,035.64	63.4394	1,035.64	71.055	1,035.64	66.6931	1,035.64	61.4864	1,035.64	65.5358	1,035.64	64.5076	1,035.64	65.3887	1,035.64	64.1941	1,035.64	70.0843	1,035.64	67.4917	1,035.64	71.0489
1,072.27	81.1536	1,072.27	81.3119	1,072.27	79.7263	1,072.27	81.1194	1,072.27	77.0534	1,072.27	80.2705	1,072.27	76.2203	1,072.27	77.8949	1,072.27	76.5054	1,072.27	74.2788	1,072.27	76.3213	1,072.27	71.3024	1,072.27	76.1694	1,072.27	69.1809	1,072.27	75.2441	1,072.27	66.7785	1,072.27	74.6072	1,072.27	68.013	1,072.27	73.8946	1,072.27	69.5588	1,072.27	72.4304	1,072.27	69.7311	1,072.27	72.0423	1,072.27	67.2888	1,072.27	71.4099	1,072.27	49.9189	1,072.27	68.5971	1,072.27	64.9587	1,072.27	69.948	1,072.27	65.6822	1,072.27	70.9267	1,072.27	59.8231	1,072.27	63.3171	1,072.27	64.4527	1,072.27	66.9294	1,072.27	67.6062
1,108.89	81.9209	1,108.89	82.4119	1,108.89	80.1562	1,108.89	81.8497	1,108.89	77.6361	1,108.89	80.3181	1,108.89	76.6342	1,108.89	77.88	1,108.89	77.2208	1,108.89	75.1055	1,108.89	78.1724	1,108.89	72.4119	1,108.89	77.8892	1,108.89	69.902	1,108.89	76.1704	1,108.89	67.4459	1,108.89	75.0893	1,108.89	65.572	1,108.89	74.7196	1,108.89	68.4148	1,108.89	72.2668	1,108.89	71.0917	1,108.89	70.0622	1,108.89	69.3479	1,108.89	73.9129	1,108.89	65.3052	1,108.89	74.0582	1,108.89	68.202	1,108.89	65.8068	1,108.89	67.8783	1,108.89	67.4623	1,108.89	64.0021	1,108.89	66.572	1,108.89	67.5346	1,108.89	65.3205	1,108.89	69.6838
1,148.44	82.4539	1,148.44	82.8958	1,148.44	80.9405	1,148.44	82.1876	1,148.44	78.7091	1,148.44	80.7006	1,148.44	77.9357	1,148.44	79.3221	1,148.44	79.155	1,148.44	78.052	1,148.44	79.6827	1,148.44	75.3961	1,148.44	78.8853	1,148.44	70.5337	1,148.44	77.7603	1,148.44	63.4809	1,148.44	76.9099	1,148.44	50.556	1,148.44	75.6046	1,148.44	66.3385	1,148.44	72.9343	1,148.44	67.7983	1,148.44	69.9917	1,148.44	63.2195	1,148.44	70.9676	1,148.44	20.87	1,148.44	68.8137	1,148.44	66.3535	1,148.44	72.7298	1,148.44	69.5682	1,148.44	71.2416	1,148.44	68.1343	1,148.44	64.2172	1,148.44	68.3022	1,148.44	67.3444	1,148.44	68.3043
1,189.45	83.6694	1,189.45	83.7939	1,189.45	81.5898	1,189.45	82.6997	1,189.45	78.8255	1,189.45	81.168	1,189.45	78.2803	1,189.45	79.7482	1,189.45	79.5899	1,189.45	78.3327	1,189.45	81.0616	1,189.45	75.5551	1,189.45	80.2637	1,189.45	70.6974	1,189.45	78.1387	1,189.45	66.8864	1,189.45	77.1545	1,189.45	65.6065	1,189.45	77.0247	1,189.45	63.7606	1,189.45	74.3892	1,189.45	64.3247	1,189.45	66.106	1,189.45	68.6937	1,189.45	72.1557	1,189.45	67.9393	1,189.45	74.5449	1,189.45	68.8821	1,189.45	68.6405	1,189.45	68.5033	1,189.45	72.1081	1,189.45	63.2551	1,189.45	70.708	1,189.45	69.4631	1,189.45	66.7901	1,189.45	72.7947
1,230.47	83.8759	1,230.47	84.6899	1,230.47	81.8734	1,230.47	83.916	1,230.47	79.3961	1,230.47	82.3076	1,230.47	78.1887	1,230.47	80.993	1,230.47	80.3417	1,230.47	79.5625	1,230.47	80.8605	1,230.47	76.5855	1,230.47	80.0435	1,230.47	72.145	1,230.47	78.7834	1,230.47	70.4818	1,230.47	77.796	1,230.47	71.8297	1,230.47	78.2023	1,230.47	69.9475	1,230.47	77.7871	1,230.47	58.79	1,230.47	72.2326	1,230.47	62.9474	1,230.47	69.3131	1,230.47	62.5299	1,230.47	71.564	1,230.47	68.6374	1,230.47	66.7938	1,230.47	69.5627	1,230.47	68.7062	1,230.47	66.3623	1,230.47	67.9444	1,230.47	68.5604	1,230.47	69.677	1,230.47	70.0273
1,274.41	84.3002	1,274.41	84.648	1,274.41	82.778	1,274.41	84.0581	1,274.41	79.3395	1,274.41	82.0113	1,274.41	80.0229	1,274.41	78.8674	1,274.41	81.7993	1,274.41	75.6963	1,274.41	81.7139	1,274.41	75.2851	1,274.41	81.7471	1,274.41	75.1176	1,274.41	80.9509	1,274.41	72.0489	1,274.41	78.0561	1,274.41	63.8052	1,274.41	77.4627	1,274.41	66.1601	1,274.41	78.1246	1,274.41	60.0909	1,274.41	76.7911	1,274.41	63.2953	1,274.41	72.9231	1,274.41	65.2505	1,274.41	71.3454	1,274.41	63.0511	1,274.41	74.649	1,274.41	68.2482	1,274.41	71.5286	1,274.41	65.7636	1,274.41	68.3717	1,274.41	68.6277	1,274.41	69.3162	1,274.41	72.2185
1,319.82	84.2274	1,319.82	84.8394	1,319.82	82.5561	1,319.82	84.7349	1,319.82	79.4859	1,319.82	83.4219	1,319.82	79.5151	1,319.82	80.9047	1,319.82	81.5756	1,319.82	77.9232	1,319.82	82.9375	1,319.82	75.7163	1,319.82	82.6192	1,319.82	73.8877	1,319.82	81.2196	1,319.82	71.3745	1,319.82	79.2507	1,319.82	68.0542	1,319.82	78.1559	1,319.82	61.609	1,319.82	77.3985	1,319.82	64.9175	1,319.82	74.0384	1,319.82	67.3069	1,319.82	75.887	1,319.82	60.7406	1,319.82	74.06	1,319.82	66.7881	1,319.82	72.8176	1,319.82	71.5061	1,319.82	73.2291	1,319.82	69.4316	1,319.82	68.8976	1,319.82	71.1054	1,319.82	69.027	1,319.82	72.2837
1,366.7	84.2775	1,366.7	84.5108	1,366.7	82.864	1,366.7	83.7568	1,366.7	78.6176	1,366.7	82.4838	1,366.7	79.6593	1,366.7	81.087	1,366.7	83.0048	1,366.7	79.2365	1,366.7	83.3899	1,366.7	74.2617	1,366.7	83.2081	1,366.7	63.3763	1,366.7	82.5368	1,366.7	66.3319	1,366.7	79.6959	1,366.7	72.3156	1,366.7	78.3538	1,366.7	71.8798	1,366.7	80.3893	1,366.7	66.9878	1,366.7	74.856	1,366.7	59.2611	1,366.7	72.9498	1,366.7	63.8351	1,366.7	70.8298	1,366.7	69.7972	1,366.7	76.4158	1,366.7	70.2378	1,366.7	76.3482	1,366.7	69.549	1,366.7	67.2581	1,366.7	66.3714	1,366.7	71.7284	1,366.7	72.3107
1,413.57	85.5518	1,413.57	84.9059	1,413.57	83.0256	1,413.57	84.7842	1,413.57	78.1377	1,413.57	83.8071	1,413.57	80.8148	1,413.57	79.5126	1,413.57	82.9008	1,413.57	72.0133	1,413.57	85.6911	1,413.57	69.4604	1,413.57	84.6064	1,413.57	71.1059	1,413.57	81.8369	1,413.57	70.7932	1,413.57	79.1822	1,413.57	69.2527	1,413.57	76.6368	1,413.57	75.4473	1,413.57	78.5577	1,413.57	68.7056	1,413.57	78.3178	1,413.57	64.4525	1,413.57	68.794	1,413.57	58.1507	1,413.57	77.4148	1,413.57	57.6962	1,413.57	69.1936	1,413.57	72.9777	1,413.57	73.5238	1,413.57	67.6826	1,413.57	72.1431	1,413.57	50.7882	1,413.57	71.8257	1,413.57	72.4898
1,463.38	86.1937	1,463.38	85.5833	1,463.38	83.6334	1,463.38	83.8126	1,463.38	78.7284	1,463.38	83.626	1,463.38	80.1451	1,463.38	81.9261	1,463.38	83.9882	1,463.38	78.2639	1,463.38	85.4619	1,463.38	76.759	1,463.38	84.1944	1,463.38	73.2909	1,463.38	81.5701	1,463.38	75.4809	1,463.38	81.3702	1,463.38	65.7079	1,463.38	79.5806	1,463.38	72.8887	1,463.38	77.4144	1,463.38	76.1218	1,463.38	78.2749	1,463.38	63.7166	1,463.38	71.6859	1,463.38	69.3573	1,463.38	75.6781	1,463.38	58.6257	1,463.38	70.6649	1,463.38	67.9478	1,463.38	70.274	1,463.38	69.5223	1,463.38	66.7549	1,463.38	59.6341	1,463.38	73.924	1,463.38	70.2794
1,516.11	85.5909	1,516.11	86.025	1,516.11	83.6405	1,516.11	85.2944	1,516.11	76.3974	1,516.11	82.3075	1,516.11	81.2882	1,516.11	79.8587	1,516.11	84.7534	1,516.11	75.8139	1,516.11	86.2665	1,516.11	75.8413	1,516.11	85.0379	1,516.11	74.0135	1,516.11	81.9555	1,516.11	70.9436	1,516.11	80.0759	1,516.11	71.8884	1,516.11	78.4758	1,516.11	67.2739	1,516.11	75.8873	1,516.11	74.9718	1,516.11	77.5955	1,516.11	71.6877	1,516.11	71.9912	1,516.11	71.0579	1,516.11	74.4394	1,516.11	72.873	1,516.11	76.6376	1,516.11	73.8299	1,516.11	70.7962	1,516.11	68.2238	1,516.11	68.6553	1,516.11	64.8065	1,516.11	70.129	1,516.11	70.0294
1,568.85	85.8845	1,568.85	86.4791	1,568.85	82.5051	1,568.85	86.4922	1,568.85	75.2036	1,568.85	84.3559	1,568.85	80.705	1,568.85	77.8096	1,568.85	86.1347	1,568.85	69.0251	1,568.85	85.7747	1,568.85	75.4322	1,568.85	85.361	1,568.85	80.0691	1,568.85	84.1474	1,568.85	77.2349	1,568.85	81.1015	1,568.85	76.1232	1,568.85	80.6529	1,568.85	78.1411	1,568.85	80.055	1,568.85	75.6012	1,568.85	76.2831	1,568.85	76.4588	1,568.85	72.833	1,568.85	65.1823	1,568.85	74.2778	1,568.85	55.4963	1,568.85	78.7975	1,568.85	76.8323	1,568.85	76.3988	1,568.85	64.23	1,568.85	63.768	1,568.85	69.737	1,568.85	69.0671	1,568.85	74.1126
1,624.51	85.936	1,624.51	87.267	1,624.51	79.6953	1,624.51	86.2201	1,624.51	73.1607	1,624.51	83.691	1,624.51	80.9039	1,624.51	68.0353	1,624.51	87.5379	1,624.51	78.1151	1,624.51	87.267	1,624.51	80.255	1,624.51	85.4622	1,624.51	76.3048	1,624.51	84.4156	1,624.51	74.7269	1,624.51	82.0265	1,624.51	69.2503	1,624.51	79.9531	1,624.51	75.9617	1,624.51	81.863	1,624.51	78.6904	1,624.51	80.502	1,624.51	72.2627	1,624.51	74.5566	1,624.51	71.7983	1,624.51	73.4175	1,624.51	65.4428	1,624.51	76.1365	1,624.51	73.3196	1,624.51	76.8537	1,624.51	61.0866	1,624.51	66.9964	1,624.51	72.0699	1,624.51	71.8537	1,624.51	70.3179
1,681.64	85.7905	1,681.64	87.5583	1,681.64	80.8824	1,681.64	87.7176	1,681.64	73.691	1,681.64	84.086	1,681.64	81.6625	1,681.64	72.7023	1,681.64	86.0694	1,681.64	75.8622	1,681.64	88.3884	1,681.64	75.649	1,681.64	86.8048	1,681.64	77.2554	1,681.64	85.5702	1,681.64	74.3615	1,681.64	78.8969	1,681.64	77.8671	1,681.64	72.3107	1,681.64	72.3637	1,681.64	73.6349	1,681.64	70.9824	1,681.64	79.4813	1,681.64	76.878	1,681.64	73.8827	1,681.64	72.3627	1,681.64	78.1234	1,681.64	70.5963	1,681.64	69.2913	1,681.64	72.0729	1,681.64	73.1578	1,681.64	61.1923	1,681.64	65.8035	1,681.64	70.5613	1,681.64	71.903	1,681.64	73.9884
1,741.7	86.9399	1,741.7	88.6647	1,741.7	81.7006	1,741.7	87.0123	1,741.7	75.7513	1,741.7	83.4495	1,741.7	84.0754	1,741.7	68.917	1,741.7	87.6844	1,741.7	80.0213	1,741.7	88.6343	1,741.7	80.0219	1,741.7	87.9426	1,741.7	79.3239	1,741.7	84.8274	1,741.7	80.038	1,741.7	79.7747	1,741.7	78.6116	1,741.7	75.6182	1,741.7	78.0488	1,741.7	69.8428	1,741.7	74.9438	1,741.7	69.8221	1,741.7	70.5835	1,741.7	76.4991	1,741.7	72.1214	1,741.7	77.995	1,741.7	72.0341	1,741.7	67.5292	1,741.7	72.3019	1,741.7	75.558	1,741.7	61.9928	1,741.7	68.1547	1,741.7	69.3581	1,741.7	73.2617	1,741.7	67.9659
1,803.22	88.3727	1,803.22	90.4593	1,803.22	82.4828	1,803.22	88.023	1,803.22	78.291	1,803.22	79.8771	1,803.22	84.1005	1,803.22	70.7422	1,803.22	86.9041	1,803.22	80.3921	1,803.22	88.545	1,803.22	81.8748	1,803.22	88.5641	1,803.22	82.1691	1,803.22	87.2856	1,803.22	79.9987	1,803.22	82.6952	1,803.22	80.1972	1,803.22	76.4104	1,803.22	79.39	1,803.22	76.7935	1,803.22	73.7042	1,803.22	74.5975	1,803.22	74.6361	1,803.22	70.4353	1,803.22	76.8027	1,803.22	78.1128	1,803.22	74.7831	1,803.22	77.1621	1,803.22	73.3181	1,803.22	72.2756	1,803.22	65.7975	1,803.22	70.2589	1,803.22	64.6116	1,803.22	74.6087	1,803.22	74.8072
1,866.21	88.95	1,866.21	90.8667	1,866.21	83.5014	1,866.21	88.3975	1,866.21	78.1973	1,866.21	76.8112	1,866.21	83.9139	1,866.21	76.4331	1,866.21	87.7874	1,866.21	82.4114	1,866.21	88.1066	1,866.21	84.6128	1,866.21	88.9892	1,866.21	82.1885	1,866.21	86.679	1,866.21	82.639	1,866.21	85.2059	1,866.21	80.2911	1,866.21	80.3012	1,866.21	77.4318	1,866.21	74.94	1,866.21	79.6902	1,866.21	72.0381	1,866.21	75.6336	1,866.21	73.4738	1,866.21	77.0919	1,866.21	76.7266	1,866.21	76.1131	1,866.21	78.7754	1,866.21	74.54	1,866.21	74.1425	1,866.21	60.9346	1,866.21	70.939	1,866.21	69.663	1,866.21	68.76	1,866.21	74.167
1,932.13	89.7868	1,932.13	90.415	1,932.13	85.5287	1,932.13	87.2468	1,932.13	80.5559	1,932.13	74.3857	1,932.13	83.5707	1,932.13	82.2373	1,932.13	87.4582	1,932.13	85.5704	1,932.13	89.3647	1,932.13	85.1497	1,932.13	88.9646	1,932.13	85.2207	1,932.13	87.5332	1,932.13	81.6153	1,932.13	83.2148	1,932.13	79.2828	1,932.13	82.9875	1,932.13	79.1114	1,932.13	71.9641	1,932.13	78.0547	1,932.13	75.0376	1,932.13	77.3727	1,932.13	74.0436	1,932.13	76.9316	1,932.13	75.0297	1,932.13	76.8718	1,932.13	79.9257	1,932.13	75.3406	1,932.13	72.7271	1,932.13	70.554	1,932.13	73.0586	1,932.13	63.8196	1,932.13	73.8637	1,932.13	70.6609
1,999.51	91.0819	1,999.51	89.8662	1,999.51	88.3943	1,999.51	84.9655	1,999.51	82.0307	1,999.51	70.3259	1,999.51	81.439	1,999.51	84.8112	1,999.51	87.8717	1,999.51	85.9255	1,999.51	90.0766	1,999.51	86.0485	1,999.51	89.5036	1,999.51	84.1512	1,999.51	87.1784	1,999.51	84.0858	1,999.51	83.9333	1,999.51	82.2438	1,999.51	82.0017	1,999.51	79.5977	1,999.51	76.465	1,999.51	77.2239	1,999.51	75.8797	1,999.51	77.6925	1,999.51	73.0938	1,999.51	75.6988	1,999.51	75.7998	1,999.51	78.5781	1,999.51	78.1558	1,999.51	76.2556	1,999.51	71.4207	1,999.51	72.4562	1,999.51	72.0818	1,999.51	70.1716	1,999.51	75.1376	1,999.51	71.3654
2,069.82	90.3112	2,069.82	89.2766	2,069.82	88.9083	2,069.82	81.7608	2,069.82	82.9379	2,069.82	80.4244	2,069.82	78.0152	2,069.82	84.4287	2,069.82	86.3102	2,069.82	87.0336	2,069.82	90.1093	2,069.82	85.6548	2,069.82	90.1585	2,069.82	86.061	2,069.82	87.1238	2,069.82	83.137	2,069.82	84.6455	2,069.82	80.1389	2,069.82	81.2388	2,069.82	80.022	2,069.82	71.7986	2,069.82	77.7057	2,069.82	75.4485	2,069.82	76.902	2,069.82	74.3428	2,069.82	74.8302	2,069.82	72.4287	2,069.82	77.9493	2,069.82	77.4083	2,069.82	77.5559	2,069.82	69.9369	2,069.82	75.0501	2,069.82	69.3281	2,069.82	68.023	2,069.82	75.4812	2,069.82	71.3087
2,143.07	88.1947	2,143.07	87.2772	2,143.07	86.8111	2,143.07	81.7325	2,143.07	83.5705	2,143.07	81.6063	2,143.07	65.1221	2,143.07	85.5112	2,143.07	84.8986	2,143.07	87.0426	2,143.07	88.9397	2,143.07	86.8936	2,143.07	89.2341	2,143.07	84.5736	2,143.07	86.9532	2,143.07	81.9631	2,143.07	84.098	2,143.07	81.7642	2,143.07	81.8353	2,143.07	78.8232	2,143.07	75.1864	2,143.07	77.3598	2,143.07	75.3457	2,143.07	74.4649	2,143.07	75.2751	2,143.07	73.7263	2,143.07	73.4942	2,143.07	75.3579	2,143.07	73.8942	2,143.07	74.1441	2,143.07	61.7752	2,143.07	73.5966	2,143.07	65.2537	2,143.07	69.9086	2,143.07	73.7271	2,143.07	70.7346
2,219.24	87.0043	2,219.24	84.726	2,219.24	85.047	2,219.24	82.1115	2,219.24	81.9504	2,219.24	82.6381	2,219.24	80.6657	2,219.24	86.562	2,219.24	83.9011	2,219.24	86.9266	2,219.24	87.4034	2,219.24	85.3626	2,219.24	88.4913	2,219.24	83.4089	2,219.24	86.5101	2,219.24	80.771	2,219.24	82.8157	2,219.24	77.912	2,219.24	79.674	2,219.24	76.7105	2,219.24	75.7019	2,219.24	73.5915	2,219.24	74.7902	2,219.24	75.6412	2,219.24	77.4056	2,219.24	70.6917	2,219.24	74.8351	2,219.24	73.9731	2,219.24	72.7113	2,219.24	73.0892	2,219.24	57.7427	2,219.24	72.0508	2,219.24	61.2512	2,219.24	61.9783	2,219.24	70.3034	2,219.24	70.4721
2,296.88	87.4145	2,296.88	85.6188	2,296.88	85.4565	2,296.88	82.1363	2,296.88	80.7919	2,296.88	83.5056	2,296.88	82.1527	2,296.88	86.6544	2,296.88	84.9188	2,296.88	85.4838	2,296.88	86.7879	2,296.88	84.7244	2,296.88	87.496	2,296.88	80.6261	2,296.88	85.3022	2,296.88	80.6107	2,296.88	84.5223	2,296.88	76.3871	2,296.88	79.8616	2,296.88	76.0509	2,296.88	76.4055	2,296.88	72.5654	2,296.88	73.6257	2,296.88	72.6018	2,296.88	77.8757	2,296.88	70.5623	2,296.88	75.8211	2,296.88	71.5913	2,296.88	68.0929	2,296.88	71.1219	2,296.88	60.9397	2,296.88	69.2035	2,296.88	59.4449	2,296.88	67.9423	2,296.88	69.3434	2,296.88	70.2826
2,378.91	86.9719	2,378.91	85.9387	2,378.91	84.6582	2,378.91	82.3034	2,378.91	81.8345	2,378.91	84.7502	2,378.91	85.3263	2,378.91	85.3253	2,378.91	84.5333	2,378.91	85.426	2,378.91	85.0773	2,378.91	81.1934	2,378.91	86.9217	2,378.91	82.1369	2,378.91	85.9045	2,378.91	75.4672	2,378.91	84.626	2,378.91	77.6125	2,378.91	81.8323	2,378.91	74.1509	2,378.91	79.1634	2,378.91	72.7708	2,378.91	67.3892	2,378.91	68.2553	2,378.91	78.8474	2,378.91	72.0556	2,378.91	76.4084	2,378.91	67.3275	2,378.91	68.4055	2,378.91	71.6351	2,378.91	67.0737	2,378.91	67.215	2,378.91	63.8927	2,378.91	65.0405	2,378.91	68.0073	2,378.91	71.3391
2,462.4	86.9175	2,462.4	85.3817	2,462.4	84.4115	2,462.4	83.8077	2,462.4	80.3804	2,462.4	84.6253	2,462.4	86.6069	2,462.4	85.8923	2,462.4	85.0246	2,462.4	83.3944	2,462.4	83.4092	2,462.4	82.2208	2,462.4	86.5636	2,462.4	78.951	2,462.4	85.6322	2,462.4	79.6121	2,462.4	82.3839	2,462.4	76.7421	2,462.4	77.0957	2,462.4	74.8298	2,462.4	77.9339	2,462.4	74.7688	2,462.4	77.8044	2,462.4	72.7883	2,462.4	76.2686	2,462.4	71.3081	2,462.4	74.9823	2,462.4	68.3358	2,462.4	68.3745	2,462.4	69.9361	2,462.4	58.7245	2,462.4	65.5237	2,462.4	55.7235	2,462.4	65.1838	2,462.4	67.982	2,462.4	67.7894
2,548.83	87.3498	2,548.83	85.6694	2,548.83	84.9656	2,548.83	83.4556	2,548.83	78.5325	2,548.83	84.7895	2,548.83	86.2778	2,548.83	84.8961	2,548.83	85.4749	2,548.83	83.4293	2,548.83	82.5965	2,548.83	83.0823	2,548.83	85.6599	2,548.83	81.0025	2,548.83	85.1693	2,548.83	80.1002	2,548.83	82.8519	2,548.83	76.1283	2,548.83	78.864	2,548.83	76.7634	2,548.83	77.6443	2,548.83	73.8299	2,548.83	80.1242	2,548.83	72.8208	2,548.83	79.2261	2,548.83	70.4603	2,548.83	75.9974	2,548.83	69.2223	2,548.83	70.477	2,548.83	70.6163	2,548.83	63.8863	2,548.83	67.7967	2,548.83	60.0558	2,548.83	63.7671	2,548.83	68.0383	2,548.83	71.0054
2,639.65	86.8989	2,639.65	85.8144	2,639.65	85.3262	2,639.65	82.5541	2,639.65	78.5042	2,639.65	84.3099	2,639.65	85.7519	2,639.65	84.7785	2,639.65	85.7695	2,639.65	85.0841	2,639.65	80.2094	2,639.65	82.7731	2,639.65	84.5409	2,639.65	82.4512	2,639.65	84.4473	2,639.65	78.2789	2,639.65	82.9543	2,639.65	79.3346	2,639.65	77.9707	2,639.65	75.7321	2,639.65	75.4766	2,639.65	71.8734	2,639.65	75.9785	2,639.65	71.0957	2,639.65	78.1768	2,639.65	69.7376	2,639.65	72.9834	2,639.65	67.5951	2,639.65	71.9094	2,639.65	70.7431	2,639.65	65.0176	2,639.65	64.3704	2,639.65	57.8232	2,639.65	64.5975	2,639.65	67.277	2,639.65	69.615
2,731.93	87.4081	2,731.93	85.6574	2,731.93	84.9337	2,731.93	82.5334	2,731.93	80.8422	2,731.93	84.0639	2,731.93	86.4523	2,731.93	85.2282	2,731.93	85.893	2,731.93	83.892	2,731.93	78.0362	2,731.93	82.2777	2,731.93	83.0887	2,731.93	78.6212	2,731.93	83.2486	2,731.93	76.8562	2,731.93	83.5519	2,731.93	75.537	2,731.93	80.2695	2,731.93	71.6212	2,731.93	73.7027	2,731.93	72.3223	2,731.93	73.1231	2,731.93	71.6369	2,731.93	75.2721	2,731.93	67.737	2,731.93	73.7292	2,731.93	67.0409	2,731.93	70.2701	2,731.93	70.2122	2,731.93	67.5607	2,731.93	64.0969	2,731.93	58.8672	2,731.93	63.3521	2,731.93	64.3768	2,731.93	69.5059
2,828.61	88.1788	2,828.61	84.9777	2,828.61	86.2354	2,828.61	82.3045	2,828.61	80.5922	2,828.61	84.3558	2,828.61	86.4024	2,828.61	84.9434	2,828.61	85.0797	2,828.61	81.8149	2,828.61	77.0178	2,828.61	79.4198	2,828.61	81.3843	2,828.61	77.4146	2,828.61	82.3881	2,828.61	76.5313	2,828.61	83.0334	2,828.61	74.1861	2,828.61	80.5766	2,828.61	74.6038	2,828.61	69.8317	2,828.61	72.0446	2,828.61	70.6861	2,828.61	68.5616	2,828.61	74.2473	2,828.61	68.8747	2,828.61	74.8509	2,828.61	63.2408	2,828.61	69.4088	2,828.61	68.547	2,828.61	61.6403	2,828.61	67.1142	2,828.61	55.6432	2,828.61	48.151	2,828.61	59.7305	2,828.61	69.3845
2,928.22	86.831	2,928.22	83.724	2,928.22	86.304	2,928.22	81.3853	2,928.22	80.289	2,928.22	84.7888	2,928.22	85.8163	2,928.22	82.8861	2,928.22	85.58	2,928.22	80.6299	2,928.22	76.127	2,928.22	77.8316	2,928.22	80.9104	2,928.22	78.5664	2,928.22	80.5001	2,928.22	76.0729	2,928.22	80.5366	2,928.22	73.2508	2,928.22	74.8904	2,928.22	71.6037	2,928.22	67.1995	2,928.22	72.5088	2,928.22	73.9363	2,928.22	69.411	2,928.22	74.2596	2,928.22	67.9553	2,928.22	71.9168	2,928.22	64.4455	2,928.22	65.6679	2,928.22	66.7778	2,928.22	59.7956	2,928.22	67.3536	2,928.22	61.5136	2,928.22	60.1612	2,928.22	63.3852	2,928.22	64.721
3,030.76	87.2981	3,030.76	83.7818	3,030.76	85.4308	3,030.76	83.7916	3,030.76	80.6527	3,030.76	83.944	3,030.76	85.5338	3,030.76	81.9118	3,030.76	85.6118	3,030.76	79.4713	3,030.76	75.0209	3,030.76	80.4394	3,030.76	80.172	3,030.76	76.8184	3,030.76	82.9901	3,030.76	76.674	3,030.76	81.5423	3,030.76	74.7408	3,030.76	77.752	3,030.76	74.4718	3,030.76	71.4892	3,030.76	70.8394	3,030.76	76.3703	3,030.76	71.2136	3,030.76	71.9835	3,030.76	69.1597	3,030.76	71.6662	3,030.76	65.9499	3,030.76	63.9196	3,030.76	68.0985	3,030.76	55.836	3,030.76	59.116	3,030.76	59.3191	3,030.76	61.5073	3,030.76	63.909	3,030.76	63.5401
3,137.7	87.3882	3,137.7	84.6054	3,137.7	85.5068	3,137.7	85.0849	3,137.7	81.0692	3,137.7	84.1181	3,137.7	84.1672	3,137.7	82.501	3,137.7	85.5646	3,137.7	81.1632	3,137.7	77.735	3,137.7	80.1242	3,137.7	80.8002	3,137.7	76.9807	3,137.7	84.7457	3,137.7	77.196	3,137.7	82.8931	3,137.7	74.9299	3,137.7	81.343	3,137.7	72.8368	3,137.7	76.9594	3,137.7	70.795	3,137.7	75.4235	3,137.7	69.6105	3,137.7	73.2302	3,137.7	67.1732	3,137.7	68.3199	3,137.7	65.1805	3,137.7	64.2016	3,137.7	66.6815	3,137.7	61.66	3,137.7	67.696	3,137.7	57.2515	3,137.7	65.0436	3,137.7	59.5874	3,137.7	65.632
3,249.02	87.5913	3,249.02	85.4912	3,249.02	86.2488	3,249.02	86.1838	3,249.02	81.2685	3,249.02	85.6908	3,249.02	82.8409	3,249.02	83.8468	3,249.02	84.9769	3,249.02	82.4124	3,249.02	77.2075	3,249.02	78.3568	3,249.02	80.1811	3,249.02	78.3446	3,249.02	85.2017	3,249.02	75.3957	3,249.02	84.3229	3,249.02	76.744	3,249.02	82.8011	3,249.02	73.5974	3,249.02	78.1882	3,249.02	73.7283	3,249.02	76.8177	3,249.02	71.2164	3,249.02	71.8083	3,249.02	71.4286	3,249.02	64.8676	3,249.02	63.9196	3,249.02	60.3074	3,249.02	67.6722	3,249.02	63.6727	3,249.02	69.3863	3,249.02	57.315	3,249.02	56.4732	3,249.02	59.7562	3,249.02	59.0969
3,363.28	87.1802	3,363.28	86.2735	3,363.28	85.882	3,363.28	85.8471	3,363.28	83.3616	3,363.28	85.5352	3,363.28	82.7105	3,363.28	84.8701	3,363.28	85.4003	3,363.28	81.0035	3,363.28	82.4343	3,363.28	80.0544	3,363.28	81.5315	3,363.28	78.9489	3,363.28	85.7646	3,363.28	79.613	3,363.28	83.1032	3,363.28	77.6336	3,363.28	83.6718	3,363.28	73.6831	3,363.28	80.0385	3,363.28	72.0175	3,363.28	73.6359	3,363.28	69.5177	3,363.28	70.4014	3,363.28	69.265	3,363.28	68.3812	3,363.28	66.9017	3,363.28	62.7878	3,363.28	68.712	3,363.28	58.1763	3,363.28	68.5875	3,363.28	62.3722	3,363.28	63.0936	3,363.28	59.7651	3,363.28	62.8173
3,481.93	87.6771	3,481.93	86.2073	3,481.93	85.4794	3,481.93	85.4683	3,481.93	83.8489	3,481.93	85.7158	3,481.93	83.7882	3,481.93	83.7937	3,481.93	86.262	3,481.93	81.0976	3,481.93	84.6294	3,481.93	80.5976	3,481.93	81.795	3,481.93	81.8163	3,481.93	86.1935	3,481.93	77.1861	3,481.93	83.3892	3,481.93	77.0043	3,481.93	82.0805	3,481.93	75.6269	3,481.93	73.7175	3,481.93	73.6296	3,481.93	75.3492	3,481.93	71.211	3,481.93	61.469	3,481.93	70.1063	3,481.93	66.1672	3,481.93	67.9393	3,481.93	63.1495	3,481.93	69.4031	3,481.93	60.1785	3,481.93	67.6066	3,481.93	55.2538	3,481.93	64.9485	3,481.93	51.3758	3,481.93	59.3122
3,604.98	87.1455	3,604.98	85.4537	3,604.98	85.3142	3,604.98	84.8146	3,604.98	84.0153	3,604.98	85.2507	3,604.98	84.1537	3,604.98	82.352	3,604.98	85.9392	3,604.98	81.9662	3,604.98	85.6911	3,604.98	82.9522	3,604.98	81.9373	3,604.98	80.5491	3,604.98	85.9341	3,604.98	78.9918	3,604.98	82.3042	3,604.98	75.9636	3,604.98	78.3411	3,604.98	72.7203	3,604.98	69.5388	3,604.98	72.0299	3,604.98	74.5325	3,604.98	71.3764	3,604.98	60.9674	3,604.98	69.2	3,604.98	67.7061	3,604.98	67.4154	3,604.98	64.0603	3,604.98	68.5361	3,604.98	52.9657	3,604.98	69.0074	3,604.98	54.063	3,604.98	62.3135	3,604.98	53.5445	3,604.98	54.3751
3,732.42	86.629	3,732.42	84.2575	3,732.42	86.0785	3,732.42	83.6656	3,732.42	83.7419	3,732.42	84.822	3,732.42	84.7098	3,732.42	82.1465	3,732.42	87.0269	3,732.42	83.3883	3,732.42	86.0477	3,732.42	82.0601	3,732.42	81.7035	3,732.42	80.4105	3,732.42	84.8116	3,732.42	78.0694	3,732.42	82.6159	3,732.42	77.0163	3,732.42	75.7675	3,732.42	75.6111	3,732.42	70.1806	3,732.42	73.1025	3,732.42	77.2022	3,732.42	72.4134	3,732.42	69.3838	3,732.42	70.7773	3,732.42	63.5453	3,732.42	67.4655	3,732.42	50.8121	3,732.42	68.8664	3,732.42	48.7604	3,732.42	70.1145	3,732.42	58.2283	3,732.42	65.4826	3,732.42	49.7808	3,732.42	57.2
3,864.26	86.3407	3,864.26	83.259	3,864.26	85.7343	3,864.26	84.2519	3,864.26	85.4339	3,864.26	84.2148	3,864.26	83.205	3,864.26	83.3049	3,864.26	85.6433	3,864.26	84.0898	3,864.26	85.2859	3,864.26	82.8059	3,864.26	80.8737	3,864.26	81.6072	3,864.26	84.2118	3,864.26	81.5812	3,864.26	79.7902	3,864.26	78.877	3,864.26	75.7745	3,864.26	76.4216	3,864.26	69.3539	3,864.26	75.1972	3,864.26	77.5699	3,864.26	72.2261	3,864.26	68.8477	3,864.26	72.5031	3,864.26	62.6443	3,864.26	68.239	3,864.26	63.4521	3,864.26	70.5965	3,864.26	38.0574	3,864.26	72.7561	3,864.26	51.4952	3,864.26	67.9002	3,864.26	55.2056	3,864.26	60.3566
4,000.49	85.6901	4,000.49	81.9516	4,000.49	85.3239	4,000.49	82.7321	4,000.49	85.7033	4,000.49	82.054	4,000.49	84.7354	4,000.49	84.031	4,000.49	84.5723	4,000.49	82.9823	4,000.49	85.1084	4,000.49	83.6121	4,000.49	79.0382	4,000.49	83.0384	4,000.49	79.5238	4,000.49	80.8756	4,000.49	77.2748	4,000.49	76.9818	4,000.49	76.1596	4,000.49	75.5101	4,000.49	72.3886	4,000.49	73.8182	4,000.49	61.8723	4,000.49	72.0633	4,000.49	67.415	4,000.49	70.1938	4,000.49	61.6488	4,000.49	67.4384	4,000.49	61.2942	4,000.49	69.2138	4,000.49	54.6722	4,000.49	71.4439	4,000.49	48.8002	4,000.49	64.5496	4,000.49	57.1273	4,000.49	52.7533
4,141.11	85.6767	4,141.11	80.8467	4,141.11	85.5866	4,141.11	83.0083	4,141.11	85.7503	4,141.11	82.2928	4,141.11	85.2777	4,141.11	84.048	4,141.11	83.4016	4,141.11	84.1644	4,141.11	85.4526	4,141.11	84.6417	4,141.11	76.6116	4,141.11	82.0927	4,141.11	73.6379	4,141.11	80.6587	4,141.11	77.1792	4,141.11	78.6579	4,141.11	75.4192	4,141.11	74.7917	4,141.11	76.7454	4,141.11	73.7927	4,141.11	73.5103	4,141.11	71.5915	4,141.11	50.9761	4,141.11	70.3621	4,141.11	60.9724	4,141.11	66.9218	4,141.11	66.6975	4,141.11	69.5483	4,141.11	53.0245	4,141.11	70.7916	4,141.11	48.434	4,141.11	63.5265	4,141.11	48.8083	4,141.11	62.0521
4,287.6	84.5996	4,287.6	82.7187	4,287.6	86.5408	4,287.6	81.2644	4,287.6	86.2931	4,287.6	83.4432	4,287.6	86.0658	4,287.6	83.5063	4,287.6	83.591	4,287.6	85.2616	4,287.6	85.2971	4,287.6	83.7793	4,287.6	72.3392	4,287.6	82.4478	4,287.6	78.0282	4,287.6	79.813	4,287.6	81.8724	4,287.6	78.9813	4,287.6	81.4163	4,287.6	77.2126	4,287.6	74.5317	4,287.6	74.3596	4,287.6	73.7342	4,287.6	73.3447	4,287.6	60.2847	4,287.6	70.8664	4,287.6	63.9878	4,287.6	69.2503	4,287.6	66.1381	4,287.6	68.8431	4,287.6	48.456	4,287.6	69.598	4,287.6	58.1869	4,287.6	65.5587	4,287.6	54.4164	4,287.6	63.923
4,438.48	85.3111	4,438.48	81.9285	4,438.48	85.7901	4,438.48	81.1007	4,438.48	86.0599	4,438.48	83.9927	4,438.48	86.9689	4,438.48	84.342	4,438.48	83.1159	4,438.48	85.7519	4,438.48	85.2052	4,438.48	84.2697	4,438.48	76.0793	4,438.48	82.9094	4,438.48	81.3358	4,438.48	83.4648	4,438.48	81.1948	4,438.48	78.9276	4,438.48	80.9559	4,438.48	77.1238	4,438.48	72.7676	4,438.48	74.4213	4,438.48	64.0812	4,438.48	74.1521	4,438.48	51.8331	4,438.48	72.3956	4,438.48	65.8294	4,438.48	70.8867	4,438.48	65.4822	4,438.48	68.6188	4,438.48	60.6327	4,438.48	71.4542	4,438.48	58.9583	4,438.48	67.3639	4,438.48	53.9337	4,438.48	65.2107
4,595.21	85.6961	4,595.21	82.6472	4,595.21	87.3796	4,595.21	82.251	4,595.21	86.7606	4,595.21	83.8414	4,595.21	86.2961	4,595.21	84.7536	4,595.21	83.7742	4,595.21	84.847	4,595.21	84.224	4,595.21	85.9645	4,595.21	76.0654	4,595.21	84.9436	4,595.21	83.1159	4,595.21	82.4102	4,595.21	80.821	4,595.21	80.0008	4,595.21	80.3111	4,595.21	77.9355	4,595.21	66.1077	4,595.21	74.9264	4,595.21	61.9267	4,595.21	73.6589	4,595.21	63.5745	4,595.21	72.0712	4,595.21	66.5856	4,595.21	70.2018	4,595.21	66.6166	4,595.21	67.6754	4,595.21	62.8627	4,595.21	71.0852	4,595.21	56.5233	4,595.21	67.2766	4,595.21	49.3909	4,595.21	63.9917
4,756.35	85.5609	4,756.35	81.5166	4,756.35	86.8379	4,756.35	83.8215	4,756.35	87.2006	4,756.35	83.8813	4,756.35	85.7024	4,756.35	85.8248	4,756.35	82.7038	4,756.35	85.6006	4,756.35	84.3859	4,756.35	86.7451	4,756.35	79.1377	4,756.35	83.9071	4,756.35	84.1021	4,756.35	81.6317	4,756.35	80.8092	4,756.35	78.083	4,756.35	76.3715	4,756.35	75.4057	4,756.35	75.0781	4,756.35	73.7372	4,756.35	68.0353	4,756.35	72.5025	4,756.35	65.0262	4,756.35	70.1766	4,756.35	66.3718	4,756.35	70.6067	4,756.35	64.2243	4,756.35	69.5579	4,756.35	60.6426	4,756.35	70.2986	4,756.35	55.9447	4,756.35	66.3821	4,756.35	45.4016	4,756.35	63.2636
4,924.8	85.201	4,924.8	83.4663	4,924.8	86.8169	4,924.8	84.8298	4,924.8	88.1163	4,924.8	83.4155	4,924.8	85.3017	4,924.8	85.2666	4,924.8	81.6958	4,924.8	86.383	4,924.8	82.7317	4,924.8	85.7771	4,924.8	81.7364	4,924.8	83.9128	4,924.8	81.8063	4,924.8	81.8392	4,924.8	81.0921	4,924.8	80.7739	4,924.8	69.7841	4,924.8	76.2913	4,924.8	75.3915	4,924.8	75.6995	4,924.8	62.6674	4,924.8	73.1449	4,924.8	66.9889	4,924.8	71.8343	4,924.8	62.505	4,924.8	68.0797	4,924.8	64.1382	4,924.8	69.2302	4,924.8	59.6124	4,924.8	69.4427	4,924.8	59.8803	4,924.8	67.341	4,924.8	58.1567	4,924.8	62.8957
5,097.66	84.746	5,097.66	83.8092	5,097.66	87.1131	5,097.66	84.4994	5,097.66	87.5315	5,097.66	85.4644	5,097.66	87.7177	5,097.66	85.3075	5,097.66	80.3384	5,097.66	86.2647	5,097.66	81.9618	5,097.66	84.5692	5,097.66	83.758	5,097.66	85.01	5,097.66	74.9813	5,097.66	81.4549	5,097.66	79.9885	5,097.66	78.584	5,097.66	70.6633	5,097.66	75.9328	5,097.66	75.3982	5,097.66	73.2118	5,097.66	69.5074	5,097.66	71.7601	5,097.66	65.0928	5,097.66	70.0482	5,097.66	53.8767	5,097.66	68.1681	5,097.66	63.7682	5,097.66	65.8086	5,097.66	59.3835	5,097.66	69.3505	5,097.66	57.2342	5,097.66	64.3508	5,097.66	58.4966	5,097.66	63.0155
5,277.83	82.2691	5,277.83	84.1196	5,277.83	86.8782	5,277.83	85.02	5,277.83	87.332	5,277.83	85.6653	5,277.83	88.0467	5,277.83	85.8733	5,277.83	81.4939	5,277.83	85.9166	5,277.83	81.9917	5,277.83	85.0763	5,277.83	82.8396	5,277.83	82.2224	5,277.83	70.1761	5,277.83	79.1914	5,277.83	79.9191	5,277.83	74.6018	5,277.83	75.1625	5,277.83	72.6249	5,277.83	75.4576	5,277.83	70.3205	5,277.83	68.8341	5,277.83	69.3628	5,277.83	62.6869	5,277.83	68.0756	5,277.83	57.5703	5,277.83	66.6672	5,277.83	56.8044	5,277.83	63.3593	5,277.83	58.6217	5,277.83	61.8483	5,277.83	59.8079	5,277.83	64.6007	5,277.83	59.2015	5,277.83	62.7433
5,463.87	83.0812	5,463.87	84.4005	5,463.87	86.3991	5,463.87	84.2453	5,463.87	86.9851	5,463.87	86.587	5,463.87	86.9095	5,463.87	86.9489	5,463.87	83.7514	5,463.87	86.0519	5,463.87	84.4163	5,463.87	83.9273	5,463.87	80.5986	5,463.87	79.2106	5,463.87	77.7423	5,463.87	77.0206	5,463.87	77.1372	5,463.87	73.8333	5,463.87	74.4183	5,463.87	70.5513	5,463.87	71.7341	5,463.87	68.5986	5,463.87	69.5195	5,463.87	66.9565	5,463.87	54.0259	5,463.87	66.6705	5,463.87	63.5876	5,463.87	66.6042	5,463.87	64.0032	5,463.87	63.0464	5,463.87	51.5126	5,463.87	60.6084	5,463.87	60.6604	5,463.87	54.9519	5,463.87	54.8636	5,463.87	61.4271
5,657.23	84.5384	5,657.23	85.3492	5,657.23	86.2657	5,657.23	84.2359	5,657.23	86.1229	5,657.23	86.2206	5,657.23	86.3602	5,657.23	86.8161	5,657.23	82.9887	5,657.23	85.834	5,657.23	84.4375	5,657.23	82.5024	5,657.23	81.4137	5,657.23	79.9505	5,657.23	80.173	5,657.23	76.5288	5,657.23	76.7074	5,657.23	72.8976	5,657.23	77.5141	5,657.23	70.0244	5,657.23	72.7085	5,657.23	66.0859	5,657.23	72.2397	5,657.23	68.0352	5,657.23	57.5648	5,657.23	64.3799	5,657.23	63.6427	5,657.23	67.0856	5,657.23	57.0036	5,657.23	64.7472	5,657.23	56.7648	5,657.23	59.5882	5,657.23	61.1141	5,657.23	56.0859	5,657.23	56.7444	5,657.23	63.4912
5,856.45	85.0689	5,856.45	85.9494	5,856.45	85.7537	5,856.45	84.064	5,856.45	85.9677	5,856.45	86.1927	5,856.45	85.3449	5,856.45	86.0583	5,856.45	82.2113	5,856.45	84.7284	5,856.45	83.804	5,856.45	82.1571	5,856.45	80.235	5,856.45	76.7355	5,856.45	80.2172	5,856.45	73.8209	5,856.45	78.3593	5,856.45	70.103	5,856.45	76.4623	5,856.45	67.43	5,856.45	73.2132	5,856.45	66.2291	5,856.45	72.0003	5,856.45	64.2118	5,856.45	63.2218	5,856.45	64.4019	5,856.45	59.1404	5,856.45	66.1195	5,856.45	50.8588	5,856.45	65.6171	5,856.45	57.0243	5,856.45	59.6671	5,856.45	57.9409	5,856.45	51.6221	5,856.45	55.619	5,856.45	56.3457
6,062.99	85.4181	6,062.99	85.1838	6,062.99	85.4879	6,062.99	85.0673	6,062.99	84.9696	6,062.99	86.1748	6,062.99	83.9648	6,062.99	85.6339	6,062.99	82.1444	6,062.99	83.0868	6,062.99	82.3941	6,062.99	80.8165	6,062.99	81.2816	6,062.99	76.7193	6,062.99	79.1339	6,062.99	75.2195	6,062.99	79.5763	6,062.99	72.5668	6,062.99	73.1356	6,062.99	69.9222	6,062.99	70.9728	6,062.99	67.0883	6,062.99	70.6981	6,062.99	66.7481	6,062.99	64.0554	6,062.99	65.2494	6,062.99	62.716	6,062.99	66.7208	6,062.99	59.082	6,062.99	65.5872	6,062.99	60.5917	6,062.99	62.062	6,062.99	64.9978	6,062.99	52.6655	6,062.99	55.0973	6,062.99	58.6865
6,276.86	86.2637	6,276.86	86.0129	6,276.86	85.25	6,276.86	86.1928	6,276.86	84.6893	6,276.86	85.8436	6,276.86	84.7956	6,276.86	84.3004	6,276.86	83.3821	6,276.86	81.6107	6,276.86	81.8242	6,276.86	79.4896	6,276.86	80.7783	6,276.86	76.0035	6,276.86	79.5476	6,276.86	72.5319	6,276.86	79.5986	6,276.86	70.302	6,276.86	74.885	6,276.86	69.2028	6,276.86	68.1652	6,276.86	66.2605	6,276.86	69.0336	6,276.86	64.1493	6,276.86	51.8285	6,276.86	61.931	6,276.86	64.0654	6,276.86	63.2086	6,276.86	60.4758	6,276.86	65.7317	6,276.86	61.4946	6,276.86	62.2503	6,276.86	61.8992	6,276.86	47.5132	6,276.86	51.0104	6,276.86	60.2057
6,498.05	86.143	6,498.05	86.8866	6,498.05	85.1823	6,498.05	86.4686	6,498.05	83.5312	6,498.05	85.2513	6,498.05	84.543	6,498.05	82.2468	6,498.05	85.0499	6,498.05	79.8329	6,498.05	82.4257	6,498.05	78.3082	6,498.05	79.6408	6,498.05	76.2335	6,498.05	77.1492	6,498.05	74.9179	6,498.05	75.1241	6,498.05	71.7281	6,498.05	71.0694	6,498.05	68.7356	6,498.05	68.1176	6,498.05	68.7207	6,498.05	67.1004	6,498.05	65.8434	6,498.05	62.8841	6,498.05	64.8351	6,498.05	49.2825	6,498.05	64.3357	6,498.05	58.4165	6,498.05	64.3264	6,498.05	53.3061	6,498.05	64.1411	6,498.05	59.9039	6,498.05	53.1467	6,498.05	51.8584	6,498.05	59.7702
6,726.56	85.9015	6,726.56	86.2388	6,726.56	85.0622	6,726.56	86.5131	6,726.56	84.637	6,726.56	84.049	6,726.56	84.3592	6,726.56	80.0189	6,726.56	85.1533	6,726.56	78.353	6,726.56	81.4704	6,726.56	78.1666	6,726.56	77.7594	6,726.56	78.5654	6,726.56	73.298	6,726.56	74.7591	6,726.56	69.3912	6,726.56	71.9691	6,726.56	69.042	6,726.56	68.9919	6,726.56	63.2493	6,726.56	66.7555	6,726.56	66.9962	6,726.56	67.2134	6,726.56	65.26	6,726.56	64.6674	6,726.56	56.5395	6,726.56	64.9544	6,726.56	58.1662	6,726.56	64.8055	6,726.56	58.876	6,726.56	61.8523	6,726.56	59.8294	6,726.56	53.7653	6,726.56	54.2325	6,726.56	61.585
6,963.87	85.4692	6,963.87	85.9791	6,963.87	84.742	6,963.87	86.6507	6,963.87	84.3581	6,963.87	83.3956	6,963.87	86.3124	6,963.87	78.6011	6,963.87	84.3459	6,963.87	77.6206	6,963.87	79.1213	6,963.87	79.4844	6,963.87	75.3493	6,963.87	77.2917	6,963.87	66.0607	6,963.87	75.4038	6,963.87	68.1874	6,963.87	73.5007	6,963.87	69.63	6,963.87	71.1335	6,963.87	60.5189	6,963.87	67.1262	6,963.87	63.0868	6,963.87	66.827	6,963.87	59.3522	6,963.87	65.6023	6,963.87	50.1168	6,963.87	64.9722	6,963.87	39.6971	6,963.87	65.2477	6,963.87	60.6632	6,963.87	66.0567	6,963.87	59.4735	6,963.87	57.3117	6,963.87	54.6092	6,963.87	61.2873
7,209.96	84.6012	7,209.96	86.4495	7,209.96	84.2436	7,209.96	86.4519	7,209.96	84.4634	7,209.96	83.438	7,209.96	87.0405	7,209.96	77.6023	7,209.96	83.8531	7,209.96	79.0929	7,209.96	79.6093	7,209.96	78.9755	7,209.96	76.9951	7,209.96	78.2434	7,209.96	74.525	7,209.96	75.5362	7,209.96	74.0382	7,209.96	71.55	7,209.96	73.0616	7,209.96	70.4476	7,209.96	66.45	7,209.96	67.3172	7,209.96	65.181	7,209.96	67.4214	7,209.96	57.9262	7,209.96	65.6341	7,209.96	54.5958	7,209.96	63.4413	7,209.96	48.0318	7,209.96	65.4559	7,209.96	55.363	7,209.96	66.4218	7,209.96	59.5767	7,209.96	56.5472	7,209.96	49.6769	7,209.96	60.7325
7,464.84	84.9855	7,464.84	86.0316	7,464.84	83.2541	7,464.84	86.2329	7,464.84	84.8078	7,464.84	82.6586	7,464.84	86.6078	7,464.84	79.7981	7,464.84	82.4173	7,464.84	79.2828	7,464.84	81.1902	7,464.84	79.6147	7,464.84	74.9414	7,464.84	77.9732	7,464.84	80.1399	7,464.84	76.4075	7,464.84	75.8658	7,464.84	73.3513	7,464.84	73.5848	7,464.84	71.6066	7,464.84	68.1659	7,464.84	67.4796	7,464.84	56.7107	7,464.84	67.9794	7,464.84	50.7116	7,464.84	65.1441	7,464.84	56.2336	7,464.84	65.1474	7,464.84	56.1521	7,464.84	66.2188	7,464.84	48.9815	7,464.84	65.6749	7,464.84	56.3802	7,464.84	59.8238	7,464.84	50.9003	7,464.84	59.8301
7,727.05	84.4662	7,727.05	85.841	7,727.05	82.4043	7,727.05	84.5738	7,727.05	82.6297	7,727.05	82.7733	7,727.05	84.875	7,727.05	80.337	7,727.05	83.2216	7,727.05	79.1189	7,727.05	81.7035	7,727.05	78.9772	7,727.05	78.568	7,727.05	79.1186	7,727.05	81.269	7,727.05	76.4015	7,727.05	71.5391	7,727.05	73.671	7,727.05	67.779	7,727.05	70.5889	7,727.05	70.1616	7,727.05	66.2729	7,727.05	54.2792	7,727.05	65.9013	7,727.05	49.6047	7,727.05	62.127	7,727.05	57.6531	7,727.05	64.6302	7,727.05	57.0304	7,727.05	66.549	7,727.05	55.9211	7,727.05	65.6106	7,727.05	53.9679	7,727.05	54.0937	7,727.05	39.1807	7,727.05	59.8044
7,999.51	82.8035	7,999.51	84.6508	7,999.51	81.3515	7,999.51	82.324	7,999.51	83.2894	7,999.51	82.4464	7,999.51	83.5277	7,999.51	81.0847	7,999.51	82.9224	7,999.51	78.8279	7,999.51	79.6372	7,999.51	79.2281	7,999.51	80.4258	7,999.51	77.3555	7,999.51	76.0604	7,999.51	75.0581	7,999.51	66.7592	7,999.51	72.3576	7,999.51	65.4849	7,999.51	69.5149	7,999.51	65.641	7,999.51	65.8662	7,999.51	55.3952	7,999.51	65.3739	7,999.51	58.5552	7,999.51	58.66	7,999.51	55.8659	7,999.51	63.1862	7,999.51	53.4977	7,999.51	65.0865	7,999.51	60.3803	7,999.51	63.3796	7,999.51	58.9982	7,999.51	45.12	7,999.51	47.561	7,999.51	58.0145
8,282.23	81.9245	8,282.23	83.7662	8,282.23	81.2371	8,282.23	81.5035	8,282.23	83.6629	8,282.23	82.4461	8,282.23	83.0138	8,282.23	80.6932	8,282.23	80.9125	8,282.23	78.5444	8,282.23	79.0766	8,282.23	77.8445	8,282.23	80.0532	8,282.23	75.8497	8,282.23	69.6703	8,282.23	72.8758	8,282.23	65.2647	8,282.23	68.5836	8,282.23	59.5212	8,282.23	66.9245	8,282.23	62.801	8,282.23	63.3279	8,282.23	57.5384	8,282.23	62.0315	8,282.23	47.8013	8,282.23	57.7358	8,282.23	47.3152	8,282.23	60.73	8,282.23	55.1189	8,282.23	61.8172	8,282.23	56.1219	8,282.23	58.4921	8,282.23	54.0753	8,282.23	44.6613	8,282.23	47.6582	8,282.23	55.6442
8,573.73	81.8177	8,573.73	84.1044	8,573.73	81.7252	8,573.73	81.4572	8,573.73	83.0578	8,573.73	81.6406	8,573.73	82.0909	8,573.73	79.4469	8,573.73	81.4863	8,573.73	78.1925	8,573.73	80.0772	8,573.73	76.95	8,573.73	77.5057	8,573.73	73.6237	8,573.73	68.7564	8,573.73	69.7479	8,573.73	61.2395	8,573.73	65.9459	8,573.73	60.9792	8,573.73	64.2723	8,573.73	62.9156	8,573.73	59.8975	8,573.73	63.671	8,573.73	58.2677	8,573.73	52.6909	8,573.73	54.6627	8,573.73	47.3264	8,573.73	58.1823	8,573.73	51.6698	8,573.73	60.0811	8,573.73	53.7611	8,573.73	56.0737	8,573.73	53.5505	8,573.73	48.3703	8,573.73	51.8623	8,573.73	53.8955
8,876.95	82.3208	8,876.95	83.4046	8,876.95	82.1878	8,876.95	81.4113	8,876.95	82.3285	8,876.95	80.5384	8,876.95	81.2096	8,876.95	79.0491	8,876.95	81.7403	8,876.95	78.0671	8,876.95	79.5034	8,876.95	76.6284	8,876.95	72.6106	8,876.95	71.6514	8,876.95	66.0086	8,876.95	67.6292	8,876.95	57.7255	8,876.95	63.6866	8,876.95	63.1828	8,876.95	61.624	8,876.95	59.4645	8,876.95	56.5622	8,876.95	63.7959	8,876.95	57.5086	8,876.95	47.9747	8,876.95	52.5374	8,876.95	44.9372	8,876.95	57.2624	8,876.95	46.9304	8,876.95	57.912	8,876.95	46.9365	8,876.95	52.5624	8,876.95	49.7083	8,876.95	50.8105	8,876.95	50.6736	8,876.95	49.6699
9,188.96	82.6989	9,188.96	82.9401	9,188.96	83.3359	9,188.96	81.7559	9,188.96	81.1885	9,188.96	79.8585	9,188.96	80.3908	9,188.96	79.4964	9,188.96	82.5986	9,188.96	77.5889	9,188.96	77.4699	9,188.96	75.0662	9,188.96	69.8241	9,188.96	70.9183	9,188.96	67.3542	9,188.96	66.214	9,188.96	66.2993	9,188.96	62.9037	9,188.96	60.3777	9,188.96	59.7383	9,188.96	60.0199	9,188.96	55.1714	9,188.96	63.744	9,188.96	56.0465	9,188.96	50.6462	9,188.96	51.2909	9,188.96	37.8777	9,188.96	55.684	9,188.96	44.4078	9,188.96	55.1422	9,188.96	49.9965	9,188.96	47.5795	9,188.96	54.575	9,188.96	51.2062	9,188.96	52.2393	9,188.96	49.3078
9,514.16	82.6624	9,514.16	82.0433	9,514.16	83.488	9,514.16	81.5074	9,514.16	80.8905	9,514.16	79.8443	9,514.16	80.7029	9,514.16	79.1221	9,514.16	81.9365	9,514.16	76.1258	9,514.16	75.403	9,514.16	73.1705	9,514.16	73.7013	9,514.16	69.2677	9,514.16	68.8153	9,514.16	64.7776	9,514.16	66.6342	9,514.16	61.9846	9,514.16	56.7638	9,514.16	58.7744	9,514.16	56.1351	9,514.16	55.4201	9,514.16	62.7723	9,514.16	53.1226	9,514.16	48.9257	9,514.16	53.1746	9,514.16	40.7172	9,514.16	51.9966	9,514.16	46.6877	9,514.16	51.3549	9,514.16	50.0646	9,514.16	42.3544	9,514.16	52.6922	9,514.16	50.3511	9,514.16	51.7283	9,514.16	47.4212
9,849.61	82.6736	9,849.61	81.8554	9,849.61	83.0361	9,849.61	81.2547	9,849.61	80.7234	9,849.61	79.451	9,849.61	81.1029	9,849.61	78.2426	9,849.61	80.027	9,849.61	74.6909	9,849.61	74.1703	9,849.61	71.7463	9,849.61	73.1024	9,849.61	67.7429	9,849.61	70.4436	9,849.61	62.0344	9,849.61	64.0773	9,849.61	59.2953	9,849.61	57.9282	9,849.61	56.7345	9,849.61	53.287	9,849.61	50.8872	9,849.61	62.0235	9,849.61	53.1446	9,849.61	51.5798	9,849.61	49.9066	9,849.61	35.655	9,849.61	44.0257	9,849.61	47.5514	9,849.61	48.4782	9,849.61	50.9604	9,849.61	43.1477	9,849.61	50.2013	9,849.61	47.9897	9,849.61	50.1783	9,849.61	45.1203
10,196.8	82.9207	10,196.8	81.9232	10,196.8	82.7379	10,196.8	80.8639	10,196.8	80.6286	10,196.8	78.7109	10,196.8	80.9143	10,196.8	77.2098	10,196.8	78.1535	10,196.8	73.6656	10,196.8	75.8696	10,196.8	69.4549	10,196.8	70.752	10,196.8	65.6593	10,196.8	68.2531	10,196.8	57.1217	10,196.8	63.6268	10,196.8	53.5837	10,196.8	54.3382	10,196.8	51.5658	10,196.8	33.8675	10,196.8	46.3964	10,196.8	61.7899	10,196.8	48.5041	10,196.8	47.8152	10,196.8	43.8964	10,196.8	48.3766	10,196.8	44.5931	10,196.8	53.5642	10,196.8	46.9799	10,196.8	47.6839	10,196.8	42.8994	10,196.8	45.6688	10,196.8	44.0442	10,196.8	48.823	10,196.8	46.681
10,555.7	83.0681	10,555.7	82.2475	10,555.7	82.6223	10,555.7	80.8797	10,555.7	80.3899	10,555.7	78.4806	10,555.7	80.0069	10,555.7	75.6726	10,555.7	77.0774	10,555.7	72.9455	10,555.7	75.4701	10,555.7	67.1005	10,555.7	69.9057	10,555.7	61.5484	10,555.7	66.6637	10,555.7	57.2043	10,555.7	60.8885	10,555.7	51.7837	10,555.7	56.6062	10,555.7	48.9215	10,555.7	41.0806	10,555.7	44.0263	10,555.7	59.5452	10,555.7	43.9649	10,555.7	50.2025	10,555.7	40.8285	10,555.7	41.9096	10,555.7	44.0106	10,555.7	50.9512	10,555.7	46.1524	10,555.7	44.1051	10,555.7	39.034	10,555.7	32.9124	10,555.7	41.8043	10,555.7	48.6239	10,555.7	48.937
10,927.7	83.2658	10,927.7	82.369	10,927.7	82.4164	10,927.7	81.0058	10,927.7	80.2245	10,927.7	78.6632	10,927.7	79.6522	10,927.7	75.0062	10,927.7	76.5608	10,927.7	72.4588	10,927.7	75.1574	10,927.7	66.0806	10,927.7	67.0216	10,927.7	60.5391	10,927.7	65.954	10,927.7	58.2077	10,927.7	60.9013	10,927.7	54.5153	10,927.7	52.9106	10,927.7	47.6904	10,927.7	43.043	10,927.7	44.1798	10,927.7	58.4071	10,927.7	43.3456	10,927.7	48.2249	10,927.7	40.2653	10,927.7	38.5125	10,927.7	47.2663	10,927.7	46.9632	10,927.7	44.6094	10,927.7	46.1196	10,927.7	36.9788	10,927.7	33.1248	10,927.7	35.7578	10,927.7	50.3024	10,927.7	46.0754
11,313	83.4746	11,313	82.12	11,313	82.4048	11,313	80.9428	11,313	80.7151	11,313	78.5713	11,313	78.392	11,313	74.752	11,313	77.2718	11,313	71.6607	11,313	74.0985	11,313	66.5251	11,313	68.6234	11,313	61.4186	11,313	63.7399	11,313	58.5263	11,313	60.5673	11,313	54.4922	11,313	48.8809	11,313	47.658	11,313	24.5217	11,313	47.4704	11,313	58.0387	11,313	43.92	11,313	44.3715	11,313	45.2512	11,313	45.6658	11,313	46.1722	11,313	41.4501	11,313	47.4484	11,313	42.1388	11,313	41.7318	11,313	37.3347	11,313	37.2823	11,313	49.9842	11,313	43.3179
11,712.9	83.9259	11,712.9	81.8327	11,712.9	82.4965	11,712.9	80.6623	11,712.9	80.773	11,712.9	78.723	11,712.9	77.0737	11,712.9	74.7449	11,712.9	76.8937	11,712.9	71.067	11,712.9	71.9815	11,712.9	66.9241	11,712.9	68.8233	11,712.9	61.9676	11,712.9	58.3551	11,712.9	56.3719	11,712.9	58.0107	11,712.9	54.4497	11,712.9	48.8318	11,712.9	47.0544	11,712.9	30.8645	11,712.9	47.1143	11,712.9	56.6604	11,712.9	41.9572	11,712.9	43.6909	11,712.9	43.3925	11,712.9	37.7083	11,712.9	47.2639	11,712.9	35.6375	11,712.9	47.6147	11,712.9	32.3922	11,712.9	40.0458	11,712.9	36.8557	11,712.9	38.1843	11,712.9	49.0021	11,712.9	38.5725
12,126	84.0996	12,126	81.8057	12,126	82.1462	12,126	80.2597	12,126	80.1746	12,126	78.4513	12,126	76.8583	12,126	74.1356	12,126	76.6469	12,126	70.5638	12,126	70.204	12,126	66.9882	12,126	67.1372	12,126	62.3276	12,126	61.4328	12,126	55.4226	12,126	56.2319	12,126	53.179	12,126	47.8133	12,126	45.4403	12,126	34.8934	12,126	47.3257	12,126	51.7374	12,126	44.4234	12,126	50.6824	12,126	46.5293	12,126	41.7053	12,126	49.5	12,126	25.1089	12,126	47.222	12,126	24.6303	12,126	38.5909	12,126	33.7603	12,126	40.1509	12,126	47.3926	12,126	33.4541
12,553.7	83.4109	12,553.7	81.6518	12,553.7	81.9558	12,553.7	80.0528	12,553.7	79.5441	12,553.7	77.6299	12,553.7	76.2338	12,553.7	73.4371	12,553.7	74.9295	12,553.7	70.0793	12,553.7	68.8874	12,553.7	66.0247	12,553.7	67.6996	12,553.7	62.6748	12,553.7	59.176	12,553.7	55.0586	12,553.7	58.7416	12,553.7	53.7705	12,553.7	46.0599	12,553.7	45.3339	12,553.7	34.3203	12,553.7	44.5738	12,553.7	52.752	12,553.7	41.1871	12,553.7	50.4097	12,553.7	47.2205	12,553.7	44.387	12,553.7	49.8617	12,553.7	28.2728	12,553.7	47.0595	12,553.7	35.7945	12,553.7	36.4256	12,553.7	39.2755	12,553.7	35.3752	12,553.7	39.6761	12,553.7	40.03
12,996.1	82.9088	12,996.1	81.1078	12,996.1	82.2928	12,996.1	79.318	12,996.1	79.1039	12,996.1	76.9974	12,996.1	76.4322	12,996.1	72.6468	12,996.1	74.3691	12,996.1	68.8863	12,996.1	69.7501	12,996.1	64.214	12,996.1	66.8597	12,996.1	61.0162	12,996.1	60.3789	12,996.1	51.9816	12,996.1	50.4814	12,996.1	48.1123	12,996.1	48.7325	12,996.1	39.0403	12,996.1	36.1995	12,996.1	41.5192	12,996.1	54.427	12,996.1	30.6486	12,996.1	50.1196	12,996.1	47.0773	12,996.1	34.5226	12,996.1	48.4931	12,996.1	39.9729	12,996.1	44.5252	12,996.1	35.7571	12,996.1	38.6466	12,996.1	37.0588	12,996.1	42.5751	12,996.1	25.8098	12,996.1	38.9536
13,454.6	82.5792	13,454.6	80.9803	13,454.6	81.5358	13,454.6	79.2178	13,454.6	78.4	13,454.6	75.9906	13,454.6	75.8178	13,454.6	71.9187	13,454.6	74.0475	13,454.6	68.7341	13,454.6	67.5854	13,454.6	63.57	13,454.6	64.6672	13,454.6	57.3445	13,454.6	62.0359	13,454.6	50.8498	13,454.6	53.502	13,454.6	42.4429	13,454.6	46.1749	13,454.6	39.999	13,454.6	40.0385	13,454.6	27.9863	13,454.6	56.515	13,454.6	37.3217	13,454.6	53.5144	13,454.6	46.5139	13,454.6	45.32	13,454.6	43.1435	13,454.6	41.9838	13,454.6	34.3872	13,454.6	16.254	13,454.6	30.8436	13,454.6	40.022	13,454.6	41.1317	13,454.6	40.0584	13,454.6	34.5692
13,929.2	81.5706	13,929.2	80.9628	13,929.2	81.2095	13,929.2	79.006	13,929.2	78.4654	13,929.2	75.5483	13,929.2	75.4914	13,929.2	70.5732	13,929.2	72.6551	13,929.2	68.0674	13,929.2	68.2277	13,929.2	63.7637	13,929.2	62.7977	13,929.2	55.9573	13,929.2	62.1333	13,929.2	51.6322	13,929.2	44.4461	13,929.2	49.264	13,929.2	49.0937	13,929.2	43.4676	13,929.2	42.7255	13,929.2	39.3663	13,929.2	55.7839	13,929.2	39.3027	13,929.2	51.8672	13,929.2	45.6014	13,929.2	45.2396	13,929.2	35.9882	13,929.2	40.1627	13,929.2	39.8913	13,929.2	32.8608	13,929.2	33.9935	13,929.2	43.3039	13,929.2	44.4754	13,929.2	41.3634	13,929.2	37.4722
14,419.9	80.0477	14,419.9	80.3776	14,419.9	80.4574	14,419.9	78.5401	14,419.9	78.3998	14,419.9	74.7598	14,419.9	74.8124	14,419.9	69.8995	14,419.9	71.6237	14,419.9	67.6573	14,419.9	68.3958	14,419.9	62.4674	14,419.9	62.7922	14,419.9	56.4663	14,419.9	58.0524	14,419.9	50.5652	14,419.9	56.1685	14,419.9	48.6519	14,419.9	45.5378	14,419.9	38.249	14,419.9	46.155	14,419.9	39.9537	14,419.9	56.5639	14,419.9	34.5886	14,419.9	51.1172	14,419.9	41.8811	14,419.9	39.0845	14,419.9	29.7906	14,419.9	37.4356	14,419.9	39.8025	14,419.9	31.9135	14,419.9	32.1221	14,419.9	42.7134	14,419.9	43.7046	14,419.9	40.5146	14,419.9	39.5377
14,928.2	78.7084	14,928.2	79.7102	14,928.2	79.5158	14,928.2	77.7541	14,928.2	78.1781	14,928.2	73.8171	14,928.2	74.4782	14,928.2	69.6304	14,928.2	71.589	14,928.2	66.4767	14,928.2	67.2637	14,928.2	61.6432	14,928.2	64.5529	14,928.2	55.6114	14,928.2	61.0552	14,928.2	50.0925	14,928.2	51.4548	14,928.2	46.5726	14,928.2	40.5027	14,928.2	35.8121	14,928.2	43.4309	14,928.2	40.1983	14,928.2	55.8756	14,928.2	32.2916	14,928.2	51.3423	14,928.2	36.5466	14,928.2	37.8206	14,928.2	32.0481	14,928.2	37.6154	14,928.2	37.2457	14,928.2	26.8294	14,928.2	32.8852	14,928.2	40.7393	14,928.2	42.8704	14,928.2	39.1442	14,928.2	41.5226
15,455.6	78.2196	15,455.6	78.7945	15,455.6	78.4325	15,455.6	76.9533	15,455.6	77.7377	15,455.6	73.2556	15,455.6	74.2866	15,455.6	69.3877	15,455.6	71.807	15,455.6	66.5765	15,455.6	64.8691	15,455.6	61.3306	15,455.6	63.9623	15,455.6	57.0178	15,455.6	59.5884	15,455.6	51.1467	15,455.6	53.4242	15,455.6	47.6618	15,455.6	37.0727	15,455.6	33.2741	15,455.6	47.614	15,455.6	38.3831	15,455.6	56.1596	15,455.6	23.7431	15,455.6	50.7379	15,455.6	32.107	15,455.6	38.2291	15,455.6	33.6529	15,455.6	38.6951	15,455.6	33.176	15,455.6	35.4439	15,455.6	33.5565	15,455.6	39.9719	15,455.6	41.3857	15,455.6	33.0216	15,455.6	42.6856
16,000.5	78.4871	16,000.5	77.8826	16,000.5	77.9651	16,000.5	76.4805	16,000.5	77.2389	16,000.5	73.5373	16,000.5	74.257	16,000.5	68.7597	16,000.5	71.3215	16,000.5	66.0724	16,000.5	64.8737	16,000.5	61.2044	16,000.5	63.7267	16,000.5	56.8592	16,000.5	58.1515	16,000.5	50.1479	16,000.5	51.4835	16,000.5	47.1406	16,000.5	39.5509	16,000.5	36.9748	16,000.5	46.8344	16,000.5	39.6821	16,000.5	54.998	16,000.5	28.0078	16,000.5	51.6681	16,000.5	38.0493	16,000.5	36.3034	16,000.5	37.3021	16,000.5	33.7079	16,000.5	32.5021	16,000.5	39.2978	16,000.5	36.6604	16,000.5	34.2975	16,000.5	36.7972	16,000.5	25.5467	16,000.5	42.2352
16,564.5	78.1351	16,564.5	77.0363	16,564.5	77.4492	16,564.5	75.9829	16,564.5	76.6352	16,564.5	73.9721	16,564.5	74.4119	16,564.5	68.1426	16,564.5	71.5329	16,564.5	64.5932	16,564.5	66.94	16,564.5	61.3386	16,564.5	62.1351	16,564.5	56.4641	16,564.5	54.1335	16,564.5	47.8758	16,564.5	47.4707	16,564.5	43.3621	16,564.5	36.5285	16,564.5	38.4386	16,564.5	46.8991	16,564.5	36.7212	16,564.5	56.2567	16,564.5	26.1827	16,564.5	50.4986	16,564.5	36.3159	16,564.5	28.1176	16,564.5	30.8251	16,564.5	35.2567	16,564.5	19.5281	16,564.5	42.0881	16,564.5	33.2723	16,564.5	39.1555	16,564.5	25.2356	16,564.5	40.3825	16,564.5	37.6036
17,148.9	77.8267	17,148.9	77.1148	17,148.9	77.8096	17,148.9	75.7748	17,148.9	76.8114	17,148.9	74.2822	17,148.9	74.786	17,148.9	67.9623	17,148.9	72.7539	17,148.9	64.27	17,148.9	66.0872	17,148.9	61.8149	17,148.9	58.0751	17,148.9	57.0861	17,148.9	55.7528	17,148.9	52.5326	17,148.9	52.1667	17,148.9	45.3194	17,148.9	44.2763	17,148.9	44.275	17,148.9	48.9084	17,148.9	10.1891	17,148.9	58.218	17,148.9	32.649	17,148.9	51.1547	17,148.9	39.1983	17,148.9	19.4646	17,148.9	25.7546	17,148.9	34.9384	17,148.9	33.1648	17,148.9	39.2357	17,148.9	26.8517	17,148.9	37.1984	17,148.9	36.3061	17,148.9	42.3247	17,148.9	22.0227
17,752.4	77.3097	17,752.4	76.8501	17,752.4	77.8173	17,752.4	75.3867	17,752.4	76.6919	17,752.4	73.603	17,752.4	74.387	17,752.4	66.9874	17,752.4	72.1097	17,752.4	61.5106	17,752.4	64.4934	17,752.4	59.5778	17,752.4	59.6965	17,752.4	59.1271	17,752.4	54.6729	17,752.4	53.1175	17,752.4	44.169	17,752.4	45.7949	17,752.4	45.9181	17,752.4	42.2469	17,752.4	46.2209	17,752.4	34.8829	17,752.4	59.0779	17,752.4	36.4111	17,752.4	51.1374	17,752.4	38.3462	17,752.4	33.4312	17,752.4	32.5864	17,752.4	36.3144	17,752.4	35.5349	17,752.4	42.0191	17,752.4	38.9743	17,752.4	40.7577	17,752.4	40.7503	17,752.4	39.5775	17,752.4	37.4161
18,379.4	77.2331	18,379.4	77.8583	18,379.4	78.2251	18,379.4	76.3916	18,379.4	76.2537	18,379.4	72.7616	18,379.4	73.6182	18,379.4	70.2644	18,379.4	71.4409	18,379.4	63.4287	18,379.4	64.0667	18,379.4	61.4622	18,379.4	58.7879	18,379.4	59.9437	18,379.4	56.6873	18,379.4	54.1161	18,379.4	50.9463	18,379.4	44.3911	18,379.4	51.7635	18,379.4	44.555	18,379.4	46.5563	18,379.4	30.2935	18,379.4	58.9883	18,379.4	41.5376	18,379.4	51.2067	18,379.4	38.4449	18,379.4	35.5734	18,379.4	32.7797	18,379.4	40.7944	18,379.4	27.6989	18,379.4	43.1609	18,379.4	42.9513	18,379.4	43.1866	18,379.4	42.542	18,379.4	35.9535	18,379.4	36.5289
19,026.9	79.0862	19,026.9	79.8907	19,026.9	79.0862	19,026.9	77.3527	19,026.9	77.5969	19,026.9	73.9899	19,026.9	74.9053	19,026.9	72.227	19,026.9	72.1704	19,026.9	64.3737	19,026.9	67.569	19,026.9	61.1284	19,026.9	58.1268	19,026.9	59.6632	19,026.9	58.9412	19,026.9	52.8845	19,026.9	54.4087	19,026.9	40.0925	19,026.9	50.2758	19,026.9	42.2909	19,026.9	44.279	19,026.9	36.74	19,026.9	58.9106	19,026.9	38.6419	19,026.9	53.3524	19,026.9	34.3537	19,026.9	38.6858	19,026.9	32.0414	19,026.9	41.4117	19,026.9	38.598	19,026.9	42.9803	19,026.9	43.3104	19,026.9	48.2616	19,026.9	44.4537	19,026.9	43.0951	19,026.9	39.5593
19,697.8	81.6635	19,697.8	81.1506	19,697.8	80.85	19,697.8	78.2252	19,697.8	79.1237	19,697.8	76.2703	19,697.8	76.4296	19,697.8	71.2035	19,697.8	72.5556	19,697.8	60.4119	19,697.8	68.8833	19,697.8	63.8131	19,697.8	60.9177	19,697.8	63.2103	19,697.8	64.8353	19,697.8	55.6777	19,697.8	51.9757	19,697.8	49.4814	19,697.8	51.0237	19,697.8	42.3721	19,697.8	45.8585	19,697.8	42.0336	19,697.8	59.6753	19,697.8	40.3912	19,697.8	54.5507	19,697.8	42.5992	19,697.8	38.6391	19,697.8	41.1401	19,697.8	40.4768	19,697.8	45.1177	19,697.8	47.7361	19,697.8	42.8735	19,697.8	46.7771	19,697.8	42.6535	19,697.8	49.9917	19,697.8	40.4702
19,999.5	82.3871	19,999.5	81.4081	19,999.5	81.6358	19,999.5	78.7502	19,999.5	79.3298	19,999.5	76.8549	19,999.5	77.2026	19,999.5	70.5714	19,999.5	72.9293	19,999.5	57.5769	19,999.5	68.8528	19,999.5	67.8027	19,999.5	63.3971	19,999.5	62.6726	19,999.5	63.6607	19,999.5	58.4113	19,999.5	54.9328	19,999.5	51.3209	19,999.5	53.5055	19,999.5	48.1474	19,999.5	50.6974	19,999.5	43.8117	19,999.5	59.7904	19,999.5	41.6304	19,999.5	49.7735	19,999.5	48.3639	19,999.5	40.201	19,999.5	42.8167	19,999.5	36.357	19,999.5	43.7946	19,999.5	50.1835	19,999.5	47.4396	19,999.5	50.9273	19,999.5	44.336	19,999.5	49.955	19,999.5	46.7942
