"SPL Horizontal"
"On-Axis"		"10°"		"-10°"		"20°"		"-20°"		"30°"		"-30°"		"40°"		"-40°"		"50°"		"-50°"		"60°"		"-60°"		"70°"		"-70°"		"80°"		"-80°"		"90°"		"-90°"		"100°"		"-100°"		"110°"		"-110°"		"120°"		"-120°"		"130°"		"-130°"		"140°"		"-140°"		"150°"		"-150°"		"160°"		"-160°"		"170°"		"-170°"		"180°"
"Frequency / Hz"	"Sound Pressure Level / dB (re 20 µPa/V)  [2.83  V @ 1. m]"	"Frequency / Hz"	"Sound Pressure Level / dB (re 20 µPa/V)  [2.83  V @ 1. m]"	"Frequency / Hz"	"Sound Pressure Level / dB (re 20 µPa/V)  [2.83  V @ 1. m]"	"Frequency / Hz"	"Sound Pressure Level / dB (re 20 µPa/V)  [2.83  V @ 1. m]"	"Frequency / Hz"	"Sound Pressure Level / dB (re 20 µPa/V)  [2.83  V @ 1. m]"	"Frequency / Hz"	"Sound Pressure Level / dB (re 20 µPa/V)  [2.83  V @ 1. m]"	"Frequency / Hz"	"Sound Pressure Level / dB (re 20 µPa/V)  [2.83  V @ 1. m]"	"Frequency / Hz"	"Sound Pressure Level / dB (re 20 µPa/V)  [2.83  V @ 1. m]"	"Frequency / Hz"	"Sound Pressure Level / dB (re 20 µPa/V)  [2.83  V @ 1. m]"	"Frequency / Hz"	"Sound Pressure Level / dB (re 20 µPa/V)  [2.83  V @ 1. m]"	"Frequency / Hz"	"Sound Pressure Level / dB (re 20 µPa/V)  [2.83  V @ 1. m]"	"Frequency / Hz"	"Sound Pressure Level / dB (re 20 µPa/V)  [2.83  V @ 1. m]"	"Frequency / Hz"	"Sound Pressure Level / dB (re 20 µPa/V)  [2.83  V @ 1. m]"	"Frequency / Hz"	"Sound Pressure Level / dB (re 20 µPa/V)  [2.83  V @ 1. m]"	"Frequency / Hz"	"Sound Pressure Level / dB (re 20 µPa/V)  [2.83  V @ 1. m]"	"Frequency / Hz"	"Sound Pressure Level / dB (re 20 µPa/V)  [2.83  V @ 1. m]"	"Frequency / Hz"	"Sound Pressure Level / dB (re 20 µPa/V)  [2.83  V @ 1. m]"	"Frequency / Hz"	"Sound Pressure Level / dB (re 20 µPa/V)  [2.83  V @ 1. m]"	"Frequency / Hz"	"Sound Pressure Level / dB (re 20 µPa/V)  [2.83  V @ 1. m]"	"Frequency / Hz"	"Sound Pressure Level / dB (re 20 µPa/V)  [2.83  V @ 1. m]"	"Frequency / Hz"	"Sound Pressure Level / dB (re 20 µPa/V)  [2.83  V @ 1. m]"	"Frequency / Hz"	"Sound Pressure Level / dB (re 20 µPa/V)  [2.83  V @ 1. m]"	"Frequency / Hz"	"Sound Pressure Level / dB (re 20 µPa/V)  [2.83  V @ 1. m]"	"Frequency / Hz"	"Sound Pressure Level / dB (re 20 µPa/V)  [2.83  V @ 1. m]"	"Frequency / Hz"	"Sound Pressure Level / dB (re 20 µPa/V)  [2.83  V @ 1. m]"	"Frequency / Hz"	"Sound Pressure Level / dB (re 20 µPa/V)  [2.83  V @ 1. m]"	"Frequency / Hz"	"Sound Pressure Level / dB (re 20 µPa/V)  [2.83  V @ 1. m]"	"Frequency / Hz"	"Sound Pressure Level / dB (re 20 µPa/V)  [2.83  V @ 1. m]"	"Frequency / Hz"	"Sound Pressure Level / dB (re 20 µPa/V)  [2.83  V @ 1. m]"	"Frequency / Hz"	"Sound Pressure Level / dB (re 20 µPa/V)  [2.83  V @ 1. m]"	"Frequency / Hz"	"Sound Pressure Level / dB (re 20 µPa/V)  [2.83  V @ 1. m]"	"Frequency / Hz"	"Sound Pressure Level / dB (re 20 µPa/V)  [2.83  V @ 1. m]"	"Frequency / Hz"	"Sound Pressure Level / dB (re 20 µPa/V)  [2.83  V @ 1. m]"	"Frequency / Hz"	"Sound Pressure Level / dB (re 20 µPa/V)  [2.83  V @ 1. m]"	"Frequency / Hz"	"Sound Pressure Level / dB (re 20 µPa/V)  [2.83  V @ 1. m]"	"Frequency / Hz"	"Sound Pressure Level / dB (re 20 µPa/V)  [2.83  V @ 1. m]"
20.1416	62.1922	20.1416	62.1612	20.1416	62.1985	20.1416	62.1123	20.1416	62.1758	20.1416	62.0542	20.1416	62.1217	20.1416	61.9964	20.1416	62.0366	20.1416	61.949	20.1416	61.9226	20.1416	61.9203	20.1416	61.7834	20.1416	61.9156	20.1416	61.6237	20.1416	61.9346	20.1416	61.4489	20.1416	61.9701	20.1416	61.2649	20.1416	62.0078	20.1416	61.0782	20.1416	62.0283	20.1416	60.8964	20.1416	62.011	20.1416	60.7297	20.1416	61.939	20.1416	60.5917	20.1416	61.8032	20.1416	60.4992	20.1416	61.6061	20.1416	60.4703	20.1416	61.363	20.1416	60.5191	20.1416	61.1002	20.1416	60.6496	20.1416	60.8515
20.5078	62.4471	20.5078	62.4275	20.5078	62.4364	20.5078	62.383	20.5078	62.3922	20.5078	62.3212	20.5078	62.3138	20.5078	62.2513	20.5078	62.2024	20.5078	62.1828	20.5078	62.0609	20.5078	62.1242	20.5078	61.893	20.5078	62.0814	20.5078	61.7036	20.5078	62.0555	20.5078	61.4981	20.5078	62.0414	20.5078	61.283	20.5078	62.0276	20.5078	61.0661	20.5078	61.9983	20.5078	60.857	20.5078	61.9362	20.5078	60.6673	20.5078	61.8272	20.5078	60.5112	20.5078	61.6646	20.5078	60.4048	20.5078	61.4519	20.5078	60.3641	20.5078	61.2039	20.5078	60.401	20.5078	60.9456	20.5078	60.5186	20.5078	60.7074
21.9727	61.4538	21.9727	61.4619	21.9727	61.4183	21.9727	61.4459	21.9727	61.3539	21.9727	61.4104	21.9727	61.2608	21.9727	61.3611	21.9727	61.1407	21.9727	61.3041	21.9727	60.9966	21.9727	61.2448	21.9727	60.8326	21.9727	61.187	21.9727	60.6542	21.9727	61.1323	21.9727	60.4683	21.9727	61.0787	21.9727	60.2836	21.9727	61.0211	21.9727	60.1095	21.9727	60.9516	21.9727	59.9552	21.9727	60.8618	21.9727	59.8286	21.9727	60.7451	21.9727	59.7361	21.9727	60.6001	21.9727	59.6823	21.9727	60.4314	21.9727	59.6714	21.9727	60.25	21.9727	59.7064	21.9727	60.0715	21.9727	59.7881	21.9727	59.9128
23.8037	62.4606	23.8037	62.4451	23.8037	62.4544	23.8037	62.4089	23.8037	62.4259	23.8037	62.3532	23.8037	62.3755	23.8037	62.2802	23.8037	62.3039	23.8037	62.1921	23.8037	62.2128	23.8037	62.0921	23.8037	62.1044	23.8037	61.9835	23.8037	61.9817	23.8037	61.8701	23.8037	61.8484	23.8037	61.7547	23.8037	61.7085	23.8037	61.6389	23.8037	61.5662	23.8037	61.5232	23.8037	61.4253	23.8037	61.4069	23.8037	61.2898	23.8037	61.2899	23.8037	61.1634	23.8037	61.1742	23.8037	61.0508	23.8037	61.0648	23.8037	60.9579	23.8037	60.9699	23.8037	60.8912	23.8037	60.8987	23.8037	60.8571	23.8037	60.8596
25.2686	62.8863	25.2686	62.852	25.2686	62.8994	25.2686	62.7975	25.2686	62.8914	25.2686	62.7242	25.2686	62.8626	25.2686	62.6344	25.2686	62.8143	25.2686	62.5307	25.2686	62.7478	25.2686	62.4166	25.2686	62.6653	25.2686	62.2958	25.2686	62.569	25.2686	62.1721	25.2686	62.4614	25.2686	62.0486	25.2686	62.3449	25.2686	61.9277	25.2686	62.2215	25.2686	61.8108	25.2686	62.0929	25.2686	61.6987	25.2686	61.9607	25.2686	61.593	25.2686	61.8274	25.2686	61.4972	25.2686	61.6967	25.2686	61.417	25.2686	61.5749	25.2686	61.36	25.2686	61.4698	25.2686	61.3339	25.2686	61.3903	25.2686	61.3437
27.0996	63.6335	27.0996	63.6079	27.0996	63.6408	27.0996	63.5645	27.0996	63.6299	27.0996	63.5043	27.0996	63.601	27.0996	63.4287	27.0996	63.5548	27.0996	63.3397	27.0996	63.4923	27.0996	63.2396	27.0996	63.4149	27.0996	63.1313	27.0996	63.324	27.0996	63.0176	27.0996	63.222	27.0996	62.9015	27.0996	63.1113	27.0996	62.7856	27.0996	62.9952	27.0996	62.6722	27.0996	62.8765	27.0996	62.5639	27.0996	62.7584	27.0996	62.4639	27.0996	62.6438	27.0996	62.3764	27.0996	62.5356	27.0996	62.3067	27.0996	62.4376	27.0996	62.2603	27.0996	62.3542	27.0996	62.2413	27.0996	62.2906	27.0996	62.2517
29.2969	65.3029	29.2969	65.2998	29.2969	65.2911	29.2969	65.2814	29.2969	65.2656	29.2969	65.2478	29.2969	65.2275	29.2969	65.1995	29.2969	65.1784	29.2969	65.1381	29.2969	65.12	29.2969	65.0657	29.2969	65.054	29.2969	64.9851	29.2969	64.9823	29.2969	64.8996	29.2969	64.9066	29.2969	64.8125	29.2969	64.8287	29.2969	64.7268	29.2969	64.7505	29.2969	64.6452	29.2969	64.674	29.2969	64.5698	29.2969	64.6011	29.2969	64.5026	29.2969	64.5338	29.2969	64.4452	29.2969	64.474	29.2969	64.3995	29.2969	64.4236	29.2969	64.3671	29.2969	64.3845	29.2969	64.349	29.2969	64.3582	29.2969	64.3461
31.1279	66.2086	31.1279	66.1853	31.1279	66.2159	31.1279	66.1464	31.1279	66.2073	31.1279	66.0921	31.1279	66.1831	31.1279	66.0234	31.1279	66.1437	31.1279	65.9411	31.1279	66.09	31.1279	65.847	31.1279	66.0233	31.1279	65.7433	31.1279	65.9451	31.1279	65.6332	31.1279	65.8577	31.1279	65.5204	31.1279	65.7641	31.1279	65.4093	31.1279	65.6672	31.1279	65.3044	31.1279	65.5701	31.1279	65.2104	31.1279	65.4755	31.1279	65.1317	31.1279	65.3853	31.1279	65.0719	31.1279	65.3009	31.1279	65.0337	31.1279	65.2235	31.1279	65.0183	31.1279	65.1546	31.1279	65.0251	31.1279	65.0965	31.1279	65.0522
33.3252	67.7176	33.3252	67.6963	33.3252	67.729	33.3252	67.665	33.3252	67.7304	33.3252	67.6242	33.3252	67.7221	33.3252	67.574	33.3252	67.704	33.3252	67.5151	33.3252	67.6764	33.3252	67.4488	33.3252	67.6399	33.3252	67.3767	33.3252	67.5953	33.3252	67.3011	33.3252	67.5438	33.3252	67.2249	33.3252	67.4871	33.3252	67.1518	33.3252	67.427	33.3252	67.0853	33.3252	67.3655	33.3252	67.0292	33.3252	67.3041	33.3252	66.9864	33.3252	67.2443	33.3252	66.959	33.3252	67.1869	33.3252	66.9476	33.3252	67.1328	33.3252	66.9517	33.3252	67.0826	33.3252	66.9697	33.3252	67.0374	33.3252	66.9991
35.8887	68.9002	35.8887	68.8842	35.8887	68.905	35.8887	68.8572	35.8887	68.8989	35.8887	68.8192	35.8887	68.882	35.8887	68.7709	35.8887	68.855	35.8887	68.713	35.8887	68.8185	35.8887	68.6467	35.8887	68.7736	35.8887	68.5736	35.8887	68.7216	35.8887	68.4958	35.8887	68.6641	35.8887	68.4161	35.8887	68.6029	35.8887	68.3377	35.8887	68.54	35.8887	68.2641	35.8887	68.477	35.8887	68.1992	35.8887	68.4153	35.8887	68.1464	35.8887	68.3559	35.8887	68.1086	35.8887	68.2994	35.8887	68.0874	35.8887	68.2463	35.8887	68.083	35.8887	68.1974	35.8887	68.0943	35.8887	68.1543	35.8887	68.119
38.4521	70.4044	38.4521	70.394	38.4521	70.4055	38.4521	70.3738	38.4521	70.3975	38.4521	70.344	38.4521	70.381	38.4521	70.3047	38.4521	70.3565	38.4521	70.2564	38.4521	70.325	38.4521	70.2002	38.4521	70.2873	38.4521	70.1376	38.4521	70.2445	38.4521	70.0706	38.4521	70.1979	38.4521	70.0018	38.4521	70.1488	38.4521	69.9346	38.4521	70.0987	38.4521	69.8725	38.4521	70.049	38.4521	69.819	38.4521	70.0005	38.4521	69.777	38.4521	69.9542	38.4521	69.7487	38.4521	69.9103	38.4521	69.7347	38.4521	69.8692	38.4521	69.7346	38.4521	69.8312	38.4521	69.7465	38.4521	69.797	38.4521	69.7681
41.3818	72.2685	41.3818	72.2711	41.3818	72.2587	41.3818	72.2662	41.3818	72.2421	41.3818	72.2536	41.3818	72.2193	41.3818	72.2333	41.3818	72.191	41.3818	72.2054	41.3818	72.1582	41.3818	72.1704	41.3818	72.122	41.3818	72.1289	41.3818	72.0834	41.3818	72.082	41.3818	72.0438	41.3818	72.0315	41.3818	72.0042	41.3818	71.9791	41.3818	71.9657	41.3818	71.9272	41.3818	71.929	41.3818	71.8783	41.3818	71.8945	41.3818	71.8348	41.3818	71.8623	41.3818	71.7988	41.3818	71.8327	41.3818	71.7721	41.3818	71.806	41.3818	71.7557	41.3818	71.783	41.3818	71.7497	41.3818	71.7648	41.3818	71.7532
44.3115	73.1643	44.3115	73.1589	44.3115	73.1649	44.3115	73.1487	44.3115	73.1607	44.3115	73.1339	44.3115	73.1519	44.3115	73.1147	44.3115	73.1385	44.3115	73.0915	44.3115	73.1208	44.3115	73.065	44.3115	73.0992	44.3115	73.0359	44.3115	73.0742	44.3115	73.0054	44.3115	73.0465	44.3115	72.9745	44.3115	73.0169	44.3115	72.9446	44.3115	72.9864	44.3115	72.9171	44.3115	72.9562	44.3115	72.8931	44.3115	72.9275	44.3115	72.8731	44.3115	72.9013	44.3115	72.8576	44.3115	72.8789	44.3115	72.8464	44.3115	72.861	44.3115	72.8391	44.3115	72.8479	44.3115	72.8354	44.3115	72.8395	44.3115	72.8355
47.2412	73.9196	47.2412	73.9038	47.2412	73.9354	47.2412	73.8884	47.2412	73.951	47.2412	73.8739	47.2412	73.9661	47.2412	73.8608	47.2412	73.9808	47.2412	73.8495	47.2412	73.9947	47.2412	73.8407	47.2412	74.008	47.2412	73.8347	47.2412	74.0206	47.2412	73.8322	47.2412	74.0323	47.2412	73.8337	47.2412	74.043	47.2412	73.8396	47.2412	74.0525	47.2412	73.8503	47.2412	74.0604	47.2412	73.8661	47.2412	74.0661	47.2412	73.8866	47.2412	74.0691	47.2412	73.9111	47.2412	74.0686	47.2412	73.9383	47.2412	74.0637	47.2412	73.9665	47.2412	74.0538	47.2412	73.9938	47.2412	74.0386	47.2412	74.0183
50.9033	75.7846	50.9033	75.7892	50.9033	75.7735	50.9033	75.787	50.9033	75.7567	50.9033	75.778	50.9033	75.7349	50.9033	75.7624	50.9033	75.7092	50.9033	75.7408	50.9033	75.6807	50.9033	75.7141	50.9033	75.6505	50.9033	75.6835	50.9033	75.6196	50.9033	75.6504	50.9033	75.589	50.9033	75.6161	50.9033	75.5595	50.9033	75.5822	50.9033	75.5318	50.9033	75.55	50.9033	75.5065	50.9033	75.5205	50.9033	75.484	50.9033	75.4946	50.9033	75.4646	50.9033	75.4727	50.9033	75.4488	50.9033	75.4549	50.9033	75.437	50.9033	75.4413	50.9033	75.4293	50.9033	75.4319	50.9033	75.4258	50.9033	75.4268
54.5654	76.9479	54.5654	76.9633	54.5654	76.9223	54.5654	76.968	54.5654	76.8871	54.5654	76.9621	54.5654	76.8436	54.5654	76.9459	54.5654	76.7932	54.5654	76.9203	54.5654	76.7378	54.5654	76.8865	54.5654	76.6794	54.5654	76.8459	54.5654	76.6204	54.5654	76.8	54.5654	76.5628	54.5654	76.7507	54.5654	76.5089	54.5654	76.6997	54.5654	76.4606	54.5654	76.6486	54.5654	76.4194	54.5654	76.5991	54.5654	76.3866	54.5654	76.5521	54.5654	76.3629	54.5654	76.5087	54.5654	76.3487	54.5654	76.4692	54.5654	76.3439	54.5654	76.4342	54.5654	76.348	54.5654	76.4039	54.5654	76.36	54.5654	76.3789
58.2275	77.7519	58.2275	77.7672	58.2275	77.7256	58.2275	77.7719	58.2275	77.6886	58.2275	77.7666	58.2275	77.6411	58.2275	77.7523	58.2275	77.5841	58.2275	77.73	58.2275	77.5188	58.2275	77.7013	58.2275	77.4471	58.2275	77.6674	58.2275	77.3714	58.2275	77.6297	58.2275	77.2949	58.2275	77.5892	58.2275	77.2211	58.2275	77.5469	58.2275	77.1538	58.2275	77.5031	58.2275	77.0969	58.2275	77.458	58.2275	77.0541	58.2275	77.4113	58.2275	77.0282	58.2275	77.3625	58.2275	77.0208	58.2275	77.3112	58.2275	77.0318	58.2275	77.2575	58.2275	77.0592	58.2275	77.2027	58.2275	77.0996	58.2275	77.1488
62.6221	78.8935	62.6221	78.8819	62.6221	78.8945	62.6221	78.8599	62.6221	78.885	62.6221	78.8275	62.6221	78.865	62.6221	78.7851	62.6221	78.8346	62.6221	78.7332	62.6221	78.794	62.6221	78.6726	62.6221	78.7439	62.6221	78.6043	62.6221	78.6849	62.6221	78.53	62.6221	78.6182	62.6221	78.4517	62.6221	78.5453	62.6221	78.372	62.6221	78.4682	62.6221	78.2938	62.6221	78.3891	62.6221	78.2202	62.6221	78.3109	62.6221	78.1542	62.6221	78.2363	62.6221	78.0986	62.6221	78.1685	62.6221	78.0555	62.6221	78.1104	62.6221	78.0265	62.6221	78.0642	62.6221	78.0127	62.6221	78.0318	62.6221	78.0145
67.0166	79.373	67.0166	79.3529	67.0166	79.3873	67.0166	79.3277	67.0166	79.3956	67.0166	79.2985	67.0166	79.3979	67.0166	79.2666	67.0166	79.3946	67.0166	79.2337	67.0166	79.3862	67.0166	79.2015	67.0166	79.3734	67.0166	79.1718	67.0166	79.3569	67.0166	79.1462	67.0166	79.3373	67.0166	79.1257	67.0166	79.3154	67.0166	79.1111	67.0166	79.2919	67.0166	79.1023	67.0166	79.2679	67.0166	79.0989	67.0166	79.2442	67.0166	79.1	67.0166	79.2218	67.0166	79.1044	67.0166	79.2011	67.0166	79.1112	67.0166	79.1827	67.0166	79.1196	67.0166	79.1665	67.0166	79.1293	67.0166	79.1525	67.0166	79.1402
71.7773	80.1177	71.7773	80.118	71.7773	80.108	71.7773	80.1078	71.7773	80.0896	71.7773	80.0867	71.7773	80.063	71.7773	80.054	71.7773	80.0288	71.7773	80.0098	71.7773	79.9869	71.7773	79.9548	71.7773	79.9376	71.7773	79.8902	71.7773	79.8807	71.7773	79.8181	71.7773	79.8169	71.7773	79.7411	71.7773	79.7472	71.7773	79.6624	71.7773	79.6735	71.7773	79.5854	71.7773	79.5985	71.7773	79.5134	71.7773	79.5256	71.7773	79.4491	71.7773	79.4584	71.7773	79.3947	71.7773	79.4003	71.7773	79.3514	71.7773	79.3538	71.7773	79.32	71.7773	79.3203	71.7773	79.3008	71.7773	79.3005	71.7773	79.2942
76.9043	80.7017	76.9043	80.6884	76.9043	80.7159	76.9043	80.6767	76.9043	80.7291	76.9043	80.6671	76.9043	80.7394	76.9043	80.659	76.9043	80.7448	76.9043	80.6512	76.9043	80.7433	76.9043	80.642	76.9043	80.7337	76.9043	80.6295	76.9043	80.7156	76.9043	80.6122	76.9043	80.6893	76.9043	80.5889	76.9043	80.6559	76.9043	80.5596	76.9043	80.6174	76.9043	80.5251	76.9043	80.5759	76.9043	80.4872	76.9043	80.5335	76.9043	80.449	76.9043	80.4922	76.9043	80.4137	76.9043	80.4536	76.9043	80.3847	76.9043	80.4192	76.9043	80.3647	76.9043	80.3906	76.9043	80.3554	76.9043	80.3694	76.9043	80.3572
82.3975	80.9597	82.3975	80.8983	82.3975	81.0172	82.3975	80.8346	82.3975	81.0685	82.3975	80.7704	82.3975	81.1118	82.3975	80.7071	82.3975	81.1448	82.3975	80.6461	82.3975	81.1657	82.3975	80.5881	82.3975	81.1724	82.3975	80.534	82.3975	81.1634	82.3975	80.4839	82.3975	81.1376	82.3975	80.4382	82.3975	81.0946	82.3975	80.397	82.3975	81.0351	82.3975	80.3604	82.3975	80.9608	82.3975	80.3291	82.3975	80.8745	82.3975	80.3045	82.3975	80.7801	82.3975	80.2885	82.3975	80.6824	82.3975	80.2837	82.3975	80.5867	82.3975	80.2928	82.3975	80.4984	82.3975	80.3183	82.3975	80.4222	82.3975	80.3615
88.2568	81.4443	88.2568	81.4313	88.2568	81.4554	88.2568	81.4167	88.2568	81.4649	88.2568	81.4018	88.2568	81.4741	88.2568	81.3887	88.2568	81.4846	88.2568	81.3798	88.2568	81.4984	88.2568	81.3777	88.2568	81.5169	88.2568	81.3844	88.2568	81.5411	88.2568	81.4011	88.2568	81.5708	88.2568	81.4275	88.2568	81.6047	88.2568	81.4619	88.2568	81.6408	88.2568	81.5017	88.2568	81.6763	88.2568	81.5439	88.2568	81.7084	88.2568	81.5856	88.2568	81.7346	88.2568	81.6248	88.2568	81.7529	88.2568	81.6603	88.2568	81.7623	88.2568	81.6915	88.2568	81.7626	88.2568	81.718	88.2568	81.7546	88.2568	81.7394
94.8486	82.8278	94.8486	82.8389	94.8486	82.7955	94.8486	82.8302	94.8486	82.7417	94.8486	82.8042	94.8486	82.6674	94.8486	82.7642	94.8486	82.5748	94.8486	82.7143	94.8486	82.4675	94.8486	82.6587	94.8486	82.3502	94.8486	82.6015	94.8486	82.2291	94.8486	82.5464	94.8486	82.1115	94.8486	82.4961	94.8486	82.0055	94.8486	82.4521	94.8486	81.9186	94.8486	82.4141	94.8486	81.857	94.8486	82.3805	94.8486	81.8245	94.8486	82.3482	94.8486	81.8217	94.8486	82.3135	94.8486	81.8463	94.8486	82.2727	94.8486	81.8931	94.8486	82.2233	94.8486	81.9554	94.8486	82.1644	94.8486	82.0258	94.8486	82.0974
101.44	82.0834	101.44	82.1087	101.44	82.0484	101.44	82.1206	101.44	82.0086	101.44	82.117	101.44	81.9696	101.44	82.0972	101.44	81.9367	101.44	82.0632	101.44	81.9153	101.44	82.0186	101.44	81.9097	101.44	81.9696	101.44	81.9231	101.44	81.9239	101.44	81.9574	101.44	81.8908	101.44	82.0132	101.44	81.8797	101.44	82.0887	101.44	81.8985	101.44	82.1805	101.44	81.9515	101.44	82.2823	101.44	82.0374	101.44	82.3857	101.44	82.1489	101.44	82.4801	101.44	82.2733	101.44	82.5545	101.44	82.3949	101.44	82.5987	101.44	82.4983	101.44	82.6053	101.44	82.5711
108.765	83.3277	108.765	83.3356	108.765	83.3026	108.765	83.3267	108.765	83.2607	108.765	83.3016	108.765	83.2034	108.765	83.2616	108.765	83.1323	108.765	83.2085	108.765	83.05	108.765	83.1442	108.765	82.9594	108.765	83.0705	108.765	82.8638	108.765	82.9893	108.765	82.7663	108.765	82.9025	108.765	82.6697	108.765	82.8119	108.765	82.5765	108.765	82.7195	108.765	82.4888	108.765	82.6274	108.765	82.4089	108.765	82.5382	108.765	82.3394	108.765	82.4547	108.765	82.2831	108.765	82.3796	108.765	82.2425	108.765	82.3158	108.765	82.22	108.765	82.2658	108.765	82.2165	108.765	82.2321
116.455	83.2136	116.455	83.2057	116.455	83.2067	116.455	83.1822	116.455	83.1858	116.455	83.142	116.455	83.151	116.455	83.0841	116.455	83.1022	116.455	83.0079	116.455	83.0387	116.455	82.9132	116.455	82.9598	116.455	82.8005	116.455	82.8649	116.455	82.6712	116.455	82.754	116.455	82.5281	116.455	82.6279	116.455	82.3753	116.455	82.4888	116.455	82.2189	116.455	82.3402	116.455	82.0657	116.455	82.1875	116.455	81.9233	116.455	82.0374	116.455	81.799	116.455	81.8978	116.455	81.6988	116.455	81.7765	116.455	81.6276	116.455	81.6806	116.455	81.5889	116.455	81.6156	116.455	81.5847
124.878	82.9839	124.878	82.974	124.878	82.9859	124.878	82.9575	124.878	82.979	124.878	82.9363	124.878	82.9631	124.878	82.9123	124.878	82.9388	124.878	82.8868	124.878	82.9073	124.878	82.8605	124.878	82.8706	124.878	82.8332	124.878	82.8306	124.878	82.8042	124.878	82.7893	124.878	82.7724	124.878	82.7484	124.878	82.7371	124.878	82.7087	124.878	82.6987	124.878	82.671	124.878	82.6586	124.878	82.6355	124.878	82.6191	124.878	82.6028	124.878	82.5829	124.878	82.5735	124.878	82.5527	124.878	82.5486	124.878	82.5304	124.878	82.5294	124.878	82.517	124.878	82.5171	124.878	82.5127
134.033	83.3501	134.033	83.3275	134.033	83.357	134.033	83.2911	134.033	83.3473	134.033	83.244	134.033	83.3211	134.033	83.1897	134.033	83.2793	134.033	83.1319	134.033	83.2237	134.033	83.0745	134.033	83.1569	134.033	83.0204	134.033	83.0824	134.033	82.9716	134.033	83.0046	134.033	82.9288	134.033	82.9287	134.033	82.8917	134.033	82.8604	134.033	82.8594	134.033	82.8043	134.033	82.8309	134.033	82.7633	134.033	82.8058	134.033	82.7377	134.033	82.7843	134.033	82.7252	134.033	82.7667	134.033	82.7222	134.033	82.7532	134.033	82.7246	134.033	82.7432	134.033	82.7296	134.033	82.7357
143.555	83.3841	143.555	83.375	143.555	83.3744	143.555	83.3481	143.555	83.3466	143.555	83.3059	143.555	83.303	143.555	83.2524	143.555	83.2473	143.555	83.1919	143.555	83.1834	143.555	83.1293	143.555	83.1155	143.555	83.0691	143.555	83.0473	143.555	83.0148	143.555	82.9823	143.555	82.9692	143.555	82.9238	143.555	82.9331	143.555	82.8749	143.555	82.9064	143.555	82.8382	143.555	82.8877	143.555	82.815	143.555	82.8753	143.555	82.8049	143.555	82.8673	143.555	82.8058	143.555	82.8619	143.555	82.8139	143.555	82.8577	143.555	82.8254	143.555	82.8528	143.555	82.8368	143.555	82.8461
153.809	83.311	153.809	83.3185	153.809	83.2868	153.809	83.3101	153.809	83.2467	153.809	83.2874	153.809	83.1926	153.809	83.2534	153.809	83.1278	153.809	83.2117	153.809	83.0565	153.809	83.1663	153.809	82.9835	153.809	83.1208	153.809	82.9133	153.809	83.0783	153.809	82.8502	153.809	83.0403	153.809	82.7977	153.809	83.0071	153.809	82.7582	153.809	82.9781	153.809	82.733	153.809	82.9518	153.809	82.7222	153.809	82.9273	153.809	82.724	153.809	82.9039	153.809	82.7357	153.809	82.8816	153.809	82.7539	153.809	82.8601	153.809	82.7752	153.809	82.8393	153.809	82.7971	153.809	82.8185
164.795	83.259	164.795	83.2455	164.795	83.2577	164.795	83.2191	164.795	83.2418	164.795	83.1826	164.795	83.2127	164.795	83.1407	164.795	83.1733	164.795	83.0984	164.795	83.1277	164.795	83.0611	164.795	83.0809	164.795	83.0334	164.795	83.0379	164.795	83.0182	164.795	83.0033	164.795	83.0165	164.795	82.9808	164.795	83.0274	164.795	82.9726	164.795	83.0486	164.795	82.9791	164.795	83.0768	164.795	82.9994	164.795	83.1081	164.795	83.0307	164.795	83.139	164.795	83.0688	164.795	83.1657	164.795	83.1087	164.795	83.1849	164.795	83.1451	164.795	83.1936	164.795	83.1732	164.795	83.1899
176.88	83.5467	176.88	83.5721	176.88	83.4979	176.88	83.5732	176.88	83.4286	176.88	83.5502	176.88	83.3428	176.88	83.5048	176.88	83.2455	176.88	83.4402	176.88	83.1427	176.88	83.3601	176.88	83.0409	176.88	83.2694	176.88	82.9464	176.88	83.1738	176.88	82.865	176.88	83.0795	176.88	82.8013	176.88	82.9927	176.88	82.7577	176.88	82.9191	176.88	82.7342	176.88	82.8624	176.88	82.7286	176.88	82.824	176.88	82.7364	176.88	82.8027	176.88	82.7523	176.88	82.7948	176.88	82.7706	176.88	82.7953	176.88	82.7864	176.88	82.7987	176.88	82.7966	176.88	82.8003
189.331	83.2962	189.331	83.2976	189.331	83.2745	189.331	83.2811	189.331	83.2317	189.331	83.2499	189.331	83.1689	189.331	83.2083	189.331	83.0898	189.331	83.1606	189.331	82.9997	189.331	83.1105	189.331	82.9058	189.331	83.0612	189.331	82.8154	189.331	83.0147	189.331	82.7351	189.331	82.9717	189.331	82.6691	189.331	82.9321	189.331	82.619	189.331	82.8952	189.331	82.5846	189.331	82.8601	189.331	82.5642	189.331	82.826	189.331	82.5561	189.331	82.7921	189.331	82.5591	189.331	82.7579	189.331	82.5718	189.331	82.7231	189.331	82.593	189.331	82.6879	189.331	82.6209	189.331	82.6532
202.881	83.3824	202.881	83.3334	202.881	83.4024	202.881	83.2601	202.881	83.391	202.881	83.1693	202.881	83.3475	202.881	83.0702	202.881	83.2742	202.881	82.9729	202.881	83.177	202.881	82.8868	202.881	83.0654	202.881	82.8178	202.881	82.9521	202.881	82.7676	202.881	82.8497	202.881	82.7335	202.881	82.7685	202.881	82.7106	202.881	82.713	202.881	82.694	202.881	82.682	202.881	82.6807	202.881	82.6695	202.881	82.67	202.881	82.6677	202.881	82.6621	202.881	82.6696	202.881	82.6578	202.881	82.6711	202.881	82.657	202.881	82.6701	202.881	82.6591	202.881	82.6671	202.881	82.6629
217.529	83.3736	217.529	83.3686	217.529	83.3568	217.529	83.3381	217.529	83.3223	217.529	83.2801	217.529	83.2737	217.529	83.1959	217.529	83.2131	217.529	83.0912	217.529	83.1414	217.529	82.9769	217.529	83.0601	217.529	82.8678	217.529	82.9725	217.529	82.7805	217.529	82.8854	217.529	82.729	217.529	82.8087	217.529	82.7204	217.529	82.7537	217.529	82.7525	217.529	82.7295	217.529	82.8148	217.529	82.7395	217.529	82.8922	217.529	82.7804	217.529	82.9691	217.529	82.8431	217.529	83.0327	217.529	82.9152	217.529	83.0745	217.529	82.9849	217.529	83.0899	217.529	83.0417	217.529	83.0783
233.276	83.2402	233.276	83.2596	233.276	83.1944	233.276	83.2542	233.276	83.1242	233.276	83.2285	233.276	83.0358	233.276	83.1864	233.276	82.9375	233.276	83.1296	233.276	82.8368	233.276	83.0574	233.276	82.7385	233.276	82.9689	233.276	82.6451	233.276	82.8659	233.276	82.5575	233.276	82.756	233.276	82.478	233.276	82.6523	233.276	82.4111	233.276	82.5704	233.276	82.3634	233.276	82.5224	233.276	82.3408	233.276	82.5114	233.276	82.3463	233.276	82.5291	233.276	82.3777	233.276	82.5596	233.276	82.4277	233.276	82.5854	233.276	82.4856	233.276	82.5933	233.276	82.5391	233.276	82.5774
250.122	83.2929	250.122	83.2365	250.122	83.2939	250.122	83.1345	250.122	83.2384	250.122	83.004	250.122	83.1351	250.122	82.8664	250.122	83.0008	250.122	82.7426	250.122	82.8579	250.122	82.6478	250.122	82.7281	250.122	82.5871	250.122	82.6257	250.122	82.5549	250.122	82.5538	250.122	82.5386	250.122	82.5047	250.122	82.5254	250.122	82.4664	250.122	82.5071	250.122	82.4297	250.122	82.482	250.122	82.3924	250.122	82.4533	250.122	82.3585	250.122	82.4259	250.122	82.3345	250.122	82.4031	250.122	82.3245	250.122	82.3849	250.122	82.3276	250.122	82.3694	250.122	82.3392	250.122	82.3542
268.066	83.4439	268.066	83.4172	268.066	83.4372	268.066	83.3513	268.066	83.3981	268.066	83.2419	268.066	83.3212	268.066	83.0935	268.066	83.1992	268.066	82.922	268.066	83.0323	268.066	82.75	268.066	82.8352	268.066	82.5984	268.066	82.6389	268.066	82.4777	268.066	82.4816	268.066	82.3877	268.066	82.3901	268.066	82.3243	268.066	82.3658	268.066	82.2887	268.066	82.3855	268.066	82.2896	268.066	82.4206	268.066	82.3364	268.066	82.4546	268.066	82.4265	268.066	82.4885	268.066	82.5387	268.066	82.5324	268.066	82.6387	268.066	82.5909	268.066	82.6957	268.066	82.6539	268.066	82.6972
287.109	83.3016	287.109	83.3362	287.109	83.2431	287.109	83.337	287.109	83.1716	287.109	83.2937	287.109	83.0962	287.109	83.1966	287.109	83.0176	287.109	83.0431	287.109	82.9231	287.109	82.8482	287.109	82.7914	287.109	82.6506	287.109	82.6089	287.109	82.5049	287.109	82.3877	287.109	82.4548	287.109	82.1756	287.109	82.5018	287.109	82.0455	287.109	82.5984	287.109	82.0595	287.109	82.6769	287.109	82.2245	287.109	82.6882	287.109	82.4787	287.109	82.628	287.109	82.7238	287.109	82.5383	287.109	82.8741	287.109	82.4856	287.109	82.8907	287.109	82.5204	287.109	82.7917	287.109	82.6413
307.617	83.6904	307.617	83.6005	307.617	83.6641	307.617	83.4153	307.617	83.5224	307.617	83.1707	307.617	83.2883	307.617	82.9056	307.617	83.0029	307.617	82.6475	307.617	82.7163	307.617	82.4048	307.617	82.4726	307.617	82.1735	307.617	82.2937	307.617	81.9546	307.617	82.1732	307.617	81.7741	307.617	82.0852	307.617	81.6869	307.617	82.0037	307.617	81.747	307.617	81.9202	307.617	81.959	307.617	81.8522	307.617	82.2603	307.617	81.8354	307.617	82.5581	307.617	81.8999	307.617	82.7754	307.617	82.0485	307.617	82.8706	307.617	82.257	307.617	82.8371	307.617	82.4876	307.617	82.6963
329.956	83.1715	329.956	83.0905	329.956	83.1973	329.956	82.9763	329.956	83.1504	329.956	82.8479	329.956	83.0246	329.956	82.7172	329.956	82.8285	329.956	82.5886	329.956	82.5863	329.956	82.4557	329.956	82.3351	329.956	82.2957	329.956	82.115	329.956	82.0744	329.956	81.9542	329.956	81.7674	329.956	81.8547	329.956	81.3903	329.956	81.7923	329.956	81.0166	329.956	81.7356	329.956	80.7665	329.956	81.6705	329.956	80.7484	329.956	81.6134	329.956	80.9774	329.956	81.6024	329.956	81.351	329.956	81.6679	329.956	81.7164	329.956	81.802	329.956	81.9555	329.956	81.9486	329.956	82.0241
353.394	83.5123	353.394	83.6396	353.394	83.4139	353.394	83.7258	353.394	83.386	353.394	83.7025	353.394	83.4199	353.394	83.5292	353.394	83.4581	353.394	83.2098	353.394	83.4198	353.394	82.8015	353.394	83.2359	353.394	82.405	353.394	82.8788	353.394	82.1273	353.394	82.3821	353.394	82.0194	353.394	81.8413	353.394	82.0404	353.394	81.3827	353.394	82.085	353.394	81.0988	353.394	82.0468	353.394	80.9963	353.394	81.8726	353.394	81.0038	353.394	81.5882	353.394	81.0262	353.394	81.2838	353.394	81.0041	353.394	81.0512	353.394	80.9412	353.394	80.9206	353.394	80.8839	353.394	80.8715
379.028	84.6671	379.028	84.4813	379.028	84.7947	379.028	84.2645	379.028	84.8075	379.028	84.0012	379.028	84.6514	379.028	83.651	379.028	84.3072	379.028	83.1853	379.028	83.8102	379.028	82.624	379.028	83.2514	379.028	82.0541	379.028	82.7527	379.028	81.6172	379.028	82.4153	379.028	81.4484	379.028	82.2719	379.028	81.5813	379.028	82.2801	379.028	81.9125	379.028	82.3622	379.028	82.2756	379.028	82.452	379.028	82.5426	379.028	82.5154	379.028	82.6647	379.028	82.544	379.028	82.6624	379.028	82.5411	379.028	82.594	379.028	82.5166	379.028	82.5215	379.028	82.4892	379.028	82.4846
406.128	84.3881	406.128	84.0396	406.128	84.4019	406.128	83.4822	406.128	84.0714	406.128	82.9358	406.128	83.5017	406.128	82.6326	406.128	82.8951	406.128	82.6815	406.128	82.4845	406.128	82.9864	406.128	82.3998	406.128	83.3144	406.128	82.5659	406.128	83.4405	406.128	82.7622	406.128	83.2452	406.128	82.7799	406.128	82.7524	406.128	82.5325	406.128	82.1408	406.128	82.0996	406.128	81.6906	406.128	81.7112	406.128	81.6175	406.128	81.6127	406.128	81.9296	406.128	81.8721	406.128	82.4759	406.128	82.3695	406.128	83.0514	406.128	82.9283	406.128	83.4623	406.128	83.3787	406.128	83.5806
435.425	83.4321	435.425	83.7729	435.425	83.1343	435.425	83.9758	435.425	83.0088	435.425	83.8844	435.425	83.046	435.425	83.3971	435.425	83.0873	435.425	82.4745	435.425	82.9164	435.425	81.1538	435.425	82.3726	435.425	79.5987	435.425	81.4408	435.425	78.1919	435.425	80.3225	435.425	77.5116	435.425	79.4078	435.425	77.8462	435.425	79.0065	435.425	78.8121	435.425	79.1182	435.425	79.8452	435.425	79.5407	435.425	80.6385	435.425	80.0262	435.425	81.1643	435.425	80.4404	435.425	81.5733	435.425	80.8725	435.425	81.994	435.425	81.452	435.425	82.3396	435.425	82.0526	435.425	82.3935
466.553	85.2206	466.553	84.7829	466.553	85.5157	466.553	84.3226	466.553	85.5757	466.553	83.9337	466.553	85.3841	466.553	83.6567	466.553	84.9986	466.553	83.4724	466.553	84.4964	466.553	83.3215	466.553	83.9311	466.553	83.1465	466.553	83.3507	466.553	82.9208	466.553	82.7927	466.553	82.6465	466.553	82.23	466.553	82.3432	466.553	81.6526	466.553	82.0531	466.553	81.2674	466.553	81.8375	466.553	81.3459	466.553	81.7181	466.553	81.7316	466.553	81.615	466.553	82.0046	466.553	81.4204	466.553	81.9771	466.553	81.1593	466.553	81.7268	466.553	81.0147	466.553	81.4002	466.553	81.1179
499.878	84.0382	499.878	84.323	499.878	83.9827	499.878	84.6853	499.878	84.1503	499.878	84.8811	499.878	84.3972	499.878	84.6882	499.878	84.5216	499.878	83.999	499.878	84.3574	499.878	82.8939	499.878	83.8458	499.878	81.6996	499.878	83.0848	499.878	80.8404	499.878	82.3201	499.878	80.4254	499.878	81.7552	499.878	80.249	499.878	81.3169	499.878	80.1596	499.878	80.8065	499.878	80.1272	499.878	80.2569	499.878	80.264	499.878	80.0008	499.878	80.8852	499.878	80.327	499.878	82.0571	499.878	81.1894	499.878	83.2717	499.878	82.33	499.878	83.9995	499.878	83.3939	499.878	84.0265
535.767	85.1741	535.767	85.1781	535.767	85.0768	535.767	84.9968	535.767	84.9032	535.767	84.563	535.767	84.5812	535.767	83.943	535.767	84.0513	535.767	83.3389	535.767	83.4037	535.767	82.8938	535.767	82.8586	535.767	82.5122	535.767	82.5059	535.767	81.9877	535.767	82.1502	535.767	81.2229	535.767	81.5267	535.767	80.3459	535.767	80.5856	535.767	79.7281	535.767	79.7318	535.767	79.6819	535.767	79.7016	535.767	80.1143	535.767	80.3941	535.767	80.7484	535.767	80.9456	535.767	81.3472	535.767	81.0079	535.767	81.6908	535.767	80.8477	535.767	81.6368	535.767	80.8977	535.767	81.2629
574.219	85.2427	574.219	85.3812	574.219	85.0417	574.219	85.3488	574.219	84.7975	574.219	85.0208	574.219	84.5033	574.219	84.4213	574.219	84.1741	574.219	83.7702	574.219	83.8265	574.219	83.3088	574.219	83.4169	574.219	83.0282	574.219	82.8543	574.219	82.6386	574.219	82.1227	574.219	81.814	574.219	81.3076	574.219	80.452	574.219	80.4707	574.219	78.9855	574.219	79.6095	574.219	78.5534	574.219	78.9164	574.219	79.5317	574.219	78.9091	574.219	80.7496	574.219	79.7319	574.219	81.3477	574.219	80.7373	574.219	81.2581	574.219	81.2308	574.219	80.9016	574.219	81.0953	574.219	80.8133
615.601	85.1344	615.601	85.1018	615.601	85.1794	615.601	85.0917	615.601	85.16	615.601	84.9789	615.601	84.9976	615.601	84.5576	615.601	84.6509	615.601	83.7445	615.601	84.1413	615.601	82.7908	615.601	83.5415	615.601	82.176	615.601	82.9347	615.601	81.9063	615.601	82.3855	615.601	81.3625	615.601	81.8923	615.601	80.1378	615.601	81.3229	615.601	78.8047	615.601	80.5275	615.601	78.8383	615.601	79.7222	615.601	79.9424	615.601	79.6085	615.601	80.8018	615.601	80.2438	615.601	81.1604	615.601	80.7824	615.601	81.1926	615.601	80.8148	615.601	80.9877	615.601	80.6313	615.601	80.6927
659.912	85.3076	659.912	85.181	659.912	85.2488	659.912	84.9798	659.912	85.0106	659.912	84.8013	659.912	84.6856	659.912	84.5397	659.912	84.3426	659.912	83.9603	659.912	83.9324	659.912	83.0207	659.912	83.2962	659.912	82.0416	659.912	82.3003	659.912	81.2971	659.912	81.1018	659.912	80.4396	659.912	80.2926	659.912	79.0115	659.912	80.1	659.912	77.6365	659.912	79.82	659.912	77.9381	659.912	79.0573	659.912	79.2268	659.912	78.6806	659.912	80.2834	659.912	79.4775	659.912	81.0604	659.912	80.4316	659.912	81.5801	659.912	80.8362	659.912	81.6497	659.912	80.9801	659.912	81.3096
707.153	84.8466	707.153	84.4866	707.153	85.0195	707.153	84.2311	707.153	84.902	707.153	84.2808	707.153	84.529	707.153	84.3432	707.153	83.9915	707.153	83.8777	707.153	83.3716	707.153	82.6523	707.153	82.6191	707.153	81.1887	707.153	81.5419	707.153	80.3344	707.153	80.0688	707.153	79.6498	707.153	78.6016	707.153	78.3443	707.153	77.835	707.153	76.7756	707.153	77.5071	707.153	76.1563	707.153	76.4657	707.153	76.9682	707.153	74.7649	707.153	78.4009	707.153	75.8166	707.153	79.4946	707.153	78.2505	707.153	79.8441	707.153	79.1119	707.153	79.4579	707.153	78.7774	707.153	78.7759
757.69	85.1928	757.69	84.9807	757.69	84.9612	757.69	84.2579	757.69	84.6686	757.69	83.5214	757.69	84.5794	757.69	83.4601	757.69	84.5435	757.69	83.5613	757.69	84.3285	757.69	82.6782	757.69	83.8957	757.69	80.9844	757.69	83.0801	757.69	80.1694	757.69	81.6223	757.69	79.9184	757.69	79.6688	757.69	78.6941	757.69	77.7027	757.69	77.1518	757.69	76.6297	757.69	76.7313	757.69	77.1993	757.69	77.1257	757.69	77.2945	757.69	78.2172	757.69	76.3489	757.69	78.9022	757.69	77.7464	757.69	78.5507	757.69	79.3392	757.69	77.806	757.69	79.041	757.69	77.8569
812.256	84.4312	812.256	84.3004	812.256	84.5235	812.256	84.0647	812.256	84.6512	812.256	83.7979	812.256	84.701	812.256	83.6575	812.256	84.4408	812.256	83.5243	812.256	83.8743	812.256	82.9216	812.256	83.3389	812.256	81.8746	812.256	82.9105	812.256	81.2503	812.256	82.1429	812.256	80.7716	812.256	80.8408	812.256	79.1043	812.256	79.3165	812.256	76.5414	812.256	77.7675	812.256	75.5038	812.256	76.5606	812.256	75.9028	812.256	75.819	812.256	76.746	812.256	75.0562	812.256	77.7237	812.256	75.9694	812.256	78.0651	812.256	77.7543	812.256	77.6834	812.256	78.0533	812.256	77.5035
870.483	84.844	870.483	84.6911	870.483	85.1204	870.483	84.7395	870.483	85.0514	870.483	84.467	870.483	84.5527	870.483	83.8023	870.483	83.876	870.483	83.4072	870.483	83.1831	870.483	83.0869	870.483	82.6307	870.483	81.9095	870.483	82.3178	870.483	80.5484	870.483	81.8947	870.483	80.1453	870.483	81.1367	870.483	79.1673	870.483	79.9838	870.483	77.1374	870.483	77.7947	870.483	76.5346	870.483	75.0694	870.483	77.0444	870.483	75.5013	870.483	78.058	870.483	75.7796	870.483	79.3701	870.483	75.7042	870.483	79.2944	870.483	77.8408	870.483	78.5047	870.483	79.3274	870.483	78.8982
933.105	84.7991	933.105	84.5785	933.105	85.0003	933.105	84.6837	933.105	84.94	933.105	84.701	933.105	84.5831	933.105	84.2993	933.105	83.9916	933.105	84.2454	933.105	83.248	933.105	84.08	933.105	82.4683	933.105	82.6293	933.105	81.9065	933.105	81.6522	933.105	81.3761	933.105	82.0847	933.105	80.8205	933.105	80.2033	933.105	80.3895	933.105	75.9692	933.105	79.0038	933.105	75.3008	933.105	75.2659	933.105	75.46	933.105	74.1713	933.105	76.766	933.105	74.2197	933.105	78.6969	933.105	73.6442	933.105	77.7105	933.105	76.0372	933.105	75.8165	933.105	76.8858	933.105	75.8123
1,000.12	84.8026	1,000.12	84.5908	1,000.12	84.5044	1,000.12	84.0534	1,000.12	84.3635	1,000.12	83.881	1,000.12	84.2447	1,000.12	83.5329	1,000.12	83.7098	1,000.12	82.7435	1,000.12	83.1453	1,000.12	82.1467	1,000.12	82.8031	1,000.12	81.5142	1,000.12	82.2872	1,000.12	80.5217	1,000.12	81.6742	1,000.12	79.5812	1,000.12	80.9561	1,000.12	78.9568	1,000.12	79.384	1,000.12	78.1101	1,000.12	77.3545	1,000.12	75.7631	1,000.12	76.0616	1,000.12	72.7574	1,000.12	73.9843	1,000.12	72.7546	1,000.12	71.431	1,000.12	73.9041	1,000.12	72.4155	1,000.12	75.1435	1,000.12	73.758	1,000.12	76.0768	1,000.12	75.5384	1,000.12	76.4588
1,071.9	84.2784	1,071.9	84.1368	1,071.9	84.5109	1,071.9	84.2394	1,071.9	84.1414	1,071.9	83.7548	1,071.9	83.5072	1,071.9	82.9644	1,071.9	83.3193	1,071.9	82.6321	1,071.9	82.9504	1,071.9	82.0308	1,071.9	81.8768	1,071.9	80.9591	1,071.9	81.0269	1,071.9	80.0283	1,071.9	80.4369	1,071.9	78.9661	1,071.9	79.5956	1,071.9	77.4666	1,071.9	78.8565	1,071.9	75.7132	1,071.9	77.543	1,071.9	73.3142	1,071.9	75.039	1,071.9	70.8329	1,071.9	72.7264	1,071.9	71.6304	1,071.9	71.808	1,071.9	73.5355	1,071.9	71.6765	1,071.9	74.5672	1,071.9	73.258	1,071.9	76.0295	1,071.9	75.8724	1,071.9	76.9639
1,148.8	83.8178	1,148.8	83.7472	1,148.8	83.5308	1,148.8	82.9396	1,148.8	83.4444	1,148.8	82.5068	1,148.8	83.1763	1,148.8	82.2244	1,148.8	82.8643	1,148.8	81.4834	1,148.8	82.4252	1,148.8	81.1963	1,148.8	81.4936	1,148.8	80.725	1,148.8	80.6007	1,148.8	79.3917	1,148.8	79.9851	1,148.8	78.2027	1,148.8	79.0417	1,148.8	76.9955	1,148.8	78.0343	1,148.8	75.2943	1,148.8	76.7484	1,148.8	72.9004	1,148.8	73.9628	1,148.8	69.584	1,148.8	71.4276	1,148.8	69.1829	1,148.8	71.5649	1,148.8	70.0495	1,148.8	71.2986	1,148.8	70.8168	1,148.8	70.6072	1,148.8	72.4324	1,148.8	72.4199	1,148.8	73.6763
1,231.2	85.5613	1,231.2	85.3887	1,231.2	85.2683	1,231.2	84.93	1,231.2	84.9713	1,231.2	84.3843	1,231.2	84.5807	1,231.2	83.6164	1,231.2	83.7711	1,231.2	82.7653	1,231.2	83.2569	1,231.2	81.8864	1,231.2	82.8465	1,231.2	80.9399	1,231.2	81.715	1,231.2	80.1825	1,231.2	80.7467	1,231.2	79.0752	1,231.2	80.2583	1,231.2	76.9907	1,231.2	78.8027	1,231.2	75.2398	1,231.2	76.8501	1,231.2	73.5173	1,231.2	76.0353	1,231.2	70.2054	1,231.2	73.9614	1,231.2	70.5977	1,231.2	70.9417	1,231.2	71.5084	1,231.2	71.7751	1,231.2	72.349	1,231.2	72.5136	1,231.2	74.2435	1,231.2	74.0176	1,231.2	75.1501
1,319.46	85.5931	1,319.46	85.5364	1,319.46	85.4697	1,319.46	85.3345	1,319.46	85.1734	1,319.46	84.6545	1,319.46	84.655	1,319.46	83.8905	1,319.46	83.866	1,319.46	83.2234	1,319.46	83.2642	1,319.46	81.9116	1,319.46	82.6755	1,319.46	80.8176	1,319.46	81.5865	1,319.46	80.424	1,319.46	80.5109	1,319.46	79.5898	1,319.46	79.9512	1,319.46	78.4298	1,319.46	78.7537	1,319.46	76.717	1,319.46	76.5932	1,319.46	73.9112	1,319.46	75.3552	1,319.46	68.7406	1,319.46	73.1275	1,319.46	66.7312	1,319.46	68.0757	1,319.46	72.5122	1,319.46	71.2048	1,319.46	74.8006	1,319.46	75.2623	1,319.46	76.7169	1,319.46	76.2231	1,319.46	76.7422
1,414.31	84.8297	1,414.31	84.718	1,414.31	84.8176	1,414.31	84.4783	1,414.31	84.2814	1,414.31	83.821	1,414.31	83.5682	1,414.31	82.9797	1,414.31	82.8105	1,414.31	82.0611	1,414.31	81.9438	1,414.31	81.1749	1,414.31	81.0659	1,414.31	80.1411	1,414.31	80.1722	1,414.31	79.0595	1,414.31	79.5587	1,414.31	78.303	1,414.31	78.3872	1,414.31	77.4142	1,414.31	76.9509	1,414.31	76.2799	1,414.31	76.5078	1,414.31	73.6732	1,414.31	74.0343	1,414.31	68.8794	1,414.31	68.0194	1,414.31	64.9313	1,414.31	63.0711	1,414.31	67.7735	1,414.31	68.1937	1,414.31	70.4389	1,414.31	71.2731	1,414.31	71.5377	1,414.31	73.9338	1,414.31	74.1968
1,515.75	83.3115	1,515.75	83.1852	1,515.75	83.119	1,515.75	82.7723	1,515.75	82.9878	1,515.75	81.9983	1,515.75	82.4167	1,515.75	81.1416	1,515.75	81.1345	1,515.75	80.563	1,515.75	80.1757	1,515.75	79.3785	1,515.75	79.4425	1,515.75	78.0877	1,515.75	78.1262	1,515.75	77.5299	1,515.75	76.9534	1,515.75	76.8571	1,515.75	76.6489	1,515.75	76.3396	1,515.75	75.5652	1,515.75	75.2164	1,515.75	73.3198	1,515.75	71.4186	1,515.75	72.77	1,515.75	63.2763	1,515.75	70.2535	1,515.75	54.2469	1,515.75	56.5931	1,515.75	66.3194	1,515.75	60.0235	1,515.75	70.3105	1,515.75	66.9178	1,515.75	72.724	1,515.75	70.1334	1,515.75	72.3278
1,624.51	83.0127	1,624.51	82.8391	1,624.51	83.0584	1,624.51	82.3602	1,624.51	82.6086	1,624.51	81.521	1,624.51	81.8682	1,624.51	80.7051	1,624.51	81.0621	1,624.51	79.7188	1,624.51	79.5879	1,624.51	78.5361	1,624.51	77.9061	1,624.51	77.3188	1,624.51	76.7903	1,624.51	75.8927	1,624.51	75.7473	1,624.51	74.8763	1,624.51	74.429	1,624.51	74.5568	1,624.51	73.5499	1,624.51	73.306	1,624.51	73.5886	1,624.51	70.1046	1,624.51	72.1356	1,624.51	66.0486	1,624.51	69.1705	1,624.51	48.1002	1,624.51	66.2831	1,624.51	64.4353	1,624.51	43.0283	1,624.51	66.8047	1,624.51	65.3233	1,624.51	68.4621	1,624.51	68.4614	1,624.51	69.9193
1,740.97	84.5524	1,740.97	84.5033	1,740.97	84.2528	1,740.97	84.0341	1,740.97	83.7701	1,740.97	83.4089	1,740.97	83.1598	1,740.97	82.5622	1,740.97	82.0827	1,740.97	81.3622	1,740.97	80.4551	1,740.97	79.9432	1,740.97	78.8899	1,740.97	78.099	1,740.97	77.5814	1,740.97	76.4861	1,740.97	76.1191	1,740.97	75.5153	1,740.97	74.5345	1,740.97	74.3248	1,740.97	73.6434	1,740.97	72.8011	1,740.97	73.6463	1,740.97	70.7357	1,740.97	72.7847	1,740.97	68.2876	1,740.97	69.8961	1,740.97	59.7795	1,740.97	64.1099	1,740.97	57.3512	1,740.97	44.5925	1,740.97	65.9738	1,740.97	63.4054	1,740.97	70.004	1,740.97	68.662	1,740.97	70.5331
1,866.21	82.172	1,866.21	82.3654	1,866.21	82.0996	1,866.21	81.9802	1,866.21	81.6971	1,866.21	81.1816	1,866.21	81.1954	1,866.21	80.7493	1,866.21	80.6212	1,866.21	79.9543	1,866.21	79.2645	1,866.21	79.0222	1,866.21	77.7801	1,866.21	77.592	1,866.21	76.9228	1,866.21	75.1267	1,866.21	76.009	1,866.21	74.0013	1,866.21	73.6236	1,866.21	73.4889	1,866.21	71.2643	1,866.21	71.6235	1,866.21	71.8696	1,866.21	69.8223	1,866.21	70.2814	1,866.21	67.7428	1,866.21	66.9353	1,866.21	59.0153	1,866.21	64.8185	1,866.21	59.6821	1,866.21	46.1568	1,866.21	66.0875	1,866.21	62.7258	1,866.21	68.9762	1,866.21	68.0024	1,866.21	70.0383
1,999.88	80.7193	1,999.88	80.9057	1,999.88	80.9616	1,999.88	80.8023	1,999.88	80.6259	1,999.88	79.7543	1,999.88	80.0564	1,999.88	78.5688	1,999.88	79.662	1,999.88	77.7274	1,999.88	78.5292	1,999.88	76.8214	1,999.88	77.769	1,999.88	75.9402	1,999.88	77.5673	1,999.88	74.7703	1,999.88	75.5266	1,999.88	73.1288	1,999.88	72.8386	1,999.88	71.5553	1,999.88	71.5542	1,999.88	69.4217	1,999.88	69.9653	1,999.88	68.6461	1,999.88	69.665	1,999.88	67.471	1,999.88	67.3765	1,999.88	56.9321	1,999.88	56.4532	1,999.88	58.8892	1,999.88	55.2644	1,999.88	66.198	1,999.88	61.6866	1,999.88	69.4548	1,999.88	68.5605	1,999.88	69.9292
2,143.43	81.579	2,143.43	81.6879	2,143.43	81.1856	2,143.43	81.2826	2,143.43	81.0128	2,143.43	80.7254	2,143.43	80.169	2,143.43	79.5134	2,143.43	78.872	2,143.43	78.06	2,143.43	77.6085	2,143.43	76.8074	2,143.43	76.5018	2,143.43	75.577	2,143.43	76.0878	2,143.43	74.3525	2,143.43	74.6944	2,143.43	72.9317	2,143.43	72.4043	2,143.43	71.527	2,143.43	70.7387	2,143.43	70.1778	2,143.43	69.5687	2,143.43	68.2035	2,143.43	69.4417	2,143.43	65.3175	2,143.43	67.8308	2,143.43	62.6016	2,143.43	65.4584	2,143.43	60.7086	2,143.43	63.6946	2,143.43	63.5767	2,143.43	62.7264	2,143.43	65.1066	2,143.43	66.8602	2,143.43	66.1102
2,297.24	82.0246	2,297.24	81.8291	2,297.24	81.6587	2,297.24	81.5281	2,297.24	81.3608	2,297.24	81.0824	2,297.24	80.5955	2,297.24	79.6772	2,297.24	79.3114	2,297.24	78.0561	2,297.24	78.3389	2,297.24	76.681	2,297.24	76.6037	2,297.24	75.6244	2,297.24	73.9296	2,297.24	75.1746	2,297.24	72.2444	2,297.24	73.0394	2,297.24	71.7463	2,297.24	69.4853	2,297.24	70.0278	2,297.24	69.2165	2,297.24	67.2213	2,297.24	68.7803	2,297.24	67.3635	2,297.24	63.6579	2,297.24	68.735	2,297.24	58.614	2,297.24	68.1898	2,297.24	51.5392	2,297.24	66.0611	2,297.24	49.7756	2,297.24	61.5783	2,297.24	54.9522	2,297.24	42.9227	2,297.24	54.0997
2,462.4	83.9643	2,462.4	83.6508	2,462.4	83.8047	2,462.4	83.1259	2,462.4	83.1716	2,462.4	82.4259	2,462.4	82.5095	2,462.4	81.2547	2,462.4	81.4307	2,462.4	79.1687	2,462.4	80.1228	2,462.4	77.4062	2,462.4	78.2877	2,462.4	75.6448	2,462.4	75.8114	2,462.4	73.5955	2,462.4	75.1629	2,462.4	72.7915	2,462.4	74.0422	2,462.4	71.8981	2,462.4	71.5692	2,462.4	70.1077	2,462.4	70.9729	2,462.4	69.641	2,462.4	69.1647	2,462.4	68.8499	2,462.4	68.734	2,462.4	63.904	2,462.4	70.8094	2,462.4	58.1719	2,462.4	66.5102	2,462.4	61.6733	2,462.4	59.3138	2,462.4	66.9298	2,462.4	62.4091	2,462.4	67.6903
2,638.92	83.8686	2,638.92	83.3603	2,638.92	83.2806	2,638.92	82.7425	2,638.92	82.9935	2,638.92	83.0441	2,638.92	82.5501	2,638.92	82.0533	2,638.92	81.0728	2,638.92	80.2712	2,638.92	79.488	2,638.92	78.9858	2,638.92	77.9845	2,638.92	75.586	2,638.92	76.2018	2,638.92	70.3178	2,638.92	74.498	2,638.92	70.2156	2,638.92	73.0903	2,638.92	71.8358	2,638.92	71.569	2,638.92	71.0719	2,638.92	69.8697	2,638.92	70.0186	2,638.92	69.5727	2,638.92	69.6212	2,638.92	69.3339	2,638.92	66.887	2,638.92	65.012	2,638.92	58.0519	2,638.92	54.2256	2,638.92	59.271	2,638.92	46.7429	2,638.92	63.128	2,638.92	60.8562	2,638.92	66.0011
2,828.25	84.4802	2,828.25	84.0205	2,828.25	85.3579	2,828.25	83.3324	2,828.25	84.7782	2,828.25	81.7525	2,828.25	83.5186	2,828.25	80.7475	2,828.25	82.8933	2,828.25	79.9142	2,828.25	81.4663	2,828.25	79.0275	2,828.25	79.5479	2,828.25	78.3223	2,828.25	76.7453	2,828.25	76.5036	2,828.25	73.6115	2,828.25	73.534	2,828.25	73.722	2,828.25	71.7658	2,828.25	72.6408	2,828.25	70.2188	2,828.25	69.4448	2,828.25	70.3075	2,828.25	69.2094	2,828.25	69.8783	2,828.25	69.3782	2,828.25	67.4689	2,828.25	67.3579	2,828.25	63.2923	2,828.25	60.9424	2,828.25	66.4807	2,828.25	63.8371	2,828.25	69.8846	2,828.25	68.0145	2,828.25	68.6034
3,031.49	86.0184	3,031.49	85.8674	3,031.49	85.674	3,031.49	85.4229	3,031.49	85.1833	3,031.49	84.8267	3,031.49	84.7753	3,031.49	84.0014	3,031.49	83.9885	3,031.49	82.627	3,031.49	82.9652	3,031.49	80.909	3,031.49	81.6137	3,031.49	79.5378	3,031.49	80.2372	3,031.49	77.6741	3,031.49	78.6708	3,031.49	75.6383	3,031.49	75.9233	3,031.49	74.0742	3,031.49	74.6257	3,031.49	72.483	3,031.49	73.5527	3,031.49	71.6003	3,031.49	69.569	3,031.49	67.9543	3,031.49	66.2352	3,031.49	54.0872	3,031.49	63.6142	3,031.49	56.9906	3,031.49	60.6652	3,031.49	64.6933	3,031.49	56.8086	3,031.49	69.9218	3,031.49	68.1578	3,031.49	69.9717
3,249.02	85.3656	3,249.02	85.0118	3,249.02	84.9545	3,249.02	84.2655	3,249.02	84.7392	3,249.02	83.6167	3,249.02	84.4208	3,249.02	82.5809	3,249.02	83.6499	3,249.02	81.5399	3,249.02	83.1627	3,249.02	80.3467	3,249.02	82.4478	3,249.02	78.7435	3,249.02	81.1757	3,249.02	77.4313	3,249.02	79.8285	3,249.02	76.3233	3,249.02	78.1187	3,249.02	75.0446	3,249.02	76.9914	3,249.02	73.77	3,249.02	76.2791	3,249.02	73.765	3,249.02	73.9541	3,249.02	72.4546	3,249.02	70.8598	3,249.02	67.0187	3,249.02	69.6717	3,249.02	61.1782	3,249.02	68.0975	3,249.02	61.1482	3,249.02	63.3055	3,249.02	69.6588	3,249.02	61.1265	3,249.02	70.0449
3,482.3	86.2598	3,482.3	85.8497	3,482.3	86.1169	3,482.3	85.3072	3,482.3	85.7192	3,482.3	84.5493	3,482.3	84.8506	3,482.3	83.2361	3,482.3	83.349	3,482.3	81.6614	3,482.3	82.4641	3,482.3	80.1794	3,482.3	81.7529	3,482.3	78.3841	3,482.3	80.5812	3,482.3	76.9537	3,482.3	79.0058	3,482.3	75.9298	3,482.3	77.2583	3,482.3	74.5383	3,482.3	76.4421	3,482.3	73.0777	3,482.3	75.3122	3,482.3	72.1449	3,482.3	72.6297	3,482.3	70.7734	3,482.3	70.6839	3,482.3	66.2383	3,482.3	70.3675	3,482.3	65.6868	3,482.3	70.8576	3,482.3	66.4	3,482.3	69.1169	3,482.3	70.3543	3,482.3	68.3273	3,482.3	71.3993
3,732.06	87.0635	3,732.06	86.998	3,732.06	87.1243	3,732.06	86.357	3,732.06	86.634	3,732.06	85.3167	3,732.06	85.4804	3,732.06	84.158	3,732.06	84.5187	3,732.06	83.167	3,732.06	83.0588	3,732.06	81.7487	3,732.06	81.4439	3,732.06	79.6646	3,732.06	80.1269	3,732.06	78.3649	3,732.06	78.4336	3,732.06	76.2991	3,732.06	77.1129	3,732.06	73.7907	3,732.06	75.7578	3,732.06	72.2611	3,732.06	74.8401	3,732.06	69.1266	3,732.06	73.1293	3,732.06	67.4833	3,732.06	71.0816	3,732.06	67.6429	3,732.06	71.3606	3,732.06	64.4357	3,732.06	69.0551	3,732.06	64.1634	3,732.06	66.6618	3,732.06	69.9495	3,732.06	67.8265	3,732.06	71.6887
4,000.12	86.4863	4,000.12	86.0202	4,000.12	86.3985	4,000.12	85.3667	4,000.12	85.7537	4,000.12	84.0015	4,000.12	84.8597	4,000.12	82.714	4,000.12	83.7058	4,000.12	81.3362	4,000.12	82.1697	4,000.12	79.0808	4,000.12	79.5898	4,000.12	78.5431	4,000.12	76.9879	4,000.12	76.542	4,000.12	76.1957	4,000.12	73.0445	4,000.12	74.7989	4,000.12	71.4688	4,000.12	72.8474	4,000.12	67.728	4,000.12	71.1756	4,000.12	69.4642	4,000.12	70.1784	4,000.12	70.9475	4,000.12	68.1501	4,000.12	67.8195	4,000.12	66.5504	4,000.12	63.0688	4,000.12	66.8717	4,000.12	63.4474	4,000.12	64.7704	4,000.12	67.7431	4,000.12	67.0309	4,000.12	69.0949
4,287.23	86.4711	4,287.23	86.6079	4,287.23	85.9503	4,287.23	86.3863	4,287.23	85.4619	4,287.23	86.1951	4,287.23	84.6736	4,287.23	84.952	4,287.23	83.5987	4,287.23	82.9212	4,287.23	82.7457	4,287.23	81.8452	4,287.23	81.7768	4,287.23	79.8947	4,287.23	79.8423	4,287.23	77.8716	4,287.23	77.263	4,287.23	76.2122	4,287.23	75.0959	4,287.23	73.1349	4,287.23	71.81	4,287.23	72.2622	4,287.23	70.0064	4,287.23	70.0759	4,287.23	69.6288	4,287.23	66.3725	4,287.23	67.1882	4,287.23	64.5902	4,287.23	67.1179	4,287.23	65.8473	4,287.23	67.564	4,287.23	64.4847	4,287.23	64.8118	4,287.23	69.5337	4,287.23	66.3127	4,287.23	70.6674
4,594.85	86.2368	4,594.85	85.7966	4,594.85	85.9677	4,594.85	84.9473	4,594.85	85.4362	4,594.85	83.672	4,594.85	84.9944	4,594.85	82.9204	4,594.85	83.8927	4,594.85	82.1474	4,594.85	82.4291	4,594.85	80.1137	4,594.85	80.8444	4,594.85	78.6135	4,594.85	78.8453	4,594.85	76.7948	4,594.85	77.1896	4,594.85	74.821	4,594.85	75.7848	4,594.85	73.9731	4,594.85	73.5751	4,594.85	71.2511	4,594.85	70.7398	4,594.85	69.7002	4,594.85	69.9706	4,594.85	68.4548	4,594.85	68.5748	4,594.85	63.102	4,594.85	67.0559	4,594.85	64.1621	4,594.85	66.0387	4,594.85	63.9974	4,594.85	64.9272	4,594.85	69.3712	4,594.85	66.4298	4,594.85	70.063
4,924.44	87.0682	4,924.44	87.0948	4,924.44	87.2538	4,924.44	86.538	4,924.44	87.2192	4,924.44	86.0561	4,924.44	86.4109	4,924.44	84.9637	4,924.44	85.3968	4,924.44	82.456	4,924.44	84.3192	4,924.44	81.1373	4,924.44	83.0545	4,924.44	79.6749	4,924.44	81.4258	4,924.44	77.7616	4,924.44	79.7823	4,924.44	76.776	4,924.44	77.8529	4,924.44	74.4226	4,924.44	75.4362	4,924.44	71.4735	4,924.44	73.4432	4,924.44	70.349	4,924.44	71.4752	4,924.44	65.8388	4,924.44	69.1567	4,924.44	57.8761	4,924.44	66.1032	4,924.44	63.6644	4,924.44	68.437	4,924.44	64.6282	4,924.44	64.607	4,924.44	67.8483	4,924.44	65.96	4,924.44	70.6891
5,278.2	86.9351	5,278.2	85.9319	5,278.2	86.907	5,278.2	85.2313	5,278.2	86.1632	5,278.2	83.9745	5,278.2	85.4433	5,278.2	82.4846	5,278.2	84.4788	5,278.2	82.4868	5,278.2	83.3225	5,278.2	80.1462	5,278.2	81.6556	5,278.2	77.225	5,278.2	80.0742	5,278.2	77.6622	5,278.2	78.2288	5,278.2	74.9982	5,278.2	75.9414	5,278.2	71.4446	5,278.2	74.6972	5,278.2	70.5979	5,278.2	72.4594	5,278.2	66.8295	5,278.2	70.3794	5,278.2	66.5558	5,278.2	69.8544	5,278.2	62.0904	5,278.2	66.4419	5,278.2	62.8837	5,278.2	66.0695	5,278.2	62.2356	5,278.2	66.4698	5,278.2	67.3729	5,278.2	63.4011	5,278.2	69.0199
5,656.86	87.1393	5,656.86	86.9779	5,656.86	86.6045	5,656.86	85.9339	5,656.86	86.253	5,656.86	84.9589	5,656.86	85.1677	5,656.86	83.6353	5,656.86	83.7885	5,656.86	81.541	5,656.86	82.7338	5,656.86	79.996	5,656.86	80.7174	5,656.86	78.8117	5,656.86	78.729	5,656.86	76.1182	5,656.86	77.7561	5,656.86	74.0979	5,656.86	76.2616	5,656.86	72.8686	5,656.86	73.7155	5,656.86	69.6066	5,656.86	71.3268	5,656.86	65.0365	5,656.86	68.9997	5,656.86	64.639	5,656.86	67.9104	5,656.86	63.5373	5,656.86	65.1154	5,656.86	65.0488	5,656.86	60.6967	5,656.86	62.937	5,656.86	64.22	5,656.86	67.0118	5,656.86	59.7133	5,656.86	67.688
6,062.99	87.7777	6,062.99	87.2787	6,062.99	87.4911	6,062.99	86.2747	6,062.99	86.4483	6,062.99	85.2859	6,062.99	85.2003	6,062.99	84.2704	6,062.99	83.8978	6,062.99	83.2	6,062.99	82.175	6,062.99	81.2148	6,062.99	81.0481	6,062.99	78.0216	6,062.99	79.9061	6,062.99	76.0509	6,062.99	77.667	6,062.99	73.925	6,062.99	75.1562	6,062.99	70.3006	6,062.99	72.351	6,062.99	69.2163	6,062.99	70.3258	6,062.99	67.329	6,062.99	67.2098	6,062.99	63.3597	6,062.99	65.4273	6,062.99	57.1708	6,062.99	65.7562	6,062.99	61.3049	6,062.99	63.5889	6,062.99	64.7726	6,062.99	66.1007	6,062.99	63.9714	6,062.99	61.7697	6,062.99	63.7617
6,498.05	87.4552	6,498.05	86.7762	6,498.05	87.2734	6,498.05	85.737	6,498.05	86.4538	6,498.05	84.4077	6,498.05	85.1323	6,498.05	82.9453	6,498.05	83.6821	6,498.05	81.0409	6,498.05	82.378	6,498.05	78.4557	6,498.05	79.8397	6,498.05	76.3336	6,498.05	76.3993	6,498.05	72.6681	6,498.05	73.6911	6,498.05	67.7391	6,498.05	69.7311	6,498.05	64.8139	6,498.05	63.7626	6,498.05	60.1369	6,498.05	57.6363	6,498.05	55.5413	6,498.05	45.4878	6,498.05	59.5263	6,498.05	47.2486	6,498.05	55.0526	6,498.05	57.9825	6,498.05	59.076	6,498.05	58.9729	6,498.05	56.8934	6,498.05	56.0003	6,498.05	59.8473	6,498.05	59.2265	6,498.05	63.535
6,964.23	86.8848	6,964.23	86.2919	6,964.23	87.0871	6,964.23	85.0583	6,964.23	86.6477	6,964.23	84.0393	6,964.23	85.3898	6,964.23	82.3801	6,964.23	83.7666	6,964.23	79.4078	6,964.23	81.2198	6,964.23	76.8435	6,964.23	77.9351	6,964.23	73.2322	6,964.23	73.0168	6,964.23	66.3226	6,964.23	66.497	6,964.23	59.3778	6,964.23	62.2941	6,964.23	49.0823	6,964.23	46.5851	6,964.23	56.9438	6,964.23	58.7892	6,964.23	57.0044	6,964.23	57.4608	6,964.23	58.158	6,964.23	61.1154	6,964.23	54.4325	6,964.23	61.7562	6,964.23	53.4984	6,964.23	53.8571	6,964.23	59.7312	6,964.23	57.2828	6,964.23	64.3499	6,964.23	59.0551	6,964.23	66.8509
7,464.11	84.879	7,464.11	84.931	7,464.11	85.1342	7,464.11	84.9326	7,464.11	85.1973	7,464.11	84.1653	7,464.11	84.9213	7,464.11	82.0434	7,464.11	83.1817	7,464.11	78.9635	7,464.11	79.8524	7,464.11	74.0539	7,464.11	75.6545	7,464.11	66.5689	7,464.11	68.8399	7,464.11	61.9874	7,464.11	64.2158	7,464.11	62.1962	7,464.11	64.8809	7,464.11	65.3195	7,464.11	67.2929	7,464.11	66.2601	7,464.11	63.7191	7,464.11	66.6477	7,464.11	66.4557	7,464.11	65.2122	7,464.11	67.6397	7,464.11	62.9509	7,464.11	64.8727	7,464.11	53.7981	7,464.11	62.4864	7,464.11	54.3994	7,464.11	51.1984	7,464.11	66.887	7,464.11	58.3242	7,464.11	68.5655
7,999.88	84.136	7,999.88	84.4548	7,999.88	83.6934	7,999.88	84.3027	7,999.88	84.4488	7,999.88	84.1447	7,999.88	83.9727	7,999.88	82.2226	7,999.88	82.2578	7,999.88	78.6238	7,999.88	79.1264	7,999.88	72.3872	7,999.88	73.2026	7,999.88	72.318	7,999.88	72.7033	7,999.88	73.6134	7,999.88	74.4802	7,999.88	74.0288	7,999.88	74.3459	7,999.88	73.2123	7,999.88	74.044	7,999.88	72.5952	7,999.88	74.1821	7,999.88	72.6779	7,999.88	73.1984	7,999.88	72.3378	7,999.88	71.3833	7,999.88	67.987	7,999.88	70.7909	7,999.88	59.4561	7,999.88	68.2116	7,999.88	60.8027	7,999.88	61.6127	7,999.88	65.8898	7,999.88	48.6545	7,999.88	70.3513
8,574.1	83.6981	8,574.1	82.8447	8,574.1	84.1648	8,574.1	82.2439	8,574.1	83.2123	8,574.1	80.859	8,574.1	80.9347	8,574.1	78.1056	8,574.1	77.3983	8,574.1	75.6805	8,574.1	75.539	8,574.1	76.5912	8,574.1	76.8612	8,574.1	77.7869	8,574.1	78.7325	8,574.1	79.0248	8,574.1	79.4386	8,574.1	78.7719	8,574.1	79.0585	8,574.1	77.2873	8,574.1	78.7692	8,574.1	76.7072	8,574.1	77.2502	8,574.1	74.8192	8,574.1	75.9907	8,574.1	73.5495	8,574.1	74.9169	8,574.1	70.9226	8,574.1	72.1745	8,574.1	62.2198	8,574.1	70.3693	8,574.1	69.3852	8,574.1	66.4424	8,574.1	58.1015	8,574.1	64.9816	8,574.1	69.4893
9,189.7	84.8628	9,189.7	83.95	9,189.7	84.7715	9,189.7	81.652	9,189.7	82.8732	9,189.7	77.6655	9,189.7	79.6347	9,189.7	75.6109	9,189.7	76.335	9,189.7	76.3185	9,189.7	77.0038	9,189.7	77.4654	9,189.7	78.5887	9,189.7	77.1692	9,189.7	79.6325	9,189.7	77.7919	9,189.7	80.0051	9,189.7	76.4843	9,189.7	77.9223	9,189.7	74.0777	9,189.7	75.7292	9,189.7	73.005	9,189.7	74.5082	9,189.7	68.3268	9,189.7	72.4068	9,189.7	67.9528	9,189.7	70.5766	9,189.7	67.9525	9,189.7	68.788	9,189.7	60.0647	9,189.7	65.3975	9,189.7	67.8255	9,189.7	64.1324	9,189.7	60.3608	9,189.7	63.4503	9,189.7	65.1572
9,849.24	83.7611	9,849.24	82.4903	9,849.24	83.1779	9,849.24	79.6843	9,849.24	80.493	9,849.24	76.1118	9,849.24	76.4324	9,849.24	75.188	9,849.24	76.4703	9,849.24	77.9532	9,849.24	78.9963	9,849.24	79.9257	9,849.24	80.1147	9,849.24	80.7212	9,849.24	80.38	9,849.24	78.8184	9,849.24	79.4765	9,849.24	75.9404	9,849.24	77.6589	9,849.24	73.4384	9,849.24	75.7828	9,849.24	71.4986	9,849.24	72.0697	9,849.24	70.2151	9,849.24	69.4594	9,849.24	69.2545	9,849.24	69.706	9,849.24	67.4796	9,849.24	68.5397	9,849.24	59.2485	9,849.24	64.3408	9,849.24	63.6282	9,849.24	60.0433	9,849.24	64.7412	9,849.24	61.8191	9,849.24	67.0383
10,556	85.6959	10,556	84.0169	10,556	84.5419	10,556	81.0538	10,556	81.5505	10,556	79.6959	10,556	80.7003	10,556	80.6301	10,556	81.6553	10,556	81.6755	10,556	82.5856	10,556	82.8643	10,556	82.7419	10,556	82.2047	10,556	81.2795	10,556	80.0596	10,556	79.8282	10,556	77.2415	10,556	77.9895	10,556	74.5245	10,556	74.8158	10,556	72.2456	10,556	72.4377	10,556	70.3947	10,556	70.1544	10,556	66.9755	10,556	69.5823	10,556	66.1024	10,556	67.8767	10,556	62.8445	10,556	66.5017	10,556	64.1983	10,556	56.3534	10,556	62.0389	10,556	62.4205	10,556	67.6777
11,313.7	86.5178	11,313.7	84.7773	11,313.7	85.5934	11,313.7	82.8425	11,313.7	83.6351	11,313.7	83.156	11,313.7	83.663	11,313.7	83.0385	11,313.7	83.4842	11,313.7	82.9989	11,313.7	83.139	11,313.7	82.9859	11,313.7	82.7902	11,313.7	81.4957	11,313.7	81.421	11,313.7	79.0538	11,313.7	79.3633	11,313.7	75.854	11,313.7	76.6989	11,313.7	73.0089	11,313.7	74.0149	11,313.7	70.8348	11,313.7	71.8424	11,313.7	66.4116	11,313.7	69.9493	11,313.7	67.1826	11,313.7	68.4843	11,313.7	54.6846	11,313.7	66.4003	11,313.7	58.518	11,313.7	65.3496	11,313.7	61.53	11,313.7	47.426	11,313.7	57.3558	11,313.7	60.5078	11,313.7	65.2104
12,125.6	87.063	12,125.6	85.7312	12,125.6	85.8857	12,125.6	84.8673	12,125.6	85.2366	12,125.6	85.166	12,125.6	85.6132	12,125.6	84.3775	12,125.6	84.7663	12,125.6	83.2943	12,125.6	83.8107	12,125.6	81.8281	12,125.6	82.3894	12,125.6	79.3592	12,125.6	80.2235	12,125.6	75.607	12,125.6	77.6165	12,125.6	71.281	12,125.6	74.5224	12,125.6	67.6497	12,125.6	71.1111	12,125.6	64.1943	12,125.6	66.8224	12,125.6	57.1705	12,125.6	65.1011	12,125.6	58.5855	12,125.6	63.009	12,125.6	51.5043	12,125.6	59.4108	12,125.6	47.8667	12,125.6	56.3743	12,125.6	55.5027	12,125.6	50.0696	12,125.6	54.9459	12,125.6	57.245	12,125.6	62.9747
12,996.1	85.1559	12,996.1	84.6542	12,996.1	84.2981	12,996.1	85.4171	12,996.1	85.2037	12,996.1	85.6782	12,996.1	86.0933	12,996.1	83.6419	12,996.1	84.7507	12,996.1	81.7649	12,996.1	81.8802	12,996.1	79.1326	12,996.1	79.3979	12,996.1	73.8621	12,996.1	76.8591	12,996.1	67.259	12,996.1	71.4698	12,996.1	51.073	12,996.1	63.3955	12,996.1	59.4748	12,996.1	55.435	12,996.1	56.2888	12,996.1	58.0654	12,996.1	60.5933	12,996.1	56.6566	12,996.1	59.1304	12,996.1	55.6232	12,996.1	55.796	12,996.1	57.0598	12,996.1	53.7164	12,996.1	58.4333	12,996.1	47.5465	12,996.1	50.8352	12,996.1	54.2326	12,996.1	45.2018	12,996.1	62.0113
13,928.8	84.2511	13,928.8	84.9204	13,928.8	84.538	13,928.8	87.4695	13,928.8	86.3367	13,928.8	86.8292	13,928.8	86.9455	13,928.8	83.7561	13,928.8	84.8113	13,928.8	80.5162	13,928.8	79.3667	13,928.8	77.6167	13,928.8	76.1764	13,928.8	72.4692	13,928.8	75.1849	13,928.8	57.8229	13,928.8	69.1757	13,928.8	63.0455	13,928.8	54.1354	13,928.8	65.1127	13,928.8	59.9969	13,928.8	64.9883	13,928.8	63.1876	13,928.8	64.5111	13,928.8	63.7982	13,928.8	62.2354	13,928.8	60.8973	13,928.8	59.5148	13,928.8	64.4445	13,928.8	56.6039	13,928.8	61.6062	13,928.8	49.0593	13,928.8	56.3692	13,928.8	54.5837	13,928.8	40.6118	13,928.8	60.397
14,928.6	81.8488	14,928.6	84.8466	14,928.6	84.4159	14,928.6	88.5191	14,928.6	88.0076	14,928.6	88.3399	14,928.6	88.5425	14,928.6	83.8309	14,928.6	85.7307	14,928.6	76.6986	14,928.6	78.2043	14,928.6	71.8065	14,928.6	66.7781	14,928.6	56.5068	14,928.6	69.5439	14,928.6	66.6368	14,928.6	62.3678	14,928.6	71.0506	14,928.6	67.9709	14,928.6	71.1909	14,928.6	70.2515	14,928.6	70.178	14,928.6	69.4248	14,928.6	70.0108	14,928.6	69.2569	14,928.6	67.6773	14,928.6	67.3438	14,928.6	62.8659	14,928.6	66.5392	14,928.6	58.503	14,928.6	64.7038	14,928.6	51.7355	14,928.6	55.2063	14,928.6	51.7134	14,928.6	52.7741	14,928.6	61.6563
16,000.1	83.252	16,000.1	85.9547	16,000.1	85.2498	16,000.1	88.5578	16,000.1	87.82	16,000.1	87.5921	16,000.1	87.988	16,000.1	82.642	16,000.1	85.2337	16,000.1	74.5871	16,000.1	78.5251	16,000.1	63.1053	16,000.1	67.793	16,000.1	66.5524	16,000.1	65.3138	16,000.1	69.0048	16,000.1	68.238	16,000.1	71.8679	16,000.1	72.4654	16,000.1	70.7229	16,000.1	73.7704	16,000.1	71.1573	16,000.1	71.3845	16,000.1	68.8091	16,000.1	70.9161	16,000.1	67.6415	16,000.1	70.5266	16,000.1	55.6884	16,000.1	68.5589	16,000.1	55.8505	16,000.1	63.5018	16,000.1	49.0579	16,000.1	56.2632	16,000.1	47.816	16,000.1	58.9103	16,000.1	61.1338
17,148.2	78.1433	17,148.2	76.4588	17,148.2	76.8789	17,148.2	74.0263	17,148.2	74.8678	17,148.2	65.8805	17,148.2	73.2217	17,148.2	63.7923	17,148.2	73.9009	17,148.2	48.5238	17,148.2	71.0285	17,148.2	57.5154	17,148.2	65.6223	17,148.2	63.1428	17,148.2	65.9777	17,148.2	66.8117	17,148.2	65.4297	17,148.2	67.8343	17,148.2	65.752	17,148.2	64.9372	17,148.2	66.8325	17,148.2	63.3415	17,148.2	64.5207	17,148.2	62.2272	17,148.2	64.6674	17,148.2	59.434	17,148.2	62.7881	17,148.2	53.9035	17,148.2	59.7077	17,148.2	50.0473	17,148.2	56.4487	17,148.2	40.3094	17,148.2	52.7365	17,148.2	38.1334	17,148.2	44.2252	17,148.2	56.2249
18,379	86.7798	18,379	84.867	18,379	86.5609	18,379	79.9203	18,379	84.5363	18,379	76.6186	18,379	80.0409	18,379	71.3886	18,379	79.3155	18,379	62.9661	18,379	76.8609	18,379	71.6514	18,379	71.8517	18,379	73.1661	18,379	72.4132	18,379	74.671	18,379	72.6394	18,379	74.2238	18,379	72.1147	18,379	70.1599	18,379	72.5124	18,379	68.7612	18,379	71.8786	18,379	65.4541	18,379	68.6639	18,379	65.115	18,379	67.3845	18,379	59.2336	18,379	63.4483	18,379	53.1515	18,379	63.5611	18,379	55.6099	18,379	61.4025	18,379	40.1908	18,379	58.3861	18,379	59.9503
19,698.5	86.3305	19,698.5	81.1533	19,698.5	85.1557	19,698.5	74.8844	19,698.5	78.0192	19,698.5	76.4589	19,698.5	75.4397	19,698.5	74.0046	19,698.5	76.6438	19,698.5	71.1602	19,698.5	73.3195	19,698.5	71.9495	19,698.5	70.6167	19,698.5	70.3164	19,698.5	71.1319	19,698.5	69.5215	19,698.5	69.0038	19,698.5	65.3385	19,698.5	67.5333	19,698.5	56.744	19,698.5	64.9672	19,698.5	54.3369	19,698.5	63.2885	19,698.5	57.6281	19,698.5	59.3562	19,698.5	60.9753	19,698.5	58.5713	19,698.5	58.5664	19,698.5	46.4136	19,698.5	49.5191	19,698.5	55.6574	19,698.5	55.9622	19,698.5	52.7949	19,698.5	44.9925	19,698.5	51.4544	19,698.5	52.9418
19,999.9	88.8831	19,999.9	83.9838	19,999.9	86.5544	19,999.9	76.3515	19,999.9	79.2792	19,999.9	79.7142	19,999.9	78.1564	19,999.9	76.9424	19,999.9	74.6651	19,999.9	75.2532	19,999.9	73.7116	19,999.9	72.9245	19,999.9	71.1787	19,999.9	69.2026	19,999.9	72.2618	19,999.9	70.7088	19,999.9	68.721	19,999.9	63.8066	19,999.9	68.8391	19,999.9	47.9505	19,999.9	65.641	19,999.9	58.0812	19,999.9	64.7696	19,999.9	58.9133	19,999.9	54.4068	19,999.9	63.3066	19,999.9	60.4129	19,999.9	55.6147	19,999.9	52.9072	19,999.9	46.266	19,999.9	55.5822	19,999.9	61.041	19,999.9	54.3382	19,999.9	60.2787	19,999.9	55.4702	19,999.9	62.4784
