"SPL Vertical"
"On-Axis"		"10°"		"-10°"		"20°"		"-20°"		"30°"		"-30°"		"40°"		"-40°"		"50°"		"-50°"		"60°"		"-60°"		"70°"		"-70°"		"80°"		"-80°"		"90°"		"-90°"		"100°"		"-100°"		"110°"		"-110°"		"120°"		"-120°"		"130°"		"-130°"		"140°"		"-140°"		"150°"		"-150°"		"160°"		"-160°"		"170°"		"-170°"		"180°"
"Frequency / Hz"	"Sound Pressure Level / dB (re 20 µPa/V)  [2.83  V @ 1. m]"	"Frequency / Hz"	"Sound Pressure Level / dB (re 20 µPa/V)  [2.83  V @ 1. m]"	"Frequency / Hz"	"Sound Pressure Level / dB (re 20 µPa/V)  [2.83  V @ 1. m]"	"Frequency / Hz"	"Sound Pressure Level / dB (re 20 µPa/V)  [2.83  V @ 1. m]"	"Frequency / Hz"	"Sound Pressure Level / dB (re 20 µPa/V)  [2.83  V @ 1. m]"	"Frequency / Hz"	"Sound Pressure Level / dB (re 20 µPa/V)  [2.83  V @ 1. m]"	"Frequency / Hz"	"Sound Pressure Level / dB (re 20 µPa/V)  [2.83  V @ 1. m]"	"Frequency / Hz"	"Sound Pressure Level / dB (re 20 µPa/V)  [2.83  V @ 1. m]"	"Frequency / Hz"	"Sound Pressure Level / dB (re 20 µPa/V)  [2.83  V @ 1. m]"	"Frequency / Hz"	"Sound Pressure Level / dB (re 20 µPa/V)  [2.83  V @ 1. m]"	"Frequency / Hz"	"Sound Pressure Level / dB (re 20 µPa/V)  [2.83  V @ 1. m]"	"Frequency / Hz"	"Sound Pressure Level / dB (re 20 µPa/V)  [2.83  V @ 1. m]"	"Frequency / Hz"	"Sound Pressure Level / dB (re 20 µPa/V)  [2.83  V @ 1. m]"	"Frequency / Hz"	"Sound Pressure Level / dB (re 20 µPa/V)  [2.83  V @ 1. m]"	"Frequency / Hz"	"Sound Pressure Level / dB (re 20 µPa/V)  [2.83  V @ 1. m]"	"Frequency / Hz"	"Sound Pressure Level / dB (re 20 µPa/V)  [2.83  V @ 1. m]"	"Frequency / Hz"	"Sound Pressure Level / dB (re 20 µPa/V)  [2.83  V @ 1. m]"	"Frequency / Hz"	"Sound Pressure Level / dB (re 20 µPa/V)  [2.83  V @ 1. m]"	"Frequency / Hz"	"Sound Pressure Level / dB (re 20 µPa/V)  [2.83  V @ 1. m]"	"Frequency / Hz"	"Sound Pressure Level / dB (re 20 µPa/V)  [2.83  V @ 1. m]"	"Frequency / Hz"	"Sound Pressure Level / dB (re 20 µPa/V)  [2.83  V @ 1. m]"	"Frequency / Hz"	"Sound Pressure Level / dB (re 20 µPa/V)  [2.83  V @ 1. m]"	"Frequency / Hz"	"Sound Pressure Level / dB (re 20 µPa/V)  [2.83  V @ 1. m]"	"Frequency / Hz"	"Sound Pressure Level / dB (re 20 µPa/V)  [2.83  V @ 1. m]"	"Frequency / Hz"	"Sound Pressure Level / dB (re 20 µPa/V)  [2.83  V @ 1. m]"	"Frequency / Hz"	"Sound Pressure Level / dB (re 20 µPa/V)  [2.83  V @ 1. m]"	"Frequency / Hz"	"Sound Pressure Level / dB (re 20 µPa/V)  [2.83  V @ 1. m]"	"Frequency / Hz"	"Sound Pressure Level / dB (re 20 µPa/V)  [2.83  V @ 1. m]"	"Frequency / Hz"	"Sound Pressure Level / dB (re 20 µPa/V)  [2.83  V @ 1. m]"	"Frequency / Hz"	"Sound Pressure Level / dB (re 20 µPa/V)  [2.83  V @ 1. m]"	"Frequency / Hz"	"Sound Pressure Level / dB (re 20 µPa/V)  [2.83  V @ 1. m]"	"Frequency / Hz"	"Sound Pressure Level / dB (re 20 µPa/V)  [2.83  V @ 1. m]"	"Frequency / Hz"	"Sound Pressure Level / dB (re 20 µPa/V)  [2.83  V @ 1. m]"	"Frequency / Hz"	"Sound Pressure Level / dB (re 20 µPa/V)  [2.83  V @ 1. m]"	"Frequency / Hz"	"Sound Pressure Level / dB (re 20 µPa/V)  [2.83  V @ 1. m]"	"Frequency / Hz"	"Sound Pressure Level / dB (re 20 µPa/V)  [2.83  V @ 1. m]"
20.1416	62.1922	20.1416	62.2784	20.1416	62.1084	20.1416	62.3638	20.1416	62.0284	20.1416	62.4438	20.1416	61.9517	20.1416	62.5135	20.1416	61.8761	20.1416	62.5695	20.1416	61.7991	20.1416	62.6096	20.1416	61.7178	20.1416	62.6322	20.1416	61.63	20.1416	62.6348	20.1416	61.5338	20.1416	62.6118	20.1416	61.4282	20.1416	62.5547	20.1416	61.3131	20.1416	62.453	20.1416	61.1902	20.1416	62.2986	20.1416	61.0632	20.1416	62.0899	20.1416	60.9393	20.1416	61.8353	20.1416	60.8292	20.1416	61.5548	20.1416	60.7482	20.1416	61.2771	20.1416	60.7142	20.1416	61.0338	20.1416	60.7448	20.1416	60.8515
20.5078	62.4471	20.5078	62.5345	20.5078	62.3535	20.5078	62.6121	20.5078	62.2555	20.5078	62.6755	20.5078	62.1535	20.5078	62.7203	20.5078	62.047	20.5078	62.7435	20.5078	61.9347	20.5078	62.7438	20.5078	61.8153	20.5078	62.7211	20.5078	61.6878	20.5078	62.6753	20.5078	61.5516	20.5078	62.6044	20.5078	61.4072	20.5078	62.5032	20.5078	61.2558	20.5078	62.365	20.5078	61.1007	20.5078	62.1834	20.5078	60.9471	20.5078	61.9576	20.5078	60.8034	20.5078	61.6947	20.5078	60.6812	20.5078	61.4121	20.5078	60.5952	20.5078	61.1349	20.5078	60.5621	20.5078	60.8918	20.5078	60.5967	20.5078	60.7074
21.9727	61.4538	21.9727	61.4609	21.9727	61.4341	21.9727	61.4541	21.9727	61.4017	21.9727	61.4317	21.9727	61.3559	21.9727	61.3919	21.9727	61.2957	21.9727	61.3339	21.9727	61.2204	21.9727	61.2586	21.9727	61.1299	21.9727	61.1688	21.9727	61.0251	21.9727	61.0679	21.9727	60.9076	21.9727	60.9582	21.9727	60.7804	21.9727	60.8401	21.9727	60.6467	21.9727	60.7125	21.9727	60.5107	21.9727	60.5744	21.9727	60.3768	21.9727	60.428	21.9727	60.2495	21.9727	60.2803	21.9727	60.1338	21.9727	60.1428	21.9727	60.0355	21.9727	60.0289	21.9727	59.961	21.9727	59.95	21.9727	59.9179	21.9727	59.9128
23.8037	62.4606	23.8037	62.4164	23.8037	62.4922	23.8037	62.3588	23.8037	62.5106	23.8037	62.2865	23.8037	62.5149	23.8037	62.198	23.8037	62.5036	23.8037	62.092	23.8037	62.4753	23.8037	61.969	23.8037	62.429	23.8037	61.8309	23.8037	62.3638	23.8037	61.6815	23.8037	62.2798	23.8037	61.5256	23.8037	62.1771	23.8037	61.3686	23.8037	62.0567	23.8037	61.2157	23.8037	61.9201	23.8037	61.0728	23.8037	61.7696	23.8037	60.9469	23.8037	61.6081	23.8037	60.8469	23.8037	61.4404	23.8037	60.7822	23.8037	61.2725	23.8037	60.761	23.8037	61.1128	23.8037	60.7872	23.8037	60.9715	23.8037	60.8596
25.2686	62.8863	25.2686	62.8252	25.2686	62.9326	25.2686	62.7491	25.2686	62.9638	25.2686	62.657	25.2686	62.9789	25.2686	62.5477	25.2686	62.9767	25.2686	62.4207	25.2686	62.9561	25.2686	62.2769	25.2686	62.9161	25.2686	62.1191	25.2686	62.8563	25.2686	61.9524	25.2686	62.7764	25.2686	61.7839	25.2686	62.677	25.2686	61.6214	25.2686	62.5593	25.2686	61.4731	25.2686	62.4248	25.2686	61.3467	25.2686	62.2761	25.2686	61.2495	25.2686	62.1165	25.2686	61.1876	25.2686	61.9501	25.2686	61.1655	25.2686	61.7825	25.2686	61.1854	25.2686	61.6202	25.2686	61.2462	25.2686	61.4711	25.2686	61.3437
27.0996	63.6335	27.0996	63.5469	27.0996	63.7051	27.0996	63.4459	27.0996	63.7604	27.0996	63.3309	27.0996	63.7981	27.0996	63.202	27.0996	63.8165	27.0996	63.06	27.0996	63.8141	27.0996	62.9063	27.0996	63.79	27.0996	62.7441	27.0996	63.7434	27.0996	62.5784	27.0996	63.6745	27.0996	62.4161	27.0996	63.584	27.0996	62.2657	27.0996	63.4735	27.0996	62.1361	27.0996	63.3452	27.0996	62.036	27.0996	63.202	27.0996	61.9725	27.0996	63.0473	27.0996	61.9504	27.0996	62.8848	27.0996	61.9708	27.0996	62.7189	27.0996	62.0316	27.0996	62.5542	27.0996	62.1276	27.0996	62.3964	27.0996	62.2517
29.2969	65.3029	29.2969	65.2117	29.2969	65.382	29.2969	65.1098	29.2969	65.4475	29.2969	64.9985	29.2969	65.4978	29.2969	64.879	29.2969	65.5312	29.2969	64.7527	29.2969	65.5463	29.2969	64.6218	29.2969	65.5422	29.2969	64.4898	29.2969	65.5184	29.2969	64.3614	29.2969	65.475	29.2969	64.2425	29.2969	65.4126	29.2969	64.1399	29.2969	65.3326	29.2969	64.0604	29.2969	65.2367	29.2969	64.0096	29.2969	65.1273	29.2969	63.9912	29.2969	65.0069	29.2969	64.0066	29.2969	64.8782	29.2969	64.0543	29.2969	64.7443	29.2969	64.1303	29.2969	64.6083	29.2969	64.2296	29.2969	64.4741	29.2969	64.3461
31.1279	66.2086	31.1279	66.0979	31.1279	66.3035	31.1279	65.974	31.1279	66.3802	31.1279	65.839	31.1279	66.4369	31.1279	65.6953	31.1279	66.4718	31.1279	65.5448	31.1279	66.4839	31.1279	65.3902	31.1279	66.4727	31.1279	65.2348	31.1279	66.4384	31.1279	65.0836	31.1279	66.3814	31.1279	64.943	31.1279	66.3032	31.1279	64.821	31.1279	66.2053	31.1279	64.7257	31.1279	66.09	31.1279	64.6643	31.1279	65.9599	31.1279	64.6414	31.1279	65.8181	31.1279	64.6587	31.1279	65.6677	31.1279	64.714	31.1279	65.512	31.1279	64.8025	31.1279	65.3547	31.1279	64.9176	31.1279	65.1998	31.1279	65.0522
33.3252	67.7176	33.3252	67.6334	33.3252	67.7913	33.3252	67.5406	33.3252	67.8526	33.3252	67.441	33.3252	67.8998	33.3252	67.3367	33.3252	67.9315	33.3252	67.2297	33.3252	67.9467	33.3252	67.1224	33.3252	67.9446	33.3252	67.0182	33.3252	67.9252	33.3252	66.9209	33.3252	67.889	33.3252	66.8353	33.3252	67.8368	33.3252	66.7661	33.3252	67.7704	33.3252	66.7177	33.3252	67.6915	33.3252	66.6932	33.3252	67.6027	33.3252	66.6937	33.3252	67.5063	33.3252	66.7185	33.3252	67.4051	33.3252	66.7652	33.3252	67.3014	33.3252	66.8301	33.3252	67.1977	33.3252	66.9093	33.3252	67.0961	33.3252	66.9991
35.8887	68.9002	35.8887	68.8061	35.8887	68.9828	35.8887	68.7031	35.8887	69.0514	35.8887	68.5941	35.8887	69.1037	35.8887	68.4818	35.8887	69.1381	35.8887	68.369	35.8887	69.1532	35.8887	68.2589	35.8887	69.1483	35.8887	68.1545	35.8887	69.1235	35.8887	68.0594	35.8887	69.0794	35.8887	67.9772	35.8887	69.0175	35.8887	67.9117	35.8887	68.9398	35.8887	67.866	35.8887	68.8492	35.8887	67.8421	35.8887	68.7488	35.8887	67.841	35.8887	68.642	35.8887	67.8618	35.8887	68.5321	35.8887	67.9027	35.8887	68.4223	35.8887	67.9611	35.8887	68.3153	35.8887	68.034	35.8887	68.2134	35.8887	68.119
38.4521	70.4044	38.4521	70.3222	38.4521	70.4766	38.4521	70.2323	38.4521	70.5364	38.4521	70.1376	38.4521	70.582	38.4521	70.0409	38.4521	70.6116	38.4521	69.945	38.4521	70.6244	38.4521	69.8529	38.4521	70.6198	38.4521	69.7675	38.4521	70.5978	38.4521	69.6918	38.4521	70.5594	38.4521	69.6285	38.4521	70.5059	38.4521	69.5802	38.4521	70.4395	38.4521	69.5485	38.4521	70.3628	38.4521	69.5344	38.4521	70.2787	38.4521	69.538	38.4521	70.1902	38.4521	69.5581	38.4521	70.1001	38.4521	69.5933	38.4521	70.0109	38.4521	69.6413	38.4521	69.9249	38.4521	69.7002	38.4521	69.8434	38.4521	69.7681
41.3818	72.2685	41.3818	72.1731	41.3818	72.355	41.3818	72.0717	41.3818	72.4296	41.3818	71.9679	41.3818	72.4901	41.3818	71.8652	41.3818	72.5346	41.3818	71.7673	41.3818	72.5616	41.3818	71.6776	41.3818	72.5702	41.3818	71.5992	41.3818	72.5601	41.3818	71.5349	41.3818	72.5315	41.3818	71.4869	41.3818	72.4858	41.3818	71.4567	41.3818	72.4249	41.3818	71.4449	41.3818	72.3515	41.3818	71.4509	41.3818	72.2689	41.3818	71.4734	41.3818	72.1805	41.3818	71.5101	41.3818	72.0899	41.3818	71.5585	41.3818	72	41.3818	71.6163	41.3818	71.9131	41.3818	71.6815	41.3818	71.8305	41.3818	71.7532
44.3115	73.1643	44.3115	73.0904	44.3115	73.2323	44.3115	73.0134	44.3115	73.2919	44.3115	72.9361	44.3115	73.3412	44.3115	72.8614	44.3115	73.3783	44.3115	72.792	44.3115	73.4021	44.3115	72.7305	44.3115	73.4117	44.3115	72.6789	44.3115	73.4071	44.3115	72.6389	44.3115	73.3887	44.3115	72.6114	44.3115	73.3577	44.3115	72.5969	44.3115	73.3155	44.3115	72.5949	44.3115	73.2644	44.3115	72.6046	44.3115	73.2066	44.3115	72.6249	44.3115	73.1445	44.3115	72.6541	44.3115	73.0802	44.3115	72.691	44.3115	73.0158	44.3115	72.7341	44.3115	72.9528	44.3115	72.7825	44.3115	72.8925	44.3115	72.8355
47.2412	73.9196	47.2412	73.8335	47.2412	74.0051	47.2412	73.7509	47.2412	74.0866	47.2412	73.6756	47.2412	74.1607	47.2412	73.6112	47.2412	74.2248	47.2412	73.5608	47.2412	74.2768	47.2412	73.5267	47.2412	74.3155	47.2412	73.5102	47.2412	74.3403	47.2412	73.5114	47.2412	74.3515	47.2412	73.5294	47.2412	74.35	47.2412	73.5621	47.2412	74.3373	47.2412	73.607	47.2412	74.3151	47.2412	73.6607	47.2412	74.2852	47.2412	73.7201	47.2412	74.2494	47.2412	73.7822	47.2412	74.2093	47.2412	73.8445	47.2412	74.1657	47.2412	73.9052	47.2412	74.1193	47.2412	73.9633	47.2412	74.0703	47.2412	74.0183
50.9033	75.7846	50.9033	75.7043	50.9033	75.8555	50.9033	75.618	50.9033	75.9146	50.9033	75.5299	50.9033	75.9603	50.9033	75.4449	50.9033	75.9916	50.9033	75.3684	50.9033	76.0077	50.9033	75.3054	50.9033	76.0087	50.9033	75.2595	50.9033	75.9949	50.9033	75.2324	50.9033	75.9674	50.9033	75.2235	50.9033	75.9276	50.9033	75.2297	50.9033	75.8775	50.9033	75.2468	50.9033	75.8196	50.9033	75.27	50.9033	75.7565	50.9033	75.2953	50.9033	75.6912	50.9033	75.3202	50.9033	75.6269	50.9033	75.3441	50.9033	75.5664	50.9033	75.3684	50.9033	75.5121	50.9033	75.3951	50.9033	75.4654	50.9033	75.4268
54.5654	76.9479	54.5654	76.8933	54.5654	76.9934	54.5654	76.8314	54.5654	77.0283	54.5654	76.7639	54.5654	77.0511	54.5654	76.6929	54.5654	77.0608	54.5654	76.6202	54.5654	77.0569	54.5654	76.5482	54.5654	77.0393	54.5654	76.4792	54.5654	77.0086	54.5654	76.416	54.5654	76.9661	54.5654	76.361	54.5654	76.9137	54.5654	76.3168	54.5654	76.8537	54.5654	76.285	54.5654	76.7889	54.5654	76.2662	54.5654	76.722	54.5654	76.2603	54.5654	76.6553	54.5654	76.2661	54.5654	76.591	54.5654	76.2823	54.5654	76.5305	54.5654	76.3073	54.5654	76.4746	54.5654	76.3399	54.5654	76.424	54.5654	76.3789
58.2275	77.7519	58.2275	77.7348	58.2275	77.7625	58.2275	77.711	58.2275	77.7665	58.2275	77.6798	58.2275	77.7638	58.2275	77.6405	58.2275	77.7538	58.2275	77.592	58.2275	77.7363	58.2275	77.5343	58.2275	77.7112	58.2275	77.468	58.2275	77.6786	58.2275	77.3954	58.2275	77.6391	58.2275	77.3202	58.2275	77.5937	58.2275	77.2474	58.2275	77.5438	58.2275	77.1823	58.2275	77.491	58.2275	77.13	58.2275	77.437	58.2275	77.094	58.2275	77.3834	58.2275	77.0758	58.2275	77.3311	58.2275	77.0748	58.2275	77.281	58.2275	77.0888	58.2275	77.2335	58.2275	77.1145	58.2275	77.1891	58.2275	77.1488
62.6221	78.8935	62.6221	78.8336	62.6221	78.943	62.6221	78.7638	62.6221	78.9816	62.6221	78.6849	62.6221	79.0082	62.6221	78.5976	62.6221	79.0222	62.6221	78.5033	62.6221	79.0225	62.6221	78.4039	62.6221	79.0085	62.6221	78.3018	62.6221	78.9799	62.6221	78.2002	62.6221	78.9367	62.6221	78.103	62.6221	78.8796	62.6221	78.0144	62.6221	78.8093	62.6221	77.9387	62.6221	78.7272	62.6221	77.8804	62.6221	78.6349	62.6221	77.8431	62.6221	78.5343	62.6221	77.8296	62.6221	78.4279	62.6221	77.8412	62.6221	78.3186	62.6221	77.8775	62.6221	78.2104	62.6221	77.9364	62.6221	78.1074	62.6221	78.0145
67.0166	79.373	67.0166	79.3104	67.0166	79.4295	67.0166	79.2451	67.0166	79.4772	67.0166	79.1803	67.0166	79.5136	67.0166	79.1192	67.0166	79.5374	67.0166	79.0642	67.0166	79.5479	67.0166	79.0175	67.0166	79.5454	67.0166	78.9804	67.0166	79.531	67.0166	78.9536	67.0166	79.5068	67.0166	78.9376	67.0166	79.475	67.0166	78.9322	67.0166	79.4382	67.0166	78.937	67.0166	79.3989	67.0166	78.951	67.0166	79.3591	67.0166	78.973	67.0166	79.3201	67.0166	79.0011	67.0166	79.2825	67.0166	79.0335	67.0166	79.2462	67.0166	79.0684	67.0166	79.2108	67.0166	79.1043	67.0166	79.1757	67.0166	79.1402
71.7773	80.1177	71.7773	80.0433	71.7773	80.181	71.7773	79.961	71.7773	80.2299	71.7773	79.8745	71.7773	80.2618	71.7773	79.787	71.7773	80.2749	71.7773	79.7013	71.7773	80.2681	71.7773	79.6197	71.7773	80.241	71.7773	79.5438	71.7773	80.1945	71.7773	79.4749	71.7773	80.1301	71.7773	79.4137	71.7773	80.0503	71.7773	79.3605	71.7773	79.9585	71.7773	79.316	71.7773	79.8589	71.7773	79.2806	71.7773	79.7561	71.7773	79.2548	71.7773	79.6548	71.7773	79.2394	71.7773	79.5595	71.7773	79.235	71.7773	79.4738	71.7773	79.2422	71.7773	79.4003	71.7773	79.2617	71.7773	79.3403	71.7773	79.2942
76.9043	80.7017	76.9043	80.6281	76.9043	80.7711	76.9043	80.5541	76.9043	80.8325	76.9043	80.4836	76.9043	80.8832	76.9043	80.4199	76.9043	80.9213	76.9043	80.3653	76.9043	80.9455	76.9043	80.3208	76.9043	80.955	76.9043	80.2862	76.9043	80.9498	76.9043	80.2608	76.9043	80.9299	76.9043	80.2435	76.9043	80.8961	76.9043	80.2333	76.9043	80.8496	76.9043	80.2294	76.9043	80.7924	76.9043	80.2312	76.9043	80.7272	76.9043	80.2383	76.9043	80.6574	76.9043	80.2505	76.9043	80.5868	76.9043	80.2678	76.9043	80.5189	76.9043	80.2908	76.9043	80.4569	76.9043	80.3202	76.9043	80.4027	76.9043	80.3572
82.3975	80.9597	82.3975	80.8981	82.3975	81.0153	82.3975	80.8303	82.3975	81.0648	82.3975	80.7568	82.3975	81.1082	82.3975	80.6786	82.3975	81.1452	82.3975	80.5978	82.3975	81.1749	82.3975	80.5166	82.3975	81.1961	82.3975	80.4378	82.3975	81.207	82.3975	80.3639	82.3975	81.2054	82.3975	80.297	82.3975	81.1889	82.3975	80.2392	82.3975	81.155	82.3975	80.1924	82.3975	81.1017	82.3975	80.1587	82.3975	81.0284	82.3975	80.1406	82.3975	80.936	82.3975	80.1407	82.3975	80.8277	82.3975	80.1618	82.3975	80.7088	82.3975	80.2057	82.3975	80.5863	82.3975	80.2728	82.3975	80.468	82.3975	80.3615
88.2568	81.4443	88.2568	81.3902	88.2568	81.498	88.2568	81.3358	88.2568	81.5512	88.2568	81.2817	88.2568	81.6035	88.2568	81.2287	88.2568	81.655	88.2568	81.1783	88.2568	81.706	88.2568	81.1329	88.2568	81.757	88.2568	81.0955	88.2568	81.8089	88.2568	81.0692	88.2568	81.8616	88.2568	81.0571	88.2568	81.9145	88.2568	81.0617	88.2568	81.965	88.2568	81.085	88.2568	82.0089	88.2568	81.1283	88.2568	82.0407	88.2568	81.1924	88.2568	82.0541	88.2568	81.2767	88.2568	82.0437	88.2568	81.3791	88.2568	82.006	88.2568	81.4953	88.2568	81.9404	88.2568	81.6182	88.2568	81.8495	88.2568	81.7394
94.8486	82.8278	94.8486	82.7851	94.8486	82.8466	94.8486	82.7207	94.8486	82.8413	94.8486	82.6387	94.8486	82.8135	94.8486	82.5443	94.8486	82.7665	94.8486	82.4435	94.8486	82.7052	94.8486	82.3421	94.8486	82.6354	94.8486	82.2451	94.8486	82.563	94.8486	82.1565	94.8486	82.4938	94.8486	82.0792	94.8486	82.4325	94.8486	82.0157	94.8486	82.3818	94.8486	81.9681	94.8486	82.3419	94.8486	81.9383	94.8486	82.3108	94.8486	81.9274	94.8486	82.2845	94.8486	81.9353	94.8486	82.2584	94.8486	81.9602	94.8486	82.2281	94.8486	81.9988	94.8486	82.1912	94.8486	82.0463	94.8486	82.1469	94.8486	82.0974
101.44	82.0834	101.44	81.9806	101.44	82.1787	101.44	81.8758	101.44	82.2617	101.44	81.7742	101.44	82.3283	101.44	81.681	101.44	82.3764	101.44	81.6015	101.44	82.406	101.44	81.5418	101.44	82.4193	101.44	81.5093	101.44	82.4202	101.44	81.5111	101.44	82.4142	101.44	81.5526	101.44	82.4071	101.44	81.6354	101.44	82.4046	101.44	81.7551	101.44	82.4109	101.44	81.9016	101.44	82.4284	101.44	82.0603	101.44	82.4568	101.44	82.2152	101.44	82.4927	101.44	82.3519	101.44	82.5303	101.44	82.4596	101.44	82.5619	101.44	82.5328	101.44	82.5784	101.44	82.5711
108.765	83.3277	108.765	83.2637	108.765	83.3679	108.765	83.1779	108.765	83.3835	108.765	83.0731	108.765	83.375	108.765	82.9534	108.765	83.3434	108.765	82.8237	108.765	83.2908	108.765	82.6894	108.765	83.2199	108.765	82.5567	108.765	83.134	108.765	82.4317	108.765	83.0372	108.765	82.3203	108.765	82.9342	108.765	82.2275	108.765	82.8295	108.765	82.1573	108.765	82.7278	108.765	82.1116	108.765	82.6327	108.765	82.0902	108.765	82.5463	108.765	82.0909	108.765	82.4695	108.765	82.1098	108.765	82.4013	108.765	82.1424	108.765	82.3401	108.765	82.1843	108.765	82.2841	108.765	82.2321
116.455	83.2136	116.455	83.1634	116.455	83.2418	116.455	83.0934	116.455	83.247	116.455	83.0059	116.455	83.2289	116.455	82.904	116.455	83.1882	116.455	82.7901	116.455	83.1261	116.455	82.6668	116.455	83.0443	116.455	82.5363	116.455	82.9444	116.455	82.4006	116.455	82.8282	116.455	82.2627	116.455	82.6976	116.455	82.1259	116.455	82.5549	116.455	81.9946	116.455	82.4036	116.455	81.8735	116.455	82.248	116.455	81.7673	116.455	82.094	116.455	81.6804	116.455	81.9488	116.455	81.6161	116.455	81.8195	116.455	81.5773	116.455	81.7129	116.455	81.5662	116.455	81.6337	116.455	81.5847
124.878	82.9839	124.878	82.9192	124.878	83.0358	124.878	82.8446	124.878	83.0733	124.878	82.7638	124.878	83.0961	124.878	82.6814	124.878	83.1052	124.878	82.6018	124.878	83.1022	124.878	82.5285	124.878	83.0896	124.878	82.4639	124.878	83.0696	124.878	82.4091	124.878	83.0446	124.878	82.364	124.878	83.016	124.878	82.3286	124.878	82.9843	124.878	82.3032	124.878	82.9488	124.878	82.2887	124.878	82.9083	124.878	82.2874	124.878	82.8607	124.878	82.3012	124.878	82.8047	124.878	82.3318	124.878	82.7398	124.878	82.3789	124.878	82.6673	124.878	82.4406	124.878	82.59	124.878	82.5127
134.033	83.3501	134.033	83.2758	134.033	83.4042	134.033	83.1837	134.033	83.4372	134.033	83.0781	134.033	83.4497	134.033	82.9645	134.033	83.4436	134.033	82.8497	134.033	83.4218	134.033	82.7409	134.033	83.388	134.033	82.6445	134.033	83.3461	134.033	82.5654	134.033	83.2999	134.033	82.5063	134.033	83.2518	134.033	82.468	134.033	83.2036	134.033	82.4497	134.033	83.1554	134.033	82.4499	134.033	83.1065	134.033	82.4668	134.033	83.0553	134.033	82.4989	134.033	83.0003	134.033	82.5444	134.033	82.9405	134.033	82.601	134.033	82.8756	134.033	82.666	134.033	82.8066	134.033	82.7357
143.555	83.3841	143.555	83.3075	143.555	83.4378	143.555	83.2105	143.555	83.4673	143.555	83.0977	143.555	83.4731	143.555	82.9747	143.555	83.4573	143.555	82.8484	143.555	83.4232	143.555	82.7266	143.555	83.3755	143.555	82.617	143.555	83.3192	143.555	82.5264	143.555	83.2599	143.555	82.4599	143.555	83.2023	143.555	82.421	143.555	83.1505	143.555	82.4106	143.555	83.1067	143.555	82.4279	143.555	83.0714	143.555	82.47	143.555	83.0428	143.555	82.5325	143.555	83.0171	143.555	82.6088	143.555	82.9894	143.555	82.6915	143.555	82.9541	143.555	82.7728	143.555	82.9069	143.555	82.8461
153.809	83.311	153.809	83.2452	153.809	83.3514	153.809	83.156	153.809	83.3669	153.809	83.0476	153.809	83.3601	153.809	82.9262	153.809	83.3356	153.809	82.7997	153.809	83.2992	153.809	82.6771	153.809	83.2573	153.809	82.5668	153.809	83.2155	153.809	82.4764	153.809	83.1783	153.809	82.4113	153.809	83.1477	153.809	82.3744	153.809	83.1236	153.809	82.3663	153.809	83.104	153.809	82.3855	153.809	83.0854	153.809	82.4288	153.809	83.0641	153.809	82.4915	153.809	83.0364	153.809	82.5682	153.809	82.9993	153.809	82.6524	153.809	82.9509	153.809	82.7377	153.809	82.8904	153.809	82.8185
164.795	83.259	164.795	83.1966	164.795	83.3057	164.795	83.1218	164.795	83.3352	164.795	83.0393	164.795	83.3478	164.795	82.955	164.795	83.3458	164.795	82.8756	164.795	83.3328	164.795	82.8076	164.795	83.3135	164.795	82.7567	164.795	83.2924	164.795	82.7265	164.795	83.2733	164.795	82.7185	164.795	83.2583	164.795	82.7322	164.795	83.2479	164.795	82.7654	164.795	83.2419	164.795	82.8152	164.795	83.2393	164.795	82.8777	164.795	83.2392	164.795	82.9479	164.795	83.2401	164.795	83.0201	164.795	83.2396	164.795	83.0881	164.795	83.234	164.795	83.146	164.795	83.2187	164.795	83.1899
176.88	83.5467	176.88	83.5028	176.88	83.5575	176.88	83.4245	176.88	83.5387	176.88	83.3124	176.88	83.4957	176.88	83.1702	176.88	83.4356	176.88	83.0054	176.88	83.3665	176.88	82.8296	176.88	83.2963	176.88	82.6584	176.88	83.2314	176.88	82.5092	176.88	83.1755	176.88	82.3975	176.88	83.1289	176.88	82.3338	176.88	83.0892	176.88	82.3205	176.88	83.053	176.88	82.3522	176.88	83.0175	176.88	82.4176	176.88	82.9816	176.88	82.5022	176.88	82.9461	176.88	82.5918	176.88	82.9119	176.88	82.6751	176.88	82.8786	176.88	82.7452	176.88	82.8431	176.88	82.8003
189.331	83.2962	189.331	83.2795	189.331	83.2827	189.331	83.2317	189.331	83.242	189.331	83.1544	189.331	83.1797	189.331	83.0521	189.331	83.1031	189.331	82.9316	189.331	83.0218	189.331	82.802	189.331	82.946	189.331	82.6738	189.331	82.886	189.331	82.5572	189.331	82.8493	189.331	82.4614	189.331	82.8383	189.331	82.3927	189.331	82.8488	189.331	82.3541	189.331	82.8709	189.331	82.3447	189.331	82.8917	189.331	82.361	189.331	82.899	189.331	82.3979	189.331	82.8852	189.331	82.4498	189.331	82.8487	189.331	82.512	189.331	82.7933	189.331	82.5807	189.331	82.7259	189.331	82.6532
202.881	83.3824	202.881	83.3424	202.881	83.3784	202.881	83.261	202.881	83.3329	202.881	83.1455	202.881	83.2527	202.881	83.0067	202.881	83.1484	202.881	82.8579	202.881	83.0333	202.881	82.712	202.881	82.922	202.881	82.5798	202.881	82.8288	202.881	82.4678	202.881	82.7651	202.881	82.3789	202.881	82.7374	202.881	82.3129	202.881	82.7451	202.881	82.2692	202.881	82.7804	202.881	82.2481	202.881	82.8292	202.881	82.2522	202.881	82.8745	202.881	82.2846	202.881	82.8998	202.881	82.3471	202.881	82.8929	202.881	82.4374	202.881	82.8482	202.881	82.5472	202.881	82.7682	202.881	82.6629
217.529	83.3736	217.529	83.3426	217.529	83.372	217.529	83.276	217.529	83.342	217.529	83.1735	217.529	83.288	217.529	83.0399	217.529	83.2147	217.529	82.8858	217.529	83.1279	217.529	82.7262	217.529	83.035	217.529	82.5777	217.529	82.9446	217.529	82.4551	217.529	82.8653	217.529	82.3687	217.529	82.8046	217.529	82.3247	217.529	82.7686	217.529	82.3259	217.529	82.7621	217.529	82.3729	217.529	82.7879	217.529	82.4631	217.529	82.8443	217.529	82.5886	217.529	82.9227	217.529	82.7345	217.529	83.0064	217.529	82.8797	217.529	83.0732	217.529	83.0008	217.529	83.1018	217.529	83.0783
233.276	83.2402	233.276	83.2414	233.276	83.2068	233.276	83.2025	233.276	83.1487	233.276	83.119	233.276	83.0727	233.276	82.9935	233.276	82.9852	233.276	82.8381	233.276	82.8947	233.276	82.6735	233.276	82.8115	233.276	82.5244	233.276	82.7455	233.276	82.4124	233.276	82.7027	233.276	82.3501	233.276	82.681	233.276	82.3377	233.276	82.6707	233.276	82.3659	233.276	82.6586	233.276	82.4201	233.276	82.6346	233.276	82.4845	233.276	82.598	233.276	82.5446	233.276	82.5584	233.276	82.5887	233.276	82.5308	233.276	82.6088	233.276	82.5268	233.276	82.603	233.276	82.5462	233.276	82.5774
250.122	83.2929	250.122	83.2472	250.122	83.2939	250.122	83.165	250.122	83.2404	250.122	83.0499	250.122	83.1266	250.122	82.9026	250.122	82.9563	250.122	82.7249	250.122	82.7468	250.122	82.5249	250.122	82.5282	250.122	82.3179	250.122	82.3393	250.122	82.1249	250.122	82.2177	250.122	81.9667	250.122	82.1869	250.122	81.8579	250.122	82.2458	250.122	81.8033	250.122	82.3671	250.122	81.7986	250.122	82.5077	250.122	81.8341	250.122	82.624	250.122	81.8995	250.122	82.6845	250.122	81.9875	250.122	82.6764	250.122	82.0945	250.122	82.6053	250.122	82.2183	250.122	82.4899	250.122	82.3542
268.066	83.4439	268.066	83.3732	268.066	83.4547	268.066	83.242	268.066	83.4073	268.066	83.0524	268.066	83.3055	268.066	82.8117	268.066	83.1569	268.066	82.536	268.066	82.9751	268.066	82.2512	268.066	82.7811	268.066	81.9898	268.066	82.6027	268.066	81.7839	268.066	82.4708	268.066	81.6557	268.066	82.4115	268.066	81.6114	268.066	82.4364	268.066	81.642	268.066	82.5353	268.066	81.7295	268.066	82.6777	268.066	81.8551	268.066	82.8223	268.066	82.0045	268.066	82.9297	268.066	82.1693	268.066	82.9728	268.066	82.3446	268.066	82.9419	268.066	82.5245	268.066	82.8438	268.066	82.6972
287.109	83.3016	287.109	83.3565	287.109	83.2394	287.109	83.3897	287.109	83.1716	287.109	83.3812	287.109	83.0898	287.109	83.315	287.109	82.9832	287.109	83.1877	287.109	82.8474	287.109	83.0108	287.109	82.6889	287.109	82.8065	287.109	82.5252	287.109	82.6005	287.109	82.3818	287.109	82.4126	287.109	82.2867	287.109	82.2542	287.109	82.2623	287.109	82.1299	287.109	82.3167	287.109	82.045	287.109	82.4373	287.109	82.0089	287.109	82.592	287.109	82.0335	287.109	82.7377	287.109	82.1248	287.109	82.8331	287.109	82.2749	287.109	82.8503	287.109	82.4593	287.109	82.7818	287.109	82.6413
307.617	83.6904	307.617	83.5448	307.617	83.803	307.617	83.3947	307.617	83.8548	307.617	83.2585	307.617	83.8296	307.617	83.1401	307.617	83.7274	307.617	83.0339	307.617	83.5624	307.617	82.9326	307.617	83.3563	307.617	82.8334	307.617	83.1296	307.617	82.7378	307.617	82.8959	307.617	82.6488	307.617	82.6608	307.617	82.5701	307.617	82.4296	307.617	82.5065	307.617	82.2174	307.617	82.4665	307.617	82.0572	307.617	82.4611	307.617	81.9922	307.617	82.4973	307.617	82.0494	307.617	82.5693	307.617	82.2113	307.617	82.6525	307.617	82.4174	307.617	82.7081	307.617	82.5955	307.617	82.6963
329.956	83.1715	329.956	83.1289	329.956	83.1798	329.956	83.0443	329.956	83.1657	329.956	82.9234	329.956	83.1359	329.956	82.7866	329.956	83.0898	329.956	82.6618	329.956	83.0241	329.956	82.5697	329.956	82.9402	329.956	82.5126	329.956	82.8449	329.956	82.4742	329.956	82.7459	329.956	82.4297	329.956	82.6447	329.956	82.3598	329.956	82.5354	329.956	82.2618	329.956	82.411	329.956	82.1517	329.956	82.273	329.956	82.0573	329.956	82.1375	329.956	82.0024	329.956	82.0311	329.956	81.9921	329.956	81.9759	329.956	82.0094	329.956	81.9728	329.956	82.027	329.956	81.9993	329.956	82.0241
353.394	83.5123	353.394	83.313	353.394	83.6204	353.394	83.0697	353.394	83.5673	353.394	82.7966	353.394	83.2942	353.394	82.4999	353.394	82.7837	353.394	82.218	353.394	82.0804	353.394	82.0352	353.394	81.3016	353.394	82.0338	353.394	80.6302	353.394	82.2146	353.394	80.2615	353.394	82.4778	353.394	80.2974	353.394	82.6901	353.394	80.6692	353.394	82.7538	353.394	81.1877	353.394	82.6299	353.394	81.6575	353.394	82.333	353.394	81.945	353.394	81.9196	353.394	81.9901	353.394	81.4747	353.394	81.8021	353.394	81.0945	353.394	81.4591	353.394	80.871	353.394	81.0984	353.394	80.8715
379.028	84.6671	379.028	84.51	379.028	84.6701	379.028	84.2327	379.028	84.5051	379.028	83.8641	379.028	84.1949	379.028	83.4113	379.028	83.795	379.028	82.8663	379.028	83.3672	379.028	82.2349	379.028	82.945	379.028	81.5694	379.028	82.5214	379.028	80.9766	379.028	82.0766	379.028	80.5777	379.028	81.6225	379.028	80.4299	379.028	81.2357	379.028	80.4873	379.028	81.0483	379.028	80.652	379.028	81.1653	379.028	80.852	379.028	81.5589	379.028	81.0759	379.028	82.0666	379.028	81.3543	379.028	82.4999	379.028	81.71	379.028	82.7315	379.028	82.1145	379.028	82.7171	379.028	82.4846
406.128	84.3881	406.128	84.4129	406.128	84.1996	406.128	84.2161	406.128	83.9387	406.128	83.785	406.128	83.6996	406.128	83.1555	406.128	83.5358	406.128	82.4141	406.128	83.4417	406.128	81.6881	406.128	83.3775	406.128	81.1096	406.128	83.3032	406.128	80.7623	406.128	83.1884	406.128	80.647	406.128	83.0087	406.128	80.6974	406.128	82.7544	406.128	80.8304	406.128	82.4613	406.128	80.998	406.128	82.2449	406.128	81.2115	406.128	82.2734	406.128	81.5269	406.128	82.6166	406.128	81.9899	406.128	83.1295	406.128	82.5711	406.128	83.5624	406.128	83.1526	406.128	83.7327	406.128	83.5806
435.425	83.4321	435.425	82.6761	435.425	84.091	435.425	82.1373	435.425	84.4397	435.425	82.0275	435.425	84.3943	435.425	82.2793	435.425	83.9618	435.425	82.6754	435.425	83.2201	435.425	83.0407	435.425	82.3355	435.425	83.2757	435.425	81.5869	435.425	83.3336	435.425	81.28	435.425	83.2116	435.425	81.4775	435.425	82.953	435.425	81.8994	435.425	82.6485	435.425	82.1795	435.425	82.424	435.425	82.0679	435.425	82.3918	435.425	81.466	435.425	82.5774	435.425	80.5098	435.425	82.8782	435.425	79.8076	435.425	83.0909	435.425	80.1613	435.425	82.9861	435.425	81.3156	435.425	82.3935
466.553	85.2206	466.553	85.2125	466.553	85.0506	466.553	85.0356	466.553	84.7145	466.553	84.7025	466.553	84.2646	466.553	84.2285	466.553	83.7934	466.553	83.6505	466.553	83.3993	466.553	83.0478	466.553	83.1317	466.553	82.5308	466.553	82.9583	466.553	82.1849	466.553	82.7824	466.553	82.0174	466.553	82.4982	466.553	81.9625	466.553	82.0651	466.553	81.916	466.553	81.5984	466.553	81.7616	466.553	81.4049	466.553	81.3974	466.553	81.7317	466.553	80.7796	466.553	82.3808	466.553	80.0203	466.553	82.8791	466.553	79.5573	466.553	82.877	466.553	79.9711	466.553	82.25	466.553	81.1179
499.878	84.0382	499.878	83.8787	499.878	84.2543	499.878	83.8289	499.878	84.3817	499.878	83.782	499.878	84.3078	499.878	83.5715	499.878	84.0031	499.878	83.1081	499.878	83.5068	499.878	82.4256	499.878	82.8969	499.878	81.6493	499.878	82.2881	499.878	80.9117	499.878	81.8497	499.878	80.2481	499.878	81.7271	499.878	79.5796	499.878	81.8574	499.878	78.8623	499.878	81.9863	499.878	78.3018	499.878	81.9143	499.878	78.3595	499.878	81.6888	499.878	79.2933	499.878	81.6621	499.878	80.8034	499.878	82.1995	499.878	82.3501	499.878	83.1163	499.878	83.5038	499.878	83.8551	499.878	84.0265
535.767	85.1741	535.767	85.5364	535.767	84.6028	535.767	85.4311	535.767	84.1769	535.767	84.7823	535.767	84.0279	535.767	83.7085	535.767	83.8944	535.767	82.5754	535.767	83.4133	535.767	81.9086	535.767	82.3912	535.767	81.9006	535.767	80.8908	535.767	82.174	535.767	79.3425	535.767	82.2715	535.767	78.5703	535.767	81.995	535.767	79.0889	535.767	81.4017	535.767	80.3516	535.767	80.7244	535.767	81.5196	535.767	80.2524	535.767	82.1717	535.767	80.1561	535.767	82.2717	535.767	80.373	535.767	82.021	535.767	80.711	535.767	81.6999	535.767	81.0237	535.767	81.4596	535.767	81.2629
574.219	85.2427	574.219	85.1491	574.219	85.4474	574.219	85.1163	574.219	85.5226	574.219	84.8949	574.219	85.2353	574.219	84.3511	574.219	84.5852	574.219	83.5837	574.219	83.7996	574.219	82.8718	574.219	83.1874	574.219	82.4991	574.219	82.9392	574.219	82.454	574.219	82.9545	574.219	82.3961	574.219	82.8624	574.219	82.0134	574.219	82.3099	574.219	81.266	574.219	81.2123	574.219	80.4043	574.219	79.9829	574.219	79.8578	574.219	79.5479	574.219	79.9234	574.219	80.0094	574.219	80.4553	574.219	80.4099	574.219	80.9899	574.219	80.4012	574.219	81.1287	574.219	80.4352	574.219	80.8133
615.601	85.1344	615.601	84.8601	615.601	85.2353	615.601	84.5794	615.601	85.0377	615.601	84.3539	615.601	84.5539	615.601	84.1251	615.601	83.8821	615.601	83.8073	615.601	83.1089	615.601	83.3462	615.601	82.3198	615.601	82.7519	615.601	81.6223	615.601	82.1311	615.601	81.0075	615.601	81.6466	615.601	80.3066	615.601	81.3572	615.601	79.5276	615.601	81.1588	615.601	79.2476	615.601	80.9738	615.601	79.9344	615.601	80.848	615.601	80.9349	615.601	80.8202	615.601	81.5291	615.601	80.8288	615.601	81.5919	615.601	80.7843	615.601	81.3075	615.601	80.6907	615.601	80.9276	615.601	80.6927
659.912	85.3076	659.912	85.1116	659.912	85.4563	659.912	84.9378	659.912	85.3386	659.912	84.6609	659.912	84.812	659.912	84.2036	659.912	83.9266	659.912	83.6682	659.912	82.9334	659.912	83.1582	659.912	82.1663	659.912	82.5972	659.912	81.791	659.912	81.9411	659.912	81.631	659.912	81.4544	659.912	81.2881	659.912	81.4225	659.912	80.5487	659.912	81.6551	659.912	79.9332	659.912	81.7629	659.912	80.3847	659.912	81.5932	659.912	81.2905	659.912	81.2065	659.912	81.5088	659.912	80.7742	659.912	81.1271	659.912	80.5698	659.912	81.0974	659.912	80.8246	659.912	81.4185	659.912	81.3096
707.153	84.8466	707.153	84.4701	707.153	84.9075	707.153	84.0166	707.153	84.7182	707.153	83.7574	707.153	84.364	707.153	83.5088	707.153	83.8359	707.153	83.2251	707.153	83.1083	707.153	83.1462	707.153	82.2549	707.153	82.9372	707.153	81.4984	707.153	81.9945	707.153	80.9536	707.153	80.7249	707.153	80.232	707.153	80.8476	707.153	78.7958	707.153	82.1784	707.153	77.6207	707.153	82.8346	707.153	78.5937	707.153	82.337	707.153	79.5528	707.153	81.0875	707.153	79.1861	707.153	79.7287	707.153	78.9386	707.153	78.9182	707.153	79.4818	707.153	78.6627	707.153	79.347	707.153	78.7759
757.69	85.1928	757.69	85.1036	757.69	84.9837	757.69	84.5285	757.69	84.6933	757.69	83.5971	757.69	84.4376	757.69	82.7629	757.69	84.171	757.69	82.1805	757.69	83.6818	757.69	81.8138	757.69	82.6643	757.69	82.0601	757.69	81.1406	757.69	82.475	757.69	80.3148	757.69	81.8515	757.69	80.7169	757.69	80.2381	757.69	80.6663	757.69	80.146	757.69	79.2762	757.69	81.7538	757.69	77.4935	757.69	82.6638	757.69	78.2175	757.69	82.1719	757.69	79.8537	757.69	80.3521	757.69	80.3094	757.69	78.2328	757.69	79.7494	757.69	77.3408	757.69	78.8134	757.69	77.8569
812.256	84.4312	812.256	83.8462	812.256	84.5591	812.256	83.3102	812.256	84.4292	812.256	83.3365	812.256	84.5443	812.256	83.5279	812.256	84.6199	812.256	83.2035	812.256	83.9679	812.256	82.4008	812.256	82.4627	812.256	81.6843	812.256	80.6992	812.256	81.1231	812.256	79.8861	812.256	80.4278	812.256	80.1633	812.256	79.8417	812.256	79.9766	812.256	79.8524	812.256	78.5351	812.256	80.4398	812.256	77.2589	812.256	80.977	812.256	78.1359	812.256	80.6665	812.256	79.2958	812.256	79.5265	812.256	79.5171	812.256	78.4109	812.256	78.8604	812.256	77.7277	812.256	77.8928	812.256	77.5035
870.483	84.844	870.483	84.6975	870.483	85.0013	870.483	84.6288	870.483	84.715	870.483	84.2405	870.483	84.323	870.483	83.8775	870.483	84.3774	870.483	83.6308	870.483	84.5063	870.483	82.8787	870.483	83.882	870.483	81.9177	870.483	81.9403	870.483	81.4026	870.483	78.7913	870.483	81.0584	870.483	76.4986	870.483	80.7124	870.483	77.926	870.483	80.3753	870.483	78.8087	870.483	80.0721	870.483	77.5911	870.483	79.903	870.483	77.2518	870.483	79.6337	870.483	78.7185	870.483	79.0525	870.483	78.7394	870.483	78.5302	870.483	77.8932	870.483	78.6311	870.483	78.3804	870.483	78.8982
933.105	84.7991	933.105	84.6481	933.105	85.0458	933.105	84.3375	933.105	84.6731	933.105	83.72	933.105	83.7458	933.105	83.5115	933.105	83.2272	933.105	83.4343	933.105	83.391	933.105	82.3747	933.105	83.2441	933.105	80.8509	933.105	81.4596	933.105	80.2129	933.105	77.9447	933.105	80.175	933.105	76.8648	933.105	80.0636	933.105	79.0993	933.105	79.8955	933.105	80.1125	933.105	80.0128	933.105	79.4775	933.105	80.434	933.105	79.6293	933.105	80.6923	933.105	79.6223	933.105	80.3436	933.105	78.5013	933.105	78.6651	933.105	78.4998	933.105	76.1001	933.105	77.5705	933.105	75.8123
1,000.12	84.8026	1,000.12	85.374	1,000.12	84.0684	1,000.12	85.0958	1,000.12	84.0889	1,000.12	84.2584	1,000.12	84.0749	1,000.12	83.2475	1,000.12	83.5014	1,000.12	82.8163	1,000.12	82.5808	1,000.12	81.7597	1,000.12	81.0614	1,000.12	79.499	1,000.12	79.8862	1,000.12	80.4387	1,000.12	80.4323	1,000.12	81.7367	1,000.12	81.2273	1,000.12	78.387	1,000.12	80.62	1,000.12	76.9438	1,000.12	77.455	1,000.12	80.5724	1,000.12	74.7651	1,000.12	79.8392	1,000.12	76.1479	1,000.12	77.437	1,000.12	76.6387	1,000.12	79.2937	1,000.12	76.7419	1,000.12	79.9004	1,000.12	76.0946	1,000.12	78.3744	1,000.12	75.6986	1,000.12	76.4588
1,071.9	84.2784	1,071.9	84.4632	1,071.9	84.1041	1,071.9	85.1809	1,071.9	83.0202	1,071.9	85.0262	1,071.9	82.6802	1,071.9	83.822	1,071.9	82.5871	1,071.9	81.5008	1,071.9	82.5069	1,071.9	81.3136	1,071.9	82.4029	1,071.9	82.4054	1,071.9	80.656	1,071.9	81.1533	1,071.9	77.8757	1,071.9	81.814	1,071.9	76.8131	1,071.9	83.2993	1,071.9	78.6807	1,071.9	82.9213	1,071.9	80.1687	1,071.9	80.6407	1,071.9	79.1668	1,071.9	78.6903	1,071.9	76.5647	1,071.9	78.7288	1,071.9	76.6468	1,071.9	78.7599	1,071.9	75.5788	1,071.9	78.0722	1,071.9	75.7776	1,071.9	77.7487	1,071.9	76.028	1,071.9	76.9639
1,148.8	83.8178	1,148.8	84.2433	1,148.8	83.0786	1,148.8	84.5274	1,148.8	81.89	1,148.8	83.2775	1,148.8	81.6677	1,148.8	82.1308	1,148.8	81.3265	1,148.8	82.6336	1,148.8	81.5692	1,148.8	82.3105	1,148.8	81.6444	1,148.8	79.2611	1,148.8	79.0382	1,148.8	76.7448	1,148.8	73.5381	1,148.8	77.2146	1,148.8	68.3258	1,148.8	74.7505	1,148.8	69.7105	1,148.8	79.2003	1,148.8	76.2274	1,148.8	82.6455	1,148.8	78.6514	1,148.8	81.3002	1,148.8	77.392	1,148.8	76.7464	1,148.8	76.5692	1,148.8	77.3708	1,148.8	75.6885	1,148.8	77.2182	1,148.8	75.8714	1,148.8	75.6865	1,148.8	74.9927	1,148.8	73.6763
1,231.2	85.5613	1,231.2	84.8745	1,231.2	84.2316	1,231.2	83.6103	1,231.2	83.099	1,231.2	83.3307	1,231.2	81.8691	1,231.2	84.2803	1,231.2	80.7742	1,231.2	84.3308	1,231.2	79.7117	1,231.2	81.9795	1,231.2	78.5355	1,231.2	80.2649	1,231.2	78.8595	1,231.2	79.2638	1,231.2	78.5394	1,231.2	77.9995	1,231.2	76.2583	1,231.2	76.9974	1,231.2	71.6975	1,231.2	72.7326	1,231.2	65.7785	1,231.2	79.1234	1,231.2	71.3937	1,231.2	81.9717	1,231.2	76.3939	1,231.2	79.6812	1,231.2	76.7665	1,231.2	74.5051	1,231.2	76.2568	1,231.2	76.7336	1,231.2	73.8134	1,231.2	77.7133	1,231.2	73.3575	1,231.2	75.1501
1,319.46	85.5931	1,319.46	85.4614	1,319.46	85.1462	1,319.46	84.9417	1,319.46	84.1585	1,319.46	84.8627	1,319.46	81.8969	1,319.46	84.0135	1,319.46	79.9832	1,319.46	82.8251	1,319.46	77.8454	1,319.46	82.1915	1,319.46	75.498	1,319.46	81.9709	1,319.46	75.2933	1,319.46	79.7912	1,319.46	76.9325	1,319.46	74.5092	1,319.46	75.887	1,319.46	75.6731	1,319.46	70.7322	1,319.46	77.6406	1,319.46	70.999	1,319.46	75.2693	1,319.46	72.3507	1,319.46	78.5068	1,319.46	73.8518	1,319.46	79.5856	1,319.46	74.3514	1,319.46	77.7034	1,319.46	72.7705	1,319.46	75.8226	1,319.46	73.0846	1,319.46	77.3211	1,319.46	73.4238	1,319.46	76.7422
1,414.31	84.8297	1,414.31	85.2161	1,414.31	83.7975	1,414.31	85.6327	1,414.31	82.6705	1,414.31	84.5924	1,414.31	81.0137	1,414.31	82.9938	1,414.31	78.4421	1,414.31	82.2644	1,414.31	75.8168	1,414.31	80.4458	1,414.31	74.948	1,414.31	78.701	1,414.31	76.7971	1,414.31	80.0083	1,414.31	76.1469	1,414.31	80.9186	1,414.31	75.3796	1,414.31	78.9964	1,414.31	72.8713	1,414.31	76.5041	1,414.31	67.7264	1,414.31	75.7532	1,414.31	72.333	1,414.31	78.0184	1,414.31	74.5825	1,414.31	79.156	1,414.31	74.1108	1,414.31	78.1991	1,414.31	71.3207	1,414.31	75.791	1,414.31	69.6333	1,414.31	74.8687	1,414.31	73.4131	1,414.31	74.1968
1,515.75	83.3115	1,515.75	83.8024	1,515.75	82.0305	1,515.75	83.8324	1,515.75	81.0702	1,515.75	83.8559	1,515.75	79.5198	1,515.75	81.7138	1,515.75	78.3963	1,515.75	79.7328	1,515.75	75.6824	1,515.75	80.9473	1,515.75	72.3701	1,515.75	80.8955	1,515.75	70.9645	1,515.75	77.6807	1,515.75	74.6504	1,515.75	72.6277	1,515.75	76.7214	1,515.75	75.0035	1,515.75	74.8864	1,515.75	78.7354	1,515.75	72.1307	1,515.75	77.1535	1,515.75	71.9923	1,515.75	73.6708	1,515.75	73.5292	1,515.75	76.7388	1,515.75	71.2297	1,515.75	78.2011	1,515.75	70.0387	1,515.75	75.9709	1,515.75	68.8808	1,515.75	72.2181	1,515.75	71.1317	1,515.75	72.3278
1,624.51	83.0127	1,624.51	82.9978	1,624.51	81.2172	1,624.51	82.3438	1,624.51	78.7796	1,624.51	82.5808	1,624.51	76.837	1,624.51	82.569	1,624.51	75.9005	1,624.51	81.2239	1,624.51	73.9477	1,624.51	79.9159	1,624.51	74.5989	1,624.51	79.3754	1,624.51	75.5396	1,624.51	76.7562	1,624.51	75.3036	1,624.51	75.6429	1,624.51	74.0836	1,624.51	77.0747	1,624.51	74.0454	1,624.51	76.741	1,624.51	73.6208	1,624.51	78.056	1,624.51	69.0034	1,624.51	77.3289	1,624.51	70.8004	1,624.51	75.4468	1,624.51	71.1744	1,624.51	77.2021	1,624.51	68.1051	1,624.51	75.5713	1,624.51	67.1997	1,624.51	71.6271	1,624.51	68.6082	1,624.51	69.9193
1,740.97	84.5524	1,740.97	84.6237	1,740.97	82.9373	1,740.97	83.954	1,740.97	79.3118	1,740.97	83.6997	1,740.97	75.5875	1,740.97	83.204	1,740.97	74.4237	1,740.97	82.5261	1,740.97	75.8934	1,740.97	80.7216	1,740.97	77.1758	1,740.97	78.4313	1,740.97	76.5923	1,740.97	77.644	1,740.97	73.1603	1,740.97	77.6117	1,740.97	71.7339	1,740.97	76.7942	1,740.97	74.5603	1,740.97	73.1328	1,740.97	74.7958	1,740.97	75.1935	1,740.97	72.5438	1,740.97	77.5991	1,740.97	70.4085	1,740.97	75.0428	1,740.97	73.2176	1,740.97	74.2148	1,740.97	70.9911	1,740.97	76.4394	1,740.97	65.6021	1,740.97	73.9944	1,740.97	69.5133	1,740.97	70.5331
1,866.21	82.172	1,866.21	83.2488	1,866.21	81.3056	1,866.21	85.0845	1,866.21	77.4804	1,866.21	84.3774	1,866.21	73.8772	1,866.21	81.2354	1,866.21	73.493	1,866.21	80.659	1,866.21	75.2861	1,866.21	78.5572	1,866.21	75.8975	1,866.21	75.7892	1,866.21	77.4604	1,866.21	78.3124	1,866.21	74.3099	1,866.21	75.7804	1,866.21	72.4715	1,866.21	74.8138	1,866.21	76.2955	1,866.21	76.2789	1,866.21	73.0926	1,866.21	70.4511	1,866.21	71.9527	1,866.21	74.8201	1,866.21	71.9746	1,866.21	75.7104	1,866.21	72.4458	1,866.21	75.0137	1,866.21	67.7714	1,866.21	75.9599	1,866.21	60.3283	1,866.21	73.6513	1,866.21	64.865	1,866.21	70.0383
1,999.88	80.7193	1,999.88	82.9384	1,999.88	79.3038	1,999.88	83.58	1,999.88	76.2466	1,999.88	83.1101	1,999.88	74.1716	1,999.88	81.8988	1,999.88	75.0662	1,999.88	79.6642	1,999.88	76.234	1,999.88	79.4723	1,999.88	76.0192	1,999.88	78.4507	1,999.88	73.7177	1,999.88	74.3911	1,999.88	71.0875	1,999.88	72.5885	1,999.88	69.6496	1,999.88	72.8452	1,999.88	74.2714	1,999.88	75.4034	1,999.88	75.2652	1,999.88	74.6221	1,999.88	72.8687	1,999.88	67.9093	1,999.88	73.8158	1,999.88	73.0729	1,999.88	71.0108	1,999.88	77.0262	1,999.88	70.1796	1,999.88	73.8622	1,999.88	55.379	1,999.88	69.4031	1,999.88	65.1332	1,999.88	69.9292
2,143.43	81.579	2,143.43	83.963	2,143.43	78.4417	2,143.43	82.4976	2,143.43	74.4712	2,143.43	81.4028	2,143.43	75.8578	2,143.43	83.0666	2,143.43	79.0268	2,143.43	79.9201	2,143.43	79.4412	2,143.43	77.7613	2,143.43	79.4389	2,143.43	77.9583	2,143.43	76.4562	2,143.43	72.8053	2,143.43	75.1526	2,143.43	73.4615	2,143.43	74.4405	2,143.43	72.7715	2,143.43	72.1574	2,143.43	69.5092	2,143.43	76.8475	2,143.43	74.0781	2,143.43	72.4831	2,143.43	73.6642	2,143.43	73.0947	2,143.43	70.6626	2,143.43	68.705	2,143.43	74.4369	2,143.43	68.8656	2,143.43	74.0218	2,143.43	50.7158	2,143.43	69.9971	2,143.43	66.0905	2,143.43	66.1102
2,297.24	82.0246	2,297.24	83.964	2,297.24	77.9846	2,297.24	84.9347	2,297.24	72.9397	2,297.24	83.7227	2,297.24	76.2918	2,297.24	80.5314	2,297.24	80.6041	2,297.24	79.542	2,297.24	81.8643	2,297.24	79.0285	2,297.24	81.0271	2,297.24	73.4971	2,297.24	79.2924	2,297.24	71.7629	2,297.24	78.9175	2,297.24	72.5264	2,297.24	76.3117	2,297.24	72.3093	2,297.24	69.4725	2,297.24	74.7422	2,297.24	72.4941	2,297.24	72.5648	2,297.24	75.4109	2,297.24	72.6996	2,297.24	70.9483	2,297.24	72.6852	2,297.24	72.8623	2,297.24	70.2112	2,297.24	69.978	2,297.24	75.4408	2,297.24	65.0743	2,297.24	73.1534	2,297.24	62.6597	2,297.24	54.0997
2,462.4	83.9643	2,462.4	84.7006	2,462.4	80.131	2,462.4	83.9501	2,462.4	74.0815	2,462.4	82.93	2,462.4	76.5473	2,462.4	82.06	2,462.4	80.2665	2,462.4	79.9702	2,462.4	82.3544	2,462.4	76.0143	2,462.4	81.7913	2,462.4	70.9739	2,462.4	80.1072	2,462.4	71.5418	2,462.4	79.4583	2,462.4	72.5415	2,462.4	73.8402	2,462.4	69.7053	2,462.4	68.8353	2,462.4	71.741	2,462.4	73.4895	2,462.4	72.5527	2,462.4	76.304	2,462.4	70.4596	2,462.4	74.2185	2,462.4	71.4169	2,462.4	73.1197	2,462.4	71.2202	2,462.4	71.4796	2,462.4	73.4777	2,462.4	63.247	2,462.4	73.3073	2,462.4	63.0435	2,462.4	67.6903
2,638.92	83.8686	2,638.92	84.1227	2,638.92	81.3534	2,638.92	84.0685	2,638.92	74.7588	2,638.92	83.3893	2,638.92	78.1402	2,638.92	81.4389	2,638.92	81.9751	2,638.92	75.526	2,638.92	82.9821	2,638.92	73.4197	2,638.92	81.164	2,638.92	73.1317	2,638.92	82.2473	2,638.92	66.7098	2,638.92	81.3031	2,638.92	55.5031	2,638.92	74.8472	2,638.92	63.6504	2,638.92	67.7925	2,638.92	67.4102	2,638.92	72.1948	2,638.92	66.1425	2,638.92	76.6767	2,638.92	71.1426	2,638.92	77.0045	2,638.92	71.9747	2,638.92	73.3447	2,638.92	71.2615	2,638.92	71.861	2,638.92	72.3258	2,638.92	58.4183	2,638.92	73.242	2,638.92	67.955	2,638.92	66.0011
2,828.25	84.4802	2,828.25	84.7438	2,828.25	80.6982	2,828.25	84.3244	2,828.25	74.9232	2,828.25	82.6257	2,828.25	78.112	2,828.25	78.1885	2,828.25	83.097	2,828.25	75.9418	2,828.25	83.229	2,828.25	72.8071	2,828.25	81.8004	2,828.25	74.9965	2,828.25	82.636	2,828.25	78.3664	2,828.25	78.3951	2,828.25	75.7898	2,828.25	69.0627	2,828.25	72.5885	2,828.25	73.5105	2,828.25	72.2072	2,828.25	67.3121	2,828.25	69.6481	2,828.25	76.9456	2,828.25	70.2307	2,828.25	75.708	2,828.25	73.099	2,828.25	71.762	2,828.25	72.3929	2,828.25	59.0792	2,828.25	70.63	2,828.25	58.3167	2,828.25	73.3608	2,828.25	66.7276	2,828.25	68.6034
3,031.49	86.0184	3,031.49	87.032	3,031.49	84.6347	3,031.49	86.7268	3,031.49	80.0627	3,031.49	83.852	3,031.49	79.9955	3,031.49	81.1058	3,031.49	82.928	3,031.49	80.4616	3,031.49	83.4164	3,031.49	80.5831	3,031.49	83.2551	3,031.49	79.9086	3,031.49	81.0852	3,031.49	76.5583	3,031.49	78.1957	3,031.49	72.6152	3,031.49	79.5732	3,031.49	75.2769	3,031.49	69.9923	3,031.49	74.1778	3,031.49	73.3709	3,031.49	70.394	3,031.49	67.3202	3,031.49	68.3461	3,031.49	75.9185	3,031.49	71.8848	3,031.49	71.9032	3,031.49	75.0185	3,031.49	63.8493	3,031.49	73.5506	3,031.49	65.6212	3,031.49	74.2257	3,031.49	60.3223	3,031.49	69.9717
3,249.02	85.3656	3,249.02	86.1278	3,249.02	83.2596	3,249.02	84.9778	3,249.02	80.4417	3,249.02	83.2407	3,249.02	72.1322	3,249.02	81.1165	3,249.02	79.3156	3,249.02	79.9218	3,249.02	82.1476	3,249.02	78.1761	3,249.02	81.0479	3,249.02	71.2029	3,249.02	78.8857	3,249.02	67.3899	3,249.02	78.7374	3,249.02	67.62	3,249.02	78.5664	3,249.02	68.5132	3,249.02	69.6997	3,249.02	64.6612	3,249.02	71.3102	3,249.02	67.9722	3,249.02	69.0245	3,249.02	66.2246	3,249.02	70.8038	3,249.02	67.8301	3,249.02	68.4245	3,249.02	70.3406	3,249.02	59.3007	3,249.02	70.1651	3,249.02	66.318	3,249.02	72.1662	3,249.02	67.5809	3,249.02	70.0449
3,482.3	86.2598	3,482.3	87.1333	3,482.3	82.8022	3,482.3	84.7987	3,482.3	78.6009	3,482.3	81.2354	3,482.3	73.0626	3,482.3	77.2453	3,482.3	77.8446	3,482.3	68.0549	3,482.3	81.3019	3,482.3	54.2942	3,482.3	83.0168	3,482.3	67.2536	3,482.3	80.8994	3,482.3	71.9477	3,482.3	79.3304	3,482.3	69.9744	3,482.3	75.8423	3,482.3	69.1141	3,482.3	66.8471	3,482.3	68.7357	3,482.3	70.3373	3,482.3	65.9511	3,482.3	70.0653	3,482.3	65.9569	3,482.3	64.3872	3,482.3	60.3304	3,482.3	63.0613	3,482.3	64.912	3,482.3	60.9125	3,482.3	67.6343	3,482.3	68.4465	3,482.3	70.5947	3,482.3	68.0148	3,482.3	71.3993
3,732.06	87.0635	3,732.06	86.2702	3,732.06	83.2505	3,732.06	82.9189	3,732.06	75.2627	3,732.06	79.2566	3,732.06	76.8905	3,732.06	71.1182	3,732.06	79.7673	3,732.06	71.0045	3,732.06	82.6674	3,732.06	72.6363	3,732.06	82.861	3,732.06	73.8515	3,732.06	78.889	3,732.06	73.6218	3,732.06	74.8641	3,732.06	69.157	3,732.06	59.9542	3,732.06	69.4498	3,732.06	67.5286	3,732.06	71.5384	3,732.06	67.8743	3,732.06	68.7027	3,732.06	72.9273	3,732.06	69.3705	3,732.06	65.629	3,732.06	67.0643	3,732.06	53.9546	3,732.06	66.8379	3,732.06	62.8006	3,732.06	69.0681	3,732.06	69.8997	3,732.06	70.2392	3,732.06	70.2236	3,732.06	71.6887
4,000.12	86.4863	4,000.12	85.266	4,000.12	84.3375	4,000.12	82.5827	4,000.12	78.3556	4,000.12	78.0264	4,000.12	75.7158	4,000.12	72.8212	4,000.12	79.7324	4,000.12	74.6654	4,000.12	82.8852	4,000.12	73.6714	4,000.12	79.7848	4,000.12	74.1244	4,000.12	75.2967	4,000.12	73.4502	4,000.12	76.0973	4,000.12	71.9474	4,000.12	69.152	4,000.12	69.0573	4,000.12	61.3619	4,000.12	70.0252	4,000.12	65.7133	4,000.12	69.1319	4,000.12	73.8071	4,000.12	69.7947	4,000.12	70.6548	4,000.12	68.7754	4,000.12	62.1652	4,000.12	67.9951	4,000.12	65.7708	4,000.12	69.825	4,000.12	69.4169	4,000.12	69.6236	4,000.12	70.0874	4,000.12	69.0949
4,287.23	86.4711	4,287.23	85.5624	4,287.23	84.7968	4,287.23	82.4929	4,287.23	79.0309	4,287.23	75.2473	4,287.23	77.7425	4,287.23	75.5466	4,287.23	81.565	4,287.23	77.5281	4,287.23	81.6011	4,287.23	77.0765	4,287.23	77.9965	4,287.23	75.2887	4,287.23	76.0851	4,287.23	73.6775	4,287.23	73.7533	4,287.23	74.421	4,287.23	71.6108	4,287.23	71.5306	4,287.23	70.2643	4,287.23	71.6784	4,287.23	69.044	4,287.23	71.4024	4,287.23	69.8468	4,287.23	71.4066	4,287.23	67.4223	4,287.23	70.2178	4,287.23	64.6396	4,287.23	66.4065	4,287.23	64.9955	4,287.23	69.5229	4,287.23	70.9219	4,287.23	70.0242	4,287.23	69.6149	4,287.23	70.6674
4,594.85	86.2368	4,594.85	85.6081	4,594.85	83.4741	4,594.85	80.6326	4,594.85	79.8098	4,594.85	77.6617	4,594.85	79.356	4,594.85	79.8377	4,594.85	81.9503	4,594.85	79.1738	4,594.85	82.2742	4,594.85	78.2086	4,594.85	78.2294	4,594.85	77.3475	4,594.85	72.751	4,594.85	74.0573	4,594.85	68.2302	4,594.85	71.6933	4,594.85	68.5406	4,594.85	70.0292	4,594.85	69.346	4,594.85	70.3437	4,594.85	61.5971	4,594.85	72.7003	4,594.85	66.1998	4,594.85	71.2552	4,594.85	69.7007	4,594.85	71.5927	4,594.85	67.3815	4,594.85	69.74	4,594.85	63.9751	4,594.85	70.0545	4,594.85	69.3389	4,594.85	70.4529	4,594.85	69.0787	4,594.85	70.063
4,924.44	87.0682	4,924.44	85.4371	4,924.44	83.4264	4,924.44	80.8892	4,924.44	78.4198	4,924.44	80.221	4,924.44	82.1385	4,924.44	81.7335	4,924.44	82.2021	4,924.44	80.8057	4,924.44	79.6134	4,924.44	80.2049	4,924.44	76.6168	4,924.44	77.6947	4,924.44	75.4398	4,924.44	74.5546	4,924.44	70.4456	4,924.44	74.2041	4,924.44	73.14	4,924.44	72.786	4,924.44	70.6495	4,924.44	70.1652	4,924.44	52.7185	4,924.44	71.5934	4,924.44	64.3004	4,924.44	71.0058	4,924.44	63.8438	4,924.44	69.7313	4,924.44	67.9667	4,924.44	72.0576	4,924.44	66.0428	4,924.44	69.7274	4,924.44	64.4949	4,924.44	70.6886	4,924.44	70.5333	4,924.44	70.6891
5,278.2	86.9351	5,278.2	84.9034	5,278.2	84.1381	5,278.2	80.0512	5,278.2	78.14	5,278.2	81.5732	5,278.2	81.9227	5,278.2	82.3242	5,278.2	80.2909	5,278.2	80.4705	5,278.2	73.8434	5,278.2	76.9161	5,278.2	74.3984	5,278.2	73.687	5,278.2	75.2859	5,278.2	70.8866	5,278.2	73.8437	5,278.2	67.3898	5,278.2	73.5793	5,278.2	67.4825	5,278.2	67.5455	5,278.2	69.4455	5,278.2	55.8874	5,278.2	67.7839	5,278.2	57.3229	5,278.2	69.8872	5,278.2	66.4594	5,278.2	70.4817	5,278.2	69.2735	5,278.2	68.6012	5,278.2	65.9177	5,278.2	67.3974	5,278.2	67.6206	5,278.2	68.2166	5,278.2	69.4943	5,278.2	69.0199
5,656.86	87.1393	5,656.86	82.7918	5,656.86	84.7244	5,656.86	80.4796	5,656.86	72.6938	5,656.86	82.8234	5,656.86	79.8028	5,656.86	80.8889	5,656.86	79.7494	5,656.86	77.198	5,656.86	75.3743	5,656.86	75.6776	5,656.86	74.4882	5,656.86	73.5017	5,656.86	75.041	5,656.86	71.6219	5,656.86	73.3086	5,656.86	68.5853	5,656.86	70.3196	5,656.86	64.2275	5,656.86	67.3428	5,656.86	65.4198	5,656.86	53.1754	5,656.86	67.194	5,656.86	58.9275	5,656.86	67.7292	5,656.86	62.0216	5,656.86	70.0694	5,656.86	67.9918	5,656.86	69.8948	5,656.86	68.152	5,656.86	68.6009	5,656.86	70.3686	5,656.86	66.6067	5,656.86	69.8583	5,656.86	67.688
6,062.99	87.7777	6,062.99	82.8711	6,062.99	87.3151	6,062.99	83.5886	6,062.99	79.5842	6,062.99	82.7467	6,062.99	78.2331	6,062.99	79.5246	6,062.99	79.2463	6,062.99	77.7008	6,062.99	76.2007	6,062.99	75.3294	6,062.99	75.0733	6,062.99	70.8905	6,062.99	75.4151	6,062.99	66.4025	6,062.99	73.3525	6,062.99	63.5322	6,062.99	61.4796	6,062.99	64.7552	6,062.99	59.5722	6,062.99	66.0196	6,062.99	53.2103	6,062.99	64.0126	6,062.99	55.0394	6,062.99	62.8108	6,062.99	59.8975	6,062.99	65.7432	6,062.99	65.4221	6,062.99	66.2084	6,062.99	65.1257	6,062.99	67.2892	6,062.99	68.5059	6,062.99	63.4474	6,062.99	66.7066	6,062.99	63.7617
6,498.05	87.4552	6,498.05	82.8765	6,498.05	87.0797	6,498.05	83.7706	6,498.05	81.6815	6,498.05	82.0773	6,498.05	80.6827	6,498.05	80.9812	6,498.05	77.5839	6,498.05	75.3631	6,498.05	71.0823	6,498.05	70.6113	6,498.05	73.2119	6,498.05	68.3907	6,498.05	76.939	6,498.05	69.1196	6,498.05	69.3459	6,498.05	67.5314	6,498.05	70.5539	6,498.05	61.1238	6,498.05	70.7421	6,498.05	68.7469	6,498.05	54.3711	6,498.05	68.583	6,498.05	48.9869	6,498.05	67.2983	6,498.05	55.1895	6,498.05	68.7992	6,498.05	66.541	6,498.05	71.2165	6,498.05	59.6664	6,498.05	66.9231	6,498.05	66.1113	6,498.05	67.4978	6,498.05	65.0996	6,498.05	63.535
6,964.23	86.8848	6,964.23	82.0393	6,964.23	87.5645	6,964.23	83.3691	6,964.23	81.2234	6,964.23	82.7481	6,964.23	81.8454	6,964.23	79.4534	6,964.23	82.1263	6,964.23	70.2454	6,964.23	77.4299	6,964.23	75.5029	6,964.23	70.9153	6,964.23	68.147	6,964.23	77.2178	6,964.23	69.8887	6,964.23	74.5945	6,964.23	62.8978	6,964.23	73.5259	6,964.23	67.5976	6,964.23	73.7676	6,964.23	67.4277	6,964.23	61.8445	6,964.23	64.772	6,964.23	59.8256	6,964.23	55.0659	6,964.23	55.8164	6,964.23	68.0943	6,964.23	65.8582	6,964.23	72.79	6,964.23	61.084	6,964.23	68.0994	6,964.23	62.1833	6,964.23	68.6697	6,964.23	67.1838	6,964.23	66.8509
7,464.11	84.879	7,464.11	83.2977	7,464.11	87.0581	7,464.11	84.7658	7,464.11	81.3296	7,464.11	80.3973	7,464.11	76.1268	7,464.11	74.9844	7,464.11	81.3085	7,464.11	77.0613	7,464.11	78.3515	7,464.11	71.325	7,464.11	69.9588	7,464.11	74.4116	7,464.11	56.837	7,464.11	73.0826	7,464.11	74.7466	7,464.11	71.7587	7,464.11	68.5661	7,464.11	70.5939	7,464.11	59.489	7,464.11	70.0416	7,464.11	61.7851	7,464.11	67.8539	7,464.11	58.6606	7,464.11	69.9836	7,464.11	55.1357	7,464.11	71.1389	7,464.11	58.5677	7,464.11	70.5536	7,464.11	58.1571	7,464.11	67.6456	7,464.11	62.8616	7,464.11	69.731	7,464.11	63.8346	7,464.11	68.5655
7,999.88	84.136	7,999.88	83.6967	7,999.88	86.4717	7,999.88	84.9303	7,999.88	83.28	7,999.88	81.5995	7,999.88	77.1421	7,999.88	80.9181	7,999.88	79.2241	7,999.88	80.0338	7,999.88	81.0576	7,999.88	79.6647	7,999.88	76.8042	7,999.88	77.9431	7,999.88	76.2051	7,999.88	74.3683	7,999.88	76.2741	7,999.88	72.8697	7,999.88	72.8903	7,999.88	68.7517	7,999.88	70.123	7,999.88	68.9097	7,999.88	60.64	7,999.88	70.1448	7,999.88	51.8705	7,999.88	69.6168	7,999.88	58.8492	7,999.88	70.5374	7,999.88	55.917	7,999.88	70.6196	7,999.88	54.9869	7,999.88	70.1309	7,999.88	61.9103	7,999.88	72.8904	7,999.88	49.7796	7,999.88	70.3513
8,574.1	83.6981	8,574.1	85.0133	8,574.1	84.5624	8,574.1	85.0394	8,574.1	82.3563	8,574.1	81.7505	8,574.1	78.7111	8,574.1	81.8073	8,574.1	78.7366	8,574.1	78.0191	8,574.1	76.0892	8,574.1	75.2412	8,574.1	74.7791	8,574.1	66.3961	8,574.1	77.8055	8,574.1	69.1329	8,574.1	69.6475	8,574.1	61.6632	8,574.1	69.8998	8,574.1	58.0682	8,574.1	71.1469	8,574.1	60.8326	8,574.1	54.9444	8,574.1	63.386	8,574.1	56.6905	8,574.1	59.6917	8,574.1	61.1388	8,574.1	61.1115	8,574.1	58.7038	8,574.1	67.5152	8,574.1	47.5022	8,574.1	65.0091	8,574.1	51.65	8,574.1	70.7163	8,574.1	66.0055	8,574.1	69.4893
9,189.7	84.8628	9,189.7	86.2353	9,189.7	85.2236	9,189.7	84.5437	9,189.7	82.5829	9,189.7	80.3309	9,189.7	82.3388	9,189.7	80.3346	9,189.7	82.2053	9,189.7	74.2611	9,189.7	77.1575	9,189.7	72.7867	9,189.7	77.2012	9,189.7	71.4987	9,189.7	74.0114	9,189.7	70.5407	9,189.7	72.6058	9,189.7	66.2107	9,189.7	71.1512	9,189.7	62.027	9,189.7	72.3442	9,189.7	64.6841	9,189.7	62.1884	9,189.7	62.1925	9,189.7	62.1449	9,189.7	64.6932	9,189.7	60.8225	9,189.7	61.9873	9,189.7	62.0454	9,189.7	62.5985	9,189.7	57.1361	9,189.7	63.1451	9,189.7	52.0159	9,189.7	58.9047	9,189.7	66.4367	9,189.7	65.1572
9,849.24	83.7611	9,849.24	86.8315	9,849.24	84.8963	9,849.24	84.7883	9,849.24	85.532	9,849.24	84.0862	9,849.24	85.353	9,849.24	79.5492	9,849.24	83.7855	9,849.24	82.2999	9,849.24	83.3642	9,849.24	79.3606	9,849.24	78.4452	9,849.24	76.1714	9,849.24	73.641	9,849.24	73.355	9,849.24	75.7843	9,849.24	73.4171	9,849.24	74.0428	9,849.24	67.6274	9,849.24	73.8747	9,849.24	70.0283	9,849.24	63.0814	9,849.24	68.073	9,849.24	60.5612	9,849.24	73.5913	9,849.24	60.3143	9,849.24	68.9374	9,849.24	64.0619	9,849.24	70.697	9,849.24	56.1832	9,849.24	66.6017	9,849.24	60.6032	9,849.24	64.7923	9,849.24	65.8664	9,849.24	67.0383
10,556	85.6959	10,556	87.2967	10,556	84.947	10,556	83.8171	10,556	86.6873	10,556	85.5014	10,556	85.3308	10,556	82.9189	10,556	83.359	10,556	82.1418	10,556	81.9398	10,556	78.694	10,556	78.7217	10,556	76.8916	10,556	75.8965	10,556	71.4681	10,556	74.3334	10,556	69.4279	10,556	73.2441	10,556	60.4434	10,556	67.2081	10,556	64.3213	10,556	60.342	10,556	67.1269	10,556	45.9964	10,556	71.2613	10,556	51.8316	10,556	66.9595	10,556	53.3164	10,556	70.9789	10,556	59.7615	10,556	64.7092	10,556	60.8195	10,556	65.5803	10,556	65.8306	10,556	67.6777
11,313.7	86.5178	11,313.7	86.5251	11,313.7	85.3408	11,313.7	85.3506	11,313.7	86.6189	11,313.7	85.9612	11,313.7	84.8123	11,313.7	82.7828	11,313.7	84.0656	11,313.7	82.3684	11,313.7	82.4652	11,313.7	77.3193	11,313.7	78.5232	11,313.7	73.9486	11,313.7	76.1368	11,313.7	72.1754	11,313.7	72.1951	11,313.7	68.7934	11,313.7	69.9495	11,313.7	58.4355	11,313.7	67.7375	11,313.7	64.4972	11,313.7	60.3194	11,313.7	65.6277	11,313.7	53.7166	11,313.7	64.1525	11,313.7	50.7096	11,313.7	63.1301	11,313.7	57.1644	11,313.7	64.5146	11,313.7	57.66	11,313.7	63.7846	11,313.7	60.6639	11,313.7	64.8671	11,313.7	64.0659	11,313.7	65.2104
12,125.6	87.063	12,125.6	85.2215	12,125.6	86.038	12,125.6	87.0247	12,125.6	85.6272	12,125.6	85.9571	12,125.6	86.3976	12,125.6	84.1231	12,125.6	84.5804	12,125.6	80.2642	12,125.6	78.2485	12,125.6	78.4143	12,125.6	77.4734	12,125.6	73.0509	12,125.6	72.436	12,125.6	69.9645	12,125.6	65.8209	12,125.6	62.6862	12,125.6	65.4445	12,125.6	56.4228	12,125.6	62.8881	12,125.6	63.1445	12,125.6	52.8326	12,125.6	60.9486	12,125.6	54.4285	12,125.6	62.3103	12,125.6	51.279	12,125.6	55.8529	12,125.6	58.1128	12,125.6	62.7996	12,125.6	49.7275	12,125.6	62.6299	12,125.6	59.1712	12,125.6	63.088	12,125.6	58.9763	12,125.6	62.9747
12,996.1	85.1559	12,996.1	84.6722	12,996.1	85.5304	12,996.1	86.838	12,996.1	84.8781	12,996.1	85.4319	12,996.1	85.3447	12,996.1	82.6966	12,996.1	82.4513	12,996.1	79.8192	12,996.1	77.3396	12,996.1	76.0278	12,996.1	72.8222	12,996.1	72.5944	12,996.1	67.1824	12,996.1	70.1347	12,996.1	64.3859	12,996.1	67.0685	12,996.1	62.7314	12,996.1	60.5353	12,996.1	65.7498	12,996.1	62.9632	12,996.1	48.8768	12,996.1	64.1107	12,996.1	51.9152	12,996.1	66.0303	12,996.1	53.2527	12,996.1	60.282	12,996.1	58.9273	12,996.1	67.7986	12,996.1	53.511	12,996.1	64.0462	12,996.1	58.6932	12,996.1	62.8869	12,996.1	49.5292	12,996.1	62.0113
13,928.8	84.2511	13,928.8	85.2608	13,928.8	84.2383	13,928.8	86.0678	13,928.8	83.7048	13,928.8	84.0602	13,928.8	83.564	13,928.8	82.0631	13,928.8	80.3418	13,928.8	80.5339	13,928.8	73.6681	13,928.8	77.8218	13,928.8	66.7729	13,928.8	73.1354	13,928.8	66.1985	13,928.8	70.1552	13,928.8	60.9147	13,928.8	66.2354	13,928.8	55.5259	13,928.8	57.5461	13,928.8	62.7478	13,928.8	61.7549	13,928.8	43.3055	13,928.8	64.5295	13,928.8	53.7199	13,928.8	65.0702	13,928.8	50.0388	13,928.8	61.9825	13,928.8	54.9991	13,928.8	66.6861	13,928.8	54.4791	13,928.8	61.6265	13,928.8	51.6706	13,928.8	63.3088	13,928.8	49.3047	13,928.8	60.397
14,928.6	81.8488	14,928.6	83.601	14,928.6	81.5401	14,928.6	84.6723	14,928.6	81.4298	14,928.6	84.729	14,928.6	80.5912	14,928.6	82.6031	14,928.6	75.4371	14,928.6	80.3507	14,928.6	66.0948	14,928.6	75.0131	14,928.6	73.4615	14,928.6	62.9622	14,928.6	72.0249	14,928.6	61.292	14,928.6	66.598	14,928.6	57.4344	14,928.6	60.5742	14,928.6	53.2499	14,928.6	66.1236	14,928.6	57.538	14,928.6	58.6341	14,928.6	58.059	14,928.6	51.4617	14,928.6	60.7282	14,928.6	55.1777	14,928.6	61.3972	14,928.6	40.4292	14,928.6	63.0881	14,928.6	56.3709	14,928.6	57.5651	14,928.6	47.6014	14,928.6	57.6279	14,928.6	54.3893	14,928.6	61.6563
16,000.1	83.252	16,000.1	86.2644	16,000.1	82.0242	16,000.1	87.498	16,000.1	80.3376	16,000.1	86.7182	16,000.1	74.0895	16,000.1	81.8924	16,000.1	67.1501	16,000.1	76.2168	16,000.1	71.8114	16,000.1	70.733	16,000.1	74.0308	16,000.1	68.6271	16,000.1	71.412	16,000.1	67.1441	16,000.1	67.3238	16,000.1	65.216	16,000.1	65.0021	16,000.1	58.5838	16,000.1	67.6034	16,000.1	64.1373	16,000.1	62.8786	16,000.1	61.0279	16,000.1	53.6971	16,000.1	48.7078	16,000.1	56.3174	16,000.1	51.3529	16,000.1	58.057	16,000.1	62.0045	16,000.1	54.6653	16,000.1	59.1833	16,000.1	50.7861	16,000.1	55.6	16,000.1	54.8784	16,000.1	61.1338
17,148.2	78.1433	17,148.2	74.5407	17,148.2	78.2949	17,148.2	70.1306	17,148.2	73.5215	17,148.2	62.448	17,148.2	64.7992	17,148.2	68.6652	17,148.2	65.6483	17,148.2	70.1507	17,148.2	70.8996	17,148.2	66.7698	17,148.2	64.7742	17,148.2	65.2334	17,148.2	63.8508	17,148.2	63.1747	17,148.2	52.9043	17,148.2	63.3374	17,148.2	60.4092	17,148.2	62.5557	17,148.2	55.1087	17,148.2	59.5324	17,148.2	41.4968	17,148.2	57.9061	17,148.2	33.6527	17,148.2	59.0815	17,148.2	49.6968	17,148.2	57.7084	17,148.2	33.8295	17,148.2	44.6143	17,148.2	37.4282	17,148.2	50.2613	17,148.2	45.2128	17,148.2	53.7767	17,148.2	48.788	17,148.2	56.2249
18,379	86.7798	18,379	84.9033	18,379	85.6861	18,379	81.1228	18,379	79.2545	18,379	75.463	18,379	63.413	18,379	77.2317	18,379	76.2277	18,379	78.2562	18,379	73.5339	18,379	75.7637	18,379	67.5012	18,379	71.7612	18,379	59.2969	18,379	64.082	18,379	53.0408	18,379	64.0501	18,379	62.5512	18,379	64.9557	18,379	63.3712	18,379	63.155	18,379	61.8448	18,379	62.6253	18,379	44.3	18,379	52.5206	18,379	60.0446	18,379	61.2474	18,379	44.2299	18,379	61.3184	18,379	42.3725	18,379	56.7059	18,379	54.966	18,379	57.5095	18,379	57.008	18,379	59.9503
19,698.5	86.3305	19,698.5	84.1155	19,698.5	84.1075	19,698.5	80.9366	19,698.5	78.8257	19,698.5	80.2357	19,698.5	79.8424	19,698.5	78.3658	19,698.5	76.7831	19,698.5	77.5424	19,698.5	67.7103	19,698.5	76.5159	19,698.5	57.8747	19,698.5	71.9922	19,698.5	51.8629	19,698.5	64.8868	19,698.5	53.9288	19,698.5	62.8387	19,698.5	60.9967	19,698.5	58.1518	19,698.5	63.0592	19,698.5	58.8777	19,698.5	60.7501	19,698.5	60.036	19,698.5	44.6543	19,698.5	53.7238	19,698.5	52.7205	19,698.5	56.3385	19,698.5	48.5586	19,698.5	50.5524	19,698.5	46.73	19,698.5	54.2082	19,698.5	54.7165	19,698.5	50.3703	19,698.5	49.8799	19,698.5	52.9418
19,999.9	88.8831	19,999.9	87.7453	19,999.9	86.0107	19,999.9	83.9028	19,999.9	83.1537	19,999.9	83.6217	19,999.9	84.5456	19,999.9	80.9891	19,999.9	80.1004	19,999.9	80.2984	19,999.9	69.125	19,999.9	76.4681	19,999.9	66.2908	19,999.9	70.8509	19,999.9	49.8674	19,999.9	66.8296	19,999.9	49.9271	19,999.9	63.7214	19,999.9	63.4753	19,999.9	53.0253	19,999.9	64.0196	19,999.9	64.801	19,999.9	64.5185	19,999.9	60.4203	19,999.9	48.9711	19,999.9	63.2862	19,999.9	59.3513	19,999.9	59.0758	19,999.9	53.9572	19,999.9	61.6838	19,999.9	55.0531	19,999.9	56.7625	19,999.9	55.047	19,999.9	48.1642	19,999.9	44.7482	19,999.9	62.4784
