"SPL Horizontal"
"On-Axis"		"10°"		"-10°"		"20°"		"-20°"		"30°"		"-30°"		"40°"		"-40°"		"50°"		"-50°"		"60°"		"-60°"		"70°"		"-70°"		"80°"		"-80°"		"90°"		"-90°"		"100°"		"-100°"		"110°"		"-110°"		"120°"		"-120°"		"130°"		"-130°"		"140°"		"-140°"		"150°"		"-150°"		"160°"		"-160°"		"170°"		"-170°"		"180°"
"Frequency / Hz"	"Sound Pressure Level / dB (re 20 µPa/V)  [2.83V at 1m]"	"Frequency / Hz"	"Sound Pressure Level / dB (re 20 µPa/V)  [2.83V at 1m]"	"Frequency / Hz"	"Sound Pressure Level / dB (re 20 µPa/V)  [2.83V at 1m]"	"Frequency / Hz"	"Sound Pressure Level / dB (re 20 µPa/V)  [2.83V at 1m]"	"Frequency / Hz"	"Sound Pressure Level / dB (re 20 µPa/V)  [2.83V at 1m]"	"Frequency / Hz"	"Sound Pressure Level / dB (re 20 µPa/V)  [2.83V at 1m]"	"Frequency / Hz"	"Sound Pressure Level / dB (re 20 µPa/V)  [2.83V at 1m]"	"Frequency / Hz"	"Sound Pressure Level / dB (re 20 µPa/V)  [2.83V at 1m]"	"Frequency / Hz"	"Sound Pressure Level / dB (re 20 µPa/V)  [2.83V at 1m]"	"Frequency / Hz"	"Sound Pressure Level / dB (re 20 µPa/V)  [2.83V at 1m]"	"Frequency / Hz"	"Sound Pressure Level / dB (re 20 µPa/V)  [2.83V at 1m]"	"Frequency / Hz"	"Sound Pressure Level / dB (re 20 µPa/V)  [2.83V at 1m]"	"Frequency / Hz"	"Sound Pressure Level / dB (re 20 µPa/V)  [2.83V at 1m]"	"Frequency / Hz"	"Sound Pressure Level / dB (re 20 µPa/V)  [2.83V at 1m]"	"Frequency / Hz"	"Sound Pressure Level / dB (re 20 µPa/V)  [2.83V at 1m]"	"Frequency / Hz"	"Sound Pressure Level / dB (re 20 µPa/V)  [2.83V at 1m]"	"Frequency / Hz"	"Sound Pressure Level / dB (re 20 µPa/V)  [2.83V at 1m]"	"Frequency / Hz"	"Sound Pressure Level / dB (re 20 µPa/V)  [2.83V at 1m]"	"Frequency / Hz"	"Sound Pressure Level / dB (re 20 µPa/V)  [2.83V at 1m]"	"Frequency / Hz"	"Sound Pressure Level / dB (re 20 µPa/V)  [2.83V at 1m]"	"Frequency / Hz"	"Sound Pressure Level / dB (re 20 µPa/V)  [2.83V at 1m]"	"Frequency / Hz"	"Sound Pressure Level / dB (re 20 µPa/V)  [2.83V at 1m]"	"Frequency / Hz"	"Sound Pressure Level / dB (re 20 µPa/V)  [2.83V at 1m]"	"Frequency / Hz"	"Sound Pressure Level / dB (re 20 µPa/V)  [2.83V at 1m]"	"Frequency / Hz"	"Sound Pressure Level / dB (re 20 µPa/V)  [2.83V at 1m]"	"Frequency / Hz"	"Sound Pressure Level / dB (re 20 µPa/V)  [2.83V at 1m]"	"Frequency / Hz"	"Sound Pressure Level / dB (re 20 µPa/V)  [2.83V at 1m]"	"Frequency / Hz"	"Sound Pressure Level / dB (re 20 µPa/V)  [2.83V at 1m]"	"Frequency / Hz"	"Sound Pressure Level / dB (re 20 µPa/V)  [2.83V at 1m]"	"Frequency / Hz"	"Sound Pressure Level / dB (re 20 µPa/V)  [2.83V at 1m]"	"Frequency / Hz"	"Sound Pressure Level / dB (re 20 µPa/V)  [2.83V at 1m]"	"Frequency / Hz"	"Sound Pressure Level / dB (re 20 µPa/V)  [2.83V at 1m]"	"Frequency / Hz"	"Sound Pressure Level / dB (re 20 µPa/V)  [2.83V at 1m]"	"Frequency / Hz"	"Sound Pressure Level / dB (re 20 µPa/V)  [2.83V at 1m]"	"Frequency / Hz"	"Sound Pressure Level / dB (re 20 µPa/V)  [2.83V at 1m]"	"Frequency / Hz"	"Sound Pressure Level / dB (re 20 µPa/V)  [2.83V at 1m]"
20.5078	50.9385	20.5078	50.5711	20.5078	50.9233	20.5078	49.8134	20.5078	50.503	20.5078	48.6557	20.5078	49.6051	20.5078	47.1966	20.5078	48.0691	20.5078	46.0174	20.5078	45.5495	20.5078	46.4335	20.5078	41.3454	20.5078	48.6341	20.5078	37.6635	20.5078	51.3132	20.5078	43.4381	20.5078	53.7623	20.5078	48.5833	20.5078	55.852	20.5078	52.1758	20.5078	57.605	20.5078	54.8703	20.5078	59.0611	20.5078	56.9826	20.5078	60.2511	20.5078	58.6685	20.5078	61.1935	20.5078	60.0101	20.5078	61.8975	20.5078	61.0526	20.5078	62.3656	20.5078	61.8209	20.5078	62.5962	20.5078	62.329	20.5078	62.5855
21.9727	54.2558	21.9727	54.2224	21.9727	54.0394	21.9727	53.967	21.9727	53.5583	21.9727	53.5461	21.9727	52.8178	21.9727	53.0854	21.9727	51.8918	21.9727	52.8309	21.9727	51.054	21.9727	53.1114	21.9727	50.9095	21.9727	54.0916	21.9727	51.9655	21.9727	55.5911	21.9727	53.8941	21.9727	57.2882	21.9727	56.0405	21.9727	58.9539	21.9727	58.0533	21.9727	60.4784	21.9727	59.8259	21.9727	61.8187	21.9727	61.3433	21.9727	62.9601	21.9727	62.6141	21.9727	63.8971	21.9727	63.6489	21.9727	64.6264	21.9727	64.4549	21.9727	65.1443	21.9727	65.0363	21.9727	65.447	21.9727	65.3948	21.9727	65.5312
23.4375	55.6368	23.4375	55.5654	23.4375	55.4875	23.4375	55.2961	23.4375	55.1193	23.4375	54.8909	23.4375	54.5692	23.4375	54.4904	23.4375	53.9562	23.4375	54.353	23.4375	53.5573	23.4375	54.7811	23.4375	53.7873	23.4375	55.8717	23.4375	54.8622	23.4375	57.4106	23.4375	56.5303	23.4375	59.0981	23.4375	58.3848	23.4375	60.7348	23.4375	60.1709	23.4375	62.2269	23.4375	61.7838	23.4375	63.5374	23.4375	63.1906	23.4375	64.6535	23.4375	64.3848	23.4375	65.5701	23.4375	65.3668	23.4375	66.2836	23.4375	66.1372	23.4375	66.7906	23.4375	66.6956	23.4375	67.0874	23.4375	67.0406	23.4375	67.1712
24.9023	61.3921	24.9023	61.3367	24.9023	61.3611	24.9023	61.2089	24.9023	61.2448	24.9023	61.04	24.9023	61.0605	24.9023	60.8836	24.9023	60.8469	24.9023	60.8176	24.9023	60.6718	24.9023	60.933	24.9023	60.6321	24.9023	61.3027	24.9023	60.8331	24.9023	61.9421	24.9023	61.3395	24.9023	62.7992	24.9023	62.1337	24.9023	63.7822	24.9023	63.1246	24.9023	64.7982	24.9023	64.1979	24.9023	65.7734	24.9023	65.2562	24.9023	66.6562	24.9023	66.2308	24.9023	67.4109	24.9023	67.0775	24.9023	68.0128	24.9023	67.7679	24.9023	68.4443	24.9023	68.2836	24.9023	68.6926	24.9023	68.6131	24.9023	68.7499
26.3672	62.2096	26.3672	62.1436	26.3672	62.1158	26.3672	61.9225	26.3672	61.8641	26.3672	61.5619	26.3672	61.4669	26.3672	61.0996	26.3672	60.9574	26.3672	60.6179	26.3672	60.4129	26.3672	60.2678	26.3672	59.985	26.3672	60.2574	26.3672	59.8976	26.3672	60.7447	26.3672	60.3392	26.3672	61.7016	26.3672	61.2987	26.3672	62.9382	26.3672	62.5737	26.3672	64.2494	26.3672	63.9376	26.3672	65.4963	26.3672	65.239	26.3672	66.6036	26.3672	66.3976	26.3672	67.5338	26.3672	67.3748	26.3672	68.2673	26.3672	68.1515	26.3672	68.793	26.3672	68.7174	26.3672	69.1039	26.3672	69.0666	26.3672	69.1956
27.832	62.422	27.832	62.293	27.832	62.4245	27.832	62.0504	27.832	62.3061	27.832	61.7319	27.832	62.0923	27.832	61.4142	27.832	61.8388	27.832	61.2253	27.832	61.6445	27.832	61.3277	27.832	61.6507	27.832	61.8408	27.832	61.997	27.832	62.7515	27.832	62.7345	27.832	63.924	27.832	63.785	27.832	65.195	27.832	64.9984	27.832	66.4412	27.832	66.2352	27.832	67.5881	27.832	67.4002	27.832	68.5945	27.832	68.4371	27.832	69.4375	27.832	69.3143	27.832	70.1031	27.832	70.0134	27.832	70.5816	27.832	70.5235	27.832	70.8662	27.832	70.8377	27.832	70.9522
29.2969	64.4388	29.2969	64.442	29.2969	64.3897	29.2969	64.4115	29.2969	64.2984	29.2969	64.3755	29.2969	64.1864	29.2969	64.3789	29.2969	64.0953	29.2969	64.4788	29.2969	64.0877	29.2969	64.733	29.2969	64.2374	29.2969	65.1792	29.2969	64.6057	29.2969	65.8174	29.2969	65.2107	29.2969	66.6081	29.2969	66.0158	29.2969	67.4886	29.2969	66.9464	29.2969	68.393	29.2969	67.9203	29.2969	69.2644	29.2969	68.8679	29.2969	70.0589	29.2969	69.7376	29.2969	70.7437	29.2969	70.4936	29.2969	71.2941	29.2969	71.1108	29.2969	71.6919	29.2969	71.5717	29.2969	71.9241	29.2969	71.8646	29.2969	71.9827
30.7617	66.9324	30.7617	66.9367	30.7617	66.8863	30.7617	66.9037	30.7617	66.8044	30.7617	66.8491	30.7617	66.7045	30.7617	66.8003	30.7617	66.6175	30.7617	66.7963	30.7617	66.5871	30.7617	66.8836	30.7617	66.6651	30.7617	67.1063	30.7617	66.8988	30.7617	67.4911	30.7617	67.3134	30.7617	68.035	30.7617	67.8987	30.7617	68.7047	30.7617	68.6121	30.7617	69.4476	30.7617	69.3934	30.7617	70.2065	30.7617	70.1814	30.7617	70.9297	30.7617	70.9237	30.7617	71.575	30.7617	71.5794	30.7617	72.1096	30.7617	72.1179	30.7617	72.5093	30.7617	72.517	30.7617	72.7569	30.7617	72.7614	30.7617	72.8422
32.2266	68.5377	32.2266	68.5275	32.2266	68.5079	32.2266	68.4814	32.2266	68.444	32.2266	68.4132	32.2266	68.362	32.2266	68.3478	32.2266	68.2888	32.2266	68.3213	32.2266	68.2625	32.2266	68.378	32.2266	68.3283	32.2266	68.5615	32.2266	68.5288	32.2266	68.9013	32.2266	68.8898	32.2266	69.3993	32.2266	69.4084	32.2266	70.0276	32.2266	70.0527	32.2266	70.7365	32.2266	70.7711	32.2266	71.4695	32.2266	71.5077	32.2266	72.1739	32.2266	72.2108	32.2266	72.8061	32.2266	72.8384	32.2266	73.332	32.2266	73.3576	32.2266	73.7264	32.2266	73.7441	32.2266	73.9718	32.2266	73.9808	32.2266	74.0578
33.6914	70.459	33.6914	70.4496	33.6914	70.4417	33.6914	70.4162	33.6914	70.4025	33.6914	70.3691	33.6914	70.3542	33.6914	70.3267	33.6914	70.3175	33.6914	70.3154	33.6914	70.3205	33.6914	70.3674	33.6914	70.3958	33.6914	70.5152	33.6914	70.5742	33.6914	70.7829	33.6914	70.8756	33.6914	71.1778	33.6914	71.3014	33.6914	71.6853	33.6914	71.8315	33.6914	72.2721	33.6914	72.4293	33.6914	72.8946	33.6914	73.0506	33.6914	73.5072	33.6914	73.6514	33.6914	74.0688	33.6914	74.1926	33.6914	74.5451	33.6914	74.6423	33.6914	74.9093	33.6914	74.976	33.6914	75.1424	33.6914	75.1763	33.6914	75.2328
35.1562	70.3116	35.1562	70.2304	35.1562	70.3513	35.1562	70.1088	35.1562	70.3577	35.1562	69.959	35.1562	70.3487	35.1562	69.8062	35.1562	70.3512	35.1562	69.691	35.1562	70.4003	35.1562	69.6674	35.1562	70.5343	35.1562	69.7933	35.1562	70.7866	35.1562	70.1111	35.1562	71.1741	35.1562	70.6275	35.1562	71.6899	35.1562	71.3073	35.1562	72.3044	35.1562	72.0873	35.1562	72.9733	35.1562	72.8975	35.1562	73.6487	35.1562	73.6765	35.1562	74.2862	35.1562	74.3765	35.1562	74.8484	35.1562	74.9629	35.1562	75.3053	35.1562	75.4118	35.1562	75.6339	35.1562	75.7079	35.1562	75.817	35.1562	75.8433
36.6211	72.5331	36.6211	72.5518	36.6211	72.5313	36.6211	72.5905	36.6211	72.5477	36.6211	72.6559	36.6211	72.5878	36.6211	72.7579	36.6211	72.6606	36.6211	72.9077	36.6211	72.7776	36.6211	73.1158	36.6211	72.9507	36.6211	73.3891	36.6211	73.1897	36.6211	73.7289	36.6211	73.4993	36.6211	74.1288	36.6211	73.877	36.6211	74.575	36.6211	74.312	36.6211	75.048	36.6211	74.7863	36.6211	75.5239	36.6211	75.2763	36.6211	75.9777	36.6211	75.7556	36.6211	76.3847	36.6211	76.1974	36.6211	76.7222	36.6211	76.5768	36.6211	76.971	36.6211	76.8719	36.6211	77.1164	36.6211	77.0662	36.6211	77.149
38.0859	73.7712	38.0859	73.7683	38.0859	73.7679	38.0859	73.7615	38.0859	73.7607	38.0859	73.7572	38.0859	73.7561	38.0859	73.7663	38.0859	73.7646	38.0859	73.8031	38.0859	73.8007	38.0859	73.8838	38.0859	73.8806	38.0859	74.0247	38.0859	74.0205	38.0859	74.2377	38.0859	74.2326	38.0859	74.5273	38.0859	74.5215	38.0859	74.8876	38.0859	74.8817	38.0859	75.3026	38.0859	75.297	38.0859	75.7475	38.0859	75.7429	38.0859	76.193	38.0859	76.1896	38.0859	76.6085	38.0859	76.6064	38.0859	76.9654	38.0859	76.9644	38.0859	77.2392	38.0859	77.2389	38.0859	77.4114	38.0859	77.4114	38.0859	77.4701
39.5508	74.5028	39.5508	74.5	39.5508	74.5079	39.5508	74.5011	39.5508	74.5178	39.5508	74.5114	39.5508	74.5389	39.5508	74.5403	39.5508	74.5811	39.5508	74.6001	39.5508	74.6567	39.5508	74.7048	39.5508	74.779	39.5508	74.8677	39.5508	74.9601	39.5508	75.0984	39.5508	75.2074	39.5508	75.3997	39.5508	75.5215	39.5508	75.7652	39.5508	75.8943	39.5508	76.1797	39.5508	76.3093	39.5508	76.6204	39.5508	76.7437	39.5508	77.0599	39.5508	77.1711	39.5508	77.4699	39.5508	77.564	39.5508	77.8237	39.5508	77.8971	39.5508	78.098	39.5508	78.1483	39.5508	78.2753	39.5508	78.3008	39.5508	78.3442
41.0156	75.4492	41.0156	75.4467	41.0156	75.4582	41.0156	75.452	41.0156	75.4752	41.0156	75.4697	41.0156	75.5049	41.0156	75.507	41.0156	75.5547	41.0156	75.5735	41.0156	75.6338	41.0156	75.6799	41.0156	75.7523	41.0156	75.8361	41.0156	75.9193	41.0156	76.0493	41.0156	76.141	41.0156	76.3214	41.0156	76.4184	41.0156	76.6474	41.0156	76.7459	41.0156	77.0152	41.0156	77.111	41.0156	77.4061	41.0156	77.4952	41.0156	77.7969	41.0156	77.8761	41.0156	78.1629	41.0156	78.2293	41.0156	78.4796	41.0156	78.5312	41.0156	78.7256	41.0156	78.7609	41.0156	78.8841	41.0156	78.902	41.0156	78.9442
42.4805	76.2756	42.4805	76.2765	42.4805	76.2848	42.4805	76.2885	42.4805	76.3054	42.4805	76.3152	42.4805	76.3412	42.4805	76.3621	42.4805	76.3978	42.4805	76.4367	42.4805	76.4826	42.4805	76.5471	42.4805	76.6032	42.4805	76.7008	42.4805	76.7666	42.4805	76.9032	42.4805	76.9773	42.4805	77.1557	42.4805	77.2359	42.4805	77.4542	42.4805	77.5374	42.4805	77.7887	42.4805	77.8714	42.4805	78.1435	42.4805	78.2221	42.4805	78.4987	42.4805	78.5699	42.4805	78.8322	42.4805	78.8929	42.4805	79.1218	42.4805	79.1696	42.4805	79.3476	42.4805	79.3806	42.4805	79.4934	42.4805	79.5103	42.4805	79.5489
43.9453	76.8014	43.9453	76.8014	43.9453	76.8148	43.9453	76.8158	43.9453	76.8429	43.9453	76.8474	43.9453	76.8886	43.9453	76.901	43.9453	76.9567	43.9453	76.9827	43.9453	77.0529	43.9453	77.0992	43.9453	77.1833	43.9453	77.2567	43.9453	77.3531	43.9453	77.4595	43.9453	77.5656	43.9453	77.7082	43.9453	77.8204	43.9453	77.999	43.9453	78.1128	43.9453	78.3224	43.9453	78.4332	43.9453	78.664	43.9453	78.7673	43.9453	79.0055	43.9453	79.0973	43.9453	79.326	43.9453	79.4031	43.9453	79.6048	43.9453	79.6647	43.9453	79.8226	43.9453	79.8635	43.9453	79.9642	43.9453	79.9849	43.9453	80.0195
45.4102	77.634	45.4102	77.6371	45.4102	77.6465	45.4102	77.6568	45.4102	77.6753	45.4102	77.6951	45.4102	77.7224	45.4102	77.7553	45.4102	77.7909	45.4102	77.8416	45.4102	77.8848	45.4102	77.9587	45.4102	78.0081	45.4102	78.1104	45.4102	78.1646	45.4102	78.2993	45.4102	78.3564	45.4102	78.5253	45.4102	78.5835	45.4102	78.785	45.4102	78.8421	45.4102	79.0707	45.4102	79.1249	45.4102	79.3707	45.4102	79.4203	45.4102	79.6697	45.4102	79.7133	45.4102	79.9502	45.4102	79.9867	45.4102	80.1939	45.4102	80.2223	45.4102	80.3838	45.4102	80.4033	45.4102	80.506	45.4102	80.5159	45.4102	80.5512
46.875	78.2136	46.875	78.2246	46.875	78.2197	46.875	78.253	46.875	78.2434	46.875	78.3003	46.875	78.2864	46.875	78.3687	46.875	78.3511	46.875	78.4612	46.875	78.4408	46.875	78.5808	46.875	78.5585	46.875	78.7304	46.875	78.7073	46.875	78.9114	46.875	78.8887	46.875	79.1234	46.875	79.1024	46.875	79.3634	46.875	79.3451	46.875	79.6249	46.875	79.61	46.875	79.8979	46.875	79.8868	46.875	80.1692	46.875	80.1618	46.875	80.4232	46.875	80.4192	46.875	80.6436	46.875	80.6419	46.875	80.8147	46.875	80.8143	46.875	80.9233	46.875	80.9234	46.875	80.9606
48.3398	78.8295	48.3398	78.8473	48.3398	78.8284	48.3398	78.8819	48.3398	78.8447	48.3398	78.9338	48.3398	78.8798	48.3398	79.0044	48.3398	78.9357	48.3398	79.0953	48.3398	79.0148	48.3398	79.2086	48.3398	79.1196	48.3398	79.346	48.3398	79.2522	48.3398	79.5084	48.3398	79.4141	48.3398	79.6957	48.3398	79.6049	48.3398	79.9056	48.3398	79.8219	48.3398	80.133	48.3398	80.0596	48.3398	80.3703	48.3398	80.309	48.3398	80.6065	48.3398	80.5582	48.3398	80.8285	48.3398	80.7926	48.3398	81.0215	48.3398	80.997	48.3398	81.1713	48.3398	81.1563	48.3398	81.2656	48.3398	81.2586	48.3398	81.2958
51.2695	79.9928	51.2695	79.9844	51.2695	80.0222	51.2695	79.9972	51.2695	80.0724	51.2695	80.0317	51.2695	80.1436	51.2695	80.0887	51.2695	80.2357	51.2695	80.1691	51.2695	80.3487	51.2695	80.2737	51.2695	80.4826	51.2695	80.4033	51.2695	80.6366	51.2695	80.5583	51.2695	80.8095	51.2695	80.7376	51.2695	80.9991	51.2695	80.939	51.2695	81.2017	51.2695	81.1579	51.2695	81.4123	51.2695	81.387	51.2695	81.6236	51.2695	81.6168	51.2695	81.8269	51.2695	81.8352	51.2695	82.0115	51.2695	82.0291	51.2695	82.166	51.2695	82.1859	51.2695	82.2792	51.2695	82.2944	51.2695	82.3417	51.2695	82.3474
52.7344	80.2383	52.7344	80.2392	52.7344	80.2599	52.7344	80.2629	52.7344	80.3037	52.7344	80.3097	52.7344	80.3692	52.7344	80.3793	52.7344	80.4555	52.7344	80.4716	52.7344	80.5619	52.7344	80.5864	52.7344	80.6874	52.7344	80.7228	52.7344	80.8309	52.7344	80.8797	52.7344	80.9908	52.7344	81.0551	52.7344	81.1653	52.7344	81.2459	52.7344	81.3515	52.7344	81.4476	52.7344	81.5453	52.7344	81.6538	52.7344	81.7411	52.7344	81.8563	52.7344	81.9312	52.7344	82.0452	52.7344	82.1064	52.7344	82.2097	52.7344	82.2563	52.7344	82.339	52.7344	82.3705	52.7344	82.4241	52.7344	82.4399	52.7344	82.4585
54.1992	80.7392	54.1992	80.749	54.1992	80.7499	54.1992	80.7791	54.1992	80.7807	54.1992	80.8294	54.1992	80.8311	54.1992	80.8993	54.1992	80.9005	54.1992	80.9882	54.1992	80.9881	54.1992	81.0953	54.1992	81.0932	54.1992	81.2194	54.1992	81.2148	54.1992	81.3592	54.1992	81.3519	54.1992	81.513	54.1992	81.503	54.1992	81.6782	54.1992	81.6661	54.1992	81.8513	54.1992	81.8378	54.1992	82.0271	54.1992	82.0133	54.1992	82.1992	54.1992	82.1862	54.1992	82.359	54.1992	82.3478	54.1992	82.4974	54.1992	82.4886	54.1992	82.6046	54.1992	82.5986	54.1992	82.6722	54.1992	82.6692	54.1992	82.6944
55.6641	81.1676	55.6641	81.1846	55.6641	81.1719	55.6641	81.2228	55.6641	81.1976	55.6641	81.2812	55.6641	81.2443	55.6641	81.3589	55.6641	81.3114	55.6641	81.4546	55.6641	81.3978	55.6641	81.5669	55.6641	81.5025	55.6641	81.6941	55.6641	81.6241	55.6641	81.8344	55.6641	81.7611	55.6641	81.9858	55.6641	81.9117	55.6641	82.1458	55.6641	82.0734	55.6641	82.3109	55.6641	82.2427	55.6641	82.4768	55.6641	82.415	55.6641	82.6373	55.6641	82.5839	55.6641	82.7853	55.6641	82.7415	55.6641	82.9121	55.6641	82.8789	55.6641	83.0092	55.6641	82.987	55.6641	83.0688	55.6641	83.0577	55.6641	83.0856
58.5938	81.9693	58.5938	81.9833	58.5938	81.9768	58.5938	82.0182	58.5938	82.0056	58.5938	82.0731	58.5938	82.0549	58.5938	82.1464	58.5938	82.1232	58.5938	82.236	58.5938	82.2089	58.5938	82.3398	58.5938	82.31	58.5938	82.4553	58.5938	82.4241	58.5938	82.5803	58.5938	82.5492	58.5938	82.7124	58.5938	82.6827	58.5938	82.8492	58.5938	82.8223	58.5938	82.9881	58.5938	82.9649	58.5938	83.1257	58.5938	83.107	58.5938	83.2579	58.5938	83.2438	58.5938	83.3794	58.5938	83.3697	58.5938	83.484	58.5938	83.4779	58.5938	83.5651	58.5938	83.5617	58.5938	83.6164	58.5938	83.615	58.5938	83.6337
60.0586	82.3364	60.0586	82.348	60.0586	82.3462	60.0586	82.3807	60.0586	82.3771	60.0586	82.4332	60.0586	82.4282	60.0586	82.5039	60.0586	82.4977	60.0586	82.5906	60.0586	82.5837	60.0586	82.6906	60.0586	82.6837	60.0586	82.8015	60.0586	82.7952	60.0586	82.9207	60.0586	82.9157	60.0586	83.0456	60.0586	83.0426	60.0586	83.1738	60.0586	83.1734	60.0586	83.3029	60.0586	83.3053	60.0586	83.43	60.0586	83.435	60.0586	83.5515	60.0586	83.5586	60.0586	83.663	60.0586	83.6712	60.0586	83.7592	60.0586	83.7671	60.0586	83.8342	60.0586	83.8405	60.0586	83.8826	60.0586	83.8861	60.0586	83.9005
62.9883	83.1006	62.9883	83.1089	62.9883	83.1131	62.9883	83.1375	62.9883	83.1459	62.9883	83.1851	62.9883	83.1977	62.9883	83.2498	62.9883	83.2665	62.9883	83.329	62.9883	83.3496	62.9883	83.4196	62.9883	83.4442	62.9883	83.5187	62.9883	83.547	62.9883	83.6232	62.9883	83.6551	62.9883	83.7305	62.9883	83.7656	62.9883	83.8383	62.9883	83.8759	62.9883	83.9444	62.9883	83.9835	62.9883	84.0468	62.9883	84.0862	62.9883	84.1433	62.9883	84.1812	62.9883	84.2312	62.9883	84.2654	62.9883	84.307	62.9883	84.3353	62.9883	84.3669	62.9883	84.3872	62.9883	84.407	62.9883	84.4176	62.9883	84.4244
64.4531	83.4121	64.4531	83.4196	64.4531	83.425	64.4531	83.4469	64.4531	83.4577	64.4531	83.4929	64.4531	83.5089	64.4531	83.5551	64.4531	83.5761	64.4531	83.631	64.4531	83.6567	64.4531	83.7172	64.4531	83.7472	64.4531	83.8106	64.4531	83.8445	64.4531	83.9078	64.4531	83.9451	64.4531	84.0062	64.4531	84.0461	64.4531	84.1033	64.4531	84.1449	64.4531	84.1972	64.4531	84.2393	64.4531	84.2864	64.4531	84.3276	64.4531	84.3692	64.4531	84.4077	64.4531	84.4436	64.4531	84.4776	64.4531	84.5073	64.4531	84.5349	64.4531	84.5574	64.4531	84.577	64.4531	84.5911	64.4531	84.6012	64.4531	84.6061
67.3828	83.8735	67.3828	83.8837	67.3828	83.884	67.3828	83.9141	67.3828	83.9146	67.3828	83.963	67.3828	83.9636	67.3828	84.0278	67.3828	84.0284	67.3828	84.1053	67.3828	84.1057	67.3828	84.1916	67.3828	84.1917	67.3828	84.2828	67.3828	84.2823	67.3828	84.3752	67.3828	84.3738	67.3828	84.4654	67.3828	84.463	67.3828	84.5507	67.3828	84.5472	67.3828	84.6292	67.3828	84.6246	67.3828	84.6997	67.3828	84.6941	67.3828	84.7613	67.3828	84.755	67.3828	84.8133	67.3828	84.807	67.3828	84.8551	67.3828	84.8494	67.3828	84.8857	67.3828	84.8814	67.3828	84.9041	67.3828	84.9017	67.3828	84.9094
68.8477	84.1038	68.8477	84.1153	68.8477	84.1129	68.8477	84.1471	68.8477	84.1422	68.8477	84.1972	68.8477	84.1899	68.8477	84.263	68.8477	84.2534	68.8477	84.341	68.8477	84.329	68.8477	84.4272	68.8477	84.4129	68.8477	84.5175	68.8477	84.501	68.8477	84.6077	68.8477	84.5893	68.8477	84.6944	68.8477	84.6745	68.8477	84.7748	68.8477	84.7538	68.8477	84.8469	68.8477	84.8255	68.8477	84.9097	68.8477	84.8886	68.8477	84.9627	68.8477	84.9429	68.8477	85.0059	68.8477	84.9884	68.8477	85.0393	68.8477	85.025	68.8477	85.0627	68.8477	85.0526	68.8477	85.0758	68.8477	85.0706	68.8477	85.0785
71.7773	84.7033	71.7773	84.7137	71.7773	84.7134	71.7773	84.7439	71.7773	84.7433	71.7773	84.7921	71.7773	84.7912	71.7773	84.8555	71.7773	84.8541	71.7773	84.9304	71.7773	84.9282	71.7773	85.0123	71.7773	85.0094	71.7773	85.0968	71.7773	85.0931	71.7773	85.1796	71.7773	85.175	71.7773	85.2568	71.7773	85.2515	71.7773	85.3255	71.7773	85.3195	71.7773	85.3839	71.7773	85.3774	71.7773	85.4313	71.7773	85.4246	71.7773	85.4679	71.7773	85.4615	71.7773	85.495	71.7773	85.4892	71.7773	85.514	71.7773	85.5091	71.7773	85.5262	71.7773	85.5227	71.7773	85.5327	71.7773	85.5309	71.7773	85.5342
74.707	85.1741	74.707	85.1837	74.707	85.184	74.707	85.2123	74.707	85.2128	74.707	85.258	74.707	85.2586	74.707	85.3177	74.707	85.3184	74.707	85.3877	74.707	85.3883	74.707	85.4634	74.707	85.4638	74.707	85.5402	74.707	85.5403	74.707	85.6135	74.707	85.6131	74.707	85.6792	74.707	85.6784	74.707	85.7344	74.707	85.7333	74.707	85.7773	74.707	85.7759	74.707	85.8076	74.707	85.806	74.707	85.8264	74.707	85.8248	74.707	85.836	74.707	85.8345	74.707	85.8391	74.707	85.8379	74.707	85.8388	74.707	85.8379	74.707	85.8374	74.707	85.8369	74.707	85.8365
77.6367	85.3554	77.6367	85.364	77.6367	85.3655	77.6367	85.3907	77.6367	85.3937	77.6367	85.4336	77.6367	85.4381	77.6367	85.4897	77.6367	85.4957	77.6367	85.555	77.6367	85.5624	77.6367	85.625	77.6367	85.6336	77.6367	85.6946	77.6367	85.7045	77.6367	85.7593	77.6367	85.7703	77.6367	85.8149	77.6367	85.8267	77.6367	85.8583	77.6367	85.8706	77.6367	85.888	77.6367	85.9005	77.6367	85.9038	77.6367	85.9161	77.6367	85.9077	77.6367	85.9192	77.6367	85.9027	77.6367	85.9129	77.6367	85.8929	77.6367	85.9013	77.6367	85.8827	77.6367	85.8886	77.6367	85.8755	77.6367	85.8786	77.6367	85.8739
79.1016	85.4895	79.1016	85.4965	79.1016	85.5009	79.1016	85.5216	79.1016	85.5303	79.1016	85.5626	79.1016	85.5756	79.1016	85.6168	79.1016	85.6337	79.1016	85.6799	79.1016	85.7006	79.1016	85.7475	79.1016	85.7715	79.1016	85.8145	79.1016	85.8414	79.1016	85.8761	79.1016	85.9053	79.1016	85.9281	79.1016	85.959	79.1016	85.9674	79.1016	85.9992	79.1016	85.9924	79.1016	86.0242	79.1016	86.0032	79.1016	86.0339	79.1016	86.0018	79.1016	86.0303	79.1016	85.9918	79.1016	86.0168	79.1016	85.9778	79.1016	85.9981	79.1016	85.9647	79.1016	85.979	79.1016	85.9565	79.1016	85.9639	79.1016	85.956
82.0312	85.9063	82.0312	85.9089	82.0312	85.9215	82.0312	85.9289	82.0312	85.9539	82.0312	85.9644	82.0312	86.0015	82.0312	86.0125	82.0312	86.0612	82.0312	86.0693	82.0312	86.1288	82.0312	86.1302	82.0312	86.1994	82.0312	86.1902	82.0312	86.268	82.0312	86.2444	82.0312	86.3292	82.0312	86.2886	82.0312	86.3785	82.0312	86.3196	82.0312	86.4124	82.0312	86.336	82.0312	86.4289	82.0312	86.3381	82.0312	86.4281	82.0312	86.3284	82.0312	86.4121	82.0312	86.3113	82.0312	86.3848	82.0312	86.2922	82.0312	86.3517	82.0312	86.2769	82.0312	86.3189	82.0312	86.2701	82.0312	86.2919	82.0312	86.2749
84.9609	86.1409	84.9609	86.15	84.9609	86.1481	84.9609	86.1748	84.9609	86.1714	84.9609	86.2132	84.9609	86.209	84.9609	86.2624	84.9609	86.2581	84.9609	86.3182	84.9609	86.3151	84.9609	86.3761	84.9609	86.3752	84.9609	86.4312	84.9609	86.4336	84.9609	86.4784	84.9609	86.485	84.9609	86.5137	84.9609	86.5251	84.9609	86.5338	84.9609	86.5501	84.9609	86.5375	84.9609	86.5583	84.9609	86.5255	84.9609	86.5498	84.9609	86.5007	84.9609	86.5269	84.9609	86.4681	84.9609	86.4939	84.9609	86.4341	84.9609	86.4568	84.9609	86.4052	84.9609	86.4223	84.9609	86.3874	84.9609	86.3965	84.9609	86.3842
87.8906	86.2505	87.8906	86.2652	87.8906	86.2514	87.8906	86.2949	87.8906	86.2674	87.8906	86.3376	87.8906	86.297	87.8906	86.3905	87.8906	86.3375	87.8906	86.4496	87.8906	86.3852	87.8906	86.5103	87.8906	86.4359	87.8906	86.5673	87.8906	86.4848	87.8906	86.6155	87.8906	86.5269	87.8906	86.6501	87.8906	86.558	87.8906	86.6675	87.8906	86.5748	87.8906	86.6659	87.8906	86.5756	87.8906	86.6457	87.8906	86.5608	87.8906	86.6097	87.8906	86.5333	87.8906	86.5631	87.8906	86.4981	87.8906	86.5128	87.8906	86.4617	87.8906	86.4667	87.8906	86.4315	87.8906	86.4319	87.8906	86.414	87.8906	86.4137
90.8203	86.497	90.8203	86.5061	90.8203	86.502	90.8203	86.5288	90.8203	86.5203	90.8203	86.5636	90.8203	86.5504	90.8203	86.6079	90.8203	86.5893	90.8203	86.6581	90.8203	86.6336	90.8203	86.7096	90.8203	86.6787	90.8203	86.7573	90.8203	86.7197	90.8203	86.796	90.8203	86.7518	90.8203	86.8208	90.8203	86.7705	90.8203	86.828	90.8203	86.7727	90.8203	86.8155	90.8203	86.7569	90.8203	86.7835	90.8203	86.724	90.8203	86.7352	90.8203	86.6776	90.8203	86.676	90.8203	86.6239	90.8203	86.6141	90.8203	86.5708	90.8203	86.5582	90.8203	86.5271	90.8203	86.517	90.8203	86.5007	90.8203	86.4969
95.2148	86.6853	95.2148	86.6902	95.2148	86.6924	95.2148	86.7068	95.2148	86.7108	95.2148	86.7336	95.2148	86.7391	95.2148	86.7684	95.2148	86.7746	95.2148	86.8078	95.2148	86.814	95.2148	86.8475	95.2148	86.8528	95.2148	86.8826	95.2148	86.8862	95.2148	86.9081	95.2148	86.9092	95.2148	86.9192	95.2148	86.9173	95.2148	86.9123	95.2148	86.907	95.2148	86.8854	95.2148	86.8768	95.2148	86.8392	95.2148	86.8278	95.2148	86.7771	95.2148	86.764	95.2148	86.7056	95.2148	86.692	95.2148	86.6336	95.2148	86.6213	95.2148	86.5712	95.2148	86.5617	95.2148	86.5279	95.2148	86.5228	95.2148	86.5108
98.1445	86.6936	98.1445	86.6973	98.1445	86.7002	98.1445	86.7107	98.1445	86.7164	98.1445	86.7329	98.1445	86.7407	98.1445	86.7616	98.1445	86.771	98.1445	86.7939	98.1445	86.804	98.1445	86.8258	98.1445	86.8355	98.1445	86.8525	98.1445	86.861	98.1445	86.8692	98.1445	86.8755	98.1445	86.8714	98.1445	86.8747	98.1445	86.8552	98.1445	86.8551	98.1445	86.8191	98.1445	86.8154	98.1445	86.7636	98.1445	86.7568	98.1445	86.6925	98.1445	86.6833	98.1445	86.6126	98.1445	86.6022	98.1445	86.5332	98.1445	86.5233	98.1445	86.4651	98.1445	86.4572	98.1445	86.4182	98.1445	86.4139	98.1445	86.4001
101.074	86.7799	101.074	86.7806	101.074	86.7868	101.074	86.7886	101.074	86.8008	101.074	86.803	101.074	86.8206	101.074	86.8217	101.074	86.8443	101.074	86.8421	101.074	86.8687	101.074	86.8605	101.074	86.8901	101.074	86.8726	101.074	86.904	101.074	86.8737	101.074	86.9057	101.074	86.8595	101.074	86.8908	101.074	86.8268	101.074	86.8561	101.074	86.774	101.074	86.8004	101.074	86.7023	101.074	86.7249	101.074	86.6159	101.074	86.6344	101.074	86.5225	101.074	86.5366	101.074	86.4321	101.074	86.4421	101.074	86.3565	101.074	86.3627	101.074	86.3063	101.074	86.3093	101.074	86.2896
105.469	86.9031	105.469	86.9062	105.469	86.9062	105.469	86.9153	105.469	86.9152	105.469	86.9294	105.469	86.929	105.469	86.9465	105.469	86.9456	105.469	86.964	105.469	86.9622	105.469	86.9782	105.469	86.9753	105.469	86.9848	105.469	86.9805	105.469	86.979	105.469	86.9731	105.469	86.9564	105.469	86.9489	105.469	86.9137	105.469	86.9048	105.469	86.8497	105.469	86.8397	105.469	86.7656	105.469	86.7551	105.469	86.6664	105.469	86.6559	105.469	86.5602	105.469	86.5505	105.469	86.4579	105.469	86.4498	105.469	86.3721	105.469	86.3663	105.469	86.3144	105.469	86.3113	105.469	86.293
108.398	86.8115	108.398	86.8139	108.398	86.8153	108.398	86.8225	108.398	86.8248	108.398	86.8363	108.398	86.8388	108.398	86.8539	108.398	86.8553	108.398	86.8724	108.398	86.8714	108.398	86.8884	108.398	86.8833	108.398	86.8973	108.398	86.8868	108.398	86.8944	108.398	86.877	108.398	86.8747	108.398	86.8497	108.398	86.8347	108.398	86.8019	108.398	86.7724	108.398	86.7328	108.398	86.6888	108.398	86.6442	108.398	86.5884	108.398	86.5416	108.398	86.4792	108.398	86.434	108.398	86.3721	108.398	86.3329	108.398	86.2801	108.398	86.2511	108.398	86.2155	108.398	86.2	108.398	86.1874
112.793	86.6423	112.793	86.6362	112.793	86.6544	112.793	86.6362	112.793	86.672	112.793	86.6421	112.793	86.6941	112.793	86.6528	112.793	86.7191	112.793	86.6666	112.793	86.7444	112.793	86.6807	112.793	86.7664	112.793	86.6914	112.793	86.7806	112.793	86.6939	112.793	86.782	112.793	86.6835	112.793	86.7656	112.793	86.6562	112.793	86.7278	112.793	86.6094	112.793	86.667	112.793	86.543	112.793	86.5848	112.793	86.4604	112.793	86.4864	112.793	86.3683	112.793	86.3806	112.793	86.2767	112.793	86.2793	112.793	86.1977	112.793	86.1955	112.793	86.1433	112.793	86.1408	112.793	86.1229
117.188	86.6753	117.188	86.6744	117.188	86.6775	117.188	86.6742	117.188	86.6813	117.188	86.6743	117.188	86.687	117.188	86.6736	117.188	86.694	117.188	86.6707	117.188	86.7014	117.188	86.6633	117.188	86.7067	117.188	86.6487	117.188	86.7065	117.188	86.6234	117.188	86.6965	117.188	86.5842	117.188	86.6719	117.188	86.5287	117.188	86.6289	117.188	86.4564	117.188	86.5648	117.188	86.369	117.188	86.4801	117.188	86.2716	117.188	86.3786	117.188	86.172	117.188	86.2677	117.188	86.0804	117.188	86.1584	117.188	86.0083	117.188	86.0633	117.188	85.966	117.188	85.9944	117.188	85.9607
120.117	86.8451	120.117	86.8555	120.117	86.8341	120.117	86.865	120.117	86.8227	120.117	86.8731	120.117	86.8111	120.117	86.8791	120.117	86.7991	120.117	86.8814	120.117	86.7858	120.117	86.8776	120.117	86.7695	120.117	86.8645	120.117	86.7475	120.117	86.838	120.117	86.7166	120.117	86.7942	120.117	86.6733	120.117	86.73	120.117	86.6149	120.117	86.6446	120.117	86.5401	120.117	86.5398	120.117	86.4501	120.117	86.4214	120.117	86.349	120.117	86.2985	120.117	86.2442	120.117	86.183	120.117	86.1458	120.117	86.0875	120.117	86.0651	120.117	86.0234	120.117	86.013	120.117	85.9979
124.512	86.6861	124.512	86.6843	124.512	86.6872	124.512	86.6821	124.512	86.6872	124.512	86.6799	124.512	86.686	124.512	86.6776	124.512	86.6828	124.512	86.6746	124.512	86.6765	124.512	86.6692	124.512	86.665	124.512	86.6587	124.512	86.6452	124.512	86.639	124.512	86.6138	124.512	86.6058	124.512	86.5671	124.512	86.5552	124.512	86.5027	124.512	86.4848	124.512	86.4202	124.512	86.3949	124.512	86.3218	124.512	86.2895	124.512	86.2131	124.512	86.176	124.512	86.1031	124.512	86.0653	124.512	86.0027	124.512	85.9698	124.512	85.924	124.512	85.9014	124.512	85.8773	124.512	85.8692
128.906	86.6392	128.906	86.6282	128.906	86.6467	128.906	86.6137	128.906	86.651	128.906	86.596	128.906	86.6521	128.906	86.5753	128.906	86.6498	128.906	86.5514	128.906	86.6433	128.906	86.5235	128.906	86.6306	128.906	86.49	128.906	86.6088	128.906	86.4483	128.906	86.5742	128.906	86.3958	128.906	86.5231	128.906	86.3298	128.906	86.4527	128.906	86.2492	128.906	86.3623	128.906	86.1551	128.906	86.2539	128.906	86.0514	128.906	86.133	128.906	85.9454	128.906	86.0087	128.906	85.847	128.906	85.8923	128.906	85.7673	128.906	85.7961	128.906	85.717	128.906	85.7309	128.906	85.7038
133.301	86.5557	133.301	86.5538	133.301	86.554	133.301	86.5479	133.301	86.549	133.301	86.5377	133.301	86.5413	133.301	86.5231	133.301	86.5308	133.301	86.5033	133.301	86.5167	133.301	86.477	133.301	86.4969	133.301	86.4418	133.301	86.4684	133.301	86.395	133.301	86.4271	133.301	86.3333	133.301	86.3688	133.301	86.2543	133.301	86.2903	133.301	86.1572	133.301	86.1906	133.301	86.0436	133.301	86.0719	133.301	85.9188	133.301	85.9402	133.301	85.7913	133.301	85.8055	133.301	85.6724	133.301	85.6805	133.301	85.5749	133.301	85.5786	133.301	85.5107	133.301	85.5119	133.301	85.4885
139.16	86.328	139.16	86.3259	139.16	86.3239	139.16	86.3175	139.16	86.3145	139.16	86.3029	139.16	86.3009	139.16	86.2827	139.16	86.2842	139.16	86.257	139.16	86.2647	139.16	86.2252	139.16	86.2412	139.16	86.1856	139.16	86.2111	139.16	86.1357	139.16	86.1702	139.16	86.0726	139.16	86.1139	139.16	85.9939	139.16	86.0385	139.16	85.8988	139.16	85.942	139.16	85.7887	139.16	85.8263	139.16	85.6684	139.16	85.6971	139.16	85.5459	139.16	85.5645	139.16	85.4317	139.16	85.4413	139.16	85.3378	139.16	85.3413	139.16	85.2756	139.16	85.2763	139.16	85.2538
143.555	86.2442	143.555	86.2453	143.555	86.2322	143.555	86.2354	143.555	86.2107	143.555	86.2151	143.555	86.1822	143.555	86.186	143.555	86.1498	143.555	86.1492	143.555	86.1159	143.555	86.1055	143.555	86.0823	143.555	86.0548	143.555	86.0485	143.555	85.9958	143.555	86.0121	143.555	85.9268	143.555	85.969	143.555	85.8465	143.555	85.9145	143.555	85.7548	143.555	85.8445	143.555	85.6538	143.555	85.7578	143.555	85.5481	143.555	85.6564	143.555	85.4451	143.555	85.5468	143.555	85.354	143.555	85.4391	143.555	85.2844	143.555	85.3453	143.555	85.2452	143.555	85.2768	143.555	85.2422
147.949	86.3211	147.949	86.3269	147.949	86.3007	147.949	86.319	147.949	86.2657	147.949	86.2989	147.949	86.2172	147.949	86.2686	147.949	86.1571	147.949	86.2296	147.949	86.0877	147.949	86.1827	147.949	86.0118	147.949	86.1278	147.949	85.9317	147.949	86.0638	147.949	85.8494	147.949	85.9894	147.949	85.7664	147.949	85.9038	147.949	85.684	147.949	85.8077	147.949	85.6033	147.949	85.704	147.949	85.5257	147.949	85.5982	147.949	85.4531	147.949	85.4971	147.949	85.3881	147.949	85.4085	147.949	85.3337	147.949	85.3387	147.949	85.2934	147.949	85.2918	147.949	85.2709	147.949	85.2695
153.809	86.175	153.809	86.1633	153.809	86.1751	153.809	86.1404	153.809	86.164	153.809	86.1068	153.809	86.1421	153.809	86.0632	153.809	86.1097	153.809	86.0097	153.809	86.0667	153.809	85.9461	153.809	86.0116	153.809	85.871	153.809	85.9422	153.809	85.7828	153.809	85.8554	153.809	85.6799	153.809	85.7485	153.809	85.5618	153.809	85.6207	153.809	85.4298	153.809	85.4741	153.809	85.2881	153.809	85.3147	153.809	85.1435	153.809	85.1524	153.809	85.0053	153.809	84.9997	153.809	84.8833	153.809	84.8693	153.809	84.7867	153.809	84.7717	153.809	84.7231	153.809	84.7137	153.809	84.6977
159.668	85.812	159.668	85.7997	159.668	85.8137	159.668	85.778	159.668	85.8047	159.668	85.7495	159.668	85.7862	159.668	85.7167	159.668	85.76	159.668	85.6816	159.668	85.7273	159.668	85.6442	159.668	85.6879	159.668	85.6025	159.668	85.6399	159.668	85.5521	159.668	85.5793	159.668	85.4876	159.668	85.5012	159.668	85.4039	159.668	85.4014	159.668	85.298	159.668	85.2783	159.668	85.1709	159.668	85.1347	159.668	85.028	159.668	84.9787	159.668	84.8793	159.668	84.8231	159.668	84.7382	159.668	84.6836	159.668	84.6192	159.668	84.5758	159.668	84.5359	159.668	84.5118	159.668	84.4983
165.527	85.4709	165.527	85.4506	165.527	85.461	165.527	85.4001	165.527	85.4238	165.527	85.3223	165.527	85.3645	165.527	85.2224	165.527	85.2907	165.527	85.1072	165.527	85.2104	165.527	84.9843	165.527	85.131	165.527	84.8609	165.527	85.0576	165.527	84.7427	165.527	84.9911	165.527	84.6332	165.527	84.9285	165.527	84.5336	165.527	84.8636	165.527	84.4431	165.527	84.7888	165.527	84.36	165.527	84.6987	165.527	84.2833	165.527	84.5919	165.527	84.2136	165.527	84.4731	165.527	84.1545	165.527	84.3526	165.527	84.1122	165.527	84.2438	165.527	84.0947	165.527	84.1599	165.527	84.1094
171.387	85.6765	171.387	85.694	171.387	85.6332	171.387	85.6867	171.387	85.5638	171.387	85.6556	171.387	85.4689	171.387	85.6018	171.387	85.3495	171.387	85.5256	171.387	85.2074	171.387	85.4268	171.387	85.0447	171.387	85.3041	171.387	84.8644	171.387	85.1566	171.387	84.6706	171.387	84.9846	171.387	84.4694	171.387	84.791	171.387	84.2692	171.387	84.583	171.387	84.0806	171.387	84.3715	171.387	83.9146	171.387	84.1703	171.387	83.7804	171.387	83.9926	171.387	83.683	171.387	83.8477	171.387	83.6223	171.387	83.7387	171.387	83.5941	171.387	83.6631	171.387	83.5931	171.387	83.6159
177.246	85.6066	177.246	85.5743	177.246	85.6154	177.246	85.521	177.246	85.5998	177.246	85.4503	177.246	85.5606	177.246	85.3661	177.246	85.4995	177.246	85.2717	177.246	85.4186	177.246	85.169	177.246	85.3197	177.246	85.0574	177.246	85.2036	177.246	84.9345	177.246	85.0698	177.246	84.7969	177.246	84.9169	177.246	84.642	177.246	84.7441	177.246	84.47	177.246	84.5529	177.246	84.2855	177.246	84.3486	177.246	84.0974	177.246	84.1413	177.246	83.9183	177.246	83.9447	177.246	83.7619	177.246	83.7745	177.246	83.6404	177.246	83.6444	177.246	83.5633	177.246	83.5637	177.246	83.5367
183.105	85.6462	183.105	85.6134	183.105	85.6529	183.105	85.5557	183.105	85.6339	183.105	85.4762	183.105	85.5916	183.105	85.3793	183.105	85.529	183.105	85.2703	183.105	85.4498	183.105	85.1536	183.105	85.3573	183.105	85.0329	183.105	85.254	183.105	84.9102	183.105	85.1414	183.105	84.7862	183.105	85.0204	183.105	84.6614	183.105	84.8919	183.105	84.5369	183.105	84.7573	183.105	84.4158	183.105	84.6198	183.105	84.3027	183.105	84.4839	183.105	84.2039	183.105	84.3562	183.105	84.1254	183.105	84.2435	183.105	84.0721	183.105	84.1525	183.105	84.0472	183.105	84.0878	183.105	84.0524
188.965	85.5862	188.965	85.5678	188.965	85.577	188.965	85.5225	188.965	85.5409	188.965	85.4531	188.965	85.4805	188.965	85.3633	188.965	85.3994	188.965	85.2574	188.965	85.3013	188.965	85.1387	188.965	85.1891	188.965	85.0097	188.965	85.065	188.965	84.8716	188.965	84.9304	188.965	84.7251	188.965	84.7868	188.965	84.572	188.965	84.6368	188.965	84.4165	188.965	84.4849	188.965	84.2654	188.965	84.3375	188.965	84.1278	188.965	84.2018	188.965	84.0127	188.965	84.0842	188.965	83.9262	188.965	83.9887	188.965	83.8705	188.965	83.9171	188.965	83.8443	188.965	83.8692	188.965	83.8447
196.289	85.2235	196.289	85.194	196.289	85.2186	196.289	85.1318	196.289	85.1806	196.289	85.0419	196.289	85.1138	196.289	84.9314	196.289	85.0238	196.289	84.8085	196.289	84.917	196.289	84.6808	196.289	84.7985	196.289	84.5539	196.289	84.6716	196.289	84.4306	196.289	84.5375	196.289	84.3112	196.289	84.3964	196.289	84.1953	196.289	84.25	196.289	84.083	196.289	84.1027	196.289	83.977	196.289	83.9629	196.289	83.8817	196.289	83.8411	196.289	83.8018	196.289	83.7466	196.289	83.7401	196.289	83.6839	196.289	83.696	196.289	83.6511	196.289	83.6663	196.289	83.6416	196.289	83.6482
203.613	85.4986	203.613	85.4522	203.613	85.4916	203.613	85.3514	203.613	85.4356	203.613	85.1983	203.613	85.3371	203.613	84.9988	203.613	85.205	203.613	84.7623	203.613	85.0492	203.613	84.5012	203.613	84.88	203.613	84.2304	203.613	84.7063	203.613	83.9652	203.613	84.5347	203.613	83.7211	203.613	84.3689	203.613	83.5118	203.613	84.2103	203.613	83.3489	203.613	84.0597	203.613	83.24	203.613	83.9198	203.613	83.1872	203.613	83.7949	203.613	83.1856	203.613	83.6897	203.613	83.2235	203.613	83.6058	203.613	83.2851	203.613	83.5391	203.613	83.3544	203.613	83.4805	203.613	83.4206
210.938	85.494	210.938	85.5218	210.938	85.425	210.938	85.5057	210.938	85.318	210.938	85.4436	210.938	85.1769	210.938	85.3343	210.938	85.0062	210.938	85.1775	210.938	84.8108	210.938	84.9748	210.938	84.5966	210.938	84.7297	210.938	84.3698	210.938	84.4491	210.938	84.137	210.938	84.143	210.938	83.9049	210.938	83.8258	210.938	83.6806	210.938	83.5161	210.938	83.471	210.938	83.2356	210.938	83.2834	210.938	83.0057	210.938	83.1245	210.938	82.8418	210.938	82.9986	210.938	82.7476	210.938	82.9054	210.938	82.7133	210.938	82.8388	210.938	82.7202	210.938	82.7892	210.938	82.7493
218.262	85.3181	218.262	85.3258	218.262	85.2787	218.262	85.3033	218.262	85.2075	218.262	85.2528	218.262	85.1057	218.262	85.1763	218.262	84.9756	218.262	85.0745	218.262	84.8203	218.262	84.947	218.262	84.643	218.262	84.7923	218.262	84.4477	218.262	84.6096	218.262	84.2396	218.262	84.4007	218.262	84.0262	218.262	84.1716	218.262	83.8172	218.262	83.9341	218.262	83.624	218.262	83.7055	218.262	83.4578	218.262	83.5052	218.262	83.3273	218.262	83.3491	218.262	83.2362	218.262	83.2442	218.262	83.1818	218.262	83.1851	218.262	83.1558	218.262	83.1581	218.262	83.1474	218.262	83.1484
225.586	84.8596	225.586	84.8419	225.586	84.8341	225.586	84.7853	225.586	84.7651	225.586	84.6973	225.586	84.6552	225.586	84.5869	225.586	84.5097	225.586	84.4629	225.586	84.3343	225.586	84.3311	225.586	84.1343	225.586	84.1937	225.586	83.9145	225.586	84.0491	225.586	83.6802	225.586	83.8945	225.586	83.4395	225.586	83.7284	225.586	83.2052	225.586	83.5533	225.586	82.9953	225.586	83.3773	225.586	82.8291	225.586	83.2126	225.586	82.7207	225.586	83.0725	225.586	82.6731	225.586	82.9655	225.586	82.6759	225.586	82.8913	225.586	82.7096	225.586	82.8402	225.586	82.7544	225.586	82.7979
232.91	85.1882	232.91	85.1392	232.91	85.1812	232.91	85.0363	232.91	85.1192	232.91	84.8846	232.91	85.0065	232.91	84.6916	232.91	84.8495	232.91	84.4658	232.91	84.6554	232.91	84.2159	232.91	84.4306	232.91	83.9501	232.91	84.1801	232.91	83.6758	232.91	83.9081	232.91	83.4017	232.91	83.6201	232.91	83.1385	232.91	83.3258	232.91	82.8995	232.91	83.0409	232.91	82.6986	232.91	82.7851	232.91	82.5458	232.91	82.5771	232.91	82.4421	232.91	82.4283	232.91	82.3794	232.91	82.3389	232.91	82.3433	232.91	82.2988	232.91	82.3202	232.91	82.2919	232.91	82.3025
241.699	84.714	241.699	84.6864	241.699	84.6744	241.699	84.5968	241.699	84.5666	241.699	84.4535	241.699	84.3941	241.699	84.2671	241.699	84.1653	241.699	84.0486	241.699	83.8921	241.699	83.8081	241.699	83.5883	241.699	83.5536	241.699	83.2664	241.699	83.2915	241.699	82.9351	241.699	83.0281	241.699	82.5994	241.699	82.7709	241.699	82.2649	241.699	82.5295	241.699	81.9449	241.699	82.3145	241.699	81.665	241.699	82.1343	241.699	81.4591	241.699	81.9922	241.699	81.3529	241.699	81.884	241.699	81.3476	241.699	81.7975	241.699	81.4164	241.699	81.7158	241.699	81.5196	241.699	81.6243
250.488	85.1285	250.488	85.051	250.488	85.1377	250.488	84.9053	250.488	85.0808	250.488	84.6953	250.488	84.9617	250.488	84.4278	250.488	84.785	250.488	84.1128	250.488	84.5555	250.488	83.7617	250.488	84.2785	250.488	83.3863	250.488	83.9605	250.488	82.9992	250.488	83.6095	250.488	82.6154	250.488	83.2355	250.488	82.2553	250.488	82.8502	250.488	81.9443	250.488	82.4683	250.488	81.7059	250.488	82.1083	250.488	81.5507	250.488	81.7935	250.488	81.4682	250.488	81.5488	250.488	81.4314	250.488	81.3914	250.488	81.4098	250.488	81.3208	250.488	81.3826	250.488	81.3163	250.488	81.3465
259.277	85.2814	259.277	85.2649	259.277	85.244	259.277	85.1948	259.277	85.1555	259.277	85.0738	259.277	85.0214	259.277	84.9061	259.277	84.849	259.277	84.6952	259.277	84.6451	259.277	84.4427	259.277	84.4144	259.277	84.1466	259.277	84.1575	259.277	83.8027	259.277	83.8718	259.277	83.4076	259.277	83.5536	259.277	82.9655	259.277	83.2017	259.277	82.4954	259.277	82.8222	259.277	82.0353	259.277	82.4314	259.277	81.6366	259.277	82.0562	259.277	81.3446	259.277	81.7285	259.277	81.1752	259.277	81.4744	259.277	81.1083	259.277	81.3019	259.277	81.1058	259.277	81.1977	259.277	81.1376
268.066	84.8308	268.066	84.7594	268.066	84.8417	268.066	84.6307	268.066	84.7955	268.066	84.4557	268.066	84.701	268.066	84.2529	268.066	84.5694	268.066	84.0442	268.066	84.411	268.066	83.8495	268.066	84.2317	268.066	83.6784	268.066	84.0307	268.066	83.525	268.066	83.802	268.066	83.3698	268.066	83.5393	268.066	83.1889	268.066	83.2434	268.066	82.9676	268.066	82.9283	268.066	82.7107	268.066	82.622	268.066	82.4453	268.066	82.358	268.066	82.2114	268.066	82.1613	268.066	82.0428	268.066	82.0367	268.066	81.9494	268.066	81.9688	268.066	81.9159	268.066	81.9344	268.066	81.9167
276.855	84.4145	276.855	84.3435	276.855	84.4087	276.855	84.196	276.855	84.3318	276.855	83.9782	276.855	84.1953	276.855	83.7028	276.855	84.0145	276.855	83.3868	276.855	83.8065	276.855	83.0488	276.855	83.5857	276.855	82.7038	276.855	83.3592	276.855	82.3582	276.855	83.1235	276.855	82.0097	276.855	82.8652	276.855	81.6533	276.855	82.5669	276.855	81.2927	276.855	82.2165	276.855	80.9488	276.855	81.8183	276.855	80.6566	276.855	81.4	276.855	80.4484	276.855	81.0096	276.855	80.3336	276.855	80.6975	276.855	80.2931	276.855	80.4896	276.855	80.2955	276.855	80.3755	276.855	80.3208
287.109	84.3333	287.109	84.3229	287.109	84.2058	287.109	84.1714	287.109	83.9562	287.109	83.8879	287.109	83.6164	287.109	83.4971	287.109	83.2373	287.109	83.0452	287.109	82.8864	287.109	82.6027	287.109	82.6299	287.109	82.2523	287.109	82.5005	287.109	82.0518	287.109	82.4736	287.109	81.9918	287.109	82.4766	287.109	81.9911	287.109	82.4245	287.109	81.9406	287.109	82.2538	287.109	81.7544	287.109	81.9379	287.109	81.3998	287.109	81.4902	287.109	80.9063	287.109	80.9582	287.109	80.3592	287.109	80.4133	287.109	79.8746	287.109	79.9362	287.109	79.5572	287.109	79.6012	287.109	79.4644
297.363	86.8248	297.363	86.7977	297.363	86.7153	297.363	86.6371	297.363	86.465	297.363	86.3448	297.363	86.0697	297.363	85.922	297.363	85.529	297.363	85.3718	297.363	84.8537	297.363	84.7048	297.363	84.0803	297.363	83.9502	297.363	83.2914	297.363	83.1744	297.363	82.6258	297.363	82.4962	297.363	82.2372	297.363	82.0666	297.363	82.1912	297.363	81.9805	297.363	82.4046	297.363	82.1899	297.363	82.7176	297.363	82.5392	297.363	83.0007	297.363	82.8776	297.363	83.1942	297.363	83.1228	297.363	83.2958	297.363	83.2609	297.363	83.333	297.363	83.3189	297.363	83.3396	297.363	83.3359
307.617	86.1312	307.617	86.1064	307.617	86.0662	307.617	85.9952	307.617	85.9062	307.617	85.8004	307.617	85.6453	307.617	85.5248	307.617	85.2788	307.617	85.1744	307.617	84.8063	307.617	84.7606	307.617	84.2381	307.617	84.3023	307.617	83.6047	307.617	83.8285	307.617	82.9698	307.617	83.38	307.617	82.4396	307.617	83.0107	307.617	82.1415	307.617	82.7809	307.617	82.1544	307.617	82.7348	307.617	82.4419	307.617	82.8715	307.617	82.8744	307.617	83.1364	307.617	83.315	307.617	83.4469	307.617	83.6747	307.617	83.7283	307.617	83.9168	307.617	83.9332	307.617	84.0361	307.617	84.0391
319.336	85.5645	319.336	85.5305	319.336	85.5075	319.336	85.4087	319.336	85.3545	319.336	85.2002	319.336	85.0984	319.336	84.9043	319.336	84.7323	319.336	84.52	319.336	84.2512	319.336	84.0495	319.336	83.6569	319.336	83.5054	319.336	82.9658	319.336	82.9195	319.336	82.2204	319.336	82.3517	319.336	81.5031	319.336	81.8873	319.336	80.9379	319.336	81.6121	319.336	80.6534	319.336	81.5677	319.336	80.7048	319.336	81.7233	319.336	81.0272	319.336	81.9938	319.336	81.4822	319.336	82.2848	319.336	81.9392	319.336	82.5231	319.336	82.3138	319.336	82.6634	319.336	82.5654	319.336	82.6814
329.59	85.8565	329.59	85.7287	329.59	85.8978	329.59	85.5151	329.59	85.8504	329.59	85.2157	329.59	85.7085	329.59	84.831	329.59	85.4628	329.59	84.363	329.59	85.1002	329.59	83.816	329.59	84.6069	329.59	83.2006	329.59	83.9747	329.59	82.5406	329.59	83.212	329.59	81.8865	329.59	82.3629	329.59	81.3274	329.59	81.5324	329.59	80.9791	329.59	80.8938	329.59	80.9258	329.59	80.6224	329.59	81.1493	329.59	80.7603	329.59	81.5334	329.59	81.1718	329.59	81.9395	329.59	81.6616	329.59	82.2668	329.59	82.0861	329.59	82.4613	329.59	82.3738	329.59	82.4998
341.309	85.5073	341.309	85.4375	341.309	85.4976	341.309	85.2873	341.309	85.4061	341.309	85.0529	341.309	85.228	341.309	84.7292	341.309	84.9572	341.309	84.3128	341.309	84.5875	341.309	83.8066	341.309	84.1162	341.309	83.2259	341.309	83.5504	341.309	82.6042	341.309	82.9162	341.309	81.998	341.309	82.2699	341.309	81.4849	341.309	81.6997	341.309	81.1482	341.309	81.3047	341.309	81.044	341.309	81.1475	341.309	81.1645	341.309	81.2168	341.309	81.4361	341.309	81.4391	341.309	81.7553	341.309	81.7217	341.309	82.0311	341.309	81.9854	341.309	82.2057	341.309	82.1744	341.309	82.2537
353.027	85.8355	353.027	85.7516	353.027	85.8427	353.027	85.5867	353.027	85.7723	353.027	85.3308	353.027	85.6181	353.027	84.9668	353.027	85.3693	353.027	84.4697	353.027	85.0113	353.027	83.8065	353.027	84.5292	353.027	82.9409	353.027	83.9127	353.027	81.8474	353.027	83.1665	353.027	80.5495	353.027	82.3251	353.027	79.2052	353.027	81.4724	353.027	78.2116	353.027	80.7499	353.027	78.0386	353.027	80.3196	353.027	78.6706	353.027	80.2661	353.027	79.6276	353.027	80.5259	353.027	80.5175	353.027	80.9371	353.027	81.1787	353.027	81.3393	353.027	81.574	353.027	81.6203	353.027	81.7123
366.211	85.5782	366.211	85.6326	366.211	85.4593	366.211	85.6188	366.211	85.2778	366.211	85.5308	366.211	85.033	366.211	85.3603	366.211	84.7204	366.211	85.096	366.211	84.3305	366.211	84.7249	366.211	83.8496	366.211	84.2336	366.211	83.267	366.211	83.6129	366.211	82.59	366.211	82.8653	366.211	81.8699	366.211	82.0228	366.211	81.226	366.211	81.1756	366.211	80.8236	366.211	80.4906	366.211	80.7669	366.211	80.1587	366.211	80.9984	366.211	80.2467	366.211	81.35	366.211	80.628	366.211	81.6684	366.211	81.1	366.211	81.8673	366.211	81.5128	366.211	81.9117	366.211	81.7922
379.395	85.3501	379.395	85.3143	379.395	85.3306	379.395	85.2308	379.395	85.2456	379.395	85.1012	379.395	85.083	379.395	84.9193	379.395	84.8285	379.395	84.6696	379.395	84.4641	379.395	84.3291	379.395	83.9656	379.395	83.8716	379.395	83.3024	379.395	83.2749	379.395	82.4421	379.395	82.5311	379.395	81.3692	379.395	81.6671	379.395	80.1336	379.395	80.7787	379.395	78.947	379.395	80.0603	379.395	78.2409	379.395	79.7462	379.395	78.3642	379.395	79.9143	379.395	79.1199	379.395	80.3889	379.395	80.0274	379.395	80.9058	379.395	80.7726	379.395	81.2755	379.395	81.238	379.395	81.4007
392.578	85.0377	392.578	84.9841	392.578	85.0542	392.578	84.893	392.578	85.0318	392.578	84.7628	392.578	84.9653	392.578	84.5871	392.578	84.8423	392.578	84.3514	392.578	84.6427	392.578	84.0306	392.578	84.3402	392.578	83.5918	392.578	83.9069	392.578	83.0051	392.578	83.3203	392.578	82.2638	392.578	82.5765	392.578	81.4167	392.578	81.7135	392.578	80.6062	392.578	80.8441	392.578	80.0592	392.578	80.1652	392.578	79.9533	392.578	79.8727	392.578	80.2432	392.578	80.0009	392.578	80.7051	392.578	80.3936	392.578	81.1216	392.578	80.8455	392.578	81.3673	392.578	81.2076	392.578	81.3949
405.762	84.4965	405.762	84.3571	405.762	84.5718	405.762	84.1592	405.762	84.5824	405.762	83.9128	405.762	84.5313	405.762	83.6267	405.762	84.4182	405.762	83.3018	405.762	84.2335	405.762	82.9277	405.762	83.953	405.762	82.4846	405.762	83.5382	405.762	81.9559	405.762	82.9415	405.762	81.3462	405.762	82.122	405.762	80.7078	405.762	81.0838	405.762	80.1653	405.762	79.9631	405.762	79.9018	405.762	79.1411	405.762	80.0499	405.762	79.0862	405.762	80.5547	405.762	79.7816	405.762	81.2064	405.762	80.7363	405.762	81.7919	405.762	81.5546	405.762	82.1742	405.762	82.0803	405.762	82.2822
420.41	85.0459	420.41	85.0435	420.41	84.9699	420.41	84.9534	420.41	84.831	420.41	84.774	420.41	84.646	420.41	84.5094	420.41	84.4245	420.41	84.1641	420.41	84.1602	420.41	83.735	420.41	83.8269	420.41	83.2035	420.41	83.385	420.41	82.5325	420.41	82.7994	420.41	81.6765	420.41	82.0658	420.41	80.6144	420.41	81.2439	420.41	79.4273	420.41	80.4799	420.41	78.4221	420.41	79.9754	420.41	78.0915	420.41	79.8626	420.41	78.5885	420.41	80.0929	420.41	79.4835	420.41	80.4888	420.41	80.3153	420.41	80.8709	420.41	80.8783	420.41	81.1133	420.41	81.1345
435.059	84.7918	435.059	84.7655	435.059	84.7907	435.059	84.7083	435.059	84.7624	435.059	84.6127	435.059	84.7016	435.059	84.4662	435.059	84.5949	435.059	84.2479	435.059	84.4191	435.059	83.9243	435.059	84.1418	435.059	83.4482	435.059	83.7269	435.059	82.762	435.059	83.1467	435.059	81.813	435.059	82.4008	435.059	80.5946	435.059	81.5383	435.059	79.2429	435.059	80.6789	435.059	78.1732	435.059	80.0075	435.059	77.9323	435.059	79.7047	435.059	78.5356	435.059	79.8175	435.059	79.4531	435.059	80.2065	435.059	80.262	435.059	80.6478	435.059	80.7974	435.059	80.9566	435.059	81.0239
451.172	84.3173	451.172	84.3668	451.172	84.1723	451.172	84.3343	451.172	83.9365	451.172	84.2421	451.172	83.6349	451.172	84.1055	451.172	83.3067	451.172	83.9167	451.172	82.9895	451.172	83.6371	451.172	82.6939	451.172	83.2055	451.172	82.3795	451.172	82.5555	451.172	81.9511	451.172	81.6355	451.172	81.2829	451.172	80.4326	451.172	80.2686	451.172	79.0272	451.172	78.9251	451.172	77.7276	451.172	77.6251	451.172	77.1562	451.172	77.2204	451.172	77.6913	451.172	78.045	451.172	78.8531	451.172	79.3204	451.172	79.9851	451.172	80.3715	451.172	80.7695	451.172	80.979	451.172	81.1092
465.82	84.2798	465.82	84.1791	465.82	84.2912	465.82	84.007	465.82	84.2127	465.82	83.7963	465.82	84.0579	465.82	83.5862	465.82	83.8452	465.82	83.4075	465.82	83.5819	465.82	83.2631	465.82	83.2492	465.82	83.1129	465.82	82.797	465.82	82.8713	465.82	82.1528	465.82	82.4259	465.82	81.2462	465.82	81.6728	465.82	80.0552	465.82	80.5809	465.82	78.7063	465.82	79.3211	465.82	77.6296	465.82	78.4248	465.82	77.4337	465.82	78.4649	465.82	78.1615	465.82	79.2448	465.82	79.2265	465.82	80.1236	465.82	80.1523	465.82	80.7269	465.82	80.7434	465.82	80.9396
483.398	85.0024	483.398	84.8374	483.398	85.0402	483.398	84.536	483.398	84.9718	483.398	84.1107	483.398	84.8207	483.398	83.6006	483.398	84.6037	483.398	83.0632	483.398	84.3238	483.398	82.5445	483.398	83.9669	483.398	82.0425	483.398	83.5037	483.398	81.4986	483.398	82.8923	483.398	80.8324	483.398	82.0785	483.398	79.9939	483.398	80.9952	483.398	79.009	483.398	79.5877	483.398	78.0325	483.398	77.934	483.398	77.389	483.398	76.5459	483.398	77.4106	483.398	76.3395	483.398	78.033	483.398	77.295	483.398	78.8221	483.398	78.4545	483.398	79.3969	483.398	79.2564	483.398	79.5669
499.512	84.1686	499.512	84.1834	499.512	84.0502	499.512	84.0976	499.512	83.8427	499.512	83.9232	499.512	83.5844	499.512	83.6739	499.512	83.3334	499.512	83.3592	499.512	83.1461	499.512	82.9786	499.512	83.0373	499.512	82.5117	499.512	82.9538	499.512	81.9088	499.512	82.7873	499.512	81.0936	499.512	82.4176	499.512	79.9901	499.512	81.7534	499.512	78.6001	499.512	80.7697	499.512	77.1821	499.512	79.5749	499.512	76.4282	499.512	78.5138	499.512	76.8598	499.512	78.093	499.512	77.9668	499.512	78.4455	499.512	79.0178	499.512	79.1353	499.512	79.6917	499.512	79.7015	499.512	79.9147
517.09	85.138	517.09	85.0952	517.09	85.0367	517.09	84.9213	517.09	84.7886	517.09	84.6367	517.09	84.4074	517.09	84.2671	517.09	83.9304	517.09	83.8408	517.09	83.4158	517.09	83.3836	517.09	82.9217	517.09	82.9096	517.09	82.467	517.09	82.4066	517.09	82.0085	517.09	81.825	517.09	81.4637	517.09	81.0875	517.09	80.7669	517.09	80.1358	517.09	79.9354	517.09	79.0267	517.09	79.1302	517.09	78.0749	517.09	78.645	517.09	77.7937	517.09	78.6882	517.09	78.3019	517.09	79.1384	517.09	79.1193	517.09	79.6765	517.09	79.7818	517.09	80.0435	517.09	80.0981
536.133	85.1247	536.133	85.0297	536.133	85.0921	536.133	84.8107	536.133	84.9382	536.133	84.4837	536.133	84.6734	536.133	84.0747	536.133	84.3029	536.133	83.612	536.133	83.8165	536.133	83.109	536.133	83.1875	536.133	82.5502	536.133	82.3894	536.133	81.8954	536.133	81.4317	536.133	81.1097	536.133	80.4056	536.133	80.2082	536.133	79.5039	536.133	79.3026	536.133	78.9471	536.133	78.6216	536.133	78.8315	536.133	78.42	536.133	79.0869	536.133	78.7584	536.133	79.5713	536.133	79.4246	536.133	80.1314	536.133	80.127	536.133	80.6177	536.133	80.6621	536.133	80.909	536.133	80.9318
555.176	85.1507	555.176	85.0842	555.176	85.054	555.176	84.8615	555.176	84.8131	555.176	84.5103	555.176	84.4687	555.176	84.0647	555.176	84.0712	555.176	83.5424	555.176	83.6599	555.176	82.9333	555.176	83.2328	555.176	82.2114	555.176	82.7243	555.176	81.3673	555.176	82.0065	555.176	80.4278	555.176	80.9243	555.176	79.4487	555.176	79.3707	555.176	78.5119	555.176	77.4987	555.176	77.8004	555.176	76.2197	555.176	77.6641	555.176	76.7112	555.176	78.3109	555.176	78.2849	555.176	79.421	555.176	79.7756	555.176	80.4904	555.176	80.8237	555.176	81.2278	555.176	81.4046	555.176	81.5375
574.219	85.4313	574.219	85.3402	574.219	85.405	574.219	85.1285	574.219	85.2713	574.219	84.8036	574.219	85.0434	574.219	84.3852	574.219	84.734	574.219	83.8961	574.219	84.348	574.219	83.339	574.219	83.8734	574.219	82.6691	574.219	83.2749	574.219	81.7848	574.219	82.4947	574.219	80.5545	574.219	81.4541	574.219	78.8802	574.219	80.055	574.219	76.8558	574.219	78.2229	574.219	75.1688	574.219	76.1599	574.219	75.0563	574.219	75.0099	574.219	76.3821	574.219	75.9527	574.219	77.9553	574.219	77.7698	574.219	79.209	574.219	79.2314	574.219	80.0068	574.219	80.0686	574.219	80.3076
594.727	84.3586	594.727	84.3349	594.727	84.2788	594.727	84.2208	594.727	84.1128	594.727	84.0487	594.727	83.9073	594.727	83.847	594.727	83.7187	594.727	83.6142	594.727	83.5741	594.727	83.3086	594.727	83.435	594.727	82.8624	594.727	83.193	594.727	82.2031	594.727	82.7036	594.727	81.262	594.727	81.8299	594.727	79.9747	594.727	80.4933	594.727	78.3327	594.727	78.7885	594.727	76.6183	594.727	77.2562	594.727	75.7858	594.727	76.8599	594.727	76.5516	594.727	77.688	594.727	78.031	594.727	78.848	594.727	79.3048	594.727	79.777	594.727	80.1096	594.727	80.3179	594.727	80.4367
615.234	85.2492	615.234	85.1602	615.234	85.1473	615.234	84.889	615.234	84.865	615.234	84.4665	615.234	84.4302	615.234	83.9446	615.234	83.8871	615.234	83.3765	615.234	83.2899	615.234	82.7761	615.234	82.6817	615.234	82.0861	615.234	82.06	615.234	81.1945	615.234	81.3461	615.234	79.9941	615.234	80.3883	615.234	78.4507	615.234	79.0215	615.234	76.71	615.234	77.2477	615.234	75.3462	615.234	75.7637	615.234	75.3636	615.234	76.0452	615.234	76.8248	615.234	77.7925	615.234	78.6578	615.234	79.5425	615.234	80.1587	615.234	80.7659	615.234	81.1254	615.234	81.4219	615.234	81.5406
637.207	84.179	637.207	84.1412	637.207	84.1072	637.207	84.0064	637.207	83.9445	637.207	83.814	637.207	83.7402	637.207	83.6169	637.207	83.5528	637.207	83.4457	637.207	83.3949	637.207	83.2609	637.207	83.1829	637.207	82.9349	637.207	82.7506	637.207	82.2826	637.207	81.9114	637.207	81.1008	637.207	80.5055	637.207	79.1947	637.207	78.4278	637.207	76.491	637.207	75.7699	637.207	73.7801	637.207	73.5397	637.207	73.6175	637.207	73.8072	637.207	75.5312	637.207	75.7529	637.207	77.271	637.207	77.5289	637.207	78.4255	637.207	78.6956	637.207	79.1078	637.207	79.2869	637.207	79.3991
659.18	83.3019	659.18	83.26	659.18	83.1584	659.18	83.0534	659.18	82.8786	659.18	82.7769	659.18	82.5836	659.18	82.5815	659.18	82.4477	659.18	82.5787	659.18	82.5868	659.18	82.7146	659.18	82.9088	659.18	82.7717	659.18	83.1295	659.18	82.486	659.18	82.9222	659.18	81.6197	659.18	81.9915	659.18	79.9555	659.18	80.036	659.18	77.3238	659.18	76.7342	659.18	74.246	659.18	72.888	659.18	73.9456	659.18	73.8595	659.18	76.5622	659.18	77.1235	659.18	78.8716	659.18	79.3063	659.18	80.338	659.18	80.5618	659.18	81.1253	659.18	81.206	659.18	81.3884
682.617	84.9877	682.617	84.8044	682.617	84.7583	682.617	84.2256	682.617	84.132	682.617	83.3368	682.617	83.1817	682.617	82.3899	682.617	82.1332	682.617	81.8388	682.617	81.4573	682.617	81.9509	682.617	81.5644	682.617	82.3668	682.617	82.2019	682.617	82.4901	682.617	82.7107	682.617	81.8996	682.617	82.5604	682.617	80.2719	682.617	81.323	682.617	77.1044	682.617	78.3584	682.617	71.5719	682.617	72.2498	682.617	71.4292	682.617	71.3858	682.617	77.3167	682.617	78.022	682.617	80.8371	682.617	81.4631	682.617	82.828	682.617	83.2326	682.617	83.8647	682.617	84.0525	682.617	84.2367
707.52	86.2009	707.52	86.104	707.52	86.0336	707.52	85.7393	707.52	85.5994	707.52	85.109	707.52	84.9136	707.52	84.2838	707.52	84.069	707.52	83.519	707.52	83.3036	707.52	83.24	707.52	82.9291	707.52	83.5617	707.52	83	707.52	83.9926	707.52	83.1727	707.52	83.9278	707.52	82.9934	707.52	82.9349	707.52	82.0566	707.52	80.5697	707.52	79.843	707.52	75.7716	707.52	75.0766	707.52	61.8646	707.52	58.8327	707.52	72.0236	707.52	73.0877	707.52	78.4245	707.52	79.0921	707.52	81.426	707.52	81.8629	707.52	82.9502	707.52	83.1657	707.52	83.4895
732.422	86.4397	732.422	86.2752	732.422	86.2487	732.422	85.7574	732.422	85.6785	732.422	84.8796	732.422	84.7152	732.422	83.711	732.422	83.4578	732.422	82.6124	732.422	82.3578	732.422	82.3147	732.422	82.2197	732.422	83.0294	732.422	83.1021	732.422	83.967	732.422	84.0841	732.422	84.3773	732.422	84.4469	732.422	83.8591	732.422	83.8328	732.422	82.0526	732.422	81.8966	732.422	78.1942	732.422	77.8102	732.422	69.5201	732.422	67.7243	732.422	71.4479	732.422	71.3551	732.422	78.4475	732.422	78.5546	732.422	81.586	732.422	81.6597	732.422	83.0737	732.422	83.1091	732.422	83.5297
757.324	88.3058	757.324	88.1077	757.324	88.1561	757.324	87.5396	757.324	87.6356	757.324	86.5435	757.324	86.6681	757.324	85.0382	757.324	85.1475	757.324	83.0145	757.324	83.079	757.324	81.0266	757.324	81.1412	757.324	80.7265	757.324	81.0173	757.324	82.0921	757.324	82.4331	757.324	83.2138	757.324	83.583	757.324	83.2179	757.324	83.692	757.324	81.747	757.324	82.3767	757.324	78.0932	757.324	78.8391	757.324	69.7345	757.324	69.573	757.324	72.9126	757.324	72.6607	757.324	79.6555	757.324	80.1094	757.324	82.9081	757.324	83.3445	757.324	84.5648	757.324	84.8195	757.324	85.167
785.156	87.2043	785.156	87.1413	785.156	87.0512	785.156	86.8205	785.156	86.6801	785.156	86.1599	785.156	86.0517	785.156	85.0694	785.156	85.0972	785.156	83.5603	785.156	83.7638	785.156	82.0653	785.156	82.2273	785.156	81.6381	785.156	81.3059	785.156	82.4609	785.156	81.7547	785.156	83.3169	785.156	82.6634	785.156	83.3274	785.156	82.8479	785.156	82.0327	785.156	81.6823	785.156	78.746	785.156	78.4109	785.156	70.9667	785.156	70.1384	785.156	70.2102	785.156	70.1674	785.156	78.4451	785.156	78.4881	785.156	82.0131	785.156	82.0028	785.156	83.696	785.156	83.673	785.156	84.1898
811.523	87.9344	811.523	87.8378	811.523	87.865	811.523	87.5417	811.523	87.5885	811.523	86.9473	811.523	86.9748	811.523	85.8773	811.523	85.803	811.523	84.0445	811.523	83.7792	811.523	81.1203	811.523	80.7425	811.523	78.1629	811.523	78.4353	811.523	79.6704	811.523	80.3091	811.523	82.4841	811.523	82.8435	811.523	83.7	811.523	84.0028	811.523	83.1339	811.523	83.5846	811.523	80.5176	811.523	81.2645	811.523	74.5809	811.523	76.2033	811.523	71.6661	811.523	74.4643	811.523	79.1176	811.523	80.348	811.523	82.9046	811.523	83.6715	811.523	84.8	811.523	85.1922	811.523	85.5092
840.82	87.1888	840.82	87.1533	840.82	87.2312	840.82	87.12	840.82	87.2441	840.82	87.0052	840.82	87.1405	840.82	86.6074	840.82	86.7408	840.82	85.6044	840.82	85.7299	840.82	83.512	840.82	83.5918	840.82	79.5185	840.82	79.5003	840.82	75.0141	840.82	75.5395	840.82	79.5951	840.82	80.1776	840.82	83.4178	840.82	83.7474	840.82	84.8478	840.82	85.1166	840.82	84.3915	840.82	84.7264	840.82	82.1136	840.82	82.5334	840.82	78.2734	840.82	78.6562	840.82	77.7979	840.82	78.2611	840.82	81.4608	840.82	81.9151	840.82	83.8668	840.82	84.116	840.82	84.7067
870.117	87.147	870.117	87.0543	870.117	87.0752	870.117	86.837	870.117	86.8749	870.117	86.5766	870.117	86.6301	870.117	86.3099	870.117	86.3719	870.117	85.928	870.117	85.9798	870.117	85.1462	870.117	85.1827	870.117	83.5504	870.117	83.6202	870.117	80.714	870.117	80.9865	870.117	77.6389	870.117	78.309	870.117	79.1717	870.117	79.4842	870.117	81.9822	870.117	82.0185	870.117	83.0761	870.117	83.1105	870.117	82.3356	870.117	82.473	870.117	79.6084	870.117	79.8954	870.117	74.3967	870.117	74.6926	870.117	71.078	870.117	69.8254	870.117	74.6402	870.117	73.9708	870.117	75.8433
900.879	87.5702	900.879	87.49	900.879	87.3999	900.879	87.1818	900.879	86.9824	900.879	86.6777	900.879	86.3489	900.879	86.0029	900.879	85.5531	900.879	85.1755	900.879	84.6697	900.879	84.2059	900.879	83.7889	900.879	83.0866	900.879	82.9348	900.879	81.8399	900.879	81.9716	900.879	80.69	900.879	80.8101	900.879	80.1308	900.879	79.8945	900.879	80.2641	900.879	79.8264	900.879	80.3304	900.879	79.9767	900.879	79.4826	900.879	79.2799	900.879	77.1664	900.879	77.2517	900.879	73.3378	900.879	74.1158	900.879	71.323	900.879	72.1758	900.879	73.1271	900.879	73.1825	900.879	73.9942
933.105	87.3643	933.105	87.3229	933.105	87.1709	933.105	87.0121	933.105	86.7697	933.105	86.4078	933.105	86.1772	933.105	85.5232	933.105	85.388	933.105	84.4034	933.105	84.3468	933.105	83.0973	933.105	82.9559	933.105	81.6723	933.105	81.2068	933.105	80.2991	933.105	79.542	933.105	79.2532	933.105	78.8633	933.105	78.7013	933.105	79.026	933.105	78.478	933.105	78.9356	933.105	78.0293	933.105	77.9849	933.105	76.6241	933.105	75.8957	933.105	73.9502	933.105	72.6914	933.105	72.4785	933.105	71.7596	933.105	74.9317	933.105	74.9712	933.105	77.2606	933.105	77.3765	933.105	78.1054
965.332	86.7737	965.332	86.6077	965.332	86.7018	965.332	86.2596	965.332	86.3674	965.332	85.774	965.332	85.772	965.332	85.1356	965.332	84.9209	965.332	84.2615	965.332	83.8373	965.332	83.0648	965.332	82.5951	965.332	81.6325	965.332	81.2743	965.332	80.4029	965.332	79.8895	965.332	79.7692	965.332	78.6291	965.332	79.4371	965.332	78.0826	965.332	78.8632	965.332	78.0823	965.332	77.6279	965.332	77.3827	965.332	75.3232	965.332	75.0177	965.332	72.2039	965.332	71.0676	965.332	72.0518	965.332	71.341	965.332	74.9769	965.332	75.1637	965.332	77.1118	965.332	77.3718	965.332	77.9306
1000.49	86.4243	1000.49	86.432	1000.49	86.2121	1000.49	86.1387	1000.49	85.8687	1000.49	85.488	1000.49	85.3819	1000.49	84.4796	1000.49	84.6446	1000.49	83.1456	1000.49	83.4895	1000.49	81.5223	1000.49	81.7699	1000.49	79.6852	1000.49	79.6523	1000.49	78.108	1000.49	78.2366	1000.49	77.8576	1000.49	78.4354	1000.49	78.6114	1000.49	78.9468	1000.49	78.7971	1000.49	78.5817	1000.49	77.5592	1000.49	76.9359	1000.49	74.4645	1000.49	73.7634	1000.49	70.2032	1000.49	70.2439	1000.49	71.836	1000.49	72.2966	1000.49	75.5414	1000.49	75.7011	1000.49	77.5258	1000.49	77.5581	1000.49	78.1223
1035.64	86.6003	1035.64	86.3309	1035.64	86.5698	1035.64	85.8489	1035.64	86.2326	1035.64	85.2615	1035.64	85.6498	1035.64	84.5713	1035.64	84.8655	1035.64	83.5921	1035.64	83.812	1035.64	82.0154	1035.64	82.2929	1035.64	79.6497	1035.64	80.0673	1035.64	77.3463	1035.64	77.3777	1035.64	77.5006	1035.64	76.4344	1035.64	78.748	1035.64	77.7438	1035.64	78.6739	1035.64	78.318	1035.64	76.4505	1035.64	76.7634	1035.64	70.4641	1035.64	71.2723	1035.64	62.1299	1035.64	60.8942	1035.64	74.054	1035.64	74.2942	1035.64	78.51	1035.64	78.651	1035.64	80.4945	1035.64	80.5281	1035.64	81.0686
1072.27	86.4458	1072.27	86.4154	1072.27	86.2783	1072.27	86.186	1072.27	85.9376	1072.27	85.7573	1072.27	85.4863	1072.27	85.1062	1072.27	84.9678	1072.27	84.1505	1072.27	84.2469	1072.27	82.6905	1072.27	82.9186	1072.27	80.2783	1072.27	80.4205	1072.27	76.187	1072.27	76.6842	1072.27	73.7451	1072.27	75.8064	1072.27	77.8892	1072.27	78.6127	1072.27	80.2542	1072.27	80.2176	1072.27	80.063	1072.27	79.9656	1072.27	77.3062	1072.27	77.4324	1072.27	70.4324	1072.27	70.7625	1072.27	67.8841	1072.27	68.5987	1072.27	75.786	1072.27	76.0003	1072.27	78.9735	1072.27	79.008	1072.27	79.8692
1108.89	86.9699	1108.89	86.7547	1108.89	86.855	1108.89	86.2721	1108.89	86.4314	1108.89	85.6798	1108.89	85.7846	1108.89	85.1351	1108.89	85.0473	1108.89	84.599	1108.89	84.327	1108.89	83.7777	1108.89	83.5383	1108.89	82.2728	1108.89	82.2769	1108.89	79.674	1108.89	79.8813	1108.89	75.7497	1108.89	75.9511	1108.89	73.8257	1108.89	74.3431	1108.89	76.6671	1108.89	76.8246	1108.89	78.0552	1108.89	77.7093	1108.89	76.5647	1108.89	76.1312	1108.89	70.596	1108.89	70.6081	1108.89	58.1949	1108.89	57.8204	1108.89	73.4013	1108.89	73.6776	1108.89	77.4834	1108.89	77.7675	1108.89	78.7333
1148.44	86.2422	1148.44	86.1166	1148.44	85.9968	1148.44	85.6347	1148.44	85.415	1148.44	84.8527	1148.44	84.6208	1148.44	83.9139	1148.44	83.8262	1148.44	83.0342	1148.44	83.131	1148.44	82.2338	1148.44	82.2693	1148.44	81.0932	1148.44	80.8027	1148.44	78.9844	1148.44	78.5829	1148.44	75.9284	1148.44	76.3295	1148.44	75.07	1148.44	75.8012	1148.44	76.82	1148.44	76.6729	1148.44	77.3951	1148.44	76.9009	1148.44	75.9232	1148.44	75.3606	1148.44	71.4259	1148.44	70.8589	1148.44	59.5042	1148.44	64.911	1148.44	70.6947	1148.44	72.2753	1148.44	75.5464	1148.44	76.0614	1148.44	76.9772
1189.45	86.8266	1189.45	86.6201	1189.45	86.576	1189.45	85.9633	1189.45	85.9157	1189.45	85.0197	1189.45	84.9893	1189.45	84.1861	1189.45	84.0742	1189.45	83.6724	1189.45	83.3551	1189.45	83.0635	1189.45	82.6241	1189.45	81.7935	1189.45	81.3861	1189.45	79.5605	1189.45	79.1548	1189.45	76.6605	1189.45	76.138	1189.45	75.3123	1189.45	75.0756	1189.45	76.2874	1189.45	76.4242	1189.45	76.6452	1189.45	76.8337	1189.45	74.822	1189.45	74.6982	1189.45	68.0826	1189.45	66.188	1189.45	63.369	1189.45	67.0164	1189.45	74.4864	1189.45	75.3767	1189.45	77.9195	1189.45	78.1572	1189.45	78.8623
1230.47	86.8453	1230.47	86.586	1230.47	86.5706	1230.47	85.8838	1230.47	85.7655	1230.47	84.8601	1230.47	84.5547	1230.47	83.6723	1230.47	83.2223	1230.47	82.6086	1230.47	82.2221	1230.47	81.8721	1230.47	81.6221	1230.47	81.0233	1230.47	80.6333	1230.47	79.1513	1230.47	78.2933	1230.47	75.8373	1230.47	74.7291	1230.47	75.1216	1230.47	75.2129	1230.47	77.9303	1230.47	78.0057	1230.47	78.8248	1230.47	78.6287	1230.47	76.9916	1230.47	76.4736	1230.47	70.9804	1230.47	69.643	1230.47	58.733	1230.47	65.9805	1230.47	74.038	1230.47	74.8322	1230.47	77.9992	1230.47	78.0906	1230.47	79.0254
1274.41	86.506	1274.41	86.4223	1274.41	86.2229	1274.41	85.8181	1274.41	85.5864	1274.41	84.5771	1274.41	84.4401	1274.41	82.8369	1274.41	82.7115	1274.41	81.2586	1274.41	80.8862	1274.41	80.4697	1274.41	79.9828	1274.41	79.8592	1274.41	79.7115	1274.41	78.3722	1274.41	78.3816	1274.41	74.7893	1274.41	74.3516	1274.41	69.1368	1274.41	70.1479	1274.41	74.0301	1274.41	74.8359	1274.41	76.9348	1274.41	77.1313	1274.41	76.0113	1274.41	76.6854	1274.41	70.9709	1274.41	73.035	1274.41	52.1102	1274.41	63.3548	1274.41	71.5714	1274.41	72.5797	1274.41	76.5488	1274.41	77.1906	1274.41	78.1678
1319.82	86.9861	1319.82	86.7058	1319.82	86.8554	1319.82	86.1183	1319.82	86.2017	1319.82	85.1663	1319.82	85.0091	1319.82	83.6594	1319.82	83.3568	1319.82	81.5712	1319.82	81.5775	1319.82	79.6164	1319.82	80.3424	1319.82	78.7264	1319.82	79.6315	1319.82	77.7934	1319.82	78.4832	1319.82	75.0263	1319.82	75.9531	1319.82	70.5626	1319.82	71.5556	1319.82	73.1113	1319.82	71.946	1319.82	76.1056	1319.82	75.6227	1319.82	75.8657	1319.82	76.2253	1319.82	71.8581	1319.82	73.0353	1319.82	62.8741	1319.82	62.3395	1319.82	72.087	1319.82	70.5501	1319.82	76.2672	1319.82	75.6939	1319.82	77.192
1366.7	86.5937	1366.7	86.4363	1366.7	86.4035	1366.7	85.9411	1366.7	85.8946	1366.7	85.0779	1366.7	85.0518	1366.7	83.6819	1366.7	83.8018	1366.7	81.7096	1366.7	82.1842	1366.7	79.9643	1366.7	80.4866	1366.7	79.3173	1366.7	79.1939	1366.7	78.61	1366.7	78.2388	1366.7	76.7257	1366.7	76.4548	1366.7	73.2998	1366.7	72.8108	1366.7	69.8465	1366.7	71.4885	1366.7	72.7136	1366.7	74.6183	1366.7	74.6455	1366.7	75.4017	1366.7	72.4532	1366.7	72.5758	1366.7	61.3772	1366.7	61.0168	1366.7	68.7366	1366.7	67.7687	1366.7	74.4963	1366.7	73.8834	1366.7	75.6247
1413.57	87.0393	1413.57	86.9666	1413.57	86.8215	1413.57	86.5478	1413.57	86.3203	1413.57	85.6859	1413.57	85.5134	1413.57	84.3545	1413.57	84.3349	1413.57	82.6987	1413.57	82.6515	1413.57	80.8834	1413.57	80.5238	1413.57	79.0158	1413.57	78.7061	1413.57	77.3558	1413.57	77.582	1413.57	75.6578	1413.57	75.8754	1413.57	72.5271	1413.57	72.8502	1413.57	70.1404	1413.57	71.7764	1413.57	73.92	1413.57	74.3942	1413.57	75.4833	1413.57	75.853	1413.57	73.8821	1413.57	74.3937	1413.57	68.0845	1413.57	67.1839	1413.57	56.8676	1413.57	65.4847	1413.57	71.1109	1413.57	73.2765	1413.57	74.3189
1463.38	86.9829	1463.38	86.8528	1463.38	86.6846	1463.38	86.3276	1463.38	85.9396	1463.38	85.4689	1463.38	84.8069	1463.38	84.3058	1463.38	83.3854	1463.38	82.7745	1463.38	81.8085	1463.38	81.0565	1463.38	80.3566	1463.38	79.6274	1463.38	79.097	1463.38	78.2448	1463.38	77.548	1463.38	76.1967	1463.38	75.1951	1463.38	73.4007	1463.38	71.9388	1463.38	70.7555	1463.38	69.038	1463.38	71.8369	1463.38	71.335	1463.38	73.6525	1463.38	73.7296	1463.38	72.5421	1463.38	73.1816	1463.38	66.8026	1463.38	68.2413	1463.38	57.0485	1463.38	55.004	1463.38	68.9445	1463.38	69.9412	1463.38	71.9029
1516.11	85.7508	1516.11	85.6514	1516.11	85.442	1516.11	85.1285	1516.11	84.8161	1516.11	84.1611	1516.11	83.852	1516.11	82.6891	1516.11	82.3688	1516.11	80.9509	1516.11	80.4091	1516.11	79.5277	1516.11	78.5458	1516.11	78.5416	1516.11	77.3438	1516.11	77.5467	1516.11	76.1201	1516.11	75.9917	1516.11	73.7576	1516.11	73.2673	1516.11	70.426	1516.11	69.9633	1516.11	68.8989	1516.11	69.5938	1516.11	70.0492	1516.11	70.7478	1516.11	71.0505	1516.11	70.3119	1516.11	69.8231	1516.11	66.2899	1516.11	64.2836	1516.11	65.3177	1516.11	63.0709	1516.11	70.9292	1516.11	69.4708	1516.11	71.9218
1568.85	85.0792	1568.85	85.0064	1568.85	84.8489	1568.85	84.4599	1568.85	84.3844	1568.85	83.3493	1568.85	83.5294	1568.85	81.779	1568.85	82.0374	1568.85	79.8126	1568.85	79.7634	1568.85	77.495	1568.85	77.117	1568.85	75.8165	1568.85	75.6447	1568.85	74.7884	1568.85	75.0559	1568.85	72.3878	1568.85	73.2071	1568.85	69.7189	1568.85	70.5327	1568.85	70.476	1568.85	70.9812	1568.85	70.0297	1568.85	70.8652	1568.85	67.8667	1568.85	67.9184	1568.85	65.3601	1568.85	64.9633	1568.85	64.3997	1568.85	63.1465	1568.85	69.5981	1568.85	67.9631	1568.85	72.7353	1568.85	72.2512	1568.85	73.5934
1624.51	85.931	1624.51	85.7423	1624.51	85.7406	1624.51	85.0014	1624.51	85.2069	1624.51	83.8885	1624.51	84.2035	1624.51	82.5846	1624.51	82.7169	1624.51	80.5235	1624.51	80.5871	1624.51	77.3084	1624.51	77.8042	1624.51	75.2697	1624.51	76.1295	1624.51	75.3762	1624.51	76.6845	1624.51	73.6876	1624.51	75.644	1624.51	68.5402	1624.51	69.8768	1624.51	69.8491	1624.51	69.2032	1624.51	73.2441	1624.51	73.6935	1624.51	72.152	1624.51	72.9816	1624.51	66.119	1624.51	65.2482	1624.51	60.156	1624.51	64.4044	1624.51	72.3482	1624.51	73.2289	1624.51	76.3302	1624.51	76.4076	1624.51	77.3885
1681.64	87.0558	1681.64	86.6008	1681.64	86.7243	1681.64	85.5883	1681.64	85.6471	1681.64	84.3871	1681.64	84.2573	1681.64	83.097	1681.64	83.1131	1681.64	81.5157	1681.64	81.8566	1681.64	79.3175	1681.64	79.4557	1681.64	76.2038	1681.64	76.0878	1681.64	75.4045	1681.64	75.6988	1681.64	76.6795	1681.64	76.2922	1681.64	73.8136	1681.64	73.0749	1681.64	62.1903	1681.64	63.6492	1681.64	72.8019	1681.64	73.6712	1681.64	75.5996	1681.64	75.8009	1681.64	74.06	1681.64	72.6699	1681.64	68.5168	1681.64	65.2206	1681.64	71.1842	1681.64	73.1613	1681.64	76.527	1681.64	77.3848	1681.64	78.2677
1741.7	86.3189	1741.7	85.7169	1741.7	86.0013	1741.7	84.5834	1741.7	84.7864	1741.7	83.2587	1741.7	83.2337	1741.7	81.7779	1741.7	82.1024	1741.7	80.5543	1741.7	81.2636	1741.7	79.458	1741.7	79.5506	1741.7	76.9861	1741.7	76.3126	1741.7	74.9804	1741.7	74.6258	1741.7	75.9893	1741.7	76.1132	1741.7	74.0218	1741.7	74.7182	1741.7	66.2618	1741.7	65.2488	1741.7	70.7268	1741.7	71.2255	1741.7	75.0673	1741.7	75.1813	1741.7	74.5099	1741.7	74.6048	1741.7	69.2676	1741.7	69.9001	1741.7	68.7065	1741.7	70.7793	1741.7	74.7029	1741.7	76.1635	1741.7	77.1041
1803.22	86.0539	1803.22	85.6016	1803.22	85.7858	1803.22	84.5926	1803.22	84.7983	1803.22	83.1644	1803.22	83.2487	1803.22	81.4239	1803.22	81.4613	1803.22	79.9454	1803.22	80.213	1803.22	79.0308	1803.22	79.4825	1803.22	77.1563	1803.22	77.7981	1803.22	74.4968	1803.22	74.9452	1803.22	74.6438	1803.22	75.7508	1803.22	74.6267	1803.22	76.2625	1803.22	70.4918	1803.22	71.0068	1803.22	68.9633	1803.22	65.6252	1803.22	75.4589	1803.22	74.6844	1803.22	75.4609	1803.22	75.8913	1803.22	70.924	1803.22	71.3831	1803.22	65.4378	1803.22	68.6726	1803.22	74.2818	1803.22	75.2556	1803.22	76.8462
1866.21	86.6695	1866.21	86.4108	1866.21	86.3783	1866.21	85.7794	1866.21	85.6404	1866.21	84.7078	1866.21	84.6376	1866.21	83.0688	1866.21	83.2036	1866.21	81.3383	1866.21	81.5339	1866.21	79.9042	1866.21	80.4272	1866.21	78.2691	1866.21	79.28	1866.21	75.6318	1866.21	77.1029	1866.21	74.7157	1866.21	76.3131	1866.21	76.0132	1866.21	76.815	1866.21	73.0637	1866.21	73.7305	1866.21	65.3215	1866.21	67.6953	1866.21	73.8196	1866.21	73.8076	1866.21	75.5036	1866.21	75.7853	1866.21	72.2948	1866.21	73.4873	1866.21	66.1858	1866.21	67.4408	1866.21	72.5369	1866.21	72.5366	1866.21	75.1883
1932.13	86.6851	1932.13	86.492	1932.13	86.4491	1932.13	86.0899	1932.13	85.7943	1932.13	85.3435	1932.13	84.9714	1932.13	84.0776	1932.13	83.9024	1932.13	82.5429	1932.13	82.3887	1932.13	80.9426	1932.13	80.7958	1932.13	79.5733	1932.13	79.4499	1932.13	77.9036	1932.13	77.3587	1932.13	76.4196	1932.13	75.2591	1932.13	77.0894	1932.13	75.6292	1932.13	75.0379	1932.13	74.3056	1932.13	67.5911	1932.13	66.7334	1932.13	69.8158	1932.13	73.3621	1932.13	75.4272	1932.13	76.7384	1932.13	74.4837	1932.13	75.3157	1932.13	68.0592	1932.13	67.9629	1932.13	67.2703	1932.13	69.6935	1932.13	72.0396
1999.51	86.3547	1999.51	86.2368	1999.51	86.1019	1999.51	85.742	1999.51	85.5134	1999.51	84.9308	1999.51	84.6817	1999.51	83.9847	1999.51	83.6064	1999.51	82.9372	1999.51	82.3445	1999.51	81.5747	1999.51	80.8647	1999.51	79.6704	1999.51	78.7059	1999.51	78.0154	1999.51	76.6124	1999.51	77.0894	1999.51	74.8883	1999.51	76.0557	1999.51	74.3129	1999.51	75.1543	1999.51	74.0019	1999.51	72.6853	1999.51	70.939	1999.51	68.6259	1999.51	65.0625	1999.51	73.5984	1999.51	72.9247	1999.51	73.8634	1999.51	73.8669	1999.51	68.2183	1999.51	68.1392	1999.51	59.5918	1999.51	57.9826	1999.51	67.831
2069.82	86.5538	2069.82	86.3776	2069.82	86.4095	2069.82	85.8056	2069.82	85.9294	2069.82	84.8805	2069.82	85.0605	2069.82	83.6917	2069.82	83.9635	2069.82	82.4211	2069.82	82.9016	2069.82	81.2396	2069.82	81.8555	2069.82	79.5875	2069.82	80.2249	2069.82	77.0368	2069.82	77.7447	2069.82	75.4925	2069.82	75.6364	2069.82	74.5231	2069.82	75.4269	2069.82	73.5097	2069.82	74.0462	2069.82	72.0523	2069.82	71.6882	2069.82	69.7909	2069.82	69.5955	2069.82	72.8432	2069.82	71.9576	2069.82	73.0134	2069.82	73.4803	2069.82	66.0778	2069.82	68.3812	2069.82	65.1483	2069.82	64.2704	2069.82	69.1412
2143.07	87.1049	2143.07	86.9553	2143.07	86.8229	2143.07	86.3936	2143.07	86.3074	2143.07	85.5499	2143.07	85.5911	2143.07	84.4534	2143.07	84.6398	2143.07	83.1909	2143.07	83.4673	2143.07	81.8377	2143.07	82.441	2143.07	80.2867	2143.07	81.0388	2143.07	77.5753	2143.07	78.376	2143.07	74.1886	2143.07	76.8711	2143.07	73.8228	2143.07	76.5204	2143.07	73.2422	2143.07	74.3256	2143.07	70.784	2143.07	72.2746	2143.07	68.3927	2143.07	69.5552	2143.07	70.5608	2143.07	71.2218	2143.07	72.5391	2143.07	71.9065	2143.07	66.0591	2143.07	67.3811	2143.07	64.9691	2143.07	65.2453	2143.07	69.7734
2219.24	86.5136	2219.24	86.1278	2219.24	86.2121	2219.24	85.5575	2219.24	85.4641	2219.24	84.8032	2219.24	84.7516	2219.24	83.8925	2219.24	83.4578	2219.24	82.7352	2219.24	81.9824	2219.24	81.6006	2219.24	80.9999	2219.24	80.5482	2219.24	79.846	2219.24	78.8065	2219.24	77.209	2219.24	77.0854	2219.24	73.9948	2219.24	75.3325	2219.24	73.8467	2219.24	74.0611	2219.24	73.1837	2219.24	73.219	2219.24	71.7204	2219.24	71.1032	2219.24	69.6569	2219.24	67.8057	2219.24	68.5948	2219.24	70.9969	2219.24	71.226	2219.24	68.057	2219.24	64.0675	2219.24	62.7015	2219.24	65.6343	2219.24	69.669
2296.88	86.1311	2296.88	85.9395	2296.88	86.0022	2296.88	85.4509	2296.88	85.6737	2296.88	84.8339	2296.88	85.0342	2296.88	83.9563	2296.88	84.0961	2296.88	82.6128	2296.88	82.5851	2296.88	80.9234	2296.88	80.752	2296.88	80.0312	2296.88	79.6434	2296.88	78.5394	2296.88	78.0441	2296.88	76.1387	2296.88	75.1504	2296.88	75.1882	2296.88	74.0951	2296.88	72.1051	2296.88	71.8926	2296.88	71.6782	2296.88	70.9072	2296.88	71.6899	2296.88	70.4069	2296.88	68.4501	2296.88	66.3206	2296.88	71.1681	2296.88	71.0129	2296.88	68.5669	2296.88	68.2514	2296.88	63.9983	2296.88	64.1743	2296.88	68.6493
2378.91	86.8976	2378.91	86.6661	2378.91	86.7729	2378.91	86.2757	2378.91	86.5129	2378.91	85.8426	2378.91	86.0851	2378.91	84.8449	2378.91	85.1647	2378.91	83.4665	2378.91	83.779	2378.91	81.6953	2378.91	82.1072	2378.91	79.8951	2378.91	80.6617	2378.91	78.6095	2378.91	79.5085	2378.91	75.8409	2378.91	76.729	2378.91	74.5602	2378.91	74.9637	2378.91	73.2512	2378.91	74.1884	2378.91	69.3554	2378.91	71.7531	2378.91	71.7518	2378.91	72.0027	2378.91	67.6796	2378.91	69.824	2378.91	68.3463	2378.91	69.9823	2378.91	67.32	2378.91	67.0785	2378.91	67.0524	2378.91	68.1148	2378.91	71.2001
2462.4	86.4996	2462.4	86.4556	2462.4	86.3412	2462.4	86.2702	2462.4	86.0772	2462.4	85.9006	2462.4	85.6892	2462.4	85.0641	2462.4	84.8921	2462.4	83.8102	2462.4	83.801	2462.4	82.1716	2462.4	82.0447	2462.4	80.114	2462.4	79.941	2462.4	78.4241	2462.4	78.3591	2462.4	76.4142	2462.4	76.4639	2462.4	74.3659	2462.4	73.9296	2462.4	73.7755	2462.4	72.2448	2462.4	70.4083	2462.4	70.2478	2462.4	71.1288	2462.4	70.4399	2462.4	70.8784	2462.4	68.9981	2462.4	70.301	2462.4	71.2931	2462.4	66.492	2462.4	66.8453	2462.4	63.3926	2462.4	65.8958	2462.4	69.3023
2548.83	85.6563	2548.83	85.651	2548.83	85.678	2548.83	85.6797	2548.83	85.7043	2548.83	85.4388	2548.83	85.3864	2548.83	84.718	2548.83	84.6701	2548.83	83.6231	2548.83	83.5666	2548.83	82.1642	2548.83	81.9369	2548.83	79.9311	2548.83	79.7952	2548.83	78.1741	2548.83	77.8456	2548.83	76.0894	2548.83	75.8773	2548.83	73.5523	2548.83	74.0381	2548.83	73.2102	2548.83	72.6269	2548.83	70.5643	2548.83	70.1531	2548.83	69.8834	2548.83	70.4764	2548.83	69.4334	2548.83	68.3514	2548.83	71.8234	2548.83	71.1656	2548.83	69.3282	2548.83	69.1631	2548.83	66.3269	2548.83	63.2079	2548.83	69.8586
2639.65	86.0417	2639.65	86.1231	2639.65	86.214	2639.65	86.282	2639.65	86.1599	2639.65	85.9529	2639.65	85.889	2639.65	85.2111	2639.65	85.1634	2639.65	84.0022	2639.65	84.044	2639.65	82.2949	2639.65	82.6001	2639.65	79.9017	2639.65	80.1237	2639.65	77.6799	2639.65	77.9359	2639.65	76.1211	2639.65	76.1517	2639.65	73.0149	2639.65	73.4116	2639.65	71.6626	2639.65	72.1736	2639.65	70.4122	2639.65	70.3751	2639.65	69.0441	2639.65	70.2918	2639.65	66.9451	2639.65	66.8756	2639.65	70.504	2639.65	71.185	2639.65	68.12	2639.65	68.8385	2639.65	65.0788	2639.65	66.4675	2639.65	70.7868
2731.93	85.8191	2731.93	85.9472	2731.93	86.0561	2731.93	85.9898	2731.93	86.3999	2731.93	85.9663	2731.93	86.2411	2731.93	85.5194	2731.93	85.5413	2731.93	84.2375	2731.93	84.0902	2731.93	82.2521	2731.93	82.1839	2731.93	80.2869	2731.93	80.2126	2731.93	78.1252	2731.93	77.7398	2731.93	76.2729	2731.93	75.6951	2731.93	73.7421	2731.93	73.479	2731.93	72.2572	2731.93	71.9862	2731.93	70.5955	2731.93	70.3388	2731.93	69.6543	2731.93	69.8855	2731.93	67.6227	2731.93	68.0361	2731.93	69.726	2731.93	69.5592	2731.93	68.8769	2731.93	69.1042	2731.93	63.0527	2731.93	63.0833	2731.93	68.774
2828.61	85.5931	2828.61	85.7444	2828.61	85.7968	2828.61	85.856	2828.61	86.1236	2828.61	85.7358	2828.61	86.0686	2828.61	85.2725	2828.61	85.5029	2828.61	84.1441	2828.61	84.0394	2828.61	82.2033	2828.61	82.0112	2828.61	79.9586	2828.61	80.0306	2828.61	77.5787	2828.61	77.8797	2828.61	75.8067	2828.61	75.925	2828.61	73.9045	2828.61	73.5031	2828.61	70.9804	2828.61	71.957	2828.61	70.0188	2828.61	69.7134	2828.61	70.0136	2828.61	69.9266	2828.61	66.0563	2828.61	67.016	2828.61	70.0988	2828.61	70.2395	2828.61	68.7919	2828.61	69.2165	2828.61	61.0516	2828.61	63.1426	2828.61	68.4256
2928.22	85.9275	2928.22	85.8628	2928.22	86.1406	2928.22	85.957	2928.22	86.2989	2928.22	85.6914	2928.22	86.2149	2928.22	85.1251	2928.22	85.6394	2928.22	83.7514	2928.22	84.1243	2928.22	81.8541	2928.22	82.0547	2928.22	79.5759	2928.22	79.8441	2928.22	77.2716	2928.22	77.5478	2928.22	75.1632	2928.22	75.2308	2928.22	73.3749	2928.22	72.918	2928.22	71.0881	2928.22	70.7519	2928.22	69.1561	2928.22	68.2134	2928.22	69.6786	2928.22	69.6927	2928.22	67.2031	2928.22	66.8936	2928.22	68.4505	2928.22	68.2836	2928.22	69.7657	2928.22	69.7495	2928.22	58.2289	2928.22	59.0531	2928.22	67.2522
3030.76	86.5083	3030.76	86.6173	3030.76	86.8227	3030.76	86.928	3030.76	86.9115	3030.76	86.8073	3030.76	86.5511	3030.76	85.8475	3030.76	85.5257	3030.76	84.3995	3030.76	84.1571	3030.76	82.4811	3030.76	82.227	3030.76	80.2829	3030.76	79.7274	3030.76	77.5268	3030.76	77.0407	3030.76	74.9512	3030.76	74.8955	3030.76	73.094	3030.76	73.0789	3030.76	70.942	3030.76	71.1402	3030.76	68.0902	3030.76	69.8804	3030.76	68.7649	3030.76	69.2969	3030.76	68.1491	3030.76	69.542	3030.76	67.0097	3030.76	66.7878	3030.76	68.7063	3030.76	69.591	3030.76	62.8627	3030.76	63.7241	3030.76	67.7188
3137.7	86.0213	3137.7	86.1411	3137.7	86.2985	3137.7	86.4087	3137.7	86.7047	3137.7	86.2511	3137.7	86.4684	3137.7	85.327	3137.7	85.3964	3137.7	83.9069	3137.7	83.7091	3137.7	82.0591	3137.7	81.7698	3137.7	79.9287	3137.7	79.5271	3137.7	77.7602	3137.7	77.0294	3137.7	75.2629	3137.7	74.5139	3137.7	73.612	3137.7	72.9196	3137.7	71.6335	3137.7	71.358	3137.7	69.9082	3137.7	70.2014	3137.7	67.9887	3137.7	66.7581	3137.7	69.0916	3137.7	69.182	3137.7	68.7513	3137.7	66.6732	3137.7	70.018	3137.7	69.3406	3137.7	64.2075	3137.7	61.7481	3137.7	68.5666
3249.02	86.605	3249.02	86.6977	3249.02	86.7992	3249.02	86.9427	3249.02	87.0059	3249.02	86.6714	3249.02	86.7169	3249.02	85.4833	3249.02	85.6647	3249.02	83.7795	3249.02	83.907	3249.02	81.4827	3249.02	81.7387	3249.02	78.7876	3249.02	79.2593	3249.02	76.3392	3249.02	76.914	3249.02	73.5444	3249.02	74.8446	3249.02	71.4911	3249.02	72.7055	3249.02	70.4322	3249.02	70.302	3249.02	69.5233	3249.02	69.7619	3249.02	66.7306	3249.02	68.1562	3249.02	68.3731	3249.02	69.2021	3249.02	67.2588	3249.02	67.7184	3249.02	70.5902	3249.02	69.9258	3249.02	61.503	3249.02	63.9679	3249.02	66.1786
3363.28	86.42	3363.28	86.5967	3363.28	86.5735	3363.28	86.7084	3363.28	86.7901	3363.28	86.7353	3363.28	86.6443	3363.28	85.998	3363.28	85.6141	3363.28	84.348	3363.28	83.8631	3363.28	82.2938	3363.28	81.517	3363.28	79.7625	3363.28	79.2884	3363.28	77.767	3363.28	77.1186	3363.28	75.2717	3363.28	74.5273	3363.28	73.2321	3363.28	72.564	3363.28	70.6255	3363.28	69.5507	3363.28	70.2065	3363.28	69.0244	3363.28	66.6541	3363.28	65.0855	3363.28	69.8211	3363.28	69.5783	3363.28	65.7844	3363.28	66.0137	3363.28	69.4913	3363.28	70.3135	3363.28	63.7495	3363.28	63.0569	3363.28	68.8834
3481.93	86.9744	3481.93	86.9435	3481.93	86.9896	3481.93	86.8105	3481.93	87.0593	3481.93	86.4277	3481.93	86.8589	3481.93	85.5725	3481.93	85.9702	3481.93	83.7006	3481.93	84.0917	3481.93	81.7428	3481.93	81.9378	3481.93	79.1493	3481.93	79.5038	3481.93	76.7894	3481.93	77.3718	3481.93	74.6189	3481.93	75.3907	3481.93	73.009	3481.93	73.1029	3481.93	70.3485	3481.93	70.8632	3481.93	70.8571	3481.93	70.4697	3481.93	65.6944	3481.93	65.6773	3481.93	69.9969	3481.93	70.2403	3481.93	67.1656	3481.93	67.8792	3481.93	70.6464	3481.93	71.1368	3481.93	62.8359	3481.93	64.4033	3481.93	67.6671
3604.98	86.4586	3604.98	86.4457	3604.98	86.6984	3604.98	86.6083	3604.98	86.6613	3604.98	86.3414	3604.98	86.0862	3604.98	85.6272	3604.98	85.078	3604.98	84.2573	3604.98	83.6608	3604.98	82.3529	3604.98	81.9051	3604.98	80.0778	3604.98	79.4057	3604.98	77.5196	3604.98	76.5914	3604.98	75.6577	3604.98	74.8006	3604.98	73.0976	3604.98	73.1308	3604.98	70.6808	3604.98	70.4616	3604.98	68.4535	3604.98	69.1413	3604.98	66.522	3604.98	67.0029	3604.98	68.5831	3604.98	68.5145	3604.98	67.4564	3604.98	67.2627	3604.98	69.4427	3604.98	68.8582	3604.98	65.0469	3604.98	65.0426	3604.98	70.0258
3732.42	87.2759	3732.42	87.1466	3732.42	87.3823	3732.42	86.9965	3732.42	87.2839	3732.42	86.3788	3732.42	86.7809	3732.42	85.2426	3732.42	85.6938	3732.42	83.7904	3732.42	84.2702	3732.42	82.0476	3732.42	82.6036	3732.42	80.082	3732.42	80.4791	3732.42	77.3068	3732.42	77.7732	3732.42	75.0196	3732.42	74.9061	3732.42	73.3706	3732.42	73.7092	3732.42	71.1207	3732.42	72.2909	3732.42	68.6525	3732.42	69.217	3732.42	68.4022	3732.42	68.0509	3732.42	68.8412	3732.42	69.9768	3732.42	68.831	3732.42	68.8978	3732.42	69.5098	3732.42	69.728	3732.42	66.428	3732.42	67.0828	3732.42	69.848
3864.26	87.0806	3864.26	87.0353	3864.26	87.0344	3864.26	86.7646	3864.26	86.6802	3864.26	86.1897	3864.26	86.0277	3864.26	85.3151	3864.26	85.06	3864.26	83.8006	3864.26	83.7467	3864.26	81.9497	3864.26	81.808	3864.26	80.0757	3864.26	79.9933	3864.26	77.8394	3864.26	77.8551	3864.26	75.0674	3864.26	75.0968	3864.26	73.2517	3864.26	72.4529	3864.26	70.622	3864.26	70.5701	3864.26	66.7627	3864.26	68.2126	3864.26	69.047	3864.26	67.9996	3864.26	66.5514	3864.26	67.3924	3864.26	69.7627	3864.26	68.2478	3864.26	69.2079	3864.26	69.699	3864.26	64.9097	3864.26	66.0483	3864.26	68.9509
4000.49	87.9187	4000.49	87.6161	4000.49	87.6209	4000.49	86.9071	4000.49	86.9994	4000.49	86.1165	4000.49	86.2211	4000.49	85.0595	4000.49	84.9034	4000.49	83.047	4000.49	82.9549	4000.49	81.1962	4000.49	80.6487	4000.49	78.4367	4000.49	78.6315	4000.49	76.0879	4000.49	76.2742	4000.49	73.1286	4000.49	73.716	4000.49	70.3674	4000.49	70.4041	4000.49	68.6051	4000.49	69.2097	4000.49	66.0782	4000.49	64.4355	4000.49	67.6482	4000.49	67.6755	4000.49	63.3303	4000.49	62.519	4000.49	69.258	4000.49	68.6822	4000.49	70.1574	4000.49	69.1284	4000.49	63.4945	4000.49	62.9193	4000.49	69.4534
4141.11	87.2183	4141.11	87.0261	4141.11	86.9045	4141.11	86.4571	4141.11	86.2474	4141.11	85.6477	4141.11	85.3534	4141.11	84.157	4141.11	83.9049	4141.11	82.4653	4141.11	81.885	4141.11	80.1441	4141.11	80.1448	4141.11	77.9921	4141.11	77.291	4141.11	75.3419	4141.11	74.5078	4141.11	74.2873	4141.11	73.1262	4141.11	70.1641	4141.11	70.4133	4141.11	68.0373	4141.11	66.018	4141.11	64.9077	4141.11	66.4908	4141.11	61.2775	4141.11	62.6168	4141.11	59.645	4141.11	61.3555	4141.11	65.888	4141.11	66.577	4141.11	69.337	4141.11	68.6841	4141.11	63.5117	4141.11	63.6753	4141.11	69.3686
4287.6	87.2208	4287.6	86.5751	4287.6	86.4911	4287.6	85.5053	4287.6	85.2248	4287.6	84.4233	4287.6	84.0597	4287.6	83.2606	4287.6	82.93	4287.6	81.7847	4287.6	81.5504	4287.6	79.7591	4287.6	79.2788	4287.6	77.3256	4287.6	77.2751	4287.6	75.5346	4287.6	75.2151	4287.6	73.0491	4287.6	72.75	4287.6	71.5291	4287.6	70.2119	4287.6	69.5203	4287.6	70.2059	4287.6	67.177	4287.6	65.0466	4287.6	64.6414	4287.6	66.6634	4287.6	62.2538	4287.6	60.0471	4287.6	66.6587	4287.6	66.6339	4287.6	67.6465	4287.6	67.2093	4287.6	64.6254	4287.6	64.9189	4287.6	68.3533
4438.48	87.1196	4438.48	86.5298	4438.48	86.4956	4438.48	85.3327	4438.48	85.0104	4438.48	84.1309	4438.48	83.5762	4438.48	82.9288	4438.48	82.7239	4438.48	81.929	4438.48	81.6821	4438.48	80.97	4438.48	80.3494	4438.48	78.6294	4438.48	77.8503	4438.48	75.6103	4438.48	75.3241	4438.48	73.7596	4438.48	72.3812	4438.48	70.29	4438.48	70.2063	4438.48	68.1923	4438.48	66.4983	4438.48	66.6432	4438.48	68.2841	4438.48	62.5638	4438.48	61.2177	4438.48	59.7429	4438.48	59.4353	4438.48	67.4496	4438.48	65.6213	4438.48	67.6656	4438.48	66.5694	4438.48	64.6838	4438.48	62.6461	4438.48	67.28
4595.21	87.2194	4595.21	86.4891	4595.21	86.2468	4595.21	84.4738	4595.21	84.2891	4595.21	83.1954	4595.21	83.0945	4595.21	82.1525	4595.21	82.4429	4595.21	81.4459	4595.21	81.9054	4595.21	79.9609	4595.21	80.2701	4595.21	78.1955	4595.21	78.414	4595.21	76.0352	4595.21	75.6871	4595.21	72.9282	4595.21	72.3567	4595.21	71.6705	4595.21	71.0029	4595.21	69.135	4595.21	69.4103	4595.21	67.9894	4595.21	65.784	4595.21	65.2944	4595.21	64.4019	4595.21	62.258	4595.21	64.4808	4595.21	66.3287	4595.21	66.3533	4595.21	66.3026	4595.21	65.14	4595.21	61.9021	4595.21	63.1198	4595.21	67.0329
4756.35	87.1162	4756.35	86.2668	4756.35	86.1916	4756.35	84.6385	4756.35	84.4047	4756.35	83.2443	4756.35	83.3525	4756.35	83.1586	4756.35	83.1517	4756.35	82.3028	4756.35	82.4127	4756.35	80.8014	4756.35	80.5568	4756.35	79.037	4756.35	78.4183	4756.35	76.0435	4756.35	75.9362	4756.35	73.5759	4756.35	73.7753	4756.35	72.4388	4756.35	72.666	4756.35	70.4521	4756.35	69.2999	4756.35	66.8563	4756.35	67.2468	4756.35	66.1537	4756.35	66.3573	4756.35	61.9323	4756.35	62.2801	4756.35	66.2388	4756.35	66.6443	4756.35	64.7254	4756.35	65.1686	4756.35	62.9615	4756.35	59.5769	4756.35	64.6303
4924.8	86.6077	4924.8	85.772	4924.8	85.6972	4924.8	84.056	4924.8	83.9206	4924.8	83.2005	4924.8	83.3383	4924.8	83.0346	4924.8	83.4976	4924.8	82.4883	4924.8	82.4957	4924.8	80.9874	4924.8	80.906	4924.8	78.5575	4924.8	78.6801	4924.8	76.4076	4924.8	76.494	4924.8	73.7855	4924.8	73.5833	4924.8	70.3468	4924.8	70.0597	4924.8	67.6675	4924.8	67.4672	4924.8	66.2546	4924.8	68.3628	4924.8	66.0871	4924.8	66.1342	4924.8	64.5754	4924.8	63.3219	4924.8	66.4862	4924.8	66.3919	4924.8	64.5906	4924.8	64.4454	4924.8	64.4204	4924.8	65.0185	4924.8	63.4032
5097.66	86.8147	5097.66	85.8718	5097.66	85.8883	5097.66	84.1971	5097.66	84.3761	5097.66	83.6482	5097.66	84.1359	5097.66	83.5024	5097.66	84.1661	5097.66	83.0186	5097.66	83.3005	5097.66	81.1773	5097.66	81.4367	5097.66	79.003	5097.66	78.883	5097.66	76.6571	5097.66	76.7086	5097.66	74.4255	5097.66	74.7574	5097.66	70.8652	5097.66	71.0278	5097.66	68.2694	5097.66	68.5963	5097.66	66.5375	5097.66	64.7352	5097.66	68.1147	5097.66	65.9999	5097.66	62.3496	5097.66	64.6771	5097.66	66.8813	5097.66	67.4849	5097.66	64.71	5097.66	64.7693	5097.66	66.0003	5097.66	67.9297	5097.66	64.6193
5277.83	86.8375	5277.83	86.1869	5277.83	86.0583	5277.83	84.5472	5277.83	84.6335	5277.83	83.9515	5277.83	84.0446	5277.83	83.7923	5277.83	84.0101	5277.83	82.9283	5277.83	83.1268	5277.83	81.5062	5277.83	81.1025	5277.83	79.3044	5277.83	79.0081	5277.83	76.9256	5277.83	76.2477	5277.83	74.5077	5277.83	73.633	5277.83	71.7763	5277.83	70.8569	5277.83	68.3207	5277.83	68.5156	5277.83	66.2438	5277.83	68.6489	5277.83	65.1583	5277.83	66.4275	5277.83	64.0149	5277.83	62.2887	5277.83	65.15	5277.83	66.3667	5277.83	62.4002	5277.83	65.1207	5277.83	66.0585	5277.83	64.0295	5277.83	60.6202
5463.87	87.7678	5463.87	87.1197	5463.87	86.8084	5463.87	85.7841	5463.87	85.4023	5463.87	84.8946	5463.87	84.632	5463.87	84.4762	5463.87	84.1333	5463.87	83.4255	5463.87	83.2544	5463.87	81.6066	5463.87	81.456	5463.87	79.5494	5463.87	79.3903	5463.87	76.4836	5463.87	76.9776	5463.87	74.121	5463.87	74.1818	5463.87	71.2453	5463.87	71.8802	5463.87	69.1291	5463.87	68.445	5463.87	68.0682	5463.87	65.6957	5463.87	65.0848	5463.87	63.2938	5463.87	60.398	5463.87	62.0748	5463.87	66.3337	5463.87	65.3887	5463.87	64.2511	5463.87	63.2578	5463.87	67.0875	5463.87	66.857	5463.87	63.7652
5657.23	87.9572	5657.23	87.4935	5657.23	87.2522	5657.23	86.3962	5657.23	86.03	5657.23	85.1635	5657.23	84.8963	5657.23	84.2906	5657.23	84.2494	5657.23	82.9576	5657.23	82.85	5657.23	81.4411	5657.23	81.2291	5657.23	79.3468	5657.23	79.1648	5657.23	77.1205	5657.23	76.5825	5657.23	74.8987	5657.23	74.0544	5657.23	72.2608	5657.23	71.4081	5657.23	69.4948	5657.23	69.961	5657.23	66.3235	5657.23	67.4095	5657.23	63.5402	5657.23	63.3654	5657.23	59.4892	5657.23	60.7978	5657.23	63.0445	5657.23	63.7922	5657.23	65.3682	5657.23	63.4457	5657.23	66.2316	5657.23	66.659	5657.23	62.5905
5856.45	87.8618	5856.45	87.6007	5856.45	87.3289	5856.45	86.6046	5856.45	86.5768	5856.45	85.4669	5856.45	85.3224	5856.45	84.3066	5856.45	84.1696	5856.45	83.2854	5856.45	83.1988	5856.45	81.9599	5856.45	81.3742	5856.45	79.8241	5856.45	79.3005	5856.45	77.1985	5856.45	76.8221	5856.45	74.4167	5856.45	73.893	5856.45	71.6749	5856.45	71.5804	5856.45	70.5384	5856.45	69.5544	5856.45	65.9671	5856.45	66.628	5856.45	62.4599	5856.45	64.0503	5856.45	61.4395	5856.45	60.6303	5856.45	61.8082	5856.45	64.2538	5856.45	64.3521	5856.45	63.542	5856.45	69.2059	5856.45	65.511	5856.45	63.8977
6062.99	87.7604	6062.99	87.8058	6062.99	87.6439	6062.99	87.1587	6062.99	86.8553	6062.99	85.6806	6062.99	85.2899	6062.99	84.4564	6062.99	84.0961	6062.99	83.267	6062.99	82.8748	6062.99	81.9372	6062.99	81.4558	6062.99	79.8149	6062.99	79.1303	6062.99	77.1744	6062.99	76.3974	6062.99	74.2025	6062.99	73.6447	6062.99	71.3675	6062.99	70.5458	6062.99	68.0787	6062.99	69.121	6062.99	66.6442	6062.99	66.8964	6062.99	62.8093	6062.99	61.8458	6062.99	60.7993	6062.99	55.698	6062.99	62.8407	6062.99	62.3925	6062.99	64.4812	6062.99	63.2325	6062.99	66.1438	6062.99	66.6115	6062.99	63.021
6276.86	87.7676	6276.86	87.8889	6276.86	87.7242	6276.86	87.1533	6276.86	86.8846	6276.86	85.367	6276.86	84.8876	6276.86	83.8846	6276.86	83.2915	6276.86	83.101	6276.86	82.809	6276.86	81.8295	6276.86	81.4532	6276.86	79.8219	6276.86	79.1849	6276.86	76.7075	6276.86	76.3667	6276.86	73.884	6276.86	73.401	6276.86	71.5192	6276.86	71.048	6276.86	69.193	6276.86	67.906	6276.86	66.554	6276.86	65.7669	6276.86	62.4883	6276.86	63.4273	6276.86	62.872	6276.86	61.0131	6276.86	61.2002	6276.86	60.7086	6276.86	63.7509	6276.86	62.9617	6276.86	67.1538	6276.86	66.6853	6276.86	59.7396
6498.05	87.9128	6498.05	87.9719	6498.05	87.7806	6498.05	86.9412	6498.05	86.5486	6498.05	84.7715	6498.05	84.2572	6498.05	83.4352	6498.05	83.2638	6498.05	83.2282	6498.05	83.0749	6498.05	82.2084	6498.05	81.5526	6498.05	79.6127	6498.05	79.3802	6498.05	76.8965	6498.05	75.9547	6498.05	73.7558	6498.05	73.1984	6498.05	70.8807	6498.05	70.0351	6498.05	67.7564	6498.05	67.5147	6498.05	66.588	6498.05	66.63	6498.05	63.2601	6498.05	60.3998	6498.05	61.8385	6498.05	61.6016	6498.05	59.8622	6498.05	58.5167	6498.05	65.4443	6498.05	63.5001	6498.05	66.6236	6498.05	65.7624	6498.05	61.3618
6726.56	87.8957	6726.56	87.8385	6726.56	87.7316	6726.56	86.6756	6726.56	86.4147	6726.56	84.6119	6726.56	84.3151	6726.56	84.0223	6726.56	83.794	6726.56	83.6765	6726.56	83.4353	6726.56	82.2092	6726.56	81.8279	6726.56	79.412	6726.56	78.8286	6726.56	76.3383	6726.56	76.0639	6726.56	73.3595	6726.56	73.0565	6726.56	70.6791	6726.56	70.015	6726.56	67.5917	6726.56	67.9751	6726.56	65.0413	6726.56	65.1099	6726.56	63.3329	6726.56	62.2104	6726.56	60.6197	6726.56	60.4897	6726.56	54.6461	6726.56	58.5301	6726.56	62.229	6726.56	62.4043	6726.56	65.2728	6726.56	64.0909	6726.56	62.7707
6963.87	87.6921	6963.87	87.6519	6963.87	87.5399	6963.87	86.6446	6963.87	86.4426	6963.87	85.2922	6963.87	84.9937	6963.87	84.9015	6963.87	84.5898	6963.87	84.0624	6963.87	83.6381	6963.87	82.0287	6963.87	81.3208	6963.87	78.8972	6963.87	78.4525	6963.87	75.6892	6963.87	75.3414	6963.87	72.8329	6963.87	71.5828	6963.87	69.3939	6963.87	69.5675	6963.87	67.4743	6963.87	65.8348	6963.87	64.534	6963.87	63.907	6963.87	62.1237	6963.87	62.9911	6963.87	61.195	6963.87	61.2286	6963.87	57.1475	6963.87	47.0786	6963.87	61.5663	6963.87	61.8336	6963.87	63.7617	6963.87	64.3907	6963.87	59.6926
7209.96	87.6383	7209.96	87.8109	7209.96	87.6904	7209.96	87.1431	7209.96	87.0539	7209.96	86.137	7209.96	85.9204	7209.96	85.4854	7209.96	85.0717	7209.96	84.167	7209.96	83.8176	7209.96	81.807	7209.96	81.2326	7209.96	78.7128	7209.96	78.4218	7209.96	75.7383	7209.96	74.7923	7209.96	72.6314	7209.96	72.4034	7209.96	69.6399	7209.96	68.844	7209.96	67.2184	7209.96	67.0615	7209.96	63.3003	7209.96	64.4905	7209.96	61.8402	7209.96	62.5664	7209.96	60.2027	7209.96	61.0376	7209.96	51.4474	7209.96	57.285	7209.96	63.4661	7209.96	62.0089	7209.96	64.1421	7209.96	62.0567	7209.96	61.0418
7464.84	87.7545	7464.84	88.0377	7464.84	88.0155	7464.84	87.7212	7464.84	87.3792	7464.84	86.5506	7464.84	86.2347	7464.84	85.7465	7464.84	85.1813	7464.84	84.3162	7464.84	83.6556	7464.84	82.1454	7464.84	81.3402	7464.84	79.4721	7464.84	78.7105	7464.84	76.6633	7464.84	75.9941	7464.84	73.3295	7464.84	72.9795	7464.84	70.8241	7464.84	70.1696	7464.84	68.457	7464.84	68.1812	7464.84	66.4194	7464.84	65.4886	7464.84	63.751	7464.84	64.5363	7464.84	62.4557	7464.84	59.7772	7464.84	56.7051	7464.84	55.8744	7464.84	63.0695	7464.84	61.6705	7464.84	63.8238	7464.84	63.3634	7464.84	60.9513
7727.05	88.0373	7727.05	88.1599	7727.05	87.9073	7727.05	87.5613	7727.05	87.2264	7727.05	86.4098	7727.05	85.8302	7727.05	85.3855	7727.05	84.6866	7727.05	84.0329	7727.05	83.3019	7727.05	82.2763	7727.05	81.4894	7727.05	80.0054	7727.05	79.1862	7727.05	77.1191	7727.05	76.3141	7727.05	74.1743	7727.05	73.2869	7727.05	71.2939	7727.05	70.3393	7727.05	68.7036	7727.05	67.5798	7727.05	66.723	7727.05	65.5379	7727.05	64.513	7727.05	64.8569	7727.05	63.019	7727.05	63.3866	7727.05	56.6975	7727.05	56.5061	7727.05	61.7553	7727.05	61.684	7727.05	64.7269	7727.05	64.5973	7727.05	60.8364
7999.51	87.5741	7999.51	87.5643	7999.51	87.3927	7999.51	87.1232	7999.51	86.699	7999.51	86.1187	7999.51	85.2577	7999.51	84.7544	7999.51	83.8151	7999.51	83.6249	7999.51	83.0438	7999.51	82.4746	7999.51	81.8683	7999.51	80.1764	7999.51	79.6645	7999.51	77.197	7999.51	76.5253	7999.51	73.89	7999.51	73.1766	7999.51	70.8471	7999.51	70.1796	7999.51	68.3881	7999.51	67.7686	7999.51	66.3932	7999.51	66.3058	7999.51	65.3859	7999.51	63.6883	7999.51	63.8	7999.51	62.7551	7999.51	55.4966	7999.51	56.2243	7999.51	61.5396	7999.51	61.1251	7999.51	61.8719	7999.51	63.6207	7999.51	61.713
8282.23	87.0778	8282.23	86.9643	8282.23	86.632	8282.23	86.686	8282.23	86.4035	8282.23	85.6129	8282.23	84.9852	8282.23	84.0828	8282.23	83.3737	8282.23	83.5364	8282.23	83.2326	8282.23	82.7022	8282.23	82.0982	8282.23	80.2502	8282.23	79.4644	8282.23	76.8125	8282.23	76.1028	8282.23	73.4213	8282.23	72.2518	8282.23	70.1421	8282.23	69.6434	8282.23	68.3828	8282.23	66.7318	8282.23	65.9658	8282.23	64.5	8282.23	63.5848	8282.23	63.5331	8282.23	63.5888	8282.23	62.2013	8282.23	53.2142	8282.23	55.3447	8282.23	61.1576	8282.23	60.3132	8282.23	63.2388	8282.23	63.2931	8282.23	59.3816
8573.73	86.903	8573.73	86.633	8573.73	86.5718	8573.73	86.5238	8573.73	86.3471	8573.73	85.0896	8573.73	84.5533	8573.73	83.5677	8573.73	83.204	8573.73	83.3353	8573.73	83.0576	8573.73	82.2165	8573.73	81.497	8573.73	79.3554	8573.73	78.3849	8573.73	75.467	8573.73	74.8139	8573.73	71.9273	8573.73	71.2871	8573.73	69.275	8573.73	68.4658	8573.73	65.9385	8573.73	66.6561	8573.73	63.7415	8573.73	63.694	8573.73	62.8073	8573.73	62.9506	8573.73	60.7008	8573.73	60.1631	8573.73	54.3135	8573.73	52.4215	8573.73	60.2389	8573.73	59.9913	8573.73	60.3074	8573.73	62.7368	8573.73	58.1107
8876.95	87.0743	8876.95	86.6432	8876.95	86.5818	8876.95	86.4545	8876.95	86.2426	8876.95	84.8276	8876.95	84.2408	8876.95	83.2419	8876.95	82.9857	8876.95	83.0042	8876.95	82.4569	8876.95	81.3635	8876.95	80.5628	8876.95	77.9635	8876.95	77.2896	8876.95	74.474	8876.95	73.7684	8876.95	70.61	8876.95	70.5264	8876.95	67.7798	8876.95	67.8566	8876.95	64.74	8876.95	65.4758	8876.95	63.2295	8876.95	62.5346	8876.95	62.2386	8876.95	62.7955	8876.95	59.5047	8876.95	60.9396	8876.95	55.2947	8876.95	52.4498	8876.95	57.5557	8876.95	57.9168	8876.95	59.1978	8876.95	60.4683	8876.95	56.6124
9188.96	87.2273	9188.96	86.8066	9188.96	86.5659	9188.96	86.5298	9188.96	86.4163	9188.96	85.0903	9188.96	84.6278	9188.96	83.3589	9188.96	82.8078	9188.96	82.5738	9188.96	82.042	9188.96	80.6517	9188.96	80.1494	9188.96	77.6258	9188.96	77.1929	9188.96	74.2238	9188.96	73.9522	9188.96	70.8641	9188.96	70.8266	9188.96	68.3357	9188.96	67.5292	9188.96	64.781	9188.96	64.5971	9188.96	63.3078	9188.96	63.1652	9188.96	61.9814	9188.96	62.3695	9188.96	61.0451	9188.96	59.2581	9188.96	55.0829	9188.96	49.1241	9188.96	54.7665	9188.96	56.2283	9188.96	57.1994	9188.96	59.9109	9188.96	56.7403
9514.16	87.9154	9514.16	87.3792	9514.16	87.0865	9514.16	87.0234	9514.16	86.9171	9514.16	85.6139	9514.16	85.2576	9514.16	83.5369	9514.16	82.742	9514.16	82.1283	9514.16	81.398	9514.16	80.2661	9514.16	79.8131	9514.16	77.8513	9514.16	77.2386	9514.16	74.0548	9514.16	73.8789	9514.16	70.6452	9514.16	70.176	9514.16	67.2126	9514.16	66.9349	9514.16	64.6074	9514.16	64.1096	9514.16	62.7668	9514.16	62.6439	9514.16	62.4033	9514.16	61.2871	9514.16	60.6829	9514.16	58.627	9514.16	56.6502	9514.16	51.2766	9514.16	54.7216	9514.16	54.1991	9514.16	61.4557	9514.16	61.4975	9514.16	44.7122
9849.61	88.5896	9849.61	88.0926	9849.61	87.778	9849.61	87.4406	9849.61	87.1994	9849.61	86.0681	9849.61	85.7596	9849.61	83.4667	9849.61	82.8828	9849.61	81.7143	9849.61	81.0518	9849.61	79.9705	9849.61	79.5469	9849.61	77.532	9849.61	76.57	9849.61	72.9112	9849.61	72.8287	9849.61	69.3853	9849.61	69.0778	9849.61	65.7033	9849.61	65.3882	9849.61	63.565	9849.61	63.2817	9849.61	61.3121	9849.61	61.91	9849.61	60.0473	9849.61	59.8143	9849.61	59.6704	9849.61	58.0701	9849.61	56.7796	9849.61	53.1565	9849.61	55.7054	9849.61	53.925	9849.61	61.103	9849.61	59.9632	9849.61	40.1216
10196.8	89.2153	10196.8	88.5962	10196.8	88.315	10196.8	87.8338	10196.8	87.4951	10196.8	86.5086	10196.8	86.0442	10196.8	83.645	10196.8	83.1957	10196.8	81.366	10196.8	81.1236	10196.8	79.1236	10196.8	78.8567	10196.8	75.9799	10196.8	75.1881	10196.8	71.9678	10196.8	71.5871	10196.8	68.4105	10196.8	68.0732	10196.8	65.2698	10196.8	64.5517	10196.8	62.4397	10196.8	62.9357	10196.8	60.6598	10196.8	60.1023	10196.8	59.4627	10196.8	59.0315	10196.8	59.3059	10196.8	57.5775	10196.8	57.8603	10196.8	55.7955	10196.8	54.4627	10196.8	55.0817	10196.8	60.2063	10196.8	59.2352	10196.8	48.1779
10555.7	89.3659	10555.7	89.0837	10555.7	89.0161	10555.7	87.7821	10555.7	87.6779	10555.7	86.2768	10555.7	86.1494	10555.7	83.6342	10555.7	83.121	10555.7	81.0764	10555.7	80.6693	10555.7	78.2674	10555.7	78.1644	10555.7	74.6841	10555.7	74.6795	10555.7	71.2994	10555.7	71.065	10555.7	67.6747	10555.7	67.9435	10555.7	65.3632	10555.7	64.6242	10555.7	61.9331	10555.7	62.9705	10555.7	60.2351	10555.7	59.9068	10555.7	59.8379	10555.7	59.8995	10555.7	58.7682	10555.7	57.1957	10555.7	57.8589	10555.7	56.9843	10555.7	50.2439	10555.7	53.6229	10555.7	57.245	10555.7	58.0174	10555.7	47.5549
10927.7	89.6196	10927.7	89.3675	10927.7	89.2589	10927.7	87.7703	10927.7	87.6053	10927.7	86.1155	10927.7	86.0187	10927.7	83.2181	10927.7	82.5947	10927.7	80.6285	10927.7	79.8532	10927.7	77.7193	10927.7	77.4055	10927.7	74.5426	10927.7	73.9979	10927.7	71.2042	10927.7	70.9209	10927.7	67.6311	10927.7	67.4462	10927.7	64.6568	10927.7	64.519	10927.7	62.5071	10927.7	61.9861	10927.7	59.2694	10927.7	58.4342	10927.7	59.3613	10927.7	58.8313	10927.7	59.477	10927.7	58.6435	10927.7	56.0881	10927.7	56.6109	10927.7	52.2979	10927.7	50.1842	10927.7	58.4899	10927.7	58.1051	10927.7	41.7082
11313	89.5166	11313	89.4635	11313	89.3095	11313	87.9571	11313	87.6094	11313	86.3873	11313	85.9316	11313	83.0437	11313	82.2934	11313	79.7994	11313	79.1739	11313	76.7864	11313	76.7815	11313	74.6265	11313	74.0836	11313	71.0176	11313	70.5375	11313	67.7579	11313	67.5093	11313	64.0051	11313	63.8661	11313	60.8924	11313	61.1645	11313	58.935	11313	58.4264	11313	58.2011	11313	59.3927	11313	58.4883	11313	58.1181	11313	56.9563	11313	55.9258	11313	51.2411	11313	51.5187	11313	56.8239	11313	56.8329	11313	42.2303
11712.9	89.7082	11712.9	89.6794	11712.9	89.4763	11712.9	87.9585	11712.9	87.7811	11712.9	86.1604	11712.9	85.6704	11712.9	82.6568	11712.9	82.0412	11712.9	79.5398	11712.9	78.6773	11712.9	77.1425	11712.9	76.6696	11712.9	74.9742	11712.9	73.8854	11712.9	71.0569	11712.9	69.9057	11712.9	67.4641	11712.9	66.7536	11712.9	64.1539	11712.9	63.4667	11712.9	60.3469	11712.9	60.4017	11712.9	58.2191	11712.9	57.2895	11712.9	57.0571	11712.9	59.5086	11712.9	58.7583	11712.9	57.7759	11712.9	57.7316	11712.9	58.61	11712.9	53.2844	11712.9	53.6598	11712.9	55.6119	11712.9	56.1424	11712.9	45.266
12126	89.9851	12126	89.7062	12126	89.5518	12126	88.1462	12126	87.9251	12126	86.184	12126	85.7723	12126	82.6529	12126	81.9921	12126	79.3994	12126	78.4576	12126	76.9185	12126	76.8833	12126	74.319	12126	73.7579	12126	70.5168	12126	70.2822	12126	67.1024	12126	66.9952	12126	63.5719	12126	63.6693	12126	59.9943	12126	61.1812	12126	57.8314	12126	57.8253	12126	57.9294	12126	60.0672	12126	59.4995	12126	58.598	12126	57.4475	12126	57.6978	12126	51.1498	12126	52.9423	12126	55.3728	12126	54.7866	12126	50.526
12553.7	90.4777	12553.7	89.9118	12553.7	89.7835	12553.7	88.4783	12553.7	88.0636	12553.7	86.0691	12553.7	85.8699	12553.7	82.6651	12553.7	81.9364	12553.7	79.0737	12553.7	78.5802	12553.7	76.6081	12553.7	77.1815	12553.7	73.7577	12553.7	74.1453	12553.7	69.7952	12553.7	70.9338	12553.7	65.9908	12553.7	67.2601	12553.7	62.3723	12553.7	63.041	12553.7	59.9401	12553.7	60.8776	12553.7	56.2828	12553.7	57.1801	12553.7	57.4704	12553.7	59.1102	12553.7	58.9054	12553.7	58.4811	12553.7	57.1521	12553.7	58.0956	12553.7	52.9697	12553.7	53.7606	12553.7	48.9913	12553.7	53.8529	12553.7	50.9592
12996.1	90.6941	12996.1	89.8292	12996.1	89.765	12996.1	88.4777	12996.1	88.1074	12996.1	86.0945	12996.1	85.886	12996.1	82.9499	12996.1	82.1116	12996.1	79.5741	12996.1	79.2362	12996.1	76.6967	12996.1	76.8468	12996.1	73.6625	12996.1	74.1041	12996.1	70.577	12996.1	71.3863	12996.1	66.3702	12996.1	67.4754	12996.1	62.6303	12996.1	63.8046	12996.1	60.6393	12996.1	60.5995	12996.1	58.3827	12996.1	57.2396	12996.1	54.8486	12996.1	58.0903	12996.1	56.9243	12996.1	57.5624	12996.1	56.9972	12996.1	58.2163	12996.1	52.3535	12996.1	53.8159	12996.1	45.8813	12996.1	52.7945	12996.1	55.5429
13454.6	90.4549	13454.6	89.6189	13454.6	89.5585	13454.6	88.3175	13454.6	87.8214	13454.6	85.7267	13454.6	85.5445	13454.6	82.6548	13454.6	82.2092	13454.6	79.4111	13454.6	78.7406	13454.6	75.5238	13454.6	76.341	13454.6	73.4677	13454.6	74.1291	13454.6	70.6351	13454.6	71.5168	13454.6	66.3803	13454.6	67.8627	13454.6	62.9779	13454.6	64.031	13454.6	59.638	13454.6	60.5871	13454.6	57.6167	13454.6	57.812	13454.6	54.1356	13454.6	58.0545	13454.6	56.5662	13454.6	58.8244	13454.6	57.0709	13454.6	57.4779	13454.6	50.8599	13454.6	53.5713	13454.6	51.7004	13454.6	54.8381	13454.6	54.5241
13929.2	90.4338	13929.2	89.5604	13929.2	89.5306	13929.2	88.2023	13929.2	87.8143	13929.2	85.4204	13929.2	85.433	13929.2	82.5304	13929.2	82.2106	13929.2	78.476	13929.2	78.3913	13929.2	75.2532	13929.2	76.7077	13929.2	74.0046	13929.2	74.9614	13929.2	70.4758	13929.2	71.5302	13929.2	66.5318	13929.2	67.4933	13929.2	62.1343	13929.2	63.0537	13929.2	60.5794	13929.2	60.3195	13929.2	56.3951	13929.2	57.2453	13929.2	51.0776	13929.2	56.4509	13929.2	56.7935	13929.2	58.3746	13929.2	57.7482	13929.2	57.5567	13929.2	49.9605	13929.2	50.0599	13929.2	50.6942	13929.2	54.5684	13929.2	51.6972
14419.9	90.6392	14419.9	89.7896	14419.9	89.8125	14419.9	87.9369	14419.9	87.799	14419.9	84.9458	14419.9	85.0453	14419.9	82.0745	14419.9	81.9238	14419.9	77.5683	14419.9	78.007	14419.9	76.2131	14419.9	77.4838	14419.9	74.7577	14419.9	75.317	14419.9	71.1224	14419.9	72.2147	14419.9	67.2278	14419.9	68.2007	14419.9	63.0131	14419.9	63.9265	14419.9	60.2595	14419.9	60.2658	14419.9	57.6098	14419.9	58.2336	14419.9	47.5242	14419.9	57.6645	14419.9	54.1594	14419.9	57.4845	14419.9	57.6589	14419.9	57.0486	14419.9	51.2769	14419.9	51.4612	14419.9	47.9606	14419.9	48.9065	14419.9	55.2294
14928.2	90.7559	14928.2	90.1482	14928.2	90.1311	14928.2	87.9291	14928.2	87.9431	14928.2	84.6269	14928.2	84.8748	14928.2	82.1388	14928.2	81.9114	14928.2	78.4988	14928.2	78.476	14928.2	77.8087	14928.2	78.5405	14928.2	75.7707	14928.2	76.7054	14928.2	72.3054	14928.2	73.2417	14928.2	68.591	14928.2	69.2478	14928.2	65.0618	14928.2	64.7013	14928.2	60.7388	14928.2	61.619	14928.2	57.349	14928.2	59.134	14928.2	53.39	14928.2	58.4017	14928.2	53.5013	14928.2	58.7821	14928.2	57.7932	14928.2	57.6322	14928.2	50.5816	14928.2	50.0228	14928.2	50.557	14928.2	53.8391	14928.2	53.3825
15455.6	90.349	15455.6	89.7479	15455.6	89.8662	15455.6	87.6219	15455.6	87.5126	15455.6	84.4226	15455.6	84.4152	15455.6	81.5089	15455.6	81.2044	15455.6	78.9486	15455.6	78.448	15455.6	78.1324	15455.6	78.732	15455.6	76.3384	15455.6	77.4943	15455.6	73.0399	15455.6	73.4184	15455.6	68.5842	15455.6	69.0877	15455.6	64.9067	15455.6	65.2139	15455.6	61.305	15455.6	61.0773	15455.6	58.9618	15455.6	59.15	15455.6	55.1396	15455.6	58.463	15455.6	52.7015	15455.6	58.4039	15455.6	57.4482	15455.6	58.0498	15455.6	48.3256	15455.6	47.1656	15455.6	50.8949	15455.6	56.5276	15455.6	47.4114
16000.5	89.6452	16000.5	89.0746	16000.5	89.0118	16000.5	86.6395	16000.5	86.5027	16000.5	83.6002	16000.5	83.0312	16000.5	80.6859	16000.5	80.3192	16000.5	78.5347	16000.5	77.8532	16000.5	77.9325	16000.5	78.8348	16000.5	76.0937	16000.5	77.3555	16000.5	72.7117	16000.5	73.6436	16000.5	67.8133	16000.5	68.7672	16000.5	65.4166	16000.5	65.7438	16000.5	62.2415	16000.5	62.0085	16000.5	60.2567	16000.5	60.7482	16000.5	55.6521	16000.5	59.103	16000.5	50.049	16000.5	56.5591	16000.5	55.5423	16000.5	57.3204	16000.5	49.085	16000.5	36.2204	16000.5	50.5361	16000.5	57.1731	16000.5	46.0226
16564.5	88.47	16564.5	87.6451	16564.5	87.618	16564.5	85.5499	16564.5	85.0965	16564.5	82.7208	16564.5	81.673	16564.5	80.1878	16564.5	79.812	16564.5	77.7337	16564.5	77.8782	16564.5	76.9249	16564.5	78.3864	16564.5	75.1551	16564.5	76.7932	16564.5	72.1871	16564.5	73.5935	16564.5	67.5915	16564.5	68.2888	16564.5	64.6513	16564.5	65.6577	16564.5	60.7231	16564.5	62.1468	16564.5	58.726	16564.5	59.9095	16564.5	54.9798	16564.5	57.9614	16564.5	47.7484	16564.5	54.7979	16564.5	53.7773	16564.5	56.9174	16564.5	46.4633	16564.5	42.6432	16564.5	44.5711	16564.5	58.7849	16564.5	47.2334
17148.9	87.8885	17148.9	87.2061	17148.9	86.8278	17148.9	85.5396	17148.9	84.5125	17148.9	82.7158	17148.9	81.437	17148.9	80.1962	17148.9	79.082	17148.9	77.0686	17148.9	77.9153	17148.9	75.617	17148.9	77.2563	17148.9	73.8774	17148.9	75.026	17148.9	70.7514	17148.9	72.0481	17148.9	65.9374	17148.9	66.2412	17148.9	61.8562	17148.9	63.4055	17148.9	57.787	17148.9	59.9467	17148.9	54.7928	17148.9	58.8873	17148.9	54.4588	17148.9	56.0134	17148.9	46.8745	17148.9	51.7983	17148.9	50.1214	17148.9	54.9835	17148.9	45.9741	17148.9	45.6291	17148.9	45.7918	17148.9	56.7314	17148.9	44.3656
17752.4	88.404	17752.4	87.7792	17752.4	87.1448	17752.4	85.9204	17752.4	84.4915	17752.4	83.3738	17752.4	81.6284	17752.4	79.9488	17752.4	78.7339	17752.4	76.1734	17752.4	77.1854	17752.4	74.1181	17752.4	75.2393	17752.4	71.6977	17752.4	72.3912	17752.4	67.8275	17752.4	70.027	17752.4	62.7531	17752.4	63.7746	17752.4	58.3233	17752.4	60.9175	17752.4	53.6422	17752.4	57.8899	17752.4	50.4884	17752.4	55.7225	17752.4	51.8793	17752.4	54.6515	17752.4	43.7467	17752.4	46.4778	17752.4	43.8914	17752.4	53.4777	17752.4	40.0796	17752.4	45.3755	17752.4	40.6033	17752.4	54.7664	17752.4	42.2573
18379.4	88.5002	18379.4	88.1919	18379.4	87.0086	18379.4	86.3531	18379.4	84.2523	18379.4	83.8295	18379.4	81.0479	18379.4	79.4563	18379.4	77.1407	18379.4	75.7411	18379.4	74.8051	18379.4	72.3893	18379.4	72.9861	18379.4	69.1936	18379.4	70.6472	18379.4	66.791	18379.4	68.8948	18379.4	63.1012	18379.4	63.2221	18379.4	58.6949	18379.4	59.4337	18379.4	56.0878	18379.4	55.6374	18379.4	50.017	18379.4	54.8652	18379.4	52.6031	18379.4	51.6055	18379.4	46.8545	18379.4	41.7926	18379.4	45.9929	18379.4	52.9881	18379.4	45.3216	18379.4	48.1194	18379.4	42.3883	18379.4	53.3783	18379.4	41.0968
19026.9	88.2615	19026.9	88.2169	19026.9	86.8084	19026.9	86.2117	19026.9	83.5506	19026.9	83.45	19026.9	80.0697	19026.9	78.6609	19026.9	75.7138	19026.9	73.9068	19026.9	71.1357	19026.9	68.4389	19026.9	70.6801	19026.9	69.0472	19026.9	68.9609	19026.9	66.7124	19026.9	65.7579	19026.9	62.104	19026.9	59.5983	19026.9	58.687	19026.9	56.0874	19026.9	54.9092	19026.9	52.7062	19026.9	43.1541	19026.9	52.4874	19026.9	49.5939	19026.9	47.6914	19026.9	44.409	19026.9	39.0177	19026.9	45.7074	19026.9	50.6087	19026.9	43.853	19026.9	49.1032	19026.9	43.0024	19026.9	49.318	19026.9	38.2974
19697.8	87.9993	19697.8	88.1599	19697.8	86.3704	19697.8	85.8151	19697.8	82.6757	19697.8	82.6191	19697.8	78.9858	19697.8	77.4104	19697.8	74.1903	19697.8	71.1468	19697.8	69.4402	19697.8	69.5066	19697.8	68.9563	19697.8	69.5889	19697.8	67.3257	19697.8	65.7315	19697.8	63.775	19697.8	61.4245	19697.8	58.6272	19697.8	56.8452	19697.8	54.6239	19697.8	50.8818	19697.8	52.0806	19697.8	46.1638	19697.8	51.9257	19697.8	48.641	19697.8	44.2124	19697.8	42.9269	19697.8	43.166	19697.8	43.542	19697.8	46.0007	19697.8	44.6237	19697.8	46.8492	19697.8	43.6303	19697.8	46.0186	19697.8	41.8768
19999.5	87.6815	19999.5	88.2152	19999.5	85.8317	19999.5	85.5732	19999.5	82.0264	19999.5	81.7132	19999.5	77.7019	19999.5	76.6637	19999.5	72.8709	19999.5	70.3294	19999.5	68.4435	19999.5	70.1588	19999.5	68.1583	19999.5	70.0532	19999.5	67.3614	19999.5	67.2744	19999.5	63.808	19999.5	62.4143	19999.5	59.4192	19999.5	56.3308	19999.5	52.9753	19999.5	40.984	19999.5	52.7751	19999.5	48.531	19999.5	52.3988	19999.5	53.2958	19999.5	41.1407	19999.5	48.0292	19999.5	51.3682	19999.5	50.3405	19999.5	42.852	19999.5	49.4693	19999.5	47.9541	19999.5	44.6937	19999.5	52.3865	19999.5	48.7429
