"SPL Vertical"
"On-Axis"		"10°"		"-10°"		"20°"		"-20°"		"30°"		"-30°"		"40°"		"-40°"		"50°"		"-50°"		"60°"		"-60°"		"70°"		"-70°"		"80°"		"-80°"		"90°"		"-90°"		"100°"		"-100°"		"110°"		"-110°"		"120°"		"-120°"		"130°"		"-130°"		"140°"		"-140°"		"150°"		"-150°"		"160°"		"-160°"		"170°"		"-170°"		"180°"
"Frequency / Hz"	"Sound Pressure Level / dB (re 20 µPa/V)  [2.83V at 1m]"	"Frequency / Hz"	"Sound Pressure Level / dB (re 20 µPa/V)  [2.83V at 1m]"	"Frequency / Hz"	"Sound Pressure Level / dB (re 20 µPa/V)  [2.83V at 1m]"	"Frequency / Hz"	"Sound Pressure Level / dB (re 20 µPa/V)  [2.83V at 1m]"	"Frequency / Hz"	"Sound Pressure Level / dB (re 20 µPa/V)  [2.83V at 1m]"	"Frequency / Hz"	"Sound Pressure Level / dB (re 20 µPa/V)  [2.83V at 1m]"	"Frequency / Hz"	"Sound Pressure Level / dB (re 20 µPa/V)  [2.83V at 1m]"	"Frequency / Hz"	"Sound Pressure Level / dB (re 20 µPa/V)  [2.83V at 1m]"	"Frequency / Hz"	"Sound Pressure Level / dB (re 20 µPa/V)  [2.83V at 1m]"	"Frequency / Hz"	"Sound Pressure Level / dB (re 20 µPa/V)  [2.83V at 1m]"	"Frequency / Hz"	"Sound Pressure Level / dB (re 20 µPa/V)  [2.83V at 1m]"	"Frequency / Hz"	"Sound Pressure Level / dB (re 20 µPa/V)  [2.83V at 1m]"	"Frequency / Hz"	"Sound Pressure Level / dB (re 20 µPa/V)  [2.83V at 1m]"	"Frequency / Hz"	"Sound Pressure Level / dB (re 20 µPa/V)  [2.83V at 1m]"	"Frequency / Hz"	"Sound Pressure Level / dB (re 20 µPa/V)  [2.83V at 1m]"	"Frequency / Hz"	"Sound Pressure Level / dB (re 20 µPa/V)  [2.83V at 1m]"	"Frequency / Hz"	"Sound Pressure Level / dB (re 20 µPa/V)  [2.83V at 1m]"	"Frequency / Hz"	"Sound Pressure Level / dB (re 20 µPa/V)  [2.83V at 1m]"	"Frequency / Hz"	"Sound Pressure Level / dB (re 20 µPa/V)  [2.83V at 1m]"	"Frequency / Hz"	"Sound Pressure Level / dB (re 20 µPa/V)  [2.83V at 1m]"	"Frequency / Hz"	"Sound Pressure Level / dB (re 20 µPa/V)  [2.83V at 1m]"	"Frequency / Hz"	"Sound Pressure Level / dB (re 20 µPa/V)  [2.83V at 1m]"	"Frequency / Hz"	"Sound Pressure Level / dB (re 20 µPa/V)  [2.83V at 1m]"	"Frequency / Hz"	"Sound Pressure Level / dB (re 20 µPa/V)  [2.83V at 1m]"	"Frequency / Hz"	"Sound Pressure Level / dB (re 20 µPa/V)  [2.83V at 1m]"	"Frequency / Hz"	"Sound Pressure Level / dB (re 20 µPa/V)  [2.83V at 1m]"	"Frequency / Hz"	"Sound Pressure Level / dB (re 20 µPa/V)  [2.83V at 1m]"	"Frequency / Hz"	"Sound Pressure Level / dB (re 20 µPa/V)  [2.83V at 1m]"	"Frequency / Hz"	"Sound Pressure Level / dB (re 20 µPa/V)  [2.83V at 1m]"	"Frequency / Hz"	"Sound Pressure Level / dB (re 20 µPa/V)  [2.83V at 1m]"	"Frequency / Hz"	"Sound Pressure Level / dB (re 20 µPa/V)  [2.83V at 1m]"	"Frequency / Hz"	"Sound Pressure Level / dB (re 20 µPa/V)  [2.83V at 1m]"	"Frequency / Hz"	"Sound Pressure Level / dB (re 20 µPa/V)  [2.83V at 1m]"	"Frequency / Hz"	"Sound Pressure Level / dB (re 20 µPa/V)  [2.83V at 1m]"	"Frequency / Hz"	"Sound Pressure Level / dB (re 20 µPa/V)  [2.83V at 1m]"	"Frequency / Hz"	"Sound Pressure Level / dB (re 20 µPa/V)  [2.83V at 1m]"
20.5078	50.9385	20.5078	49.9273	20.5078	51.5331	20.5078	48.4635	20.5078	51.7267	20.5078	46.5751	20.5078	51.497	20.5078	44.7679	20.5078	50.7702	20.5078	44.714	20.5078	49.3893	20.5078	46.9815	20.5078	47.0481	20.5078	49.8246	20.5078	43.3639	20.5078	52.3697	20.5078	41.4527	20.5078	54.5188	20.5078	46.3355	20.5078	56.3289	20.5078	50.9043	20.5078	57.8606	20.5078	54.2189	20.5078	59.1557	20.5078	56.6994	20.5078	60.2389	20.5078	58.5981	20.5078	61.1218	20.5078	60.0509	20.5078	61.8058	20.5078	61.1356	20.5078	62.2855	20.5078	61.8998	20.5078	62.5501	20.5078	62.3752	20.5078	62.5855
21.9727	54.2558	21.9727	53.7519	21.9727	54.5468	21.9727	53.1133	21.9727	54.5836	21.9727	52.5039	21.9727	54.3378	21.9727	52.2144	21.9727	53.7912	21.9727	52.5648	21.9727	52.9686	21.9727	53.6206	21.9727	52.0518	21.9727	55.1247	21.9727	51.6053	21.9727	56.7701	21.9727	52.4002	21.9727	58.3706	21.9727	54.3438	21.9727	59.8454	21.9727	56.6331	21.9727	61.166	21.9727	58.7699	21.9727	62.3235	21.9727	60.6055	21.9727	63.3144	21.9727	62.1228	21.9727	64.1342	21.9727	63.3375	21.9727	64.7761	21.9727	64.2695	21.9727	65.2306	21.9727	64.936	21.9727	65.4865	21.9727	65.3521	21.9727	65.5312
23.4375	55.6368	23.4375	55.1849	23.4375	55.9031	23.4375	54.6364	23.4375	55.9389	23.4375	54.1643	23.4375	55.7214	23.4375	54.0415	23.4375	55.2525	23.4375	54.5206	23.4375	54.5982	23.4375	55.6101	23.4375	53.9955	23.4375	57.0731	23.4375	53.9569	23.4375	58.6513	23.4375	54.9529	23.4375	60.1865	23.4375	56.7776	23.4375	61.6065	23.4375	58.8508	23.4375	62.8837	23.4375	60.8058	23.4375	64.008	23.4375	62.511	23.4375	64.9744	23.4375	63.9374	23.4375	65.7775	23.4375	65.0888	23.4375	66.4095	23.4375	65.9763	23.4375	66.8604	23.4375	66.6116	23.4375	67.1185	23.4375	67.0062	23.4375	67.1712
24.9023	61.3921	24.9023	61.1599	24.9023	61.5574	24.9023	60.9035	24.9023	61.6296	24.9023	60.6842	24.9023	61.5966	24.9023	60.5801	24.9023	61.4626	24.9023	60.6709	24.9023	61.2565	24.9023	61.0097	24.9023	61.0459	24.9023	61.5975	24.9023	60.9491	24.9023	62.3835	24.9023	61.1174	24.9023	63.291	24.9023	61.6598	24.9023	64.2448	24.9023	62.5568	24.9023	65.1853	24.9023	63.6711	24.9023	66.0689	24.9023	64.8393	24.9023	66.8637	24.9023	65.9377	24.9023	67.545	24.9023	66.8916	24.9023	68.0921	24.9023	67.6619	24.9023	68.4863	24.9023	68.2308	24.9023	68.7105	24.9023	68.5926	24.9023	68.7499
26.3672	62.2096	26.3672	61.8623	26.3672	62.4115	26.3672	61.3985	26.3672	62.4497	26.3672	60.8689	26.3672	62.3115	26.3672	60.3634	26.3672	61.992	26.3672	60.0232	26.3672	61.5047	26.3672	60.0171	26.3672	60.9101	26.3672	60.4535	26.3672	60.3688	26.3672	61.298	26.3672	60.178	26.3672	62.4022	26.3672	60.639	26.3672	63.6046	26.3672	61.7535	26.3672	64.7893	26.3672	63.2135	26.3672	65.8879	26.3672	64.7042	26.3672	66.862	26.3672	66.0476	26.3672	67.6885	26.3672	67.1688	26.3672	68.3501	26.3672	68.0437	26.3672	68.8318	26.3672	68.6689	26.3672	69.1184	26.3672	69.0498	26.3672	69.1956
27.832	62.422	27.832	62.0811	27.832	62.6529	27.832	61.6784	27.832	62.7489	27.832	61.2967	27.832	62.702	27.832	61.0609	27.832	62.5236	27.832	61.1159	27.832	62.2579	27.832	61.558	27.832	62.0058	27.832	62.3694	27.832	61.9421	27.832	63.4331	27.832	62.2702	27.832	64.61	27.832	63.0822	27.832	65.7927	27.832	64.268	27.832	66.914	27.832	65.6121	27.832	67.9349	27.832	66.9308	27.832	68.8323	27.832	68.1149	27.832	69.5898	27.832	69.111	27.832	70.1936	27.832	69.8962	27.832	70.6305	27.832	70.4636	27.832	70.8875	27.832	70.8138	27.832	70.9522
29.2969	64.4388	29.2969	64.274	29.2969	64.5731	29.2969	64.1182	29.2969	64.6526	29.2969	64.0252	29.2969	64.6693	29.2969	64.0558	29.2969	64.6342	29.2969	64.263	29.2969	64.5829	29.2969	64.6731	29.2969	64.5808	29.2969	65.2744	29.2969	64.7196	29.2969	66.0237	29.2969	65.0888	29.2969	66.8632	29.2969	65.7281	29.2969	67.737	29.2969	66.597	29.2969	68.5987	29.2969	67.5962	29.2969	69.4125	29.2969	68.6162	29.2969	70.1504	29.2969	69.5697	29.2969	70.7896	29.2969	70.3985	29.2969	71.31	29.2969	71.0678	29.2969	71.6931	29.2969	71.5588	29.2969	71.9222	29.2969	71.8637	29.2969	71.9827
30.7617	66.9324	30.7617	66.7967	30.7617	67.0392	30.7617	66.6572	30.7617	67.1015	30.7617	66.548	30.7617	67.1143	30.7617	66.5096	30.7617	67.0847	30.7617	66.5831	30.7617	67.0359	30.7617	66.8006	30.7617	67.0104	30.7617	67.1746	30.7617	67.069	30.7617	67.694	30.7617	67.2789	30.7617	68.3267	30.7617	67.6872	30.7617	69.0298	30.7617	68.2937	30.7617	69.7588	30.7617	69.0472	30.7617	70.4732	30.7617	69.8672	30.7617	71.1386	30.7617	70.6727	30.7617	71.7257	30.7617	71.3989	30.7617	72.2096	30.7617	72.0006	30.7617	72.5687	30.7617	72.4499	30.7617	72.7845	30.7617	72.7319	30.7617	72.8422
32.2266	68.5377	32.2266	68.4105	32.2266	68.6346	32.2266	68.2751	32.2266	68.6876	32.2266	68.1616	32.2266	68.6924	32.2266	68.1065	32.2266	68.6555	32.2266	68.1482	32.2266	68.5983	32.2266	68.3193	32.2266	68.5598	32.2266	68.6372	32.2266	68.5969	32.2266	69.0978	32.2266	68.7737	32.2266	69.6761	32.2266	69.1384	32.2266	70.3338	32.2266	69.6967	32.2266	71.0279	32.2266	70.4042	32.2266	71.7174	32.2266	71.1852	32.2266	72.3661	32.2266	71.96	32.2266	72.943	32.2266	72.6627	32.2266	73.4214	32.2266	73.2466	32.2266	73.7788	32.2266	73.6824	32.2266	73.9959	32.2266	73.9544	32.2266	74.0578
33.6914	70.459	33.6914	70.3529	33.6914	70.5449	33.6914	70.2435	33.6914	70.6004	33.6914	70.1534	33.6914	70.6225	33.6914	70.1099	33.6914	70.6171	33.6914	70.1416	33.6914	70.6007	33.6914	70.274	33.6914	70.6023	33.6914	70.5229	33.6914	70.6619	33.6914	70.8898	33.6914	70.8243	33.6914	71.3607	33.6914	71.1244	33.6914	71.9091	33.6914	71.571	33.6914	72.5014	33.6914	72.1393	33.6914	73.1021	33.6914	72.7781	33.6914	73.6777	33.6914	73.4256	33.6914	74.1973	33.6914	74.0247	33.6914	74.634	33.6914	74.53	33.6914	74.9644	33.6914	74.9104	33.6914	75.1689	33.6914	75.1471	33.6914	75.2328
35.1562	70.3116	35.1562	70.1825	35.1562	70.4037	35.1562	70.034	35.1562	70.4502	35.1562	69.8938	35.1562	70.4523	35.1562	69.7991	35.1562	70.4222	35.1562	69.7938	35.1562	70.3853	35.1562	69.9202	35.1562	70.3826	35.1562	70.2068	35.1562	70.4671	35.1562	70.6566	35.1562	70.6929	35.1562	71.2455	35.1562	71.0939	35.1562	71.9298	35.1562	71.6652	35.1562	72.6588	35.1562	72.3618	35.1562	73.3844	35.1562	73.1155	35.1562	74.0658	35.1562	73.8565	35.1562	74.6696	35.1562	74.5263	35.1562	75.1688	35.1562	75.0823	35.1562	75.5416	35.1562	75.4963	35.1562	75.7706	35.1562	75.7523	35.1562	75.8433
36.6211	72.5331	36.6211	72.4751	36.6211	72.6136	36.6211	72.4514	36.6211	72.7076	36.6211	72.4753	36.6211	72.8107	36.6211	72.5593	36.6211	72.9237	36.6211	72.7128	36.6211	73.0533	36.6211	72.9406	36.6211	73.2116	36.6211	73.2411	36.6211	73.4141	36.6211	73.6071	36.6211	73.6765	36.6211	74.0261	36.6211	74.0087	36.6211	74.4819	36.6211	74.41	36.6211	74.956	36.6211	74.8665	36.6211	75.4289	36.6211	75.3521	36.6211	75.8806	36.6211	75.8336	36.6211	76.2909	36.6211	76.2765	36.6211	76.6403	36.6211	76.6496	36.6211	76.9102	36.6211	76.9286	36.6211	77.0841	36.6211	77.0975	36.6211	77.149
38.0859	73.7712	38.0859	73.7053	38.0859	73.8343	38.0859	73.6459	38.0859	73.889	38.0859	73.6053	38.0859	73.9339	38.0859	73.5977	38.0859	73.973	38.0859	73.6378	38.0859	74.0157	38.0859	73.7391	38.0859	74.0777	38.0859	73.9112	38.0859	74.1792	38.0859	74.1579	38.0859	74.3417	38.0859	74.4757	38.0859	74.5819	38.0859	74.8539	38.0859	74.9054	38.0859	75.2751	38.0859	75.302	38.0859	75.7177	38.0859	75.7458	38.0859	76.1572	38.0859	76.201	38.0859	76.5683	38.0859	76.6283	38.0859	76.9263	38.0859	76.9923	38.0859	77.2082	38.0859	77.2648	38.0859	77.3944	38.0859	77.427	38.0859	77.4701
39.5508	74.5028	39.5508	74.4395	39.5508	74.5715	39.5508	74.3899	39.5508	74.6407	39.5508	74.3649	39.5508	74.7094	39.5508	74.3771	39.5508	74.781	39.5508	74.4397	39.5508	74.8635	39.5508	74.564	39.5508	74.9696	39.5508	74.758	39.5508	75.1148	39.5508	75.0238	39.5508	75.3147	39.5508	75.3569	39.5508	75.5805	39.5508	75.7456	39.5508	75.914	39.5508	76.1726	39.5508	76.3049	39.5508	76.6164	39.5508	76.7308	39.5508	77.0534	39.5508	77.161	39.5508	77.4593	39.5508	77.5619	39.5508	77.8107	39.5508	77.9021	39.5508	78.0864	39.5508	78.1562	39.5508	78.2686	39.5508	78.3066	39.5508	78.3442
41.0156	75.4492	41.0156	75.3931	41.0156	75.5143	41.0156	75.3527	41.0156	75.584	41.0156	75.3369	41.0156	75.6572	41.0156	75.3556	41.0156	75.736	41.0156	75.4188	41.0156	75.8265	41.0156	75.5352	41.0156	75.938	41.0156	75.7109	41.0156	76.0825	41.0156	75.9475	41.0156	76.2717	41.0156	76.2417	41.0156	76.5145	41.0156	76.5845	41.0156	76.8127	41.0156	76.9625	41.0156	77.1581	41.0156	77.3577	41.0156	77.5331	41.0156	77.7501	41.0156	77.9119	41.0156	78.118	41.0156	78.2654	41.0156	78.4399	41.0156	78.5655	41.0156	78.6956	41.0156	78.7884	41.0156	78.868	41.0156	78.9175	41.0156	78.9442
42.4805	76.2756	42.4805	76.2246	42.4805	76.3387	42.4805	76.1913	42.4805	76.4101	42.4805	76.1826	42.4805	76.4889	42.4805	76.2065	42.4805	76.5766	42.4805	76.271	42.4805	76.6775	42.4805	76.3829	42.4805	76.7988	42.4805	76.5471	42.4805	76.9493	42.4805	76.7649	42.4805	77.1378	42.4805	77.0337	42.4805	77.3704	42.4805	77.3465	42.4805	77.648	42.4805	77.6919	42.4805	77.9638	42.4805	78.0547	42.4805	78.3026	42.4805	78.417	42.4805	78.6428	42.4805	78.7591	42.4805	78.959	42.4805	79.0609	42.4805	79.2261	42.4805	79.3035	42.4805	79.4225	42.4805	79.4703	42.4805	79.5328	42.4805	79.5489
43.9453	76.8014	43.9453	76.7599	43.9453	76.8582	43.9453	76.7381	43.9453	76.9277	43.9453	76.7416	43.9453	77.0091	43.9453	76.7765	43.9453	77.1039	43.9453	76.8492	43.9453	77.2159	43.9453	76.9651	43.9453	77.3506	43.9453	77.1282	43.9453	77.5148	43.9453	77.3397	43.9453	77.7146	43.9453	77.5974	43.9453	77.9539	43.9453	77.8954	43.9453	78.2316	43.9453	78.2238	43.9453	78.5403	43.9453	78.5693	43.9453	78.8659	43.9453	78.9154	43.9453	79.1886	43.9453	79.2439	43.9453	79.4855	43.9453	79.5356	43.9453	79.7338	43.9453	79.7721	43.9453	79.9139	43.9453	79.9375	43.9453	80.0116	43.9453	80.0195
45.4102	77.634	45.4102	77.59	45.4102	77.695	45.4102	77.5667	45.4102	77.7706	45.4102	77.5684	45.4102	77.8597	45.4102	77.5998	45.4102	77.9629	45.4102	77.666	45.4102	78.082	45.4102	77.7709	45.4102	78.2204	45.4102	77.9176	45.4102	78.3821	45.4102	78.107	45.4102	78.5709	45.4102	78.3372	45.4102	78.7891	45.4102	78.6037	45.4102	79.0356	45.4102	78.898	45.4102	79.3046	45.4102	79.209	45.4102	79.5853	45.4102	79.5224	45.4102	79.8619	45.4102	79.8219	45.4102	80.1153	45.4102	80.0903	45.4102	80.326	45.4102	80.3107	45.4102	80.4766	45.4102	80.468	45.4102	80.5539	45.4102	80.5512
46.875	78.2136	46.875	78.1722	46.875	78.2734	46.875	78.1518	46.875	78.3495	46.875	78.1559	46.875	78.4408	46.875	78.1883	46.875	78.5474	46.875	78.2526	46.875	78.6703	46.875	78.3521	46.875	78.8115	46.875	78.4891	46.875	78.9736	46.875	78.6643	46.875	79.1588	46.875	78.8766	46.875	79.3681	46.875	79.122	46.875	79.6	46.875	79.3937	46.875	79.8494	46.875	79.6819	46.875	80.1067	46.875	79.9741	46.875	80.3581	46.875	80.2555	46.875	80.5868	46.875	80.5099	46.875	80.7752	46.875	80.7213	46.875	80.9074	46.875	80.8752	46.875	80.9713	46.875	80.9606
48.3398	78.8295	48.3398	78.7882	48.3398	78.8888	48.3398	78.7671	48.3398	78.9643	48.3398	78.7687	48.3398	79.0549	48.3398	78.7959	48.3398	79.1602	48.3398	78.8514	48.3398	79.2802	48.3398	78.9378	48.3398	79.416	48.3398	79.057	48.3398	79.5687	48.3398	79.2098	48.3398	79.7395	48.3398	79.3956	48.3398	79.9289	48.3398	79.6115	48.3398	80.1354	48.3398	79.8524	48.3398	80.3547	48.3398	80.1102	48.3398	80.579	48.3398	80.374	48.3398	80.7969	48.3398	80.6307	48.3398	80.994	48.3398	80.8654	48.3398	81.1549	48.3398	81.0631	48.3398	81.2653	48.3398	81.2101	48.3398	81.3142	48.3398	81.2958
51.2695	79.9928	51.2695	79.954	51.2695	80.0535	51.2695	79.9383	51.2695	80.1349	51.2695	79.9469	51.2695	80.2358	51.2695	79.9809	51.2695	80.3553	51.2695	80.0418	51.2695	80.4921	51.2695	80.1304	51.2695	80.6454	51.2695	80.2474	51.2695	80.8137	51.2695	80.393	51.2695	80.9958	51.2695	80.5663	51.2695	81.1894	51.2695	80.7649	51.2695	81.3914	51.2695	80.9849	51.2695	81.5968	51.2695	81.2199	51.2695	81.7984	51.2695	81.4612	51.2695	81.9869	51.2695	81.698	51.2695	82.1509	51.2695	81.9176	51.2695	82.2784	51.2695	82.1069	51.2695	82.3585	51.2695	82.2535	51.2695	82.3828	51.2695	82.3474
52.7344	80.2383	52.7344	80.2035	52.7344	80.2961	52.7344	80.1926	52.7344	80.376	52.7344	80.2059	52.7344	80.4771	52.7344	80.2438	52.7344	80.5977	52.7344	80.3067	52.7344	80.7362	52.7344	80.3948	52.7344	80.8905	52.7344	80.5079	52.7344	81.0585	52.7344	80.6459	52.7344	81.2375	52.7344	80.8078	52.7344	81.4245	52.7344	80.9915	52.7344	81.6159	52.7344	81.1937	52.7344	81.8068	52.7344	81.4092	52.7344	81.9908	52.7344	81.6307	52.7344	82.16	52.7344	81.8486	52.7344	82.3047	52.7344	82.0519	52.7344	82.415	52.7344	82.2285	52.7344	82.4814	52.7344	82.3671	52.7344	82.497	52.7344	82.4585
54.1992	80.7392	54.1992	80.6998	54.1992	80.7998	54.1992	80.6822	54.1992	80.8806	54.1992	80.6867	54.1992	80.9801	54.1992	80.7137	54.1992	81.0967	54.1992	80.7631	54.1992	81.2282	54.1992	80.8353	54.1992	81.3721	54.1992	80.9303	54.1992	81.5258	54.1992	81.0479	54.1992	81.6866	54.1992	81.1876	54.1992	81.8515	54.1992	81.3481	54.1992	82.0174	54.1992	81.5268	54.1992	82.1803	54.1992	81.7194	54.1992	82.3353	54.1992	81.9194	54.1992	82.4761	54.1992	82.1185	54.1992	82.595	54.1992	82.3062	54.1992	82.6834	54.1992	82.4716	54.1992	82.7332	54.1992	82.6039	54.1992	82.7379	54.1992	82.6944
55.6641	81.1676	55.6641	81.1297	55.6641	81.2277	55.6641	81.1144	55.6641	81.3093	55.6641	81.122	55.6641	81.4109	55.6641	81.1521	55.6641	81.5304	55.6641	81.2045	55.6641	81.6655	55.6641	81.2787	55.6641	81.813	55.6641	81.3745	55.6641	81.9698	55.6641	81.4913	55.6641	82.1326	55.6641	81.6284	55.6641	82.2979	55.6641	81.7843	55.6641	82.462	55.6641	81.9566	55.6641	82.6208	55.6641	82.1414	55.6641	82.7696	55.6641	82.3331	55.6641	82.9025	55.6641	82.5239	55.6641	83.0126	55.6641	82.7046	55.6641	83.0921	55.6641	82.8649	55.6641	83.1339	55.6641	82.9947	55.6641	83.1325	55.6641	83.0856
58.5938	81.9693	58.5938	81.93	58.5938	82.031	58.5938	81.913	58.5938	82.1143	58.5938	81.9178	58.5938	82.2176	58.5938	81.9436	58.5938	82.3386	58.5938	81.9892	58.5938	82.4739	58.5938	82.0535	58.5938	82.6198	58.5938	82.1356	58.5938	82.772	58.5938	82.2347	58.5938	82.926	58.5938	82.35	58.5938	83.0775	58.5938	82.4805	58.5938	83.2224	58.5938	82.6247	58.5938	83.3565	58.5938	82.7803	58.5938	83.4759	58.5938	82.9434	58.5938	83.5763	58.5938	83.1085	58.5938	83.653	58.5938	83.2684	58.5938	83.7008	58.5938	83.4149	58.5938	83.7153	58.5938	83.5391	58.5938	83.6931	58.5938	83.6337
60.0586	82.3364	60.0586	82.2944	60.0586	82.4007	60.0586	82.2748	60.0586	82.4868	60.0586	82.2768	60.0586	82.5929	60.0586	82.2993	60.0586	82.7163	60.0586	82.341	60.0586	82.8536	60.0586	82.4004	60.0586	83.0005	60.0586	82.4765	60.0586	83.1521	60.0586	82.5682	60.0586	83.3037	60.0586	82.6747	60.0586	83.4504	60.0586	82.7952	60.0586	83.5877	60.0586	82.9288	60.0586	83.7117	60.0586	83.0735	60.0586	83.8186	60.0586	83.2262	60.0586	83.9047	60.0586	83.3823	60.0586	83.9662	60.0586	83.5356	60.0586	83.9992	60.0586	83.6782	60.0586	84.0003	60.0586	83.8023	60.0586	83.9674	60.0586	83.9005
62.9883	83.1006	62.9883	83.0527	62.9883	83.1694	62.9883	83.0257	62.9883	83.2586	62.9883	83.0188	62.9883	83.3663	62.9883	83.0305	62.9883	83.4897	62.9883	83.0595	62.9883	83.6249	62.9883	83.1044	62.9883	83.7671	62.9883	83.164	62.9883	83.9112	62.9883	83.2373	62.9883	84.0516	62.9883	83.324	62.9883	84.1831	62.9883	83.4235	62.9883	84.3009	62.9883	83.5354	62.9883	84.4013	62.9883	83.6587	62.9883	84.481	62.9883	83.7913	62.9883	84.5379	62.9883	83.9296	62.9883	84.5698	62.9883	84.0686	62.9883	84.5752	62.9883	84.2019	62.9883	84.5527	62.9883	84.3226	62.9883	84.5021	62.9883	84.4244
64.4531	83.4121	64.4531	83.369	64.4531	83.4755	64.4531	83.3457	64.4531	83.5586	64.4531	83.3411	64.4531	83.6599	64.4531	83.3537	64.4531	83.7767	64.4531	83.3818	64.4531	83.905	64.4531	83.4238	64.4531	84.0401	64.4531	83.4784	64.4531	84.1765	64.4531	83.5447	64.4531	84.3086	64.4531	83.6222	64.4531	84.4308	64.4531	83.7105	64.4531	84.5385	64.4531	83.8094	64.4531	84.628	64.4531	83.9181	64.4531	84.6964	64.4531	84.035	64.4531	84.7421	64.4531	84.1574	64.4531	84.7638	64.4531	84.2812	64.4531	84.761	64.4531	84.4011	64.4531	84.7333	64.4531	84.5112	64.4531	84.6811	64.4531	84.6061
67.3828	83.8735	67.3828	83.8393	67.3828	83.9292	67.3828	83.8256	67.3828	84.0061	67.3828	83.8307	67.3828	84.1026	67.3828	83.8522	67.3828	84.2156	67.3828	83.8873	67.3828	84.3408	67.3828	83.9335	67.3828	84.4727	67.3828	83.9881	67.3828	84.6053	67.3828	84.0496	67.3828	84.7323	67.3828	84.1165	67.3828	84.8474	67.3828	84.1884	67.3828	84.9455	67.3828	84.2653	67.3828	85.0226	67.3828	84.3476	67.3828	85.0761	67.3828	84.4355	67.3828	85.1048	67.3828	84.5287	67.3828	85.1088	67.3828	84.6259	67.3828	85.0891	67.3828	84.7245	67.3828	85.0475	67.3828	84.8205	67.3828	84.9865	67.3828	84.9094
68.8477	84.1038	68.8477	84.0666	68.8477	84.1628	68.8477	84.0504	68.8477	84.2432	68.8477	84.0533	68.8477	84.3431	68.8477	84.0727	68.8477	84.4594	68.8477	84.1058	68.8477	84.5875	68.8477	84.1494	68.8477	84.7215	68.8477	84.201	68.8477	84.8551	68.8477	84.2584	68.8477	84.9816	68.8477	84.3202	68.8477	85.0947	68.8477	84.386	68.8477	85.1887	68.8477	84.4559	68.8477	85.2597	68.8477	84.5308	68.8477	85.305	68.8477	84.6115	68.8477	85.3239	68.8477	84.6985	68.8477	85.3168	68.8477	84.7914	68.8477	85.2857	68.8477	84.8881	68.8477	85.2331	68.8477	84.9853	68.8477	85.1627	68.8477	85.0785
71.7773	84.7033	71.7773	84.6606	71.7773	84.7676	71.7773	84.6386	71.7773	84.8527	71.7773	84.6355	71.7773	84.9568	71.7773	84.6486	71.7773	85.0762	71.7773	84.6749	71.7773	85.206	71.7773	84.711	71.7773	85.3402	71.7773	84.7539	71.7773	85.4719	71.7773	84.8014	71.7773	85.5941	71.7773	84.8518	71.7773	85.7	71.7773	84.9047	71.7773	85.7838	71.7773	84.9607	71.7773	85.8411	71.7773	85.0211	71.7773	85.8696	71.7773	85.0878	71.7773	85.869	71.7773	85.1626	71.7773	85.8409	71.7773	85.2461	71.7773	85.7886	71.7773	85.3377	71.7773	85.7165	71.7773	85.4351	71.7773	85.6298	71.7773	85.5342
74.707	85.1741	74.707	85.1269	74.707	85.2418	74.707	85.0996	74.707	85.3293	74.707	85.0904	74.707	85.4345	74.707	85.0966	74.707	85.5536	74.707	85.115	74.707	85.6816	74.707	85.1422	74.707	85.8124	74.707	85.175	74.707	85.939	74.707	85.2109	74.707	86.0539	74.707	85.2482	74.707	86.1502	74.707	85.2866	74.707	86.2218	74.707	85.3269	74.707	86.2643	74.707	85.371	74.707	86.2754	74.707	85.4217	74.707	86.2553	74.707	85.4819	74.707	86.2066	74.707	85.5538	74.707	86.134	74.707	85.6381	74.707	86.0435	74.707	85.7335	74.707	85.942	74.707	85.8365
77.6367	85.3554	77.6367	85.3039	77.6367	85.4265	77.6367	85.2714	77.6367	85.5164	77.6367	85.2562	77.6367	85.6229	77.6367	85.2556	77.6367	85.7422	77.6367	85.2663	77.6367	85.8692	77.6367	85.2848	77.6367	85.9976	77.6367	85.3079	77.6367	86.1203	77.6367	85.333	77.6367	86.2298	77.6367	85.3584	77.6367	86.3187	77.6367	85.3837	77.6367	86.3807	77.6367	85.4102	77.6367	86.4111	77.6367	85.4404	77.6367	86.4077	77.6367	85.4779	77.6367	86.3709	77.6367	85.5266	77.6367	86.3042	77.6367	85.59	77.6367	86.2133	77.6367	85.6697	77.6367	86.1057	77.6367	85.7654	77.6367	85.9898	77.6367	85.8739
79.1016	85.4895	79.1016	85.435	79.1016	85.5633	79.1016	85.3993	79.1016	85.6555	79.1016	85.3808	79.1016	85.7639	79.1016	85.3767	79.1016	85.8847	79.1016	85.3837	79.1016	86.0127	79.1016	85.3985	79.1016	86.1415	79.1016	85.4176	79.1016	86.2639	79.1016	85.4383	79.1016	86.3723	79.1016	85.4591	79.1016	86.459	79.1016	85.4796	79.1016	86.5177	79.1016	85.5012	79.1016	86.5436	79.1016	85.5266	79.1016	86.5343	79.1016	85.5599	79.1016	86.4905	79.1016	85.6052	79.1016	86.4158	79.1016	85.6666	79.1016	86.3165	79.1016	85.7461	79.1016	86.2008	79.1016	85.8436	79.1016	86.0776	79.1016	85.956
82.0312	85.9063	82.0312	85.844	82.0312	85.9863	82.0312	85.7994	82.0312	86.0833	82.0312	85.7709	82.0312	86.1947	82.0312	85.7563	82.0312	86.317	82.0312	85.7526	82.0312	86.445	82.0312	85.7567	82.0312	86.5726	82.0312	85.7656	82.0312	86.6926	82.0312	85.7767	82.0312	86.7971	82.0312	85.7886	82.0312	86.8785	82.0312	85.8014	82.0312	86.9303	82.0312	85.8164	82.0312	86.9473	82.0312	85.8367	82.0312	86.9274	82.0312	85.8664	82.0312	86.8713	82.0312	85.91	82.0312	86.7831	82.0312	85.9715	82.0312	86.67	82.0312	86.0534	82.0312	86.541	82.0312	86.1554	82.0312	86.4061	82.0312	86.2749
84.9609	86.1409	84.9609	86.0835	84.9609	86.214	84.9609	86.041	84.9609	86.3024	84.9609	86.0118	84.9609	86.4043	84.9609	85.9934	84.9609	86.5167	84.9609	85.9831	84.9609	86.6348	84.9609	85.9782	84.9609	86.7528	84.9609	85.9764	84.9609	86.8636	84.9609	85.9759	84.9609	86.9595	84.9609	85.9761	84.9609	87.0327	84.9609	85.9776	84.9609	87.0764	84.9609	85.9823	84.9609	87.0853	84.9609	85.9931	84.9609	87.0574	84.9609	86.014	84.9609	86.9934	84.9609	86.0491	84.9609	86.8983	84.9609	86.1022	84.9609	86.7796	84.9609	86.1757	84.9609	86.6475	84.9609	86.2704	84.9609	86.5124	84.9609	86.3842
87.8906	86.2505	87.8906	86.207	87.8906	86.3114	87.8906	86.1799	87.8906	86.3892	87.8906	86.167	87.8906	86.4818	87.8906	86.1653	87.8906	86.5858	87.8906	86.1709	87.8906	86.6962	87.8906	86.18	87.8906	86.8069	87.8906	86.189	87.8906	86.9107	87.8906	86.1954	87.8906	86.9998	87.8906	86.1973	87.8906	87.0662	87.8906	86.1947	87.8906	87.1031	87.8906	86.1889	87.8906	87.1054	87.8906	86.1828	87.8906	87.0709	87.8906	86.1808	87.8906	87.0012	87.8906	86.1884	87.8906	86.9018	87.8906	86.2113	87.8906	86.7817	87.8906	86.2546	87.8906	86.6526	87.8906	86.3219	87.8906	86.5264	87.8906	86.4137
90.8203	86.497	90.8203	86.4455	90.8203	86.5657	90.8203	86.4111	90.8203	86.6501	90.8203	86.3922	90.8203	86.7475	90.8203	86.3858	90.8203	86.8539	90.8203	86.3881	90.8203	86.9642	90.8203	86.3946	90.8203	87.072	90.8203	86.4008	90.8203	87.1703	90.8203	86.4028	90.8203	87.2512	90.8203	86.3978	90.8203	87.307	90.8203	86.3847	90.8203	87.3307	90.8203	86.3644	90.8203	87.3174	90.8203	86.3404	90.8203	87.2648	90.8203	86.3181	90.8203	87.1748	90.8203	86.3052	90.8203	87.0538	90.8203	86.31	90.8203	86.9119	90.8203	86.3406	90.8203	86.7626	90.8203	86.4025	90.8203	86.62	90.8203	86.4969
95.2148	86.6853	95.2148	86.6222	95.2148	86.7631	95.2148	86.5742	95.2148	86.8538	95.2148	86.5406	95.2148	86.9546	95.2148	86.519	95.2148	87.0614	95.2148	86.5061	95.2148	87.1693	95.2148	86.4976	95.2148	87.2726	95.2148	86.4893	95.2148	87.3643	95.2148	86.4771	95.2148	87.4369	95.2148	86.4581	95.2148	87.4827	95.2148	86.4312	95.2148	87.4946	95.2148	86.3975	95.2148	87.4673	95.2148	86.3607	95.2148	87.3984	95.2148	86.3273	95.2148	87.2897	95.2148	86.3057	95.2148	87.1479	95.2148	86.3059	95.2148	86.9842	95.2148	86.3368	95.2148	86.8131	95.2148	86.4047	95.2148	86.6505	95.2148	86.5108
98.1445	86.6936	98.1445	86.6229	98.1445	86.777	98.1445	86.5657	98.1445	86.8709	98.1445	86.5217	98.1445	86.9723	98.1445	86.4891	98.1445	87.0775	98.1445	86.4652	98.1445	87.1817	98.1445	86.446	98.1445	87.2795	98.1445	86.4275	98.1445	87.3643	98.1445	86.4057	98.1445	87.4291	98.1445	86.3778	98.1445	87.4661	98.1445	86.3426	98.1445	87.4685	98.1445	86.3011	98.1445	87.4309	98.1445	86.2574	98.1445	87.351	98.1445	86.218	98.1445	87.2307	98.1445	86.1918	98.1445	87.077	98.1445	86.1891	98.1445	86.9014	98.1445	86.2194	98.1445	86.7192	98.1445	86.2893	98.1445	86.5471	98.1445	86.4001
101.074	86.7799	101.074	86.7032	101.074	86.8659	101.074	86.6369	101.074	86.9593	101.074	86.5811	101.074	87.0571	101.074	86.5345	101.074	87.1559	101.074	86.4947	101.074	87.2514	101.074	86.4585	101.074	87.3384	101.074	86.4224	101.074	87.4109	101.074	86.383	101.074	87.4621	101.074	86.3378	101.074	87.4846	101.074	86.2861	101.074	87.4716	101.074	86.2295	101.074	87.418	101.074	86.1721	101.074	87.3217	101.074	86.1209	101.074	87.1848	101.074	86.0856	101.074	87.0148	101.074	86.0765	101.074	86.8238	101.074	86.1038	101.074	86.628	101.074	86.1743	101.074	86.4446	101.074	86.2896
105.469	86.9031	105.469	86.8331	105.469	86.9818	105.469	86.7727	105.469	87.0677	105.469	86.7213	105.469	87.1579	105.469	86.6772	105.469	87.2489	105.469	86.6376	105.469	87.3366	105.469	86.599	105.469	87.4156	105.469	86.5576	105.469	87.4799	105.469	86.5104	105.469	87.5226	105.469	86.4552	105.469	87.5362	105.469	86.3918	105.469	87.514	105.469	86.322	105.469	87.4509	105.469	86.2506	105.469	87.345	105.469	86.1851	105.469	87.1991	105.469	86.1352	105.469	87.0213	105.469	86.1122	105.469	86.8245	105.469	86.1266	105.469	86.6259	105.469	86.186	105.469	86.4433	105.469	86.293
108.398	86.8115	108.398	86.7381	108.398	86.8954	108.398	86.6765	108.398	86.9875	108.398	86.6263	108.398	87.0842	108.398	86.5857	108.398	87.1813	108.398	86.5512	108.398	87.274	108.398	86.5186	108.398	87.3568	108.398	86.4833	108.398	87.4234	108.398	86.441	108.398	87.4666	108.398	86.389	108.398	87.479	108.398	86.3263	108.398	87.454	108.398	86.2547	108.398	87.3864	108.398	86.179	108.398	87.2746	108.398	86.1072	108.398	87.1217	108.398	86.0498	108.398	86.9361	108.398	86.0191	108.398	86.7318	108.398	86.0268	108.398	86.5265	108.398	86.0818	108.398	86.3394	108.398	86.1874
112.793	86.6423	112.793	86.5436	112.793	86.7517	112.793	86.459	112.793	86.8678	112.793	86.3904	112.793	86.9859	112.793	86.3377	112.793	87.1017	112.793	86.2987	112.793	87.2104	112.793	86.2692	112.793	87.3068	112.793	86.2439	112.793	87.3851	112.793	86.2169	112.793	87.4386	112.793	86.1836	112.793	87.4598	112.793	86.1408	112.793	87.4417	112.793	86.0886	112.793	87.3787	112.793	86.0306	112.793	87.2687	112.793	85.9743	112.793	87.114	112.793	85.9306	112.793	86.9229	112.793	85.9127	112.793	86.7094	112.793	85.9333	112.793	86.4918	112.793	86.0023	112.793	86.2903	112.793	86.1229
117.188	86.6753	117.188	86.5568	117.188	86.7927	117.188	86.4399	117.188	86.9066	117.188	86.3271	117.188	87.0154	117.188	86.2211	117.188	87.1174	117.188	86.1233	117.188	87.2105	117.188	86.0344	117.188	87.2922	117.188	85.9535	117.188	87.3582	117.188	85.8793	117.188	87.4026	117.188	85.8101	117.188	87.4182	117.188	85.7449	117.188	87.3972	117.188	85.6847	117.188	87.3329	117.188	85.6331	117.188	87.2214	117.188	85.5969	117.188	87.0633	117.188	85.5853	117.188	86.8648	117.188	85.6089	117.188	86.6378	117.188	85.6769	117.188	86.3988	117.188	85.7946	117.188	86.167	117.188	85.9607
120.117	86.8451	120.117	86.7742	120.117	86.915	120.117	86.7029	120.117	86.9833	120.117	86.631	120.117	87.0489	120.117	86.5583	120.117	87.1106	120.117	86.484	120.117	87.1668	120.117	86.4072	120.117	87.2148	120.117	86.3271	120.117	87.2508	120.117	86.2435	120.117	87.2697	120.117	86.157	120.117	87.2648	120.117	86.0694	120.117	87.2294	120.117	85.984	120.117	87.1579	120.117	85.9059	120.117	87.0475	120.117	85.8421	120.117	86.9	120.117	85.8003	120.117	86.7228	120.117	85.7889	120.117	86.5281	120.117	85.8155	120.117	86.3317	120.117	85.8849	120.117	86.1502	120.117	85.9979
124.512	86.6861	124.512	86.6031	124.512	86.774	124.512	86.5277	124.512	86.8635	124.512	86.4611	124.512	86.951	124.512	86.4031	124.512	87.0331	124.512	86.3516	124.512	87.1068	124.512	86.303	124.512	87.1683	124.512	86.253	124.512	87.2136	124.512	86.1975	124.512	87.2371	124.512	86.1334	124.512	87.2325	124.512	86.0598	124.512	87.1929	124.512	85.9783	124.512	87.1128	124.512	85.8939	124.512	86.99	124.512	85.8144	124.512	86.8268	124.512	85.7503	124.512	86.632	124.512	85.7137	124.512	86.4201	124.512	85.7162	124.512	86.2097	124.512	85.7667	124.512	86.0205	124.512	85.8692
128.906	86.6392	128.906	86.5378	128.906	86.7403	128.906	86.4397	128.906	86.8375	128.906	86.3481	128.906	86.9273	128.906	86.2643	128.906	87.007	128.906	86.1882	128.906	87.0745	128.906	86.1178	128.906	87.1273	128.906	86.0498	128.906	87.1625	128.906	85.9805	128.906	87.1757	128.906	85.907	128.906	87.1612	128.906	85.8278	128.906	87.1126	128.906	85.7443	128.906	87.0245	128.906	85.661	128.906	86.894	128.906	85.5858	128.906	86.723	128.906	85.5292	128.906	86.5195	128.906	85.5031	128.906	86.2973	128.906	85.5189	128.906	86.0745	128.906	85.5849	128.906	85.8709	128.906	85.7038
133.301	86.5557	133.301	86.455	133.301	86.6558	133.301	86.3572	133.301	86.7515	133.301	86.265	133.301	86.8394	133.301	86.18	133.301	86.9168	133.301	86.1016	133.301	86.9811	133.301	86.0278	133.301	87.0297	133.301	85.9552	133.301	87.0593	133.301	85.88	133.301	87.0649	133.301	85.7989	133.301	87.0408	133.301	85.7107	133.301	86.9804	133.301	85.6165	133.301	86.8783	133.301	85.5209	133.301	86.7325	133.301	85.432	133.301	86.5458	133.301	85.3606	133.301	86.3274	133.301	85.3197	133.301	86.0926	133.301	85.3218	133.301	85.8611	133.301	85.3767	133.301	85.6538	133.301	85.4885
139.16	86.328	139.16	86.2099	139.16	86.4412	139.16	86.0913	139.16	86.5458	139.16	85.9764	139.16	86.6393	139.16	85.8685	139.16	86.7201	139.16	85.7691	139.16	86.7874	139.16	85.6778	139.16	86.8398	139.16	85.592	139.16	86.875	139.16	85.5082	139.16	86.8885	139.16	85.4229	139.16	86.8739	139.16	85.3343	139.16	86.8236	139.16	85.2431	139.16	86.7307	139.16	85.1538	139.16	86.5911	139.16	85.0751	139.16	86.4057	139.16	85.0186	139.16	86.1823	139.16	84.9978	139.16	85.9351	139.16	85.0255	139.16	85.6836	139.16	85.1102	139.16	85.4498	139.16	85.2538
143.555	86.2442	143.555	86.1361	143.555	86.3417	143.555	86.0207	143.555	86.4268	143.555	85.9019	143.555	86.4987	143.555	85.7835	143.555	86.5581	143.555	85.6688	143.555	86.606	143.555	85.5599	143.555	86.6435	143.555	85.4572	143.555	86.6699	143.555	85.36	143.555	86.6822	143.555	85.2671	143.555	86.6745	143.555	85.1777	143.555	86.6394	143.555	85.093	143.555	86.5688	143.555	85.0173	143.555	86.4572	143.555	84.9578	143.555	86.3033	143.555	84.9248	143.555	86.1115	143.555	84.9297	143.555	85.8925	143.555	84.982	143.555	85.6621	143.555	85.0868	143.555	85.4391	143.555	85.2422
147.949	86.3211	147.949	86.2449	147.949	86.3873	147.949	86.1612	147.949	86.4411	147.949	86.0721	147.949	86.4808	147.949	85.979	147.949	86.5055	147.949	85.8826	147.949	86.5157	147.949	85.7831	147.949	86.5125	147.949	85.6806	147.949	86.4967	147.949	85.576	147.949	86.468	147.949	85.4708	147.949	86.4243	147.949	85.3681	147.949	86.3619	147.949	85.2722	147.949	86.2765	147.949	85.1887	147.949	86.1659	147.949	85.1243	147.949	86.0308	147.949	85.0855	147.949	85.8766	147.949	85.0782	147.949	85.7123	147.949	85.1062	147.949	85.5491	147.949	85.1706	147.949	85.3982	147.949	85.2695
153.809	86.175	153.809	86.072	153.809	86.2669	153.809	85.962	153.809	86.3443	153.809	85.8489	153.809	86.4048	153.809	85.7355	153.809	86.4469	153.809	85.6237	153.809	86.47	153.809	85.5134	153.809	86.4736	153.809	85.4031	153.809	86.4567	153.809	85.2906	153.809	86.4167	153.809	85.1741	153.809	86.3498	153.809	85.053	153.809	86.2509	153.809	84.9297	153.809	86.1161	153.809	84.8093	153.809	85.9442	153.809	84.7006	153.809	85.739	153.809	84.6141	153.809	85.5102	153.809	84.5616	153.809	85.2735	153.809	84.5536	153.809	85.0474	153.809	84.5979	153.809	84.8505	153.809	84.6977
159.668	85.812	159.668	85.7234	159.668	85.8967	159.668	85.6353	159.668	85.9729	159.668	85.5509	159.668	86.0367	159.668	85.4713	159.668	86.0859	159.668	85.3949	159.668	86.1191	159.668	85.3185	159.668	86.1357	159.668	85.2374	159.668	86.1343	159.668	85.1472	159.668	86.1119	159.668	85.0451	159.668	86.0633	159.668	84.9306	159.668	85.9821	159.668	84.807	159.668	85.8628	159.668	84.6811	159.668	85.7032	159.668	84.5628	159.668	85.507	159.668	84.4644	159.668	85.2847	159.668	84.3987	159.668	85.0531	159.668	84.3775	159.668	84.8325	159.668	84.4094	159.668	84.6423	159.668	84.4983
165.527	85.4709	165.527	85.3584	165.527	85.5612	165.527	85.229	165.527	85.6263	165.527	85.0899	165.527	85.6656	165.527	84.9491	165.527	85.6811	165.527	84.8139	165.527	85.6765	165.527	84.6893	165.527	85.6564	165.527	84.5767	165.527	85.6246	165.527	84.474	165.527	85.5825	165.527	84.3763	165.527	85.5283	165.527	84.2787	165.527	85.4567	165.527	84.1789	165.527	85.3613	165.527	84.0795	165.527	85.2366	165.527	83.9888	165.527	85.0808	165.527	83.92	165.527	84.8968	165.527	83.8882	165.527	84.6931	165.527	83.9063	165.527	84.4826	165.527	83.9807	165.527	84.282	165.527	84.1094
171.387	85.6765	171.387	85.5866	171.387	85.7577	171.387	85.4916	171.387	85.8242	171.387	85.3918	171.387	85.8689	171.387	85.2842	171.387	85.8853	171.387	85.1645	171.387	85.8687	171.387	85.0284	171.387	85.8165	171.387	84.8738	171.387	85.7279	171.387	84.7016	171.387	85.6029	171.387	84.5161	171.387	85.4417	171.387	84.3249	171.387	85.2454	171.387	84.1374	171.387	85.017	171.387	83.964	171.387	84.7642	171.387	83.8147	171.387	84.5007	171.387	83.6973	171.387	84.2454	171.387	83.6171	171.387	84.0184	171.387	83.5763	171.387	83.8347	171.387	83.5755	171.387	83.7009	171.387	83.6159
177.246	85.6066	177.246	85.4567	177.246	85.7467	177.246	85.307	177.246	85.8671	177.246	85.1657	177.246	85.9602	177.246	85.037	177.246	86.0208	177.246	84.9204	177.246	86.0465	177.246	84.8107	177.246	86.0365	177.246	84.6999	177.246	85.9904	177.246	84.5796	177.246	85.9068	177.246	84.4433	177.246	85.7829	177.246	84.2886	177.246	85.6148	177.246	84.1182	177.246	85.4001	177.246	83.9401	177.246	85.1403	177.246	83.7673	177.246	84.8436	177.246	83.6158	177.246	84.5266	177.246	83.5026	177.246	84.2129	177.246	83.444	177.246	83.9287	177.246	83.4526	177.246	83.6978	177.246	83.5367
183.105	85.6462	183.105	85.4871	183.105	85.7879	183.105	85.3208	183.105	85.904	183.105	85.1572	183.105	85.9888	183.105	85.0043	183.105	86.0404	183.105	84.866	183.105	86.0595	183.105	84.7424	183.105	86.0485	183.105	84.6296	183.105	86.0098	183.105	84.5222	183.105	85.9443	183.105	84.4148	183.105	85.8503	183.105	84.3045	183.105	85.7243	183.105	84.1922	183.105	85.563	183.105	84.0835	183.105	85.3661	183.105	83.9875	183.105	85.1388	183.105	83.9155	183.105	84.8928	183.105	83.8787	183.105	84.6446	183.105	83.8862	183.105	84.4119	183.105	83.9435	183.105	84.2107	183.105	84.0524
188.965	85.5862	188.965	85.4229	188.965	85.7303	188.965	85.2501	188.965	85.8463	188.965	85.0767	188.965	85.9282	188.965	84.9088	188.965	85.9729	188.965	84.7493	188.965	85.9805	188.965	84.5983	188.965	85.953	188.965	84.4538	188.965	85.8923	188.965	84.3143	188.965	85.7993	188.965	84.1791	188.965	85.673	188.965	84.05	188.965	85.5113	188.965	83.9311	188.965	85.3139	188.965	83.8283	188.965	85.0849	188.965	83.7485	188.965	84.8356	188.965	83.6979	188.965	84.5828	188.965	83.6811	188.965	84.3458	188.965	83.7	188.965	84.1397	188.965	83.7544	188.965	83.9724	188.965	83.8447
196.289	85.2235	196.289	85.0272	196.289	85.3929	196.289	84.8199	196.289	85.5245	196.289	84.6193	196.289	85.6129	196.289	84.4408	196.289	85.6583	196.289	84.2935	196.289	85.6648	196.289	84.1773	196.289	85.6388	196.289	84.0842	196.289	85.5861	196.289	84.0021	196.289	85.51	196.289	83.9199	196.289	85.4096	196.289	83.8319	196.289	85.2806	196.289	83.7391	196.289	85.1179	196.289	83.6491	196.289	84.9191	196.289	83.5725	196.289	84.6885	196.289	83.5194	196.289	84.4395	196.289	83.4968	196.289	84.1921	196.289	83.5086	196.289	83.9683	196.289	83.5577	196.289	83.7847	196.289	83.6482
203.613	85.4986	203.613	85.286	203.613	85.6611	203.613	85.0347	203.613	85.7677	203.613	84.7611	203.613	85.8177	203.613	84.4847	203.613	85.8151	203.613	84.2254	203.613	85.7672	203.613	83.9988	203.613	85.6836	203.613	83.8123	203.613	85.5739	203.613	83.6643	203.613	85.4455	203.613	83.5467	203.613	85.3013	203.613	83.4492	203.613	85.14	203.613	83.3648	203.613	84.9576	203.613	83.292	203.613	84.7507	203.613	83.235	203.613	84.5201	203.613	83.2008	203.613	84.2732	203.613	83.1969	203.613	84.0237	203.613	83.2292	203.613	83.7886	203.613	83.3026	203.613	83.5839	203.613	83.4206
210.938	85.494	210.938	85.3239	210.938	85.6174	210.938	85.1116	210.938	85.6913	210.938	84.8636	210.938	85.7143	210.938	84.589	210.938	85.6867	210.938	84.299	210.938	85.61	210.938	84.0064	210.938	85.487	210.938	83.724	210.938	85.3215	210.938	83.4618	210.938	85.1175	210.938	83.2261	210.938	84.8791	210.938	83.0198	210.938	84.6121	210.938	82.8445	210.938	84.3249	210.938	82.7032	210.938	84.0298	210.938	82.6006	210.938	83.7426	210.938	82.5421	210.938	83.4783	210.938	82.5309	210.938	83.247	210.938	82.5657	210.938	83.0507	210.938	82.6409	210.938	82.886	210.938	82.7493
218.262	85.3181	218.262	85.1477	218.262	85.465	218.262	84.9635	218.262	85.5795	218.262	84.7736	218.262	85.6542	218.262	84.5832	218.262	85.6849	218.262	84.3949	218.262	85.6698	218.262	84.2093	218.262	85.6091	218.262	84.0264	218.262	85.5039	218.262	83.8475	218.262	85.3548	218.262	83.6755	218.262	85.1618	218.262	83.5154	218.262	84.9258	218.262	83.3735	218.262	84.6516	218.262	83.2559	218.262	84.3513	218.262	83.1675	218.262	84.0459	218.262	83.1103	218.262	83.762	218.262	83.083	218.262	83.5245	218.262	83.0819	218.262	83.3461	218.262	83.1034	218.262	83.2248	218.262	83.1484
225.586	84.8596	225.586	84.6251	225.586	85.0566	225.586	84.3682	225.586	85.2065	225.586	84.1075	225.586	85.3054	225.586	83.862	225.586	85.3544	225.586	83.6472	225.586	85.3574	225.586	83.4715	225.586	85.3182	225.586	83.3349	225.586	85.2377	225.586	83.2299	225.586	85.1123	225.586	83.1455	225.586	84.935	225.586	83.072	225.586	84.699	225.586	83.0044	225.586	84.4043	225.586	82.9427	225.586	84.0633	225.586	82.8904	225.586	83.7055	225.586	82.8504	225.586	83.3728	225.586	82.8226	225.586	83.1063	225.586	82.8042	225.586	82.9284	225.586	82.794	225.586	82.8337	225.586	82.7979
232.91	85.1882	232.91	84.9613	232.91	85.3641	232.91	84.6917	232.91	85.4826	232.91	84.3879	232.91	85.5418	232.91	84.0573	232.91	85.5439	232.91	83.706	232.91	85.4955	232.91	83.3413	232.91	85.4049	232.91	82.9751	232.91	85.2799	232.91	82.6257	232.91	85.1246	232.91	82.3165	232.91	84.938	232.91	82.0703	232.91	84.7148	232.91	81.9021	232.91	84.4483	232.91	81.8146	232.91	84.1363	232.91	81.7986	232.91	83.7865	232.91	81.8383	232.91	83.4195	232.91	81.9167	232.91	83.0653	232.91	82.0213	232.91	82.7533	232.91	82.1478	232.91	82.4996	232.91	82.3025
241.699	84.714	241.699	84.4212	241.699	84.9307	241.699	84.0563	241.699	85.074	241.699	83.6326	241.699	85.1525	241.699	83.1743	241.699	85.1778	241.699	82.7158	241.699	85.1625	241.699	82.2967	241.699	85.1158	241.699	81.9513	241.699	85.0395	241.699	81.696	241.699	84.9254	241.699	81.526	241.699	84.7569	241.699	81.4229	241.699	84.5142	241.699	81.3672	241.699	84.1832	241.699	81.3474	241.699	83.7642	241.699	81.3577	241.699	83.2804	241.699	81.3926	241.699	82.78	241.699	81.4424	241.699	82.3276	241.699	81.4962	241.699	81.9786	241.699	81.5514	241.699	81.7519	241.699	81.6243
250.488	85.1285	250.488	84.898	250.488	85.2762	250.488	84.5965	250.488	85.3367	250.488	84.2411	250.488	85.3143	250.488	83.8504	250.488	85.222	250.488	83.4412	250.488	85.0805	250.488	83.0252	250.488	84.9144	250.488	82.6088	250.488	84.7466	250.488	82.1969	250.488	84.5896	250.488	81.7973	250.488	84.4413	250.488	81.4255	250.488	84.2844	250.488	81.1047	250.488	84.0936	250.488	80.8608	250.488	83.8443	250.488	80.7131	250.488	83.521	250.488	80.6665	250.488	83.122	250.488	80.7127	250.488	82.6647	250.488	80.8411	250.488	82.1853	250.488	81.05	250.488	81.7317	250.488	81.3465
259.277	85.2814	259.277	85.1887	259.277	85.3103	259.277	85.028	259.277	85.2791	259.277	84.7944	259.277	85.1933	259.277	84.4821	259.277	85.0625	259.277	84.0868	259.277	84.9015	259.277	83.6088	259.277	84.7284	259.277	83.0559	259.277	84.5608	259.277	82.4464	259.277	84.4071	259.277	81.8098	259.277	84.2617	259.277	81.1859	259.277	84.1059	259.277	80.6232	259.277	83.9157	259.277	80.1751	259.277	83.6725	259.277	79.8919	259.277	83.3688	259.277	79.808	259.277	83.007	259.277	79.9284	259.277	82.5942	259.277	80.2253	259.277	82.1373	259.277	80.6476	259.277	81.6456	259.277	81.1376
268.066	84.8308	268.066	84.6466	268.066	84.9765	268.066	84.4496	268.066	85.0614	268.066	84.2612	268.066	85.072	268.066	84.0901	268.066	85.0054	268.066	83.9274	268.066	84.8694	268.066	83.7514	268.066	84.6813	268.066	83.5375	268.066	84.4641	268.066	83.2696	268.066	84.2401	268.066	82.9477	268.066	84.0226	268.066	82.5915	268.066	83.8091	268.066	82.2369	268.066	83.5835	268.066	81.928	268.066	83.3292	268.066	81.7045	268.066	83.0442	268.066	81.589	268.066	82.7493	268.066	81.5798	268.066	82.4776	268.066	81.653	268.066	82.2523	268.066	81.7745	268.066	82.0716	268.066	81.9167
276.855	84.4145	276.855	84.174	276.855	84.5735	276.855	83.8588	276.855	84.6512	276.855	83.4832	276.855	84.653	276.855	83.0702	276.855	84.588	276.855	82.6488	276.855	84.4676	276.855	82.2478	276.855	84.3021	276.855	81.885	276.855	84.0989	276.855	81.5602	276.855	83.8615	276.855	81.257	276.855	83.5908	276.855	80.9556	276.855	83.2881	276.855	80.6491	276.855	82.9565	276.855	80.353	276.855	82.5996	276.855	80.1022	276.855	82.2202	276.855	79.9356	276.855	81.8211	276.855	79.8774	276.855	81.4103	276.855	79.9299	276.855	81.0062	276.855	80.0819	276.855	80.6347	276.855	80.3208
287.109	84.3333	287.109	84.0701	287.109	84.4948	287.109	83.7454	287.109	84.5285	287.109	83.4063	287.109	84.4259	287.109	83.0936	287.109	84.1984	287.109	82.8273	287.109	83.8802	287.109	82.598	287.109	83.526	287.109	82.3735	287.109	83.2007	287.109	82.1154	287.109	82.9548	287.109	81.7947	287.109	82.7977	287.109	81.4011	287.109	82.6912	287.109	80.9444	287.109	82.5701	287.109	80.4524	287.109	82.3709	287.109	79.9673	287.109	82.0531	287.109	79.543	287.109	81.6082	287.109	79.239	287.109	81.0623	287.109	79.109	287.109	80.4723	287.109	79.1845	287.109	79.914	287.109	79.4644
297.363	86.8248	297.363	86.6003	297.363	86.9308	297.363	86.2581	297.363	86.9174	297.363	85.8014	297.363	86.7845	297.363	85.2408	297.363	86.5349	297.363	84.6044	297.363	86.177	297.363	83.9477	297.363	85.7285	297.363	83.3542	297.363	85.2182	297.363	82.9121	297.363	84.6865	297.363	82.6694	297.363	84.1809	297.363	82.6074	297.363	83.7493	297.363	82.6613	297.363	83.4311	297.363	82.7654	297.363	83.2472	297.363	82.8792	297.363	83.1906	297.363	82.9874	297.363	83.2244	297.363	83.0886	297.363	83.2945	297.363	83.1839	297.363	83.3515	297.363	83.2699	297.363	83.3669	297.363	83.3359
307.617	86.1312	307.617	85.874	307.617	86.3156	307.617	85.5749	307.617	86.4033	307.617	85.2639	307.617	86.3804	307.617	84.9592	307.617	86.2438	307.617	84.6603	307.617	86.0012	307.617	84.3514	307.617	85.671	307.617	84.0167	307.617	85.2832	307.617	83.6586	307.617	84.878	307.617	83.3095	307.617	84.4994	307.617	83.0282	307.617	84.1852	307.617	82.8757	307.617	83.9569	307.617	82.8816	307.617	83.8201	307.617	83.028	307.617	83.7709	307.617	83.2627	307.617	83.799	307.617	83.5253	307.617	83.882	307.617	83.7649	307.617	83.9801	307.617	83.9439	307.617	84.0454	307.617	84.0391
319.336	85.5645	319.336	85.337	319.336	85.7107	319.336	85.0306	319.336	85.7734	319.336	84.6491	319.336	85.7506	319.336	84.2004	319.336	85.6417	319.336	83.6993	319.336	85.45	319.336	83.1691	319.336	85.184	319.336	82.6421	319.336	84.8573	319.336	82.1578	319.336	84.4871	319.336	81.7576	319.336	84.0928	319.336	81.4797	319.336	83.6965	319.336	81.3506	319.336	83.3255	319.336	81.3763	319.336	83.013	319.336	81.5363	319.336	82.7916	319.336	81.7871	319.336	82.6793	319.336	82.074	319.336	82.6632	319.336	82.344	319.336	82.6974	319.336	82.5549	319.336	82.7205	319.336	82.6814
329.59	85.8565	329.59	85.5948	329.59	86.021	329.59	85.2506	329.59	86.0795	329.59	84.8437	329.59	86.0289	329.59	84.3949	329.59	85.8705	329.59	83.9229	329.59	85.6087	329.59	83.4409	329.59	85.2511	329.59	82.9582	329.59	84.8092	329.59	82.4849	329.59	84.2999	329.59	82.0394	329.59	83.7479	329.59	81.6539	329.59	83.1912	329.59	81.3727	329.59	82.6883	329.59	81.2392	329.59	82.3168	329.59	81.2725	329.59	82.1447	329.59	81.453	329.59	82.1774	329.59	81.7288	329.59	82.3346	329.59	82.0355	329.59	82.4956	329.59	82.3105	329.59	82.5642	329.59	82.4998
341.309	85.5073	341.309	85.2625	341.309	85.6928	341.309	84.9723	341.309	85.8034	341.309	84.6444	341.309	85.8279	341.309	84.2796	341.309	85.7638	341.309	83.8746	341.309	85.619	341.309	83.4294	341.309	85.4086	341.309	82.9536	341.309	85.1486	341.309	82.4717	341.309	84.8485	341.309	82.0218	341.309	84.5067	341.309	81.6478	341.309	84.115	341.309	81.3893	341.309	83.6703	341.309	81.2714	341.309	83.1938	341.309	81.2983	341.309	82.7448	341.309	81.4501	341.309	82.4096	341.309	81.6826	341.309	82.2472	341.309	81.934	341.309	82.2325	341.309	82.14	341.309	82.2679	341.309	82.2537
353.027	85.8355	353.027	85.5486	353.027	85.9935	353.027	85.1398	353.027	86.0202	353.027	84.621	353.027	85.9182	353.027	84.0102	353.027	85.6952	353.027	83.3351	353.027	85.3644	353.027	82.6357	353.027	84.945	353.027	81.9625	353.027	84.4621	353.027	81.366	353.027	83.9466	353.027	80.8856	353.027	83.432	353.027	80.5467	353.027	82.9513	353.027	80.3668	353.027	82.5334	353.027	80.3553	353.027	82.1994	353.027	80.5018	353.027	81.9595	353.027	80.7646	353.027	81.814	353.027	81.0776	353.027	81.7519	353.027	81.3703	353.027	81.7461	353.027	81.5895	353.027	81.7507	353.027	81.7123
366.211	85.5782	366.211	85.3316	366.211	85.7438	366.211	85.0381	366.211	85.8083	366.211	84.7329	366.211	85.7662	366.211	84.4308	366.211	85.6225	366.211	84.1099	366.211	85.388	366.211	83.7192	366.211	85.0765	366.211	83.2094	366.211	84.7048	366.211	82.5678	366.211	84.2935	366.211	81.8433	366.211	83.8677	366.211	81.152	366.211	83.4524	366.211	80.6435	366.211	83.064	366.211	80.4225	366.211	82.7065	366.211	80.4859	366.211	82.383	366.211	80.7429	366.211	82.1146	366.211	81.0809	366.211	81.9369	366.211	81.4059	366.211	81.861	366.211	81.6529	366.211	81.8401	366.211	81.7922
379.395	85.3501	379.395	85.2141	379.395	85.3986	379.395	84.9761	379.395	85.3717	379.395	84.6213	379.395	85.279	379.395	84.1416	379.395	85.131	379.395	83.5444	379.395	84.9397	379.395	82.8608	379.395	84.7155	379.395	82.1474	379.395	84.4598	379.395	81.4758	379.395	84.158	379.395	80.9101	379.395	83.7805	379.395	80.4898	379.395	83.2943	379.395	80.2323	379.395	82.6857	379.395	80.1458	379.395	81.997	379.395	80.2279	379.395	81.3625	379.395	80.4501	379.395	80.9793	379.395	80.7532	379.395	80.9446	379.395	81.0611	379.395	81.136	379.395	81.2981	379.395	81.3355	379.395	81.4007
392.578	85.0377	392.578	84.852	392.578	85.1139	392.578	84.5814	392.578	85.0735	392.578	84.2698	392.578	84.9198	392.578	83.9652	392.578	84.661	392.578	83.6881	392.578	84.3102	392.578	83.4085	392.578	83.8883	392.578	83.0592	392.578	83.4287	392.578	82.5778	392.578	82.9797	392.578	81.9504	392.578	82.6012	392.578	81.2399	392.578	82.3497	392.578	80.5904	392.578	82.2464	392.578	80.1778	392.578	82.2456	392.578	80.1	392.578	82.2473	392.578	80.3044	392.578	82.1611	392.578	80.6436	392.578	81.97	392.578	80.9769	392.578	81.7381	392.578	81.2271	392.578	81.5436	392.578	81.3949
405.762	84.4965	405.762	84.2239	405.762	84.6824	405.762	83.8741	405.762	84.7729	405.762	83.4567	405.762	84.7672	405.762	82.9889	405.762	84.675	405.762	82.5072	405.762	84.5141	405.762	82.0628	405.762	84.3019	405.762	81.6907	405.762	84.0441	405.762	81.376	405.762	83.7277	405.762	81.0655	405.762	83.3236	405.762	80.7266	405.762	82.8039	405.762	80.403	405.762	82.1769	405.762	80.2173	405.762	81.5393	405.762	80.2909	405.762	81.107	405.762	80.6354	405.762	81.094	405.762	81.1402	405.762	81.4618	405.762	81.658	405.762	81.9291	405.762	82.0684	405.762	82.2383	405.762	82.2822
420.41	85.0459	420.41	84.8328	420.41	85.1934	420.41	84.5769	420.41	85.2489	420.41	84.2813	420.41	85.1949	420.41	83.9208	420.41	85.0283	420.41	83.4526	420.41	84.7602	420.41	82.8427	420.41	84.4121	420.41	82.0959	420.41	84.0062	420.41	81.2742	420.41	83.5521	420.41	80.4898	420.41	83.0359	420.41	79.8618	420.41	82.4293	420.41	79.4619	420.41	81.7312	420.41	79.3023	420.41	81.0354	420.41	79.3644	420.41	80.5587	420.41	79.6156	420.41	80.4912	420.41	80.0012	420.41	80.755	420.41	80.4427	420.41	81.0704	420.41	80.8502	420.41	81.2193	420.41	81.1345
435.059	84.7918	435.059	84.6007	435.059	84.8467	435.059	84.2988	435.059	84.7668	435.059	83.9383	435.059	84.5689	435.059	83.5774	435.059	84.2746	435.059	83.2432	435.059	83.9055	435.059	82.908	435.059	83.4843	435.059	82.5105	435.059	83.0387	435.059	82.0028	435.059	82.6007	435.059	81.3899	435.059	82.2019	435.059	80.7474	435.059	81.8713	435.059	80.2103	435.059	81.6304	435.059	79.9198	435.059	81.4697	435.059	79.9376	435.059	81.3326	435.059	80.2014	435.059	81.1594	435.059	80.5667	435.059	80.9696	435.059	80.8817	435.059	80.8675	435.059	81.0414	435.059	80.9147	435.059	81.0239
451.172	84.3173	451.172	84.1369	451.172	84.3616	451.172	83.8212	451.172	84.2795	451.172	83.3891	451.172	84.0901	451.172	82.884	451.172	83.8252	451.172	82.3634	451.172	83.5301	451.172	81.8658	451.172	83.2477	451.172	81.3802	451.172	82.9897	451.172	80.8532	451.172	82.7171	451.172	80.241	451.172	82.3568	451.172	79.5701	451.172	81.8427	451.172	78.9779	451.172	81.1569	451.172	78.6826	451.172	80.3694	451.172	78.8296	451.172	79.6892	451.172	79.3453	451.172	79.4341	451.172	80.008	451.172	79.7413	451.172	80.6087	451.172	80.3481	451.172	81.0059	451.172	80.875	451.172	81.1092
465.82	84.2798	465.82	83.91	465.82	84.5296	465.82	83.4847	465.82	84.6175	465.82	83.0775	465.82	84.5265	465.82	82.7401	465.82	84.2663	465.82	82.466	465.82	83.8765	465.82	82.1847	465.82	83.4271	465.82	81.801	465.82	83.0044	465.82	81.2505	465.82	82.6656	465.82	80.5396	465.82	82.3865	465.82	79.7637	465.82	82.0559	465.82	79.1016	465.82	81.5438	465.82	78.7575	465.82	80.8141	465.82	78.8412	465.82	80.0547	465.82	79.2782	465.82	79.6784	465.82	79.8677	465.82	79.8986	465.82	80.4143	465.82	80.4081	465.82	80.7939	465.82	80.8096	465.82	80.9396
483.398	85.0024	483.398	84.6828	483.398	85.1268	483.398	84.2154	483.398	85.0347	483.398	83.6603	483.398	84.7304	483.398	83.0641	483.398	84.2397	483.398	82.4438	483.398	83.6104	483.398	81.7998	483.398	82.9214	483.398	81.1398	483.398	82.2866	483.398	80.4754	483.398	81.8207	483.398	79.7966	483.398	81.5612	483.398	79.0778	483.398	81.4206	483.398	78.3426	483.398	81.2323	483.398	77.7418	483.398	80.831	483.398	77.5196	483.398	80.1342	483.398	77.7907	483.398	79.2735	483.398	78.3909	483.398	78.7025	483.398	79.033	483.398	78.8003	483.398	79.4776	483.398	79.2661	483.398	79.5669
499.512	84.1686	499.512	83.8867	499.512	84.2744	499.512	83.4442	499.512	84.2203	499.512	82.904	499.512	84.0342	499.512	82.3717	499.512	83.7392	499.512	81.953	499.512	83.3481	499.512	81.683	499.512	82.8726	499.512	81.4947	499.512	82.34	499.512	81.2679	499.512	81.8026	499.512	80.9015	499.512	81.3152	499.512	80.3573	499.512	80.8873	499.512	79.6822	499.512	80.466	499.512	79.0274	499.512	80	499.512	78.6222	499.512	79.5377	499.512	78.6286	499.512	79.2474	499.512	78.9782	499.512	79.2668	499.512	79.4361	499.512	79.5241	499.512	79.7868	499.512	79.801	499.512	79.9147
517.09	85.138	517.09	84.8525	517.09	85.2149	517.09	84.3598	517.09	85.0969	517.09	83.6931	517.09	84.7957	517.09	82.9179	517.09	84.3147	517.09	82.1155	517.09	83.6593	517.09	81.3691	517.09	82.8629	517.09	80.7609	517.09	82.029	517.09	80.3488	517.09	81.3616	517.09	80.1047	517.09	81.0807	517.09	79.9039	517.09	81.1943	517.09	79.6214	517.09	81.4406	517.09	79.2398	517.09	81.521	517.09	78.8852	517.09	81.2921	517.09	78.7585	517.09	80.8166	517.09	78.9702	517.09	80.342	517.09	79.4158	517.09	80.1198	517.09	79.8557	517.09	80.1239	517.09	80.0981
536.133	85.1247	536.133	84.796	536.133	85.3096	536.133	84.331	536.133	85.3264	536.133	83.7134	536.133	85.1534	536.133	82.9313	536.133	84.7837	536.133	82.0325	536.133	84.2235	536.133	81.1621	536.133	83.4868	536.133	80.5078	536.133	82.5968	536.133	80.1497	536.133	81.6074	536.133	80.0046	536.133	80.652	536.133	79.9485	536.133	79.9863	536.133	79.9248	536.133	79.8622	536.133	79.9408	536.133	80.2118	536.133	80.0259	536.133	80.6629	536.133	80.1981	536.133	80.92	536.133	80.4398	536.133	80.9518	536.133	80.6898	536.133	80.9081	536.133	80.8692	536.133	80.9123	536.133	80.9318
555.176	85.1507	555.176	84.8846	555.176	85.1445	555.176	84.3642	555.176	84.905	555.176	83.667	555.176	84.5109	555.176	82.907	555.176	84.0524	555.176	82.182	555.176	83.5975	555.176	81.5283	555.176	83.1618	555.176	80.9273	555.176	82.6981	555.176	80.3501	555.176	82.1146	555.176	79.7904	555.176	81.3214	555.176	79.2811	555.176	80.3108	555.176	78.901	555.176	79.2935	555.176	78.7577	555.176	78.7691	555.176	78.9349	555.176	79.0641	555.176	79.4261	555.176	79.8291	555.176	80.1112	555.176	80.5786	555.176	80.8004	555.176	81.1303	555.176	81.3122	555.176	81.4615	555.176	81.5375
574.219	85.4313	574.219	85.2135	574.219	85.4104	574.219	84.7257	574.219	85.1982	574.219	83.9956	574.219	84.8227	574.219	83.1194	574.219	84.2843	574.219	82.1911	574.219	83.5787	574.219	81.1902	574.219	82.7346	574.219	79.9922	574.219	81.8513	574.219	78.568	574.219	81.1046	574.219	77.2399	574.219	80.6558	574.219	76.6246	574.219	80.4855	574.219	76.8593	574.219	80.3745	574.219	77.4414	574.219	80.0915	574.219	78.0213	574.219	79.5852	574.219	78.5799	574.219	79.0972	574.219	79.1747	574.219	79.0428	574.219	79.7606	574.219	79.4925	574.219	80.1903	574.219	80.0384	574.219	80.3076
594.727	84.3586	594.727	84.188	594.727	84.4204	594.727	83.8918	594.727	84.3621	594.727	83.4275	594.727	84.1686	594.727	82.7693	594.727	83.8354	594.727	81.9603	594.727	83.3592	594.727	81.1158	594.727	82.719	594.727	80.3336	594.727	81.8705	594.727	79.5983	594.727	80.7706	594.727	78.8416	594.727	79.4675	594.727	78.1141	594.727	78.289	594.727	77.6487	594.727	77.8558	594.727	77.6597	594.727	78.3284	594.727	78.0884	594.727	79.1185	594.727	78.7005	594.727	79.7602	594.727	79.3132	594.727	80.1696	594.727	79.8347	594.727	80.4025	594.727	80.2171	594.727	80.4935	594.727	80.4367
615.234	85.2492	615.234	84.9445	615.234	85.2918	615.234	84.4071	615.234	85.0873	615.234	83.6956	615.234	84.6837	615.234	82.8611	615.234	84.1378	615.234	81.9213	615.234	83.4963	615.234	80.8735	615.234	82.7848	615.234	79.734	615.234	81.9902	615.234	78.566	615.234	81.0407	615.234	77.4866	615.234	79.8335	615.234	76.6707	615.234	78.3799	615.234	76.3206	615.234	77.1061	615.234	76.5532	615.234	76.8458	615.234	77.3023	615.234	77.7162	615.234	78.3658	615.234	78.9776	615.234	79.5051	615.234	80.1258	615.234	80.5059	615.234	80.9781	615.234	81.2127	615.234	81.4606	615.234	81.5406
637.207	84.179	637.207	84.1387	637.207	84.0726	637.207	83.9178	637.207	83.8484	637.207	83.4819	637.207	83.5373	637.207	82.811	637.207	83.1866	637.207	81.9288	637.207	82.8533	637.207	80.9208	637.207	82.5569	637.207	79.8921	637.207	82.2265	637.207	78.8851	637.207	81.6923	637.207	77.9163	637.207	80.7304	637.207	77.1389	637.207	79.1545	637.207	76.8034	637.207	77.1061	637.207	76.9143	637.207	75.8011	637.207	77.2192	637.207	76.4692	637.207	77.5722	637.207	77.7874	637.207	78.0127	637.207	78.689	637.207	78.5605	637.207	79.176	637.207	79.0854	637.207	79.4147	637.207	79.3991
659.18	83.3019	659.18	83.0504	659.18	83.3379	659.18	82.6399	659.18	83.1548	659.18	82.2197	659.18	82.7826	659.18	81.9661	659.18	82.3034	659.18	81.8507	659.18	81.8657	659.18	81.5749	659.18	81.6267	659.18	80.8078	659.18	81.5917	659.18	79.3876	659.18	81.5145	659.18	77.4943	659.18	81.0027	659.18	76.0583	659.18	79.666	659.18	76.2707	659.18	77.2785	659.18	77.5353	659.18	74.8181	659.18	78.742	659.18	75.5978	659.18	79.5914	659.18	78.134	659.18	80.179	659.18	79.9877	659.18	80.6567	659.18	81.0125	659.18	81.0839	659.18	81.4196	659.18	81.3884
682.617	84.9877	682.617	84.3505	682.617	85.1628	682.617	83.3733	682.617	84.8045	682.617	82.2776	682.617	83.8934	682.617	81.3929	682.617	82.5117	682.617	80.9013	682.617	80.9774	682.617	80.5512	682.617	80.05	682.617	79.882	682.617	80.3911	682.617	78.5442	682.617	81.3804	682.617	76.3863	682.617	81.9402	682.617	73.8889	682.617	81.3812	682.617	73.5259	682.617	79.0789	682.617	76.0644	682.617	74.0419	682.617	78.8325	682.617	71.9186	682.617	80.9569	682.617	77.7262	682.617	82.4585	682.617	81.1058	682.617	83.469	682.617	82.9308	682.617	84.0679	682.617	83.8934	682.617	84.2367
707.52	86.2009	707.52	85.9268	707.52	86.1626	707.52	85.2961	707.52	85.8991	707.52	84.3772	707.52	85.4262	707.52	83.3762	707.52	84.6314	707.52	82.6125	707.52	83.3535	707.52	82.2962	707.52	81.5914	707.52	82.1908	707.52	79.9647	707.52	81.737	707.52	79.7988	707.52	80.3937	707.52	80.8617	707.52	77.6225	707.52	81.5817	707.52	72.7079	707.52	81.0366	707.52	69.777	707.52	78.4614	707.52	75.0324	707.52	72.0134	707.52	78.8602	707.52	70.9869	707.52	81.2402	707.52	78.1097	707.52	82.7059	707.52	81.3282	707.52	83.4383	707.52	82.8558	707.52	83.4895
732.422	86.4397	732.422	86.0394	732.422	86.4723	732.422	85.2931	732.422	86.1388	732.422	84.2386	732.422	85.473	732.422	83.0248	732.422	84.4965	732.422	82.0845	732.422	83.1535	732.422	81.8796	732.422	81.3313	732.422	82.1414	732.422	79.2149	732.422	82.1399	732.422	78.2221	732.422	81.3653	732.422	79.4188	732.422	79.5246	732.422	80.8765	732.422	76.5333	732.422	81.2118	732.422	74.1988	732.422	79.9535	732.422	76.2657	732.422	76.8231	732.422	79.3037	732.422	74.3438	732.422	81.4381	732.422	77.7443	732.422	82.7818	732.422	81.0111	732.422	83.4817	732.422	82.7977	732.422	83.5297
757.324	88.3058	757.324	88.0687	757.324	88.154	757.324	87.3268	757.324	87.7013	757.324	85.9952	757.324	86.9776	757.324	84.1358	757.324	85.9593	757.324	82.2253	757.324	84.5812	757.324	81.2196	757.324	82.7446	757.324	81.3293	757.324	80.466	757.324	81.6181	757.324	78.5849	757.324	81.3189	757.324	78.6968	757.324	80.0508	757.324	79.7411	757.324	77.6304	757.324	79.7898	757.324	74.9507	757.324	77.8981	757.324	76.2431	757.324	72.8491	757.324	79.9217	757.324	71.414	757.324	82.7093	757.324	78.5099	757.324	84.3901	757.324	82.3754	757.324	85.166	757.324	84.3434	757.324	85.167
785.156	87.2043	785.156	87.095	785.156	87.0188	785.156	86.6381	785.156	86.6075	785.156	85.8204	785.156	86.0165	785.156	84.6492	785.156	85.2397	785.156	83.1894	785.156	84.1896	785.156	81.8568	785.156	82.6749	785.156	81.3988	785.156	80.5092	785.156	81.5758	785.156	78.2198	785.156	81.2808	785.156	78.0144	785.156	79.7676	785.156	79.579	785.156	76.4677	785.156	80.4869	785.156	70.9169	785.156	79.8684	785.156	72.0832	785.156	76.8653	785.156	77.6589	785.156	66.735	785.156	81.1276	785.156	72.3699	785.156	83.1808	785.156	79.9434	785.156	84.1776	785.156	83.0151	785.156	84.1898
811.523	87.9344	811.523	88.0756	811.523	87.5184	811.523	87.7143	811.523	87.0653	811.523	86.6646	811.523	86.7222	811.523	84.8153	811.523	86.4266	811.523	82.3637	811.523	85.8971	811.523	80.5559	811.523	84.7105	811.523	80.8222	811.523	82.292	811.523	81.8272	811.523	77.8203	811.523	82.1211	811.523	74.617	811.523	81.2177	811.523	79.1446	811.523	78.698	811.523	81.6644	811.523	73.2159	811.523	81.3783	811.523	66.322	811.523	77.7878	811.523	76.4397	811.523	63.844	811.523	81.4721	811.523	74.3085	811.523	84.1948	811.523	81.1081	811.523	85.4801	811.523	84.1892	811.523	85.5092
840.82	87.1888	840.82	87.9517	840.82	86.167	840.82	88.254	840.82	85.2059	840.82	87.9304	840.82	84.6874	840.82	86.7792	840.82	84.7842	840.82	84.5969	840.82	85.2291	840.82	81.5787	840.82	85.4806	840.82	79.872	840.82	84.9464	840.82	81.1557	840.82	82.8764	840.82	82.639	840.82	77.6101	840.82	83.0366	840.82	70.4488	840.82	82.095	840.82	79.678	840.82	79.333	840.82	83.1331	840.82	72.7209	840.82	83.372	840.82	66.8497	840.82	80.7516	840.82	77.9941	840.82	75.3262	840.82	82.4205	840.82	78.4425	840.82	84.4538	840.82	82.9716	840.82	84.7067
870.117	87.147	870.117	87.4668	870.117	86.5747	870.117	87.5741	870.117	85.6703	870.117	87.352	870.117	84.5141	870.117	86.5887	870.117	83.4915	870.117	85.1101	870.117	83.1311	870.117	82.8529	870.117	83.4773	870.117	80.1055	870.117	83.9148	870.117	78.5492	870.117	83.6601	870.117	79.6288	870.117	81.8676	870.117	81.0955	870.117	77.0548	870.117	81.5439	870.117	71.5089	870.117	80.7272	870.117	78.6994	870.117	78.3992	870.117	81.721	870.117	73.6131	870.117	81.7819	870.117	65.671	870.117	79.2187	870.117	72.4593	870.117	72.2161	870.117	76.242	870.117	69.766	870.117	75.8433
900.879	87.5702	900.879	87.7715	900.879	87.0222	900.879	87.5353	900.879	86.1787	900.879	86.8666	900.879	85.0739	900.879	85.8826	900.879	83.8621	900.879	84.6021	900.879	82.8077	900.879	82.8192	900.879	82.2122	900.879	80.3985	900.879	82.3288	900.879	77.9691	900.879	82.8448	900.879	77.137	900.879	82.8038	900.879	77.8484	900.879	81.1456	900.879	78.6755	900.879	76.5281	900.879	79.019	900.879	73.5855	900.879	78.7195	900.879	78.9491	900.879	77.783	900.879	80.6374	900.879	76.5404	900.879	79.3776	900.879	75.6469	900.879	76.3775	900.879	75.0602	900.879	73.7613	900.879	73.9942
933.105	87.3643	933.105	87.4698	933.105	86.7824	933.105	87.1411	933.105	85.8264	933.105	86.4399	933.105	84.7992	933.105	85.3943	933.105	83.9381	933.105	84.0298	933.105	83.0929	933.105	82.4912	933.105	81.905	933.105	81.0702	933.105	80.2374	933.105	79.7844	933.105	78.7571	933.105	78.215	933.105	78.6687	933.105	76.3797	933.105	79.1962	933.105	75.5424	933.105	78.6898	933.105	76.1827	933.105	76.5781	933.105	76.8291	933.105	75.3405	933.105	76.9441	933.105	77.0983	933.105	77.1752	933.105	77.6972	933.105	77.9679	933.105	76.8744	933.105	78.5397	933.105	76.9672	933.105	78.1054
965.332	86.7737	965.332	87.0364	965.332	86.2597	965.332	86.8548	965.332	85.4997	965.332	86.0465	965.332	84.5066	965.332	84.7531	965.332	83.5222	965.332	83.2857	965.332	82.7925	965.332	81.4538	965.332	82.1383	965.332	79.0796	965.332	81.084	965.332	77.8601	965.332	79.5208	965.332	78.4954	965.332	78.2953	965.332	78.6878	965.332	78.1675	965.332	77.9716	965.332	78.0089	965.332	77.2631	965.332	76.3246	965.332	77.0576	965.332	73.4156	965.332	76.9057	965.332	74.9904	965.332	76.9712	965.332	77.1393	965.332	77.6417	965.332	77.0045	965.332	78.2588	965.332	76.9073	965.332	77.9306
1000.49	86.4243	1000.49	86.7948	1000.49	85.6578	1000.49	86.7429	1000.49	84.7963	1000.49	86.2405	1000.49	84.1224	1000.49	85.0573	1000.49	83.5168	1000.49	83.076	1000.49	82.8146	1000.49	80.8017	1000.49	82.025	1000.49	79.1411	1000.49	81.0984	1000.49	78.0566	1000.49	79.9715	1000.49	77.1364	1000.49	78.9322	1000.49	76.5614	1000.49	78.1722	1000.49	76.5512	1000.49	76.965	1000.49	77.058	1000.49	74.7616	1000.49	77.8808	1000.49	72.7802	1000.49	78.6377	1000.49	73.5343	1000.49	78.9747	1000.49	75.8393	1000.49	78.9225	1000.49	77.1823	1000.49	78.6575	1000.49	77.5952	1000.49	78.1223
1035.64	86.6003	1035.64	86.9156	1035.64	85.8267	1035.64	86.9368	1035.64	84.5252	1035.64	86.6363	1035.64	83.0703	1035.64	85.6892	1035.64	82.1962	1035.64	83.6808	1035.64	82.1554	1035.64	80.7025	1035.64	82.1958	1035.64	77.9654	1035.64	81.3272	1035.64	75.6791	1035.64	79.1704	1035.64	71.6105	1035.64	77.6486	1035.64	65.9613	1035.64	79.1811	1035.64	70.2294	1035.64	80.1855	1035.64	74.2692	1035.64	79.0351	1035.64	76.5282	1035.64	75.1213	1035.64	78.032	1035.64	66.3089	1035.64	79.3674	1035.64	74.9912	1035.64	80.539	1035.64	79.3391	1035.64	81.171	1035.64	80.574	1035.64	81.0686
1072.27	86.4458	1072.27	86.623	1072.27	85.9725	1072.27	86.5341	1072.27	85.1041	1072.27	86.1297	1072.27	83.8604	1072.27	85.3699	1072.27	82.5955	1072.27	84.2099	1072.27	81.935	1072.27	82.3289	1072.27	82.0189	1072.27	79.2896	1072.27	81.9938	1072.27	76.4406	1072.27	80.7992	1072.27	76.6139	1072.27	77.4442	1072.27	76.6812	1072.27	73.7593	1072.27	74.2982	1072.27	77.2174	1072.27	68.1383	1072.27	78.8828	1072.27	70.0249	1072.27	77.3776	1072.27	75.604	1072.27	74.0345	1072.27	78.3047	1072.27	68.956	1072.27	79.6619	1072.27	73.4904	1072.27	80.1657	1072.27	78.2384	1072.27	79.8692
1108.89	86.9699	1108.89	86.8392	1108.89	86.401	1108.89	86.1073	1108.89	85.2654	1108.89	84.9855	1108.89	83.8955	1108.89	83.9368	1108.89	82.3919	1108.89	83.0546	1108.89	81.0525	1108.89	81.7054	1108.89	80.5395	1108.89	79.6678	1108.89	80.5093	1108.89	77.7208	1108.89	79.9308	1108.89	76.7689	1108.89	78.1511	1108.89	76.3038	1108.89	75.3128	1108.89	75.2719	1108.89	75.0505	1108.89	73.6598	1108.89	77.1065	1108.89	72.803	1108.89	76.4849	1108.89	73.5365	1108.89	72.5218	1108.89	75.6783	1108.89	72.0483	1108.89	78.0021	1108.89	73.7416	1108.89	79.2398	1108.89	76.2488	1108.89	78.7333
1148.44	86.2422	1148.44	86.2774	1148.44	85.7125	1148.44	85.7044	1148.44	84.7072	1148.44	84.6186	1148.44	83.2247	1148.44	83.2637	1148.44	81.625	1148.44	81.8618	1148.44	80.4677	1148.44	80.5674	1148.44	80.1092	1148.44	79.1221	1148.44	79.9778	1148.44	77.4686	1148.44	79.0996	1148.44	76.3518	1148.44	77.3252	1148.44	75.5388	1148.44	75.615	1148.44	74.3384	1148.44	74.8981	1148.44	73.5456	1148.44	74.8269	1148.44	73.4668	1148.44	74.7008	1148.44	73.4276	1148.44	73.1872	1148.44	74.4262	1148.44	72.6248	1148.44	76.4025	1148.44	74.4209	1148.44	77.554	1148.44	75.4688	1148.44	76.9772
1189.45	86.8266	1189.45	87.0022	1189.45	86.1192	1189.45	86.4124	1189.45	85.3476	1189.45	85.1631	1189.45	84.5696	1189.45	83.5546	1189.45	83.2134	1189.45	81.6577	1189.45	81.1858	1189.45	79.7592	1189.45	79.9441	1189.45	78.8405	1189.45	80.4121	1189.45	78.3241	1189.45	80.1846	1189.45	77.2603	1189.45	77.0413	1189.45	75.3496	1189.45	69.8722	1189.45	71.4996	1189.45	75.1868	1189.45	69.5131	1189.45	78.3602	1189.45	74.4277	1189.45	77.3011	1189.45	77.0171	1189.45	71.1053	1189.45	77.6523	1189.45	70.2351	1189.45	78.0995	1189.45	76.2805	1189.45	78.8514	1189.45	78.1074	1189.45	78.8623
1230.47	86.8453	1230.47	86.9259	1230.47	86.464	1230.47	86.7319	1230.47	85.9273	1230.47	86.0506	1230.47	85.524	1230.47	84.7175	1230.47	84.8188	1230.47	82.6407	1230.47	83.1103	1230.47	79.5449	1230.47	80.6843	1230.47	76.4847	1230.47	80.1572	1230.47	76.923	1230.47	81.5016	1230.47	78.1478	1230.47	81.2293	1230.47	77.8818	1230.47	77.014	1230.47	75.5147	1230.47	62.5467	1230.47	69.6612	1230.47	75.5092	1230.47	71.2221	1230.47	76.576	1230.47	76.2953	1230.47	71.725	1230.47	78.3923	1230.47	67.0709	1230.47	79.242	1230.47	75.3832	1230.47	79.3919	1230.47	78.3181	1230.47	79.0254
1274.41	86.506	1274.41	86.802	1274.41	85.9711	1274.41	86.4911	1274.41	85.5091	1274.41	85.5453	1274.41	84.9885	1274.41	84.2699	1274.41	84.3222	1274.41	82.9853	1274.41	83.3778	1274.41	80.9551	1274.41	81.6995	1274.41	76.6341	1274.41	79.3126	1274.41	72.1448	1274.41	78.1354	1274.41	75.0704	1274.41	78.6239	1274.41	76.1962	1274.41	77.7539	1274.41	74.1704	1274.41	73.5748	1274.41	68.0989	1274.41	72.6954	1274.41	64.8898	1274.41	76.9056	1274.41	72.6322	1274.41	75.2629	1274.41	76.6751	1274.41	62.8651	1274.41	78.5073	1274.41	69.3981	1274.41	78.8505	1274.41	75.818	1274.41	78.1678
1319.82	86.9861	1319.82	87.1825	1319.82	86.2814	1319.82	86.5244	1319.82	85.4184	1319.82	85.1717	1319.82	84.5549	1319.82	83.6892	1319.82	83.6477	1319.82	82.1158	1319.82	82.5125	1319.82	80.2915	1319.82	81.2026	1319.82	77.6917	1319.82	79.977	1319.82	71.8627	1319.82	78.6912	1319.82	71.2493	1319.82	77.1183	1319.82	76.3011	1319.82	74.9182	1319.82	76.7698	1319.82	73.1245	1319.82	73.5373	1319.82	73.701	1319.82	68.2458	1319.82	75.0039	1319.82	68.779	1319.82	75.7649	1319.82	72.3846	1319.82	71.8514	1319.82	76.5906	1319.82	66.4065	1319.82	78.3165	1319.82	73.3243	1319.82	77.192
1366.7	86.5937	1366.7	86.7368	1366.7	86.0345	1366.7	86.5207	1366.7	85.1884	1366.7	85.6316	1366.7	84.5688	1366.7	83.9839	1366.7	83.9837	1366.7	81.8115	1366.7	82.8355	1366.7	79.1948	1366.7	81.0096	1366.7	76.1002	1366.7	79.492	1366.7	70.7486	1366.7	79.1942	1366.7	52.6146	1366.7	79.092	1366.7	69.584	1366.7	77.6261	1366.7	73.2083	1366.7	71.7303	1366.7	71.8042	1366.7	70.6491	1366.7	68.5427	1366.7	74.7405	1366.7	69.5374	1366.7	74.0773	1366.7	69.9041	1366.7	72.9513	1366.7	73.0949	1366.7	71.3112	1366.7	76.3184	1366.7	72.4315	1366.7	75.6247
1413.57	87.0393	1413.57	87.236	1413.57	86.2894	1413.57	86.7991	1413.57	85.652	1413.57	85.879	1413.57	84.9527	1413.57	84.1877	1413.57	83.8197	1413.57	81.9041	1413.57	82.4876	1413.57	79.7755	1413.57	81.1768	1413.57	76.8968	1413.57	80.0209	1413.57	72.7566	1413.57	78.8721	1413.57	70.8047	1413.57	77.3149	1413.57	70.2813	1413.57	75.6849	1413.57	68.6713	1413.57	74.4519	1413.57	68.5581	1413.57	71.6637	1413.57	70.1183	1413.57	73.0887	1413.57	71.8548	1413.57	74.0771	1413.57	72.0329	1413.57	73.335	1413.57	72.4395	1413.57	71.822	1413.57	74.2646	1413.57	71.3596	1413.57	74.3189
1463.38	86.9829	1463.38	87.0327	1463.38	86.466	1463.38	86.4116	1463.38	85.6791	1463.38	85.322	1463.38	84.4945	1463.38	83.7659	1463.38	83.1455	1463.38	81.5641	1463.38	81.8543	1463.38	79.1256	1463.38	80.2717	1463.38	76.8608	1463.38	78.5628	1463.38	73.9569	1463.38	78.1462	1463.38	69.7829	1463.38	78.2194	1463.38	71.0914	1463.38	76.8064	1463.38	72.9527	1463.38	72.3557	1463.38	70.5273	1463.38	71.5367	1463.38	69.2186	1463.38	71.5725	1463.38	73.415	1463.38	71.1682	1463.38	73.2739	1463.38	73.6611	1463.38	70.0982	1463.38	74.636	1463.38	71.6276	1463.38	73.0726	1463.38	71.9029
1516.11	85.7508	1516.11	86.0298	1516.11	85.3277	1516.11	85.6887	1516.11	84.512	1516.11	84.2528	1516.11	83.3163	1516.11	81.8963	1516.11	82.1081	1516.11	79.6122	1516.11	80.7551	1516.11	77.8011	1516.11	78.7873	1516.11	75.8976	1516.11	76.4298	1516.11	73.7838	1516.11	76.2623	1516.11	70.0791	1516.11	77.1049	1516.11	67.739	1516.11	76.875	1516.11	69.3305	1516.11	75.0744	1516.11	66.3454	1516.11	72.4949	1516.11	64.539	1516.11	72.3221	1516.11	72.4159	1516.11	64.8462	1516.11	73.8792	1516.11	70.1084	1516.11	70.7127	1516.11	74.3872	1516.11	69.5573	1516.11	74.0022	1516.11	71.9218
1568.85	85.0792	1568.85	85.4144	1568.85	84.3532	1568.85	85.0665	1568.85	83.4892	1568.85	83.6618	1568.85	82.1759	1568.85	80.8583	1568.85	80.8432	1568.85	77.4164	1568.85	79.8715	1568.85	75.2683	1568.85	78.3463	1568.85	73.4172	1568.85	75.3239	1568.85	70.2301	1568.85	73.5095	1568.85	66.038	1568.85	74.9591	1568.85	66.4632	1568.85	73.4695	1568.85	71.4444	1568.85	68.6628	1568.85	69.9335	1568.85	73.7155	1568.85	60.7353	1568.85	74.6549	1568.85	72.4761	1568.85	68.9852	1568.85	76.1798	1568.85	64.4454	1568.85	75.0883	1568.85	73.3117	1568.85	72.5248	1568.85	74.906	1568.85	73.5934
1624.51	85.931	1624.51	85.7934	1624.51	85.1285	1624.51	85.2505	1624.51	83.9537	1624.51	84.5177	1624.51	82.0034	1624.51	82.763	1624.51	79.2556	1624.51	79.2293	1624.51	78.0644	1624.51	75.7127	1624.51	78.8254	1624.51	76.17	1624.51	77.9042	1624.51	75.0384	1624.51	72.2999	1624.51	72.354	1624.51	74.1109	1624.51	72.0696	1624.51	78.7731	1624.51	71.9216	1624.51	76.2853	1624.51	70.9278	1624.51	64.368	1624.51	53.482	1624.51	77.7471	1624.51	74.5541	1624.51	76.5796	1624.51	79.421	1624.51	67.4353	1624.51	79.0049	1624.51	74.9621	1624.51	77.1557	1624.51	77.8818	1624.51	77.3885
1681.64	87.0558	1681.64	86.7967	1681.64	85.9337	1681.64	85.3854	1681.64	84.5666	1681.64	84.2065	1681.64	82.9868	1681.64	82.9705	1681.64	80.7501	1681.64	80.6824	1681.64	77.8689	1681.64	77.1448	1681.64	76.5969	1681.64	75.3229	1681.64	78.4162	1681.64	76.7928	1681.64	77.6681	1681.64	71.0532	1681.64	71.8801	1681.64	70.3752	1681.64	73.5351	1681.64	75.1082	1681.64	76.1069	1681.64	73.5802	1681.64	67.464	1681.64	67.9304	1681.64	75.8642	1681.64	67.4456	1681.64	78.6294	1681.64	76.9751	1681.64	72.6302	1681.64	78.862	1681.64	69.462	1681.64	78.6686	1681.64	76.2132	1681.64	78.2677
1741.7	86.3189	1741.7	86.3889	1741.7	85.3129	1741.7	85.2352	1741.7	84.0822	1741.7	83.847	1741.7	82.9458	1741.7	82.7692	1741.7	82.1585	1741.7	81.6774	1741.7	80.4662	1741.7	78.8735	1741.7	77.0988	1741.7	74.649	1741.7	76.5158	1741.7	72.6395	1741.7	77.6099	1741.7	69.7443	1741.7	73.5207	1741.7	44.7862	1741.7	75.8548	1741.7	70.2954	1741.7	78.5729	1741.7	70.5688	1741.7	69.6002	1741.7	66.7659	1741.7	74.9012	1741.7	64.3356	1741.7	78.5075	1741.7	75.8953	1741.7	73.8293	1741.7	78.6283	1741.7	61.5728	1741.7	77.6175	1741.7	74.1722	1741.7	77.1041
1803.22	86.0539	1803.22	86.2403	1803.22	85.4688	1803.22	85.8741	1803.22	84.0067	1803.22	84.4696	1803.22	83.0265	1803.22	82.9675	1803.22	82.7559	1803.22	82.1417	1803.22	82.7206	1803.22	79.9543	1803.22	80.6813	1803.22	74.5586	1803.22	77.2133	1803.22	71.3849	1803.22	78.7086	1803.22	68.1394	1803.22	79.0852	1803.22	65.8634	1803.22	73.9979	1803.22	66.6836	1803.22	74.8722	1803.22	69.2112	1803.22	73.7928	1803.22	66.4575	1803.22	69.4119	1803.22	66.2978	1803.22	78.5847	1803.22	72.6676	1803.22	76.2	1803.22	76.5262	1803.22	60.6406	1803.22	77.0253	1803.22	73.4861	1803.22	76.8462
1866.21	86.6695	1866.21	86.3198	1866.21	85.9362	1866.21	85.8892	1866.21	84.3487	1866.21	85.0423	1866.21	82.9099	1866.21	83.4192	1866.21	82.2164	1866.21	81.5426	1866.21	82.4104	1866.21	79.1506	1866.21	82.0144	1866.21	74.9077	1866.21	79.1022	1866.21	74.4873	1866.21	77.6618	1866.21	76.2746	1866.21	77.6463	1866.21	72.5898	1866.21	75.025	1866.21	69.8388	1866.21	77.2738	1866.21	72.4169	1866.21	76.9475	1866.21	65.9919	1866.21	65.259	1866.21	62.9056	1866.21	76.8556	1866.21	71.7874	1866.21	76.6593	1866.21	74.8196	1866.21	66.5589	1866.21	74.7151	1866.21	71.4599	1866.21	75.1883
1932.13	86.6851	1932.13	86.3924	1932.13	86.1956	1932.13	85.6327	1932.13	84.9059	1932.13	85.1272	1932.13	83.2295	1932.13	83.7949	1932.13	82.71	1932.13	81.5101	1932.13	82.5419	1932.13	79.3536	1932.13	82.0359	1932.13	76.503	1932.13	80.6981	1932.13	73.7254	1932.13	78.6014	1932.13	76.7525	1932.13	79.4634	1932.13	74.6872	1932.13	77.8488	1932.13	73.9596	1932.13	70.2581	1932.13	76.5269	1932.13	76.4841	1932.13	71.9608	1932.13	70.3256	1932.13	66.7567	1932.13	74.3317	1932.13	67.3107	1932.13	76.2154	1932.13	72.5756	1932.13	70.0198	1932.13	72.2708	1932.13	68.1082	1932.13	72.0396
1999.51	86.3547	1999.51	86.6226	1999.51	85.7097	1999.51	86.0308	1999.51	84.4093	1999.51	84.8777	1999.51	83.6745	1999.51	83.6744	1999.51	83.7441	1999.51	81.1126	1999.51	83.4415	1999.51	78.3008	1999.51	82.4002	1999.51	76.1256	1999.51	80.6413	1999.51	74.799	1999.51	78.7474	1999.51	73.7129	1999.51	76.7179	1999.51	74.0009	1999.51	76.5482	1999.51	72.917	1999.51	73.5117	1999.51	76.7237	1999.51	74.4281	1999.51	72.4088	1999.51	73.7289	1999.51	69.1257	1999.51	73.7537	1999.51	69.7552	1999.51	74.9333	1999.51	66.2185	1999.51	71.9629	1999.51	64.6215	1999.51	71.2017	1999.51	67.831
2069.82	86.5538	2069.82	86.1165	2069.82	85.8591	2069.82	85.586	2069.82	83.4867	2069.82	84.0453	2069.82	82.4265	2069.82	82.0608	2069.82	83.3402	2069.82	80.2172	2069.82	83.7858	2069.82	78.5457	2069.82	82.8946	2069.82	76.2399	2069.82	80.9285	2069.82	71.7683	2069.82	78.909	2069.82	69.9661	2069.82	76.1253	2069.82	66.6297	2069.82	78.4797	2069.82	68.0455	2069.82	76.0622	2069.82	74.8785	2069.82	73.2764	2069.82	73.4586	2069.82	73.2847	2069.82	66.498	2069.82	73.7007	2069.82	69.0583	2069.82	74.8928	2069.82	68.8875	2069.82	71.2596	2069.82	66.4414	2069.82	72.4099	2069.82	69.1412
2143.07	87.1049	2143.07	86.3099	2143.07	86.242	2143.07	85.258	2143.07	83.7527	2143.07	83.58	2143.07	82.2517	2143.07	81.0289	2143.07	83.4076	2143.07	79.5458	2143.07	83.5243	2143.07	78.3358	2143.07	82.3174	2143.07	77.1818	2143.07	80.505	2143.07	74.8838	2143.07	79.2011	2143.07	73.3309	2143.07	77.9922	2143.07	72.7537	2143.07	76.117	2143.07	63.8957	2143.07	73.8209	2143.07	70.6719	2143.07	75.1033	2143.07	73.4072	2143.07	72.7263	2143.07	70.0079	2143.07	72.2836	2143.07	70.484	2143.07	72.4203	2143.07	66.7376	2143.07	68.3602	2143.07	63.8966	2143.07	72.6775	2143.07	69.7734
2219.24	86.5136	2219.24	86.9749	2219.24	85.0275	2219.24	84.3391	2219.24	83.2555	2219.24	82.0507	2219.24	82.4051	2219.24	81.1133	2219.24	83.3327	2219.24	79.3729	2219.24	83.4934	2219.24	76.057	2219.24	82.3835	2219.24	74.1738	2219.24	79.9214	2219.24	74.8043	2219.24	79.0991	2219.24	72.7614	2219.24	77.254	2219.24	71.5541	2219.24	73.5639	2219.24	71.5373	2219.24	75.4038	2219.24	67.8065	2219.24	74.0673	2219.24	69.7525	2219.24	73.3359	2219.24	67.0642	2219.24	71.5919	2219.24	69.8286	2219.24	71.1028	2219.24	67.305	2219.24	65.1739	2219.24	61.9492	2219.24	72.0141	2219.24	69.669
2296.88	86.1311	2296.88	86.0619	2296.88	83.3814	2296.88	84.3495	2296.88	80.4625	2296.88	82.1911	2296.88	81.6092	2296.88	79.5028	2296.88	84.0984	2296.88	75.9865	2296.88	84.4289	2296.88	75.2321	2296.88	83.4977	2296.88	75.9317	2296.88	80.4599	2296.88	76.8122	2296.88	79.7114	2296.88	73.9166	2296.88	78.2464	2296.88	71.789	2296.88	74.9125	2296.88	70.6273	2296.88	68.739	2296.88	68.0867	2296.88	72.1476	2296.88	71.0735	2296.88	72.7031	2296.88	69.1026	2296.88	70.8599	2296.88	67.0966	2296.88	67.4279	2296.88	65.2694	2296.88	64.4296	2296.88	67.8751	2296.88	69.9924	2296.88	68.6493
2378.91	86.8976	2378.91	86.3745	2378.91	84.4243	2378.91	84.7818	2378.91	80.0357	2378.91	81.1047	2378.91	80.6142	2378.91	76.4881	2378.91	83.6978	2378.91	75.7709	2378.91	84.7137	2378.91	77.3439	2378.91	83.9447	2378.91	75.3515	2378.91	81.1738	2378.91	70.7267	2378.91	78.0124	2378.91	69.7724	2378.91	77.9724	2378.91	68.9093	2378.91	73.5781	2378.91	73.8856	2378.91	70.8354	2378.91	69.8844	2378.91	71.9257	2378.91	69.0264	2378.91	72.8242	2378.91	69.2595	2378.91	72.0719	2378.91	69.9987	2378.91	67.6908	2378.91	65.9134	2378.91	53.5767	2378.91	66.8777	2378.91	70.6792	2378.91	71.2001
2462.4	86.4996	2462.4	86.9108	2462.4	83.843	2462.4	84.5294	2462.4	78.8675	2462.4	79.0543	2462.4	79.7325	2462.4	74.1336	2462.4	83.1866	2462.4	77.1318	2462.4	84.3768	2462.4	77.3228	2462.4	83.7714	2462.4	76.7202	2462.4	81.2434	2462.4	74.734	2462.4	75.8956	2462.4	75.104	2462.4	74.3654	2462.4	74.4867	2462.4	70.7425	2462.4	70.1392	2462.4	69.3422	2462.4	73.5037	2462.4	73.8428	2462.4	67.9218	2462.4	72.5904	2462.4	69.1851	2462.4	71.1009	2462.4	66.1463	2462.4	69.6771	2462.4	62.5366	2462.4	57.1242	2462.4	68.3034	2462.4	70.7946	2462.4	69.3023
2548.83	85.6563	2548.83	86.4342	2548.83	81.7561	2548.83	84.1467	2548.83	76.2959	2548.83	77.1957	2548.83	79.3473	2548.83	72.34	2548.83	83.0477	2548.83	77.8806	2548.83	84.3927	2548.83	78.6636	2548.83	83.6145	2548.83	77.0523	2548.83	81.6113	2548.83	76.0582	2548.83	77.2961	2548.83	74.3025	2548.83	75.6052	2548.83	73.2917	2548.83	76.2023	2548.83	71.6915	2548.83	71.5146	2548.83	70.6945	2548.83	71.289	2548.83	69.5477	2548.83	73.1366	2548.83	67.702	2548.83	70.3656	2548.83	68.0319	2548.83	68.4769	2548.83	56.9507	2548.83	62.489	2548.83	66.435	2548.83	68.0303	2548.83	69.8586
2639.65	86.0417	2639.65	86.3765	2639.65	82.6337	2639.65	84.0725	2639.65	77.0396	2639.65	76.2202	2639.65	79.4115	2639.65	74.5194	2639.65	83.5375	2639.65	79.4851	2639.65	84.6512	2639.65	79.7168	2639.65	83.7756	2639.65	77.7497	2639.65	80.981	2639.65	76.8517	2639.65	75.0226	2639.65	75.378	2639.65	69.1931	2639.65	73.7261	2639.65	72.0528	2639.65	70.8397	2639.65	76.2825	2639.65	72.3192	2639.65	70.1789	2639.65	71.2634	2639.65	73.466	2639.65	68.0004	2639.65	73.3476	2639.65	65.3299	2639.65	68.5841	2639.65	45.3807	2639.65	66.6848	2639.65	65.4471	2639.65	68.2583	2639.65	70.7868
2731.93	85.8191	2731.93	86.7323	2731.93	82.2242	2731.93	83.6595	2731.93	75.4131	2731.93	73.8464	2731.93	78.2804	2731.93	75.2065	2731.93	83.0868	2731.93	79.6581	2731.93	84.5125	2731.93	78.873	2731.93	83.7969	2731.93	77.1018	2731.93	81.0062	2731.93	75.2113	2731.93	75.9349	2731.93	71.8824	2731.93	71.7516	2731.93	71.8481	2731.93	70.1314	2731.93	72.0485	2731.93	72.783	2731.93	69.3043	2731.93	73.5737	2731.93	72.1223	2731.93	71.2731	2731.93	69.0282	2731.93	71.6853	2731.93	66.9904	2731.93	66.8962	2731.93	60.7953	2731.93	62.2577	2731.93	66.8122	2731.93	69.3479	2731.93	68.774
2828.61	85.5931	2828.61	86.8114	2828.61	81.4601	2828.61	83.4249	2828.61	73.7299	2828.61	68.0513	2828.61	77.6466	2828.61	77.3441	2828.61	83.1514	2828.61	79.282	2828.61	84.7021	2828.61	79.5373	2828.61	83.8351	2828.61	78.8617	2828.61	80.7373	2828.61	76.5065	2828.61	74.4168	2828.61	77.2046	2828.61	69.6488	2828.61	74.7656	2828.61	70.7439	2828.61	72.4771	2828.61	74.6477	2828.61	70.293	2828.61	71.1073	2828.61	70.8802	2828.61	70.76	2828.61	69.8946	2828.61	71.6357	2828.61	65.5687	2828.61	63.7535	2828.61	59.5116	2828.61	66.6872	2828.61	64.8941	2828.61	68.4945	2828.61	68.4256
2928.22	85.9275	2928.22	86.4352	2928.22	81.6324	2928.22	82.5792	2928.22	72.4454	2928.22	64.5417	2928.22	76.6238	2928.22	77.9503	2928.22	82.9377	2928.22	81.5315	2928.22	84.7114	2928.22	81.4166	2928.22	83.8629	2928.22	78.5258	2928.22	79.9315	2928.22	77.0125	2928.22	74.4657	2928.22	75.0357	2928.22	71.6381	2928.22	71.2541	2928.22	72.0767	2928.22	72.0946	2928.22	74.97	2928.22	70.6378	2928.22	70.2223	2928.22	70.8295	2928.22	71.5003	2928.22	71.2471	2928.22	72.0712	2928.22	67.6541	2928.22	57.818	2928.22	66.088	2928.22	62.872	2928.22	65.1229	2928.22	68.8298	2928.22	67.2522
3030.76	86.5083	3030.76	87.028	3030.76	81.8242	3030.76	81.3107	3030.76	69.5087	3030.76	62.3026	3030.76	77.1916	3030.76	79.49	3030.76	82.6497	3030.76	82.3054	3030.76	84.4889	3030.76	81.376	3030.76	83.2482	3030.76	80.2708	3030.76	79.8436	3030.76	77.9864	3030.76	75.4524	3030.76	75.9817	3030.76	74.4447	3030.76	75.1186	3030.76	75	3030.76	72.1697	3030.76	71.7425	3030.76	71.1544	3030.76	70.0089	3030.76	70.5833	3030.76	69.9071	3030.76	71.3124	3030.76	72.1846	3030.76	66.791	3030.76	62.4355	3030.76	65.5836	3030.76	59.3546	3030.76	66.9712	3030.76	68.2391	3030.76	67.7188
3137.7	86.0213	3137.7	86.0612	3137.7	82.2773	3137.7	81.1532	3137.7	68.4688	3137.7	69.8046	3137.7	78.3018	3137.7	81.1211	3137.7	83.3745	3137.7	83.393	3137.7	84.5964	3137.7	82.1871	3137.7	82.9029	3137.7	80.0241	3137.7	80.2183	3137.7	77.8595	3137.7	76.1744	3137.7	77.6631	3137.7	73.8596	3137.7	73.9002	3137.7	70.8734	3137.7	73.5522	3137.7	71.2261	3137.7	70.9122	3137.7	68.7873	3137.7	70.0295	3137.7	70.1286	3137.7	71.6118	3137.7	70.0926	3137.7	68.8814	3137.7	62.0517	3137.7	67.7991	3137.7	58.2505	3137.7	66.8075	3137.7	69.1572	3137.7	68.5666
3249.02	86.605	3249.02	85.6249	3249.02	82.9842	3249.02	79.509	3249.02	63.6803	3249.02	73.0042	3249.02	79.6819	3249.02	82.4704	3249.02	83.1369	3249.02	84.1029	3249.02	84.0206	3249.02	82.7797	3249.02	82.3423	3249.02	80.0723	3249.02	79.4119	3249.02	76.8094	3249.02	73.8076	3249.02	73.3116	3249.02	72.0833	3249.02	72.718	3249.02	69.8002	3249.02	69.1947	3249.02	66.3913	3249.02	70.4477	3249.02	70.4851	3249.02	67.0945	3249.02	68.3419	3249.02	71.0703	3249.02	68.9697	3249.02	67.2904	3249.02	59.2082	3249.02	67.0974	3249.02	58.7519	3249.02	65.1353	3249.02	67.5402	3249.02	66.1786
3363.28	86.42	3363.28	85.5286	3363.28	83.361	3363.28	78.6688	3363.28	61.4912	3363.28	75.6597	3363.28	80.8795	3363.28	83.8008	3363.28	83.2803	3363.28	84.067	3363.28	82.9131	3363.28	81.8489	3363.28	81.7193	3363.28	78.5291	3363.28	78.0731	3363.28	77.175	3363.28	73.554	3363.28	74.5159	3363.28	71.0741	3363.28	73.515	3363.28	62.7365	3363.28	68.6019	3363.28	60.7806	3363.28	69.4916	3363.28	67.3549	3363.28	65.2482	3363.28	68.4121	3363.28	69.6398	3363.28	67.6911	3363.28	68.8033	3363.28	58.228	3363.28	66.788	3363.28	53.6475	3363.28	66.4291	3363.28	65.8388	3363.28	68.8834
3481.93	86.9744	3481.93	84.6942	3481.93	84.2669	3481.93	76.8334	3481.93	67.7926	3481.93	78.9176	3481.93	81.2384	3481.93	84.078	3481.93	83.4468	3481.93	84.2997	3481.93	82.2387	3481.93	81.8169	3481.93	80.8365	3481.93	77.6612	3481.93	78.0302	3481.93	75.08	3481.93	72.3114	3481.93	73.96	3481.93	71.6196	3481.93	68.4799	3481.93	61.1229	3481.93	69.1643	3481.93	58.367	3481.93	65.0908	3481.93	65.8382	3481.93	65.035	3481.93	68.05	3481.93	67.3676	3481.93	67.7037	3481.93	68.2094	3481.93	62.2798	3481.93	65.4186	3481.93	58.8421	3481.93	65.3244	3481.93	63.6519	3481.93	67.6671
3604.98	86.4586	3604.98	84.5781	3604.98	83.9296	3604.98	72.8632	3604.98	70.1489	3604.98	80.152	3604.98	82.6056	3604.98	84.8035	3604.98	83.2164	3604.98	83.5089	3604.98	82.3563	3604.98	79.5382	3604.98	81.0801	3604.98	75.7005	3604.98	79.6432	3604.98	72.4771	3604.98	73.5523	3604.98	69.2857	3604.98	71.2289	3604.98	66.9907	3604.98	71.809	3604.98	68.6179	3604.98	63.1996	3604.98	66.041	3604.98	63.8022	3604.98	64.3691	3604.98	68.4303	3604.98	60.5392	3604.98	67.3949	3604.98	66.5883	3604.98	63.8162	3604.98	61.4023	3604.98	63.7311	3604.98	64.6682	3604.98	65.8358	3604.98	70.0258
3732.42	87.2759	3732.42	83.8371	3732.42	84.9699	3732.42	73.8319	3732.42	71.2984	3732.42	82.2227	3732.42	82.8519	3732.42	85.0487	3732.42	83.8454	3732.42	82.2634	3732.42	81.35	3732.42	77.7354	3732.42	81.8536	3732.42	73.1141	3732.42	81.05	3732.42	72.2524	3732.42	78.3295	3732.42	70.7509	3732.42	72.1714	3732.42	71.662	3732.42	74.85	3732.42	66.8613	3732.42	65.1562	3732.42	66.7227	3732.42	65.6077	3732.42	60.9889	3732.42	70.4426	3732.42	57.1742	3732.42	67.7988	3732.42	64.7315	3732.42	62.8158	3732.42	61.3812	3732.42	67.5204	3732.42	65.9845	3732.42	66.2805	3732.42	69.848
3864.26	87.0806	3864.26	84.1486	3864.26	85.228	3864.26	73.2089	3864.26	73.1512	3864.26	83.8429	3864.26	84.0005	3864.26	84.5701	3864.26	83.4483	3864.26	81.248	3864.26	82.0588	3864.26	74.7073	3864.26	82.766	3864.26	75.5117	3864.26	82.5144	3864.26	74.054	3864.26	80.5605	3864.26	74.5821	3864.26	76.1199	3864.26	72.6042	3864.26	75.8282	3864.26	71.0643	3864.26	68.9844	3864.26	69.6605	3864.26	69.1708	3864.26	67.2521	3864.26	68.8194	3864.26	63.0607	3864.26	66.6653	3864.26	59.3384	3864.26	56.4147	3864.26	62.2476	3864.26	69.3313	3864.26	64.562	3864.26	66.9865	3864.26	68.9509
4000.49	87.9187	4000.49	82.0278	4000.49	86.233	4000.49	76.4068	4000.49	76.2802	4000.49	85.3484	4000.49	84.1429	4000.49	84.7352	4000.49	82.4295	4000.49	79.5131	4000.49	81.659	4000.49	78.8065	4000.49	83.8701	4000.49	77.9925	4000.49	83.5774	4000.49	77.1529	4000.49	79.4169	4000.49	75.4591	4000.49	71.9231	4000.49	73.401	4000.49	78.0006	4000.49	70.6332	4000.49	66.6009	4000.49	70.797	4000.49	68.2922	4000.49	67.4801	4000.49	65.2952	4000.49	66.0785	4000.49	68.133	4000.49	64.3351	4000.49	59.3164	4000.49	63.7636	4000.49	68.9881	4000.49	65.7566	4000.49	66.6435	4000.49	69.4534
4141.11	87.2183	4141.11	81.3093	4141.11	86.7876	4141.11	81.0759	4141.11	79.5733	4141.11	85.8039	4141.11	83.6599	4141.11	83.41	4141.11	82.5723	4141.11	81.6219	4141.11	77.6438	4141.11	81.2136	4141.11	83.5201	4141.11	79.6522	4141.11	83.155	4141.11	77.7162	4141.11	79.2758	4141.11	76.0298	4141.11	76.826	4141.11	71.8352	4141.11	79.9802	4141.11	72.0523	4141.11	57.9311	4141.11	69.4397	4141.11	65.4098	4141.11	66.9251	4141.11	68.0774	4141.11	67.741	4141.11	67.1717	4141.11	66.2157	4141.11	64.5073	4141.11	62.8084	4141.11	66.8895	4141.11	66.2891	4141.11	67.0095	4141.11	69.3686
4287.6	87.2208	4287.6	79.7356	4287.6	86.5133	4287.6	83.3711	4287.6	81.4835	4287.6	85.1283	4287.6	83.8802	4287.6	82.9761	4287.6	82.0888	4287.6	81.9722	4287.6	77.433	4287.6	80.4847	4287.6	81.5623	4287.6	77.9309	4287.6	82.3124	4287.6	75.0308	4287.6	79.0498	4287.6	71.026	4287.6	78.3856	4287.6	71.3506	4287.6	75.3718	4287.6	67.9334	4287.6	68.4134	4287.6	65.386	4287.6	64.7946	4287.6	65.4255	4287.6	72.2456	4287.6	61.4472	4287.6	61.5237	4287.6	64.8584	4287.6	65.1721	4287.6	61.2788	4287.6	65.5171	4287.6	68.251	4287.6	64.0287	4287.6	68.3533
4438.48	87.1196	4438.48	80.9794	4438.48	86.4827	4438.48	85.2303	4438.48	82.4861	4438.48	83.9868	4438.48	84.2349	4438.48	83.0615	4438.48	82.5808	4438.48	82.1732	4438.48	76.5453	4438.48	79.8369	4438.48	80.2741	4438.48	77.2922	4438.48	80.7102	4438.48	75.9429	4438.48	78.3822	4438.48	74.1411	4438.48	75.947	4438.48	71.855	4438.48	72.8487	4438.48	69.9565	4438.48	75.3725	4438.48	64.126	4438.48	63.5829	4438.48	63.2989	4438.48	70.2936	4438.48	62.1319	4438.48	57.9046	4438.48	63.6806	4438.48	63.1573	4438.48	59.3367	4438.48	67.4265	4438.48	67.1977	4438.48	63.3741	4438.48	67.28
4595.21	87.2194	4595.21	82.6837	4595.21	86.0649	4595.21	84.8903	4595.21	83.7675	4595.21	83.8865	4595.21	83.9853	4595.21	83.0134	4595.21	83.7836	4595.21	81.6826	4595.21	76.0345	4595.21	79.8218	4595.21	81.0131	4595.21	76.6026	4595.21	80.929	4595.21	73.7506	4595.21	78.7572	4595.21	70.4944	4595.21	60.5185	4595.21	70.9425	4595.21	75.4622	4595.21	67.1182	4595.21	72.8881	4595.21	64.5529	4595.21	67.1951	4595.21	61.9438	4595.21	57.004	4595.21	55.8529	4595.21	66.827	4595.21	59.565	4595.21	61.9456	4595.21	53.3388	4595.21	67.445	4595.21	64.2038	4595.21	60.0272	4595.21	67.0329
4756.35	87.1162	4756.35	84.3697	4756.35	86.5055	4756.35	85.0172	4756.35	83.7833	4756.35	84.3435	4756.35	84.7989	4756.35	82.9767	4756.35	83.0096	4756.35	81.3804	4756.35	76.6358	4756.35	78.1949	4756.35	81.2014	4756.35	74.9493	4756.35	80.5673	4756.35	73.3672	4756.35	78.8813	4756.35	70.7348	4756.35	73.0492	4756.35	67.875	4756.35	76.414	4756.35	68.1879	4756.35	66.8353	4756.35	67.5899	4756.35	64.1247	4756.35	63.2323	4756.35	65.5331	4756.35	60.3483	4756.35	66.5982	4756.35	59.23	4756.35	62.155	4756.35	52.1767	4756.35	62.9733	4756.35	64.1471	4756.35	61.0937	4756.35	64.6303
4924.8	86.6077	4924.8	85.9771	4924.8	86.4024	4924.8	84.7111	4924.8	85.1901	4924.8	84.5547	4924.8	84.6576	4924.8	83.2405	4924.8	83.8771	4924.8	82.2044	4924.8	76.9021	4924.8	77.9698	4924.8	79.9709	4924.8	75.6397	4924.8	80.2135	4924.8	74.3187	4924.8	78.972	4924.8	71.1111	4924.8	76.758	4924.8	71.6851	4924.8	72.7961	4924.8	67.2704	4924.8	56.1484	4924.8	66.0977	4924.8	66.0567	4924.8	66.6619	4924.8	66.9288	4924.8	61.894	4924.8	63.2021	4924.8	56.104	4924.8	64.2245	4924.8	53.6559	4924.8	63.5104	4924.8	59.2848	4924.8	62.9422	4924.8	63.4032
5097.66	86.8147	5097.66	86.2313	5097.66	87.0191	5097.66	85.0652	5097.66	84.95	5097.66	84.5217	5097.66	84.9233	5097.66	84.1813	5097.66	84.9447	5097.66	80.9074	5097.66	75.8888	5097.66	78.2854	5097.66	79.7654	5097.66	76.3016	5097.66	80.2655	5097.66	74.4418	5097.66	79.6334	5097.66	72.5706	5097.66	75.5209	5097.66	70.0673	5097.66	72.5346	5097.66	68.6617	5097.66	55.3624	5097.66	67.6582	5097.66	69.3122	5097.66	65.5861	5097.66	68.5524	5097.66	61.5169	5097.66	62.2895	5097.66	59.4777	5097.66	65.9097	5097.66	58.3654	5097.66	62.2633	5097.66	57.2335	5097.66	61.9002	5097.66	64.6193
5277.83	86.8375	5277.83	86.0873	5277.83	87.0144	5277.83	85.6947	5277.83	84.9246	5277.83	85.0763	5277.83	84.8007	5277.83	83.568	5277.83	85.2783	5277.83	81.0884	5277.83	77.9356	5277.83	79.0299	5277.83	78.5034	5277.83	75.2832	5277.83	80.4554	5277.83	73.7581	5277.83	78.5916	5277.83	71.4628	5277.83	70.9137	5277.83	69.4256	5277.83	71.95	5277.83	67.1833	5277.83	50.4816	5277.83	66.757	5277.83	67.197	5277.83	64.6401	5277.83	65.6924	5277.83	61.6728	5277.83	62.4764	5277.83	62.5005	5277.83	66.589	5277.83	61.1227	5277.83	62.6249	5277.83	60.3197	5277.83	62.6343	5277.83	60.6202
5463.87	87.7678	5463.87	86.1477	5463.87	86.8909	5463.87	85.8422	5463.87	84.9759	5463.87	85.5261	5463.87	85.4482	5463.87	83.1958	5463.87	84.624	5463.87	81.8431	5463.87	81.0496	5463.87	78.1574	5463.87	78.3594	5463.87	76.1868	5463.87	80.8239	5463.87	75.0032	5463.87	77.1884	5463.87	71.9366	5463.87	73.8086	5463.87	70.8268	5463.87	73.4971	5463.87	69.7963	5463.87	66.7709	5463.87	67.7886	5463.87	63.1995	5463.87	64.359	5463.87	69.8936	5463.87	63.592	5463.87	61.1066	5463.87	62.7702	5463.87	66.5729	5463.87	61.3952	5463.87	60.6503	5463.87	52.3304	5463.87	62.9259	5463.87	63.7652
5657.23	87.9572	5657.23	85.8965	5657.23	86.0201	5657.23	86.2496	5657.23	85.868	5657.23	85.2591	5657.23	85.2377	5657.23	83.2567	5657.23	84.1729	5657.23	81.9023	5657.23	80.8624	5657.23	79.2076	5657.23	77.1993	5657.23	77.8519	5657.23	80.4883	5657.23	75.7273	5657.23	74.4571	5657.23	72.8876	5657.23	70.8585	5657.23	70.6126	5657.23	74.6574	5657.23	69.1998	5657.23	70.1473	5657.23	66.8759	5657.23	64.9496	5657.23	65.097	5657.23	71.5605	5657.23	65.2264	5657.23	63.6017	5657.23	63.7194	5657.23	61.4652	5657.23	63.8339	5657.23	63.4004	5657.23	54.8449	5657.23	61.888	5657.23	62.5905
5856.45	87.8618	5856.45	86.0938	5856.45	85.7651	5856.45	86.7126	5856.45	86.097	5856.45	84.358	5856.45	85.5854	5856.45	83.5421	5856.45	84.0785	5856.45	82.5658	5856.45	81.5497	5856.45	80.0662	5856.45	75.0045	5856.45	78.166	5856.45	79.2916	5856.45	75.6396	5856.45	76.8596	5856.45	71.4483	5856.45	68.9172	5856.45	70.8087	5856.45	73.0234	5856.45	68.7311	5856.45	70.4705	5856.45	65.4606	5856.45	56.1843	5856.45	64.9064	5856.45	69.5636	5856.45	63.8728	5856.45	59.2987	5856.45	63.4643	5856.45	64.2553	5856.45	63.3977	5856.45	63.6779	5856.45	55.8378	5856.45	61.993	5856.45	63.8977
6062.99	87.7604	6062.99	86.5746	6062.99	85.2894	6062.99	86.3758	6062.99	86.4266	6062.99	83.9521	6062.99	85.2493	6062.99	84.0902	6062.99	84.4506	6062.99	82.5976	6062.99	82.406	6062.99	80.2466	6062.99	73.3888	6062.99	76.9953	6062.99	79.0393	6062.99	74.9437	6062.99	76.0772	6062.99	72.4453	6062.99	72.8119	6062.99	70.3067	6062.99	72.2438	6062.99	67.7641	6062.99	68.2141	6062.99	64.8174	6062.99	60.8909	6062.99	64.2916	6062.99	66.2298	6062.99	62.199	6062.99	57.1358	6062.99	64.331	6062.99	63.8982	6062.99	64.7585	6062.99	63.1795	6062.99	53.0804	6062.99	59.6056	6062.99	63.021
6276.86	87.7676	6276.86	86.8349	6276.86	84.9167	6276.86	85.8406	6276.86	86.4645	6276.86	83.9469	6276.86	84.7859	6276.86	84.3849	6276.86	84.2999	6276.86	82.8657	6276.86	82.8184	6276.86	80.2182	6276.86	73.1015	6276.86	77.4636	6276.86	78.112	6276.86	75.3064	6276.86	75.8227	6276.86	73.1341	6276.86	71.8141	6276.86	70.1519	6276.86	70.8337	6276.86	68.9653	6276.86	64.1761	6276.86	66.3743	6276.86	63.7607	6276.86	64.1954	6276.86	64.7875	6276.86	64.2681	6276.86	59.8612	6276.86	64.0813	6276.86	67.5205	6276.86	66.6418	6276.86	61.6124	6276.86	54.9104	6276.86	61.7723	6276.86	59.7396
6498.05	87.9128	6498.05	86.8235	6498.05	84.6401	6498.05	84.9869	6498.05	86.1416	6498.05	84.4925	6498.05	84.7581	6498.05	83.9927	6498.05	84.4028	6498.05	83.6504	6498.05	82.6202	6498.05	80.511	6498.05	72.7974	6498.05	78.7613	6498.05	77.5908	6498.05	76.1445	6498.05	78.1099	6498.05	72.1094	6498.05	74.3241	6498.05	70.0932	6498.05	68.3501	6498.05	69.7549	6498.05	67.9342	6498.05	66.494	6498.05	64.6747	6498.05	65.6159	6498.05	61.3541	6498.05	65.2313	6498.05	61.8433	6498.05	63.2413	6498.05	64.6946	6498.05	66.7156	6498.05	61.2818	6498.05	52.5513	6498.05	63.526	6498.05	61.3618
6726.56	87.8957	6726.56	86.5498	6726.56	84.5072	6726.56	84.6104	6726.56	85.9766	6726.56	84.3352	6726.56	84.148	6726.56	83.9069	6726.56	84.2505	6726.56	83.5334	6726.56	83.3357	6726.56	80.9435	6726.56	74.5086	6726.56	78.4383	6726.56	77.2818	6726.56	74.3968	6726.56	78.7251	6726.56	71.4226	6726.56	74.3493	6726.56	68.9711	6726.56	69.4314	6726.56	67.8354	6726.56	59.4249	6726.56	63.7368	6726.56	65.8173	6726.56	65.2947	6726.56	63.7934	6726.56	64.8047	6726.56	60.7399	6726.56	62.797	6726.56	62.4334	6726.56	65.5034	6726.56	63.3547	6726.56	55.0051	6726.56	55.8172	6726.56	62.7707
6963.87	87.6921	6963.87	86.2856	6963.87	84.7577	6963.87	84.834	6963.87	85.9125	6963.87	83.6039	6963.87	83.7548	6963.87	84.5762	6963.87	84.1438	6963.87	83.233	6963.87	83.6043	6963.87	80.4244	6963.87	75.0088	6963.87	76.6352	6963.87	77.9259	6963.87	73.5844	6963.87	77.9992	6963.87	70.9516	6963.87	71.4042	6963.87	68.7076	6963.87	66.3821	6963.87	67.1657	6963.87	63.2025	6963.87	64.897	6963.87	61.7251	6963.87	64.862	6963.87	62.0331	6963.87	65.0623	6963.87	40.9147	6963.87	63.0136	6963.87	59.4575	6963.87	66.217	6963.87	62.3322	6963.87	59.7904	6963.87	60.5645	6963.87	59.6926
7209.96	87.6383	7209.96	86.0475	7209.96	85.4733	7209.96	84.9475	7209.96	85.2108	7209.96	83.6253	7209.96	84.0838	7209.96	84.3424	7209.96	83.5369	7209.96	83.3318	7209.96	83.2032	7209.96	79.3806	7209.96	76.132	7209.96	77.3557	7209.96	79.2732	7209.96	74.0235	7209.96	75.4794	7209.96	70.3794	7209.96	72.0633	7209.96	69.0043	7209.96	68.8878	7209.96	66.047	7209.96	58.5845	7209.96	64.603	7209.96	64.5286	7209.96	65.4455	7209.96	58.0284	7209.96	64.2843	7209.96	59.3366	7209.96	63.8425	7209.96	59.4038	7209.96	66.5116	7209.96	62.7971	7209.96	59.7475	7209.96	59.2296	7209.96	61.0418
7464.84	87.7545	7464.84	85.678	7464.84	85.4491	7464.84	84.8963	7464.84	84.8836	7464.84	84.5613	7464.84	84.1011	7464.84	83.7534	7464.84	83.2423	7464.84	83.0583	7464.84	82.7436	7464.84	79.7924	7464.84	77.351	7464.84	77.2529	7464.84	77.3994	7464.84	73.3382	7464.84	71.8278	7464.84	70.7247	7464.84	72.3745	7464.84	68.6815	7464.84	68.8442	7464.84	66.1493	7464.84	58.0025	7464.84	62.5005	7464.84	63.9481	7464.84	65.6539	7464.84	56.8824	7464.84	63.9213	7464.84	59.9479	7464.84	63.2574	7464.84	59.3198	7464.84	65.811	7464.84	60.8938	7464.84	62.7711	7464.84	58.9685	7464.84	60.9513
7727.05	88.0373	7727.05	85.8281	7727.05	85.8348	7727.05	85.347	7727.05	85.0118	7727.05	84.4636	7727.05	84.4646	7727.05	83.8265	7727.05	82.0141	7727.05	82.244	7727.05	83.1559	7727.05	79.0621	7727.05	78.003	7727.05	76.3292	7727.05	76.5652	7727.05	72.6501	7727.05	72.7567	7727.05	69.0682	7727.05	67.7291	7727.05	67.6909	7727.05	66.4412	7727.05	66.7792	7727.05	66.6948	7727.05	62.4461	7727.05	60.267	7727.05	63.4521	7727.05	62.0469	7727.05	63.2	7727.05	55.9069	7727.05	64.0679	7727.05	60.997	7727.05	65.0274	7727.05	57.1338	7727.05	62.0729	7727.05	57.6937	7727.05	60.8364
7999.51	87.5741	7999.51	86.047	7999.51	85.9894	7999.51	85.9324	7999.51	85.7364	7999.51	84.0103	7999.51	84.1861	7999.51	83.7471	7999.51	81.2771	7999.51	82.1057	7999.51	82.8639	7999.51	78.0543	7999.51	78.8679	7999.51	76.0596	7999.51	72.5684	7999.51	72.4687	7999.51	74.5309	7999.51	70.2923	7999.51	67.1627	7999.51	65.7913	7999.51	65.0287	7999.51	66.9186	7999.51	65.0569	7999.51	61.2288	7999.51	59.3526	7999.51	63.3828	7999.51	58.7412	7999.51	63.3509	7999.51	57.4364	7999.51	64.5179	7999.51	58.5686	7999.51	65.7319	7999.51	56.9764	7999.51	63.1929	7999.51	56.7307	7999.51	61.713
8282.23	87.0778	8282.23	86.8606	8282.23	86.5037	8282.23	85.9438	8282.23	86.5878	8282.23	84.2932	8282.23	83.7552	8282.23	83.3102	8282.23	81.5383	8282.23	81.399	8282.23	82.7997	8282.23	77.9384	8282.23	78.2937	8282.23	75.0579	8282.23	70.4312	8282.23	72.5274	8282.23	76.0536	8282.23	70.6005	8282.23	66.0744	8282.23	64.8611	8282.23	66.7054	8282.23	67.4548	8282.23	64.5911	8282.23	60.9187	8282.23	60.879	8282.23	61.6673	8282.23	56.8614	8282.23	64.1397	8282.23	59.0915	8282.23	64.9245	8282.23	61.025	8282.23	66.1247	8282.23	54.6125	8282.23	62.4106	8282.23	57.2168	8282.23	59.3816
8573.73	86.903	8573.73	86.9575	8573.73	86.9931	8573.73	86.3091	8573.73	86.9153	8573.73	84.7045	8573.73	83.7235	8573.73	81.8408	8573.73	82.339	8573.73	81.0833	8573.73	82.5703	8573.73	77.1455	8573.73	77.4062	8573.73	76.1089	8573.73	72.3916	8573.73	72.7519	8573.73	75.6484	8573.73	69.625	8573.73	67.405	8573.73	65.8926	8573.73	65.2889	8573.73	65.8852	8573.73	59.9632	8573.73	61.3578	8573.73	58.0288	8573.73	59.4556	8573.73	52.9684	8573.73	63.0496	8573.73	53.5171	8573.73	62.5417	8573.73	54.1452	8573.73	64.9002	8573.73	54.1416	8573.73	61.9031	8573.73	55.1445	8573.73	58.1107
8876.95	87.0743	8876.95	86.9182	8876.95	87.6445	8876.95	86.7583	8876.95	86.7636	8876.95	84.4613	8876.95	83.9413	8876.95	81.3421	8876.95	83.4104	8876.95	80.3565	8876.95	82.0574	8876.95	77.5241	8876.95	76.9013	8876.95	75.6027	8876.95	73.1085	8876.95	70.5366	8876.95	72.0088	8876.95	68.064	8876.95	65.2071	8876.95	65.1626	8876.95	65.5653	8876.95	63.6928	8876.95	61.5617	8876.95	61.175	8876.95	59.7354	8876.95	58.633	8876.95	54.6024	8876.95	61.628	8876.95	52.1485	8876.95	60.2582	8876.95	57.0414	8876.95	64.8487	8876.95	50.4235	8876.95	61.4981	8876.95	54.03	8876.95	56.6124
9188.96	87.2273	9188.96	87.2705	9188.96	88.2436	9188.96	86.8506	9188.96	86.618	9188.96	84.2512	9188.96	84.588	9188.96	81.3046	9188.96	83.849	9188.96	80.0827	9188.96	81.1539	9188.96	76.6886	9188.96	76.7855	9188.96	74.0206	9188.96	71.9237	9188.96	70.5159	9188.96	70.4365	9188.96	67.081	9188.96	66.1305	9188.96	65.3607	9188.96	67.0973	9188.96	61.5496	9188.96	59.6435	9188.96	60.5044	9188.96	59.4569	9188.96	59.8857	9188.96	58.2996	9188.96	59.8706	9188.96	48.8065	9188.96	59.0241	9188.96	54.7779	9188.96	64.779	9188.96	53.6036	9188.96	59.4254	9188.96	55.1558	9188.96	56.7403
9514.16	87.9154	9514.16	88.0754	9514.16	88.1237	9514.16	86.5989	9514.16	87.1008	9514.16	84.2409	9514.16	85.465	9514.16	81.3204	9514.16	83.7228	9514.16	80.6292	9514.16	79.3128	9514.16	75.4248	9514.16	78.2079	9514.16	73.394	9514.16	70.7153	9514.16	68.8202	9514.16	69.0858	9514.16	63.7629	9514.16	65.673	9514.16	61.5569	9514.16	64.85	9514.16	60.1409	9514.16	63.1667	9514.16	56.7547	9514.16	61.5342	9514.16	57.659	9514.16	59.7007	9514.16	55.8496	9514.16	55.1437	9514.16	55.6314	9514.16	57.2887	9514.16	61.8762	9514.16	47.6683	9514.16	55.073	9514.16	51.8078	9514.16	44.7122
9849.61	88.5896	9849.61	88.6167	9849.61	88.2771	9849.61	86.9786	9849.61	87.6218	9849.61	84.3928	9849.61	85.489	9849.61	82.4466	9849.61	83.1131	9849.61	79.8884	9849.61	78.5022	9849.61	75.5202	9849.61	77.9331	9849.61	70.3366	9849.61	69.1236	9849.61	66.4269	9849.61	66.6482	9849.61	62.6178	9849.61	65.1882	9849.61	58.8785	9849.61	65.3835	9849.61	57.9395	9849.61	63.2208	9849.61	51.9586	9849.61	55.6857	9849.61	55.633	9849.61	56.5084	9849.61	55.638	9849.61	52.8624	9849.61	52.701	9849.61	54.7888	9849.61	59.1526	9849.61	46.2067	9849.61	56.4533	9849.61	51.5445	9849.61	40.1216
10196.8	89.2153	10196.8	89.0726	10196.8	88.9156	10196.8	87.6316	10196.8	87.9763	10196.8	84.8727	10196.8	85.1537	10196.8	82.2152	10196.8	82.8915	10196.8	79.9741	10196.8	78.6752	10196.8	74.1023	10196.8	77.3808	10196.8	71.0616	10196.8	66.1979	10196.8	65.7401	10196.8	67.0364	10196.8	62.9548	10196.8	59.1611	10196.8	58.9664	10196.8	63.9837	10196.8	58.3423	10196.8	61.4524	10196.8	53.1394	10196.8	55.6049	10196.8	51.6224	10196.8	54.5173	10196.8	57.6549	10196.8	51.8091	10196.8	52.9183	10196.8	50.4529	10196.8	58.1632	10196.8	40.1732	10196.8	58.5585	10196.8	47.3185	10196.8	48.1779
10555.7	89.3659	10555.7	89.2231	10555.7	89.0762	10555.7	87.8015	10555.7	88.2084	10555.7	85.3423	10555.7	85.1106	10555.7	81.8153	10555.7	82.5919	10555.7	79.6926	10555.7	78.9238	10555.7	74.1625	10555.7	75.9612	10555.7	70.6181	10555.7	64.4534	10555.7	65.8046	10555.7	65.7855	10555.7	64.3476	10555.7	63.5845	10555.7	59.1965	10555.7	62.6932	10555.7	58.4519	10555.7	59.3667	10555.7	56.4956	10555.7	56.8162	10555.7	51.6321	10555.7	49.6929	10555.7	56.9468	10555.7	48.7177	10555.7	52.4446	10555.7	51.4463	10555.7	58.8417	10555.7	44.9148	10555.7	58.1327	10555.7	48.5413	10555.7	47.5549
10927.7	89.6196	10927.7	89.3106	10927.7	89.1479	10927.7	87.9422	10927.7	88.3589	10927.7	85.3271	10927.7	84.948	10927.7	81.9102	10927.7	82.8411	10927.7	79.1058	10927.7	78.8886	10927.7	72.9603	10927.7	74.1751	10927.7	71.3084	10927.7	67.2518	10927.7	65.9702	10927.7	66.2511	10927.7	62.2583	10927.7	61.5508	10927.7	61.3914	10927.7	58.7991	10927.7	57.3517	10927.7	57.571	10927.7	56.985	10927.7	50.4176	10927.7	50.5489	10927.7	48.6456	10927.7	58.1891	10927.7	47.8581	10927.7	54.2852	10927.7	51.9339	10927.7	58.0638	10927.7	48.263	10927.7	56.7413	10927.7	49.1189	10927.7	41.7082
11313	89.5166	11313	89.4296	11313	89.3213	11313	87.7498	11313	88.1083	11313	85.5239	11313	84.8876	11313	81.8627	11313	82.8054	11313	78.5396	11313	78.3463	11313	72.6099	11313	74.4381	11313	70.8457	11313	65.9688	11313	66.6597	11313	63.3848	11313	60.8377	11313	55.9048	11313	61.5401	11313	56.1291	11313	55.4372	11313	56.5417	11313	56.3066	11313	32.3846	11313	56.2131	11313	47.0948	11313	58.4054	11313	44.6584	11313	53.0164	11313	50.0501	11313	56.6954	11313	45.2444	11313	56.3312	11313	49.4001	11313	42.2303
11712.9	89.7082	11712.9	89.5129	11712.9	89.5097	11712.9	87.4765	11712.9	87.7676	11712.9	85.2402	11712.9	84.6797	11712.9	81.6473	11712.9	82.4913	11712.9	77.4299	11712.9	76.7096	11712.9	71.4083	11712.9	74.7674	11712.9	70.2417	11712.9	62.2585	11712.9	65.0957	11712.9	65.0285	11712.9	59.7935	11712.9	57.0721	11712.9	59.0161	11712.9	53.9549	11712.9	55.3162	11712.9	58.6615	11712.9	54.4501	11712.9	50.02	11712.9	56.6952	11712.9	47.2635	11712.9	56.3611	11712.9	48.4968	11712.9	51.4623	11712.9	43.1606	11712.9	56.8749	11712.9	46.7482	11712.9	57.7959	11712.9	47.1567	11712.9	45.266
12126	89.9851	12126	89.5242	12126	89.6775	12126	87.6178	12126	87.5302	12126	84.9001	12126	84.5071	12126	80.9811	12126	81.6127	12126	76.7645	12126	74.9768	12126	71.2176	12126	74.2986	12126	69.2927	12126	59.8309	12126	65.0934	12126	65.9098	12126	60.2342	12126	59.0141	12126	58.6486	12126	55.691	12126	55.0198	12126	56.5647	12126	54.1199	12126	47.6747	12126	56.8354	12126	37.6922	12126	55.2248	12126	48.5842	12126	48.4137	12126	47.2653	12126	54.5644	12126	48.6254	12126	56.1847	12126	52.9418	12126	50.526
12553.7	90.4777	12553.7	89.7146	12553.7	89.7991	12553.7	87.4329	12553.7	87.6603	12553.7	84.812	12553.7	84.4842	12553.7	79.7177	12553.7	80.6048	12553.7	76.4116	12553.7	73.7657	12553.7	71.3157	12553.7	73.9514	12553.7	69.5687	12553.7	60.3091	12553.7	65.6207	12553.7	64.371	12553.7	61.2896	12553.7	60.7689	12553.7	58.727	12553.7	39.96	12553.7	55.8716	12553.7	54.6589	12553.7	53.4673	12553.7	42.1403	12553.7	57.1822	12553.7	39.526	12553.7	55.2801	12553.7	46.3865	12553.7	51.1309	12553.7	38.1576	12553.7	52.234	12553.7	45.1766	12553.7	56.4504	12553.7	52.0565	12553.7	50.9592
12996.1	90.6941	12996.1	89.924	12996.1	89.8413	12996.1	87.3701	12996.1	87.9104	12996.1	84.5338	12996.1	84.2676	12996.1	78.6954	12996.1	79.5612	12996.1	76.1368	12996.1	74.2442	12996.1	71.9749	12996.1	74.5831	12996.1	69.4095	12996.1	64.9594	12996.1	65.7285	12996.1	62.1905	12996.1	60.8342	12996.1	60.6137	12996.1	58.2526	12996.1	50.0095	12996.1	55.4783	12996.1	40.2491	12996.1	54.6263	12996.1	50.1626	12996.1	56.1429	12996.1	39.9683	12996.1	54.0925	12996.1	46.969	12996.1	51.5972	12996.1	37.4369	12996.1	54.9777	12996.1	47.414	12996.1	56.1963	12996.1	50.0179	12996.1	55.5429
13454.6	90.4549	13454.6	89.8011	13454.6	89.6028	13454.6	87.4031	13454.6	87.941	13454.6	84.1857	13454.6	84.0098	13454.6	78.0409	13454.6	79.6886	13454.6	76.3637	13454.6	73.5499	13454.6	71.3133	13454.6	74.4773	13454.6	68.5804	13454.6	66.468	13454.6	65.3859	13454.6	65.564	13454.6	59.6965	13454.6	55.7544	13454.6	57.7387	13454.6	54.3138	13454.6	54.4741	13454.6	47.4141	13454.6	55.5696	13454.6	50.6768	13454.6	57.158	13454.6	50.0492	13454.6	53.3311	13454.6	50.069	13454.6	51.9127	13454.6	26.6297	13454.6	56.7399	13454.6	47.5801	13454.6	57.529	13454.6	50.8741	13454.6	54.5241
13929.2	90.4338	13929.2	89.687	13929.2	89.4861	13929.2	87.519	13929.2	87.9449	13929.2	83.7715	13929.2	83.6225	13929.2	78.3062	13929.2	79.4157	13929.2	75.7594	13929.2	73.7477	13929.2	71.2495	13929.2	72.3462	13929.2	69.6441	13929.2	69.5569	13929.2	65.8689	13929.2	61.4959	13929.2	61.3403	13929.2	59.0676	13929.2	57.2965	13929.2	58.0021	13929.2	53.4244	13929.2	35.1762	13929.2	57.321	13929.2	35.5087	13929.2	58.3233	13929.2	50.4312	13929.2	53.8444	13929.2	52.3622	13929.2	53.0001	13929.2	40.3218	13929.2	58.1618	13929.2	51.9534	13929.2	58.5093	13929.2	41.125	13929.2	51.6972
14419.9	90.6392	14419.9	89.6007	14419.9	89.7522	14419.9	87.4894	14419.9	87.8784	14419.9	83.7684	14419.9	83.4981	14419.9	78.9066	14419.9	78.7372	14419.9	75.6347	14419.9	76.0193	14419.9	70.585	14419.9	71.9737	14419.9	70.3893	14419.9	70.569	14419.9	66.5965	14419.9	55.6712	14419.9	60.1654	14419.9	60.2495	14419.9	58.53	14419.9	56.8826	14419.9	53.245	14419.9	50.0155	14419.9	57.3319	14419.9	41.1625	14419.9	58.0101	14419.9	48.7145	14419.9	55.6175	14419.9	52.3817	14419.9	53.5545	14419.9	31.3846	14419.9	55.8236	14419.9	46.5962	14419.9	57.3905	14419.9	50.4687	14419.9	55.2294
14928.2	90.7559	14928.2	89.6042	14928.2	89.6763	14928.2	87.3167	14928.2	87.8375	14928.2	83.5028	14928.2	83.1694	14928.2	79.747	14928.2	77.919	14928.2	74.6932	14928.2	76.5484	14928.2	70.6795	14928.2	71.1165	14928.2	70.7087	14928.2	70.6576	14928.2	66.0968	14928.2	61.4286	14928.2	60.8693	14928.2	57.8475	14928.2	57.2763	14928.2	51.615	14928.2	53.0365	14928.2	48.6502	14928.2	58.7899	14928.2	43.8772	14928.2	57.9403	14928.2	50.3815	14928.2	54.4233	14928.2	51.1598	14928.2	52.846	14928.2	36.6653	14928.2	55.5678	14928.2	21.6256	14928.2	56.4709	14928.2	53.1703	14928.2	53.3825
15455.6	90.349	15455.6	89.224	15455.6	89.3354	15455.6	87.0695	15455.6	87.1945	15455.6	82.874	15455.6	82.6102	15455.6	78.8909	15455.6	76.6136	15455.6	73.7806	15455.6	76.3795	15455.6	70.907	15455.6	71.6397	15455.6	69.5955	15455.6	72.1705	15455.6	64.8259	15455.6	57.7747	15455.6	59.2954	15455.6	60.9739	15455.6	56.0177	15455.6	53.8236	15455.6	52.6349	15455.6	50.7544	15455.6	56.7308	15455.6	49.1096	15455.6	56.0282	15455.6	50.4199	15455.6	54.8408	15455.6	44.6095	15455.6	51.5103	15455.6	36.3137	15455.6	55.4827	15455.6	45.4761	15455.6	57.6591	15455.6	49.4185	15455.6	47.4114
16000.5	89.6452	16000.5	88.7068	16000.5	88.5056	16000.5	86.0223	16000.5	85.9991	16000.5	82.3756	16000.5	81.6274	16000.5	77.2495	16000.5	76.7291	16000.5	73.7829	16000.5	75.3496	16000.5	70.198	16000.5	73.1733	16000.5	68.6375	16000.5	73.0648	16000.5	63.7279	16000.5	59.2159	16000.5	57.7011	16000.5	59.7407	16000.5	55.9379	16000.5	48.8471	16000.5	53.5746	16000.5	38.5567	16000.5	55.6679	16000.5	48.3407	16000.5	56.6758	16000.5	47.8439	16000.5	53.7598	16000.5	43.0483	16000.5	50.0016	16000.5	44.0134	16000.5	52.0774	16000.5	48.6085	16000.5	57.6403	16000.5	50.38	16000.5	46.0226
16564.5	88.47	16564.5	87.6889	16564.5	87.171	16564.5	85.1075	16564.5	84.1393	16564.5	82.43	16564.5	80.8241	16564.5	77.0466	16564.5	77.5117	16564.5	74.585	16564.5	72.841	16564.5	69.6061	16564.5	74.1375	16564.5	68.4779	16564.5	71.4953	16564.5	65.2715	16564.5	62.051	16564.5	59.6708	16564.5	55.2075	16564.5	56.2022	16564.5	47.5728	16564.5	54.7868	16564.5	34.3078	16564.5	55.8251	16564.5	39.1266	16564.5	56.4172	16564.5	49.1075	16564.5	54.212	16564.5	47.8802	16564.5	51.6525	16564.5	38.5871	16564.5	50.5113	16564.5	42.3996	16564.5	56.7085	16564.5	50.9186	16564.5	47.2334
17148.9	87.8885	17148.9	87.4169	17148.9	86.9336	17148.9	85.1894	17148.9	83.5334	17148.9	82.1625	17148.9	81.0324	17148.9	77.5435	17148.9	78.0568	17148.9	74.4294	17148.9	73.9977	17148.9	69.4964	17148.9	74.1106	17148.9	68.4395	17148.9	66.7612	17148.9	64.8059	17148.9	61.2417	17148.9	59.1327	17148.9	53.1223	17148.9	54.7496	17148.9	50.0666	17148.9	52.8834	17148.9	43.9179	17148.9	53.4285	17148.9	46.6977	17148.9	54.967	17148.9	45.7208	17148.9	52.3807	17148.9	46.6182	17148.9	50.9942	17148.9	42.1286	17148.9	48.1892	17148.9	45.8271	17148.9	52.9203	17148.9	48.5333	17148.9	44.3656
17752.4	88.404	17752.4	87.699	17752.4	87.2672	17752.4	85.5344	17752.4	84.1345	17752.4	81.5886	17752.4	81.1364	17752.4	77.4594	17752.4	77.2661	17752.4	73.1578	17752.4	74.8919	17752.4	68.4248	17752.4	72.0074	17752.4	67.0385	17752.4	68.1817	17752.4	61.6536	17752.4	57.4583	17752.4	54.7288	17752.4	51.9767	17752.4	49.8787	17752.4	41.0388	17752.4	45.4482	17752.4	40.7036	17752.4	48.4721	17752.4	43.0407	17752.4	50.0906	17752.4	43.8676	17752.4	50.4464	17752.4	48.8575	17752.4	48.5518	17752.4	44.5282	17752.4	41.7079	17752.4	37.2526	17752.4	50.7474	17752.4	42.9949	17752.4	42.2573
18379.4	88.5002	18379.4	87.7908	18379.4	87.0972	18379.4	85.6455	18379.4	84.1816	18379.4	80.9101	18379.4	80.8084	18379.4	76.4308	18379.4	76.214	18379.4	69.6806	18379.4	74.0306	18379.4	65.3259	18379.4	71.1219	18379.4	63.7791	18379.4	62.4177	18379.4	58.7399	18379.4	54.792	18379.4	53.2056	18379.4	46.724	18379.4	47.9541	18379.4	37.7545	18379.4	36.8429	18379.4	36.8137	18379.4	48.4234	18379.4	32.1779	18379.4	37.744	18379.4	41.7234	18379.4	48.9433	18379.4	45.2331	18379.4	48.8411	18379.4	46.9394	18379.4	32.6712	18379.4	19.2746	18379.4	43.5983	18379.4	40.2689	18379.4	41.0968
19026.9	88.2615	19026.9	87.4993	19026.9	86.8962	19026.9	84.8258	19026.9	84.0061	19026.9	79.3528	19026.9	80.2412	19026.9	74.2976	19026.9	75.5514	19026.9	64.4853	19026.9	71.9571	19026.9	63.2184	19026.9	66.6402	19026.9	60.8941	19026.9	55.9434	19026.9	57.5042	19026.9	42.1988	19026.9	53.0922	19026.9	40.7123	19026.9	47.3392	19026.9	43.2791	19026.9	44.0928	19026.9	38.8467	19026.9	48.719	19026.9	42.09	19026.9	36.394	19026.9	38.5842	19026.9	48.579	19026.9	46.1641	19026.9	47.61	19026.9	46.2403	19026.9	39.639	19026.9	38.7472	19026.9	39.4106	19026.9	46.7432	19026.9	38.2974
19697.8	87.9993	19697.8	87.0291	19697.8	86.5855	19697.8	83.5481	19697.8	83.4547	19697.8	76.5435	19697.8	79.022	19697.8	69.5044	19697.8	73.4333	19697.8	62.6107	19697.8	68.4389	19697.8	61.6368	19697.8	53.6415	19697.8	59.6114	19697.8	60.7304	19697.8	56.0835	19697.8	51.1678	19697.8	51.6838	19697.8	42.7515	19697.8	46.1567	19697.8	41.6429	19697.8	43.8264	19697.8	44.6761	19697.8	49.1923	19697.8	32.7413	19697.8	41.2044	19697.8	39.4939	19697.8	47.6641	19697.8	44.1726	19697.8	46.4423	19697.8	42.9268	19697.8	43.0866	19697.8	46.5334	19697.8	35.4607	19697.8	49.6572	19697.8	41.8768
19999.5	87.6815	19999.5	86.8819	19999.5	86.4036	19999.5	83.188	19999.5	83.1292	19999.5	75.3971	19999.5	78.1444	19999.5	67.3561	19999.5	70.8392	19999.5	63.6622	19999.5	65.9672	19999.5	59.1749	19999.5	44.7874	19999.5	57.2004	19999.5	59.5619	19999.5	54.5121	19999.5	51.1653	19999.5	51.2267	19999.5	53.9167	19999.5	43.4788	19999.5	50.078	19999.5	45.0492	19999.5	45.671	19999.5	50.8596	19999.5	46.5275	19999.5	40.3326	19999.5	47.568	19999.5	46.8571	19999.5	56.6789	19999.5	49.166	19999.5	45.7077	19999.5	41.8923	19999.5	47.439	19999.5	50.5081	19999.5	50.1646	19999.5	48.7429
