Freq[Hz]     dBSPL  Phase[Deg]
5.00000     20.050  -168.586
5.07273     20.084  -168.226
5.14651     20.124  -167.955
5.22137     20.177  -167.931
5.29732     20.231  -167.907
5.37437     20.284  -167.883
5.45254     20.338  -167.859
5.53185     20.371  -168.003
5.61231     20.384  -168.322
5.69394     20.397  -168.642
5.77676     20.409  -168.962
5.86079     20.421  -169.282
5.94604     20.350  -169.573
6.03252     20.280  -169.864
6.12027     20.209  -170.156
6.20929     20.139  -170.447
6.29961     20.021  -170.241
6.39124     19.893  -169.924
6.48420     19.765  -169.608
6.57851     19.637  -169.291
6.67420     19.565  -168.253
6.77128     19.502  -167.099
6.86977     19.439  -165.944
6.96969     19.396  -164.793
7.07107     19.510  -163.667
7.17392     19.624  -162.541
7.27827     19.737  -161.416
7.38413     19.899  -160.959
7.49154     20.097  -161.018
7.60050     20.295  -161.078
7.71105     20.473  -161.362
7.82321     20.558  -162.638
7.93701     20.643  -163.914
8.05245     20.728  -165.190
8.16958     20.570  -166.699
8.28841     20.403  -168.217
8.40896     20.236  -169.735
8.53128     19.831  -169.855
8.65537     19.396  -169.796
8.78126     18.961  -169.736
8.90899     18.632  -166.187
9.03857     18.309  -162.410
9.17004     18.078  -158.554
9.30342     18.567  -154.069
9.43874     19.057  -149.584
9.57603     19.707  -147.015
9.71532     20.601  -147.373
9.85663     21.495  -147.731
10.0000     22.161  -151.365
10.1455     22.763  -155.911
10.2930     23.244  -161.119
10.4427     23.383  -168.177
10.5946     23.522  -175.235
10.7487     23.249   176.270
10.9051     22.894   167.487
11.0637     22.227   157.939
11.2246     21.230   147.583
11.3879     20.006   136.718
11.5535     17.952   123.999
11.7216     15.852   111.083
11.8921     11.010    86.561
12.0650      6.168    62.038
12.2405      7.146    -2.755
12.4186      8.874   -72.740
12.5992     11.637  -102.436
12.7825     14.629  -123.197
12.9684     16.112  -141.976
13.1570     17.243  -160.293
13.3484     17.797   179.619
13.5426     18.258   159.245
13.7395     18.685   136.779
13.9394     19.144   114.306
14.1421     19.861    92.388
14.3478     20.614    71.553
14.5565     21.444    53.047
14.7683     22.187    36.800
14.9831     22.862    22.299
15.2010     23.343    10.986
15.4221     23.769     0.839
15.6464     24.099    -6.581
15.8740     24.467   -12.662
16.1049     24.865   -17.673
16.3392     25.415   -21.991
16.5768     25.994   -26.581
16.8179     26.604   -31.605
17.0626     27.103   -37.620
17.3107     27.480   -44.053
17.5625     27.695   -50.929
17.8180     27.579   -57.876
18.0771     27.225   -64.455
18.3401     26.610   -70.459
18.6068     25.549   -74.730
18.8775     24.074   -75.616
19.1521     22.407   -71.256
19.4306     20.819   -59.953
19.7133     21.070   -39.695
20.0000     22.954   -26.784
20.2909     25.236   -21.556
20.5860     27.286   -23.059
20.8855     28.808   -28.402
21.1893     29.664   -35.647
21.4975     29.957   -42.944
21.8102     29.715   -49.009
22.1274     28.999   -52.103
22.4492     28.077   -50.170
22.7758     27.526   -42.359
23.1071     28.071   -31.901
23.4432     29.553   -26.053
23.7841     30.998   -26.438
24.1301     31.956   -29.613
24.4811     32.411   -32.883
24.8372     32.525   -34.231
25.1984     32.625   -32.682
25.5649     33.073   -29.312
25.9368     33.931   -26.701
26.3141     34.935   -26.438
26.6968     35.789   -28.088
27.0851     36.383   -30.198
27.4791     36.792   -31.382
27.8788     37.228   -31.235
28.2843     37.842   -30.716
28.6957     38.587   -31.040
29.1131     39.302   -32.573
29.5365     39.856   -34.686
29.9661     40.241   -36.367
30.4020     40.570   -36.914
30.8442     41.022   -36.492
31.2929     41.629   -36.245
31.7480     42.294   -36.808
32.2098     42.899   -38.008
32.6783     43.397   -39.083
33.1536     43.885   -39.535
33.6359     44.459   -39.631
34.1251     45.137   -40.112
34.6215     45.819   -41.368
35.1250     46.421   -43.017
35.6359     46.933   -44.387
36.1543     47.451   -45.231
36.6802     48.045   -45.904
37.2137     48.698   -46.952
37.7550     49.333   -48.418
38.3041     49.917   -49.962
38.8613     50.490   -51.311
39.4265     51.093   -52.576
40.0000     51.719   -54.014
40.5818     52.339   -55.646
41.1721     52.948   -57.332
41.7710     53.560   -59.057
42.3785     54.174   -60.925
42.9949     54.771   -62.890
43.6203     55.354   -64.834
44.2548     55.945   -66.739
44.8985     56.544   -68.724
45.5515     57.140   -70.804
46.2141     57.733   -72.909
46.8863     58.331   -75.030
47.5683     58.937   -77.265
48.2602     59.540   -79.639
48.9621     60.132   -82.070
49.6743     60.720   -84.502
50.3968     61.316   -86.971
51.1299     61.917   -89.536
51.8736     62.519   -92.218
52.6281     63.115   -95.003
53.3936     63.706   -97.863
54.1702     64.295  -100.775
54.9581     64.888  -103.777
55.7575     65.478  -106.925
56.5685     66.055  -110.169
57.3914     66.628  -113.459
58.2261     67.200  -116.860
59.0730     67.759  -120.380
59.9323     68.306  -123.913
60.8040     68.861  -127.490
61.6884     69.418  -131.217
62.5857     69.969  -135.086
63.4960     70.516  -139.133
64.4196     71.045  -143.386
65.3566     71.543  -147.788
66.3073     72.012  -152.230
67.2717     72.462  -156.657
68.2502     72.903  -161.119
69.2429     73.327  -165.637
70.2501     73.744  -170.159
71.2719     74.164  -174.801
72.3086     74.563  -179.626
73.3603     74.934   175.438
74.4274     75.272   170.446
75.5099     75.587   165.478
76.6083     75.883   160.453
77.7226     76.146   155.440
78.8531     76.395   150.511
80.0000     76.634   145.528
81.1636     76.850   140.537
82.3442     77.049   135.497
83.5419     77.215   130.444
84.7570     77.352   125.491
85.9899     77.473   120.639
87.2406     77.589   115.839
88.5096     77.690   111.021
89.7970     77.771   106.180
91.1031     77.820   101.327
92.4282     77.823    96.558
93.7726     77.782    92.095
95.1366     77.738    88.123
96.5204     77.748    84.437
97.9243     77.798    80.589
99.3486     77.843    76.646
100.794     77.883    72.633
102.260     77.911    68.634
103.747     77.932    64.629
105.256     77.941    60.659
106.787     77.946    56.685
108.340     77.933    52.734
109.916     77.902    48.842
111.515     77.855    45.174
113.137     77.836    41.666
114.783     77.824    38.069
116.452     77.806    34.532
118.146     77.796    31.021
119.865     77.789    27.509
121.608     77.784    23.997
123.377     77.784    20.473
125.171     77.783    16.867
126.992     77.774    13.223
128.839     77.754     9.599
130.713     77.728     5.871
132.615     77.652     2.204
134.543     77.592    -1.058
136.500     77.584    -4.499
138.486     77.565    -7.811
140.500     77.514   -11.404
142.544     77.439   -15.052
144.617     77.388   -18.201
146.721     77.366   -21.263
148.855     77.370   -24.831
151.020     77.330   -28.592
153.217     77.271   -32.169
155.445     77.193   -35.770
157.706     77.064   -39.256
160.000     76.926   -42.134
162.327     76.914   -45.069
164.688     76.880   -48.163
167.084     76.897   -51.185
169.514     76.885   -55.986
171.980     76.561   -59.719
174.481     76.392   -61.696
177.019     76.350   -63.811
179.594     76.351   -66.473
182.206     76.325   -69.295
184.856     76.369   -72.152
187.545     76.407   -75.060
190.273     76.462   -78.329
193.041     76.493   -81.969
195.849     76.457   -85.450
198.697     76.427   -89.005
201.587     76.379   -92.576
204.520     76.306   -95.830
207.494     76.302   -98.894
210.512     76.329  -102.752
213.574     76.166  -107.318
216.681     75.935  -109.769
219.833     75.854  -112.019
223.030     75.872  -114.991
226.274     75.825  -118.415
229.565     75.673  -121.310
232.905     75.610  -123.556
236.292     75.644  -125.898
239.729     75.694  -128.947
243.216     75.665  -132.215
246.754     75.632  -134.794
250.343     75.684  -137.681
253.984     75.697  -141.049
257.678     75.672  -144.122
261.426     75.684  -147.355
265.229     75.632  -151.217
269.087     75.416  -153.911
273.001     75.392  -155.726
276.972     75.413  -158.524
281.000     75.414  -160.960
285.088     75.449  -163.861
289.234     75.477  -167.009
293.441     75.435  -170.753
297.709     75.158  -172.891
302.040     75.209  -175.322
306.433     75.021  -176.607
310.890     75.253  -178.556
315.412     75.356   177.928
320.000     75.293   173.568
324.655     74.867   171.571
329.377     74.845   171.119
334.168     75.027   169.352
339.028     75.026   166.259
343.959     75.053   164.081
348.962     75.080   161.432
354.038     75.012   158.696
359.188     74.969   155.639
364.412     74.766   154.172
369.713     74.806   152.353
375.090     74.840   150.380
380.546     74.880   148.326
386.081     74.921   145.281
391.697     74.865   142.781
397.394     74.809   140.300
403.175     74.760   137.740
409.039     74.634   135.310
414.989     74.558   133.416
421.025     74.522   131.651
427.149     74.551   129.451
433.362     74.451   127.224
439.665     74.449   124.821
446.060     74.324   122.263
452.548     74.234   120.514
459.131     74.126   118.078
465.809     73.975   116.121
472.584     73.923   114.784
479.458     73.864   113.000
486.432     73.814   111.240
493.507     73.768   109.415
500.686     73.701   107.833
507.968     73.711   106.239
515.357     73.679   104.503
522.853     73.675   102.889
530.458     73.679   101.319
538.174     73.706    99.657
546.002     73.720    97.990
553.943     73.741    96.344
562.001     73.763    94.679
570.175     73.778    93.012
578.469     73.782    91.327
586.883     73.770    89.674
595.419     73.743    88.079
604.080     73.699    86.534
612.866     73.640    85.071
621.780     73.565    83.727
630.824     73.477    82.539
640.000     73.384    81.561
649.309     73.291    80.812
658.753     73.204    80.294
668.335     73.131    80.013
678.056     73.085    79.970
687.919     73.077    80.129
697.925     73.115    80.428
708.077     73.205    80.783
718.376     73.351    81.102
728.825     73.551    81.288
739.426     73.799    81.248
750.181     74.084    80.908
761.093     74.394    80.219
772.163     74.711    79.176
783.394     75.025    77.768
794.789     75.331    75.986
806.349     75.608    73.919
818.078     75.853    71.580
829.977     76.060    69.023
842.050     76.222    66.300
854.298     76.336    63.470
866.724     76.400    60.634
879.330     76.415    57.770
892.120     76.381    54.986
905.097     76.299    52.346
918.262     76.176    49.914
931.618     76.019    47.750
945.169     75.837    45.903
958.917     75.645    44.404
972.864     75.457    43.258
987.015     75.289    42.438
1001.37     75.148    41.868
1015.94     75.051    41.458
1030.71     75.003    41.086
1045.71     74.996    40.622
1060.92     75.018    39.964
1076.35     75.053    39.073
1092.00     75.082    37.933
1107.89     75.088    36.568
1124.00     75.057    35.071
1140.35     74.980    33.553
1156.94     74.852    32.131
1173.77     74.679    30.966
1190.84     74.474    30.196
1208.16     74.261    29.927
1225.73     74.069    30.212
1243.56     73.936    31.007
1261.65     73.899    32.136
1280.00     73.974    33.316
1298.62     74.157    34.235
1317.51     74.426    34.637
1336.67     74.742    34.360
1356.11     75.062    33.378
1375.84     75.353    31.754
1395.85     75.588    29.619
1416.15     75.747    27.162
1436.75     75.826    24.565
1457.65     75.825    21.979
1478.85     75.753    19.566
1500.36     75.626    17.478
1522.19     75.465    15.787
1544.33     75.295    14.530
1566.79     75.141    13.672
1589.58     75.026    13.109
1612.70     74.958    12.699
1636.16     74.938    12.292
1659.95     74.954    11.779
1684.10     74.995    11.107
1708.60     75.049    10.266
1733.45     75.110     9.274
1758.66     75.175     8.116
1784.24     75.240     6.775
1810.19     75.299     5.220
1836.52     75.335     3.400
1863.24     75.329     1.354
1890.34     75.257    -0.803
1917.83     75.105    -2.859
1945.73     74.875    -4.518
1974.03     74.597    -5.480
2002.74     74.335    -5.543
2031.87     74.174    -4.816
2061.43     74.178    -3.794
2091.41     74.348    -3.184
2121.83     74.614    -3.539
2152.69     74.871    -4.960
2184.01     75.039    -7.157
2215.77     75.077    -9.595
2248.00     75.003   -11.685
2280.70     74.888   -13.034
2313.87     74.830   -13.642
2347.53     74.911   -14.004
2381.68     75.135   -14.884
2416.32     75.423   -16.851
2451.46     75.667   -19.996
2487.12     75.778   -23.979
2523.30     75.713   -28.233
2560.00     75.481   -32.146
2597.24     75.142   -35.203
2635.01     74.787   -37.216
2673.34     74.515   -38.419
2712.23     74.377   -39.426
2751.68     74.343   -40.890
2791.70     74.333   -43.102
2832.31     74.268   -45.921
2873.50     74.111   -48.945
2915.30     73.873   -51.773
2957.70     73.596   -54.197
3000.72     73.331   -56.235
3044.37     73.104   -58.094
3088.65     72.916   -60.015
3133.58     72.747   -62.144
3179.16     72.571   -64.538
3225.40     72.364   -67.135
3272.31     72.112   -69.754
3319.91     71.824   -72.221
3368.20     71.528   -74.477
3417.19     71.241   -76.607
3466.89     70.958   -78.695
3517.32     70.678   -80.685
3568.48     70.430   -82.577
3620.39     70.229   -84.728
3673.05     70.010   -87.529
3726.47     69.658   -90.705
3780.67     69.141   -93.262
3835.67     68.587   -94.342
3891.46     68.192   -94.275
3948.06     67.998   -94.304
4005.49     67.881   -95.054
4063.75     67.748   -96.211
4122.86     67.599   -97.398
4182.82     67.443   -98.525
4243.66     67.272   -99.424
4305.39     67.118   -99.761
4368.01     67.068   -99.455
4431.55     67.207   -99.065
4496.01     67.502   -99.561
4561.40     67.788  -101.172
4627.75     67.976  -102.945
4695.06     68.191  -104.102
4763.35     68.572  -105.321
4832.64     69.049  -107.675
4902.93     69.460  -111.084
4974.24     69.764  -114.686
5046.60     70.051  -118.002
5120.00     70.406  -121.583
5194.47     70.741  -126.094
5270.03     70.932  -131.089
5346.68     70.997  -135.833
5424.45     70.989  -140.174
5503.35     70.945  -143.976
5583.40     70.924  -147.622
5664.61     70.803  -151.513
5747.01     70.529  -154.159
5830.60     70.422  -155.241
5915.41     70.508  -157.120
6001.45     70.475  -159.797
6088.74     70.315  -161.827
6177.30     70.137  -162.866
6267.15     70.032  -163.019
6358.31     70.045  -162.711
6450.80     70.194  -162.438
6544.62     70.387  -162.725
6639.82     70.574  -162.919
6736.40     70.832  -163.391
6834.38     71.021  -164.239
6933.79     71.173  -164.544
7034.64     71.385  -164.284
7136.96     71.764  -163.948
7240.77     72.258  -164.653
7346.09     72.733  -166.597
7452.94     73.071  -169.445
7561.35     73.229  -172.631
7671.33     73.159  -175.304
7782.91     72.990  -176.778
7896.12     72.754  -176.678
8010.97     72.746  -175.510
8127.49     72.674  -174.344
8245.71     72.920  -171.278
8365.65     73.456  -171.184
8487.33     73.677  -172.601
8610.78     73.783  -173.342
8736.03     73.853  -174.547
8863.09     73.847  -175.637
8992.01     73.708  -177.289
9122.80     73.434  -177.773
9255.50     73.204  -177.374
9390.12     73.090  -176.760
9526.70     73.002  -175.631
9665.27     73.105  -174.496
9805.86     73.303  -173.455
9948.49     73.652  -173.055
10093.2     74.056  -173.541
10240.0     74.390  -175.194
10388.9     74.519  -176.904
10540.1     74.579  -177.310
10693.4     74.752  -177.563
10848.9     74.916  -177.974
11006.7     75.098  -178.362
11166.8     75.242  -179.369
11329.2     75.314  -179.406
11494.0     75.565   179.743
11661.2     75.541   178.580
11830.8     75.604   178.885
12002.9     75.733   178.589
12177.5     75.878   178.260
12354.6     76.045   177.149
12534.3     75.972   175.480
12716.6     75.854   176.024
12901.6     75.970   175.964
13089.2     75.976   175.601
13279.6     76.052   175.882
13472.8     76.243   175.251
13668.8     76.344   173.279
13867.6     76.201   171.264
14069.3     75.929   170.184
14273.9     75.675   169.949
14481.5     75.451   170.210
14692.2     75.304   170.796
14905.9     75.257   170.916
15122.7     75.205   170.324
15342.7     75.044   168.811
15565.8     74.639   167.658
15792.2     74.224   167.939
16021.9     73.929   168.472
16255.0     73.702   168.294
16491.4     73.341   167.326
16731.3     72.881   166.431
16974.7     72.230   165.366
17221.6     71.400   165.154
17472.1     70.385   166.382
17726.2     69.432   169.663
17984.0     68.567   174.184
18245.6     67.894   179.889
18511.0     67.508  -174.368
18780.2     67.230  -169.753
19053.4     66.888  -165.326
19330.5     66.507  -159.555
19611.7     66.795  -149.089
19897.0     69.943  -156.654
20186.4     66.354  -179.497
20480.0     63.036  -165.881
20777.9     61.891  -147.724
21080.1     62.528  -133.589
21386.7     63.357  -129.709
21697.8     63.410  -130.194
22013.4     62.649  -130.502
22333.6     61.511  -128.054
22658.4     60.104  -124.011
22988.0     58.068  -116.862
23322.4     55.666   -98.151
23661.6     55.417   -67.581
24005.8     57.703   -45.474
24355.0     60.180   -36.782
24709.2     61.956   -33.668
25068.6     63.183   -32.570
25433.2     64.056   -31.664
25803.2     64.818   -30.374
26178.5     65.749   -29.769
26559.3     66.646   -31.740
26945.6     67.755   -34.331
27337.5     65.926   -60.678
27735.2     64.202   -34.225
28138.6     65.114   -29.912
28547.9     65.450   -27.791
28963.1     65.515   -25.600
29384.4     65.601   -23.188
29811.8     65.330   -21.123
30245.4     65.201   -14.869
30685.3     65.540   -10.527
31131.7     65.926    -8.498
31584.5     66.140    -9.117
32043.9     65.836   -11.221
32510.0     65.143   -11.289
32982.8     64.608   -10.889
33462.6     63.800    -8.388
33949.3     63.507   -15.498
34443.1     61.241     1.960
34944.1     63.246    -5.067
35452.4     61.713   -15.449
35968.0     59.555   -19.810
36491.2     56.962   -21.582
37022.0     53.666   -18.497
37560.5     50.301    -6.406
38106.8     47.674    13.694
38661.1     46.622    37.042
39223.4     47.022    55.545
39793.9     48.649    61.424
