Freq[Hz]     dBSPL  Phase[Deg]
5.00000     15.195  -169.642
5.07273     15.230  -169.297
5.14651     15.270  -169.041
5.22137     15.324  -169.033
5.29732     15.378  -169.025
5.37437     15.432  -169.017
5.45254     15.485  -169.010
5.53185     15.519  -169.169
5.61231     15.532  -169.506
5.69394     15.545  -169.843
5.77676     15.558  -170.180
5.86079     15.570  -170.516
5.94604     15.500  -170.826
6.03252     15.430  -171.136
6.12027     15.360  -171.445
6.20929     15.290  -171.755
6.29961     15.172  -171.567
6.39124     15.045  -171.270
6.48420     14.917  -170.972
6.57851     14.789  -170.675
6.67420     14.717  -169.657
6.77128     14.655  -168.523
6.86977     14.592  -167.388
6.96969     14.550  -166.257
7.07107     14.665  -165.153
7.17392     14.779  -164.049
7.27827     14.893  -162.945
7.38413     15.055  -162.509
7.49154     15.254  -162.591
7.60050     15.453  -162.673
7.71105     15.631  -162.980
7.82321     15.717  -164.279
7.93701     15.802  -165.578
8.05245     15.888  -166.877
8.16958     15.730  -168.411
8.28841     15.564  -169.953
8.40896     15.397  -171.495
8.53128     14.993  -171.641
8.65537     14.559  -171.607
8.78126     14.125  -171.572
8.90899     13.796  -168.050
9.03857     13.475  -164.299
9.17004     13.244  -160.470
9.30342     13.734  -156.012
9.43874     14.225  -151.554
9.57603     14.875  -149.012
9.71532     15.771  -149.399
9.85663     16.666  -149.785
10.0000     17.333  -153.448
10.1455     17.936  -158.023
10.2930     18.417  -163.261
10.4427     18.557  -170.349
10.5946     18.698  -177.437
10.7487     18.426   174.037
10.9051     18.073   165.223
11.0637     17.407   155.644
11.2246     16.411   145.255
11.3879     15.188   134.358
11.5535     13.135   121.606
11.7216     11.036   108.657
11.8921      6.196    84.101
12.0650      1.355    59.545
12.2405      2.334    -5.283
12.4186      4.064   -75.303
12.5992      6.829  -105.034
12.7825      9.822  -125.830
12.9684     11.306  -144.646
13.1570     12.439  -162.999
13.3484     12.995   176.876
13.5426     13.457   156.464
13.7395     13.886   133.960
13.9394     14.347   111.449
14.1421     15.066    89.492
14.3478     15.820    68.618
14.5565     16.653    50.072
14.7683     17.398    33.785
14.9831     18.074    19.243
15.2010     18.557     7.889
15.4221     18.986    -2.299
15.6464     19.318    -9.761
15.8740     19.687   -15.884
16.1049     20.088   -20.938
16.3392     20.641   -25.299
16.5768     21.222   -29.933
16.8179     21.835   -35.002
17.0626     22.336   -41.062
17.3107     22.715   -47.540
17.5625     22.934   -54.461
17.8180     22.819   -61.454
18.0771     22.469   -68.080
18.3401     21.856   -74.132
18.6068     20.799   -78.450
18.8775     19.327   -79.384
19.1521     17.663   -75.072
19.4306     16.078   -63.818
19.7133     16.333   -43.609
20.0000     18.219   -30.748
20.2909     20.505   -25.570
20.5860     22.558   -27.124
20.8855     24.085   -32.519
21.1893     24.943   -39.815
21.4975     25.241   -47.164
21.8102     25.002   -53.282
22.1274     24.290   -56.429
22.4492     23.372   -54.549
22.7758     22.825   -46.792
23.1071     23.375   -36.388
23.4432     24.861   -30.594
23.7841     26.310   -31.034
24.1301     27.272   -34.264
24.4811     27.731   -37.591
24.8372     27.851   -38.994
25.1984     27.956   -37.502
25.5649     28.408   -34.189
25.9368     29.271   -31.636
26.3141     30.280   -31.429
26.6968     31.140   -33.138
27.0851     31.739   -35.306
27.4791     32.152   -36.548
27.8788     32.594   -36.460
28.2843     33.213   -36.000
28.6957     33.965   -36.384
29.1131     34.686   -37.977
29.5365     35.245   -40.149
29.9661     35.637   -41.891
30.4020     35.971   -42.499
30.8442     36.429   -42.138
31.2929     37.043   -41.952
31.7480     37.714   -42.575
32.2098     38.326   -43.838
32.6783     38.830   -44.974
33.1536     39.325   -45.488
33.6359     39.906   -45.645
34.1251     40.590   -46.188
34.6215     41.280   -47.507
35.1250     41.888   -49.218
35.6359     42.408   -50.651
36.1543     42.933   -51.558
36.6802     43.535   -52.293
37.2137     44.195   -53.404
37.7550     44.839   -54.933
38.3041     45.430   -56.539
38.8613     46.011   -57.951
39.4265     46.622   -59.279
40.0000     47.256   -60.780
40.5818     47.884   -62.475
41.1721     48.501   -64.224
41.7710     49.123   -66.012
42.3785     49.744   -67.943
42.9949     50.349   -69.970
43.6203     50.942   -71.977
44.2548     51.540   -73.945
44.8985     52.148   -75.992
45.5515     52.754   -78.135
46.2141     53.355   -80.302
46.8863     53.962   -82.486
47.5683     54.578   -84.783
48.2602     55.190   -87.219
48.9621     55.790   -89.712
49.6743     56.387   -92.206
50.3968     56.993   -94.736
51.1299     57.603   -97.364
51.8736     58.214  -100.107
52.6281     58.821  -102.954
53.3936     59.420  -105.875
54.1702     60.020  -108.847
54.9581     60.621  -111.911
55.7575     61.222  -115.120
56.5685     61.808  -118.425
57.3914     62.391  -121.776
58.2261     62.972  -125.237
59.0730     63.540  -128.818
59.9323     64.098  -132.412
60.8040     64.662  -136.049
61.6884     65.228  -139.836
62.5857     65.789  -143.765
63.4960     66.346  -147.872
64.4196     66.885  -152.186
65.3566     67.393  -156.649
66.3073     67.870  -161.151
67.2717     68.330  -165.638
68.2502     68.781  -170.161
69.2429     69.214  -174.740
70.2501     69.641  -179.322
71.2719     70.070   175.975
72.3086     70.478   171.089
73.3603     70.859   166.092
74.4274     71.206   161.038
75.5099     71.530   156.009
76.6083     71.835   150.921
77.7226     72.107   145.846
78.8531     72.365   140.855
80.0000     72.612   135.809
81.1636     72.839   130.754
82.3442     73.046   125.650
83.5419     73.220   120.533
84.7570     73.365   115.515
85.9899     73.495   110.597
87.2406     73.619   105.731
88.5096     73.729   100.846
89.7970     73.818    95.937
91.1031     73.875    91.016
92.4282     73.886    86.178
93.7726     73.852    81.645
95.1366     73.817    77.603
96.5204     73.834    73.844
97.9243     73.891    69.923
99.3486     73.944    65.907
100.794     73.991    61.819
102.260     74.027    57.744
103.747     74.054    53.661
105.256     74.071    49.613
106.787     74.082    45.560
108.340     74.076    41.527
109.916     74.052    37.552
111.515     74.011    33.801
113.137     73.998    30.207
114.783     73.991    26.524
116.452     73.981    22.898
118.146     73.976    19.296
119.865     73.975    15.692
121.608     73.976    12.086
123.377     73.981     8.466
125.171     73.985     4.763
126.992     73.980     1.019
128.839     73.966    -2.707
130.713     73.944    -6.539
132.615     73.873   -10.312
134.543     73.819   -13.684
136.500     73.815   -17.240
138.486     73.800   -20.655
140.500     73.753   -24.364
142.544     73.683   -28.139
144.617     73.636   -31.405
146.721     73.617   -34.585
148.855     73.624   -38.283
151.020     73.588   -42.175
153.217     73.533   -45.884
155.445     73.457   -49.618
157.706     73.332   -53.238
160.000     73.196   -56.262
162.327     73.187   -59.345
164.688     73.155   -62.575
167.084     73.175   -65.748
169.514     73.165   -70.711
171.980     72.844   -74.609
174.481     72.676   -76.739
177.019     72.636   -79.009
179.594     72.638   -81.839
182.206     72.614   -84.843
184.856     72.659   -87.883
187.545     72.698   -90.964
190.273     72.754   -94.419
193.041     72.786   -98.248
195.849     72.750  -101.919
198.697     72.721  -105.678
201.587     72.673  -109.455
204.520     72.600  -112.917
207.494     72.595  -116.191
210.512     72.622  -120.275
213.574     72.458  -125.067
216.681     72.225  -127.734
219.833     72.143  -130.216
223.030     72.159  -133.435
226.274     72.110  -137.109
229.565     71.955  -140.256
232.905     71.889  -142.757
236.292     71.920  -145.356
239.729     71.966  -148.679
243.216     71.933  -152.223
246.754     71.896  -155.082
250.343     71.943  -158.267
253.984     71.950  -161.936
257.678     71.919  -165.314
261.426     71.923  -168.869
265.229     71.863  -173.058
269.087     71.639  -176.082
273.001     71.605  -178.231
276.972     71.617   178.633
281.000     71.605   175.839
285.088     71.628   172.559
289.234     71.642   169.027
293.441     71.584   164.895
297.709     71.291   162.365
302.040     71.324   159.536
306.433     71.117   157.831
310.890     71.326   155.439
315.412     71.405   151.476
320.000     71.316   146.663
324.655     70.861   144.209
329.377     70.809   143.295
334.168     70.954   141.025
339.028     70.914   137.426
343.959     70.899   134.737
348.962     70.881   131.575
354.038     70.763   128.326
359.188     70.665   124.738
364.412     70.399   122.723
369.713     70.371   120.361
375.090     70.332   117.854
380.546     70.290   115.259
386.081     70.243   111.691
391.697     70.089   108.675
397.394     69.922   105.694
403.175     69.759   102.689
409.039     69.508    99.853
414.989     69.295    97.603
421.025     69.112    95.563
427.149     68.991    93.177
433.362     68.735    90.871
439.665     68.565    88.513
446.060     68.273    86.143
452.548     68.020    84.733
459.131     67.754    82.805
465.809     67.458    81.531
472.584     67.281    81.021
479.458     67.126    80.182
486.432     67.009    79.472
493.507     66.931    78.756
500.686     66.869    78.290
507.968     66.920    77.733
515.357     66.962    76.907
522.853     67.061    76.061
530.458     67.191    75.079
538.174     67.357    73.796
546.002     67.518    72.299
553.943     67.692    70.620
562.001     67.867    68.721
570.175     68.031    66.623
578.469     68.176    64.319
586.883     68.292    61.888
595.419     68.376    59.371
604.080     68.428    56.755
612.866     68.444    54.081
621.780     68.422    51.396
630.824     68.360    48.754
640.000     68.262    46.259
649.309     68.129    43.963
658.753     67.965    41.879
668.335     67.770    40.038
678.056     67.562    38.574
687.919     67.350    37.509
697.925     67.151    36.871
708.077     66.990    36.664
718.376     66.883    36.820
728.825     66.851    37.231
739.426     66.908    37.735
750.181     67.057    38.138
761.093     67.291    38.245
772.163     67.588    37.907
783.394     67.928    37.027
794.789     68.292    35.534
806.349     68.646    33.483
818.078     68.976    30.885
829.977     69.266    27.810
842.050     69.503    24.325
854.298     69.677    20.512
866.724     69.780    16.511
879.330     69.808    12.288
892.120     69.756     7.991
905.097     69.621     3.714
918.262     69.401    -0.441
931.618     69.099    -4.359
945.169     68.719    -7.916
958.917     68.270   -10.975
972.864     67.772   -13.402
987.015     67.250   -15.078
1001.37     66.732   -15.954
1015.94     66.277   -16.054
1030.71     65.930   -15.593
1045.71     65.712   -14.907
1060.92     65.622   -14.407
1076.35     65.630   -14.457
1092.00     65.682   -15.244
1107.89     65.723   -16.809
1124.00     65.703   -19.022
1140.35     65.586   -21.669
1156.94     65.342   -24.499
1173.77     64.962   -27.147
1190.84     64.451   -29.226
1208.16     63.837   -30.320
1225.73     63.177   -30.018
1243.56     62.581   -28.082
1261.65     62.195   -24.781
1280.00     62.118   -21.023
1298.62     62.339   -17.990
1317.51     62.744   -16.498
1336.67     63.186   -16.770
1356.11     63.545   -18.510
1375.84     63.749   -21.226
1395.85     63.765   -24.351
1416.15     63.594   -27.281
1436.75     63.270   -29.469
1457.65     62.862   -30.464
1478.85     62.481   -30.046
1500.36     62.262   -28.502
1522.19     62.284   -26.676
1544.33     62.524   -25.602
1566.79     62.869   -25.928
1589.58     63.183   -27.688
1612.70     63.365   -30.438
1636.16     63.369   -33.574
1659.95     63.201   -36.435
1684.10     62.913   -38.435
1708.60     62.610   -39.264
1733.45     62.416   -39.112
1758.66     62.409   -38.741
1784.24     62.563   -39.094
1810.19     62.762   -40.715
1836.52     62.874   -43.556
1863.24     62.801   -47.064
1890.34     62.505   -50.462
1917.83     62.014   -52.916
1945.73     61.425   -53.736
1974.03     60.894   -52.710
2002.74     60.578   -50.394
2031.87     60.526   -47.869
2061.43     60.665   -45.933
2091.41     60.907   -44.713
2121.83     61.221   -44.050
2152.69     61.618   -44.010
2184.01     62.086   -44.972
2215.77     62.544   -47.248
2248.00     62.876   -50.656
2280.70     63.006   -54.472
2313.87     62.947   -57.714
2347.53     62.836   -59.600
2381.68     62.890   -60.325
2416.32     63.228   -61.390
2451.46     63.726   -64.419
2487.12     64.115   -69.762
2523.30     64.180   -76.458
2560.00     63.847   -82.862
2597.24     63.227   -87.206
2635.01     62.630   -88.618
2673.34     62.403   -88.377
2712.23     62.553   -89.270
2751.68     62.733   -92.549
2791.70     62.651   -97.012
2832.31     62.300  -100.610
2873.50     61.937  -102.256
2915.30     61.831  -103.004
2957.70     61.928  -104.868
3000.72     61.947  -108.145
3044.37     61.757  -111.272
3088.65     61.541  -112.912
3133.58     61.572  -113.866
3179.16     61.807  -116.247
3225.40     61.926  -120.441
3272.31     61.761  -124.685
3319.91     61.486  -127.300
3368.20     61.403  -128.803
3417.19     61.511  -131.197
3466.89     61.527  -134.825
3517.32     61.355  -138.043
3568.48     61.228  -139.898
3620.39     61.325  -141.814
3673.05     61.460  -145.204
3726.47     61.405  -149.142
3780.67     61.247  -152.118
3835.67     61.202  -154.521
3891.46     61.209  -157.699
3948.06     61.058  -161.174
4005.49     60.816  -163.360
4063.75     60.761  -164.495
4122.86     60.909  -166.507
4182.82     61.001  -169.843
4243.66     60.930  -173.311
4305.39     60.801  -176.195
4368.01     60.688  -178.866
4431.55     60.540   178.406
4496.01     60.321   176.096
4561.40     60.129   174.599
4627.75     60.050   173.115
4695.06     59.928   171.048
4763.35     59.690   169.825
4832.64     59.640   169.721
4902.93     59.764   168.159
4974.24     59.630   165.815
5046.60     59.459   165.511
5120.00     59.631   164.759
5194.47     59.631   161.682
5270.03     59.261   160.116
5346.68     59.100   161.190
5424.45     59.368   161.613
5503.35     59.723   158.936
5583.40     59.585   154.387
5664.61     59.088   152.978
5747.01     59.017   152.737
5830.60     58.792   150.569
5915.41     58.630   150.704
6001.45     58.773   145.940
6088.74     57.391   139.165
6177.30     55.506   145.497
6267.15     55.038   155.505
6358.31     55.255   166.363
6450.80     56.545   171.339
6544.62     57.242   171.686
6639.82     58.031   171.780
6736.40     58.464   169.520
6834.38     58.912   168.136
6933.79     59.100   164.329
7034.64     59.139   162.251
7136.96     58.969   157.813
7240.77     58.393   157.134
7346.09     58.006   155.380
7452.94     57.061   157.640
7561.35     56.709   162.186
7671.33     56.700   169.021
7782.91     57.195   171.354
7896.12     57.462   175.723
8010.97     58.240   177.576
8127.49     59.282   177.371
8245.71     59.765   169.672
8365.65     59.259   164.686
8487.33     58.495   163.796
8610.78     58.349   162.814
8736.03     57.303   161.311
8863.09     56.516   163.153
8992.01     55.774   169.384
9122.80     55.727   173.157
9255.50     55.944   176.403
9390.12     55.968   177.587
9526.70     56.111   176.887
9665.27     56.131   176.520
9805.86     55.645   175.542
9948.49     55.424   177.067
10093.2     55.485   179.037
10240.0     55.006   178.901
10388.9     54.646  -176.507
10540.1     55.183  -170.490
10693.4     55.638  -168.689
10848.9     56.165  -168.309
11006.7     56.719  -169.911
11166.8     56.928  -172.829
11329.2     56.579  -174.981
11494.0     56.471  -179.300
11661.2     55.221   178.837
11830.8     54.556  -175.772
12002.9     54.270  -173.622
12177.5     53.378  -172.795
12354.6     52.749  -164.974
12534.3     52.702  -159.029
12716.6     53.425  -153.719
12901.6     53.792  -154.071
13089.2     53.986  -157.714
13279.6     53.112  -162.960
13472.8     51.516  -162.773
13668.8     50.452  -156.641
13867.6     49.650  -151.872
14069.3     49.188  -142.908
14273.9     49.802  -139.363
14481.5     49.662  -143.050
14692.2     48.495  -146.789
14905.9     46.324  -145.857
15122.7     43.933  -132.765
15342.7     43.818  -109.580
15565.8     45.827  -100.448
15792.2     46.838  -101.799
16021.9     47.091  -105.908
16255.0     45.903  -111.025
16491.4     43.880  -104.702
16731.3     42.684   -89.720
16974.7     44.009   -72.696
17221.6     45.645   -74.263
17472.1     45.013   -82.083
17726.2     43.045   -79.632
17984.0     41.254   -70.304
18245.6     38.722   -50.294
18511.0     40.319   -14.305
18780.2     43.514    -8.829
19053.4     44.819    -7.164
19330.5     45.501    -7.592
19611.7     44.974    -2.762
19897.0     47.719    12.952
20186.4     48.796    -7.803
20480.0     47.693   -11.545
20777.9     46.612   -12.380
21080.1     45.835    -7.279
21386.7     45.637    -4.946
21697.8     45.199    -2.503
22013.4     45.190    -0.812
22333.6     45.129    -1.757
22658.4     44.942    -6.444
22988.0     43.843   -14.249
23322.4     42.243   -21.535
23661.6     40.105   -31.596
24005.8     37.223   -48.271
24355.0     33.217   -81.291
24709.2     31.158  -132.195
25068.6     33.355  -173.323
25433.2     35.853   164.096
25803.2     37.127   152.378
26178.5     37.481   143.159
26559.3     36.656   141.347
26945.6     35.019   149.017
27337.5     38.997  -177.728
27735.2     40.832   159.750
28138.6     40.397   154.447
28547.9     39.614   156.870
28963.1     39.229   165.686
29384.4     39.748   172.204
29811.8     40.673   170.964
30245.4     39.343   165.020
30685.3     36.975   169.881
31131.7     35.609  -173.238
31584.5     35.957  -163.250
32043.9     35.080  -155.712
32510.0     34.736  -133.622
32982.8     38.114  -117.973
33462.6     41.473  -121.965
33949.3     43.148  -134.428
34443.1     45.422  -159.420
34944.1     42.519   169.376
35452.4     38.519   156.043
35968.0     35.053   149.716
36491.2     31.665   142.301
37022.0     28.830   140.890
37560.5     26.326   141.619
38106.8     25.829   144.293
38661.1     26.708   140.608
39223.4     28.250   128.583
39793.9     30.909   102.419
