Freq[Hz]     dBSPL  Phase[Deg]
5.00000      9.500  -149.885
5.07273      9.536  -149.257
5.14651      9.578  -148.713
5.22137      9.633  -148.401
5.29732      9.689  -148.089
5.37437      9.744  -147.777
5.45254      9.799  -147.465
5.53185      9.835  -147.310
5.61231      9.850  -147.322
5.69394      9.865  -147.334
5.77676      9.879  -147.345
5.86079      9.893  -147.356
5.94604      9.825  -147.319
6.03252      9.757  -147.282
6.12027      9.688  -147.245
6.20929      9.620  -147.208
6.29961      9.505  -146.656
6.39124      9.380  -145.991
6.48420      9.255  -145.326
6.57851      9.130  -144.660
6.67420      9.060  -143.256
6.77128      9.000  -141.732
6.86977      8.940  -140.208
6.96969      8.901  -138.685
7.07107      9.018  -137.170
7.17392      9.135  -135.655
7.27827      9.252  -134.140
7.38413      9.417  -133.281
7.49154      9.619  -132.930
7.60050      9.821  -132.580
7.71105     10.003  -132.451
7.82321     10.092  -133.296
7.93701     10.181  -134.140
8.05245     10.270  -134.985
8.16958     10.116  -136.044
8.28841      9.953  -137.110
8.40896      9.790  -138.177
8.53128      9.390  -137.827
8.65537      8.960  -137.295
8.78126      8.529  -136.763
8.90899      8.205  -132.723
9.03857      7.888  -128.453
9.17004      7.661  -124.101
9.30342      8.156  -119.102
9.43874      8.651  -114.103
9.57603      9.306  -111.011
9.71532     10.206  -110.834
9.85663     11.107  -110.657
10.0000     11.779  -113.739
10.1455     12.388  -117.729
10.2930     12.874  -122.376
10.4427     13.020  -128.856
10.5946     13.166  -135.337
10.7487     12.901  -143.237
10.9051     12.553  -151.421
11.0637     11.894  -160.360
11.2246     10.905  -170.096
11.3879      9.688   179.663
11.5535      7.642   167.586
11.7216      5.549   155.312
11.8921      0.716   131.453
12.0650     -4.118   107.593
12.2405     -3.131    43.483
12.4186     -1.394   -25.818
12.5992      1.378   -54.811
12.7825      4.380   -74.865
12.9684      5.873   -92.920
13.1570      7.014  -110.509
13.3484      7.578  -129.849
13.5426      8.049  -149.474
13.7395      8.487  -171.168
13.9394      8.958   167.135
14.1421      9.685   146.011
14.3478     10.449   125.977
14.5565     11.292   108.288
14.7683     12.047    92.870
14.9831     12.734    79.208
15.2010     13.228    68.754
15.4221     13.667    59.473
15.6464     14.010    52.937
15.8740     14.392    47.753
16.1049     14.803    43.648
16.3392     15.368    40.260
16.5768     15.961    36.608
16.8179     16.587    32.536
17.0626     17.100    27.494
17.3107     17.493    22.045
17.5625     17.724    16.167
17.8180     17.623    10.240
18.0771     17.286     4.694
18.3401     16.688    -0.263
18.6068     15.644    -3.467
18.8775     14.187    -3.267
19.1521     12.538     2.193
19.4306     10.969    14.613
19.7133     11.238    36.009
20.0000     13.141    50.076
20.2909     15.443    56.478
20.5860     17.513    56.167
20.8855     19.055    52.033
21.1893     19.931    46.021
21.4975     20.246    39.977
21.8102     20.025    35.184
22.1274     19.331    33.383
22.4492     18.432    36.629
22.7758     17.903    45.774
23.1071     18.471    57.588
23.4432     19.977    64.815
23.7841     21.444    65.831
24.1301     22.427    64.081
24.4811     22.907    62.258
24.8372     23.046    62.382
25.1984     23.173    65.426
25.5649     23.646    70.316
25.9368     24.531    74.471
26.3141     25.561    76.304
26.6968     26.443    76.249
27.0851     27.064    75.760
27.4791     27.501    76.225
27.8788     27.966    78.048
28.2843     28.608    80.270
28.6957     29.383    81.677
29.1131     30.127    81.903
29.5365     30.711    81.578
29.9661     31.126    81.712
30.4020     31.486    83.011
30.8442     31.969    85.311
31.2929     32.608    87.467
31.7480     33.304    88.843
32.2098     33.942    89.611
32.6783     34.471    90.541
33.1536     34.993    92.125
33.6359     35.601    94.097
34.1251     36.312    95.719
34.6215     37.028    96.600
35.1250     37.664    97.121
35.6359     38.211    97.959
36.1543     38.763    99.357
36.6802     39.393   100.963
37.2137     40.081   102.232
37.7550     40.752   103.118
38.3041     41.371   103.966
38.8613     41.981   105.046
39.4265     42.620   106.251
40.0000     43.282   107.321
40.5818     43.939   108.238
41.1721     44.586   109.144
41.7710     45.236   110.048
42.3785     45.886   110.855
42.9949     46.520   111.606
43.6203     47.142   112.421
44.2548     47.770   113.319
44.8985     48.407   114.183
45.5515     49.041   114.996
46.2141     49.671   115.829
46.8863     50.308   116.692
47.5683     50.953   117.489
48.2602     51.594   118.196
48.9621     52.224   118.892
49.6743     52.850   119.637
50.3968     53.485   120.395
51.1299     54.124   121.106
51.8736     54.764   121.752
52.6281     55.400   122.346
53.3936     56.029   122.917
54.1702     56.657   123.490
54.9581     57.286   124.026
55.7575     57.916   124.470
56.5685     58.530   124.875
57.3914     59.141   125.288
58.2261     59.751   125.646
59.0730     60.347   125.944
59.9323     60.933   126.287
60.8040     61.525   126.643
61.6884     62.118   126.911
62.5857     62.707   127.096
63.4960     63.290   127.165
64.4196     63.857   127.088
65.3566     64.392   126.927
66.3073     64.896   126.788
67.2717     65.382   126.730
68.2502     65.858   126.701
69.2429     66.318   126.681
70.2501     66.771   126.726
71.2719     67.225   126.718
72.3086     67.659   126.596
73.3603     68.065   126.432
74.4274     68.437   126.282
75.5099     68.785   126.228
76.6083     69.116   126.189
77.7226     69.412   126.236
78.8531     69.694   126.441
80.0000     69.965   126.667
81.1636     70.215   126.960
82.3442     70.445   127.282
83.5419     70.642   127.670
84.7570     70.811   128.237
85.9899     70.964   128.984
87.2406     71.110   129.866
88.5096     71.242   130.811
89.7970     71.353   131.817
91.1031     71.432   132.896
92.4282     71.464   134.145
93.7726     71.453   135.785
95.1366     71.438   138.006
96.5204     71.477   140.601
97.9243     71.555   143.125
99.3486     71.628   145.646
100.794     71.695   148.190
102.260     71.751   150.842
103.747     71.799   153.583
105.256     71.835   156.455
106.787     71.867   159.423
108.340     71.880   162.511
109.916     71.874   165.760
111.515     71.853   169.336
113.137     71.860   173.174
114.783     71.872   177.030
116.452     71.880  -178.950
118.146     71.894  -174.794
119.865     71.913  -170.530
121.608     71.931  -166.157
123.377     71.956  -161.682
125.171     71.978  -157.175
126.992     71.993  -152.590
128.839     71.996  -147.869
130.713     71.993  -143.133
132.615     71.940  -138.214
134.543     71.904  -132.593
136.500     71.920  -126.946
138.486     71.923  -121.997
140.500     71.894  -116.506
142.544     71.843  -110.248
144.617     71.814  -104.319
146.721     71.814   -98.307
148.855     71.840   -91.978
151.020     71.823   -85.846
153.217     71.787   -79.533
155.445     71.730   -73.247
157.706     71.624   -66.849
160.000     71.508   -59.022
162.327     71.519   -51.257
164.688     71.506   -44.477
167.084     71.545   -36.805
169.514     71.557   -30.093
171.980     71.257   -22.319
174.481     71.109   -13.613
177.019     71.090    -5.048
179.594     71.113     3.787
182.206     71.112    13.280
184.856     71.180    22.733
187.545     71.241    31.310
190.273     71.320    40.344
193.041     71.375    49.001
195.849     71.363    57.814
198.697     71.359    67.368
201.587     71.336    76.901
204.520     71.289    86.747
207.494     71.310    96.778
210.512     71.364   106.828
213.574     71.228   116.165
216.681     71.022   126.795
219.833     70.969   138.438
223.030     71.015   150.171
226.274     70.996   161.446
229.565     70.873   173.244
232.905     70.839  -174.315
236.292     70.902  -161.975
239.729     70.983  -149.534
243.216     70.985  -137.318
246.754     70.983  -124.420
250.343     71.067  -111.024
253.984     71.113   -98.116
257.678     71.121   -84.922
261.426     71.168   -71.083
265.229     71.150   -57.883
269.087     70.969   -43.523
273.001     70.980   -28.296
276.972     71.036   -14.061
281.000     71.074     1.336
285.088     71.147    17.066
289.234     71.214    32.534
293.441     71.210    47.394
297.709     70.972    63.845
302.040     71.061    79.988
306.433     70.914    98.068
310.890     71.187   116.272
315.412     71.332   132.891
320.000     71.309   148.644
324.655     70.923   166.740
329.377     70.941  -173.641
334.168     71.165  -153.758
339.028     71.205  -135.227
343.959     71.272  -115.810
348.962     71.338   -96.894
354.038     71.306   -78.095
359.188     71.298   -58.853
364.412     71.129   -37.261
369.713     71.200   -16.059
375.090     71.261     4.949
380.546     71.324    26.627
386.081     71.383    47.272
391.697     71.339    69.208
397.394     71.287    91.903
403.175     71.234   113.690
409.039     71.093   136.350
414.989     70.991   160.290
421.025     70.914  -175.678
427.149     70.888  -152.109
433.362     70.717  -128.587
439.665     70.621  -103.688
446.060     70.382   -78.938
452.548     70.155   -53.354
459.131     69.884   -27.631
465.809     69.543    -0.572
472.584     69.275    27.208
479.458     68.979    54.674
486.432     68.664    83.118
493.507     68.329   112.494
500.686     67.951   143.152
507.968     67.642   174.065
515.357     67.291  -154.887
522.853     66.968  -122.600
530.458     66.662   -89.144
538.174     66.404   -55.496
546.002     66.170   -21.609
553.943     65.980    13.347
562.001     65.837    49.279
570.175     65.742    86.135
578.469     65.692   123.817
586.883     65.685   161.436
595.419     65.715  -161.057
604.080     65.775  -122.890
612.866     65.859   -84.092
621.780     65.960   -44.686
630.824     66.069    -4.675
640.000     66.178    35.150
649.309     66.280    74.814
658.753     66.374   115.135
668.335     66.456   156.924
678.056     66.520  -161.365
687.919     66.567  -118.914
697.925     66.596   -75.694
708.077     66.606   -32.460
718.376     66.601    11.599
728.825     66.581    56.504
739.426     66.551   102.272
750.181     66.513   148.914
761.093     66.472  -163.568
772.163     66.432  -115.975
783.394     66.395   -67.530
794.789     66.364   -17.459
806.349     66.340    32.617
818.078     66.323    83.464
829.977     66.311   135.050
842.050     66.299  -172.652
854.298     66.283  -119.661
866.724     66.256   -66.774
879.330     66.212   -12.412
892.120     66.144    42.650
905.097     66.045    98.439
918.262     65.910   154.993
931.618     65.735  -147.642
945.169     65.517   -89.406
958.917     65.255   -30.234
972.864     64.951    29.942
987.015     64.609    91.195
1001.37     64.230   154.390
1015.94     63.835  -141.215
1030.71     63.445   -76.409
1045.71     63.066    -9.588
1060.92     62.716    59.193
1076.35     62.413   128.188
1092.00     62.156  -161.919
1107.89     61.935   -90.437
1124.00     61.736   -18.279
1140.35     61.537    54.529
1156.94     61.312   128.851
1173.77     61.045  -156.003
1190.84     60.727   -79.842
1208.16     60.361    -2.429
1225.73     59.966    77.324
1243.56     59.591   159.636
1261.65     59.312  -116.279
1280.00     59.206   -30.680
1298.62     59.326    55.869
1317.51     59.668   143.525
1336.67     60.178  -128.287
1356.11     60.764   -40.654
1375.84     61.353    47.284
1395.85     61.887   135.722
1416.15     62.329  -135.890
1436.75     62.663   -47.294
1457.65     62.888    42.511
1478.85     63.004   133.695
1500.36     63.017  -134.398
1522.19     62.934   -40.886
1544.33     62.760    54.302
1566.79     62.498   151.219
1589.58     62.147  -110.079
1612.70     61.710   -10.310
1636.16     61.181    91.428
1659.95     60.563  -164.703
1684.10     59.867   -58.492
1708.60     59.128    50.270
1733.45     58.406   160.885
1758.66     57.763   -85.125
1784.24     57.259    30.982
1810.19     56.900   147.740
1836.52     56.611   -93.713
1863.24     56.287    25.698
1890.34     55.827   146.382
1917.83     55.177   -90.793
1945.73     54.379    35.379
1974.03     53.637   166.840
2002.74     53.339   -57.524
2031.87     53.740    79.568
2061.43     54.650  -145.002
2091.41     55.657   -11.302
2121.83     56.461   121.519
2152.69     56.923  -106.852
2184.01     57.011    26.280
2215.77     56.727   161.890
2248.00     56.116   -59.854
2280.70     55.280    81.963
2313.87     54.407  -131.177
2347.53     53.769    20.487
2381.68     53.571   174.497
2416.32     53.760   -30.439
2451.46     54.101   124.617
2487.12     54.374   -80.128
2523.30     54.455    76.053
2560.00     54.298  -126.075
2597.24     53.894    33.376
2635.01     53.255  -164.172
2673.34     52.418     1.973
2712.23     51.478   172.535
2751.68     50.611   -11.278
2791.70     50.043   169.085
2832.31     49.849    -8.144
2873.50     49.845   175.566
2915.30     49.744     0.330
2957.70     49.374  -171.519
3000.72     48.790    21.269
3044.37     48.325  -140.077
3088.65     48.375    63.847
3133.58     48.921   -90.941
3179.16     49.572   115.325
3225.40     50.086   -35.920
3272.31     50.538   176.038
3319.91     51.145    31.953
3368.20     51.957  -109.575
3417.19     52.803   109.728
3466.89     53.506   -28.995
3517.32     53.996  -164.145
3568.48     54.268    63.293
3620.39     54.352   -65.332
3673.05     54.327   171.219
3726.47     54.311    51.921
3780.67     54.322   -64.185
3835.67     54.193  -177.500
3891.46     53.796    73.997
3948.06     53.305   -29.098
4005.49     53.011  -127.803
4063.75     52.761   137.291
4122.86     52.146    45.466
4182.82     51.231   -39.915
4243.66     50.549  -116.631
4305.39     50.265   171.338
4368.01     50.442   104.637
4431.55     51.352    39.874
4496.01     52.231   -26.722
4561.40     52.314   -90.260
4627.75     52.235  -144.920
4695.06     52.872   165.770
4763.35     53.485   116.289
4832.64     53.577    71.260
4902.93     53.715    33.597
4974.24     54.011     0.803
5046.60     54.348   -27.349
5120.00     54.942   -51.224
5194.47     55.398   -72.066
5270.03     55.728   -87.774
5346.68     56.291   -99.960
5424.45     56.348  -109.157
5503.35     55.841  -109.931
5583.40     55.680  -103.316
5664.61     55.413   -91.699
5747.01     55.304   -72.054
5830.60     55.679   -51.037
5915.41     55.216   -25.477
6001.45     54.604    10.163
6088.74     54.244    50.771
6177.30     53.893   100.899
6267.15     54.218   155.444
6358.31     54.242  -145.947
6450.80     54.542   -81.333
6544.62     54.399   -13.053
6639.82     54.415    66.051
6736.40     54.610   148.022
6834.38     54.485  -120.751
6933.79     54.981   -24.950
7034.64     55.102    77.600
7136.96     55.742  -176.230
7240.77     55.658   -64.744
7346.09     55.648    54.316
7452.94     54.602   179.388
7561.35     54.075   -41.856
7671.33     53.237   102.650
7782.91     53.081  -102.436
7896.12     52.416    57.613
8010.97     52.477  -132.659
8127.49     51.534    47.173
8245.71     52.667  -121.371
8365.65     53.761    67.429
8487.33     54.060  -101.539
8610.78     53.629   103.287
8736.03     53.088   -48.296
8863.09     52.222   175.349
8992.01     50.963    44.597
9122.80     50.451   -73.302
9255.50     49.356   174.685
9390.12     48.676    70.718
9526.70     47.798   -24.937
9665.27     45.023  -110.143
9805.86     44.518  -171.561
9948.49     45.263   132.823
10093.2     46.424    74.601
10240.0     46.171    17.071
10388.9     44.500   -18.057
10540.1     41.472   -37.498
10693.4     41.389   -33.657
10848.9     42.008   -37.460
11006.7     40.742   -25.024
11166.8     37.787    -2.757
11329.2     38.131    54.934
11494.0     40.002   102.080
11661.2     43.854   163.390
11830.8     45.098  -148.502
12002.9     45.411   -78.564
12177.5     45.711     4.802
12354.6     46.548   104.895
12534.3     47.758  -152.936
12716.6     46.287   -37.032
12901.6     46.041    99.526
13089.2     45.961  -116.445
13279.6     46.257    40.033
13472.8     46.508  -153.795
13668.8     46.481    26.267
13867.6     46.216  -135.634
14069.3     46.630    75.315
14273.9     46.771   -62.848
14481.5     46.793   172.310
14692.2     46.593    59.219
14905.9     46.369   -39.882
15122.7     46.533  -126.265
15342.7     46.524   160.961
15565.8     45.937   102.072
15792.2     44.741    65.205
16021.9     44.457    46.406
16255.0     43.997    36.378
16491.4     42.380    44.495
16731.3     42.012    76.417
16974.7     42.580   111.390
17221.6     40.819   158.523
17472.1     38.031  -116.142
17726.2     38.656   -13.608
17984.0     38.153    97.882
18245.6     38.150  -130.888
18511.0     38.314    13.763
18780.2     38.149   174.809
19053.4     37.829    -3.632
19330.5     38.458  -164.274
19611.7     38.383    46.988
19897.0     37.621   -68.449
20186.4     40.214  -176.871
20480.0     40.661    84.451
20777.9     39.492     9.808
21080.1     39.221   -38.095
21386.7     39.192   -74.006
21697.8     38.323   -90.237
22013.4     36.929   -85.320
22333.6     35.254   -56.028
22658.4     33.068    -4.633
22988.0     30.487    74.774
23322.4     27.515   179.763
23661.6     25.105   -41.654
24005.8     24.560   121.352
24355.0     24.787   -66.629
24709.2     24.051   124.968
25068.6     22.593   -14.780
25433.2     21.257  -129.825
25803.2     18.951   150.481
26178.5     20.572    98.461
26559.3     22.734    55.789
26945.6     26.425    29.765
27337.5     26.783  -134.834
27735.2     23.923    98.424
28138.6     24.676   134.510
28547.9     24.245  -154.264
28963.1     23.830   -58.769
29384.4     23.894    71.766
29811.8     23.152  -116.199
30245.4     21.223    66.214
30685.3     17.293  -104.845
31131.7     20.554   113.156
31584.5     20.850    13.565
32043.9     21.580   -73.143
32510.0     22.748  -129.622
32982.8     23.037  -137.339
33462.6     21.052  -104.259
33949.3     24.771   -10.635
34443.1     26.750    68.916
34944.1     22.968  -169.862
35452.4     20.125   -24.065
35968.0     17.347   172.453
36491.2     13.746    42.861
37022.0     12.949   -44.572
37560.5     10.615   -93.614
38106.8     10.270  -109.161
38661.1      9.390   -79.474
39223.4      9.387   -40.310
39793.9     15.521    44.820
