Freq[Hz]     dBSPL  Phase[Deg]
5.00000     15.045  -153.334
5.07273     15.080  -152.756
5.14651     15.120  -152.263
5.22137     15.174  -152.005
5.29732     15.227  -151.748
5.37437     15.281  -151.490
5.45254     15.334  -151.232
5.53185     15.368  -151.134
5.61231     15.381  -151.204
5.69394     15.394  -151.274
5.77676     15.406  -151.344
5.86079     15.418  -151.413
5.94604     15.348  -151.438
6.03252     15.277  -151.463
6.12027     15.207  -151.489
6.20929     15.137  -151.514
6.29961     15.019  -151.028
6.39124     14.892  -150.429
6.48420     14.764  -149.830
6.57851     14.636  -149.232
6.67420     14.564  -147.898
6.77128     14.502  -146.445
6.86977     14.439  -144.992
6.96969     14.397  -143.540
7.07107     14.511  -142.100
7.17392     14.625  -140.659
7.27827     14.739  -139.219
7.38413     14.901  -138.438
7.49154     15.100  -138.167
7.60050     15.299  -137.895
7.71105     15.477  -137.847
7.82321     15.562  -138.775
7.93701     15.648  -139.704
8.05245     15.733  -140.633
8.16958     15.575  -141.780
8.28841     15.408  -142.934
8.40896     15.241  -144.089
8.53128     14.837  -143.832
8.65537     14.402  -143.393
8.78126     13.968  -142.954
8.90899     13.639  -139.011
9.03857     13.317  -134.838
9.17004     13.086  -130.585
9.30342     13.576  -125.688
9.43874     14.067  -120.791
9.57603     14.717  -117.803
9.71532     15.611  -117.734
9.85663     16.506  -117.664
10.0000     17.173  -120.857
10.1455     17.776  -124.959
10.2930     18.257  -129.718
10.4427     18.397  -136.316
10.5946     18.537  -142.913
10.7487     18.265  -150.935
10.9051     17.911  -159.241
11.0637     17.245  -168.304
11.2246     16.249  -178.167
11.3879     15.025   171.464
11.5535     12.972   159.254
11.7216     10.873   146.848
11.8921      6.032   122.851
12.0650      1.190    98.854
12.2405      2.169    34.601
12.4186      3.898   -34.843
12.5992      6.662   -63.983
12.7825      9.656   -84.186
12.9684     11.139  -102.394
13.1570     12.271  -120.137
13.3484     12.826  -139.636
13.5426     13.288  -159.421
13.7395     13.716   178.720
13.9394     14.177   156.856
14.1421     14.895   135.561
14.3478     15.649   115.354
14.5565     16.481    97.488
14.7683     17.224    81.889
14.9831     17.900    68.044
15.2010     18.383    57.401
15.4221     18.811    47.929
15.6464     19.143    41.198
15.8740     19.512    35.815
16.1049     19.911    31.509
16.3392     20.463    27.912
16.5768     21.043    24.049
16.8179     21.656    19.762
17.0626     22.155    14.500
17.3107     22.534     8.827
17.5625     22.752     2.722
17.8180     22.637    -3.439
18.0771     22.285    -9.223
18.3401     21.672   -14.423
18.6068     20.613   -17.874
18.8775     19.140   -17.928
19.1521     17.475   -12.725
19.4306     15.889    -0.568
19.7133     16.143    20.559
20.0000     18.029    34.351
20.2909     20.313    40.474
20.5860     22.365    39.877
20.8855     23.890    35.452
21.1893     24.747    29.142
21.4975     25.044    22.794
21.8102     24.804    17.691
22.1274     24.091    15.573
22.4492     23.172    18.496
22.7758     22.623    27.311
23.1071     23.170    38.788
23.4432     24.655    45.671
23.7841     26.103    46.337
24.1301     27.064    44.228
24.4811     27.522    42.039
24.8372     27.639    41.789
25.1984     27.743    44.452
25.5649     28.194    48.952
25.9368     29.055    52.709
26.3141     30.062    54.137
26.6968     30.921    53.667
27.0851     31.518    52.756
27.4791     31.930    52.789
27.8788     32.370    54.171
28.2843     32.987    55.943
28.6957     33.737    56.890
29.1131     34.456    56.648
29.5365     35.013    55.845
29.9661     35.402    55.491
30.4020     35.735    56.292
30.8442     36.192    58.084
31.2929     36.803    59.720
31.7480     37.472    60.567
32.2098     38.082    60.796
32.6783     38.583    61.174
33.1536     39.077    62.196
33.6359     39.655    63.595
34.1251     40.338    64.632
34.6215     41.025    64.915
35.1250     41.631    64.829
35.6359     42.148    65.046
36.1543     42.672    65.811
36.6802     43.271    66.773
37.2137     43.929    67.383
37.7550     44.570    67.599
38.3041     45.158    67.763
38.8613     45.738    68.147
39.4265     46.346    68.642
40.0000     46.977    68.988
40.5818     47.603    69.168
41.1721     48.218    69.322
41.7710     48.837    69.461
42.3785     49.456    69.488
42.9949     50.059    69.445
43.6203     50.648    69.452
44.2548     51.245    69.526
44.8985     51.849    69.551
45.5515     52.452    69.510
46.2141     53.050    69.474
46.8863     53.655    69.452
47.5683     54.268    69.348
48.2602     54.877    69.138
48.9621     55.475    68.902
49.6743     56.070    68.697
50.3968     56.673    68.490
51.1299     57.280    68.218
51.8736     57.888    67.864
52.6281     58.492    67.442
53.3936     59.090    66.980
54.1702     59.686    66.501
54.9581     60.284    65.969
55.7575     60.882    65.327
56.5685     61.466    64.627
57.3914     62.046    63.917
58.2261     62.624    63.134
59.0730     63.191    62.272
59.9323     63.745    61.436
60.8040     64.307    60.595
61.6884     64.870    59.647
62.5857     65.430    58.596
63.4960     65.983    57.409
64.4196     66.520    56.057
65.3566     67.025    54.600
66.3073     67.500    53.146
67.2717     67.957    51.752
68.2502     68.406    50.366
69.2429     68.837    48.970
70.2501     69.262    47.616
71.2719     69.688    46.189
72.3086     70.095    44.626
73.3603     70.473    42.999
74.4274     70.818    41.365
75.5099     71.140    39.805
76.6083     71.443    38.237
77.7226     71.713    36.732
78.8531     71.969    35.363
80.0000     72.215    33.991
81.1636     72.439    32.664
82.3442     72.644    31.341
83.5419     72.817    30.061
84.7570     72.961    28.935
85.9899     73.089    27.966
87.2406     73.211    27.106
88.5096     73.320    26.285
89.7970     73.407    25.499
91.1031     73.463    24.761
92.4282     73.474    24.166
93.7726     73.439    23.938
95.1366     73.402    24.263
96.5204     73.419    24.935
97.9243     73.475    25.510
99.3486     73.527    26.054
100.794     73.573    26.593
102.260     73.609    27.212
103.747     73.635    27.892
105.256     73.652    28.674
106.787     73.663    29.523
108.340     73.657    30.462
109.916     73.632    31.533
111.515     73.591    32.900
113.137     73.579    34.498
114.783     73.573    36.083
116.452     73.562    37.801
118.146     73.558    39.622
119.865     73.558    41.519
121.608     73.559    43.493
123.377     73.565    45.536
125.171     73.570    47.576
126.992     73.566    49.661
128.839     73.553    51.847
130.713     73.533    54.013
132.615     73.464    56.326
134.543     73.411    59.252
136.500     73.409    62.143
138.486     73.397    64.588
140.500     73.351    67.326
142.544     73.283    70.583
144.617     73.239    73.763
146.721     73.222    77.028
148.855     73.233    80.362
151.020     73.199    83.502
153.217     73.147    86.824
155.445     73.075    90.121
157.706     72.953    93.532
160.000     72.821    98.125
162.327     72.816   102.658
164.688     72.788   106.458
167.084     72.812   110.902
169.514     72.807   114.140
171.980     72.491   118.442
174.481     72.328   123.927
177.019     72.293   129.272
179.594     72.301   134.641
182.206     72.283   140.422
184.856     72.334   146.167
187.545     72.380   151.284
190.273     72.443   156.612
193.041     72.481   161.567
195.849     72.453   166.678
198.697     72.431   172.286
201.587     72.391   177.876
204.520     72.327  -176.221
207.494     72.330  -170.130
210.512     72.366  -164.265
213.574     72.212  -159.109
216.681     71.988  -152.414
219.833     71.917  -144.950
223.030     71.944  -137.639
226.274     71.906  -130.785
229.565     71.763  -123.405
232.905     71.709  -115.380
236.292     71.752  -107.455
239.729     71.812   -99.672
243.216     71.793   -92.111
246.754     71.769   -83.868
250.343     71.831   -75.367
253.984     71.854   -67.354
257.678     71.839   -59.052
261.426     71.861   -50.346
265.229     71.818   -42.278
269.087     71.612   -33.047
273.001     71.597   -22.946
276.972     71.628   -13.835
281.000     71.637    -3.804
285.088     71.682     6.320
289.234     71.719    16.186
293.441     71.685    25.447
297.709     71.416    36.302
302.040     71.474    46.853
306.433     71.292    59.102
310.890     71.530    71.236
315.412     71.639    81.790
320.000     71.579    91.484
324.655     71.154   103.525
329.377     71.134   117.095
334.168     71.314   130.453
339.028     71.310   142.466
343.959     71.331   155.372
348.962     71.350   167.786
354.038     71.270  -179.907
359.188     71.212  -167.386
364.412     70.988  -152.745
369.713     71.002  -138.478
375.090     71.006  -124.391
380.546     71.008  -109.856
386.081     71.004   -96.334
391.697     70.893   -81.738
397.394     70.770   -66.591
403.175     70.646   -52.091
409.039     70.432   -36.920
414.989     70.251   -20.667
421.025     70.095    -4.280
427.149     69.989    11.689
433.362     69.738    27.662
439.665     69.558    44.613
446.060     69.236    61.481
452.548     68.930    79.255
459.131     68.582    97.023
465.809     68.170   115.992
472.584     67.842   135.768
479.458     67.500   155.313
486.432     67.155   175.698
493.507     66.814  -163.135
500.686     66.457  -140.861
507.968     66.202  -118.340
515.357     65.938   -95.742
522.853     65.739   -72.237
530.458     65.591   -47.968
538.174     65.518   -23.758
546.002     65.482     0.398
553.943     65.499    25.066
562.001     65.558    50.138
570.175     65.648    75.569
578.469     65.753   101.297
586.883     65.860   126.753
595.419     65.958   151.957
604.080     66.042   177.479
612.866     66.103  -156.656
621.780     66.133  -130.414
630.824     66.126  -103.758
640.000     66.078   -77.172
649.309     65.986   -50.604
658.753     65.845   -23.470
668.335     65.649     4.826
678.056     65.404    33.287
687.919     65.104    62.527
697.925     64.752    92.636
708.077     64.361   123.162
718.376     63.934   154.754
728.825     63.488  -172.479
739.426     63.046  -138.452
750.181     62.642  -103.123
761.093     62.314   -66.544
772.163     62.102   -29.500
783.394     62.025     8.343
794.789     62.090    47.263
806.349     62.277    85.710
818.078     62.551   124.076
829.977     62.870   162.269
842.050     63.195  -159.715
854.298     63.493  -121.785
866.724     63.739   -84.386
879.330     63.922   -46.262
892.120     64.028    -7.830
905.097     64.053    31.053
918.262     63.995    70.532
931.618     63.858   110.753
945.169     63.651   151.858
958.917     63.389  -166.014
972.864     63.093  -122.752
987.015     62.796   -78.287
1001.37     62.525   -32.043
1015.94     62.328    15.276
1030.71     62.230    62.836
1045.71     62.237   111.518
1060.92     62.334   161.020
1076.35     62.486  -150.042
1092.00     62.651  -101.153
1107.89     62.792   -51.707
1124.00     62.875    -2.149
1140.35     62.878    47.703
1156.94     62.787    98.627
1173.77     62.603   150.299
1190.84     62.338  -157.041
1208.16     62.018  -103.178
1225.73     61.683   -47.372
1243.56     61.388    10.414
1261.65     61.197    69.424
1280.00     61.149   129.270
1298.62     61.248  -170.532
1317.51     61.460  -109.804
1336.67     61.731   -48.782
1356.11     61.998    11.933
1375.84     62.220    73.041
1395.85     62.366   134.734
1416.15     62.421  -163.348
1436.75     62.387  -101.028
1457.65     62.268   -37.629
1478.85     62.070    26.913
1500.36     61.795    92.052
1522.19     61.436   158.334
1544.33     60.971  -134.234
1566.79     60.365   -65.564
1589.58     59.575     4.590
1612.70     58.561    76.157
1636.16     57.291   150.606
1659.95     55.821  -130.618
1684.10     54.437   -45.795
1708.60     53.749    44.805
1733.45     54.168   135.914
1758.66     55.294  -135.896
1784.24     56.475   -51.648
1810.19     57.375    29.936
1836.52     57.930   111.816
1863.24     58.166  -165.241
1890.34     58.181   -80.263
1917.83     58.131     7.251
1945.73     58.195    97.074
1974.03     58.481  -171.230
2002.74     58.952   -79.496
2031.87     59.454    11.625
2061.43     59.824   102.272
2091.41     59.954  -166.376
2121.83     59.787   -73.488
2152.69     59.329    20.751
2184.01     58.648   118.420
2215.77     57.911  -139.754
2248.00     57.367   -34.501
2280.70     57.195    72.662
2313.87     57.325  -179.615
2347.53     57.498   -72.158
2381.68     57.465    35.104
2416.32     57.111   144.330
2451.46     56.504  -102.464
2487.12     56.001    16.249
2523.30     56.146   139.217
2560.00     57.071   -97.965
2597.24     58.285    21.338
2635.01     59.310   138.464
2673.34     59.953  -104.660
2712.23     60.221    13.653
2751.68     60.236   135.064
2791.70     60.166  -100.695
2832.31     60.131    25.852
2873.50     60.129   153.961
2915.30     60.078   -76.562
2957.70     59.937    55.290
3000.72     59.769  -170.661
3044.37     59.662   -34.747
3088.65     59.600   102.769
3133.58     59.434  -118.953
3179.16     59.040    21.510
3225.40     58.473   165.561
3272.31     57.997   -46.896
3319.91     57.826   103.166
3368.20     57.834  -106.243
3417.19     57.729    44.290
3466.89     57.422  -163.177
3517.32     57.090    -7.178
3568.48     56.924   150.177
3620.39     56.840   -52.169
3673.05     56.594   106.185
3726.47     56.073   -94.149
3780.67     55.360    67.838
3835.67     54.585  -127.810
3891.46     53.782    39.187
3948.06     52.970  -151.369
4005.49     52.291    20.863
4063.75     51.868  -163.865
4122.86     51.576    12.477
4182.82     51.229  -169.128
4243.66     50.915    13.951
4305.39     50.838  -159.920
4368.01     50.861    28.356
4431.55     50.724  -140.374
4496.01     50.549    55.434
4561.40     50.555  -105.511
4627.75     50.473    95.262
4695.06     50.072   -59.564
4763.35     49.775   151.042
4832.64     49.867     3.600
4902.93     49.854  -143.392
4974.24     49.501    72.111
5046.60     48.950   -70.341
5120.00     47.970   149.258
5194.47     46.605    13.794
5270.03     45.737  -119.876
5346.68     44.921    98.459
5424.45     42.674   -51.875
5503.35     38.777   157.212
5583.40     35.298    24.867
5664.61     35.884   -87.963
5747.01     37.950   158.648
5830.60     39.291    49.626
5915.41     39.139   -53.985
6001.45     36.721  -133.734
6088.74     39.086   171.748
6177.30     43.381    92.889
6267.15     46.032     9.049
6358.31     47.545   -73.873
6450.80     47.928  -149.951
6544.62     48.351   142.032
6639.82     48.641    77.883
6736.40     48.926    21.335
6834.38     49.646   -33.451
6933.79     50.027   -85.230
7034.64     50.485  -132.923
7136.96     50.567  -178.514
7240.77     50.380   142.746
7346.09     49.965   110.613
7452.94     49.751    87.126
7561.35     50.098    68.872
7671.33     50.900    55.691
7782.91     51.846    42.075
7896.12     52.229    33.546
8010.97     52.681    29.947
8127.49     52.817    29.700
8245.71     52.056    33.617
8365.65     50.781    50.790
8487.33     50.598    74.788
8610.78     50.575   100.236
8736.03     50.408   128.496
8863.09     50.424   163.735
8992.01     50.679  -159.805
9122.80     50.662  -117.878
9255.50     50.231   -70.337
9390.12     49.739   -11.616
9526.70     49.106    53.505
9665.27     48.796   126.998
9805.86     48.296  -157.676
9948.49     46.813   -73.755
10093.2     45.565    24.385
10240.0     45.878   127.391
10388.9     45.976  -127.571
10540.1     46.102   -19.104
10693.4     45.512    98.674
10848.9     45.274  -133.617
11006.7     45.307    -2.548
11166.8     45.361   133.296
11329.2     44.805   -82.020
11494.0     46.159    70.575
11661.2     46.598  -139.421
11830.8     45.887    25.838
12002.9     45.006  -161.340
12177.5     43.044    15.151
12354.6     38.456  -156.650
12534.3     33.017    68.194
12716.6     34.503   -82.792
12901.6     34.145    98.814
13089.2     33.017   -57.513
13279.6     31.507   160.545
13472.8     26.979    25.171
13668.8     22.633   -80.614
13867.6     21.614   151.985
14069.3     23.993    39.278
14273.9     25.102   -81.385
14481.5     27.743  -166.384
14692.2     28.679   118.891
14905.9     29.478    66.752
15122.7     29.718    25.988
15342.7     30.892   -18.233
15565.8     28.305   -60.444
15792.2     23.292   -90.522
16021.9     22.200   -67.861
16255.0     24.244   -70.439
16491.4     25.521   -69.621
16731.3     25.483   -52.478
16974.7     24.404   -31.723
17221.6     21.523    14.540
17472.1     18.951    94.108
17726.2     17.967   150.016
17984.0     19.582  -157.922
18245.6     23.002   -82.998
18511.0     24.599     7.516
18780.2     23.474   121.468
19053.4     25.296  -111.669
19330.5     27.087    22.558
19611.7     27.123   171.351
19897.0     26.273   -14.129
20186.4     27.259   148.212
20480.0     25.897   -39.082
20777.9     23.157   148.162
21080.1     19.488     2.258
21386.7     15.555  -120.426
21697.8     13.950   138.869
22013.4     13.516    44.933
22333.6     12.741   -71.396
22658.4     16.693   174.561
22988.0     19.775   104.122
23322.4     21.317    47.797
23661.6     19.648    14.384
24005.8     17.325   -21.638
24355.0     14.335   -31.203
24709.2      8.167   -21.614
25068.6      5.881   -94.209
25433.2     10.720   -93.965
25803.2     14.889   -55.673
26178.5     16.397    31.776
26559.3     16.680   123.117
26945.6     17.071  -127.097
27337.5     15.175  -174.458
27735.2     16.533  -141.544
28138.6     15.881    34.808
28547.9     13.690  -113.135
28963.1      8.679   100.690
29384.4      4.928   -45.243
29811.8      5.875  -114.733
30245.4     13.096  -120.580
30685.3     15.238   178.126
31131.7     16.989   119.622
31584.5     18.057    79.176
32043.9     15.717    56.237
32510.0     11.702    79.831
32982.8      3.338   -20.410
33462.6     12.182     0.745
33949.3     13.142    72.289
34443.1     20.484   123.714
34944.1     18.684  -132.757
35452.4     15.205   -34.251
35968.0     13.896   111.012
36491.2      8.598   -50.494
37022.0      6.287   135.731
37560.5      2.007    20.862
38106.8      0.362    -1.279
38661.1      3.784  -139.600
39223.4      8.462   115.290
39793.9      6.801    79.812
