Freq[Hz]     dBSPL  Phase[Deg]
5.00000     20.676  -168.026
5.07273     20.710  -167.658
5.14651     20.750  -167.379
5.22137     20.803  -167.346
5.29732     20.856  -167.314
5.37437     20.910  -167.282
5.45254     20.963  -167.249
5.53185     20.996  -167.384
5.61231     21.009  -167.694
5.69394     21.021  -168.005
5.77676     21.034  -168.316
5.86079     21.045  -168.626
5.94604     20.974  -168.908
6.03252     20.904  -169.190
6.12027     20.833  -169.471
6.20929     20.763  -169.753
6.29961     20.645  -169.537
6.39124     20.517  -169.210
6.48420     20.388  -168.883
6.57851     20.260  -168.556
6.67420     20.188  -167.508
6.77128     20.124  -166.342
6.86977     20.061  -165.177
6.96969     20.018  -164.015
7.07107     20.132  -162.878
7.17392     20.245  -161.741
7.27827     20.359  -160.604
7.38413     20.520  -160.135
7.49154     20.718  -160.182
7.60050     20.916  -160.230
7.71105     21.094  -160.503
7.82321     21.178  -161.766
7.93701     21.263  -163.029
8.05245     21.348  -164.293
8.16958     21.190  -165.789
8.28841     21.022  -167.294
8.40896     20.855  -168.799
8.53128     20.450  -168.906
8.65537     20.014  -168.832
8.78126     19.579  -168.759
8.90899     19.249  -165.196
9.03857     18.927  -161.405
9.17004     18.695  -157.535
9.30342     19.184  -153.035
9.43874     19.673  -148.535
9.57603     20.323  -145.951
9.71532     21.216  -146.294
9.85663     22.110  -146.637
10.0000     22.776  -150.255
10.1455     23.378  -154.785
10.2930     23.858  -159.978
10.4427     23.996  -167.020
10.5946     24.135  -174.061
10.7487     23.862   177.460
10.9051     23.507   168.694
11.0637     22.839   159.164
11.2246     21.842   148.824
11.3879     20.617   137.977
11.5535     18.563   125.276
11.7216     16.462   112.378
11.8921     11.619    87.873
12.0650      6.776    63.369
12.2405      7.754    -1.405
12.4186      9.481   -71.371
12.5992     12.243  -101.048
12.7825     15.235  -121.789
12.9684     16.717  -140.548
13.1570     17.847  -158.846
13.3484     18.401  -178.913
13.5426     18.861   160.732
13.7395     19.287   138.288
13.9394     19.746   115.836
14.1421     20.462    93.939
14.3478     21.213    73.125
14.5565     22.043    54.640
14.7683     22.785    38.416
14.9831     23.459    23.937
15.2010     23.939    12.647
15.4221     24.365     2.522
15.6464     24.694    -4.875
15.8740     25.061   -10.932
16.1049     25.458   -15.919
16.3392     26.007   -20.213
16.5768     26.585   -24.779
16.8179     27.194   -29.779
17.0626     27.691   -35.769
17.3107     28.067   -42.177
17.5625     28.281   -49.027
17.8180     28.163   -55.948
18.0771     27.808   -62.502
18.3401     27.192   -68.480
18.6068     26.130   -72.724
18.8775     24.654   -73.583
19.1521     22.985   -69.196
19.4306     21.396   -57.865
19.7133     21.646   -37.579
20.0000     23.528   -24.640
20.2909     25.809   -19.384
20.5860     27.857   -20.858
20.8855     29.377   -26.173
21.1893     30.231   -33.389
21.4975     30.524   -40.655
21.8102     30.279   -46.691
22.1274     29.562   -49.755
22.4492     28.638   -47.791
22.7758     28.085   -39.949
23.1071     28.628   -29.461
23.4432     30.109   -23.580
23.7841     31.551   -23.934
24.1301     32.507   -27.077
24.4811     32.960   -30.315
24.8372     33.072   -31.630
25.1984     33.170   -30.048
25.5649     33.616   -26.645
25.9368     34.472   -24.001
26.3141     35.474   -23.704
26.6968     36.326   -25.320
27.0851     36.917   -27.396
27.4791     37.323   -28.545
27.8788     37.757   -28.363
28.2843     38.368   -27.809
28.6957     39.112   -28.098
29.1131     39.824   -29.595
29.5365     40.375   -31.672
29.9661     40.757   -33.317
30.4020     41.083   -33.828
30.8442     41.532   -33.369
31.2929     42.136   -33.085
31.7480     42.798   -33.610
32.2098     43.400   -34.773
32.6783     43.895   -35.810
33.1536     44.380   -36.225
33.6359     44.951   -36.282
34.1251     45.626   -36.724
34.6215     46.305   -37.943
35.1250     46.902   -39.552
35.6359     47.411   -40.884
36.1543     47.925   -41.688
36.6802     48.517   -42.321
37.2137     49.165   -43.330
37.7550     49.797   -44.756
38.3041     50.377   -46.260
38.8613     50.947   -47.569
39.4265     51.545   -48.793
40.0000     52.167   -50.191
40.5818     52.784   -51.782
41.1721     53.388   -53.427
41.7710     53.997   -55.112
42.3785     54.606   -56.938
42.9949     55.199   -58.862
43.6203     55.778   -60.764
44.2548     56.364   -62.628
44.8985     56.958   -64.571
45.5515     57.551   -66.609
46.2141     58.138   -68.672
46.8863     58.732   -70.752
47.5683     59.334   -72.944
48.2602     59.932   -75.276
48.9621     60.518   -77.665
49.6743     61.102   -80.055
50.3968     61.693   -82.481
51.1299     62.289   -85.004
51.8736     62.886   -87.643
52.6281     63.478   -90.385
53.3936     64.063   -93.202
54.1702     64.648   -96.071
54.9581     65.235   -99.030
55.7575     65.821  -102.136
56.5685     66.393  -105.336
57.3914     66.960  -108.584
58.2261     67.526  -111.941
59.0730     68.080  -115.418
59.9323     68.622  -118.908
60.8040     69.171  -122.442
61.6884     69.722  -126.125
62.5857     70.268  -129.950
63.4960     70.810  -133.953
64.4196     71.334  -138.163
65.3566     71.826  -142.521
66.3073     72.289  -146.919
67.2717     72.734  -151.302
68.2502     73.169  -155.720
69.2429     73.588  -160.195
70.2501     74.000  -164.672
71.2719     74.413  -169.270
72.3086     74.807  -174.050
73.3603     75.172  -178.942
74.4274     75.505   176.111
75.5099     75.813   171.188
76.6083     76.103   166.208
77.7226     76.362   161.240
78.8531     76.605   156.357
80.0000     76.837   151.420
81.1636     77.048   146.474
82.3442     77.242   141.480
83.5419     77.401   136.474
84.7570     77.533   131.568
85.9899     77.649   126.762
87.2406     77.759   122.010
88.5096     77.854   117.239
89.7970     77.930   112.445
91.1031     77.973   107.640
92.4282     77.970   102.920
93.7726     77.924    98.505
95.1366     77.875    94.582
96.5204     77.879    90.945
97.9243     77.923    87.147
99.3486     77.963    83.254
100.794     77.997    79.292
102.260     78.020    75.344
103.747     78.035    71.390
105.256     78.039    67.472
106.787     78.038    63.551
108.340     78.021    59.652
109.916     77.983    55.813
111.515     77.932    52.200
113.137     77.907    48.746
114.783     77.889    45.205
116.452     77.867    41.723
118.146     77.851    38.269
119.865     77.839    34.814
121.608     77.829    31.359
123.377     77.823    27.893
125.171     77.818    24.346
126.992     77.803    20.762
128.839     77.777    17.198
130.713     77.747    13.531
132.615     77.665     9.926
134.543     77.601     6.728
136.500     77.587     3.351
138.486     77.564     0.099
140.500     77.507    -3.430
142.544     77.427    -7.007
144.617     77.371   -10.092
146.721     77.344   -13.089
148.855     77.343   -16.588
151.020     77.297   -20.279
153.217     77.234   -23.786
155.445     77.151   -27.318
157.706     77.017   -30.734
160.000     76.874   -33.537
162.327     76.856   -36.398
164.688     76.818   -39.422
167.084     76.830   -42.370
169.514     76.812   -47.091
171.980     76.484   -50.745
174.481     76.309   -52.648
177.019     76.263   -54.688
179.594     76.259   -57.272
182.206     76.227   -60.009
184.856     76.266   -62.781
187.545     76.300   -65.611
190.273     76.349   -68.795
193.041     76.376   -72.352
195.849     76.334   -75.749
198.697     76.299   -79.215
201.587     76.246   -82.697
204.520     76.168   -85.863
207.494     76.158   -88.839
210.512     76.180   -92.604
213.574     76.011   -97.076
216.681     75.774   -99.440
219.833     75.688  -101.598
223.030     75.700  -104.471
226.274     75.647  -107.798
229.565     75.489  -110.596
232.905     75.421  -112.745
236.292     75.449  -114.990
239.729     75.493  -117.938
243.216     75.458  -121.104
246.754     75.418  -123.582
250.343     75.464  -126.363
253.984     75.470  -129.625
257.678     75.439  -132.593
261.426     75.443  -135.715
265.229     75.383  -139.467
269.087     75.160  -142.051
273.001     75.127  -143.757
276.972     75.141  -146.446
281.000     75.132  -148.767
285.088     75.159  -151.549
289.234     75.177  -154.579
293.441     75.125  -158.204
297.709     74.839  -160.224
302.040     74.879  -162.537
306.433     74.680  -163.698
310.890     74.899  -165.520
315.412     74.990  -168.907
320.000     74.914  -173.139
324.655     74.473  -175.007
329.377     74.438  -175.330
334.168     74.603  -176.956
339.028     74.585  -179.907
343.959     74.594   178.058
348.962     74.603   175.554
354.038     74.515   172.965
359.188     74.451   170.064
364.412     74.224   168.762
369.713     74.240   167.113
375.090     74.249   165.315
380.546     74.262   163.447
386.081     74.274   160.598
391.697     74.189   158.309
397.394     74.099   156.057
403.175     74.018   153.730
409.039     73.859   151.556
414.989     73.748   149.942
421.025     73.675   148.474
427.149     73.669   146.588
433.362     73.535   144.695
439.665     73.497   142.666
446.060     73.339   140.501
452.548     73.218   139.162
459.131     73.082   137.161
465.809     72.907   135.662
472.584     72.834   134.786
479.458     72.760   133.461
486.432     72.699   132.163
493.507     72.647   130.793
500.686     72.577   129.651
507.968     72.588   128.464
515.357     72.560   127.096
522.853     72.562   125.816
530.458     72.571   124.539
538.174     72.601   123.122
546.002     72.617   121.652
553.943     72.635   120.160
562.001     72.648   118.606
570.175     72.649   117.008
578.469     72.628   115.349
586.883     72.582   113.687
595.419     72.509   112.050
604.080     72.405   110.440
612.866     72.268   108.898
621.780     72.096   107.475
630.824     71.888   106.230
640.000     71.651   105.249
649.309     71.391   104.586
658.753     71.109   104.296
668.335     70.811   104.458
678.056     70.524   105.127
687.919     70.265   106.345
697.925     70.058   108.089
708.077     69.934   110.243
718.376     69.909   112.676
728.825     69.998   115.176
739.426     70.199   117.504
750.181     70.498   119.438
761.093     70.869   120.826
772.163     71.275   121.578
783.394     71.695   121.707
794.789     72.112   121.239
806.349     72.494   120.260
818.078     72.832   118.841
829.977     73.117   117.077
842.050     73.341   115.053
854.298     73.499   112.860
866.724     73.588   110.618
879.330     73.609   108.351
892.120     73.561   106.183
905.097     73.448   104.209
918.262     73.276   102.523
931.618     73.055   101.225
945.169     72.799   100.398
958.917     72.528   100.111
972.864     72.268   100.387
987.015     72.046   101.191
1001.37     71.883   102.423
1015.94     71.807   103.879
1030.71     71.820   105.300
1045.71     71.912   106.488
1060.92     72.057   107.260
1076.35     72.222   107.511
1092.00     72.373   107.256
1107.89     72.484   106.562
1124.00     72.530   105.561
1140.35     72.493   104.422
1156.94     72.364   103.331
1173.77     72.143   102.532
1190.84     71.839   102.278
1208.16     71.481   102.825
1225.73     71.111   104.416
1243.56     70.804   107.159
1261.65     70.650   110.861
1280.00     70.716   114.988
1298.62     71.017   118.805
1317.51     71.505   121.683
1336.67     72.097   123.243
1356.11     72.698   123.442
1375.84     73.246   122.457
1395.85     73.697   120.555
1416.15     74.021   118.038
1436.75     74.211   115.184
1457.65     74.267   112.213
1478.85     74.196   109.344
1500.36     74.013   106.793
1522.19     73.736   104.689
1544.33     73.391   103.139
1566.79     73.002   102.184
1589.58     72.592   101.806
1612.70     72.179   101.949
1636.16     71.763   102.580
1659.95     71.346   103.741
1684.10     70.941   105.560
1708.60     70.585   108.165
1733.45     70.345   111.499
1758.66     70.288   115.233
1784.24     70.439   118.635
1810.19     70.746   120.957
1836.52     71.104   121.837
1863.24     71.395   121.325
1890.34     71.531   119.814
1917.83     71.463   117.878
1945.73     71.180   116.149
1974.03     70.712   115.235
2002.74     70.139   115.630
2031.87     69.572   117.476
2061.43     69.115   120.423
2091.41     68.809   123.799
2121.83     68.612   127.012
2152.69     68.452   129.887
2184.01     68.282   132.685
2215.77     68.105   135.664
2248.00     67.948   138.846
2280.70     67.811   142.110
2313.87     67.662   145.502
2347.53     67.485   149.414
2381.68     67.344   154.362
2416.32     67.392   160.375
2451.46     67.757   166.414
2487.12     68.385   170.999
2523.30     69.072   173.484
2560.00     69.634   174.358
2597.24     70.001   174.617
2635.01     70.219   175.124
2673.34     70.393   176.221
2712.23     70.617   177.645
2751.68     70.911   178.836
2791.70     71.226   179.394
2832.31     71.494   179.315
2873.50     71.673   178.850
2915.30     71.753   178.313
2957.70     71.751   177.976
3000.72     71.701   177.993
3044.37     71.642   178.313
3088.65     71.588   178.730
3133.58     71.512   179.122
3179.16     71.391   179.686
3225.40     71.257  -179.266
3272.31     71.193  -177.850
3319.91     71.222  -176.754
3368.20     71.242  -176.502
3417.19     71.127  -176.690
3466.89     70.868  -176.308
3517.32     70.605  -174.819
3568.48     70.469  -172.844
3620.39     70.427  -171.278
3673.05     70.370  -170.143
3726.47     70.294  -168.987
3780.67     70.256  -167.920
3835.67     70.225  -167.444
3891.46     70.097  -167.478
3948.06     69.835  -167.317
4005.49     69.510  -166.461
4063.75     69.190  -164.961
4122.86     68.897  -162.969
4182.82     68.659  -160.378
4243.66     68.568  -157.303
4305.39     68.685  -154.727
4368.01     68.874  -153.725
4431.55     68.898  -153.831
4496.01     68.749  -153.263
4561.40     68.712  -151.618
4627.75     68.870  -150.808
4695.06     68.936  -151.351
4763.35     68.841  -151.442
4832.64     68.839  -150.659
4902.93     68.987  -150.337
4974.24     69.174  -150.685
5046.60     69.415  -151.673
5120.00     69.641  -153.728
5194.47     69.768  -156.243
5270.03     69.870  -158.892
5346.68     69.906  -162.028
5424.45     69.823  -164.784
5503.35     69.792  -166.765
5583.40     69.842  -168.882
5664.61     69.913  -170.978
5747.01     70.073  -173.267
5830.60     70.199  -176.353
5915.41     70.189  -179.134
6001.45     70.193   179.060
6088.74     70.293   177.600
6177.30     70.437   176.162
6267.15     70.627   175.075
6358.31     70.953   173.898
6450.80     71.297   171.806
6544.62     71.549   169.517
6639.82     71.758   167.396
6736.40     71.951   165.567
6834.38     72.172   163.627
6933.79     72.314   161.579
7034.64     72.458   160.071
7136.96     72.658   158.361
7240.77     72.863   156.134
7346.09     72.977   153.146
7452.94     72.920   150.254
7561.35     72.788   148.034
7671.33     72.672   146.265
7782.91     72.614   144.652
7896.12     72.674   141.886
8010.97     72.572   137.047
8127.49     72.110   129.229
8245.71     70.048   120.403
8365.65     66.866   129.401
8487.33     66.660   148.480
8610.78     67.634   155.389
8736.03     68.256   157.528
8863.09     68.597   157.031
8992.01     68.683   157.152
9122.80     68.867   155.991
9255.50     68.775   154.166
9390.12     68.643   153.324
9526.70     68.598   152.212
9665.27     68.586   150.681
9805.86     68.447   147.958
9948.49     68.059   146.525
10093.2     67.867   146.495
10240.0     67.676   145.199
10388.9     67.317   144.281
10540.1     66.620   143.845
10693.4     65.881   147.299
10848.9     65.283   152.470
11006.7     65.052   159.307
11166.8     65.084   166.552
11329.2     65.455   172.841
11494.0     65.778   178.383
11661.2     66.379  -174.455
11830.8     67.515  -169.282
12002.9     68.873  -168.259
12177.5     69.751  -172.026
12354.6     69.954  -174.423
12534.3     70.155  -175.919
12716.6     70.222  -176.068
12901.6     70.450  -176.059
13089.2     70.723  -176.628
13279.6     71.015  -177.945
13472.8     71.145   179.069
13668.8     70.979   176.579
13867.6     70.766   175.187
14069.3     70.554   173.868
14273.9     70.294   172.773
14481.5     70.043   171.891
14692.2     69.765   170.709
14905.9     69.433   168.766
15122.7     68.806   166.164
15342.7     67.718   165.023
15565.8     66.497   167.493
15792.2     65.473   173.038
16021.9     64.821  -179.808
16255.0     64.450  -172.361
16491.4     64.391  -165.185
16731.3     64.451  -158.668
16974.7     64.769  -152.085
17221.6     65.193  -148.323
17472.1     65.433  -142.872
17726.2     66.201  -139.223
17984.0     66.762  -137.889
18245.6     67.360  -136.530
18511.0     68.055  -137.452
18780.2     68.516  -140.765
19053.4     68.634  -145.092
19330.5     68.413  -149.336
19611.7     68.064  -152.746
19897.0     67.518  -159.203
20186.4     65.931  -161.727
20480.0     64.567  -161.248
20777.9     62.766  -156.744
21080.1     61.956  -146.627
21386.7     61.669  -140.482
21697.8     61.306  -134.879
22013.4     61.145  -129.209
22333.6     61.121  -125.638
22658.4     60.968  -123.674
22988.0     60.567  -122.981
23322.4     59.890  -121.655
23661.6     58.925  -121.401
24005.8     57.005  -118.677
24355.0     54.811  -104.962
24709.2     54.567   -81.385
25068.6     56.409   -68.077
25433.2     57.680   -65.418
25803.2     58.322   -63.772
26178.5     58.805   -62.476
26559.3     59.415   -61.399
26945.6     60.781   -62.782
27337.5     57.186   -92.538
27735.2     56.365   -54.826
28138.6     57.151   -52.346
28547.9     57.107   -47.000
28963.1     57.324   -41.309
29384.4     57.623   -32.803
29811.8     59.271   -30.049
30245.4     59.536   -33.381
30685.3     59.604   -34.345
31131.7     59.533   -34.149
31584.5     59.742   -33.779
32043.9     60.159   -36.659
32510.0     60.557   -42.987
32982.8     60.805   -57.110
33462.6     59.608   -77.462
33949.3     54.034  -105.799
34443.1     51.678   -76.104
34944.1     47.365  -106.441
35452.4     38.404   -68.312
35968.0     41.419   -19.994
36491.2     43.098   -20.126
37022.0     42.747   -19.743
37560.5     42.007   -15.754
38106.8     41.888   -11.413
38661.1     41.017    -6.399
39223.4     42.597    -6.891
39793.9     41.915   -17.797
