Freq[Hz]     dBSPL  Phase[Deg]
5.00000     10.122  -173.622
5.07273     10.159  -173.332
5.14651     10.201  -173.132
5.22137     10.257  -173.183
5.29732     10.313  -173.234
5.37437     10.369  -173.285
5.45254     10.425  -173.336
5.53185     10.462  -173.557
5.61231     10.477  -173.956
5.69394     10.492  -174.356
5.77676     10.508  -174.755
5.86079     10.522  -175.154
5.94604     10.455  -175.530
6.03252     10.388  -175.905
6.12027     10.320  -176.281
6.20929     10.253  -176.657
6.29961     10.139  -176.538
6.39124     10.015  -176.310
6.48420      9.890  -176.083
6.57851      9.765  -175.855
6.67420      9.697  -174.910
6.77128      9.639  -173.848
6.86977      9.580  -172.787
6.96969      9.542  -171.729
7.07107      9.660  -170.701
7.17392      9.778  -169.673
7.27827      9.896  -168.645
7.38413     10.062  -168.287
7.49154     10.265  -168.448
7.60050     10.468  -168.610
7.71105     10.651  -168.997
7.82321     10.741  -170.379
7.93701     10.832  -171.760
8.05245     10.923  -173.142
8.16958     10.770  -174.761
8.28841     10.609  -176.388
8.40896     10.447  -178.016
8.53128     10.049  -178.250
8.65537      9.620  -178.304
8.78126      9.191  -178.358
8.90899      8.869  -174.926
9.03857      8.553  -171.267
9.17004      8.328  -167.529
9.30342      8.826  -163.165
9.43874      9.323  -158.801
9.57603      9.980  -156.354
9.71532     10.882  -156.837
9.85663     11.783  -157.319
10.0000     12.458  -161.080
10.1455     13.068  -165.754
10.2930     13.557  -171.092
10.4427     13.705  -178.281
10.5946     13.853   174.530
10.7487     13.590   165.900
10.9051     13.245   156.983
11.0637     12.588   147.300
11.2246     11.601   136.806
11.3879     10.387   125.803
11.5535      8.344   112.943
11.7216      6.254    99.887
11.8921      1.424    75.222
12.0650     -3.407    50.556
12.2405     -2.418   -14.382
12.4186     -0.678   -84.513
12.5992      2.097  -114.357
12.7825      5.102  -135.266
12.9684      6.598  -154.195
13.1570      7.742  -172.663
13.3484      8.310   167.097
13.5426      8.783   146.569
13.7395      9.225   123.949
13.9394      9.699   101.321
14.1421     10.431    79.246
14.3478     11.198    58.253
14.5565     12.044    39.588
14.7683     12.803    23.181
14.9831     13.493     8.520
15.2010     13.991    -2.955
15.4221     14.434   -13.264
15.6464     14.782   -20.848
15.8740     15.167   -27.093
16.1049     15.583   -32.269
16.3392     16.152   -36.753
16.5768     16.750   -41.510
16.8179     17.380   -46.701
17.0626     17.897   -52.884
17.3107     18.295   -59.486
17.5625     18.530   -66.531
17.8180     18.435   -73.648
18.0771     18.103   -80.397
18.3401     17.509   -86.572
18.6068     16.471   -91.014
18.8775     15.019   -92.072
19.1521     13.375   -87.883
19.4306     11.810   -76.751
19.7133     12.085   -56.666
20.0000     13.993   -43.927
20.2909     16.301   -38.871
20.5860     18.376   -40.547
20.8855     19.923   -46.062
21.1893     20.805   -53.479
21.4975     21.126   -60.948
21.8102     20.911   -67.184
22.1274     20.223   -70.450
22.4492     19.329   -68.688
22.7758     18.806   -61.047
23.1071     19.380   -50.760
23.4432     20.893   -45.080
23.7841     22.367   -45.633
24.1301     23.355   -48.976
24.4811     23.842   -52.414
24.8372     23.988   -53.928
25.1984     24.120   -52.544
25.5649     24.600   -49.338
25.9368     25.491   -46.891
26.3141     26.528   -46.789
26.6968     27.417   -48.600
27.0851     28.045   -50.869
27.4791     28.488   -52.211
27.8788     28.959   -52.220
28.2843     29.608   -51.856
28.6957     30.391   -52.334
29.1131     31.142   -54.018
29.5365     31.733   -56.280
29.9661     32.155   -58.110
30.4020     32.522   -58.803
30.8442     33.012   -58.525
31.2929     33.657   -58.420
31.7480     34.361   -59.122
32.2098     35.005   -60.461
32.6783     35.543   -61.671
33.1536     36.071   -62.256
33.6359     36.686   -62.483
34.1251     37.405   -63.092
34.6215     38.127   -64.474
35.1250     38.770   -66.246
35.6359     39.324   -67.737
36.1543     39.885   -68.700
36.6802     40.521   -69.487
37.2137     41.216   -70.648
37.7550     41.894   -72.225
38.3041     42.520   -73.876
38.8613     43.138   -75.329
39.4265     43.783   -76.696
40.0000     44.452   -78.233
40.5818     45.116   -79.961
41.1721     45.770   -81.739
41.7710     46.426   -83.554
42.3785     47.083   -85.509
42.9949     47.725   -87.558
43.6203     48.353   -89.582
44.2548     48.988   -91.566
44.8985     49.631   -93.626
45.5515     50.273   -95.778
46.2141     50.910   -97.952
46.8863     51.553  -100.139
47.5683     52.204  -102.437
48.2602     52.851  -104.871
48.9621     53.487  -107.360
49.6743     54.121  -109.846
50.3968     54.761  -112.366
51.1299     55.407  -114.981
51.8736     56.053  -117.709
52.6281     56.694  -120.537
53.3936     57.329  -123.437
54.1702     57.963  -126.387
54.9581     58.599  -129.424
55.7575     59.234  -132.606
56.5685     59.855  -135.879
57.3914     60.472  -139.198
58.2261     61.086  -142.624
59.0730     61.688  -146.167
59.9323     62.279  -149.721
60.8040     62.876  -153.317
61.6884     63.475  -157.061
62.5857     64.069  -160.945
63.4960     64.658  -165.004
64.4196     65.229  -169.269
65.3566     65.769  -173.680
66.3073     66.278  -178.130
67.2717     66.769   177.438
68.2502     67.251   172.970
69.2429     67.715   168.449
70.2501     68.172   163.925
71.2719     68.631   159.282
72.3086     69.069   154.458
73.3603     69.479   149.522
74.4274     69.856   144.532
75.5099     70.209   139.567
76.6083     70.543   134.545
77.7226     70.843   129.536
78.8531     71.130   124.612
80.0000     71.405   119.633
81.1636     71.658   114.646
82.3442     71.893   109.611
83.5419     72.094   104.564
84.7570     72.266    99.615
85.9899     72.422    94.767
87.2406     72.572    89.972
88.5096     72.708    85.157
89.7970     72.822    80.319
91.1031     72.905    75.468
92.4282     72.941    70.701
93.7726     72.933    66.238
95.1366     72.921    62.266
96.5204     72.963    58.577
97.9243     73.044    54.727
99.3486     73.121    50.779
100.794     73.191    46.760
102.260     73.249    42.754
103.747     73.300    38.739
105.256     73.340    34.758
106.787     73.374    30.771
108.340     73.391    26.804
109.916     73.387    22.894
111.515     73.369    19.207
113.137     73.379    15.676
114.783     73.393    12.055
116.452     73.404     8.490
118.146     73.421     4.949
119.865     73.442     1.404
121.608     73.463    -2.145
123.377     73.490    -5.708
125.171     73.515    -9.356
126.992     73.532   -13.045
128.839     73.538   -16.719
130.713     73.537   -20.500
132.615     73.487   -24.223
134.543     73.453   -27.546
136.500     73.471   -31.054
138.486     73.476   -34.427
140.500     73.449   -38.092
142.544     73.401   -41.822
144.617     73.375   -45.049
146.721     73.376   -48.193
148.855     73.405   -51.853
151.020     73.390   -55.709
153.217     73.356   -59.385
155.445     73.302   -63.088
157.706     73.197   -66.679
160.000     73.084   -69.674
162.327     73.097   -72.731
164.688     73.086   -75.940
167.084     73.128   -79.090
169.514     73.141   -84.033
171.980     72.844   -87.913
174.481     72.699   -90.029
177.019     72.681   -92.286
179.594     72.706   -95.105
182.206     72.708   -98.099
184.856     72.778  -101.133
187.545     72.842  -104.209
190.273     72.923  -107.662
193.041     72.981  -111.491
195.849     72.970  -115.165
198.697     72.969  -118.929
201.587     72.949  -122.713
204.520     72.904  -126.186
207.494     72.927  -129.472
210.512     72.984  -133.572
213.574     72.851  -138.383
216.681     72.647  -141.069
219.833     72.597  -143.574
223.030     72.646  -146.821
226.274     72.630  -150.525
229.565     72.510  -153.705
232.905     72.479  -156.241
236.292     72.545  -158.879
239.729     72.629  -162.246
243.216     72.635  -165.837
246.754     72.636  -168.746
250.343     72.725  -171.986
253.984     72.774  -175.715
257.678     72.787  -179.155
261.426     72.838   177.220
265.229     72.824   172.956
269.087     72.648   169.854
273.001     72.664   167.621
276.972     72.725   164.397
281.000     72.768   161.506
285.088     72.847   158.118
289.234     72.920   154.472
293.441     72.923   150.219
297.709     72.692   147.559
302.040     72.788   144.595
306.433     72.648   142.739
310.890     72.930   140.180
315.412     73.084   136.039
320.000     73.071   131.036
324.655     72.695   128.379
329.377     72.724   127.248
334.168     72.959   124.727
339.028     73.012   120.857
343.959     73.092   117.877
348.962     73.172   114.402
354.038     73.155   110.814
359.188     73.165   106.845
364.412     73.015   104.402
369.713     73.105   101.576
375.090     73.188    98.561
380.546     73.275    95.393
386.081     73.359    91.198
391.697     73.344    87.471
397.394     73.324    83.683
403.175     73.304    79.818
409.039     73.201    76.004
414.989     73.140    72.646
421.025     73.108    69.384
427.149     73.132    65.659
433.362     73.014    61.888
439.665     72.979    57.836
446.060     72.807    53.629
452.548     72.653    50.245
459.131     72.463    46.156
465.809     72.211    42.553
472.584     72.039    39.639
479.458     71.847    36.372
486.432     71.645    33.201
493.507     71.433    30.066
500.686     71.186    27.300
507.968     71.012    24.694
515.357     70.798    22.120
522.853     70.613    19.829
530.458     70.443    17.740
538.174     70.312    15.722
546.002     70.190    13.833
553.943     70.096    12.070
562.001     70.029    10.363
570.175     69.985     8.696
578.469     69.961     7.008
586.883     69.954     5.311
595.419     69.961     3.588
604.080     69.980     1.791
612.866     70.008    -0.090
621.780     70.042    -2.056
630.824     70.080    -4.107
640.000     70.118    -6.194
649.309     70.154    -8.305
658.753     70.188   -10.470
668.335     70.219   -12.717
678.056     70.247   -14.947
687.919     70.272   -17.188
697.925     70.296   -19.428
708.077     70.320   -21.619
718.376     70.348   -23.799
728.825     70.383   -25.971
739.426     70.426   -28.144
750.181     70.480   -30.334
761.093     70.547   -32.566
772.163     70.627   -34.828
783.394     70.719   -37.187
794.789     70.823   -39.714
806.349     70.932   -42.354
818.078     71.044   -45.170
829.977     71.153   -48.171
842.050     71.253   -51.367
854.298     71.337   -54.748
866.724     71.398   -58.251
879.330     71.433   -61.956
892.120     71.436   -65.780
905.097     71.402   -69.684
918.262     71.327   -73.621
931.618     71.209   -77.538
945.169     71.050   -81.377
958.917     70.849   -85.075
972.864     70.612   -88.568
987.015     70.345   -91.795
1001.37     70.050   -94.738
1015.94     69.750   -97.322
1030.71     69.465   -99.517
1045.71     69.204  -101.414
1060.92     68.981  -103.086
1076.35     68.811  -104.612
1092.00     68.692  -106.150
1107.89     68.615  -107.845
1124.00     68.564  -109.770
1140.35     68.519  -111.959
1156.94     68.458  -114.411
1173.77     68.363  -117.014
1190.84     68.222  -119.630
1208.16     68.032  -122.084
1225.73     67.799  -124.200
1243.56     67.544  -125.777
1261.65     67.312  -126.652
1280.00     67.157  -126.826
1298.62     67.138  -126.497
1317.51     67.294  -126.072
1336.67     67.632  -126.081
1356.11     68.110  -126.981
1375.84     68.672  -129.051
1395.85     69.253  -132.344
1416.15     69.794  -136.728
1436.75     70.260  -142.005
1457.65     70.632  -148.025
1478.85     70.898  -154.597
1500.36     71.049  -161.490
1522.19     71.086  -168.605
1544.33     71.012  -175.798
1566.79     70.832   177.058
1589.58     70.551   170.084
1612.70     70.185   163.438
1636.16     69.742   157.161
1659.95     69.237   151.339
1684.10     68.688   146.048
1708.60     68.116   141.346
1733.45     67.554   137.296
1758.66     67.026   133.816
1784.24     66.571   130.827
1810.19     66.226   128.115
1836.52     65.999   125.296
1863.24     65.880   122.007
1890.34     65.828   117.942
1917.83     65.784   112.981
1945.73     65.688   107.202
1974.03     65.489   100.837
2002.74     65.167    94.341
2031.87     64.733    88.213
2061.43     64.247    82.921
2091.41     63.820    78.641
2121.83     63.584    75.013
2152.69     63.610    71.097
2184.01     63.840    65.764
2215.77     64.125    58.483
2248.00     64.305    49.491
2280.70     64.271    39.510
2313.87     63.969    29.485
2347.53     63.422    20.620
2381.68     62.771    14.200
2416.32     62.306    10.713
2451.46     62.354     8.848
2487.12     62.947     5.804
2523.30     63.775    -0.154
2560.00     64.499    -8.668
2597.24     64.943   -18.313
2635.01     65.090   -27.650
2673.34     65.045   -35.495
2712.23     65.005   -41.388
2751.68     65.162   -46.050
2791.70     65.544   -50.921
2832.31     65.988   -56.935
2873.50     66.303   -63.810
2915.30     66.403   -70.477
2957.70     66.350   -75.826
3000.72     66.328   -79.351
3044.37     66.519   -81.734
3088.65     66.951   -84.357
3133.58     67.492   -88.071
3179.16     67.995   -92.781
3225.40     68.397   -97.900
3272.31     68.711  -102.908
3319.91     68.987  -107.623
3368.20     69.266  -112.104
3417.19     69.568  -116.554
3466.89     69.885  -121.252
3517.32     70.178  -126.378
3568.48     70.396  -131.798
3620.39     70.514  -137.197
3673.05     70.557  -142.248
3726.47     70.580  -146.854
3780.67     70.620  -151.249
3835.67     70.671  -155.730
3891.46     70.704  -160.457
3948.06     70.688  -165.449
4005.49     70.582  -170.673
4063.75     70.341  -175.904
4122.86     69.958   179.416
4182.82     69.505   175.650
4243.66     69.048   172.485
4305.39     68.534   169.494
4368.01     67.848   167.296
4431.55     67.084   167.366
4496.01     66.576   169.568
4561.40     66.382   171.498
4627.75     66.164   172.719
4695.06     65.910   175.594
4763.35     66.083   179.907
4832.64     66.668  -177.950
4902.93     67.155  -178.266
4974.24     67.474  -178.452
5046.60     67.926  -178.270
5120.00     68.509  -179.510
5194.47     68.980   177.734
5270.03     69.278   174.540
5346.68     69.450   171.368
5424.45     69.531   168.475
5503.35     69.600   165.834
5583.40     69.636   162.712
5664.61     69.460   159.398
5747.01     69.097   157.658
5830.60     68.865   157.791
5915.41     68.876   157.902
6001.45     68.954   157.161
6088.74     69.033   155.772
6177.30     69.033   153.295
6267.15     68.701   150.306
6358.31     67.986   149.638
6450.80     67.389   153.205
6544.62     67.364   158.300
6639.82     67.746   162.528
6736.40     68.484   165.210
6834.38     69.377   164.501
6933.79     70.015   160.854
7034.64     70.228   156.159
7136.96     70.052   152.719
7240.77     69.889   151.454
7346.09     69.862   150.016
7452.94     69.742   148.688
7561.35     69.708   147.793
7671.33     69.670   146.213
7782.91     69.613   144.478
7896.12     69.490   141.211
8010.97     68.938   136.659
8127.49     67.541   132.090
8245.71     64.683   138.006
8365.65     64.291   164.103
8487.33     66.762   173.292
8610.78     68.201   171.204
8736.03     68.829   167.264
8863.09     68.964   164.010
8992.01     68.949   162.157
9122.80     69.044   159.956
9255.50     68.886   156.278
9390.12     68.404   153.578
9526.70     67.846   153.169
9665.27     67.585   154.161
9805.86     67.592   153.486
9948.49     67.280   150.798
10093.2     66.493   150.626
10240.0     66.047   154.927
10388.9     66.126   158.235
10540.1     66.383   159.891
10693.4     66.411   158.859
10848.9     65.982   159.556
11006.7     65.668   162.617
11166.8     65.548   167.495
11329.2     66.031   171.865
11494.0     66.655   171.913
11661.2     66.480   169.825
11830.8     66.029   174.590
12002.9     66.774  -178.339
12177.5     68.168  -179.585
12354.6     68.600   173.580
12534.3     68.247   168.242
12716.6     67.425   166.847
12901.6     66.915   169.267
13089.2     66.796   171.975
13279.6     66.804   172.720
13472.8     66.592   172.872
13668.8     66.147   173.787
13867.6     65.782   177.851
14069.3     65.952  -178.849
14273.9     65.932  -178.619
14481.5     65.527  -176.336
14692.2     65.497  -171.758
14905.9     65.808  -170.014
15122.7     65.566  -170.871
15342.7     64.761  -165.741
15565.8     65.452  -156.497
15792.2     66.450  -158.759
16021.9     65.941  -162.081
16255.0     65.266  -156.149
16491.4     66.061  -149.574
16731.3     66.897  -152.322
16974.7     66.581  -156.290
17221.6     65.829  -154.683
17472.1     65.795  -148.331
17726.2     66.463  -147.948
17984.0     66.355  -150.503
18245.6     65.829  -149.543
18511.0     65.870  -146.090
18780.2     66.055  -147.046
19053.4     65.749  -148.221
19330.5     65.407  -147.746
19611.7     65.029  -148.450
19897.0     64.106  -145.489
20186.4     64.365  -141.619
20480.0     64.174  -143.757
20777.9     63.063  -142.213
21080.1     62.998  -135.178
21386.7     63.298  -135.329
21697.8     62.937  -135.883
22013.4     62.700  -135.384
22333.6     62.337  -137.149
22658.4     61.664  -137.408
22988.0     61.139  -139.080
23322.4     60.007  -142.130
23661.6     58.456  -142.055
24005.8     56.795  -141.167
24355.0     54.462  -135.464
24709.2     52.541  -123.777
25068.6     51.058  -105.615
25433.2     51.333   -85.143
25803.2     52.950   -71.966
26178.5     54.431   -68.236
26559.3     56.188   -67.038
26945.6     58.598   -80.080
27337.5     55.061   124.917
27735.2     52.819   -44.195
28138.6     55.250   -53.087
28547.9     55.846   -56.556
28963.1     56.542   -60.931
29384.4     56.535   -66.985
29811.8     56.684   -70.195
30245.4     56.830   -81.843
30685.3     55.825   -93.440
31131.7     54.921  -106.576
31584.5     53.550  -124.265
32043.9     52.208  -148.713
32510.0     50.592   177.019
32982.8     50.004   136.535
33462.6     48.951   118.366
33949.3     53.618    95.367
34443.1     56.856    42.321
34944.1     54.060    -1.938
35452.4     50.328   -22.438
35968.0     47.368   -33.589
36491.2     45.643   -41.019
37022.0     44.225   -54.417
37560.5     42.144   -64.295
38106.8     41.153   -76.355
38661.1     39.832   -81.306
39223.4     40.781   -80.715
39793.9     45.486  -100.777
