Freq[Hz]     dBSPL  Phase[Deg]
5.00000     15.663  -169.524
5.07273     15.698  -169.177
5.14651     15.738  -168.919
5.22137     15.792  -168.910
5.29732     15.846  -168.900
5.37437     15.900  -168.890
5.45254     15.953  -168.881
5.53185     15.987  -169.038
5.61231     16.000  -169.373
5.69394     16.013  -169.708
5.77676     16.026  -170.043
5.86079     16.038  -170.378
5.94604     15.968  -170.685
6.03252     15.898  -170.993
6.12027     15.828  -171.300
6.20929     15.758  -171.608
6.29961     15.640  -171.418
6.39124     15.513  -171.119
6.48420     15.385  -170.819
6.57851     15.257  -170.520
6.67420     15.185  -169.500
6.77128     15.123  -168.363
6.86977     15.060  -167.226
6.96969     15.018  -166.093
7.07107     15.132  -164.986
7.17392     15.246  -163.879
7.27827     15.360  -162.773
7.38413     15.522  -162.335
7.49154     15.722  -162.414
7.60050     15.921  -162.493
7.71105     16.099  -162.798
7.82321     16.185  -164.095
7.93701     16.270  -165.391
8.05245     16.356  -166.687
8.16958     16.198  -168.218
8.28841     16.032  -169.758
8.40896     15.865  -171.297
8.53128     15.461  -171.440
8.65537     15.027  -171.403
8.78126     14.593  -171.365
8.90899     14.264  -167.840
9.03857     13.942  -164.086
9.17004     13.711  -160.254
9.30342     14.201  -155.793
9.43874     14.692  -151.331
9.57603     15.342  -148.787
9.71532     16.238  -149.170
9.85663     17.133  -149.553
10.0000     17.800  -153.213
10.1455     18.403  -157.784
10.2930     18.884  -163.019
10.4427     19.024  -170.103
10.5946     19.165  -177.188
10.7487     18.893   174.289
10.9051     18.540   165.479
11.0637     17.874   155.904
11.2246     16.878   145.519
11.3879     15.654   134.625
11.5535     13.602   121.877
11.7216     11.503   108.932
11.8921      6.662    84.380
12.0650      1.821    59.827
12.2405      2.800    -4.996
12.4186      4.530   -75.012
12.5992      7.295  -104.739
12.7825     10.288  -125.531
12.9684     11.772  -144.342
13.1570     12.905  -162.692
13.3484     13.461   177.188
13.5426     13.923   156.780
13.7395     14.352   134.281
13.9394     14.813   111.775
14.1421     15.532    89.822
14.3478     16.286    68.953
14.5565     17.118    50.411
14.7683     17.863    34.129
14.9831     18.539    19.592
15.2010     19.023     8.244
15.4221     19.452    -1.940
15.6464     19.784    -9.397
15.8740     20.153   -15.515
16.1049     20.553   -20.564
16.3392     21.106   -24.920
16.5768     21.687   -29.548
16.8179     22.300   -34.612
17.0626     22.801   -40.666
17.3107     23.180   -47.138
17.5625     23.398   -54.054
17.8180     23.284   -61.042
18.0771     22.934   -67.662
18.3401     22.321   -73.707
18.6068     21.263   -78.020
18.8775     19.791   -78.948
19.1521     18.127   -74.630
19.4306     16.542   -63.369
19.7133     16.796   -43.155
20.0000     18.683   -30.288
20.2909     20.969   -25.103
20.5860     23.021   -26.651
20.8855     24.548   -32.039
21.1893     25.406   -39.329
21.4975     25.703   -46.670
21.8102     25.464   -52.782
22.1274     24.753   -55.922
22.4492     23.835   -54.035
22.7758     23.287   -46.271
23.1071     23.836   -35.860
23.4432     25.322   -30.059
23.7841     26.771   -30.491
24.1301     27.733   -33.714
24.4811     28.193   -37.034
24.8372     28.312   -38.429
25.1984     28.417   -36.930
25.5649     28.869   -33.609
25.9368     29.731   -31.048
26.3141     30.740   -30.834
26.6968     31.600   -32.534
27.0851     32.199   -34.694
27.4791     32.612   -35.928
27.8788     33.054   -35.832
28.2843     33.673   -35.364
28.6957     34.424   -35.739
29.1131     35.144   -37.323
29.5365     35.703   -39.487
29.9661     36.095   -41.220
30.4020     36.429   -41.819
30.8442     36.887   -41.449
31.2929     37.500   -41.254
31.7480     38.171   -41.868
32.2098     38.783   -43.121
32.6783     39.287   -44.248
33.1536     39.782   -44.753
33.6359     40.363   -44.901
34.1251     41.047   -45.434
34.6215     41.736   -46.743
35.1250     42.344   -48.444
35.6359     42.864   -49.867
36.1543     43.388   -50.764
36.6802     43.990   -51.488
37.2137     44.650   -52.589
37.7550     45.293   -54.107
38.3041     45.884   -55.704
38.8613     46.465   -57.105
39.4265     47.075   -58.422
40.0000     47.709   -59.912
40.5818     48.337   -61.596
41.1721     48.954   -63.333
41.7710     49.575   -65.110
42.3785     50.196   -67.030
42.9949     50.801   -69.046
43.6203     51.394   -71.040
44.2548     51.992   -72.997
44.8985     52.600   -75.032
45.5515     53.205   -77.163
46.2141     53.806   -79.318
46.8863     54.412   -81.489
47.5683     55.028   -83.774
48.2602     55.640   -86.197
48.9621     56.239   -88.678
49.6743     56.837   -91.159
50.3968     57.442   -93.676
51.1299     58.052   -96.290
51.8736     58.663   -99.020
52.6281     59.269  -101.853
53.3936     59.868  -104.760
54.1702     60.468  -107.719
54.9581     61.069  -110.768
55.7575     61.669  -113.964
56.5685     62.255  -117.254
57.3914     62.838  -120.590
58.2261     63.418  -124.037
59.0730     63.987  -127.603
59.9323     64.544  -131.181
60.8040     65.108  -134.804
61.6884     65.674  -138.575
62.5857     66.235  -142.489
63.4960     66.791  -146.580
64.4196     67.330  -150.878
65.3566     67.837  -155.324
66.3073     68.315  -159.810
67.2717     68.775  -164.280
68.2502     69.225  -168.786
69.2429     69.658  -173.348
70.2501     70.085  -177.913
71.2719     70.513   177.402
72.3086     70.922   172.534
73.3603     71.302   167.554
74.4274     71.650   162.519
75.5099     71.973   157.508
76.6083     72.278   152.440
77.7226     72.550   147.383
78.8531     72.808   142.412
80.0000     73.055   137.385
81.1636     73.282   132.350
82.3442     73.489   127.266
83.5419     73.662   122.170
84.7570     73.808   117.172
85.9899     73.938   112.275
87.2406     74.062   107.431
88.5096     74.172   102.567
89.7970     74.261    97.680
91.1031     74.318    92.782
92.4282     74.329    87.967
93.7726     74.296    83.456
95.1366     74.260    79.437
96.5204     74.278    75.702
97.9243     74.335    71.806
99.3486     74.388    67.813
100.794     74.435    63.750
102.260     74.471    59.701
103.747     74.498    55.643
105.256     74.516    51.621
106.787     74.527    47.594
108.340     74.521    43.588
109.916     74.497    39.640
111.515     74.457    35.916
113.137     74.445    32.350
114.783     74.438    28.695
116.452     74.428    25.098
118.146     74.424    21.526
119.865     74.423    17.952
121.608     74.424    14.376
123.377     74.430    10.787
125.171     74.435     7.115
126.992     74.431     3.403
128.839     74.417    -0.291
130.713     74.396    -4.090
132.615     74.326    -7.830
134.543     74.272   -11.168
136.500     74.269   -14.688
138.486     74.255   -18.071
140.500     74.209   -21.744
142.544     74.140   -25.480
144.617     74.094   -28.711
146.721     74.076   -31.855
148.855     74.084   -35.514
151.020     74.049   -39.367
153.217     73.995   -43.037
155.445     73.921   -46.731
157.706     73.796   -50.311
160.000     73.662   -53.292
162.327     73.654   -56.332
164.688     73.624   -59.523
167.084     73.645   -62.652
169.514     73.637   -67.568
171.980     73.318   -71.419
174.481     73.151   -73.506
177.019     73.114   -75.731
179.594     73.117   -78.515
182.206     73.095   -81.467
184.856     73.143   -84.456
187.545     73.184   -87.489
190.273     73.243   -90.892
193.041     73.277   -94.669
195.849     73.243   -98.287
198.697     73.217  -101.990
201.587     73.172  -105.711
204.520     73.102  -109.116
207.494     73.100  -112.333
210.512     73.130  -116.355
213.574     72.970  -121.086
216.681     72.740  -123.695
219.833     72.662  -126.114
223.030     72.682  -129.267
226.274     72.637  -132.873
229.565     72.487  -135.953
232.905     72.425  -138.386
236.292     72.461  -140.916
239.729     72.512  -144.166
243.216     72.484  -147.636
246.754     72.452  -150.420
250.343     72.505  -153.526
253.984     72.519  -157.115
257.678     72.494  -160.411
261.426     72.506  -163.880
265.229     72.453  -167.982
269.087     72.237  -170.918
273.001     72.211  -172.978
276.972     72.231  -176.024
281.000     72.229  -178.722
285.088     72.261   178.100
289.234     72.286   174.670
293.441     72.239   170.642
297.709     71.958   168.216
302.040     72.003   165.494
306.433     71.809   163.902
310.890     72.033   161.629
315.412     72.128   157.786
320.000     72.054   153.094
324.655     71.616   150.762
329.377     71.583   149.972
334.168     71.749   147.837
339.028     71.731   144.373
343.959     71.740   141.820
348.962     71.747   138.794
354.038     71.656   135.681
359.188     71.587   132.232
364.412     71.355   130.359
369.713     71.362   128.137
375.090     71.361   125.765
380.546     71.361   123.303
386.081     71.359   119.860
391.697     71.256   116.961
397.394     71.145   114.084
403.175     71.040   111.162
409.039     70.852   108.384
414.989     70.709   106.165
421.025     70.600   104.114
427.149     70.556   101.672
433.362     70.380    99.255
439.665     70.297    96.711
446.060     70.092    94.078
452.548     69.925    92.323
459.131     69.742    89.950
465.809     69.523    88.128
472.584     69.412    86.987
479.458     69.307    85.449
486.432     69.224    83.975
493.507     69.161    82.457
500.686     69.093    81.181
507.968     69.120    79.861
515.357     69.120    78.343
522.853     69.163    76.879
530.458     69.227    75.369
538.174     69.321    73.665
546.002     69.410    71.846
553.943     69.510    69.930
562.001     69.613    67.872
570.175     69.711    65.681
578.469     69.793    63.340
586.883     69.854    60.916
595.419     69.891    58.437
604.080     69.901    55.880
612.866     69.883    53.278
621.780     69.832    50.668
630.824     69.749    48.093
640.000     69.634    45.649
649.309     69.491    43.377
658.753     69.320    41.278
668.335     69.122    39.374
678.056     68.910    37.788
687.919     68.692    36.533
697.925     68.481    35.634
708.077     68.295    35.109
718.376     68.148    34.906
728.825     68.057    34.954
739.426     68.034    35.138
750.181     68.086    35.311
761.093     68.210    35.313
772.163     68.392    35.010
783.394     68.617    34.298
794.789     68.869    33.094
806.349     69.120    31.422
818.078     69.354    29.281
829.977     69.555    26.722
842.050     69.709    23.805
854.298     69.806    20.611
866.724     69.836    17.276
879.330     69.794    13.794
892.120     69.676    10.318
905.097     69.481     6.962
918.262     69.209     3.851
931.618     68.868     1.122
945.169     68.470    -1.084
958.917     68.037    -2.629
972.864     67.602    -3.419
987.015     67.206    -3.433
1001.37     66.888    -2.777
1015.94     66.697    -1.725
1030.71     66.648    -0.682
1045.71     66.724    -0.026
1060.92     66.883    -0.062
1076.35     67.069    -0.913
1092.00     67.231    -2.539
1107.89     67.328    -4.819
1124.00     67.327    -7.518
1140.35     67.211   -10.375
1156.94     66.970   -13.130
1173.77     66.610   -15.426
1190.84     66.158   -16.924
1208.16     65.664   -17.320
1225.73     65.204   -16.425
1243.56     64.884   -14.356
1261.65     64.796   -11.702
1280.00     64.960    -9.345
1298.62     65.312    -8.057
1317.51     65.747    -8.196
1336.67     66.162    -9.734
1356.11     66.478   -12.355
1375.84     66.654   -15.684
1395.85     66.670   -19.298
1416.15     66.528   -22.748
1436.75     66.257   -25.653
1457.65     65.898   -27.713
1478.85     65.524   -28.750
1500.36     65.218   -28.843
1522.19     65.042   -28.400
1544.33     65.014   -28.013
1566.79     65.091   -28.200
1589.58     65.197   -29.170
1612.70     65.262   -30.782
1636.16     65.245   -32.701
1659.95     65.146   -34.524
1684.10     65.002   -35.930
1708.60     64.875   -36.836
1733.45     64.827   -37.477
1758.66     64.875   -38.356
1784.24     64.982   -39.957
1810.19     65.066   -42.489
1836.52     65.038   -45.860
1863.24     64.828   -49.628
1890.34     64.402   -53.162
1917.83     63.769   -55.704
1945.73     63.003   -56.461
1974.03     62.256   -54.892
2002.74     61.748   -51.210
2031.87     61.635   -46.679
2061.43     61.894   -42.906
2091.41     62.371   -40.801
2121.83     62.909   -40.445
2152.69     63.401   -41.500
2184.01     63.796   -43.584
2215.77     64.058   -46.291
2248.00     64.166   -49.110
2280.70     64.144   -51.446
2313.87     64.076   -52.801
2347.53     64.103   -53.165
2381.68     64.342   -53.339
2416.32     64.769   -54.541
2451.46     65.225   -57.454
2487.12     65.533   -61.773
2523.30     65.600   -66.503
2560.00     65.462   -70.491
2597.24     65.280   -73.037
2635.01     65.251   -74.591
2673.34     65.432   -76.546
2712.23     65.675   -79.964
2751.68     65.774   -84.640
2791.70     65.633   -89.378
2832.31     65.334   -92.956
2873.50     65.082   -95.095
2915.30     65.020   -96.828
2957.70     65.068   -99.400
3000.72     65.038  -102.782
3044.37     64.868  -105.848
3088.65     64.699  -107.758
3133.58     64.726  -109.131
3179.16     64.930  -111.512
3225.40     65.093  -115.424
3272.31     65.053  -119.879
3319.91     64.852  -123.639
3368.20     64.649  -126.373
3417.19     64.532  -128.693
3466.89     64.458  -131.031
3517.32     64.414  -133.174
3568.48     64.473  -135.237
3620.39     64.625  -138.090
3673.05     64.707  -142.035
3726.47     64.605  -146.052
3780.67     64.430  -149.089
3835.67     64.355  -151.602
3891.46     64.323  -154.742
3948.06     64.149  -158.096
4005.49     63.886  -160.119
4063.75     63.838  -160.959
4122.86     64.049  -162.929
4182.82     64.178  -166.922
4243.66     63.998  -171.242
4305.39     63.640  -174.042
4368.01     63.358  -175.345
4431.55     63.226  -176.258
4496.01     63.185  -177.328
4561.40     63.188  -178.665
4627.75     63.185   179.797
4695.06     63.182   178.501
4763.35     63.277   177.267
4832.64     63.427   175.144
4902.93     63.458   172.396
4974.24     63.403   170.145
5046.60     63.400   168.061
5120.00     63.369   165.613
5194.47     63.321   163.455
5270.03     63.369   160.559
5346.68     63.195   155.892
5424.45     62.555   152.178
5503.35     61.839   151.410
5583.40     61.255   151.880
5664.61     60.726   153.781
5747.01     60.483   156.450
5830.60     60.269   158.610
5915.41     60.175   162.975
6001.45     60.761   166.723
6088.74     61.475   165.442
6177.30     61.563   161.597
6267.15     61.116   160.732
6358.31     60.968   162.896
6450.80     60.963   164.453
6544.62     61.136   167.613
6639.82     61.748   168.500
6736.40     62.118   167.020
6834.38     62.328   165.409
6933.79     62.393   164.165
7034.64     62.579   162.818
7136.96     62.523   160.012
7240.77     62.250   158.415
7346.09     61.815   157.635
7452.94     61.401   159.188
7561.35     61.047   161.686
7671.33     61.038   166.360
7782.91     61.295   169.566
7896.12     61.791   173.058
8010.97     62.550   174.219
8127.49     63.446   172.212
8245.71     63.871   165.600
8365.65     63.343   158.908
8487.33     62.466   157.869
8610.78     61.927   156.647
8736.03     61.026   157.120
8863.09     60.188   158.344
8992.01     59.292   163.341
9122.80     59.023   169.705
9255.50     59.148   173.879
9390.12     59.511   176.800
9526.70     59.692   175.864
9665.27     59.692   175.187
9805.86     59.355   175.257
9948.49     59.273   177.187
10093.2     59.370   177.463
10240.0     59.143   177.594
10388.9     58.743   179.949
10540.1     58.774  -175.515
10693.4     59.109  -170.577
10848.9     60.059  -168.279
11006.7     60.689  -171.259
11166.8     60.970  -173.601
11329.2     61.143  -176.448
11494.0     61.134   179.101
11661.2     60.443   174.424
11830.8     59.606   175.015
12002.9     59.070   176.408
12177.5     58.543   178.153
12354.6     58.168  -178.967
12534.3     57.867  -177.041
12716.6     57.556  -174.421
12901.6     57.656  -170.647
13089.2     57.930  -172.671
13279.6     57.255  -175.775
13472.8     56.336  -175.384
13668.8     55.319  -173.073
13867.6     54.320  -167.710
14069.3     54.069  -159.524
14273.9     54.334  -155.952
14481.5     54.449  -157.220
14692.2     53.640  -161.053
14905.9     51.745  -161.597
15122.7     49.457  -152.405
15342.7     48.153  -130.521
15565.8     50.173  -111.208
15792.2     52.328  -112.433
16021.9     52.967  -120.177
16255.0     52.054  -128.612
16491.4     49.804  -130.746
16731.3     47.074  -116.188
16974.7     48.004   -92.560
17221.6     50.081   -92.571
17472.1     49.550  -101.471
17726.2     47.517  -100.909
17984.0     45.357   -89.282
18245.6     43.966   -67.952
18511.0     45.377   -42.060
18780.2     47.803   -33.931
19053.4     49.459   -31.480
19330.5     50.233   -35.815
19611.7     48.794   -32.029
19897.0     51.603    -7.710
20186.4     53.681   -28.990
20480.0     52.859   -35.088
20777.9     51.953   -37.244
21080.1     51.302   -34.880
21386.7     50.875   -33.460
21697.8     50.531   -30.537
22013.4     50.397   -28.941
22333.6     50.612   -29.301
22658.4     50.688   -35.382
22988.0     50.068   -45.970
23322.4     48.493   -58.460
23661.6     46.210   -72.488
24005.8     43.035   -90.355
24355.0     39.534  -120.684
24709.2     37.782  -166.095
25068.6     39.668   155.115
25433.2     41.655   130.287
25803.2     42.367   117.482
26178.5     42.516   111.634
26559.3     41.939   111.568
26945.6     40.443   121.776
27337.5     45.331   149.907
27735.2     46.530   123.281
28138.6     45.767   117.876
28547.9     44.391   119.747
28963.1     43.991   132.006
29384.4     45.070   140.836
29811.8     46.652   135.961
30245.4     45.288   126.968
30685.3     42.924   133.356
31131.7     42.195   151.001
31584.5     42.919   160.372
32043.9     42.504   164.002
32510.0     41.857  -178.060
32982.8     44.705  -162.222
33462.6     48.048  -168.235
33949.3     49.472   177.150
34443.1     51.669   150.135
34944.1     48.979   116.221
35452.4     45.178   100.532
35968.0     41.921    93.658
36491.2     38.542    87.703
37022.0     35.663    90.453
37560.5     34.150    90.929
38106.8     33.000    88.705
38661.1     33.011    84.986
39223.4     34.653    71.002
39793.9     37.648    42.777
