"SPL Horizontal"																																																																							
"On-Axis"		"10°"		"-10°"		"20°"		"-20°"		"30°"		"-30°"		"40°"		"-40°"		"50°"		"-50°"		"60°"		"-60°"		"70°"		"-70°"		"80°"		"-80°"		"90°"		"-90°"		"100°"		"-100°"		"110°"		"-110°"		"120°"		"-120°"		"130°"		"-130°"		"140°"		"-140°"		"150°"		"-150°"		"160°"		"-160°"		"170°"		"-170°"		"180°"	
"Frequency [Hz]"	"Sound Pessure Level [dB]  / [2.83V 1m] "	"Frequency [Hz]"	"Sound Pessure Level [dB]  / [2.83V 1m] "	"Frequency [Hz]"	"Sound Pessure Level [dB]  / [2.83V 1m] "	"Frequency [Hz]"	"Sound Pessure Level [dB]  / [2.83V 1m] "	"Frequency [Hz]"	"Sound Pessure Level [dB]  / [2.83V 1m] "	"Frequency [Hz]"	"Sound Pessure Level [dB]  / [2.83V 1m] "	"Frequency [Hz]"	"Sound Pessure Level [dB]  / [2.83V 1m] "	"Frequency [Hz]"	"Sound Pessure Level [dB]  / [2.83V 1m] "	"Frequency [Hz]"	"Sound Pessure Level [dB]  / [2.83V 1m] "	"Frequency [Hz]"	"Sound Pessure Level [dB]  / [2.83V 1m] "	"Frequency [Hz]"	"Sound Pessure Level [dB]  / [2.83V 1m] "	"Frequency [Hz]"	"Sound Pessure Level [dB]  / [2.83V 1m] "	"Frequency [Hz]"	"Sound Pessure Level [dB]  / [2.83V 1m] "	"Frequency [Hz]"	"Sound Pessure Level [dB]  / [2.83V 1m] "	"Frequency [Hz]"	"Sound Pessure Level [dB]  / [2.83V 1m] "	"Frequency [Hz]"	"Sound Pessure Level [dB]  / [2.83V 1m] "	"Frequency [Hz]"	"Sound Pessure Level [dB]  / [2.83V 1m] "	"Frequency [Hz]"	"Sound Pessure Level [dB]  / [2.83V 1m] "	"Frequency [Hz]"	"Sound Pessure Level [dB]  / [2.83V 1m] "	"Frequency [Hz]"	"Sound Pessure Level [dB]  / [2.83V 1m] "	"Frequency [Hz]"	"Sound Pessure Level [dB]  / [2.83V 1m] "	"Frequency [Hz]"	"Sound Pessure Level [dB]  / [2.83V 1m] "	"Frequency [Hz]"	"Sound Pessure Level [dB]  / [2.83V 1m] "	"Frequency [Hz]"	"Sound Pessure Level [dB]  / [2.83V 1m] "	"Frequency [Hz]"	"Sound Pessure Level [dB]  / [2.83V 1m] "	"Frequency [Hz]"	"Sound Pessure Level [dB]  / [2.83V 1m] "	"Frequency [Hz]"	"Sound Pessure Level [dB]  / [2.83V 1m] "	"Frequency [Hz]"	"Sound Pessure Level [dB]  / [2.83V 1m] "	"Frequency [Hz]"	"Sound Pessure Level [dB]  / [2.83V 1m] "	"Frequency [Hz]"	"Sound Pessure Level [dB]  / [2.83V 1m] "	"Frequency [Hz]"	"Sound Pessure Level [dB]  / [2.83V 1m] "	"Frequency [Hz]"	"Sound Pessure Level [dB]  / [2.83V 1m] "	"Frequency [Hz]"	"Sound Pessure Level [dB]  / [2.83V 1m] "	"Frequency [Hz]"	"Sound Pessure Level [dB]  / [2.83V 1m] "	"Frequency [Hz]"	"Sound Pessure Level [dB]  / [2.83V 1m] "	"Frequency [Hz]"	"Sound Pessure Level [dB]  / [2.83V 1m] "
20.5078	55.8313	20.5078	55.8189	20.5078	55.8383	20.5078	55.8012	20.5078	55.8398	20.5078	55.7785	20.5078	55.8356	20.5078	55.751	20.5078	55.8257	20.5078	55.719	20.5078	55.81	20.5078	55.683	20.5078	55.7887	20.5078	55.6437	20.5078	55.7619	20.5078	55.6017	20.5078	55.7299	20.5078	55.5583	20.5078	55.6932	20.5078	55.5146	20.5078	55.6525	20.5078	55.4722	20.5078	55.609	20.5078	55.4329	20.5078	55.5636	20.5078	55.3984	20.5078	55.5181	20.5078	55.3705	20.5078	55.474	20.5078	55.3508	20.5078	55.4334	20.5078	55.3405	20.5078	55.3981	20.5078	55.3403	20.5078	55.3699	20.5078	55.3502
21.2402	56.6774	21.2402	56.6679	21.2402	56.6816	21.2402	56.6533	21.2402	56.6804	21.2402	56.6339	21.2402	56.6737	21.2402	56.6096	21.2402	56.6614	21.2402	56.581	21.2402	56.6436	21.2402	56.5483	21.2402	56.6202	21.2402	56.512	21.2402	56.5916	21.2402	56.4728	21.2402	56.558	21.2402	56.4315	21.2402	56.5201	21.2402	56.3893	21.2402	56.4788	21.2402	56.3475	21.2402	56.4351	21.2402	56.3076	21.2402	56.3904	21.2402	56.2714	21.2402	56.3464	21.2402	56.2406	21.2402	56.3049	21.2402	56.2169	21.2402	56.2678	21.2402	56.2017	21.2402	56.237	21.2402	56.1959	21.2402	56.214	21.2402	56.2
21.9727	57.2279	21.9727	57.2201	21.9727	57.2311	21.9727	57.2077	21.9727	57.2295	21.9727	57.1909	21.9727	57.223	21.9727	57.17	21.9727	57.2117	21.9727	57.1452	21.9727	57.1955	21.9727	57.1168	21.9727	57.1745	21.9727	57.0853	21.9727	57.149	21.9727	57.0513	21.9727	57.1193	21.9727	57.0156	21.9727	57.0861	21.9727	56.9791	21.9727	57.05	21.9727	56.9431	21.9727	57.0121	21.9727	56.9087	21.9727	56.9737	21.9727	56.8776	21.9727	56.9362	21.9727	56.851	21.9727	56.9011	21.9727	56.8305	21.9727	56.8699	21.9727	56.817	21.9727	56.8443	21.9727	56.8115	21.9727	56.8254	21.9727	56.8143
22.7051	57.4629	22.7051	57.4548	22.7051	57.4655	22.7051	57.4413	22.7051	57.4624	22.7051	57.4225	22.7051	57.4537	22.7051	57.3988	22.7051	57.4393	22.7051	57.3704	22.7051	57.4194	22.7051	57.3377	22.7051	57.3941	22.7051	57.3013	22.7051	57.3639	22.7051	57.262	22.7051	57.3291	22.7051	57.2206	22.7051	57.2906	22.7051	57.1784	22.7051	57.2493	22.7051	57.1366	22.7051	57.2063	22.7051	57.0969	22.7051	57.163	22.7051	57.0608	22.7051	57.121	22.7051	57.0302	22.7051	57.0819	22.7051	57.0063	22.7051	57.0474	22.7051	56.9906	22.7051	57.0192	22.7051	56.9839	22.7051	56.9985	22.7051	56.9866
23.4375	58.2068	23.4375	58.199	23.4375	58.2104	23.4375	58.187	23.4375	58.2097	23.4375	58.1711	23.4375	58.2045	23.4375	58.1514	23.4375	58.1949	23.4375	58.1282	23.4375	58.1807	23.4375	58.1019	23.4375	58.1622	23.4375	58.0728	23.4375	58.1395	23.4375	58.0416	23.4375	58.1129	23.4375	58.0089	23.4375	58.0829	23.4375	57.9758	23.4375	58.0503	23.4375	57.9432	23.4375	58.0159	23.4375	57.9123	23.4375	57.9809	23.4375	57.8846	23.4375	57.9465	23.4375	57.8612	23.4375	57.9142	23.4375	57.8434	23.4375	57.8853	23.4375	57.8323	23.4375	57.8612	23.4375	57.8283	23.4375	57.8431	23.4375	57.832
24.1699	58.6042	24.1699	58.6	24.1699	58.6043	24.1699	58.5919	24.1699	58.6002	24.1699	58.5799	24.1699	58.592	24.1699	58.5641	24.1699	58.5796	24.1699	58.5448	24.1699	58.5631	24.1699	58.5221	24.1699	58.5427	24.1699	58.4966	24.1699	58.5187	24.1699	58.4685	24.1699	58.4915	24.1699	58.4384	24.1699	58.4616	24.1699	58.4073	24.1699	58.4299	24.1699	58.3759	24.1699	58.3973	24.1699	58.3454	24.1699	58.3649	24.1699	58.3169	24.1699	58.334	24.1699	58.2917	24.1699	58.3059	24.1699	58.271	24.1699	58.282	24.1699	58.2559	24.1699	58.2634	24.1699	58.2472	24.1699	58.251	24.1699	58.2456
25.6348	59.2744	25.6348	59.2685	25.6348	59.2759	25.6348	59.2581	25.6348	59.2728	25.6348	59.2436	25.6348	59.2651	25.6348	59.225	25.6348	59.2528	25.6348	59.2027	25.6348	59.236	25.6348	59.177	25.6348	59.2148	25.6348	59.1483	25.6348	59.1895	25.6348	59.1172	25.6348	59.1606	25.6348	59.0843	25.6348	59.1287	25.6348	59.0506	25.6348	59.0947	25.6348	59.017	25.6348	59.0595	25.6348	58.9848	25.6348	59.0243	25.6348	58.9553	25.6348	58.9906	25.6348	58.9297	25.6348	58.9595	25.6348	58.9093	25.6348	58.9327	25.6348	58.8951	25.6348	58.9112	25.6348	58.8879	25.6348	58.8961	25.6348	58.8883
26.3672	59.6102	26.3672	59.6045	26.3672	59.6113	26.3672	59.5944	26.3672	59.6077	26.3672	59.58	26.3672	59.5994	26.3672	59.5614	26.3672	59.5865	26.3672	59.539	26.3672	59.569	26.3672	59.5131	26.3672	59.5471	26.3672	59.4841	26.3672	59.5211	26.3672	59.4526	26.3672	59.4916	26.3672	59.4193	26.3672	59.4592	26.3672	59.3852	26.3672	59.4247	26.3672	59.3513	26.3672	59.3892	26.3672	59.3187	26.3672	59.3538	26.3672	59.2887	26.3672	59.32	26.3672	59.2627	26.3672	59.289	26.3672	59.2418	26.3672	59.2624	26.3672	59.2271	26.3672	59.2413	26.3672	59.2195	26.3672	59.2267	26.3672	59.2193
27.0996	59.9642	27.0996	59.9578	27.0996	59.9661	27.0996	59.9468	27.0996	59.9632	27.0996	59.9315	27.0996	59.9556	27.0996	59.9121	27.0996	59.9432	27.0996	59.8889	27.0996	59.9262	27.0996	59.8624	27.0996	59.9048	27.0996	59.8328	27.0996	59.8792	27.0996	59.801	27.0996	59.85	27.0996	59.7675	27.0996	59.8177	27.0996	59.7335	27.0996	59.7833	27.0996	59.6998	27.0996	59.7478	27.0996	59.6677	27.0996	59.7123	27.0996	59.6384	27.0996	59.6782	27.0996	59.6132	27.0996	59.6468	27.0996	59.5933	27.0996	59.6196	27.0996	59.5797	27.0996	59.5977	27.0996	59.5731	27.0996	59.5823	27.0996	59.5739
27.832	60.3012	27.832	60.2932	27.832	60.3041	27.832	60.2802	27.832	60.3017	27.832	60.2625	27.832	60.2941	27.832	60.2402	27.832	60.2813	27.832	60.2137	27.832	60.2634	27.832	60.1836	27.832	60.2405	27.832	60.1502	27.832	60.213	27.832	60.1145	27.832	60.1814	27.832	60.0771	27.832	60.1464	27.832	60.0392	27.832	60.1089	27.832	60.002	27.832	60.0698	27.832	59.9668	27.832	60.0305	27.832	59.9351	27.832	59.9924	27.832	59.9082	27.832	59.9571	27.832	59.8874	27.832	59.926	27.832	59.8739	27.832	59.9005	27.832	59.8682	27.832	59.8818	27.832	59.8709
29.2969	60.9077	29.2969	60.9003	29.2969	60.91	29.2969	60.8878	29.2969	60.9069	29.2969	60.8704	29.2969	60.8985	29.2969	60.8483	29.2969	60.8849	29.2969	60.8219	29.2969	60.8661	29.2969	60.7916	29.2969	60.8424	29.2969	60.7579	29.2969	60.814	29.2969	60.7215	29.2969	60.7816	29.2969	60.6835	29.2969	60.7458	29.2969	60.6447	29.2969	60.7075	29.2969	60.6066	29.2969	60.6678	29.2969	60.5704	29.2969	60.628	29.2969	60.5376	29.2969	60.5896	29.2969	60.5096	29.2969	60.554	29.2969	60.4879	29.2969	60.5229	29.2969	60.4734	29.2969	60.4976	29.2969	60.467	29.2969	60.4793	29.2969	60.469
30.0293	61.337	30.0293	61.3313	30.0293	61.338	30.0293	61.321	30.0293	61.3342	30.0293	61.3062	30.0293	61.3257	30.0293	61.2872	30.0293	61.3123	30.0293	61.2642	30.0293	61.2944	30.0293	61.2375	30.0293	61.2719	30.0293	61.2075	30.0293	61.2453	30.0293	61.175	30.0293	61.2149	30.0293	61.1405	30.0293	61.1816	30.0293	61.1051	30.0293	61.146	30.0293	61.0698	30.0293	61.1093	30.0293	61.0358	30.0293	61.0727	30.0293	61.0046	30.0293	61.0376	30.0293	60.9775	30.0293	61.0054	30.0293	60.9557	30.0293	60.9776	30.0293	60.9404	30.0293	60.9555	30.0293	60.9325	30.0293	60.9402	30.0293	60.9324
31.4941	61.819	31.4941	61.8167	31.4941	61.8173	31.4941	61.8105	31.4941	61.8117	31.4941	61.8005	31.4941	61.8021	31.4941	61.7868	31.4941	61.7886	31.4941	61.7697	31.4941	61.7716	31.4941	61.7494	31.4941	61.7511	31.4941	61.7262	31.4941	61.7275	31.4941	61.7007	31.4941	61.7015	31.4941	61.6734	31.4941	61.6735	31.4941	61.645	31.4941	61.6444	31.4941	61.6164	31.4941	61.6151	31.4941	61.5885	31.4941	61.5867	31.4941	61.5624	31.4941	61.5602	31.4941	61.539	31.4941	61.5368	31.4941	61.5194	31.4941	61.5174	31.4941	61.5046	31.4941	61.503	31.4941	61.4951	31.4941	61.4943	31.4941	61.4916
32.2266	62.052	32.2266	62.0497	32.2266	62.0502	32.2266	62.0433	32.2266	62.0442	32.2266	62.033	32.2266	62.0341	32.2266	62.019	32.2266	62.02	32.2266	62.0015	32.2266	62.0021	32.2266	61.9808	32.2266	61.9808	32.2266	61.9574	32.2266	61.9564	32.2266	61.9318	32.2266	61.9295	32.2266	61.9045	32.2266	61.901	32.2266	61.8763	32.2266	61.8715	32.2266	61.8479	32.2266	61.8421	32.2266	61.8204	32.2266	61.8139	32.2266	61.7946	32.2266	61.7879	32.2266	61.7715	32.2266	61.7651	32.2266	61.752	32.2266	61.7466	32.2266	61.7371	32.2266	61.7332	32.2266	61.7274	32.2266	61.7253	32.2266	61.7234
33.6914	62.5515	33.6914	62.5428	33.6914	62.5554	33.6914	62.5292	33.6914	62.5542	33.6914	62.5111	33.6914	62.548	33.6914	62.4888	33.6914	62.5368	33.6914	62.4628	33.6914	62.5208	33.6914	62.4335	33.6914	62.5004	33.6914	62.4018	33.6914	62.4758	33.6914	62.3683	33.6914	62.4477	33.6914	62.3341	33.6914	62.4166	33.6914	62.3002	33.6914	62.3835	33.6914	62.2677	33.6914	62.3491	33.6914	62.2378	33.6914	62.3147	33.6914	62.2118	33.6914	62.2813	33.6914	62.1907	33.6914	62.25	33.6914	62.1753	33.6914	62.2222	33.6914	62.1664	33.6914	62.1989	33.6914	62.1644	33.6914	62.181	33.6914	62.1693
34.4238	62.8669	34.4238	62.8589	34.4238	62.8702	34.4238	62.8464	34.4238	62.8688	34.4238	62.8295	34.4238	62.8626	34.4238	62.8086	34.4238	62.8517	34.4238	62.7841	34.4238	62.8364	34.4238	62.7564	34.4238	62.817	34.4238	62.7263	34.4238	62.7937	34.4238	62.6945	34.4238	62.7671	34.4238	62.6618	34.4238	62.7378	34.4238	62.6294	34.4238	62.7066	34.4238	62.5983	34.4238	62.6743	34.4238	62.5697	34.4238	62.6419	34.4238	62.5448	34.4238	62.6105	34.4238	62.5245	34.4238	62.5811	34.4238	62.5099	34.4238	62.5548	34.4238	62.5014	34.4238	62.5326	34.4238	62.4996	34.4238	62.5156	34.4238	62.5044
35.8887	63.4009	35.8887	63.3948	35.8887	63.403	35.8887	63.3848	35.8887	63.4011	35.8887	63.3712	35.8887	63.3951	35.8887	63.354	35.8887	63.3852	35.8887	63.3338	35.8887	63.3717	35.8887	63.311	35.8887	63.3547	35.8887	63.2861	35.8887	63.3347	35.8887	63.2598	35.8887	63.3122	35.8887	63.2329	35.8887	63.2876	35.8887	63.2061	35.8887	63.2617	35.8887	63.1805	35.8887	63.2352	35.8887	63.1569	35.8887	63.2088	35.8887	63.1362	35.8887	63.1835	35.8887	63.1194	35.8887	63.16	35.8887	63.107	35.8887	63.1392	35.8887	63.0996	35.8887	63.122	35.8887	63.0974	35.8887	63.1089	35.8887	63.1006
37.3535	63.8179	37.3535	63.8122	37.3535	63.8196	37.3535	63.8027	37.3535	63.8173	37.3535	63.7895	37.3535	63.8111	37.3535	63.7731	37.3535	63.801	37.3535	63.7536	37.3535	63.7874	37.3535	63.7318	37.3535	63.7705	37.3535	63.708	37.3535	63.7507	37.3535	63.6831	37.3535	63.7287	37.3535	63.6577	37.3535	63.7049	37.3535	63.6327	37.3535	63.6802	37.3535	63.6089	37.3535	63.6551	37.3535	63.5871	37.3535	63.6306	37.3535	63.5682	37.3535	63.6074	37.3535	63.5528	37.3535	63.5862	37.3535	63.5414	37.3535	63.5678	37.3535	63.5345	37.3535	63.5527	37.3535	63.5322	37.3535	63.5415	37.3535	63.5345
38.8184	64.2047	38.8184	64.1987	38.8184	64.2072	38.8184	64.1894	38.8184	64.2061	38.8184	64.1769	38.8184	64.2015	38.8184	64.1617	38.8184	64.1935	38.8184	64.1441	38.8184	64.1823	38.8184	64.1247	38.8184	64.1682	38.8184	64.104	38.8184	64.1517	38.8184	64.0828	38.8184	64.1334	38.8184	64.0617	38.8184	64.1136	38.8184	64.0414	38.8184	64.0932	38.8184	64.0227	38.8184	64.0727	38.8184	64.0061	38.8184	64.0527	38.8184	63.9921	38.8184	64.0338	38.8184	63.9813	38.8184	64.0166	38.8184	63.9739	38.8184	64.0015	38.8184	63.97	38.8184	63.989	38.8184	63.9697	38.8184	63.9794	38.8184	63.9728
39.5508	64.3486	39.5508	64.3421	39.5508	64.3514	39.5508	64.3321	39.5508	64.3506	39.5508	64.3189	39.5508	64.3461	39.5508	64.3029	39.5508	64.3382	39.5508	64.2846	39.5508	64.3271	39.5508	64.2647	39.5508	64.3132	39.5508	64.2437	39.5508	64.2971	39.5508	64.2225	39.5508	64.2792	39.5508	64.2017	39.5508	64.2602	39.5508	64.1823	39.5508	64.2407	39.5508	64.1647	39.5508	64.2214	39.5508	64.1497	39.5508	64.2027	39.5508	64.1377	39.5508	64.1852	39.5508	64.129	39.5508	64.1693	39.5508	64.1236	39.5508	64.1552	39.5508	64.1215	39.5508	64.1433	39.5508	64.1227	39.5508	64.1338	39.5508	64.1268
41.0156	64.7605	41.0156	64.7536	41.0156	64.7623	41.0156	64.7418	41.0156	64.759	41.0156	64.7254	41.0156	64.7507	41.0156	64.7049	41.0156	64.7378	41.0156	64.6808	41.0156	64.7205	41.0156	64.6539	41.0156	64.6994	41.0156	64.625	41.0156	64.6752	41.0156	64.595	41.0156	64.6487	41.0156	64.5651	41.0156	64.6207	41.0156	64.5362	41.0156	64.5921	41.0156	64.5094	41.0156	64.5638	41.0156	64.4855	41.0156	64.5367	41.0156	64.4655	41.0156	64.5115	41.0156	64.4497	41.0156	64.4889	41.0156	64.4386	41.0156	64.4695	41.0156	64.4323	41.0156	64.4537	41.0156	64.4308	41.0156	64.4417	41.0156	64.434
42.4805	65.2313	42.4805	65.2253	42.4805	65.2317	42.4805	65.2139	42.4805	65.2265	42.4805	65.1972	42.4805	65.2159	42.4805	65.1758	42.4805	65.2001	42.4805	65.15	42.4805	65.1795	42.4805	65.1207	42.4805	65.1547	42.4805	65.0887	42.4805	65.1264	42.4805	65.0548	42.4805	65.0954	42.4805	65.0202	42.4805	65.0625	42.4805	64.9861	42.4805	65.0289	42.4805	64.9535	42.4805	64.9956	42.4805	64.9236	42.4805	64.9635	42.4805	64.8974	42.4805	64.9336	42.4805	64.8758	42.4805	64.907	42.4805	64.8596	42.4805	64.8842	42.4805	64.849	42.4805	64.8661	42.4805	64.8445	42.4805	64.8532	42.4805	64.8459
43.9453	65.5902	43.9453	65.5855	43.9453	65.5889	43.9453	65.5751	43.9453	65.5819	43.9453	65.5592	43.9453	65.5691	43.9453	65.5382	43.9453	65.551	43.9453	65.5126	43.9453	65.5281	43.9453	65.4831	43.9453	65.5008	43.9453	65.4506	43.9453	65.4701	43.9453	65.416	43.9453	65.4368	43.9453	65.3804	43.9453	65.4018	43.9453	65.3449	43.9453	65.3664	43.9453	65.3107	43.9453	65.3317	43.9453	65.279	43.9453	65.2987	43.9453	65.2507	43.9453	65.2685	43.9453	65.2269	43.9453	65.242	43.9453	65.2081	43.9453	65.2201	43.9453	65.195	43.9453	65.2033	43.9453	65.1879	43.9453	65.1922	43.9453	65.187
45.4102	66.0082	45.4102	66.0064	45.4102	66.0033	45.4102	65.9981	45.4102	65.992	45.4102	65.9834	45.4102	65.9745	45.4102	65.9627	45.4102	65.9512	45.4102	65.9363	45.4102	65.9227	45.4102	65.9051	45.4102	65.8896	45.4102	65.8696	45.4102	65.8529	45.4102	65.8311	45.4102	65.8136	45.4102	65.7905	45.4102	65.7729	45.4102	65.749	45.4102	65.7319	45.4102	65.7082	45.4102	65.6921	45.4102	65.6692	45.4102	65.6547	45.4102	65.6335	45.4102	65.621	45.4102	65.6022	45.4102	65.592	45.4102	65.5765	45.4102	65.5687	45.4102	65.5571	45.4102	65.5519	45.4102	65.5447	45.4102	65.5421	45.4102	65.5397
47.6074	66.5018	47.6074	66.4988	47.6074	66.4993	47.6074	66.4905	47.6074	66.4912	47.6074	66.4769	47.6074	66.4777	47.6074	66.4587	47.6074	66.4591	47.6074	66.4361	47.6074	66.4358	47.6074	66.4099	47.6074	66.4084	47.6074	66.3808	47.6074	66.3776	47.6074	66.3495	47.6074	66.3445	47.6074	66.3168	47.6074	66.3099	47.6074	66.2839	47.6074	66.2752	47.6074	66.2515	47.6074	66.2414	47.6074	66.2207	47.6074	66.2097	47.6074	66.1924	47.6074	66.1813	47.6074	66.1674	47.6074	66.1571	47.6074	66.1467	47.6074	66.138	47.6074	66.1307	47.6074	66.1245	47.6074	66.1202	47.6074	66.1169	47.6074	66.1156
49.0723	66.7769	49.0723	66.7712	49.0723	66.7775	49.0723	66.7604	49.0723	66.7728	49.0723	66.745	49.0723	66.763	49.0723	66.7254	49.0723	66.7482	49.0723	66.7023	49.0723	66.729	49.0723	66.6763	49.0723	66.7059	49.0723	66.6482	49.0723	66.6796	49.0723	66.6191	49.0723	66.6511	49.0723	66.5897	49.0723	66.6212	49.0723	66.561	49.0723	66.591	49.0723	66.5339	49.0723	66.5615	49.0723	66.5092	49.0723	66.5338	49.0723	66.4877	49.0723	66.5086	49.0723	66.4698	49.0723	66.4868	49.0723	66.456	49.0723	66.4688	49.0723	66.4466	49.0723	66.4552	49.0723	66.4417	49.0723	66.446	49.0723	66.4415
50.5371	67.0577	50.5371	67.0507	50.5371	67.0591	50.5371	67.0383	50.5371	67.0548	50.5371	67.0208	50.5371	67.045	50.5371	66.9988	50.5371	67.03	50.5371	66.973	50.5371	67.0102	50.5371	66.9442	50.5371	66.9864	50.5371	66.9134	50.5371	66.9592	50.5371	66.8815	50.5371	66.9296	50.5371	66.8497	50.5371	66.8986	50.5371	66.819	50.5371	66.8673	50.5371	66.7905	50.5371	66.8367	50.5371	66.7651	50.5371	66.8077	50.5371	66.7435	50.5371	66.7812	50.5371	66.7262	50.5371	66.7579	50.5371	66.7136	50.5371	66.7383	50.5371	66.7059	50.5371	66.7227	50.5371	66.703	50.5371	66.7116	50.5371	66.7049
52.7344	67.5445	52.7344	67.5396	52.7344	67.5437	52.7344	67.5292	52.7344	67.5374	52.7344	67.5136	52.7344	67.5256	52.7344	67.4932	52.7344	67.5087	52.7344	67.4688	52.7344	67.4873	52.7344	67.441	52.7344	67.4621	52.7344	67.4107	52.7344	67.4339	52.7344	67.379	52.7344	67.4036	52.7344	67.3468	52.7344	67.3722	52.7344	67.3153	52.7344	67.3407	52.7344	67.2856	52.7344	67.3102	52.7344	67.2585	52.7344	67.2816	52.7344	67.2349	52.7344	67.2557	52.7344	67.2154	52.7344	67.2332	52.7344	67.2005	52.7344	67.2145	52.7344	67.1905	52.7344	67.2002	52.7344	67.1855	52.7344	67.1905	52.7344	67.1855
54.1992	67.782	54.1992	67.7779	54.1992	67.7803	54.1992	67.7681	54.1992	67.7729	54.1992	67.753	54.1992	67.7598	54.1992	67.7331	54.1992	67.7416	54.1992	67.7091	54.1992	67.7187	54.1992	67.6818	54.1992	67.6921	54.1992	67.6521	54.1992	67.6626	54.1992	67.6209	54.1992	67.6312	54.1992	67.5895	54.1992	67.5991	54.1992	67.5587	54.1992	67.5674	54.1992	67.5297	54.1992	67.5372	54.1992	67.5031	54.1992	67.5095	54.1992	67.4799	54.1992	67.485	54.1992	67.4604	54.1992	67.4643	54.1992	67.4451	54.1992	67.4479	54.1992	67.4342	54.1992	67.436	54.1992	67.4277	54.1992	67.4286	54.1992	67.4259
56.3965	68.1901	56.3965	68.1851	56.3965	68.1894	56.3965	68.1746	56.3965	68.1829	56.3965	68.1589	56.3965	68.1708	56.3965	68.1387	56.3965	68.1535	56.3965	68.1147	56.3965	68.1316	56.3965	68.0877	56.3965	68.1058	56.3965	68.0587	56.3965	68.077	56.3965	68.0287	56.3965	68.0464	56.3965	67.9988	56.3965	68.0152	56.3965	67.9699	56.3965	67.9844	56.3965	67.9429	56.3965	67.9551	56.3965	67.9186	56.3965	67.9284	56.3965	67.8975	56.3965	67.905	56.3965	67.88	56.3965	67.8854	56.3965	67.8663	56.3965	67.87	56.3965	67.8567	56.3965	67.8589	56.3965	67.851	56.3965	67.8521	56.3965	67.8495
58.5938	68.5922	58.5938	68.5851	58.5938	68.5941	58.5938	68.573	58.5938	68.5905	58.5938	68.5564	58.5938	68.5817	58.5938	68.536	58.5938	68.568	58.5938	68.5128	58.5938	68.5499	58.5938	68.4875	58.5938	68.5282	58.5938	68.4612	58.5938	68.5037	58.5938	68.435	58.5938	68.4775	58.5938	68.4098	58.5938	68.4507	58.5938	68.3866	58.5938	68.4245	58.5938	68.3659	58.5938	68.3997	58.5938	68.3482	58.5938	68.3772	58.5938	68.3338	58.5938	68.3577	58.5938	68.3228	58.5938	68.3414	58.5938	68.3149	58.5938	68.3285	58.5938	68.3101	58.5938	68.3189	58.5938	68.3081	58.5938	68.3124	58.5938	68.3089
60.0586	68.7379	60.0586	68.7296	60.0586	68.7406	60.0586	68.7162	60.0586	68.7378	60.0586	68.6982	60.0586	68.7295	60.0586	68.6763	60.0586	68.7163	60.0586	68.6516	60.0586	68.6988	60.0586	68.625	60.0586	68.6778	60.0586	68.5979	60.0586	68.6544	60.0586	68.5715	60.0586	68.6296	60.0586	68.5468	60.0586	68.6047	60.0586	68.5248	60.0586	68.5806	60.0586	68.5063	60.0586	68.5582	60.0586	68.4917	60.0586	68.5383	60.0586	68.481	60.0586	68.5212	60.0586	68.4741	60.0586	68.507	60.0586	68.4704	60.0586	68.4955	60.0586	68.4696	60.0586	68.4864	60.0586	68.471	60.0586	68.4795	60.0586	68.4744
62.2559	69.0689	62.2559	69.0608	62.2559	69.0703	62.2559	69.0461	62.2559	69.0648	62.2559	69.0255	62.2559	69.0527	62.2559	68.9997	62.2559	69.0345	62.2559	68.9699	62.2559	69.0111	62.2559	68.9373	62.2559	68.9834	62.2559	68.9033	62.2559	68.9526	62.2559	68.8692	62.2559	68.9201	62.2559	68.8364	62.2559	68.8873	62.2559	68.8063	62.2559	68.8554	62.2559	68.7798	62.2559	68.8256	62.2559	68.7577	62.2559	68.7988	62.2559	68.7402	62.2559	68.7757	62.2559	68.7273	62.2559	68.7565	62.2559	68.7188	62.2559	68.7411	62.2559	68.7143	62.2559	68.7293	62.2559	68.7134	62.2559	68.7209	62.2559	68.7156
64.4531	69.3925	64.4531	69.3834	64.4531	69.3938	64.4531	69.3669	64.4531	69.3872	64.4531	69.3436	64.4531	69.3731	64.4531	69.3144	64.4531	69.352	64.4531	69.2803	64.4531	69.3247	64.4531	69.2428	64.4531	69.2922	64.4531	69.2034	64.4531	69.256	64.4531	69.1635	64.4531	69.2174	64.4531	69.1248	64.4531	69.1782	64.4531	69.0887	64.4531	69.1398	64.4531	69.0564	64.4531	69.1036	64.4531	69.0288	64.4531	69.0708	64.4531	69.0063	64.4531	69.0422	64.4531	68.9892	64.4531	69.0184	64.4531	68.9773	64.4531	68.9993	64.4531	68.9702	64.4531	68.9849	64.4531	68.9676	64.4531	68.975	64.4531	68.9692
66.6504	69.6887	66.6504	69.6751	66.6504	69.6935	66.6504	69.6531	66.6504	69.6892	66.6504	69.6233	66.6504	69.6761	66.6504	69.5867	66.6504	69.6546	66.6504	69.5446	66.6504	69.6256	66.6504	69.4983	66.6504	69.5899	66.6504	69.4497	66.6504	69.5489	66.6504	69.4004	66.6504	69.504	66.6504	69.3522	66.6504	69.4569	66.6504	69.307	66.6504	69.4093	66.6504	69.2661	66.6504	69.3629	66.6504	69.2309	66.6504	69.3191	66.6504	69.2021	66.6504	69.2793	66.6504	69.1803	66.6504	69.2442	66.6504	69.1655	66.6504	69.2147	66.6504	69.1577	66.6504	69.191	66.6504	69.1565	66.6504	69.1733	66.6504	69.1618
69.5801	70.0043	69.5801	69.9879	69.5801	70.0129	69.5801	69.9638	69.5801	70.0135	69.5801	69.9329	69.5801	70.0063	69.5801	69.8958	69.5801	69.9918	69.5801	69.8538	69.5801	69.9706	69.5801	69.8083	69.5801	69.9435	69.5801	69.7609	69.5801	69.9114	69.5801	69.7135	69.5801	69.8756	69.5801	69.6679	69.5801	69.837	69.5801	69.6259	69.5801	69.797	69.5801	69.5891	69.5801	69.7567	69.5801	69.5589	69.5801	69.717	69.5801	69.5361	69.5801	69.6789	69.5801	69.5213	69.5801	69.6432	69.5801	69.5145	69.5801	69.6106	69.5801	69.5152	69.5801	69.5817	69.5801	69.5231	69.5801	69.557	69.5801	69.5373
71.7773	70.2045	71.7773	70.1933	71.7773	70.2084	71.7773	70.1751	71.7773	70.2051	71.7773	70.1504	71.7773	70.1951	71.7773	70.1199	71.7773	70.1788	71.7773	70.0848	71.7773	70.1571	71.7773	70.0464	71.7773	70.1311	71.7773	70.0064	71.7773	70.1018	71.7773	69.9664	71.7773	70.0706	71.7773	69.9281	71.7773	70.0385	71.7773	69.8933	71.7773	70.0066	71.7773	69.8633	71.7773	69.9757	71.7773	69.8392	71.7773	69.9467	71.7773	69.8216	71.7773	69.9198	71.7773	69.8106	71.7773	69.8953	71.7773	69.8059	71.7773	69.8733	71.7773	69.807	71.7773	69.8539	71.7773	69.8131	71.7773	69.8371	71.7773	69.8234
73.9746	70.4494	73.9746	70.4395	73.9746	70.4521	73.9746	70.4225	73.9746	70.4476	73.9746	70.399	73.9746	70.4365	73.9746	70.3699	73.9746	70.4195	73.9746	70.3363	73.9746	70.3975	73.9746	70.2996	73.9746	70.3718	73.9746	70.2615	73.9746	70.3436	73.9746	70.2238	73.9746	70.3141	73.9746	70.1882	73.9746	70.2847	73.9746	70.1565	73.9746	70.2564	73.9746	70.1299	73.9746	70.23	73.9746	70.1094	73.9746	70.206	73.9746	70.0954	73.9746	70.1844	73.9746	70.0878	73.9746	70.1651	73.9746	70.086	73.9746	70.1479	73.9746	70.0892	73.9746	70.1324	73.9746	70.0963	73.9746	70.1185	73.9746	70.1063
76.9043	70.6727	76.9043	70.6643	76.9043	70.6739	76.9043	70.6489	76.9043	70.6681	76.9043	70.627	76.9043	70.6559	76.9043	70.5997	76.9043	70.638	76.9043	70.5681	76.9043	70.6156	76.9043	70.5339	76.9043	70.5901	76.9043	70.4987	76.9043	70.563	76.9043	70.4644	76.9043	70.5356	76.9043	70.4327	76.9043	70.5093	76.9043	70.4053	76.9043	70.4852	76.9043	70.3833	76.9043	70.4638	76.9043	70.3675	76.9043	70.4456	76.9043	70.3579	76.9043	70.4302	76.9043	70.3541	76.9043	70.4172	76.9043	70.3552	76.9043	70.4059	76.9043	70.3601	76.9043	70.3955	76.9043	70.3675	76.9043	70.3857	76.9043	70.3762
79.834	71.0068	79.834	71.0023	79.834	71.0027	79.834	70.9893	79.834	70.9904	79.834	70.9683	79.834	70.9705	79.834	70.9403	79.834	70.9443	79.834	70.9067	79.834	70.9133	79.834	70.869	79.834	70.8791	79.834	70.8293	79.834	70.8437	79.834	70.7897	79.834	70.8089	79.834	70.7522	79.834	70.7764	79.834	70.7188	79.834	70.7476	79.834	70.6908	79.834	70.7233	79.834	70.6693	79.834	70.7038	79.834	70.6544	79.834	70.6889	79.834	70.6458	79.834	70.6777	79.834	70.6424	79.834	70.6692	79.834	70.6431	79.834	70.6624	79.834	70.6464	79.834	70.6565	79.834	70.6511
82.7637	71.2801	82.7637	71.2846	82.7637	71.2652	82.7637	71.2788	82.7637	71.2403	82.7637	71.2632	82.7637	71.2063	82.7637	71.2388	82.7637	71.1644	82.7637	71.2068	82.7637	71.1165	82.7637	71.1689	82.7637	71.0648	82.7637	71.1269	82.7637	71.0116	82.7637	71.0829	82.7637	70.9597	82.7637	71.0389	82.7637	70.9115	82.7637	70.9966	82.7637	70.8693	82.7637	70.9577	82.7637	70.8349	82.7637	70.9231	82.7637	70.809	82.7637	70.8933	82.7637	70.7919	82.7637	70.8681	82.7637	70.783	82.7637	70.8472	82.7637	70.781	82.7637	70.8297	82.7637	70.7844	82.7637	70.8149	82.7637	70.7919	82.7637	70.8023
85.6934	71.353	85.6934	71.3434	85.6934	71.3539	85.6934	71.3255	85.6934	71.3459	85.6934	71.3002	85.6934	71.3296	85.6934	71.2686	85.6934	71.3057	85.6934	71.2324	85.6934	71.2754	85.6934	71.1933	85.6934	71.2403	85.6934	71.1532	85.6934	71.2022	85.6934	71.1141	85.6934	71.1631	85.6934	71.0779	85.6934	71.1249	85.6934	71.0459	85.6934	71.0894	85.6934	71.0194	85.6934	71.0581	85.6934	70.9987	85.6934	71.0319	85.6934	70.9838	85.6934	71.011	85.6934	70.9742	85.6934	70.9954	85.6934	70.9688	85.6934	70.9843	85.6934	70.9666	85.6934	70.9767	85.6934	70.9667	85.6934	70.9716	85.6934	70.9684
88.623	71.5346	88.623	71.5221	88.623	71.5388	88.623	71.5016	88.623	71.5345	88.623	71.4741	88.623	71.5224	88.623	71.4411	88.623	71.5033	88.623	71.4043	88.623	71.4785	88.623	71.3657	88.623	71.4498	88.623	71.3276	88.623	71.419	88.623	71.2922	88.623	71.3881	88.623	71.2615	88.623	71.3589	88.623	71.237	88.623	71.3329	88.623	71.2198	88.623	71.3111	88.623	71.21	88.623	71.2939	88.623	71.2071	88.623	71.281	88.623	71.2099	88.623	71.2717	88.623	71.2166	88.623	71.2645	88.623	71.2256	88.623	71.2583	88.623	71.2352	88.623	71.2517	88.623	71.244
91.5527	71.6532	91.5527	71.6432	91.5527	71.6537	91.5527	71.6238	91.5527	71.6447	91.5527	71.5961	91.5527	71.6273	91.5527	71.5614	91.5527	71.6027	91.5527	71.5219	91.5527	71.5729	91.5527	71.4799	91.5527	71.54	91.5527	71.438	91.5527	71.5063	91.5527	71.3991	91.5527	71.4743	91.5527	71.3655	91.5527	71.4458	91.5527	71.3394	91.5527	71.4225	91.5527	71.3219	91.5527	71.405	91.5527	71.3133	91.5527	71.3933	91.5527	71.313	91.5527	71.3865	91.5527	71.3194	91.5527	71.3831	91.5527	71.3302	91.5527	71.3811	91.5527	71.3431	91.5527	71.3786	91.5527	71.3558	91.5527	71.374	91.5527	71.3664
94.4824	71.8123	94.4824	71.8122	94.4824	71.8002	94.4824	71.8	94.4824	71.7767	94.4824	71.7764	94.4824	71.7432	94.4824	71.7429	94.4824	71.7018	94.4824	71.7016	94.4824	71.6552	94.4824	71.6555	94.4824	71.6066	94.4824	71.6075	94.4824	71.5592	94.4824	71.5612	94.4824	71.5164	94.4824	71.5196	94.4824	71.4808	94.4824	71.4856	94.4824	71.4546	94.4824	71.4609	94.4824	71.4384	94.4824	71.4461	94.4824	71.432	94.4824	71.4406	94.4824	71.4336	94.4824	71.4425	94.4824	71.4409	94.4824	71.4491	94.4824	71.4506	94.4824	71.4573	94.4824	71.4597	94.4824	71.4641	94.4824	71.4658	94.4824	71.4673
98.1445	72.1559	98.1445	72.151	98.1445	72.148	98.1445	72.1336	98.1445	72.1273	98.1445	72.1048	98.1445	72.0945	98.1445	72.0663	98.1445	72.051	98.1445	72.0199	98.1445	71.9987	98.1445	71.9682	98.1445	71.9401	98.1445	71.9137	98.1445	71.8782	98.1445	71.8591	98.1445	71.8161	98.1445	71.807	98.1445	71.7572	98.1445	71.7596	98.1445	71.7043	98.1445	71.7185	98.1445	71.6599	98.1445	71.6844	98.1445	71.6252	98.1445	71.6573	98.1445	71.6008	98.1445	71.6365	98.1445	71.5861	98.1445	71.6207	98.1445	71.5796	98.1445	71.6084	98.1445	71.5793	98.1445	71.5984	98.1445	71.5833	98.1445	71.59
101.807	72.1965	101.807	72.1876	101.807	72.1927	101.807	72.1665	101.807	72.1763	101.807	72.1344	101.807	72.1484	101.807	72.0932	101.807	72.1104	101.807	72.0454	101.807	72.0647	101.807	71.9938	101.807	72.0141	101.807	71.9417	101.807	71.9618	101.807	71.8924	101.807	71.9113	101.807	71.8488	101.807	71.8657	101.807	71.8133	101.807	71.8277	101.807	71.7873	101.807	71.7989	101.807	71.7711	101.807	71.7799	101.807	71.7639	101.807	71.7701	101.807	71.7635	101.807	71.7677	101.807	71.7674	101.807	71.77	101.807	71.7729	101.807	71.7743	101.807	71.7773	101.807	71.778	101.807	71.7792
105.469	72.2815	105.469	72.2686	105.469	72.2806	105.469	72.2423	105.469	72.2661	105.469	72.2038	105.469	72.2393	105.469	72.1551	105.469	72.202	105.469	72.0989	105.469	72.1568	105.469	72.0387	105.469	72.1067	105.469	71.9783	105.469	72.0552	105.469	71.9217	105.469	72.0058	105.469	71.8725	105.469	71.9618	105.469	71.8339	105.469	71.9257	105.469	71.8077	105.469	71.8988	105.469	71.7945	105.469	71.8816	105.469	71.7932	105.469	71.8727	105.469	71.8014	105.469	71.8698	105.469	71.8157	105.469	71.87	105.469	71.8324	105.469	71.87	105.469	71.848	105.469	71.8673	105.469	71.86
109.131	72.5277	109.131	72.5206	109.131	72.5188	109.131	72.498	109.131	72.4945	109.131	72.461	109.131	72.456	109.131	72.4117	109.131	72.4055	109.131	72.3528	109.131	72.3457	109.131	72.2877	109.131	72.2803	109.131	72.2203	109.131	72.2134	109.131	72.1548	109.131	72.149	109.131	72.0952	109.131	72.0911	109.131	72.0447	109.131	72.043	109.131	72.0058	109.131	72.0066	109.131	71.9794	109.131	71.9825	109.131	71.9649	109.131	71.9697	109.131	71.9601	109.131	71.9659	109.131	71.9622	109.131	71.9678	109.131	71.9674	109.131	71.9719	109.131	71.9727	109.131	71.9751	109.131	71.9756
112.793	72.7268	112.793	72.7208	112.793	72.717	112.793	72.6996	112.793	72.6917	112.793	72.6645	112.793	72.652	112.793	72.6179	112.793	72.5999	112.793	72.5625	112.793	72.5382	112.793	72.5018	112.793	72.4707	112.793	72.4397	112.793	72.4014	112.793	72.38	112.793	72.3349	112.793	72.3265	112.793	72.2755	112.793	72.282	112.793	72.2269	112.793	72.2482	112.793	72.1913	112.793	72.2257	112.793	72.1697	112.793	72.2134	112.793	72.1611	112.793	72.2088	112.793	72.1632	112.793	72.2089	112.793	72.1723	112.793	72.21	112.793	72.1846	112.793	72.2094	112.793	72.1963	112.793	72.205
116.455	72.7769	116.455	72.7581	116.455	72.7791	116.455	72.7236	116.455	72.7648	116.455	72.6751	116.455	72.7351	116.455	72.6153	116.455	72.6922	116.455	72.548	116.455	72.639	116.455	72.4774	116.455	72.5793	116.455	72.4083	116.455	72.5173	116.455	72.3456	116.455	72.4576	116.455	72.2936	116.455	72.4045	116.455	72.2556	116.455	72.3614	116.455	72.2331	116.455	72.3305	116.455	72.2261	116.455	72.3122	116.455	72.2324	116.455	72.3054	116.455	72.2483	116.455	72.307	116.455	72.2692	116.455	72.3132	116.455	72.2903	116.455	72.3195	116.455	72.3077	116.455	72.3223	116.455	72.3187
120.85	73.0203	120.85	73.0012	120.85	73.0197	120.85	72.963	120.85	72.9997	120.85	72.9075	120.85	72.9617	120.85	72.8377	120.85	72.9082	120.85	72.7575	120.85	72.8427	120.85	72.6719	120.85	72.7696	120.85	72.5864	120.85	72.694	120.85	72.507	120.85	72.6214	120.85	72.4394	120.85	72.5568	120.85	72.388	120.85	72.5046	120.85	72.3557	120.85	72.4673	120.85	72.3428	120.85	72.4457	120.85	72.3471	120.85	72.4379	120.85	72.3646	120.85	72.4404	120.85	72.3894	120.85	72.448	120.85	72.4155	120.85	72.4554	120.85	72.4377	120.85	72.4579	120.85	72.4523
125.244	73.0522	125.244	73.032	125.244	73.0511	125.244	72.991	125.244	73.0292	125.244	72.9305	125.244	72.9878	125.244	72.8532	125.244	72.9294	125.244	72.7625	125.244	72.8574	125.244	72.6632	125.244	72.7758	125.244	72.5608	125.244	72.6899	125.244	72.4615	125.244	72.6048	125.244	72.3718	125.244	72.5258	125.244	72.2972	125.244	72.4576	125.244	72.242	125.244	72.4031	125.244	72.2081	125.244	72.3636	125.244	72.1949	125.244	72.338	125.244	72.1993	125.244	72.3232	125.244	72.216	125.244	72.3147	125.244	72.2391	125.244	72.3078	125.244	72.263	125.244	72.2982	125.244	72.2834
129.639	73.1234	129.639	73.1103	129.639	73.116	129.639	73.0769	129.639	73.0887	129.639	73.0244	129.639	73.0429	129.639	72.9551	129.639	72.981	129.639	72.872	129.639	72.9062	129.639	72.7793	129.639	72.8228	129.639	72.6819	129.639	72.7353	129.639	72.5855	129.639	72.649	129.639	72.4959	129.639	72.5688	129.639	72.4183	129.639	72.4989	129.639	72.3568	129.639	72.4425	129.639	72.3137	129.639	72.4006	129.639	72.2891	129.639	72.3725	129.639	72.2807	129.639	72.3555	129.639	72.2846	129.639	72.3459	129.639	72.2958	129.639	72.3393	129.639	72.3096	129.639	72.3322	129.639	72.3224
134.033	73.0988	134.033	73.0937	134.033	73.0848	134.033	73.0697	134.033	73.0523	134.033	73.0281	134.033	73.003	134.033	72.9713	134.033	72.9396	134.033	72.9024	134.033	72.866	134.033	72.8258	134.033	72.7866	134.033	72.7463	134.033	72.7066	134.033	72.669	134.033	72.6313	134.033	72.5992	134.033	72.5658	134.033	72.5413	134.033	72.514	134.033	72.4982	134.033	72.4781	134.033	72.4712	134.033	72.4586	134.033	72.4593	134.033	72.4533	134.033	72.4596	134.033	72.4586	134.033	72.4678	134.033	72.4697	134.033	72.4789	134.033	72.4816	134.033	72.4882	134.033	72.4901	134.033	72.4925
138.428	72.993	138.428	72.9839	138.428	72.9816	138.428	72.9553	138.428	72.9504	138.428	72.9093	138.428	72.9012	138.428	72.8492	138.428	72.8374	138.428	72.7796	138.428	72.7637	138.428	72.706	138.428	72.6857	138.428	72.6346	138.428	72.6101	138.428	72.5716	138.428	72.5438	138.428	72.5227	138.428	72.4927	138.428	72.4918	138.428	72.4614	138.428	72.4809	138.428	72.4517	138.428	72.489	138.428	72.4627	138.428	72.5126	138.428	72.4904	138.428	72.546	138.428	72.5284	138.428	72.582	138.428	72.5692	138.428	72.6135	138.428	72.6053	138.428	72.6344	138.428	72.6304	138.428	72.6406
143.555	73.068	143.555	73.0434	143.555	73.066	143.555	72.9933	143.555	73.0377	143.555	72.9203	143.555	72.9847	143.555	72.8284	143.555	72.9103	143.555	72.7233	143.555	72.8193	143.555	72.6119	143.555	72.7178	143.555	72.5022	143.555	72.6134	143.555	72.4029	143.555	72.5142	143.555	72.322	143.555	72.4286	143.555	72.2657	143.555	72.3632	143.555	72.2372	143.555	72.3224	143.555	72.2362	143.555	72.3072	143.555	72.2581	143.555	72.3145	143.555	72.2956	143.555	72.338	143.555	72.3392	143.555	72.369	143.555	72.3797	143.555	72.3984	143.555	72.4091	143.555	72.4181	143.555	72.4224
148.682	73.2387	148.682	73.2143	148.682	73.233	148.682	73.1604	148.682	73.1979	148.682	73.0793	148.682	73.1355	148.682	72.9744	148.682	73.0492	148.682	72.851	148.682	72.9442	148.682	72.7161	148.682	72.8268	148.682	72.5781	148.682	72.705	148.682	72.4466	148.682	72.5872	148.682	72.3311	148.682	72.4819	148.682	72.2403	148.682	72.3966	148.682	72.1798	148.682	72.3358	148.682	72.1516	148.682	72.3009	148.682	72.1531	148.682	72.2891	148.682	72.1776	148.682	72.2943	148.682	72.2157	148.682	72.3078	148.682	72.2572	148.682	72.3208	148.682	72.2929	148.682	72.3253	148.682	72.3165
153.809	73.4385	153.809	73.4207	153.809	73.4251	153.809	73.3723	153.809	73.3812	153.809	73.2948	153.809	73.3091	153.809	73.1914	153.809	73.2119	153.809	73.0668	153.809	73.0945	153.809	72.9274	153.809	72.9635	153.809	72.7809	153.809	72.8264	153.809	72.6366	153.809	72.6921	153.809	72.5042	153.809	72.5695	153.809	72.3927	153.809	72.4666	153.809	72.309	153.809	72.3889	153.809	72.2565	153.809	72.3386	153.809	72.2342	153.809	72.3137	153.809	72.2369	153.809	72.3087	153.809	72.2564	153.809	72.3153	153.809	72.2829	153.809	72.3248	153.809	72.3076	153.809	72.3293	153.809	72.324
159.668	73.5308	159.668	73.5174	159.668	73.5137	159.668	73.474	159.668	73.4669	159.668	73.4026	159.668	73.3923	159.668	73.3064	159.668	73.2935	159.668	73.1903	159.668	73.1756	159.668	73.0607	159.668	73.0453	159.668	72.9255	159.668	72.9109	159.668	72.7937	159.668	72.7816	159.668	72.6746	159.668	72.6667	159.668	72.5767	159.668	72.5742	159.668	72.5059	159.668	72.5095	159.668	72.4648	159.668	72.4743	159.668	72.4517	159.668	72.4655	159.668	72.4608	159.668	72.4768	159.668	72.4834	159.668	72.4988	159.668	72.5099	159.668	72.5219	159.668	72.5314	159.668	72.538	159.668	72.5417
164.795	73.6051	164.795	73.5938	164.795	73.5845	164.795	73.5513	164.795	73.5324	164.795	73.4797	164.795	73.451	164.795	73.3824	164.795	73.3438	164.795	73.2647	164.795	73.216	164.795	73.1333	164.795	73.0748	164.795	72.9963	164.795	72.9289	164.795	72.863	164.795	72.7883	164.795	72.7427	164.795	72.6632	164.795	72.6437	164.795	72.5626	164.795	72.5719	164.795	72.4928	164.795	72.5294	164.795	72.4559	164.795	72.5139	164.795	72.4492	164.795	72.5193	164.795	72.4659	164.795	72.5367	164.795	72.4959	164.795	72.5563	164.795	72.5289	164.795	72.5693	164.795	72.5556	164.795	72.5698
170.654	73.6033	170.654	73.5749	170.654	73.5979	170.654	73.5138	170.654	73.5588	170.654	73.4231	170.654	73.4881	170.654	73.3073	170.654	73.3891	170.654	73.1729	170.654	73.2675	170.654	73.0285	170.654	73.1306	170.654	72.8842	170.654	72.9878	170.654	72.7511	170.654	72.8501	170.654	72.6401	170.654	72.7285	170.654	72.56	170.654	72.6332	170.654	72.5158	170.654	72.5711	170.654	72.5074	170.654	72.5444	170.654	72.5292	170.654	72.5501	170.654	72.5712	170.654	72.58	170.654	72.6212	170.654	72.6223	170.654	72.6668	170.654	72.6647	170.654	72.6979	170.654	72.6959	170.654	72.7081
176.514	73.5359	176.514	73.5051	176.514	73.5297	176.514	73.4379	176.514	73.4876	176.514	73.3365	176.514	73.4122	176.514	73.2052	176.514	73.308	176.514	73.0504	176.514	73.1812	176.514	72.8814	176.514	73.0403	176.514	72.7094	176.514	72.8954	176.514	72.548	176.514	72.7579	176.514	72.4109	176.514	72.639	176.514	72.3104	176.514	72.5486	176.514	72.2545	176.514	72.4926	176.514	72.2449	176.514	72.4717	176.514	72.2763	176.514	72.4811	176.514	72.3372	176.514	72.5109	176.514	72.4126	176.514	72.5481	176.514	72.4869	176.514	72.5795	176.514	72.5468	176.514	72.5938	176.514	72.5836
183.105	73.531	183.105	73.5184	183.105	73.5013	183.105	73.4636	183.105	73.4309	183.105	73.3684	183.105	73.3229	183.105	73.2364	183.105	73.1822	183.105	73.0734	183.105	73.0161	183.105	72.8881	183.105	72.8343	183.105	72.6921	183.105	72.6491	183.105	72.4995	183.105	72.4742	183.105	72.3262	183.105	72.3241	183.105	72.1872	183.105	72.211	183.105	72.0942	183.105	72.1425	183.105	72.0519	183.105	72.1196	183.105	72.0573	183.105	72.1358	183.105	72.0992	183.105	72.1783	183.105	72.1616	183.105	72.2311	183.105	72.2267	183.105	72.2781	183.105	72.2788	183.105	72.3061	183.105	72.3069
189.697	73.6983	189.697	73.6933	189.697	73.6595	189.697	73.6453	189.697	73.577	189.697	73.5569	189.697	73.4531	189.697	73.4318	189.697	73.2914	189.697	73.276	189.697	73.0986	189.697	73.0974	189.697	72.8841	189.697	72.9065	189.697	72.6606	189.697	72.7159	189.697	72.4439	189.697	72.5394	189.697	72.2513	189.697	72.3906	189.697	72.0992	189.697	72.2797	189.697	71.9995	189.697	72.2119	189.697	71.9564	189.697	72.185	189.697	71.9651	189.697	72.1901	189.697	72.0125	189.697	72.2132	189.697	72.0808	189.697	72.2387	189.697	72.1515	189.697	72.2522	189.697	72.209	189.697	72.2436
196.289	73.7978	196.289	73.7639	196.289	73.7848	196.289	73.6845	196.289	73.7248	196.289	73.5629	196.289	73.6196	196.289	73.4044	196.289	73.4729	196.289	73.2166	196.289	73.2909	196.289	73.0103	196.289	73.0831	196.289	72.7991	196.289	72.8622	196.289	72.5992	196.289	72.6445	196.289	72.4277	196.289	72.4487	196.289	72.2997	196.289	72.2928	196.289	72.2249	196.289	72.1907	196.289	72.2049	196.289	72.1486	196.289	72.2318	196.289	72.1623	196.289	72.2902	196.289	72.2182	196.289	72.3605	196.289	72.2964	196.289	72.4232	196.289	72.3755	196.289	72.4622	196.289	72.4368	196.289	72.4675
202.881	73.8322	202.881	73.7866	202.881	73.8269	202.881	73.6911	202.881	73.7711	202.881	73.5484	202.881	73.6664	202.881	73.3629	202.881	73.5162	202.881	73.1417	202.881	73.3262	202.881	72.8955	202.881	73.105	202.881	72.6386	202.881	72.865	202.881	72.389	202.881	72.6219	202.881	72.1672	202.881	72.3945	202.881	71.9925	202.881	72.2022	202.881	71.8794	202.881	72.0611	202.881	71.833	202.881	71.9801	202.881	71.8466	202.881	71.9576	202.881	71.9039	202.881	71.9817	202.881	71.9824	202.881	72.0327	202.881	72.0592	202.881	72.0884	202.881	72.1156	202.881	72.1287	202.881	72.1397
210.205	73.8047	210.205	73.7698	210.205	73.7886	210.205	73.6838	210.205	73.7229	210.205	73.5479	210.205	73.61	210.205	73.3649	210.205	73.4539	210.205	73.1403	210.205	73.2604	210.205	72.883	210.205	73.0384	210.205	72.6063	210.205	72.7996	210.205	72.3282	210.205	72.5592	210.205	72.0705	210.205	72.3348	210.205	71.8563	210.205	72.1441	210.205	71.705	210.205	72.0017	210.205	71.6269	210.205	71.9152	210.205	71.6198	210.205	71.8823	210.205	71.6686	210.205	71.8912	210.205	71.7502	210.205	71.9229	210.205	71.8394	210.205	71.9565	210.205	71.9143	210.205	71.9733	210.205	71.9606
217.529	73.6979	217.529	73.668	217.529	73.6772	217.529	73.5869	217.529	73.6076	217.529	73.4555	217.529	73.4924	217.529	73.2766	217.529	73.3364	217.529	73.0557	217.529	73.1471	217.529	72.8019	217.529	72.9344	217.529	72.5289	217.529	72.7118	217.529	72.2553	217.529	72.4954	217.529	72.004	217.529	72.3027	217.529	71.799	217.529	72.1501	217.529	71.6609	217.529	72.0488	217.529	71.6007	217.529	72.0017	217.529	71.6159	217.529	72.0021	217.529	71.6906	217.529	72.0343	217.529	71.8002	217.529	72.0778	217.529	71.9176	217.529	72.1118	217.529	72.0192	217.529	72.119	217.529	72.0888
225.586	73.8117	225.586	73.8208	225.586	73.7418	225.586	73.7693	225.586	73.6126	225.586	73.6586	225.586	73.4275	225.586	73.4924	225.586	73.1927	225.586	73.2768	225.586	72.9183	225.586	73.0219	225.586	72.6197	225.586	72.7425	225.586	72.3183	225.586	72.4587	225.586	72.041	225.586	72.1957	225.586	71.8172	225.586	71.9801	225.586	71.6723	225.586	71.8353	225.586	71.6204	225.586	71.774	225.586	71.658	225.586	71.7937	225.586	71.7645	225.586	71.8766	225.586	71.9082	225.586	71.9941	225.586	72.0545	225.586	72.1142	225.586	72.1734	225.586	72.2083	225.586	72.2438	225.586	72.2553
232.91	74.1086	232.91	74.099	232.91	74.0517	232.91	74.0256	232.91	73.9266	232.91	73.8921	232.91	73.7324	232.91	73.7031	232.91	73.4704	232.91	73.4657	232.91	73.1454	232.91	73.1902	232.91	72.7676	232.91	72.8907	232.91	72.3552	232.91	72.5866	232.91	71.9366	232.91	72.3011	232.91	71.5509	232.91	72.059	232.91	71.2426	232.91	71.8816	232.91	71.051	232.91	71.7802	232.91	70.9951	232.91	71.752	232.91	71.0646	232.91	71.7794	232.91	71.2232	232.91	71.8341	232.91	71.4224	232.91	71.8847	232.91	71.6164	232.91	71.9029	232.91	71.7713	232.91	71.8682
241.699	73.9552	241.699	73.8779	241.699	73.967	241.699	73.7367	241.699	73.9121	241.699	73.5338	241.699	73.7899	241.699	73.2731	241.699	73.6002	241.699	72.9619	241.699	73.3448	241.699	72.6118	241.699	73.0286	241.699	72.2412	241.699	72.662	241.699	71.8762	241.699	72.2628	241.699	71.5488	241.699	71.8584	241.699	71.2924	241.699	71.4855	241.699	71.1327	241.699	71.1854	241.699	71.0779	241.699	70.9928	241.699	71.1141	241.699	70.9231	241.699	71.2089	241.699	70.9643	241.699	71.3219	241.699	71.0807	241.699	71.4147	241.699	71.2258	241.699	71.4587	241.699	71.3558	241.699	71.4389
249.756	74.2292	249.756	74.1875	249.756	74.2008	249.756	74.075	249.756	74.1029	249.756	73.8918	249.756	73.9362	249.756	73.6387	249.756	73.7021	249.756	73.3191	249.756	73.4042	249.756	72.9408	249.756	73.049	249.756	72.5182	249.756	72.649	249.756	72.0748	249.756	72.2244	249.756	71.6448	249.756	71.805	249.756	71.2706	249.756	71.429	249.756	70.9943	249.756	71.1365	249.756	70.8441	249.756	70.9581	249.756	70.8214	249.756	70.9016	249.756	70.8985	249.756	70.947	249.756	71.029	249.756	71.0535	249.756	71.163	249.756	71.1729	249.756	71.2602	249.756	71.263	249.756	71.2958
258.545	74.4901	258.545	74.4358	258.545	74.478	258.545	74.3148	258.545	74.3997	258.545	74.1271	258.545	74.2557	258.545	73.8738	258.545	74.0465	258.545	73.5584	258.545	73.7744	258.545	73.1884	258.545	73.444	258.545	72.7776	258.545	73.0644	258.545	72.3478	258.545	72.6513	258.545	71.9301	258.545	72.2286	258.545	71.5621	258.545	71.8286	258.545	71.2808	258.545	71.4885	258.545	71.1105	258.545	71.2417	258.545	71.0529	258.545	71.1063	258.545	71.0844	258.545	71.0764	258.545	71.1653	258.545	71.1231	258.545	71.2527	258.545	71.2053	258.545	71.3116	258.545	71.2818	258.545	71.3222
268.066	74.0386	268.066	73.9775	268.066	74.028	268.066	73.8434	268.066	73.9464	268.066	73.6351	268.066	73.7943	268.066	73.3521	268.066	73.5721	268.066	72.9963	268.066	73.282	268.066	72.5745	268.066	72.929	268.066	72.1014	268.066	72.5233	268.066	71.6034	268.066	72.0833	268.066	71.121	268.066	71.6375	268.066	70.7065	268.066	71.2249	268.066	70.4132	268.066	70.8895	268.066	70.2751	268.066	70.669	268.066	70.29	268.066	70.579	268.066	70.4184	268.066	70.6044	268.066	70.5998	268.066	70.7037	268.066	70.7747	268.066	70.8241	268.066	70.8986	268.066	70.9168	268.066	70.9471
277.588	74.399	277.588	74.3739	277.588	74.3596	277.588	74.281	277.588	74.258	277.588	74.1167	277.588	74.0962	277.588	73.877	277.588	73.8759	277.588	73.5592	277.588	73.6	277.588	73.1632	277.588	73.2738	277.588	72.6945	277.588	72.9064	277.588	72.1676	277.588	72.5128	277.588	71.6107	277.588	72.1146	277.588	71.0692	277.588	71.7399	277.588	70.603	277.588	71.4192	277.588	70.2735	277.588	71.1776	277.588	70.1192	277.588	71.0254	277.588	70.1346	277.588	70.9526	277.588	70.2721	277.588	70.9303	277.588	70.4651	277.588	70.9199	277.588	70.6535	277.588	70.8844	277.588	70.7981
287.109	74.0877	287.109	74.0799	287.109	74.033	287.109	74.0088	287.109	73.916	287.109	73.8727	287.109	73.7365	287.109	73.6697	287.109	73.4946	287.109	73.3993	287.109	73.1925	287.109	73.0635	287.109	72.8364	287.109	72.6697	287.109	72.4391	287.109	72.2333	287.109	72.022	287.109	71.7806	287.109	71.6167	287.109	71.3495	287.109	71.2622	287.109	70.986	287.109	70.997	287.109	70.7331	287.109	70.8459	287.109	70.6147	287.109	70.8086	287.109	70.6233	287.109	70.8581	287.109	70.7224	287.109	70.95	287.109	70.8602	287.109	71.0376	287.109	70.9874	287.109	71.0838	287.109	71.0677
297.363	74.3929	297.363	74.3886	297.363	74.3266	297.363	74.3135	297.363	74.1885	297.363	74.1667	297.363	73.9761	297.363	73.9466	297.363	73.6867	297.363	73.6528	297.363	73.3186	297.363	73.2876	297.363	72.8736	297.363	72.8587	297.363	72.3601	297.363	72.382	297.363	71.7976	297.363	71.8851	297.363	71.2223	297.363	71.4079	297.363	70.6889	297.363	70.9992	297.363	70.2644	297.363	70.7041	297.363	70.0078	297.363	70.5464	297.363	69.941	297.363	70.5153	297.363	70.0345	297.363	70.5683	297.363	70.2217	297.363	70.6481	297.363	70.4282	297.363	70.7008	297.363	70.5951	297.363	70.6886
307.617	74.3552	307.617	74.2866	307.617	74.3587	307.617	74.1537	307.617	74.2959	307.617	73.9568	307.617	74.1645	307.617	73.6964	307.617	73.9624	307.617	73.3746	307.617	73.688	307.617	72.9967	307.617	73.3422	307.617	72.5735	307.617	72.9302	307.617	72.1245	307.617	72.4648	307.617	71.6796	307.617	71.9701	307.617	71.2787	307.617	71.4844	307.617	70.9647	307.617	71.0582	307.617	70.7704	307.617	70.7439	307.617	70.7035	307.617	70.5769	307.617	70.7407	307.617	70.5566	307.617	70.8355	307.617	70.6451	307.617	70.9349	307.617	70.7829	307.617	70.9947	307.617	70.9113	307.617	70.9883
318.604	74.0289	318.604	73.9813	318.604	74.0035	318.604	73.8594	318.604	73.9058	318.604	73.6615	318.604	73.7365	318.604	73.3862	318.604	73.4964	318.604	73.0335	318.604	73.1879	318.604	72.6067	318.604	72.8164	318.604	72.1151	318.604	72.3921	318.604	71.5776	318.604	71.933	318.604	71.0266	318.604	71.466	318.604	70.5096	318.604	71.0278	318.604	70.0843	318.604	70.6593	318.604	69.8034	318.604	70.3958	318.604	69.6915	318.604	70.2524	318.604	69.7313	318.604	70.2158	318.604	69.8706	318.604	70.2481	318.604	70.0448	318.604	70.3	318.604	70.1983	318.604	70.3262	318.604	70.296
329.59	74.0479	329.59	73.9967	329.59	74.0299	329.59	73.874	329.59	73.9452	329.59	73.6773	329.59	73.7953	329.59	73.4053	329.59	73.5819	329.59	73.0597	329.59	73.3073	329.59	72.6467	329.59	72.9757	329.59	72.1804	329.59	72.5952	329.59	71.6858	329.59	72.1801	329.59	71.2004	329.59	71.7531	329.59	70.7725	329.59	71.3452	329.59	70.4516	329.59	70.9937	329.59	70.271	329.59	70.7328	329.59	70.2327	329.59	70.5822	329.59	70.3045	329.59	70.5373	329.59	70.4344	329.59	70.5696	329.59	70.5693	329.59	70.6365	329.59	70.6688	329.59	70.6948	329.59	70.7112
341.309	73.6399	341.309	73.6601	341.309	73.5163	341.309	73.5763	341.309	73.2915	341.309	73.3897	341.309	72.9709	341.309	73.1031	341.309	72.5655	341.309	72.7239	341.309	72.0962	341.309	72.2666	341.309	71.5982	341.309	71.7579	341.309	71.125	341.309	71.2412	341.309	70.7444	341.309	70.7789	341.309	70.5234	341.309	70.4438	341.309	70.4998	341.309	70.2963	341.309	70.6625	341.309	70.3565	341.309	70.9554	341.309	70.5919	341.309	71.3038	341.309	70.9343	341.309	71.6394	341.309	71.3088	341.309	71.9113	341.309	71.6533	341.309	72.0875	341.309	71.9243	341.309	72.1506	341.309	72.0948
353.76	74.4634	353.76	74.4245	353.76	74.3961	353.76	74.2796	353.76	74.219	353.76	74.0263	353.76	73.9253	353.76	73.6605	353.76	73.506	353.76	73.1792	353.76	72.952	353.76	72.584	353.76	72.258	353.76	71.8885	353.76	71.4307	353.76	71.1287	353.76	70.5043	353.76	70.377	353.76	69.5656	353.76	69.7489	353.76	68.7783	353.76	69.3782	353.76	68.3534	353.76	69.3459	353.76	68.4162	353.76	69.6168	353.76	68.8862	353.76	70.0622	353.76	69.5487	353.76	70.537	353.76	70.2064	353.76	70.9311	353.76	70.7391	353.76	71.1761	353.76	71.0888	353.76	71.2344
366.211	74.7951	366.211	74.6898	366.211	74.8042	366.211	74.4858	366.211	74.7155	366.211	74.1765	366.211	74.5232	366.211	73.7531	366.211	74.2181	366.211	73.2063	366.211	73.7894	366.211	72.5306	366.211	73.2268	366.211	71.7314	366.211	72.5251	366.211	70.838	366.211	71.6921	366.211	69.9231	366.211	70.7628	366.211	69.1221	366.211	69.8222	366.211	68.6136	366.211	69.0234	366.211	68.5219	366.211	68.5565	366.211	68.8091	366.211	68.5313	366.211	69.3024	366.211	68.8753	366.211	69.8163	366.211	69.394	366.211	70.2225	366.211	69.9023	366.211	70.4512	366.211	70.2816	366.211	70.4721
378.662	74.9773	378.662	74.9229	378.662	74.9398	378.662	74.7708	378.662	74.8119	378.662	74.5117	378.662	74.5908	378.662	74.1332	378.662	74.2707	378.662	73.6224	378.662	73.8441	378.662	72.9683	378.662	73.3052	378.662	72.1684	378.662	72.654	378.662	71.2401	378.662	71.9053	378.662	70.2426	378.662	71.1009	378.662	69.3067	378.662	70.3254	378.662	68.6402	378.662	69.7091	378.662	68.4361	378.662	69.3884	378.662	68.7078	378.662	69.4186	378.662	69.2691	378.662	69.7237	378.662	69.891	378.662	70.1484	378.662	70.4149	378.662	70.5449	378.662	70.7589	378.662	70.8115	378.662	70.8913
392.578	74.5551	392.578	74.5499	392.578	74.4887	392.578	74.4682	392.578	74.3493	392.578	74.2999	392.578	74.1303	392.578	74.0304	392.578	73.8202	392.578	73.6427	392.578	73.4047	392.578	73.1188	392.578	72.8696	392.578	72.4433	392.578	72.205	392.578	71.6099	392.578	71.4129	392.578	70.6342	392.578	70.5214	392.578	69.5801	392.578	69.6064	392.578	68.5961	392.578	68.8124	392.578	67.9198	392.578	68.3283	392.578	67.7565	392.578	68.2736	392.578	68.0826	392.578	68.5846	392.578	68.6602	392.578	69.0621	392.578	69.2381	392.578	69.5082	392.578	69.6588	392.578	69.7928	392.578	69.85
405.762	73.9046	405.762	73.9047	405.762	73.8204	405.762	73.8177	405.762	73.6507	405.762	73.6359	405.762	73.3909	405.762	73.3478	405.762	73.0339	405.762	72.9388	405.762	72.5726	405.762	72.3937	405.762	72.0027	405.762	71.7007	405.762	71.3285	405.762	70.8599	405.762	70.5728	405.762	69.8998	405.762	69.7915	405.762	68.9065	405.762	69.0885	405.762	68.0545	405.762	68.6066	405.762	67.5818	405.762	68.4634	405.762	67.6337	405.762	68.6615	405.762	68.1148	405.762	69.0766	405.762	68.7772	405.762	69.541	405.762	69.4031	405.762	69.9183	405.762	69.8661	405.762	70.1231	405.762	70.1107
420.41	74.5812	420.41	74.5116	420.41	74.5761	420.41	74.367	420.41	74.4889	420.41	74.1402	420.41	74.3051	420.41	73.8175	420.41	74.0041	420.41	73.3811	420.41	73.5608	420.41	72.8109	420.41	72.9465	420.41	72.0876	420.41	72.1304	420.41	71.1978	420.41	71.0831	420.41	70.1457	420.41	69.7872	420.41	68.9771	420.41	68.2686	420.41	67.8213	420.41	66.6798	420.41	66.922	420.41	65.4274	420.41	66.5456	420.41	65.0543	420.41	66.7363	420.41	65.6037	420.41	67.2513	420.41	66.54	420.41	67.7885	420.41	67.3981	420.41	68.1472	420.41	67.9779	420.41	68.2254
435.059	74.0227	435.059	74.0002	435.059	73.9735	435.059	73.8987	435.059	73.8545	435.059	73.706	435.059	73.6612	435.059	73.4064	435.059	73.3842	435.059	72.9826	435.059	73.01	435.059	72.4179	435.059	72.5236	435.059	71.6997	435.059	71.9121	435.059	70.826	435.059	71.1706	435.059	69.8208	435.059	70.3133	435.059	68.7594	435.059	69.3918	435.059	67.8017	435.059	68.5181	435.059	67.1802	435.059	67.8655	435.059	67.0636	435.059	67.5944	435.059	67.3916	435.059	67.7227	435.059	67.9269	435.059	68.098	435.059	68.4404	435.059	68.5152	435.059	68.7928	435.059	68.8188	435.059	68.9224
450.439	74.07	450.439	74.0645	450.439	74.0164	450.439	73.9927	450.439	73.9027	450.439	73.8405	450.439	73.7211	450.439	73.5872	450.439	73.4565	450.439	73.2073	450.439	73.0885	450.439	72.6714	450.439	72.5927	450.439	71.9482	450.439	71.9425	450.439	71.0084	450.439	71.1131	450.439	69.8345	450.439	70.0906	450.439	68.4506	450.439	68.8935	450.439	66.9959	450.439	67.6219	450.439	65.834	450.439	66.529	450.439	65.4565	450.439	65.9908	450.439	65.9385	450.439	66.1838	450.439	66.8101	450.439	66.8454	450.439	67.6147	450.439	67.5696	450.439	68.1333	450.439	68.0924	450.439	68.2943
466.553	73.7532	466.553	73.7173	466.553	73.72	466.553	73.6151	466.553	73.6113	466.553	73.4446	466.553	73.4174	466.553	73.1988	466.553	73.1265	466.553	72.8663	466.553	72.7252	466.553	72.4314	466.553	72.1999	466.553	71.8769	466.553	71.539	466.553	71.1874	466.553	70.7374	466.553	70.3562	466.553	69.8059	466.553	69.398	466.553	68.7885	466.553	68.371	466.553	67.7867	466.553	67.4035	466.553	66.9694	466.553	66.6889	466.553	66.514	466.553	66.3871	466.553	66.4714	466.553	66.4817	466.553	66.7082	466.553	66.7862	466.553	67.0146	466.553	67.09	466.553	67.2254	466.553	67.2551
482.666	73.2887	482.666	73.2871	482.666	73.219	482.666	73.2057	482.666	73.081	482.666	73.0317	482.666	72.8722	482.666	72.7487	482.666	72.584	482.666	72.3372	482.666	72.2024	482.666	71.7759	482.666	71.7089	482.666	71.0428	482.666	71.0828	482.666	70.1195	482.666	70.3049	482.666	69.0006	482.666	69.3665	482.666	67.719	482.666	68.2873	482.666	66.3978	482.666	67.1501	482.666	65.3146	482.666	66.1439	482.666	64.83	482.666	65.5415	482.666	65.0484	482.666	65.504	482.666	65.6713	482.666	65.8941	482.666	66.3218	482.666	66.4079	482.666	66.7743	482.666	66.7995	482.666	66.9377
500.244	73.3368	500.244	73.284	500.244	73.3167	500.244	73.162	500.244	73.2158	500.244	72.9692	500.244	73.0238	500.244	72.6984	500.244	72.7289	500.244	72.3369	500.244	72.3187	500.244	71.8691	500.244	71.7809	500.244	71.2784	500.244	71.1048	500.244	70.5518	500.244	70.2843	500.244	69.6871	500.244	69.326	500.244	68.7056	500.244	68.2646	500.244	67.6727	500.244	67.1884	500.244	66.7186	500.244	66.2574	500.244	66.0233	500.244	65.6651	500.244	65.7179	500.244	65.5056	500.244	65.768	500.244	65.6793	500.244	65.9973	500.244	65.9769	500.244	66.2173	500.244	66.2188	500.244	66.3065
517.822	72.867	517.822	72.8291	517.822	72.8533	517.822	72.7352	517.822	72.7894	517.822	72.5781	517.822	72.6723	517.822	72.3472	517.822	72.492	517.822	72.0269	517.822	72.2307	517.822	71.5961	517.822	71.8633	517.822	71.0292	517.822	71.3589	517.822	70.2986	517.822	70.685	517.822	69.3824	517.822	69.8131	517.822	68.2796	517.822	68.7313	517.822	67.0459	517.822	67.4735	517.822	65.8541	517.822	66.178	517.822	65.0212	517.822	65.1485	517.822	64.8218	517.822	64.7398	517.822	65.1701	517.822	64.9855	517.822	65.7027	517.822	65.5324	517.822	66.1059	517.822	66.0108	517.822	66.2219
536.133	73.0388	536.133	72.9994	536.133	72.9542	536.133	72.8489	536.133	72.7428	536.133	72.6073	536.133	72.4126	536.133	72.2947	536.133	71.9812	536.133	71.9233	536.133	71.4717	536.133	71.4886	536.133	70.9055	536.133	70.9645	536.133	70.2929	536.133	70.3049	536.133	69.6255	536.133	69.4509	536.133	68.8754	536.133	68.3433	536.133	68.007	536.133	66.9503	536.133	67.0047	536.133	65.3443	536.133	65.9248	536.133	63.8744	536.133	64.9652	536.133	63.2184	536.133	64.4494	536.133	63.6448	536.133	64.545	536.133	64.5373	536.133	65.0145	536.133	65.2651	536.133	65.4527	536.133	65.5771
554.443	72.9495	554.443	72.8476	554.443	72.9321	554.443	72.6352	554.443	72.7988	554.443	72.3335	554.443	72.5624	554.443	71.972	554.443	72.2404	554.443	71.5802	554.443	71.848	554.443	71.1737	554.443	71.3896	554.443	70.7423	554.443	70.8529	554.443	70.2462	554.443	70.2048	554.443	69.6226	554.443	69.3944	554.443	68.7976	554.443	68.3589	554.443	67.7035	554.443	67.0377	554.443	66.3066	554.443	65.4082	554.443	64.681	554.443	63.5907	554.443	63.1534	554.443	62.057	554.443	62.3083	554.443	61.5219	554.443	62.3505	554.443	61.9629	554.443	62.7367	554.443	62.5981	554.443	62.8931
574.219	73.5043	574.219	73.4543	574.219	73.417	574.219	73.2779	574.219	73.1976	574.219	72.9999	574.219	72.8671	574.219	72.6507	574.219	72.4581	574.219	72.2553	574.219	72.0052	574.219	71.8181	574.219	71.5314	574.219	71.3141	574.219	71.0335	574.219	70.6884	574.219	70.4748	574.219	69.8636	574.219	69.7894	574.219	68.7494	574.219	68.8934	574.219	67.2544	574.219	67.7004	574.219	65.3277	574.219	66.15	574.219	63.1264	574.219	64.2996	574.219	61.449	574.219	62.5685	574.219	61.3986	574.219	61.8406	574.219	62.4202	574.219	62.3418	574.219	63.2971	574.219	63.1556	574.219	63.5547
594.727	73.1719	594.727	73.0526	594.727	73.0955	594.727	72.7479	594.727	72.838	594.727	72.2952	594.727	72.438	594.727	71.7599	594.727	71.9553	594.727	71.2274	594.727	71.4607	594.727	70.7736	594.727	71.0096	594.727	70.4228	594.727	70.6106	594.727	70.1239	594.727	70.2095	594.727	69.7686	594.727	69.7035	594.727	69.2319	594.727	68.9692	594.727	68.403	594.727	67.8841	594.727	67.2074	594.727	66.3475	594.727	65.6593	594.727	64.3565	594.727	64.0055	594.727	62.2926	594.727	62.8729	594.727	61.2745	594.727	62.734	594.727	61.8124	594.727	63.1006	594.727	62.7482	594.727	63.2192
615.234	73.6017	615.234	73.4966	615.234	73.5168	615.234	73.2137	615.234	73.2394	615.234	72.7765	615.234	72.7785	615.234	72.2223	615.234	72.161	615.234	71.6021	615.234	71.4387	615.234	70.9713	615.234	70.6906	615.234	70.3661	615.234	70.0045	615.234	69.7744	615.234	69.4301	615.234	69.1221	615.234	68.9302	615.234	68.2839	615.234	68.3789	615.234	67.1034	615.234	67.6038	615.234	65.4078	615.234	66.4304	615.234	63.0509	615.234	64.7194	615.234	60.2207	615.234	62.4998	615.234	58.5163	615.234	60.4485	615.234	59.3925	615.234	59.9778	615.234	60.7509	615.234	60.7586	615.234	61.2332
637.207	74.2311	637.207	74.0814	637.207	74.1169	637.207	73.6752	637.207	73.7467	637.207	73.0414	637.207	73.1473	637.207	72.245	637.207	72.3786	637.207	71.4039	637.207	71.5502	637.207	70.6747	637.207	70.8158	637.207	70.1738	637.207	70.3024	637.207	69.8728	637.207	70.0011	637.207	69.5989	637.207	69.7464	637.207	69.1333	637.207	69.308	637.207	68.2866	637.207	68.4709	637.207	66.9269	637.207	67.0572	637.207	65.0682	637.207	64.9817	637.207	63.2488	637.207	62.6558	637.207	62.8087	637.207	61.8364	637.207	63.8596	637.207	63.165	637.207	64.941	637.207	64.6327	637.207	65.2622
659.912	74.0134	659.912	73.9013	659.912	73.931	659.912	73.5962	659.912	73.6586	659.912	73.1084	659.912	73.2076	659.912	72.4622	659.912	72.6005	659.912	71.7009	659.912	71.8767	659.912	70.8876	659.912	71.0946	659.912	70.0892	659.912	70.3199	659.912	69.341	659.912	69.5927	659.912	68.6082	659.912	68.8861	659.912	67.7769	659.912	68.0889	659.912	66.6799	659.912	67.0263	659.912	65.1348	659.912	65.491	659.912	63.0148	659.912	63.2898	659.912	60.5746	659.912	60.5048	659.912	59.2741	659.912	58.6148	659.912	60.1452	659.912	59.5014	659.912	61.3999	659.912	61.099	659.912	61.8039
683.35	74.3795	683.35	74.2543	683.35	74.2551	683.35	73.8808	683.35	73.8829	683.35	73.2698	683.35	73.2727	683.35	72.4586	683.35	72.4577	683.35	71.5397	683.35	71.5229	683.35	70.6805	683.35	70.629	683.35	70.0737	683.35	69.974	683.35	69.7842	683.35	69.6437	683.35	69.6514	683.35	69.4935	683.35	69.3902	683.35	69.2367	683.35	68.7238	683.35	68.5893	683.35	67.4024	683.35	67.3038	683.35	65.1547	683.35	65.1458	683.35	61.7511	683.35	62.0563	683.35	58.4891	683.35	59.5742	683.35	59.6774	683.35	60.6243	683.35	62.0778	683.35	62.4703	683.35	63.0477
706.787	74.8743	706.787	74.7542	706.787	74.7458	706.787	74.3815	706.787	74.3649	706.787	73.7501	706.787	73.7269	706.787	72.8702	706.787	72.8438	706.787	71.8038	706.787	71.78	706.787	70.7137	706.787	70.6958	706.787	69.8604	706.787	69.8387	706.787	69.4242	706.787	69.3719	706.787	69.273	706.787	69.1621	706.787	69.0424	706.787	68.8584	706.787	68.3697	706.787	68.1084	706.787	66.9577	706.787	66.6227	706.787	64.5608	706.787	64.1856	706.787	61.4413	706.787	61.2209	706.787	60.5582	706.787	60.7538	706.787	62.93	706.787	63.1211	706.787	64.9073	706.787	64.9878	706.787	65.5947
731.689	74.6895	731.689	74.628	731.689	74.5571	731.689	74.3674	731.689	74.2212	731.689	73.8899	731.689	73.6638	731.689	73.1751	731.689	72.8717	731.689	72.2218	731.689	71.8592	731.689	71.086	731.689	70.7052	731.689	69.9299	731.689	69.5897	731.689	69.0145	731.689	68.7505	731.689	68.5017	731.689	68.2741	731.689	68.2165	731.689	67.938	731.689	67.7462	731.689	67.3525	731.689	66.6737	731.689	66.1392	731.689	64.6158	731.689	63.952	731.689	61.2819	731.689	60.6669	731.689	58.2781	731.689	58.54	731.689	60.127	731.689	60.7061	731.689	62.6875	731.689	62.9507	731.689	63.6415
758.057	74.4364	758.057	74.3346	758.057	74.3276	758.057	74.019	758.057	73.9938	758.057	73.4712	758.057	73.4084	758.057	72.6713	758.057	72.5482	758.057	71.6271	758.057	71.4225	758.057	70.4256	758.057	70.1285	758.057	69.2985	758.057	68.9233	758.057	68.5717	758.057	68.1666	758.057	68.3497	758.057	67.9575	758.057	68.3167	758.057	67.9331	758.057	68.0117	758.057	67.5974	758.057	67.0648	758.057	66.5559	758.057	65.1827	758.057	64.4574	758.057	62.2097	758.057	60.9906	758.057	59.4108	758.057	57.6944	758.057	60.3078	758.057	59.5562	758.057	62.3757	758.057	62.1763	758.057	63.1093
784.424	74.2624	784.424	74.2038	784.424	74.1688	784.424	73.9823	784.424	73.9105	784.424	73.5681	784.424	73.4548	784.424	72.9206	784.424	72.7566	784.424	72.0067	784.424	71.7752	784.424	70.8324	784.424	70.5054	784.424	69.5011	784.424	69.0403	784.424	68.2771	784.424	67.6563	784.424	67.4859	784.424	66.7375	784.424	67.1359	784.424	66.3304	784.424	66.7985	784.424	65.9482	784.424	65.9478	784.424	64.968	784.424	64.1346	784.424	62.7958	784.424	61.0306	784.424	58.7164	784.424	58.0153	784.424	54.8513	784.424	59.6779	784.424	58.8984	784.424	62.2537	784.424	62.1345	784.424	63.139
812.256	74.0605	812.256	73.9899	812.256	73.9371	812.256	73.719	812.256	73.6205	812.256	73.2344	812.256	73.1042	812.256	72.5129	812.256	72.3709	812.256	71.5308	812.256	71.3969	812.256	70.2989	812.256	70.1793	812.256	68.9436	812.256	68.7995	812.256	67.7982	812.256	67.5173	812.256	67.2425	812.256	66.7171	812.256	67.1913	812.256	66.4732	812.256	67.088	812.256	66.3228	812.256	66.3901	812.256	65.6737	812.256	64.6851	812.256	64.0313	812.256	61.5922	812.256	60.8761	812.256	57.5507	812.256	56.1945	812.256	57.5157	812.256	56.1574	812.256	60.0254	812.256	59.5179	812.256	60.8382
840.82	73.6526	840.82	73.5612	840.82	73.5601	840.82	73.291	840.82	73.2847	840.82	72.8443	840.82	72.8281	840.82	72.2051	840.82	72.1781	840.82	71.3318	840.82	71.2993	840.82	70.1755	840.82	70.1439	840.82	68.7387	840.82	68.7023	840.82	67.2073	840.82	67.127	840.82	66.0697	840.82	65.8848	840.82	65.7196	840.82	65.4493	840.82	65.756	840.82	65.4988	840.82	65.3899	840.82	65.1987	840.82	63.9978	840.82	63.8615	840.82	60.9962	840.82	60.8393	840.82	56.2395	840.82	55.7363	840.82	56.2754	840.82	55.7284	840.82	59.7802	840.82	59.6203	840.82	60.949
870.85	73.5717	870.85	73.4881	870.85	73.4794	870.85	73.2361	870.85	73.215	870.85	72.8214	870.85	72.7861	870.85	72.2238	870.85	72.1846	870.85	71.3861	870.85	71.3728	870.85	70.2319	870.85	70.2943	870.85	68.7315	870.85	68.9209	870.85	67.058	870.85	67.3636	870.85	65.7885	870.85	66.0301	870.85	65.4634	870.85	65.4243	870.85	65.5902	870.85	65.3544	870.85	65.2025	870.85	65.007	870.85	63.5706	870.85	63.6337	870.85	59.9398	870.85	60.4725	870.85	54.6989	870.85	54.7113	870.85	57.5185	870.85	55.4042	870.85	61.018	870.85	60.0957	870.85	61.8067
901.611	73.5288	901.611	73.3943	901.611	73.4819	901.611	73.0994	901.611	73.2533	901.611	72.6719	901.611	72.8528	901.611	72.1118	901.611	72.2752	901.611	71.3637	901.611	71.48	901.611	70.323	901.611	70.3972	901.611	68.8864	901.611	68.9695	901.611	67.0797	901.611	67.2702	901.611	65.345	901.611	65.7227	901.611	64.5555	901.611	64.9969	901.611	64.6706	901.611	64.9865	901.611	64.529	901.611	64.7485	901.611	63.1685	901.611	63.4588	901.611	59.6629	901.611	60.3755	901.611	52.405	901.611	54.7678	901.611	54.519	901.611	54.9601	901.611	59.5087	901.611	59.383	901.611	60.826
933.105	73.7275	933.105	73.6216	933.105	73.6013	933.105	73.2909	933.105	73.2698	933.105	72.7758	933.105	72.7827	933.105	72.1334	933.105	72.1871	933.105	71.3973	933.105	71.4868	933.105	70.5345	933.105	70.6156	933.105	69.4436	933.105	69.4579	933.105	68.0301	933.105	67.9364	933.105	66.3809	933.105	66.2001	933.105	64.9936	933.105	64.8452	933.105	64.4002	933.105	64.3619	933.105	64.0854	933.105	64.0692	933.105	62.8814	933.105	62.7895	933.105	59.48	933.105	59.273	933.105	50.7446	933.105	51.5946	933.105	54.7128	933.105	56.0871	933.105	60.6484	933.105	61.0442	933.105	62.2962
966.064	73.6282	966.064	73.4893	966.064	73.5506	966.064	73.1613	966.064	73.2715	966.064	72.7093	966.064	72.8359	966.064	72.2046	966.064	72.29	966.064	71.6634	966.064	71.638	966.064	71.0045	966.064	70.8116	966.064	70.077	966.064	69.6862	966.064	68.7496	966.064	68.1545	966.064	67.0541	966.064	66.2905	966.064	65.3977	966.064	64.6413	966.064	64.4039	966.064	63.9487	966.064	63.8579	966.064	63.7528	966.064	62.6593	966.064	62.7529	966.064	59.5035	966.064	59.6534	966.064	50.9964	966.064	51.3929	966.064	50.5499	966.064	52.0072	966.064	58.4437	966.064	58.8139	966.064	60.3547
999.756	73.8644	999.756	73.7361	999.756	73.6998	999.756	73.3399	999.756	73.2611	999.756	72.7411	999.756	72.6201	999.756	72.0349	999.756	71.8944	999.756	71.3047	999.756	71.188	999.756	70.5583	999.756	70.4963	999.756	69.713	999.756	69.6867	999.756	68.6808	999.756	68.6019	999.756	67.5147	999.756	67.2186	999.756	66.508	999.756	65.8243	999.756	65.9386	999.756	64.9167	999.756	65.5159	999.756	64.3714	999.756	64.4616	999.756	63.1877	999.756	61.8117	999.756	60.0073	999.756	55.7166	999.756	51.8545	999.756	50.9848	999.756	53.3816	999.756	58.5644	999.756	59.5694	999.756	60.8456
1,034.91	73.4468	1,034.91	73.3246	1,034.91	73.2315	1,034.91	72.8751	1,034.91	72.6976	1,034.91	72.1505	1,034.91	71.9055	1,034.91	71.2692	1,034.91	70.9807	1,034.91	70.3989	1,034.91	70.0918	1,034.91	69.6403	1,034.91	69.3353	1,034.91	68.9052	1,034.91	68.6227	1,034.91	67.985	1,034.91	67.7475	1,034.91	66.7877	1,034.91	66.5973	1,034.91	65.599	1,034.91	65.391	1,034.91	64.9895	1,034.91	64.6436	1,034.91	64.8398	1,034.91	64.2906	1,034.91	64.1256	1,034.91	63.3023	1,034.91	61.651	1,034.91	60.2548	1,034.91	55.183	1,034.91	51.1675	1,034.91	50.302	1,034.91	51.5451	1,034.91	58.8171	1,034.91	59.4047	1,034.91	60.9888
1,071.53	72.8504	1,071.53	72.7131	1,071.53	72.6552	1,071.53	72.2484	1,071.53	72.1247	1,071.53	71.4809	1,071.53	71.2787	1,071.53	70.4971	1,071.53	70.2067	1,071.53	69.4674	1,071.53	69.0961	1,071.53	68.5629	1,071.53	68.1517	1,071.53	67.7789	1,071.53	67.3953	1,071.53	66.914	1,071.53	66.6172	1,071.53	65.8405	1,071.53	65.6315	1,071.53	64.8816	1,071.53	64.6073	1,071.53	64.6677	1,071.53	64.0426	1,071.53	64.8778	1,071.53	63.8514	1,071.53	64.2896	1,071.53	63.0227	1,071.53	61.6394	1,071.53	60.2316	1,071.53	54.1407	1,071.53	52.0356	1,071.53	51.4504	1,071.53	50.0339	1,071.53	59.5229	1,071.53	59.1114	1,071.53	61.1981
1,109.62	72.077	1,109.62	71.9564	1,109.62	71.9309	1,109.62	71.5588	1,109.62	71.506	1,109.62	70.8669	1,109.62	70.7869	1,109.62	69.9039	1,109.62	69.7961	1,109.62	68.7921	1,109.62	68.6405	1,109.62	67.7579	1,109.62	67.5141	1,109.62	66.9554	1,109.62	66.5676	1,109.62	66.2371	1,109.62	65.7265	1,109.62	65.3218	1,109.62	64.8077	1,109.62	64.2846	1,109.62	63.9012	1,109.62	63.7326	1,109.62	63.4039	1,109.62	63.7162	1,109.62	63.1853	1,109.62	63.0685	1,109.62	62.2558	1,109.62	60.2929	1,109.62	59.2497	1,109.62	51.6172	1,109.62	50.55	1,109.62	51.0052	1,109.62	52.0678	1,109.62	59.2864	1,109.62	59.2913	1,109.62	61.05
1,148.44	71.5226	1,148.44	71.3316	1,148.44	71.5345	1,148.44	70.9608	1,148.44	71.3294	1,148.44	70.3734	1,148.44	70.8533	1,148.44	69.5375	1,148.44	70.0721	1,148.44	68.4994	1,148.44	69.0136	1,148.44	67.4482	1,148.44	67.8059	1,148.44	66.6121	1,148.44	66.6388	1,148.44	65.9247	1,148.44	65.5778	1,148.44	64.991	1,148.44	64.4825	1,148.44	63.6223	1,148.44	63.343	1,148.44	62.4638	1,148.44	62.6342	1,148.44	62.306	1,148.44	62.6072	1,148.44	62.076	1,148.44	62.3463	1,148.44	60.0233	1,148.44	60.5383	1,148.44	53.7484	1,148.44	55.4475	1,148.44	50.2073	1,148.44	50.6334	1,148.44	58.0511	1,148.44	57.6638	1,148.44	59.8468
1,189.45	72.7849	1,189.45	72.6615	1,189.45	72.6748	1,189.45	72.2996	1,189.45	72.3455	1,189.45	71.7066	1,189.45	71.7984	1,189.45	70.8882	1,189.45	71.0184	1,189.45	69.8525	1,189.45	70.0025	1,189.45	68.6405	1,189.45	68.7903	1,189.45	67.3386	1,189.45	67.4491	1,189.45	66.0172	1,189.45	66.0242	1,189.45	64.6878	1,189.45	64.6061	1,189.45	63.5177	1,189.45	63.6338	1,189.45	63.0227	1,189.45	63.7197	1,189.45	63.2559	1,189.45	64.3784	1,189.45	63.2845	1,189.45	64.396	1,189.45	62.102	1,189.45	62.8675	1,189.45	58.7579	1,189.45	58.8988	1,189.45	52.4553	1,189.45	52.4175	1,189.45	53.3056	1,189.45	54.3673	1,189.45	56.062
1,231.2	74.0299	1,231.2	73.8418	1,231.2	73.8118	1,231.2	73.2611	1,231.2	73.2211	1,231.2	72.3524	1,231.2	72.3233	1,231.2	71.2252	1,231.2	71.2047	1,231.2	70.0242	1,231.2	69.9833	1,231.2	68.8869	1,231.2	68.8102	1,231.2	67.8224	1,231.2	67.7754	1,231.2	66.6087	1,231.2	66.7499	1,231.2	64.9349	1,231.2	65.439	1,231.2	62.9653	1,231.2	63.9119	1,231.2	62.2608	1,231.2	63.4507	1,231.2	63.3947	1,231.2	64.5551	1,231.2	64.1836	1,231.2	65.2044	1,231.2	63.2383	1,231.2	63.9566	1,231.2	59.3951	1,231.2	59.5523	1,231.2	47.1492	1,231.2	48.0395	1,231.2	52.7876	1,231.2	54.5858	1,231.2	57.1603
1,274.41	73.9848	1,274.41	73.7164	1,274.41	73.7456	1,274.41	72.9839	1,274.41	73.0281	1,274.41	71.8902	1,274.41	71.9361	1,274.41	70.5872	1,274.41	70.6424	1,274.41	69.287	1,274.41	69.3854	1,274.41	68.2511	1,274.41	68.4178	1,274.41	67.6071	1,274.41	67.7761	1,274.41	67.0863	1,274.41	67.09	1,274.41	66.1547	1,274.41	65.8275	1,274.41	64.5017	1,274.41	63.8717	1,274.41	62.962	1,274.41	62.7617	1,274.41	63.4298	1,274.41	63.9658	1,274.41	64.5286	1,274.41	65.0334	1,274.41	64.0139	1,274.41	64.2566	1,274.41	60.4441	1,274.41	60.5034	1,274.41	48.1639	1,274.41	49.0303	1,274.41	53.9219	1,274.41	54.1458	1,274.41	57.8859
1,319.82	74.1318	1,319.82	73.9471	1,319.82	73.8428	1,319.82	73.3215	1,319.82	73.1591	1,319.82	72.3771	1,319.82	72.2207	1,319.82	71.2521	1,319.82	71.1258	1,319.82	70.0448	1,319.82	69.8699	1,319.82	68.8494	1,319.82	68.4316	1,319.82	67.8088	1,319.82	66.9333	1,319.82	66.9358	1,319.82	65.5809	1,319.82	65.8672	1,319.82	64.3024	1,319.82	64.1673	1,319.82	62.9503	1,319.82	62.332	1,319.82	62.4807	1,319.82	62.4232	1,319.82	63.8068	1,319.82	63.6367	1,319.82	65.063	1,319.82	63.3813	1,319.82	64.5531	1,319.82	59.9277	1,319.82	60.8574	1,319.82	46.2518	1,319.82	46.1505	1,319.82	55.8451	1,319.82	55.876	1,319.82	59.5072
1,365.97	73.5889	1,365.97	73.3755	1,365.97	73.3609	1,365.97	72.8104	1,365.97	72.7264	1,365.97	72.0474	1,365.97	71.8108	1,365.97	71.203	1,365.97	70.7328	1,365.97	70.3092	1,365.97	69.5488	1,365.97	69.3548	1,365.97	68.2947	1,365.97	68.3459	1,365.97	67.0376	1,365.97	67.2701	1,365.97	65.8034	1,365.97	65.9535	1,365.97	64.405	1,365.97	64.0959	1,365.97	62.4666	1,365.97	61.9554	1,365.97	60.3256	1,365.97	61.6189	1,365.97	60.8422	1,365.97	63.1484	1,365.97	63.1806	1,365.97	63.5534	1,365.97	63.8663	1,365.97	60.9306	1,365.97	61.3473	1,365.97	49.7992	1,365.97	50.6391	1,365.97	54.3632	1,365.97	54.2497	1,365.97	58.8301
1,414.31	73.0536	1,414.31	72.987	1,414.31	72.8404	1,414.31	72.6708	1,414.31	72.3712	1,414.31	72.1364	1,414.31	71.7058	1,414.31	71.3686	1,414.31	70.8795	1,414.31	70.3231	1,414.31	69.8913	1,414.31	69.0073	1,414.31	68.7585	1,414.31	67.6077	1,414.31	67.5835	1,414.31	66.4603	1,414.31	66.5079	1,414.31	65.5483	1,414.31	65.4302	1,414.31	64.2912	1,414.31	63.803	1,414.31	62.367	1,414.31	61.0642	1,414.31	61.3647	1,414.31	59.2149	1,414.31	62.8054	1,414.31	61.4307	1,414.31	63.6238	1,414.31	62.7549	1,414.31	61.4963	1,414.31	60.7132	1,414.31	52.228	1,414.31	51.6077	1,414.31	52.7543	1,414.31	54.0408	1,414.31	58.1506
1,464.11	73.1471	1,464.11	73.0259	1,464.11	73.0439	1,464.11	72.6831	1,464.11	72.731	1,464.11	72.1296	1,464.11	72.2415	1,464.11	71.3611	1,464.11	71.6225	1,464.11	70.3498	1,464.11	70.8781	1,464.11	69.0819	1,464.11	69.9084	1,464.11	67.6711	1,464.11	68.5907	1,464.11	66.4374	1,464.11	67.0153	1,464.11	65.5193	1,464.11	65.5991	1,464.11	64.4081	1,464.11	64.4755	1,464.11	62.5372	1,464.11	62.9677	1,464.11	60.7998	1,464.11	60.9403	1,464.11	61.2966	1,464.11	60.7325	1,464.11	61.6654	1,464.11	61.7845	1,464.11	58.8717	1,464.11	60.3839	1,464.11	50.5016	1,464.11	52.1554	1,464.11	56.5005	1,464.11	51.7919	1,464.11	58.4639
1,515.38	74.039	1,515.38	73.6135	1,515.38	74.1966	1,515.38	73.0487	1,515.38	73.9757	1,515.38	72.4209	1,515.38	73.3542	1,515.38	71.7569	1,515.38	72.3878	1,515.38	70.9996	1,515.38	71.2039	1,515.38	69.9801	1,515.38	69.9842	1,515.38	68.5715	1,515.38	68.8	1,515.38	66.9762	1,515.38	67.5017	1,515.38	65.6536	1,515.38	65.9684	1,515.38	64.4193	1,515.38	64.3973	1,515.38	62.4228	1,515.38	63.1423	1,515.38	60.1815	1,515.38	62.289	1,515.38	60.8097	1,515.38	61.9767	1,515.38	61.5933	1,515.38	61.8857	1,515.38	58.5319	1,515.38	60.0912	1,515.38	43.9986	1,515.38	51.7488	1,515.38	57.3634	1,515.38	52.6803	1,515.38	59.3316
1,568.85	73.8082	1,568.85	73.7887	1,568.85	73.755	1,568.85	73.6027	1,568.85	73.5976	1,568.85	73.1368	1,568.85	73.2203	1,568.85	72.3803	1,568.85	72.5179	1,568.85	71.4123	1,568.85	71.4672	1,568.85	70.319	1,568.85	70.1894	1,568.85	69.1674	1,568.85	68.9384	1,568.85	68.0063	1,568.85	67.871	1,568.85	66.7813	1,568.85	66.8376	1,568.85	65.2108	1,568.85	65.5425	1,568.85	62.9102	1,568.85	63.9604	1,568.85	60.5671	1,568.85	62.9713	1,568.85	61.0347	1,568.85	63.3999	1,568.85	62.1794	1,568.85	63.6129	1,568.85	60.5205	1,568.85	61.3965	1,568.85	52.4759	1,568.85	52.4817	1,568.85	53.3529	1,568.85	52.1061	1,568.85	57.7087
1,624.51	73.693	1,624.51	73.8882	1,624.51	73.4432	1,624.51	73.911	1,624.51	73.1851	1,624.51	73.6697	1,624.51	72.8432	1,624.51	73.1318	1,624.51	72.2646	1,624.51	72.2826	1,624.51	71.3125	1,624.51	71.1188	1,624.51	69.9826	1,624.51	69.7512	1,624.51	68.5094	1,624.51	68.4398	1,624.51	67.3035	1,624.51	67.2622	1,624.51	66.4826	1,624.51	65.8132	1,624.51	65.5068	1,624.51	63.6113	1,624.51	63.703	1,624.51	61.3509	1,624.51	61.8203	1,624.51	61.621	1,624.51	62.5753	1,624.51	62.6408	1,624.51	63.5207	1,624.51	61.171	1,624.51	61.3197	1,624.51	53.4403	1,624.51	50.5103	1,624.51	51.2022	1,624.51	54.159	1,624.51	58.0737
1,681.64	72.7429	1,681.64	72.8912	1,681.64	72.5993	1,681.64	72.9491	1,681.64	72.4597	1,681.64	72.817	1,681.64	72.2522	1,681.64	72.4684	1,681.64	71.8888	1,681.64	71.9197	1,681.64	71.2648	1,681.64	71.1642	1,681.64	70.2985	1,681.64	70.1587	1,681.64	69.0059	1,681.64	68.8894	1,681.64	67.5341	1,681.64	67.4422	1,681.64	66.133	1,681.64	65.8913	1,681.64	64.8862	1,681.64	64.1153	1,681.64	63.3958	1,681.64	62.4335	1,681.64	61.6173	1,681.64	62.5099	1,681.64	61.5808	1,681.64	63.4065	1,681.64	62.9075	1,681.64	61.9624	1,681.64	61.9947	1,681.64	53.9152	1,681.64	55.0056	1,681.64	52.1767	1,681.64	51.0735	1,681.64	57.9065
1,740.97	73.5783	1,740.97	73.3448	1,740.97	73.6568	1,740.97	73.1882	1,740.97	73.436	1,740.97	73.1048	1,740.97	73.0224	1,740.97	72.8394	1,740.97	72.5796	1,740.97	72.1685	1,740.97	72.0638	1,740.97	71.072	1,740.97	71.2514	1,740.97	69.6939	1,740.97	69.9756	1,740.97	68.2234	1,740.97	68.342	1,740.97	66.812	1,740.97	66.7837	1,740.97	65.4942	1,740.97	65.5475	1,740.97	63.954	1,740.97	64.0686	1,740.97	61.8233	1,740.97	62.0572	1,740.97	60.8481	1,740.97	61.8004	1,740.97	62.1911	1,740.97	63.3453	1,740.97	61.579	1,740.97	62.7499	1,740.97	54.9478	1,740.97	56.7381	1,740.97	49.9241	1,740.97	47.0555	1,740.97	56.4142
1,802.49	73.9206	1,802.49	73.956	1,802.49	73.8582	1,802.49	73.9106	1,802.49	73.8074	1,802.49	73.692	1,802.49	73.7149	1,802.49	73.2182	1,802.49	73.3983	1,802.49	72.4904	1,802.49	72.7201	1,802.49	71.5468	1,802.49	71.7017	1,802.49	70.3436	1,802.49	70.4458	1,802.49	68.7577	1,802.49	69.0459	1,802.49	66.8342	1,802.49	67.592	1,802.49	65.063	1,802.49	66.0929	1,802.49	63.7728	1,802.49	64.2369	1,802.49	62.3198	1,802.49	61.9212	1,802.49	61.2325	1,802.49	61.4632	1,802.49	62.2974	1,802.49	62.8641	1,802.49	62.4414	1,802.49	61.9144	1,802.49	58.042	1,802.49	55.0585	1,802.49	38.207	1,802.49	50.8718	1,802.49	55.2681
1,866.21	73.7491	1,866.21	73.9291	1,866.21	73.7272	1,866.21	74.1348	1,866.21	73.7825	1,866.21	74.1575	1,866.21	73.7047	1,866.21	73.8706	1,866.21	73.3507	1,866.21	73.257	1,866.21	72.7122	1,866.21	72.3698	1,866.21	71.8036	1,866.21	71.2579	1,866.21	70.535	1,866.21	69.894	1,866.21	68.8245	1,866.21	68.2451	1,866.21	66.9959	1,866.21	66.4546	1,866.21	65.7312	1,866.21	64.7151	1,866.21	64.55	1,866.21	62.8967	1,866.21	61.9448	1,866.21	61.6136	1,866.21	59.0767	1,866.21	61.924	1,866.21	60.9746	1,866.21	61.0728	1,866.21	60.8049	1,866.21	54.2769	1,866.21	52.2134	1,866.21	52.1615	1,866.21	54.1549	1,866.21	58.795
1,932.13	73.046	1,932.13	73.1959	1,932.13	72.9978	1,932.13	73.4065	1,932.13	73.0343	1,932.13	73.5577	1,932.13	73.0473	1,932.13	73.4435	1,932.13	72.792	1,932.13	72.9078	1,932.13	72.0086	1,932.13	72.0118	1,932.13	70.6953	1,932.13	70.9847	1,932.13	69.1642	1,932.13	69.9145	1,932.13	67.674	1,932.13	68.6002	1,932.13	66.1801	1,932.13	66.8455	1,932.13	64.7582	1,932.13	64.7305	1,932.13	63.6589	1,932.13	62.6172	1,932.13	62.395	1,932.13	61.679	1,932.13	61.0028	1,932.13	62.6062	1,932.13	61.4474	1,932.13	62.39	1,932.13	61.0625	1,932.13	57.2177	1,932.13	54.4585	1,932.13	45.0323	1,932.13	50.489	1,932.13	56.6194
2,000.24	73.3533	2,000.24	73.4948	2,000.24	73.4654	2,000.24	73.7724	2,000.24	73.7474	2,000.24	73.8962	2,000.24	73.9703	2,000.24	73.5884	2,000.24	73.8422	2,000.24	72.7591	2,000.24	73.1665	2,000.24	71.5293	2,000.24	71.9678	2,000.24	70.1188	2,000.24	70.4303	2,000.24	68.6486	2,000.24	68.6725	2,000.24	67.0955	2,000.24	66.6813	2,000.24	65.5439	2,000.24	64.6625	2,000.24	64.1437	2,000.24	63.0835	2,000.24	62.623	2,000.24	61.5765	2,000.24	61.1903	2,000.24	59.9764	2,000.24	61.2508	2,000.24	60.2021	2,000.24	60.7546	2,000.24	60.0944	2,000.24	55.6961	2,000.24	54.9127	2,000.24	47.0909	2,000.24	43.2407	2,000.24	53.9277
2,070.56	74.2188	2,070.56	74.3655	2,070.56	74.3369	2,070.56	74.6581	2,070.56	74.6464	2,070.56	74.8167	2,070.56	74.8985	2,070.56	74.5518	2,070.56	74.761	2,070.56	73.7012	2,070.56	74.0356	2,070.56	72.2546	2,070.56	72.8137	2,070.56	70.3695	2,070.56	71.3808	2,070.56	68.3641	2,070.56	69.8731	2,070.56	66.5199	2,070.56	68.112	2,070.56	64.9207	2,070.56	66.0442	2,070.56	63.462	2,070.56	64.2371	2,070.56	61.6427	2,070.56	62.8973	2,070.56	59.5756	2,070.56	61.4673	2,070.56	59.6308	2,070.56	61.2883	2,070.56	59.5348	2,070.56	61.4222	2,070.56	53.9136	2,070.56	57.1898	2,070.56	46.4311	2,070.56	42.704	2,070.56	54.3816
2,143.8	74.1997	2,143.8	74.4583	2,143.8	74.1366	2,143.8	74.8055	2,143.8	74.2667	2,143.8	75.0164	2,143.8	74.4111	2,143.8	74.8259	2,143.8	74.2344	2,143.8	74.0825	2,143.8	73.467	2,143.8	72.7991	2,143.8	72.1038	2,143.8	71.1273	2,143.8	70.452	2,143.8	69.2977	2,143.8	68.8971	2,143.8	67.4218	2,143.8	67.3845	2,143.8	65.4046	2,143.8	65.6054	2,143.8	63.3266	2,143.8	63.8916	2,143.8	61.532	2,143.8	62.6743	2,143.8	60.242	2,143.8	61.1257	2,143.8	60.4402	2,143.8	60.2027	2,143.8	60.8936	2,143.8	60.1518	2,143.8	57.5429	2,143.8	55.8391	2,143.8	30.5241	2,143.8	46.5219	2,143.8	52.5247
2,219.24	73.2869	2,219.24	73.55	2,219.24	73.1897	2,219.24	73.9144	2,219.24	73.3013	2,219.24	74.2038	2,219.24	73.5071	2,219.24	74.1569	2,219.24	73.4556	2,219.24	73.5991	2,219.24	72.7761	2,219.24	72.5087	2,219.24	71.3302	2,219.24	71.0319	2,219.24	69.3365	2,219.24	69.4459	2,219.24	67.3344	2,219.24	67.8803	2,219.24	65.6145	2,219.24	66.197	2,219.24	63.7185	2,219.24	64.4877	2,219.24	61.6341	2,219.24	63.048	2,219.24	60.4121	2,219.24	61.4362	2,219.24	59.2437	2,219.24	60.1281	2,219.24	57.4466	2,219.24	60.0702	2,219.24	56.3695	2,219.24	57.1524	2,219.24	51.2044	2,219.24	47.7603	2,219.24	47.7001	2,219.24	53.2838
2,297.61	73.6468	2,297.61	73.788	2,297.61	73.8792	2,297.61	74.1302	2,297.61	74.2387	2,297.61	74.2322	2,297.61	74.3575	2,297.61	73.8342	2,297.61	74.0375	2,297.61	72.9282	2,297.61	73.2388	2,297.61	71.5466	2,297.61	71.9738	2,297.61	69.7585	2,297.61	70.2681	2,297.61	67.906	2,297.61	68.2618	2,297.61	66.3833	2,297.61	66.2825	2,297.61	64.9611	2,297.61	64.3173	2,297.61	63.287	2,297.61	62.0364	2,297.61	61.8507	2,297.61	60.3034	2,297.61	60.9235	2,297.61	60.0623	2,297.61	60.0855	2,297.61	59.4359	2,297.61	59.2937	2,297.61	57.5041	2,297.61	55.7829	2,297.61	51.9389	2,297.61	37.2605	2,297.61	39.8022	2,297.61	49.7346
2,378.17	74.4617	2,378.17	74.7336	2,378.17	74.6461	2,378.17	75.1489	2,378.17	74.9634	2,378.17	75.1644	2,378.17	74.97	2,378.17	74.5956	2,378.17	74.5136	2,378.17	73.5397	2,378.17	73.6092	2,378.17	72.0153	2,378.17	72.2681	2,378.17	69.976	2,378.17	70.5236	2,378.17	67.6902	2,378.17	68.5695	2,378.17	65.7538	2,378.17	66.7185	2,378.17	64.2177	2,378.17	64.925	2,378.17	62.4038	2,378.17	62.842	2,378.17	60.4863	2,378.17	61.1052	2,378.17	59.7235	2,378.17	60.6979	2,378.17	59.6768	2,378.17	60.391	2,378.17	59.2774	2,378.17	58.8967	2,378.17	56.6265	2,378.17	53.9856	2,378.17	49.3734	2,378.17	40.9443	2,378.17	48.7425
2,462.4	74.1874	2,462.4	74.5683	2,462.4	74.1482	2,462.4	74.9659	2,462.4	74.3298	2,462.4	75.0104	2,462.4	74.3295	2,462.4	74.5927	2,462.4	73.8608	2,462.4	73.7499	2,462.4	72.8759	2,462.4	72.4553	2,462.4	71.4714	2,462.4	70.6465	2,462.4	69.7017	2,462.4	68.4744	2,462.4	67.5472	2,462.4	66.4204	2,462.4	65.2086	2,462.4	64.6566	2,462.4	63.228	2,462.4	62.4861	2,462.4	61.5956	2,462.4	60.0997	2,462.4	59.3296	2,462.4	59.8182	2,462.4	56.6876	2,462.4	59.9295	2,462.4	57.5355	2,462.4	58.0729	2,462.4	58.5037	2,462.4	53.3497	2,462.4	54.9553	2,462.4	46.7259	2,462.4	45.0856	2,462.4	50.1744
2,548.83	73.8521	2,548.83	74.198	2,548.83	73.9157	2,548.83	74.6355	2,548.83	74.1911	2,548.83	74.697	2,548.83	74.2438	2,548.83	74.227	2,548.83	73.761	2,548.83	73.3261	2,548.83	72.653	2,548.83	72.0536	2,548.83	71.0277	2,548.83	70.3866	2,548.83	69.1075	2,548.83	68.4106	2,548.83	67.1516	2,548.83	66.4891	2,548.83	65.1918	2,548.83	65.0489	2,548.83	62.9336	2,548.83	63.5869	2,548.83	60.7947	2,548.83	61.1205	2,548.83	59.9118	2,548.83	58.6275	2,548.83	58.5662	2,548.83	59.1889	2,548.83	56.3072	2,548.83	59.693	2,548.83	56.4153	2,548.83	57.484	2,548.83	53.0603	2,548.83	52.334	2,548.83	44.4651	2,548.83	50.927
2,638.92	74.2673	2,638.92	74.5947	2,638.92	74.3084	2,638.92	74.9656	2,638.92	74.5537	2,638.92	74.9744	2,638.92	74.5853	2,638.92	74.4874	2,638.92	74.1323	2,638.92	73.5185	2,638.92	73.1075	2,638.92	72.0556	2,638.92	71.5161	2,638.92	70.1498	2,638.92	69.4841	2,638.92	68.0382	2,638.92	67.4006	2,638.92	66.0422	2,638.92	65.7324	2,638.92	64.258	2,638.92	64.1303	2,638.92	62.5432	2,638.92	61.6778	2,638.92	61.0964	2,638.92	59.2834	2,638.92	60.1079	2,638.92	59.005	2,638.92	59.2778	2,638.92	58.1751	2,638.92	58.6386	2,638.92	57.2004	2,638.92	55.6085	2,638.92	54.7122	2,638.92	49.1642	2,638.92	47.2372	2,638.92	51.5573
2,731.93	74.3077	2,731.93	74.5961	2,731.93	74.403	2,731.93	75.0408	2,731.93	74.6077	2,731.93	75.1786	2,731.93	74.5155	2,731.93	74.7637	2,731.93	73.9122	2,731.93	73.7781	2,731.93	72.78	2,731.93	72.2905	2,731.93	71.197	2,731.93	70.3961	2,731.93	69.1934	2,731.93	68.1991	2,731.93	66.8443	2,731.93	66.01	2,731.93	64.6166	2,731.93	64.3516	2,731.93	62.7581	2,731.93	62.7526	2,731.93	60.6159	2,731.93	60.2422	2,731.93	58.8445	2,731.93	58.2962	2,731.93	58.5543	2,731.93	58.8678	2,731.93	57.0518	2,731.93	59.019	2,731.93	55.0316	2,731.93	56.5216	2,731.93	52.9942	2,731.93	49.4606	2,731.93	45.6157	2,731.93	47.9239
2,828.61	74.1856	2,828.61	74.5062	2,828.61	74.3107	2,828.61	74.9976	2,828.61	74.6189	2,828.61	75.1567	2,828.61	74.6347	2,828.61	74.7272	2,828.61	74.0532	2,828.61	73.7391	2,828.61	72.8404	2,828.61	72.3116	2,828.61	71.1815	2,828.61	70.5087	2,828.61	69.266	2,828.61	68.3879	2,828.61	67.1436	2,828.61	66.1863	2,828.61	64.9559	2,828.61	64.1923	2,828.61	62.8453	2,828.61	62.1768	2,828.61	60.328	2,828.61	60.051	2,828.61	57.0677	2,828.61	59.1352	2,828.61	56.2813	2,828.61	59.2155	2,828.61	57.5063	2,828.61	58.989	2,828.61	57.405	2,828.61	56.8173	2,828.61	54.9149	2,828.61	50.4414	2,828.61	49.0291	2,828.61	49.2358
2,928.22	74.4218	2,928.22	74.6733	2,928.22	74.5842	2,928.22	75.1867	2,928.22	74.9125	2,928.22	75.4749	2,928.22	74.9123	2,928.22	75.1453	2,928.22	74.2574	2,928.22	74.1528	2,928.22	73.0485	2,928.22	72.698	2,928.22	71.5396	2,928.22	70.9295	2,928.22	69.7083	2,928.22	68.8006	2,928.22	67.5056	2,928.22	66.4313	2,928.22	65.31	2,928.22	64.3565	2,928.22	63.5849	2,928.22	62.4284	2,928.22	61.7146	2,928.22	59.3763	2,928.22	58.4597	2,928.22	57.2985	2,928.22	56.1709	2,928.22	59.1023	2,928.22	57.2505	2,928.22	59.5471	2,928.22	57.2163	2,928.22	58.2919	2,928.22	54.8924	2,928.22	54.1771	2,928.22	49.7777	2,928.22	50.7199
3,031.49	74.3434	3,031.49	74.5114	3,031.49	74.3913	3,031.49	74.8019	3,031.49	74.4969	3,031.49	74.8769	3,031.49	74.3857	3,031.49	74.4538	3,031.49	73.8696	3,031.49	73.5411	3,031.49	72.8975	3,031.49	72.1974	3,031.49	71.4118	3,031.49	70.3425	3,031.49	69.459	3,031.49	68.1443	3,031.49	67.2235	3,031.49	66.0915	3,031.49	64.8413	3,031.49	64.459	3,031.49	62.6955	3,031.49	63.0018	3,031.49	61.2504	3,031.49	61.0816	3,031.49	59.6176	3,031.49	58.7897	3,031.49	55.8868	3,031.49	58.6274	3,031.49	52.7356	3,031.49	59.0245	3,031.49	55.6379	3,031.49	57.0402	3,031.49	54.816	3,031.49	53.1733	3,031.49	49.065	3,031.49	49.7121
3,138.43	73.9701	3,138.43	74.1441	3,138.43	74.0329	3,138.43	74.4585	3,138.43	74.1354	3,138.43	74.4709	3,138.43	74.0098	3,138.43	73.9659	3,138.43	73.4999	3,138.43	73.0622	3,138.43	72.519	3,138.43	71.7566	3,138.43	71.0723	3,138.43	69.8769	3,138.43	69.2632	3,138.43	67.4514	3,138.43	67.0948	3,138.43	64.9947	3,138.43	64.6985	3,138.43	63.1921	3,138.43	62.4831	3,138.43	61.3014	3,138.43	60.3933	3,138.43	58.412	3,138.43	58.3676	3,138.43	57.4354	3,138.43	57.7595	3,138.43	57.958	3,138.43	56.8146	3,138.43	58.0208	3,138.43	55.8369	3,138.43	56.8894	3,138.43	55.5869	3,138.43	52.8683	3,138.43	51.6478	3,138.43	51.314
3,249.02	74.0408	3,249.02	74.035	3,249.02	73.9207	3,249.02	74.0218	3,249.02	73.8413	3,249.02	73.9961	3,249.02	73.7804	3,249.02	73.6923	3,249.02	73.396	3,249.02	72.9363	3,249.02	72.5028	3,249.02	71.6505	3,249.02	71.1533	3,249.02	69.8547	3,249.02	69.3553	3,249.02	67.636	3,249.02	67.1124	3,249.02	65.0576	3,249.02	64.6552	3,249.02	62.5712	3,249.02	62.5428	3,249.02	60.6624	3,249.02	60.7237	3,249.02	57.9415	3,249.02	58.1543	3,249.02	55.2702	3,249.02	56.8342	3,249.02	56.7811	3,249.02	57.2812	3,249.02	57.3257	3,249.02	56.7186	3,249.02	56.7665	3,249.02	55.8874	3,249.02	53.7305	3,249.02	52.1482	3,249.02	50.7542
3,363.28	73.296	3,363.28	73.3751	3,363.28	73.1477	3,363.28	73.4651	3,363.28	73.0811	3,363.28	73.5345	3,363.28	73.0561	3,363.28	73.2889	3,363.28	72.6938	3,363.28	72.536	3,363.28	71.7971	3,363.28	71.2213	3,363.28	70.4271	3,363.28	69.3599	3,363.28	68.6989	3,363.28	67.2147	3,363.28	66.6462	3,363.28	65.0609	3,363.28	64.2437	3,363.28	62.9666	3,363.28	61.9667	3,363.28	60.9837	3,363.28	60.3687	3,363.28	58.7242	3,363.28	57.6759	3,363.28	56.6003	3,363.28	52.9032	3,363.28	57.0396	3,363.28	55.5608	3,363.28	57.5365	3,363.28	57.0342	3,363.28	56.0537	3,363.28	55.7649	3,363.28	52.8765	3,363.28	51.5349	3,363.28	50.7743
3,481.93	73.2352	3,481.93	73.019	3,481.93	73.1484	3,481.93	72.8607	3,481.93	72.9223	3,481.93	72.7963	3,481.93	72.803	3,481.93	72.5206	3,481.93	72.5887	3,481.93	71.9141	3,481.93	71.9748	3,481.93	70.8063	3,481.93	70.8069	3,481.93	69.0792	3,481.93	69.05	3,481.93	66.854	3,481.93	66.7358	3,481.93	64.3404	3,481.93	64.051	3,481.93	62.3499	3,481.93	61.6042	3,481.93	60.9443	3,481.93	59.956	3,481.93	58.3849	3,481.93	57.941	3,481.93	56.1251	3,481.93	55.0155	3,481.93	56.6923	3,481.93	54.083	3,481.93	56.5464	3,481.93	54.863	3,481.93	55.7489	3,481.93	55.603	3,481.93	52.5317	3,481.93	52.0673	3,481.93	50.8997
3,604.98	73.7651	3,604.98	73.4978	3,604.98	73.3894	3,604.98	72.9792	3,604.98	72.9054	3,604.98	72.8036	3,604.98	72.7606	3,604.98	72.6994	3,604.98	72.5771	3,604.98	72.1064	3,604.98	71.9927	3,604.98	70.7916	3,604.98	70.8816	3,604.98	68.9608	3,604.98	69.1432	3,604.98	66.8763	3,604.98	66.8972	3,604.98	64.2876	3,604.98	64.2252	3,604.98	61.2081	3,604.98	61.4358	3,604.98	58.8282	3,604.98	59.545	3,604.98	56.2918	3,604.98	57.8082	3,604.98	54.347	3,604.98	55.4938	3,604.98	56.3325	3,604.98	55.6872	3,604.98	55.8371	3,604.98	55.9576	3,604.98	54.5739	3,604.98	55.6629	3,604.98	50.6631	3,604.98	51.5776	3,604.98	48.3039
3,732.42	73.5957	3,732.42	73.1669	3,732.42	73.0881	3,732.42	72.3789	3,732.42	72.1779	3,732.42	72.1009	3,732.42	71.7966	3,732.42	72.1765	3,732.42	71.8645	3,732.42	71.869	3,732.42	71.6116	3,732.42	70.7403	3,732.42	70.5211	3,732.42	68.8418	3,732.42	68.6488	3,732.42	66.5554	3,732.42	66.3492	3,732.42	64.061	3,732.42	63.7734	3,732.42	61.4512	3,732.42	61.181	3,732.42	59.3534	3,732.42	59.2375	3,732.42	57.3322	3,732.42	57.1041	3,732.42	53.9074	3,732.42	53.9733	3,732.42	54.533	3,732.42	53.8977	3,732.42	55.8714	3,732.42	54.725	3,732.42	53.0983	3,732.42	55.1271	3,732.42	47.8373	3,732.42	50.4125	3,732.42	47.221
3,863.53	73.8613	3,863.53	73.3004	3,863.53	73.3402	3,863.53	72.2525	3,863.53	72.3973	3,863.53	71.8318	3,863.53	72.0475	3,863.53	71.9322	3,863.53	72.1001	3,863.53	71.6339	3,863.53	71.7424	3,863.53	70.5348	3,863.53	70.6064	3,863.53	68.7375	3,863.53	68.6724	3,863.53	66.4454	3,863.53	66.2388	3,863.53	63.6052	3,863.53	63.5651	3,863.53	60.5132	3,863.53	60.8577	3,863.53	58.4938	3,863.53	58.7668	3,863.53	56.7855	3,863.53	56.4456	3,863.53	54.4259	3,863.53	53.3494	3,863.53	54.4694	3,863.53	53.4739	3,863.53	54.8102	3,863.53	53.5494	3,863.53	53.1823	3,863.53	54.2396	3,863.53	45.568	3,863.53	49.3044	3,863.53	46.6957
3,999.76	73.8889	3,999.76	73.3412	3,999.76	73.5316	3,999.76	72.4759	3,999.76	72.72	3,999.76	72.1551	3,999.76	72.2975	3,999.76	72.1129	3,999.76	72.2866	3,999.76	71.5394	3,999.76	72.0009	3,999.76	70.1765	3,999.76	70.8906	3,999.76	68.2002	3,999.76	68.943	3,999.76	65.999	3,999.76	66.5963	3,999.76	63.5968	3,999.76	63.9127	3,999.76	60.8174	3,999.76	60.9673	3,999.76	58.6704	3,999.76	58.6866	3,999.76	57.2409	3,999.76	56.7543	3,999.76	54.761	3,999.76	54.4437	3,999.76	54.9867	3,999.76	54.5016	3,999.76	55.3711	3,999.76	53.8945	3,999.76	53.1002	3,999.76	54.6775	3,999.76	43.7658	3,999.76	48.4951	3,999.76	43.6866
4,141.11	74.0569	4,141.11	73.6356	4,141.11	73.4948	4,141.11	72.7585	4,141.11	72.5034	4,141.11	72.3995	4,141.11	72.0277	4,141.11	72.5242	4,141.11	72.0857	4,141.11	72.2794	4,141.11	71.8228	4,141.11	71.1072	4,141.11	70.6612	4,141.11	68.9756	4,141.11	68.6148	4,141.11	66.3616	4,141.11	66.1479	4,141.11	63.4334	4,141.11	63.5289	4,141.11	60.1116	4,141.11	60.8255	4,141.11	57.5145	4,141.11	58.6705	4,141.11	56.1098	4,141.11	56.8957	4,141.11	53.6505	4,141.11	53.7735	4,141.11	53.2198	4,141.11	53.3645	4,141.11	54.7517	4,141.11	52.9179	4,141.11	53.3831	4,141.11	53.6333	4,141.11	42.9043	4,141.11	48.1893	4,141.11	42.8707
4,286.87	74.5738	4,286.87	73.9058	4,286.87	74.2199	4,286.87	72.7953	4,286.87	73.2711	4,286.87	72.1612	4,286.87	72.6683	4,286.87	72.0017	4,286.87	72.5885	4,286.87	71.5521	4,286.87	72.2719	4,286.87	70.4407	4,286.87	71.1392	4,286.87	68.7109	4,286.87	69.1862	4,286.87	66.6903	4,286.87	66.7348	4,286.87	64.3639	4,286.87	63.8218	4,286.87	61.5546	4,286.87	60.555	4,286.87	59.0336	4,286.87	57.9259	4,286.87	57.0485	4,286.87	56	4,286.87	54.6299	4,286.87	53.9335	4,286.87	53.5442	4,286.87	54.2138	4,286.87	54.0942	4,286.87	50.9416	4,286.87	53.2411	4,286.87	52.1907	4,286.87	41.2962	4,286.87	45.895	4,286.87	46.9507
4,438.48	75.0159	4,438.48	74.5744	4,438.48	74.49	4,438.48	73.654	4,438.48	73.5296	4,438.48	73.1043	4,438.48	72.9005	4,438.48	72.9935	4,438.48	72.782	4,438.48	72.5776	4,438.48	72.5218	4,438.48	71.3399	4,438.48	71.4443	4,438.48	69.1782	4,438.48	69.4089	4,438.48	66.3641	4,438.48	66.8865	4,438.48	63.0895	4,438.48	64.2136	4,438.48	59.5855	4,438.48	61.451	4,438.48	57.0394	4,438.48	58.869	4,438.48	55.7839	4,438.48	56.6886	4,438.48	53.8274	4,438.48	54.1021	4,438.48	52.6397	4,438.48	54.8868	4,438.48	52.8625	4,438.48	52.3743	4,438.48	52.155	4,438.48	51.8381	4,438.48	41.165	4,438.48	46.1982	4,438.48	46.8652
4,594.48	75.3559	4,594.48	74.8998	4,594.48	74.9404	4,594.48	73.9501	4,594.48	74.1342	4,594.48	73.1178	4,594.48	73.4841	4,594.48	72.7071	4,594.48	73.1778	4,594.48	72.2512	4,594.48	72.7837	4,594.48	71.1758	4,594.48	71.6865	4,594.48	69.3473	4,594.48	69.6761	4,594.48	67.2774	4,594.48	67.2101	4,594.48	64.9214	4,594.48	64.5678	4,594.48	61.9539	4,594.48	61.6891	4,594.48	59.5043	4,594.48	58.9239	4,594.48	57.93	4,594.48	56.7455	4,594.48	54.8783	4,594.48	53.524	4,594.48	53.2289	4,594.48	54.4311	4,594.48	51.6491	4,594.48	50.4421	4,594.48	51.643	4,594.48	51.3263	4,594.48	43.4434	4,594.48	47.0053	4,594.48	50.1492
4,757.08	75.3645	4,757.08	75.114	4,757.08	75.169	4,757.08	74.5371	4,757.08	74.7454	4,757.08	73.8746	4,757.08	74.1218	4,757.08	73.385	4,757.08	73.5708	4,757.08	72.8061	4,757.08	73.0939	4,757.08	71.6524	4,757.08	72.0709	4,757.08	69.6791	4,757.08	70.1482	4,757.08	67.1968	4,757.08	67.7154	4,757.08	64.2285	4,757.08	64.9083	4,757.08	60.7733	4,757.08	61.9955	4,757.08	58.1193	4,757.08	59.4259	4,757.08	56.7313	4,757.08	57.475	4,757.08	53.79	4,757.08	54.297	4,757.08	52.756	4,757.08	54.7547	4,757.08	50.3845	4,757.08	51.3216	4,757.08	50.5417	4,757.08	49.2966	4,757.08	45.1364	4,757.08	47.3147	4,757.08	51.0193
4,924.8	75.6041	4,924.8	75.4744	4,924.8	75.4084	4,924.8	74.9645	4,924.8	74.9621	4,924.8	74.0878	4,924.8	74.1977	4,924.8	73.2689	4,924.8	73.516	4,924.8	72.5899	4,924.8	73.0464	4,924.8	71.5646	4,924.8	72.0796	4,924.8	69.7558	4,924.8	70.219	4,924.8	67.4719	4,924.8	67.8387	4,924.8	64.9249	4,924.8	65.0181	4,924.8	62.0859	4,924.8	62.1119	4,924.8	59.5818	4,924.8	59.4319	4,924.8	58.2814	4,924.8	57.6559	4,924.8	55.4219	4,924.8	54.9176	4,924.8	52.8943	4,924.8	54.3809	4,924.8	50.3745	4,924.8	50.0988	4,924.8	50.4401	4,924.8	49.0727	4,924.8	46.0904	4,924.8	48.374	4,924.8	51.5489
5,098.39	75.6313	5,098.39	75.4441	5,098.39	75.5913	5,098.39	74.7901	5,098.39	75.3308	5,098.39	73.6823	5,098.39	74.5903	5,098.39	72.8671	5,098.39	73.7941	5,098.39	72.5038	5,098.39	73.2943	5,098.39	71.7849	5,098.39	72.4322	5,098.39	70.0618	5,098.39	70.6992	5,098.39	67.7164	5,098.39	68.3436	5,098.39	65.0332	5,098.39	65.4437	5,098.39	62.01	5,098.39	62.5175	5,098.39	59.0636	5,098.39	59.6187	5,098.39	57.4193	5,098.39	57.3758	5,098.39	54.3736	5,098.39	54.5054	5,098.39	51.2247	5,098.39	53.9121	5,098.39	48.1279	5,098.39	48.9349	5,098.39	49.38	5,098.39	49.5637	5,098.39	48.5026	5,098.39	50.0931	5,098.39	52.5111
5,277.83	75.7793	5,277.83	75.8463	5,277.83	75.454	5,277.83	75.3777	5,277.83	75.0094	5,277.83	74.3336	5,277.83	74.1769	5,277.83	73.3885	5,277.83	73.3904	5,277.83	72.8561	5,277.83	73.0186	5,277.83	71.8139	5,277.83	72.2438	5,277.83	69.7219	5,277.83	70.4248	5,277.83	67.1605	5,277.83	67.9671	5,277.83	64.2067	5,277.83	65.1113	5,277.83	61.0833	5,277.83	62.442	5,277.83	58.7629	5,277.83	59.8037	5,277.83	57.7234	5,277.83	57.6763	5,277.83	55.2036	5,277.83	54.9286	5,277.83	52.7382	5,277.83	54.1186	5,277.83	49.0814	5,277.83	48.2849	5,277.83	52.2771	5,277.83	48.7519	5,277.83	47.8996	5,277.83	50.2174	5,277.83	52.731
5,463.87	75.2121	5,463.87	75.21	5,463.87	75.2394	5,463.87	74.6945	5,463.87	74.9993	5,463.87	73.2849	5,463.87	73.9895	5,463.87	72.0196	5,463.87	72.9749	5,463.87	71.7026	5,463.87	72.6266	5,463.87	71.2062	5,463.87	71.8593	5,463.87	69.5916	5,463.87	70.0715	5,463.87	67.3839	5,463.87	67.6435	5,463.87	64.8397	5,463.87	64.5221	5,463.87	62.0483	5,463.87	61.6689	5,463.87	59.1329	5,463.87	59.0555	5,463.87	57.4128	5,463.87	56.9671	5,463.87	54.474	5,463.87	54.1169	5,463.87	49.1759	5,463.87	52.6329	5,463.87	45.3578	5,463.87	46.1648	5,463.87	50.3534	5,463.87	49.863	5,463.87	49.8323	5,463.87	50.8798	5,463.87	52.25
5,656.49	74.6383	5,656.49	74.7729	5,656.49	74.7169	5,656.49	74.4399	5,656.49	74.5152	5,656.49	73.1892	5,656.49	73.3929	5,656.49	72.0368	5,656.49	72.2856	5,656.49	71.7113	5,656.49	71.9883	5,656.49	70.8548	5,656.49	71.2065	5,656.49	68.6397	5,656.49	69.4099	5,656.49	65.7531	5,656.49	66.9292	5,656.49	62.5229	5,656.49	63.5849	5,656.49	59.5848	5,656.49	60.9046	5,656.49	56.5764	5,656.49	58.5734	5,656.49	55.4392	5,656.49	56.5784	5,656.49	54.1741	5,656.49	54.6126	5,656.49	50.4743	5,656.49	52.74	5,656.49	46.9742	5,656.49	46.5866	5,656.49	51.4658	5,656.49	49.035	5,656.49	49.1423	5,656.49	50.6218	5,656.49	51.594
5,856.45	74.7315	5,856.45	74.8024	5,856.45	74.6072	5,856.45	74.2367	5,856.45	74.1649	5,856.45	72.8282	5,856.45	72.9905	5,856.45	71.6166	5,856.45	71.933	5,856.45	71.1218	5,856.45	71.5221	5,856.45	69.9542	5,856.45	70.5133	5,856.45	67.65	5,856.45	68.584	5,856.45	64.9647	5,856.45	65.883	5,856.45	62.1241	5,856.45	62.1503	5,856.45	59.9642	5,856.45	59.5412	5,856.45	57.837	5,856.45	57.5573	5,856.45	55.9953	5,856.45	54.9195	5,856.45	53.8581	5,856.45	52.9185	5,856.45	48.2328	5,856.45	51.003	5,856.45	43.0927	5,856.45	44.4864	5,856.45	50.2897	5,856.45	48.4489	5,856.45	48.9487	5,856.45	51.3512	5,856.45	51.3252
6,062.99	75.3225	6,062.99	75.3923	6,062.99	75.0861	6,062.99	74.722	6,062.99	74.4626	6,062.99	73.0861	6,062.99	73.0648	6,062.99	71.584	6,062.99	71.844	6,062.99	70.8969	6,062.99	71.3179	6,062.99	69.7227	6,062.99	70.1299	6,062.99	67.5806	6,062.99	68.1935	6,062.99	64.8064	6,062.99	65.3983	6,062.99	61.5858	6,062.99	61.1025	6,062.99	59.5405	6,062.99	58.4833	6,062.99	57.1543	6,062.99	57.1071	6,062.99	54.1781	6,062.99	54.5559	6,062.99	52.0607	6,062.99	52.4974	6,062.99	45.5824	6,062.99	49.9671	6,062.99	44.1093	6,062.99	42.4374	6,062.99	49.1391	6,062.99	48.7786	6,062.99	48.4152	6,062.99	50.6149	6,062.99	50.345
6,276.86	75.7627	6,276.86	75.669	6,276.86	75.8405	6,276.86	74.944	6,276.86	75.3652	6,276.86	73.1848	6,276.86	73.9398	6,276.86	71.6293	6,276.86	72.6668	6,276.86	71.0913	6,276.86	72.0012	6,276.86	70.0451	6,276.86	70.7353	6,276.86	68.0705	6,276.86	69.0499	6,276.86	65.2984	6,276.86	66.2474	6,276.86	61.4279	6,276.86	61.6734	6,276.86	59.035	6,276.86	59.0589	6,276.86	56.9313	6,276.86	57.7415	6,276.86	53.4829	6,276.86	54.072	6,276.86	52.791	6,276.86	51.7377	6,276.86	44.2434	6,276.86	48.1014	6,276.86	44.8224	6,276.86	44.2814	6,276.86	48.3299	6,276.86	47.2276	6,276.86	48.3598	6,276.86	50.1597	6,276.86	49.0402
6,498.05	76.5488	6,498.05	76.3585	6,498.05	76.305	6,498.05	75.467	6,498.05	75.4881	6,498.05	74.003	6,498.05	74.1226	6,498.05	72.834	6,498.05	73.0386	6,498.05	71.9488	6,498.05	72.2047	6,498.05	70.4303	6,498.05	70.8072	6,498.05	68.5269	6,498.05	69.2598	6,498.05	65.7613	6,498.05	66.6291	6,498.05	61.6446	6,498.05	62.5047	6,498.05	59.0098	6,498.05	59.6585	6,498.05	57.4154	6,498.05	58.047	6,498.05	53.0993	6,498.05	53.9145	6,498.05	51.9677	6,498.05	51.6498	6,498.05	44.0162	6,498.05	48.3514	6,498.05	45.2529	6,498.05	43.3343	6,498.05	47.7904	6,498.05	44.191	6,498.05	46.1551	6,498.05	49.6653	6,498.05	49.5241
6,727.29	77.305	6,727.29	77.0351	6,727.29	76.9722	6,727.29	76.0293	6,727.29	76.1568	6,727.29	74.4076	6,727.29	74.9192	6,727.29	72.8027	6,727.29	73.8032	6,727.29	71.6634	6,727.29	72.8917	6,727.29	70.434	6,727.29	71.6837	6,727.29	68.7724	6,727.29	70.3328	6,727.29	66.2582	6,727.29	67.6856	6,727.29	62.75	6,727.29	63.5748	6,727.29	60.0986	6,727.29	60.6075	6,727.29	57.9427	6,727.29	58.8647	6,727.29	53.5491	6,727.29	55.323	6,727.29	51.199	6,727.29	51.1115	6,727.29	44.7383	6,727.29	47.1155	6,727.29	42.6619	6,727.29	41.5998	6,727.29	48.0563	6,727.29	44.6739	6,727.29	45.3622	6,727.29	48.7179	6,727.29	49.8527
6,964.6	77.1567	6,964.6	76.9755	6,964.6	77.0647	6,964.6	76.1346	6,964.6	76.4473	6,964.6	74.4646	6,964.6	75.1202	6,964.6	72.8906	6,964.6	73.8747	6,964.6	72.012	6,964.6	72.9793	6,964.6	70.9284	6,964.6	71.906	6,964.6	69.4361	6,964.6	70.7498	6,964.6	66.8897	6,964.6	68.086	6,964.6	62.7551	6,964.6	63.9512	6,964.6	59.412	6,964.6	60.8015	6,964.6	57.7556	6,964.6	58.9598	6,964.6	51.8322	6,964.6	54.5348	6,964.6	49.5334	6,964.6	51.416	6,964.6	40.7956	6,964.6	44.7407	6,964.6	45.2923	6,964.6	42.3524	6,964.6	47.172	6,964.6	43.2272	6,964.6	44.8408	6,964.6	47.6767	6,964.6	46.2972
7,209.96	77.5782	7,209.96	77.1072	7,209.96	77.2067	7,209.96	75.8397	7,209.96	76.167	7,209.96	74.2304	7,209.96	74.8661	7,209.96	72.9061	7,209.96	73.7941	7,209.96	71.8213	7,209.96	72.7913	7,209.96	70.6057	7,209.96	71.7654	7,209.96	69.0936	7,209.96	70.7021	7,209.96	66.5348	7,209.96	68.2256	7,209.96	62.917	7,209.96	64.7439	7,209.96	59.3465	7,209.96	61.5274	7,209.96	57.6477	7,209.96	59.3909	7,209.96	52.692	7,209.96	55.5406	7,209.96	48.4977	7,209.96	51.0677	7,209.96	45.1971	7,209.96	48.4327	7,209.96	41.9006	7,209.96	43.0939	7,209.96	45.049	7,209.96	28.2803	7,209.96	40.0455	7,209.96	47.445	7,209.96	48.8695
7,464.11	76.7118	7,464.11	76.2874	7,464.11	76.4239	7,464.11	75.1976	7,464.11	75.618	7,464.11	73.6856	7,464.11	74.3484	7,464.11	72.2354	7,464.11	73.0891	7,464.11	71.3755	7,464.11	72.237	7,464.11	70.4244	7,464.11	71.3475	7,464.11	68.6657	7,464.11	70.1343	7,464.11	66.2362	7,464.11	67.6835	7,464.11	62.9076	7,464.11	64.2432	7,464.11	59.2182	7,464.11	61.1815	7,464.11	56.6619	7,464.11	58.6153	7,464.11	52.9761	7,464.11	55.4874	7,464.11	48.4938	7,464.11	50.7371	7,464.11	43.2505	7,464.11	47.6284	7,464.11	37.5669	7,464.11	43.8484	7,464.11	46.287	7,464.11	35.9379	7,464.11	40.627	7,464.11	44.2076	7,464.11	47.1917
7,727.78	75.6966	7,727.78	75.2202	7,727.78	75.4781	7,727.78	74.1219	7,727.78	74.5045	7,727.78	72.6369	7,727.78	72.9582	7,727.78	71.3817	7,727.78	71.7092	7,727.78	70.5981	7,727.78	70.9001	7,727.78	69.4055	7,727.78	69.8775	7,727.78	67.6808	7,727.78	68.6815	7,727.78	65.4918	7,727.78	66.1099	7,727.78	62.2179	7,727.78	62.696	7,727.78	58.7504	7,727.78	60.0095	7,727.78	56.6072	7,727.78	57.4548	7,727.78	51.9413	7,727.78	53.5694	7,727.78	48.5697	7,727.78	50.3395	7,727.78	41.9821	7,727.78	45.3787	7,727.78	39.5583	7,727.78	44.3306	7,727.78	43.7823	7,727.78	28.2293	7,727.78	39.7197	7,727.78	40.2679	7,727.78	44.6886
8,000.24	75.0998	8,000.24	74.6079	8,000.24	74.7518	8,000.24	73.4482	8,000.24	73.6901	8,000.24	71.8224	8,000.24	72.0188	8,000.24	70.2647	8,000.24	70.3939	8,000.24	69.3318	8,000.24	69.3052	8,000.24	68.0261	8,000.24	68.1484	8,000.24	66.2331	8,000.24	66.7927	8,000.24	64.4606	8,000.24	64.2785	8,000.24	61.4536	8,000.24	60.8905	8,000.24	58.0217	8,000.24	58.2682	8,000.24	55.5941	8,000.24	56.0342	8,000.24	51.1525	8,000.24	52.4686	8,000.24	47.842	8,000.24	49.0267	8,000.24	43.1057	8,000.24	44.5362	8,000.24	37.6552	8,000.24	43.1129	8,000.24	45.6659	8,000.24	28.3971	8,000.24	39.7792	8,000.24	37.432	8,000.24	44.8775
8,282.23	75.8318	8,282.23	75.3391	8,282.23	75.6823	8,282.23	74.1735	8,282.23	74.6311	8,282.23	72.3344	8,282.23	72.6477	8,282.23	70.6159	8,282.23	70.8441	8,282.23	69.438	8,282.23	69.5024	8,282.23	67.7984	8,282.23	67.9027	8,282.23	66.4063	8,282.23	66.6589	8,282.23	64.7198	8,282.23	63.8501	8,282.23	61.0053	8,282.23	59.9096	8,282.23	56.9617	8,282.23	56.6247	8,282.23	55.0246	8,282.23	54.3551	8,282.23	49.2379	8,282.23	49.0733	8,282.23	47.1063	8,282.23	47.9884	8,282.23	38.5504	8,282.23	36.7774	8,282.23	37.1202	8,282.23	41.9234	8,282.23	42.7213	8,282.23	36.2019	8,282.23	42.4093	8,282.23	37.7011	8,282.23	41.8322
8,574.46	77.3303	8,574.46	76.8103	8,574.46	76.8843	8,574.46	75.5951	8,574.46	75.6254	8,574.46	73.9398	8,574.46	73.8346	8,574.46	72.0882	8,574.46	72.0162	8,574.46	70.4896	8,574.46	70.3409	8,574.46	68.9064	8,574.46	68.8486	8,574.46	67.4952	8,574.46	67.6323	8,574.46	65.5996	8,574.46	64.9656	8,574.46	61.7712	8,574.46	61.6747	8,574.46	56.6169	8,574.46	57.8191	8,574.46	54.6104	8,574.46	54.8607	8,574.46	49.7456	8,574.46	49.411	8,574.46	46.5511	8,574.46	47.5447	8,574.46	44.4539	8,574.46	41.8859	8,574.46	33.9126	8,574.46	43.9032	8,574.46	34.7714	8,574.46	39.9043	8,574.46	41.1677	8,574.46	39.4305	8,574.46	43.7722
8,876.22	77.2775	8,876.22	76.922	8,876.22	77.0382	8,876.22	76.019	8,876.22	76.0337	8,876.22	74.398	8,876.22	74.1015	8,876.22	72.475	8,876.22	72.1533	8,876.22	70.9858	8,876.22	70.655	8,876.22	69.301	8,876.22	69.2651	8,876.22	68.1931	8,876.22	68.5455	8,876.22	66.6244	8,876.22	66.1033	8,876.22	62.8123	8,876.22	62.8693	8,876.22	58.0494	8,876.22	59.0442	8,876.22	56.0905	8,876.22	55.8574	8,876.22	50.2598	8,876.22	49.2759	8,876.22	48.6804	8,876.22	48.0513	8,876.22	44.8823	8,876.22	39.0816	8,876.22	23.7281	8,876.22	44.3209	8,876.22	31.4974	8,876.22	42.5237	8,876.22	37.6229	8,876.22	40.914	8,876.22	41.5699
9,189.7	77.1544	9,189.7	76.737	9,189.7	76.6649	9,189.7	75.7518	9,189.7	75.3382	9,189.7	74.2703	9,189.7	73.5395	9,189.7	72.358	9,189.7	71.7573	9,189.7	70.7489	9,189.7	70.1395	9,189.7	69.5027	9,189.7	69.1985	9,189.7	68.6802	9,189.7	68.5273	9,189.7	67.2292	9,189.7	66.3008	9,189.7	63.9692	9,189.7	63.8013	9,189.7	59.0833	9,189.7	59.9942	9,189.7	56.2646	9,189.7	56.3625	9,189.7	51.9453	9,189.7	51.5723	9,189.7	47.044	9,189.7	47.3188	9,189.7	48.1347	9,189.7	44.7084	9,189.7	28.2734	9,189.7	42.07	9,189.7	40.0222	9,189.7	44.4703	9,189.7	34.2638	9,189.7	40.4052	9,189.7	33.0867
9,513.43	77.3469	9,513.43	77.0155	9,513.43	77.0519	9,513.43	76.2146	9,513.43	75.9013	9,513.43	74.5252	9,513.43	73.7887	9,513.43	72.3532	9,513.43	71.7084	9,513.43	71.2658	9,513.43	70.432	9,513.43	70.2288	9,513.43	69.6366	9,513.43	69.4828	9,513.43	69.2494	9,513.43	68.2918	9,513.43	67.2377	9,513.43	65.144	9,513.43	64.7106	9,513.43	60.7195	9,513.43	60.9527	9,513.43	57.9138	9,513.43	57.5999	9,513.43	52.9267	9,513.43	51.9127	9,513.43	49.7108	9,513.43	49.0394	9,513.43	48.0081	9,513.43	42.7275	9,513.43	34.8591	9,513.43	43.0112	9,513.43	38.2516	9,513.43	42.8392	9,513.43	28.9535	9,513.43	43.778	9,513.43	37.8211
9,848.88	77.2079	9,848.88	76.719	9,848.88	76.7208	9,848.88	75.466	9,848.88	75.2972	9,848.88	73.3494	9,848.88	73.1406	9,848.88	71.0684	9,848.88	70.9841	9,848.88	70.1078	9,848.88	69.5298	9,848.88	69.1331	9,848.88	68.7147	9,848.88	68.4637	9,848.88	68.2662	9,848.88	67.1937	9,848.88	66.2879	9,848.88	63.8283	9,848.88	63.6335	9,848.88	59.1212	9,848.88	59.6511	9,848.88	56.4448	9,848.88	56.4603	9,848.88	51.8941	9,848.88	51.8621	9,848.88	47.9387	9,848.88	48.1623	9,848.88	48.0013	9,848.88	45.2107	9,848.88	30.8037	9,848.88	36.204	9,848.88	41.3417	9,848.88	40.4138	9,848.88	29.0604	9,848.88	41.0075	9,848.88	26.0768
10,196.8	77.4756	10,196.8	77.1066	10,196.8	77.1281	10,196.8	75.9294	10,196.8	75.8108	10,196.8	73.4182	10,196.8	73.4611	10,196.8	70.9494	10,196.8	71.2417	10,196.8	70.1146	10,196.8	69.6057	10,196.8	68.5716	10,196.8	68.5385	10,196.8	67.7684	10,196.8	68.1925	10,196.8	66.2097	10,196.8	65.9505	10,196.8	62.3979	10,196.8	63.3548	10,196.8	57.4349	10,196.8	58.7538	10,196.8	55.419	10,196.8	55.449	10,196.8	49.9444	10,196.8	51.0202	10,196.8	46.6671	10,196.8	47.8735	10,196.8	44.8444	10,196.8	45.5746	10,196.8	33.9572	10,196.8	36.7278	10,196.8	36.0805	10,196.8	35.0245	10,196.8	34.3256	10,196.8	41.8184	10,196.8	37.8466
10,556.4	78.0271	10,556.4	77.6648	10,556.4	77.5423	10,556.4	76.3161	10,556.4	76.1817	10,556.4	73.7427	10,556.4	74.0313	10,556.4	71.5974	10,556.4	71.9016	10,556.4	70.6685	10,556.4	70.0468	10,556.4	68.9309	10,556.4	68.9651	10,556.4	68.0184	10,556.4	68.4926	10,556.4	66.1385	10,556.4	66.1313	10,556.4	62.3543	10,556.4	64.0825	10,556.4	56.7165	10,556.4	59.8291	10,556.4	53.6675	10,556.4	54.3533	10,556.4	48.7406	10,556.4	51.752	10,556.4	43.3832	10,556.4	46.1196	10,556.4	44.2166	10,556.4	47.0211	10,556.4	37.0658	10,556.4	34.9936	10,556.4	35.5995	10,556.4	39.6637	10,556.4	32.2772	10,556.4	40.7898	10,556.4	36.9982
10,928.5	78.1472	10,928.5	77.8489	10,928.5	77.6974	10,928.5	76.3732	10,928.5	76.3881	10,928.5	73.6054	10,928.5	74.3455	10,928.5	72.2102	10,928.5	72.3573	10,928.5	71.3431	10,928.5	70.4862	10,928.5	69.1253	10,928.5	69.6437	10,928.5	68.3143	10,928.5	68.9205	10,928.5	66.5382	10,928.5	66.6562	10,928.5	63.5094	10,928.5	65.3787	10,928.5	57.9032	10,928.5	61.3464	10,928.5	53.0551	10,928.5	53.6912	10,928.5	49.8242	10,928.5	52.4582	10,928.5	39.4253	10,928.5	44.4965	10,928.5	47.7015	10,928.5	49.3205	10,928.5	42.8419	10,928.5	24.5697	10,928.5	39.4048	10,928.5	44.0001	10,928.5	35.4028	10,928.5	41.4165	10,928.5	41.3013
11,313.7	78.2523	11,313.7	77.8163	11,313.7	77.4613	11,313.7	75.8434	11,313.7	75.9323	11,313.7	73.3633	11,313.7	74.1692	11,313.7	72.5957	11,313.7	72.3376	11,313.7	71.1387	11,313.7	70.757	11,313.7	69.1366	11,313.7	70.196	11,313.7	68.8933	11,313.7	69.3933	11,313.7	67.6822	11,313.7	67.2435	11,313.7	65.0435	11,313.7	66.0847	11,313.7	59.561	11,313.7	62.7843	11,313.7	53.9955	11,313.7	54.1619	11,313.7	50.9805	11,313.7	52.8292	11,313.7	44.6573	11,313.7	39.9435	11,313.7	50.2168	11,313.7	49.908	11,313.7	46.2225	11,313.7	39.637	11,313.7	41.5671	11,313.7	45.4322	11,313.7	39.6628	11,313.7	40.1958	11,313.7	39.0192
11,712.9	77.1984	11,712.9	76.7831	11,712.9	76.2855	11,712.9	74.6943	11,712.9	74.8681	11,712.9	72.7652	11,712.9	73.274	11,712.9	72.1274	11,712.9	71.6267	11,712.9	70.09	11,712.9	70.7597	11,712.9	69.1816	11,712.9	70.5301	11,712.9	69.6457	11,712.9	69.5158	11,712.9	68.6287	11,712.9	67.2904	11,712.9	65.7846	11,712.9	65.9443	11,712.9	59.8983	11,712.9	62.9368	11,712.9	54.6747	11,712.9	54.7302	11,712.9	52.1267	11,712.9	51.5045	11,712.9	45.5864	11,712.9	41.8425	11,712.9	51.4624	11,712.9	48.5523	11,712.9	46.5589	11,712.9	44.9403	11,712.9	43.9775	11,712.9	45.2649	11,712.9	43.3218	11,712.9	43.0729	11,712.9	42.5397
12,126	76.5899	12,126	75.8616	12,126	75.5516	12,126	73.6603	12,126	73.97	12,126	72.3652	12,126	72.4373	12,126	70.7918	12,126	71.0747	12,126	68.9395	12,126	70.7236	12,126	69.6284	12,126	70.4771	12,126	69.4511	12,126	69.2529	12,126	68.3582	12,126	66.3237	12,126	64.8797	12,126	64.041	12,126	58.6436	12,126	61.3372	12,126	54.3985	12,126	55.2978	12,126	51.9857	12,126	48.9077	12,126	46.9339	12,126	46.698	12,126	51.3837	12,126	46.3102	12,126	46.6208	12,126	48.0675	12,126	43.2121	12,126	45.4514	12,126	44.4755	12,126	43.1405	12,126	38.4439
12,553.7	76.6597	12,553.7	75.7935	12,553.7	75.7981	12,553.7	73.9098	12,553.7	74.2635	12,553.7	72.4373	12,553.7	72.5414	12,553.7	70.0897	12,553.7	71.3025	12,553.7	69.7517	12,553.7	71.1637	12,553.7	69.9317	12,553.7	70.6577	12,553.7	68.9254	12,553.7	69.0961	12,553.7	67.5763	12,553.7	65.9527	12,553.7	63.1071	12,553.7	63.3076	12,553.7	56.9137	12,553.7	59.2511	12,553.7	53.7618	12,553.7	54.8693	12,553.7	52.2234	12,553.7	43.166	12,553.7	46.8081	12,553.7	47.4142	12,553.7	50.1682	12,553.7	41.5705	12,553.7	44.7306	12,553.7	49.1671	12,553.7	37.0683	12,553.7	42.4353	12,553.7	41.757	12,553.7	44.7183	12,553.7	32.8027
12,996.1	76.8487	12,996.1	76.0296	12,996.1	76.3163	12,996.1	74.5296	12,996.1	74.9744	12,996.1	72.6298	12,996.1	73.178	12,996.1	70.697	12,996.1	72.0842	12,996.1	71.2248	12,996.1	71.8601	12,996.1	70.1071	12,996.1	71.0887	12,996.1	68.861	12,996.1	69.4926	12,996.1	67.3592	12,996.1	66.6637	12,996.1	62.702	12,996.1	64.0743	12,996.1	57.7732	12,996.1	58.3273	12,996.1	53.8813	12,996.1	54.1327	12,996.1	52.22	12,996.1	41.6349	12,996.1	46.677	12,996.1	46.8258	12,996.1	49.9463	12,996.1	28.182	12,996.1	45.0564	12,996.1	48.3726	12,996.1	37.012	12,996.1	38.9868	12,996.1	28.0984	12,996.1	46.4011	12,996.1	42.2683
13,454.6	76.9255	13,454.6	76.1805	13,454.6	76.3712	13,454.6	74.7538	13,454.6	75.0564	13,454.6	72.9084	13,454.6	73.4696	13,454.6	71.7414	13,454.6	72.7065	13,454.6	71.8518	13,454.6	72.3999	13,454.6	69.8904	13,454.6	71.3351	13,454.6	68.8844	13,454.6	69.8955	13,454.6	67.1671	13,454.6	67.3195	13,454.6	62.7909	13,454.6	64.7779	13,454.6	58.2877	13,454.6	58.901	13,454.6	54.4687	13,454.6	53.6193	13,454.6	51.8308	13,454.6	45.1646	13,454.6	48.1621	13,454.6	45.4198	13,454.6	49.3667	13,454.6	25.3333	13,454.6	45.7066	13,454.6	47.868	13,454.6	39.1506	13,454.6	37.4602	13,454.6	33.0109	13,454.6	47.4712	13,454.6	46.2853
13,928.5	76.3725	13,928.5	75.8595	13,928.5	75.9933	13,928.5	74.5281	13,928.5	74.838	13,928.5	72.6314	13,928.5	73.4296	13,928.5	72.2503	13,928.5	72.8779	13,928.5	71.7942	13,928.5	72.336	13,928.5	69.5852	13,928.5	71.1355	13,928.5	68.9951	13,928.5	69.494	13,928.5	66.7847	13,928.5	66.8086	13,928.5	62.5508	13,928.5	64.4193	13,928.5	57.3859	13,928.5	58.9779	13,928.5	52.7946	13,928.5	52.5475	13,928.5	50.1077	13,928.5	47.273	13,928.5	47.1176	13,928.5	43.0633	13,928.5	49.5355	13,928.5	37.9518	13,928.5	44.2387	13,928.5	46.889	13,928.5	44.8851	13,928.5	39.0395	13,928.5	35.8191	13,928.5	46.5851	13,928.5	46.3736
14,419.9	76.1876	14,419.9	75.6372	14,419.9	75.7749	14,419.9	74.1925	14,419.9	74.553	14,419.9	72.6034	14,419.9	73.4001	14,419.9	72.3581	14,419.9	72.9449	14,419.9	71.3865	14,419.9	72.0547	14,419.9	69.3339	14,419.9	70.5759	14,419.9	68.4411	14,419.9	68.6977	14,419.9	66.1137	14,419.9	65.7929	14,419.9	62.2305	14,419.9	63.293	14,419.9	56.2706	14,419.9	58.0134	14,419.9	50.4609	14,419.9	51.2452	14,419.9	49.6484	14,419.9	46.7369	14,419.9	43.7115	14,419.9	40.7856	14,419.9	49.1505	14,419.9	39.0972	14,419.9	42.6989	14,419.9	46.9179	14,419.9	46.0519	14,419.9	42.6445	14,419.9	36.5031	14,419.9	44.9517	14,419.9	44.9842
14,928.2	77.1096	14,928.2	76.4748	14,928.2	76.6468	14,928.2	74.9329	14,928.2	75.3956	14,928.2	73.5039	14,928.2	74.2663	14,928.2	72.8527	14,928.2	73.6038	14,928.2	71.4049	14,928.2	72.4641	14,928.2	69.3209	14,928.2	70.724	14,928.2	67.9326	14,928.2	68.4452	14,928.2	65.7259	14,928.2	65.4046	14,928.2	61.6695	14,928.2	63.0306	14,928.2	55.8835	14,928.2	57.6415	14,928.2	48.8101	14,928.2	50.6032	14,928.2	51.1498	14,928.2	45.2175	14,928.2	41.9519	14,928.2	40.9996	14,928.2	50.9978	14,928.2	41.045	14,928.2	46.3631	14,928.2	48.0398	14,928.2	49.1619	14,928.2	46.5364	14,928.2	43.2425	14,928.2	47.2112	14,928.2	46.1209
15,454.8	78.3097	15,454.8	77.6804	15,454.8	77.6374	15,454.8	76.0661	15,454.8	76.2295	15,454.8	74.779	15,454.8	75.1236	15,454.8	73.8609	15,454.8	74.2559	15,454.8	71.9456	15,454.8	73.1333	15,454.8	69.5267	15,454.8	71.0413	15,454.8	67.5136	15,454.8	68.6969	15,454.8	65.3199	15,454.8	65.6549	15,454.8	60.8465	15,454.8	63.2027	15,454.8	55.8627	15,454.8	57.9993	15,454.8	49.3826	15,454.8	50.7994	15,454.8	51.2438	15,454.8	44.3905	15,454.8	46.7479	15,454.8	40.8892	15,454.8	52.6892	15,454.8	45.2523	15,454.8	49.613	15,454.8	48.8114	15,454.8	50.9027	15,454.8	48.6175	15,454.8	47.9645	15,454.8	49.1203	15,454.8	46.4313
15,999.8	78.6925	15,999.8	78.2882	15,999.8	77.8157	15,999.8	76.9003	15,999.8	76.2295	15,999.8	75.6238	15,999.8	75.3365	15,999.8	74.5679	15,999.8	74.5814	15,999.8	72.5709	15,999.8	73.2045	15,999.8	69.7713	15,999.8	70.7431	15,999.8	67.7963	15,999.8	68.3853	15,999.8	66.0471	15,999.8	65.5387	15,999.8	61.5132	15,999.8	63.4679	15,999.8	56.8028	15,999.8	58.3274	15,999.8	49.8201	15,999.8	50.2445	15,999.8	51.1406	15,999.8	42.7966	15,999.8	48.5146	15,999.8	39.9582	15,999.8	53.6828	15,999.8	48.2803	15,999.8	50.446	15,999.8	50.3066	15,999.8	51.8691	15,999.8	50.6038	15,999.8	49.5671	15,999.8	50.2589	15,999.8	47.0394
16,564.5	78.345	16,564.5	78.0841	16,564.5	77.2653	16,564.5	76.8472	16,564.5	75.6529	16,564.5	75.5856	16,564.5	75.064	16,564.5	74.3318	16,564.5	74.2793	16,564.5	72.2197	16,564.5	72.5107	16,564.5	69.3832	16,564.5	69.7913	16,564.5	68.1701	16,564.5	67.519	16,564.5	66.8277	16,564.5	64.5438	16,564.5	62.5927	16,564.5	63.4082	16,564.5	58.3825	16,564.5	58.0523	16,564.5	49.5577	16,564.5	48.0976	16,564.5	51.4456	16,564.5	40.2462	16,564.5	48.0143	16,564.5	37.5443	16,564.5	53.468	16,564.5	49.2589	16,564.5	50.3564	16,564.5	50.1238	16,564.5	51.0655	16,564.5	49.9559	16,564.5	48.7233	16,564.5	49.03	16,564.5	44.895
17,148.2	78.5128	17,148.2	78.2225	17,148.2	77.2697	17,148.2	76.8873	17,148.2	75.7448	17,148.2	75.4432	17,148.2	75.2498	17,148.2	73.8773	17,148.2	74.0209	17,148.2	71.5439	17,148.2	71.6185	17,148.2	68.9566	17,148.2	68.6642	17,148.2	68.2344	17,148.2	66.2291	17,148.2	66.8884	17,148.2	63.2163	17,148.2	62.9667	17,148.2	62.718	17,148.2	58.9587	17,148.2	57.2967	17,148.2	49.3424	17,148.2	44.0447	17,148.2	52.3014	17,148.2	37.5896	17,148.2	46.8102	17,148.2	36.0452	17,148.2	53.5724	17,148.2	49.6467	17,148.2	51.5442	17,148.2	49.7862	17,148.2	51.0444	17,148.2	49.7473	17,148.2	49.7035	17,148.2	48.4244	17,148.2	45.5009
17,753.2	78.9741	17,753.2	78.6063	17,753.2	77.6406	17,753.2	77.1019	17,753.2	76.4144	17,753.2	75.4781	17,753.2	75.9316	17,753.2	73.7868	17,753.2	74.0528	17,753.2	71.2416	17,753.2	71.1277	17,753.2	69.0931	17,753.2	67.9033	17,753.2	67.9187	17,753.2	64.8458	17,753.2	66.6539	17,753.2	62.3405	17,753.2	62.4517	17,753.2	62.1833	17,753.2	58.445	17,753.2	56.3811	17,753.2	49.0686	17,753.2	40.9496	17,753.2	53.0055	17,753.2	35.7346	17,753.2	48.8341	17,753.2	36.8632	17,753.2	54.9685	17,753.2	52.0417	17,753.2	54.2153	17,753.2	49.3238	17,753.2	53.93	17,753.2	51.7505	17,753.2	53.1536	17,753.2	48.2486	17,753.2	47.7108
18,379.4	78.2837	18,379.4	77.8396	18,379.4	77.0766	18,379.4	76.4063	18,379.4	76.3578	18,379.4	75.1048	18,379.4	75.811	18,379.4	73.4907	18,379.4	73.4042	18,379.4	70.9563	18,379.4	70.3286	18,379.4	69.0559	18,379.4	66.7962	18,379.4	67.2669	18,379.4	63.9427	18,379.4	66.5682	18,379.4	62.9601	18,379.4	61.872	18,379.4	63.427	18,379.4	58.2759	18,379.4	57.914	18,379.4	48.1475	18,379.4	35.8977	18,379.4	51.939	18,379.4	44.3726	18,379.4	50.8724	18,379.4	40.9193	18,379.4	54.6243	18,379.4	54.5593	18,379.4	55.5336	18,379.4	50.0806	18,379.4	54.5795	18,379.4	51.7836	18,379.4	54.9404	18,379.4	46.1426	18,379.4	47.5161
19,027.6	76.2668	19,027.6	75.6407	19,027.6	75.5682	19,027.6	74.4621	19,027.6	75.2831	19,027.6	73.4194	19,027.6	74.6332	19,027.6	71.9695	19,027.6	71.675	19,027.6	69.6198	19,027.6	68.4961	19,027.6	67.7017	19,027.6	64.6538	19,027.6	66.0061	19,027.6	63.3263	19,027.6	66.1201	19,027.6	62.8467	19,027.6	61.5153	19,027.6	63.6646	19,027.6	59.3119	19,027.6	58.7855	19,027.6	48.0745	19,027.6	39.6321	19,027.6	51.7963	19,027.6	45.8632	19,027.6	51.7531	19,027.6	43.2969	19,027.6	53.3711	19,027.6	54.3765	19,027.6	55.4127	19,027.6	48.5681	19,027.6	53.8367	19,027.6	50.6034	19,027.6	54.8579	19,027.6	40.5366	19,027.6	45.7343
19,698.5	75.9137	19,698.5	74.8072	19,698.5	75.6118	19,698.5	73.775	19,698.5	75.4646	19,698.5	72.6001	19,698.5	74.2184	19,698.5	70.6443	19,698.5	70.8199	19,698.5	67.9233	19,698.5	67.3462	19,698.5	65.6802	19,698.5	63.9162	19,698.5	64.1571	19,698.5	63.2716	19,698.5	64.8305	19,698.5	62.7635	19,698.5	59.8903	19,698.5	63.6221	19,698.5	58.6495	19,698.5	58.7484	19,698.5	50.0465	19,698.5	41.4098	19,698.5	52.8386	19,698.5	44.7915	19,698.5	52.7749	19,698.5	41.3582	19,698.5	55.2074	19,698.5	53.509	19,698.5	55.5511	19,698.5	47.2248	19,698.5	56.7859	19,698.5	52.6135	19,698.5	55.7024	19,698.5	42.2433	19,698.5	49.1652
19,999.5	75.728	19,999.5	74.5514	19,999.5	75.8297	19,999.5	73.8799	19,999.5	75.6561	19,999.5	72.4793	19,999.5	74.1968	19,999.5	70.4627	19,999.5	70.6613	19,999.5	67.524	19,999.5	67.0731	19,999.5	65.2019	19,999.5	63.9796	19,999.5	63.9621	19,999.5	63.2164	19,999.5	64.4725	19,999.5	62.8085	19,999.5	58.239	19,999.5	63.9778	19,999.5	57.4413	19,999.5	58.5826	19,999.5	50.516	19,999.5	37.5287	19,999.5	52.204	19,999.5	44.4732	19,999.5	53.629	19,999.5	38.8983	19,999.5	55.5434	19,999.5	54.6807	19,999.5	55.9513	19,999.5	47.647	19,999.5	58.3069	19,999.5	54.5562	19,999.5	56.7434	19,999.5	39.7468	19,999.5	49.536
