"SPL Vertical"																																																																							
"On-Axis"		"10°"		"-10°"		"20°"		"-20°"		"30°"		"-30°"		"40°"		"-40°"		"50°"		"-50°"		"60°"		"-60°"		"70°"		"-70°"		"80°"		"-80°"		"90°"		"-90°"		"100°"		"-100°"		"110°"		"-110°"		"120°"		"-120°"		"130°"		"-130°"		"140°"		"-140°"		"150°"		"-150°"		"160°"		"-160°"		"170°"		"-170°"		"180°"	
"Frequency [Hz]"	"Sound Pessure Level [dB]  / [2.83V 1m] "	"Frequency [Hz]"	"Sound Pessure Level [dB]  / [2.83V 1m] "	"Frequency [Hz]"	"Sound Pessure Level [dB]  / [2.83V 1m] "	"Frequency [Hz]"	"Sound Pessure Level [dB]  / [2.83V 1m] "	"Frequency [Hz]"	"Sound Pessure Level [dB]  / [2.83V 1m] "	"Frequency [Hz]"	"Sound Pessure Level [dB]  / [2.83V 1m] "	"Frequency [Hz]"	"Sound Pessure Level [dB]  / [2.83V 1m] "	"Frequency [Hz]"	"Sound Pessure Level [dB]  / [2.83V 1m] "	"Frequency [Hz]"	"Sound Pessure Level [dB]  / [2.83V 1m] "	"Frequency [Hz]"	"Sound Pessure Level [dB]  / [2.83V 1m] "	"Frequency [Hz]"	"Sound Pessure Level [dB]  / [2.83V 1m] "	"Frequency [Hz]"	"Sound Pessure Level [dB]  / [2.83V 1m] "	"Frequency [Hz]"	"Sound Pessure Level [dB]  / [2.83V 1m] "	"Frequency [Hz]"	"Sound Pessure Level [dB]  / [2.83V 1m] "	"Frequency [Hz]"	"Sound Pessure Level [dB]  / [2.83V 1m] "	"Frequency [Hz]"	"Sound Pessure Level [dB]  / [2.83V 1m] "	"Frequency [Hz]"	"Sound Pessure Level [dB]  / [2.83V 1m] "	"Frequency [Hz]"	"Sound Pessure Level [dB]  / [2.83V 1m] "	"Frequency [Hz]"	"Sound Pessure Level [dB]  / [2.83V 1m] "	"Frequency [Hz]"	"Sound Pessure Level [dB]  / [2.83V 1m] "	"Frequency [Hz]"	"Sound Pessure Level [dB]  / [2.83V 1m] "	"Frequency [Hz]"	"Sound Pessure Level [dB]  / [2.83V 1m] "	"Frequency [Hz]"	"Sound Pessure Level [dB]  / [2.83V 1m] "	"Frequency [Hz]"	"Sound Pessure Level [dB]  / [2.83V 1m] "	"Frequency [Hz]"	"Sound Pessure Level [dB]  / [2.83V 1m] "	"Frequency [Hz]"	"Sound Pessure Level [dB]  / [2.83V 1m] "	"Frequency [Hz]"	"Sound Pessure Level [dB]  / [2.83V 1m] "	"Frequency [Hz]"	"Sound Pessure Level [dB]  / [2.83V 1m] "	"Frequency [Hz]"	"Sound Pessure Level [dB]  / [2.83V 1m] "	"Frequency [Hz]"	"Sound Pessure Level [dB]  / [2.83V 1m] "	"Frequency [Hz]"	"Sound Pessure Level [dB]  / [2.83V 1m] "	"Frequency [Hz]"	"Sound Pessure Level [dB]  / [2.83V 1m] "	"Frequency [Hz]"	"Sound Pessure Level [dB]  / [2.83V 1m] "	"Frequency [Hz]"	"Sound Pessure Level [dB]  / [2.83V 1m] "	"Frequency [Hz]"	"Sound Pessure Level [dB]  / [2.83V 1m] "	"Frequency [Hz]"	"Sound Pessure Level [dB]  / [2.83V 1m] "
20.5078	55.8313	20.5078	55.6364	20.5078	56.0268	20.5078	55.4471	20.5078	56.2174	20.5078	55.2676	20.5078	56.397	20.5078	55.1019	20.5078	56.5593	20.5078	54.953	20.5078	56.6977	20.5078	54.8239	20.5078	56.8061	20.5078	54.7167	20.5078	56.8788	20.5078	54.6336	20.5078	56.9111	20.5078	54.5762	20.5078	56.9001	20.5078	54.5458	20.5078	56.8445	20.5078	54.5438	20.5078	56.7454	20.5078	54.571	20.5078	56.6062	20.5078	54.6282	20.5078	56.4326	20.5078	54.7158	20.5078	56.2323	20.5078	54.8335	20.5078	56.0144	20.5078	54.9802	20.5078	55.7885	20.5078	55.1537	20.5078	55.5642	20.5078	55.3502
21.2402	56.6774	21.2402	56.4748	21.2402	56.8806	21.2402	56.2779	21.2402	57.0788	21.2402	56.0912	21.2402	57.2659	21.2402	55.9185	21.2402	57.4355	21.2402	55.7633	21.2402	57.5809	21.2402	55.6284	21.2402	57.6958	21.2402	55.5165	21.2402	57.7743	21.2402	55.4297	21.2402	57.8116	21.2402	55.3698	21.2402	57.8042	21.2402	55.3385	21.2402	57.7508	21.2402	55.3372	21.2402	57.652	21.2402	55.367	21.2402	57.5109	21.2402	55.4287	21.2402	57.3331	21.2402	55.5228	21.2402	57.1262	21.2402	55.649	21.2402	56.8994	21.2402	55.806	21.2402	56.6629	21.2402	55.9911	21.2402	56.4266	21.2402	56.2
21.9727	57.2279	21.9727	57.0318	21.9727	57.4253	21.9727	56.8419	21.9727	57.6185	21.9727	56.6626	21.9727	57.8014	21.9727	56.4977	21.9727	57.9677	21.9727	56.3505	21.9727	58.1109	21.9727	56.2236	21.9727	58.2248	21.9727	56.1195	21.9727	58.3035	21.9727	56.0402	21.9727	58.3423	21.9727	55.9872	21.9727	58.338	21.9727	55.9621	21.9727	58.2892	21.9727	55.9658	21.9727	58.1966	21.9727	55.9992	21.9727	58.0634	21.9727	56.063	21.9727	57.8947	21.9727	56.1573	21.9727	57.6981	21.9727	56.2816	21.9727	57.4823	21.9727	56.4346	21.9727	57.2568	21.9727	56.6135	21.9727	57.0313	21.9727	56.8143
22.7051	57.4629	22.7051	57.2627	22.7051	57.6637	22.7051	57.0682	22.7051	57.8596	22.7051	56.8838	22.7051	58.0443	22.7051	56.7136	22.7051	58.2114	22.7051	56.5608	22.7051	58.3544	22.7051	56.4284	22.7051	58.4668	22.7051	56.3187	22.7051	58.5428	22.7051	56.2339	22.7051	58.5778	22.7051	56.1757	22.7051	58.5685	22.7051	56.1457	22.7051	58.5137	22.7051	56.145	22.7051	58.4142	22.7051	56.1746	22.7051	58.2735	22.7051	56.2353	22.7051	58.0971	22.7051	56.3273	22.7051	57.8929	22.7051	56.4504	22.7051	57.6699	22.7051	56.6032	22.7051	57.4381	22.7051	56.7832	22.7051	57.2074	22.7051	56.9866
23.4375	58.2068	23.4375	58.0105	23.4375	58.4049	23.4375	57.8209	23.4375	58.5993	23.4375	57.6424	23.4375	58.7838	23.4375	57.4789	23.4375	58.952	23.4375	57.3336	23.4375	59.0975	23.4375	57.2092	23.4375	59.2138	23.4375	57.108	23.4375	59.2952	23.4375	57.0319	23.4375	59.337	23.4375	56.9826	23.4375	59.3356	23.4375	56.9611	23.4375	59.2898	23.4375	56.9686	23.4375	59.2002	23.4375	57.0058	23.4375	59.0698	23.4375	57.073	23.4375	58.9039	23.4375	57.1702	23.4375	58.7098	23.4375	57.2968	23.4375	58.4962	23.4375	57.4513	23.4375	58.2726	23.4375	57.6311	23.4375	58.0483	23.4375	57.832
24.1699	58.6042	24.1699	58.4067	24.1699	58.8036	24.1699	58.2162	24.1699	58.9994	24.1699	58.0371	24.1699	59.1853	24.1699	57.8734	24.1699	59.355	24.1699	57.7282	24.1699	59.5018	24.1699	57.6044	24.1699	59.6193	24.1699	57.5042	24.1699	59.7018	24.1699	57.4296	24.1699	59.7444	24.1699	57.3821	24.1699	59.7438	24.1699	57.3627	24.1699	59.6987	24.1699	57.3725	24.1699	59.6096	24.1699	57.412	24.1699	59.4798	24.1699	57.4813	24.1699	59.3146	24.1699	57.5805	24.1699	59.1211	24.1699	57.7086	24.1699	58.9083	24.1699	57.8642	24.1699	58.6853	24.1699	58.0446	24.1699	58.4615	24.1699	58.2456
25.6348	59.2744	25.6348	59.0742	25.6348	59.4762	25.6348	58.8807	25.6348	59.6739	25.6348	58.6985	25.6348	59.8612	25.6348	58.5317	25.6348	60.0317	25.6348	58.3834	25.6348	60.1786	25.6348	58.2568	25.6348	60.2955	25.6348	58.154	25.6348	60.3767	25.6348	58.0771	25.6348	60.4174	25.6348	58.0276	25.6348	60.4143	25.6348	58.0067	25.6348	60.366	25.6348	58.0152	25.6348	60.2735	25.6348	58.0537	25.6348	60.14	25.6348	58.1225	25.6348	59.9709	25.6348	58.2213	25.6348	59.7739	25.6348	58.3493	25.6348	59.5577	25.6348	58.5052	25.6348	59.3319	25.6348	58.6862	25.6348	59.1059	25.6348	58.8883
26.3672	59.6102	26.3672	59.4088	26.3672	59.8132	26.3672	59.2141	26.3672	60.0119	26.3672	59.0307	26.3672	60.2002	26.3672	58.8628	26.3672	60.3714	26.3672	58.7136	26.3672	60.5188	26.3672	58.5862	26.3672	60.636	26.3672	58.4829	26.3672	60.7172	26.3672	58.4056	26.3672	60.7576	26.3672	58.356	26.3672	60.7539	26.3672	58.3351	26.3672	60.7048	26.3672	58.3438	26.3672	60.6112	26.3672	58.3826	26.3672	60.4765	26.3672	58.4517	26.3672	60.3063	26.3672	58.5508	26.3672	60.1081	26.3672	58.6793	26.3672	59.8908	26.3672	58.8354	26.3672	59.6642	26.3672	59.0168	26.3672	59.4375	26.3672	59.2193
27.0996	59.9642	27.0996	59.7631	27.0996	60.1669	27.0996	59.5688	27.0996	60.3653	27.0996	59.3859	27.0996	60.5533	27.0996	59.2185	27.0996	60.7241	27.0996	59.0699	27.0996	60.8711	27.0996	58.9431	27.0996	60.9878	27.0996	58.8404	27.0996	61.0685	27.0996	58.7638	27.0996	61.1083	27.0996	58.7148	27.0996	61.1041	27.0996	58.6944	27.0996	61.0545	27.0996	58.7035	27.0996	60.9606	27.0996	58.7425	27.0996	60.8257	27.0996	58.8115	27.0996	60.6556	27.0996	58.9102	27.0996	60.4579	27.0996	59.0378	27.0996	60.2415	27.0996	59.1929	27.0996	60.0159	27.0996	59.3729	27.0996	59.7906	27.0996	59.5739
27.832	60.3012	27.832	60.0988	27.832	60.5048	27.832	59.9027	27.832	60.7037	27.832	59.7178	27.832	60.8918	27.832	59.5479	27.832	61.0623	27.832	59.3966	27.832	61.2085	27.832	59.2667	27.832	61.324	27.832	59.1607	27.832	61.403	27.832	59.0807	27.832	61.4406	27.832	59.028	27.832	61.4336	27.832	59.004	27.832	61.3808	27.832	59.0096	27.832	61.2832	27.832	59.0453	27.832	61.1444	27.832	59.1114	27.832	60.97	27.832	59.2078	27.832	60.768	27.832	59.3339	27.832	60.5474	27.832	59.4883	27.832	60.3182	27.832	59.6686	27.832	60.0898	27.832	59.8709
29.2969	60.9077	29.2969	60.7045	29.2969	61.1121	29.2969	60.5076	29.2969	61.3117	29.2969	60.3218	29.2969	61.5001	29.2969	60.1512	29.2969	61.6708	29.2969	59.9992	29.2969	61.817	29.2969	59.8688	29.2969	61.9321	29.2969	59.7624	29.2969	62.0104	29.2969	59.682	29.2969	62.0471	29.2969	59.6291	29.2969	62.0389	29.2969	59.6049	29.2969	61.9848	29.2969	59.6103	29.2969	61.8858	29.2969	59.6457	29.2969	61.7456	29.2969	59.7116	29.2969	61.57	29.2969	59.8076	29.2969	61.367	29.2969	59.9333	29.2969	61.1457	29.2969	60.0872	29.2969	60.9161	29.2969	60.267	29.2969	60.6877	29.2969	60.469
30.0293	61.337	30.0293	61.1341	30.0293	61.5414	30.0293	60.9381	30.0293	61.7417	30.0293	60.7535	30.0293	61.9313	30.0293	60.5846	30.0293	62.1037	30.0293	60.4346	30.0293	62.252	30.0293	60.3064	30.0293	62.3698	30.0293	60.2025	30.0293	62.451	30.0293	60.1247	30.0293	62.4909	30.0293	60.0745	30.0293	62.4861	30.0293	60.053	30.0293	62.4353	30.0293	60.061	30.0293	62.3396	30.0293	60.099	30.0293	62.2023	30.0293	60.1672	30.0293	62.0293	30.0293	60.2654	30.0293	61.8283	30.0293	60.393	30.0293	61.6085	30.0293	60.5485	30.0293	61.3797	30.0293	60.7296	30.0293	61.1515	30.0293	60.9324
31.4941	61.819	31.4941	61.6175	31.4941	62.0229	31.4941	61.4237	31.4941	62.2233	31.4941	61.2423	31.4941	62.4137	31.4941	61.0774	31.4941	62.5875	31.4941	60.9324	31.4941	62.7378	31.4941	60.8101	31.4941	62.8581	31.4941	60.7129	31.4941	62.9426	31.4941	60.6424	31.4941	62.9863	31.4941	60.5999	31.4941	62.9862	31.4941	60.5862	31.4941	62.9408	31.4941	60.6019	31.4941	62.8512	31.4941	60.6469	31.4941	62.7208	31.4941	60.7212	31.4941	62.5552	31.4941	60.8242	31.4941	62.3619	31.4941	60.9549	31.4941	62.1498	31.4941	61.1116	31.4941	61.9281	31.4941	61.2918	31.4941	61.706	31.4941	61.4916
32.2266	62.052	32.2266	61.8496	32.2266	62.2567	32.2266	61.6547	32.2266	62.4577	32.2266	61.4722	32.2266	62.6484	32.2266	61.3062	32.2266	62.8222	32.2266	61.1603	32.2266	62.9722	32.2266	61.0373	32.2266	63.092	32.2266	60.9397	32.2266	63.1757	32.2266	60.8691	32.2266	63.2185	32.2266	60.8269	32.2266	63.2173	32.2266	60.8139	32.2266	63.171	32.2266	60.8303	32.2266	63.0807	32.2266	60.8764	32.2266	62.9497	32.2266	60.9517	32.2266	62.7839	32.2266	61.0556	32.2266	62.5908	32.2266	61.1869	32.2266	62.3792	32.2266	61.3439	32.2266	62.1583	32.2266	61.524	32.2266	61.937	32.2266	61.7234
33.6914	62.5515	33.6914	62.3451	33.6914	62.7596	33.6914	62.1459	33.6914	62.9633	33.6914	61.9588	33.6914	63.1561	33.6914	61.7881	33.6914	63.3311	33.6914	61.6373	33.6914	63.4814	33.6914	61.5096	33.6914	63.6004	33.6914	61.4072	33.6914	63.6823	33.6914	61.3322	33.6914	63.7222	33.6914	61.2857	33.6914	63.717	33.6914	61.2687	33.6914	63.6655	33.6914	61.2817	33.6914	63.5691	33.6914	61.3246	33.6914	63.4314	33.6914	61.3974	33.6914	63.2585	33.6914	61.4994	33.6914	63.0582	33.6914	61.6296	33.6914	62.8397	33.6914	61.7865	33.6914	62.6128	33.6914	61.9676	33.6914	62.3866	33.6914	62.1693
34.4238	62.8669	34.4238	62.6602	34.4238	63.0756	34.4238	62.461	34.4238	63.2801	34.4238	62.2742	34.4238	63.4739	34.4238	62.1039	34.4238	63.6501	34.4238	61.954	34.4238	63.8018	34.4238	61.8272	34.4238	63.9223	34.4238	61.7261	34.4238	64.0058	34.4238	61.6524	34.4238	64.0474	34.4238	61.6075	34.4238	64.0439	34.4238	61.5922	34.4238	63.9942	34.4238	61.6069	34.4238	63.8995	34.4238	61.6516	34.4238	63.7633	34.4238	61.7262	34.4238	63.5917	34.4238	61.8298	34.4238	63.3925	34.4238	61.9616	34.4238	63.1748	34.4238	62.1198	34.4238	62.9483	34.4238	62.3019	34.4238	62.7221	34.4238	62.5044
35.8887	63.4009	35.8887	63.1946	35.8887	63.6099	35.8887	62.9965	35.8887	63.8153	35.8887	62.8117	35.8887	64.0106	35.8887	62.6443	35.8887	64.1887	35.8887	62.4981	35.8887	64.3428	35.8887	62.3759	35.8887	64.4662	35.8887	62.2802	35.8887	64.5528	35.8887	62.2125	35.8887	64.5979	35.8887	62.1739	35.8887	64.5983	35.8887	62.1651	35.8887	64.5529	35.8887	62.1861	35.8887	64.4628	35.8887	62.2368	35.8887	64.3317	35.8887	62.3164	35.8887	64.1653	35.8887	62.4241	35.8887	63.9714	35.8887	62.5586	35.8887	63.759	35.8887	62.718	35.8887	63.5373	35.8887	62.8999	35.8887	63.3152	35.8887	63.1006
37.3535	63.8179	37.3535	63.6093	37.3535	64.0292	37.3535	63.409	37.3535	64.2368	37.3535	63.2221	37.3535	64.434	37.3535	63.0532	37.3535	64.614	37.3535	62.9058	37.3535	64.7696	37.3535	62.7832	37.3535	64.8942	37.3535	62.6876	37.3535	64.9819	37.3535	62.6208	37.3535	65.0279	37.3535	62.584	37.3535	65.029	37.3535	62.5775	37.3535	64.9843	37.3535	62.6015	37.3535	64.8948	37.3535	62.6554	37.3535	64.7642	37.3535	62.7384	37.3535	64.5984	37.3535	62.8495	37.3535	64.4052	37.3535	62.987	37.3535	64.1933	37.3535	63.1489	37.3535	63.9719	37.3535	63.3327	37.3535	63.7497	37.3535	63.5345
38.8184	64.2047	38.8184	64.0009	38.8184	64.4117	38.8184	63.806	38.8184	64.6157	38.8184	63.625	38.8184	64.8098	38.8184	63.4623	38.8184	64.9872	38.8184	63.3217	38.8184	65.1408	38.8184	63.206	38.8184	65.2642	38.8184	63.1174	38.8184	65.3514	38.8184	63.0575	38.8184	65.3978	38.8184	63.027	38.8184	65.4004	38.8184	63.0264	38.8184	65.3583	38.8184	63.0551	38.8184	65.273	38.8184	63.1125	38.8184	65.148	38.8184	63.1974	38.8184	64.9894	38.8184	63.3084	38.8184	64.8046	38.8184	63.4438	38.8184	64.6022	38.8184	63.6015	38.8184	64.3908	38.8184	63.779	38.8184	64.1787	38.8184	63.9728
39.5508	64.3486	39.5508	64.1449	39.5508	64.5555	39.5508	63.9504	39.5508	64.7593	39.5508	63.7701	39.5508	64.9532	39.5508	63.6087	39.5508	65.13	39.5508	63.4697	39.5508	65.2829	39.5508	63.3561	39.5508	65.4052	39.5508	63.2701	39.5508	65.491	39.5508	63.2131	39.5508	65.5359	39.5508	63.1858	39.5508	65.537	39.5508	63.1881	39.5508	65.4936	39.5508	63.2195	39.5508	65.4073	39.5508	63.2788	39.5508	65.2822	39.5508	63.3647	39.5508	65.1244	39.5508	63.4755	39.5508	64.9415	39.5508	63.6094	39.5508	64.7422	39.5508	63.7642	39.5508	64.535	39.5508	63.9377	39.5508	64.3276	39.5508	64.1268
41.0156	64.7605	41.0156	64.5458	41.0156	64.9772	41.0156	64.3392	41.0156	65.1893	41.0156	64.1463	41.0156	65.3897	41.0156	63.9719	41.0156	65.5712	41.0156	63.8202	41.0156	65.7265	41.0156	63.6945	41.0156	65.8489	41.0156	63.5972	41.0156	65.9324	41.0156	63.5301	41.0156	65.9725	41.0156	63.4941	41.0156	65.9661	41.0156	63.4892	41.0156	65.9128	41.0156	63.5151	41.0156	65.8142	41.0156	63.5705	41.0156	65.6749	41.0156	63.6542	41.0156	65.5015	41.0156	63.7644	41.0156	65.3025	41.0156	63.8996	41.0156	65.0874	41.0156	64.0578	41.0156	64.8655	41.0156	64.2369	41.0156	64.6454	41.0156	64.434
42.4805	65.2313	42.4805	65.0159	42.4805	65.4481	42.4805	64.808	42.4805	65.6596	42.4805	64.6129	42.4805	65.8589	42.4805	64.4356	42.4805	66.0388	42.4805	64.2801	42.4805	66.1921	42.4805	64.1499	42.4805	66.3121	42.4805	64.0475	42.4805	66.3929	42.4805	63.9747	42.4805	66.4297	42.4805	63.9327	42.4805	66.4198	42.4805	63.9217	42.4805	66.3624	42.4805	63.9416	42.4805	66.2594	42.4805	63.9915	42.4805	66.1152	42.4805	64.0705	42.4805	65.9366	42.4805	64.1771	42.4805	65.7323	42.4805	64.3098	42.4805	65.5118	42.4805	64.4671	42.4805	65.285	42.4805	64.6467	42.4805	65.0605	42.4805	64.8459
43.9453	65.5902	43.9453	65.3749	43.9453	65.8067	43.9453	65.167	43.9453	66.0179	43.9453	64.9719	43.9453	66.2166	43.9453	64.7945	43.9453	66.3958	43.9453	64.6389	43.9453	66.5482	43.9453	64.5085	43.9453	66.667	43.9453	64.4058	43.9453	66.7462	43.9453	64.3327	43.9453	66.7812	43.9453	64.29	43.9453	66.7692	43.9453	64.2782	43.9453	66.7096	43.9453	64.297	43.9453	66.6044	43.9453	64.3455	43.9453	66.458	43.9453	64.4226	43.9453	66.2776	43.9453	64.5271	43.9453	66.0719	43.9453	64.6575	43.9453	65.8507	43.9453	64.8124	43.9453	65.6238	43.9453	64.9898	43.9453	65.4002	43.9453	65.187
45.4102	66.0082	45.4102	65.7925	45.4102	66.2245	45.4102	65.5835	45.4102	66.4349	45.4102	65.3867	45.4102	66.6324	45.4102	65.2067	45.4102	66.8097	45.4102	65.0479	45.4102	66.9597	45.4102	64.9134	45.4102	67.0755	45.4102	64.806	45.4102	67.1512	45.4102	64.7274	45.4102	67.1821	45.4102	64.6789	45.4102	67.1654	45.4102	64.6609	45.4102	67.1006	45.4102	64.6734	45.4102	66.9897	45.4102	64.7158	45.4102	66.8374	45.4102	64.7873	45.4102	66.6509	45.4102	64.8869	45.4102	66.4394	45.4102	65.0135	45.4102	66.2129	45.4102	65.1658	45.4102	65.9817	45.4102	65.3421	45.4102	65.7547	45.4102	65.5397
47.6074	66.5018	47.6074	66.2885	47.6074	66.717	47.6074	66.0831	47.6074	66.9274	47.6074	65.8911	47.6074	67.1259	47.6074	65.7173	47.6074	67.305	47.6074	65.5656	47.6074	67.4577	47.6074	65.4392	47.6074	67.5769	47.6074	65.3404	47.6074	67.6567	47.6074	65.2707	47.6074	67.6924	47.6074	65.231	47.6074	67.681	47.6074	65.2213	47.6074	67.6221	47.6074	65.2411	47.6074	67.5177	47.6074	65.2897	47.6074	67.3723	47.6074	65.3659	47.6074	67.1932	47.6074	65.4685	47.6074	66.9892	47.6074	65.5963	47.6074	66.7702	47.6074	65.748	47.6074	66.5459	47.6074	65.9219	47.6074	66.3253	47.6074	66.1156
49.0723	66.7769	49.0723	66.562	49.0723	66.9941	49.0723	66.3558	49.0723	67.2068	49.0723	66.1637	49.0723	67.4078	49.0723	65.9908	49.0723	67.5896	49.0723	65.8409	49.0723	67.745	49.0723	65.7174	49.0723	67.8668	49.0723	65.6226	49.0723	67.9493	49.0723	65.5578	49.0723	67.9875	49.0723	65.5237	49.0723	67.9789	49.0723	65.52	49.0723	67.9227	49.0723	65.5461	49.0723	67.8212	49.0723	65.6007	49.0723	67.679	49.0723	65.6824	49.0723	67.5033	49.0723	65.7896	49.0723	67.3029	49.0723	65.9207	49.0723	67.0876	49.0723	66.0744	49.0723	66.8669	49.0723	66.2488	49.0723	66.6492	49.0723	66.4415
50.5371	67.0577	50.5371	66.8382	50.5371	67.2791	50.5371	66.6272	50.5371	67.4954	50.5371	66.4304	50.5371	67.6993	50.5371	66.2529	50.5371	67.8832	50.5371	66.0991	50.5371	68.0397	50.5371	65.9724	50.5371	68.1618	50.5371	65.8751	50.5371	68.2436	50.5371	65.8089	50.5371	68.2802	50.5371	65.7744	50.5371	68.2691	50.5371	65.7712	50.5371	68.2098	50.5371	65.7985	50.5371	68.1046	50.5371	65.8547	50.5371	67.9586	50.5371	65.9383	50.5371	67.779	50.5371	66.0474	50.5371	67.575	50.5371	66.1803	50.5371	67.3566	50.5371	66.3354	50.5371	67.1335	50.5371	66.511	50.5371	66.914	50.5371	66.7049
52.7344	67.5445	52.7344	67.3258	52.7344	67.765	52.7344	67.1154	52.7344	67.9804	52.7344	66.9192	52.7344	68.1833	52.7344	66.7421	52.7344	68.3664	52.7344	66.5884	52.7344	68.522	52.7344	66.4617	52.7344	68.6433	52.7344	66.3643	52.7344	68.7243	52.7344	66.2978	52.7344	68.7603	52.7344	66.2628	52.7344	68.7485	52.7344	66.259	52.7344	68.6886	52.7344	66.2857	52.7344	68.5829	52.7344	66.3412	52.7344	68.4364	52.7344	66.424	52.7344	68.2567	52.7344	66.5322	52.7344	68.0528	52.7344	66.6641	52.7344	67.8348	52.7344	66.8181	52.7344	67.6123	52.7344	66.9927	52.7344	67.3936	52.7344	67.1855
54.1992	67.782	54.1992	67.5648	54.1992	68.0012	54.1992	67.3561	54.1992	68.2154	54.1992	67.1618	54.1992	68.4172	54.1992	66.9871	54.1992	68.5989	54.1992	66.836	54.1992	68.7531	54.1992	66.7121	54.1992	68.8727	54.1992	66.6176	54.1992	68.9519	54.1992	66.5539	54.1992	68.9859	54.1992	66.5214	54.1992	68.9722	54.1992	66.5196	54.1992	68.9105	54.1992	66.5474	54.1992	68.8036	54.1992	66.6032	54.1992	68.6566	54.1992	66.6851	54.1992	68.4774	54.1992	66.7912	54.1992	68.2752	54.1992	66.9198	54.1992	68.0602	54.1992	67.0694	54.1992	67.8418	54.1992	67.2387	54.1992	67.6283	54.1992	67.4259
56.3965	68.1901	56.3965	67.97	56.3965	68.4126	56.3965	67.7589	56.3965	68.6303	56.3965	67.563	56.3965	68.8354	56.3965	67.3874	56.3965	69.0202	56.3965	67.2365	56.3965	69.1772	56.3965	67.1137	56.3965	69.2991	56.3965	67.0212	56.3965	69.3799	56.3965	66.9602	56.3965	69.4149	56.3965	66.9308	56.3965	69.4015	56.3965	66.9325	56.3965	69.3396	56.3965	66.9636	56.3965	69.2319	56.3965	67.0224	56.3965	69.0838	56.3965	67.1066	56.3965	68.9032	56.3965	67.2143	56.3965	68.6998	56.3965	67.3438	56.3965	68.4839	56.3965	67.4937	56.3965	68.2651	56.3965	67.6627	56.3965	68.0516	56.3965	67.8495
58.5938	68.5922	58.5938	68.3708	58.5938	68.8166	58.5938	68.1592	58.5938	69.0366	58.5938	67.9636	58.5938	69.2445	58.5938	67.7893	58.5938	69.4324	58.5938	67.6408	58.5938	69.5926	58.5938	67.5214	58.5938	69.7179	58.5938	67.4333	58.5938	69.8021	58.5938	67.3776	58.5938	69.8406	58.5938	67.3543	58.5938	69.8308	58.5938	67.3623	58.5938	69.7725	58.5938	67.4	58.5938	69.6684	58.5938	67.465	58.5938	69.5241	58.5938	67.5549	58.5938	69.3474	58.5938	67.6674	58.5938	69.1478	58.5938	67.8005	58.5938	68.9356	58.5938	67.9527	58.5938	68.7201	58.5938	68.1226	58.5938	68.5093	58.5938	68.3089
60.0586	68.7379	60.0586	68.5141	60.0586	68.9647	60.0586	68.3003	60.0586	69.1868	60.0586	68.1031	60.0586	69.3965	60.0586	67.9279	60.0586	69.5856	60.0586	67.7794	60.0586	69.7465	60.0586	67.661	60.0586	69.8718	60.0586	67.5751	60.0586	69.9556	60.0586	67.5225	60.0586	69.9932	60.0586	67.5031	60.0586	69.9822	60.0586	67.5156	60.0586	69.9227	60.0586	67.5579	60.0586	69.8178	60.0586	67.6273	60.0586	69.6733	60.0586	67.7209	60.0586	69.4973	60.0586	67.8361	60.0586	69.2995	60.0586	67.9705	60.0586	69.0901	60.0586	68.1225	60.0586	68.8782	60.0586	68.2909	60.0586	68.6712	60.0586	68.4744
62.2559	69.0689	62.2559	68.841	62.2559	69.2986	62.2559	68.6221	62.2559	69.5222	62.2559	68.4189	62.2559	69.7318	62.2559	68.2373	62.2559	69.9194	62.2559	68.0821	62.2559	70.077	62.2559	67.9572	62.2559	70.1974	62.2559	67.865	62.2559	70.2747	62.2559	67.8066	62.2559	70.3043	62.2559	67.7819	62.2559	70.284	62.2559	67.7896	62.2559	70.2142	62.2559	67.8274	62.2559	70.0985	62.2559	67.8924	62.2559	69.9433	62.2559	67.9817	62.2559	69.7574	62.2559	68.0925	62.2559	69.5512	62.2559	68.2225	62.2559	69.3355	62.2559	68.3702	62.2559	69.1198	62.2559	68.5348	62.2559	68.9115	62.2559	68.7156
64.4531	69.3925	64.4531	69.1629	64.4531	69.6229	64.4531	68.9416	64.4531	69.8465	64.4531	68.7353	64.4531	70.0551	64.4531	68.55	64.4531	70.2407	64.4531	68.3907	64.4531	70.3955	64.4531	68.2613	64.4531	70.5122	64.4531	68.1644	64.4531	70.5847	64.4531	68.1012	64.4531	70.6086	64.4531	68.0718	64.4531	70.5817	64.4531	68.0748	64.4531	70.5048	64.4531	68.108	64.4531	70.3815	64.4531	68.1685	64.4531	70.2186	64.4531	68.2533	64.4531	70.0255	64.4531	68.3597	64.4531	69.813	64.4531	68.4854	64.4531	69.5925	64.4531	68.6292	64.4531	69.3738	64.4531	68.7905	64.4531	69.1644	64.4531	68.9692
66.6504	69.6887	66.6504	69.4588	66.6504	69.9187	66.6504	69.2361	66.6504	70.1409	66.6504	69.0275	66.6504	70.3472	66.6504	68.839	66.6504	70.5295	66.6504	68.6754	66.6504	70.6799	66.6504	68.5408	66.6504	70.7912	66.6504	68.4377	66.6504	70.8572	66.6504	68.3675	66.6504	70.8736	66.6504	68.3302	66.6504	70.8381	66.6504	68.3247	66.6504	70.7516	66.6504	68.3489	66.6504	70.6181	66.6504	68.4002	66.6504	70.4449	66.6504	68.476	66.6504	70.2418	66.6504	68.5737	66.6504	70.0204	66.6504	68.6917	66.6504	69.7926	66.6504	68.829	66.6504	69.5688	66.6504	68.9857	66.6504	69.3569	66.6504	69.1618
69.5801	70.0043	69.5801	69.7705	69.5801	70.2392	69.5801	69.5453	69.5801	70.4672	69.5801	69.3355	69.5801	70.68	69.5801	69.147	69.5801	70.8693	69.5801	68.9849	69.5801	71.027	69.5801	68.8528	69.5801	71.1456	69.5801	68.7534	69.5801	71.2188	69.5801	68.6876	69.5801	71.2419	69.5801	68.6553	69.5801	71.2125	69.5801	68.6552	69.5801	71.1312	69.5801	68.685	69.5801	71.0019	69.5801	68.742	69.5801	70.8316	69.5801	68.8235	69.5801	70.63	69.5801	68.927	69.5801	70.4086	69.5801	69.0507	69.5801	70.1794	69.5801	69.1937	69.5801	69.9528	69.5801	69.3559	69.5801	69.7371	69.5801	69.5373
71.7773	70.2045	71.7773	69.9726	71.7773	70.4384	71.7773	69.7502	71.7773	70.666	71.7773	69.5443	71.7773	70.879	71.7773	69.3611	71.7773	71.0689	71.7773	69.2055	71.7773	71.2276	71.7773	69.0813	71.7773	71.3476	71.7773	68.9906	71.7773	71.4225	71.7773	68.9345	71.7773	71.4479	71.7773	68.9122	71.7773	71.4217	71.7773	68.9221	71.7773	71.3447	71.7773	68.9613	71.7773	71.2208	71.7773	69.0266	71.7773	71.0575	71.7773	69.1147	71.7773	70.8644	71.7773	69.2227	71.7773	70.6531	71.7773	69.3483	71.7773	70.4348	71.7773	69.4904	71.7773	70.2194	71.7773	69.6487	71.7773	70.0142	71.7773	69.8234
73.9746	70.4494	73.9746	70.2182	73.9746	70.683	73.9746	69.9974	73.9746	70.9107	73.9746	69.7942	73.9746	71.1239	73.9746	69.6148	73.9746	71.3138	73.9746	69.4643	73.9746	71.4723	73.9746	69.3463	73.9746	71.5918	73.9746	69.2629	73.9746	71.6659	73.9746	69.2146	73.9746	71.6902	73.9746	69.2002	73.9746	71.6629	73.9746	69.2175	73.9746	71.5849	73.9746	69.2629	73.9746	71.4609	73.9746	69.3328	73.9746	71.2985	73.9746	69.4233	73.9746	71.108	73.9746	69.5311	73.9746	70.9012	73.9746	69.6538	73.9746	70.6896	73.9746	69.7904	73.9746	70.4827	73.9746	69.9409	73.9746	70.2871	73.9746	70.1063
76.9043	70.6727	76.9043	70.4377	76.9043	70.9107	76.9043	70.2141	76.9043	71.143	76.9043	70.0093	76.9043	71.3606	76.9043	69.83	76.9043	71.5547	76.9043	69.6815	76.9043	71.7167	76.9043	69.5674	76.9043	71.839	76.9043	69.4897	76.9043	71.9152	76.9043	69.4484	76.9043	71.9409	76.9043	69.4421	76.9043	71.9143	76.9043	69.4676	76.9043	71.8366	76.9043	69.5211	76.9043	71.7127	76.9043	69.598	76.9043	71.5506	76.9043	69.694	76.9043	71.361	76.9043	69.8055	76.9043	71.1561	76.9043	69.9298	76.9043	70.9473	76.9043	70.066	76.9043	70.7441	76.9043	70.2144	76.9043	70.5529	76.9043	70.3762
79.834	71.0068	79.834	70.7643	79.834	71.251	79.834	70.5323	79.834	71.4879	79.834	70.3188	79.834	71.7082	79.834	70.131	79.834	71.9029	79.834	69.9747	79.834	72.0634	79.834	69.8542	79.834	72.1822	79.834	69.7717	79.834	72.2529	79.834	69.7274	79.834	72.2713	79.834	69.7198	79.834	72.2359	79.834	69.7454	79.834	72.1484	79.834	69.7999	79.834	72.0143	79.834	69.8782	79.834	71.8425	79.834	69.9755	79.834	71.6445	79.834	70.0875	79.834	71.4331	79.834	70.2113	79.834	71.2204	79.834	70.346	79.834	71.016	79.834	70.492	79.834	70.8255	79.834	70.6511
82.7637	71.2801	82.7637	71.0376	82.7637	71.5228	82.7637	70.8041	82.7637	71.7565	82.7637	70.5879	82.7637	71.9721	82.7637	70.3963	82.7637	72.1605	82.7637	70.2355	82.7637	72.3131	82.7637	70.1098	82.7637	72.4223	82.7637	70.0217	82.7637	72.4818	82.7637	69.9715	82.7637	72.4876	82.7637	69.9576	82.7637	72.4384	82.7637	69.9765	82.7637	72.3364	82.7637	70.0237	82.7637	72.1877	82.7637	70.0939	82.7637	72.0023	82.7637	70.1821	82.7637	71.7929	82.7637	70.2839	82.7637	71.5735	82.7637	70.3967	82.7637	71.3571	82.7637	70.5196	82.7637	71.1535	82.7637	70.6538	82.7637	70.9681	82.7637	70.8023
85.6934	71.353	85.6934	71.1063	85.6934	71.602	85.6934	70.8708	85.6934	71.8438	85.6934	70.655	85.6934	72.0689	85.6934	70.4661	85.6934	72.2679	85.6934	70.3101	85.6934	72.4318	85.6934	70.1909	85.6934	72.5525	85.6934	70.1106	85.6934	72.6235	85.6934	70.0689	85.6934	72.6402	85.6934	70.0637	85.6934	72.6008	85.6934	70.0912	85.6934	72.5073	85.6934	70.1464	85.6934	72.3654	85.6934	70.2239	85.6934	72.1845	85.6934	70.3187	85.6934	71.9773	85.6934	70.4266	85.6934	71.7576	85.6934	70.5452	85.6934	71.5387	85.6934	70.6739	85.6934	71.3308	85.6934	70.814	85.6934	71.1402	85.6934	70.9684
88.623	71.5346	88.623	71.2842	88.623	71.788	88.623	71.0462	88.623	72.0344	88.623	70.8296	88.623	72.2639	88.623	70.6422	88.623	72.4668	88.623	70.4902	88.623	72.634	88.623	70.3778	88.623	72.7575	88.623	70.3067	88.623	72.8308	88.623	70.2765	88.623	72.8495	88.623	70.2841	88.623	72.8123	88.623	70.325	88.623	72.7214	88.623	70.3933	88.623	72.5831	88.623	70.4829	88.623	72.4072	88.623	70.5879	88.623	72.2067	88.623	70.7035	88.623	71.9955	88.623	70.8268	88.623	71.7864	88.623	70.9568	88.623	71.5889	88.623	71.0949	88.623	71.4079	88.623	71.244
91.5527	71.6532	91.5527	71.3974	91.5527	71.9112	91.5527	71.1538	91.5527	72.161	91.5527	70.9321	91.5527	72.3922	91.5527	70.7408	91.5527	72.5952	91.5527	70.5869	91.5527	72.7607	91.5527	70.4749	91.5527	72.8807	91.5527	70.4069	91.5527	72.9489	91.5527	70.3819	91.5527	72.9613	91.5527	70.3966	91.5527	72.917	91.5527	70.4455	91.5527	72.8189	91.5527	70.5219	91.5527	72.6742	91.5527	70.6185	91.5527	72.4939	91.5527	70.7287	91.5527	72.2918	91.5527	70.8468	91.5527	72.0825	91.5527	70.9695	91.5527	71.879	91.5527	71.0956	91.5527	71.69	91.5527	71.2267	91.5527	71.5195	91.5527	71.3664
94.4824	71.8123	94.4824	71.5423	94.4824	72.0816	94.4824	71.2826	94.4824	72.3394	94.4824	71.0438	94.4824	72.5751	94.4824	70.8358	94.4824	72.7791	94.4824	70.667	94.4824	72.9424	94.4824	70.5434	94.4824	73.0571	94.4824	70.4678	94.4824	73.1172	94.4824	70.44	94.4824	73.1192	94.4824	70.4562	94.4824	73.0628	94.4824	70.5103	94.4824	72.9517	94.4824	70.5943	94.4824	72.7942	94.4824	70.6998	94.4824	72.6023	94.4824	70.8186	94.4824	72.3912	94.4824	70.9441	94.4824	72.1763	94.4824	71.0717	94.4824	71.971	94.4824	71.2	94.4824	71.7835	94.4824	71.3304	94.4824	71.6165	94.4824	71.4673
98.1445	72.1559	98.1445	71.8939	98.1445	72.4171	98.1445	71.6412	98.1445	72.6671	98.1445	71.4074	98.1445	72.8958	98.1445	71.2015	98.1445	73.0931	98.1445	71.0306	98.1445	73.2498	98.1445	70.8999	98.1445	73.3576	98.1445	70.812	98.1445	73.4099	98.1445	70.7667	98.1445	73.4023	98.1445	70.7612	98.1445	73.3339	98.1445	70.7903	98.1445	73.208	98.1445	70.8474	98.1445	73.0325	98.1445	70.9255	98.1445	72.82	98.1445	71.0178	98.1445	72.5864	98.1445	71.1189	98.1445	72.349	98.1445	71.2256	98.1445	72.1232	98.1445	71.3375	98.1445	71.9195	98.1445	71.4572	98.1445	71.7423	98.1445	71.59
101.807	72.1965	101.807	71.9274	101.807	72.4656	101.807	71.6693	101.807	72.7235	101.807	71.4329	101.807	72.9596	101.807	71.228	101.807	73.1635	101.807	71.0626	101.807	73.3259	101.807	70.9421	101.807	73.4383	101.807	70.8691	101.807	73.4943	101.807	70.8424	101.807	73.4899	101.807	70.8581	101.807	73.4248	101.807	70.9095	101.807	73.3027	101.807	70.9884	101.807	73.1323	101.807	71.0863	101.807	72.9272	101.807	71.1953	101.807	72.7038	101.807	71.309	101.807	72.4794	101.807	71.4234	101.807	72.2688	101.807	71.5378	101.807	72.0812	101.807	71.6545	101.807	71.9192	101.807	71.7792
105.469	72.2815	105.469	72.0041	105.469	72.558	105.469	71.7377	105.469	72.822	105.469	71.4937	105.469	73.0621	105.469	71.2828	105.469	73.268	105.469	71.1138	105.469	73.4299	105.469	70.9927	105.469	73.5395	105.469	70.9222	105.469	73.5902	105.469	70.9009	105.469	73.5786	105.469	70.9241	105.469	73.5044	105.469	70.9843	105.469	73.3725	105.469	71.0722	105.469	73.1926	105.469	71.1781	105.469	72.9795	105.469	71.2932	105.469	72.7513	105.469	71.4102	105.469	72.5264	105.469	71.5246	105.469	72.3199	105.469	71.6354	105.469	72.1404	105.469	71.7451	105.469	71.9889	105.469	71.86
109.131	72.5277	109.131	72.2409	109.131	72.8116	109.131	71.9635	109.131	73.0806	109.131	71.7076	109.131	73.3235	109.131	71.4846	109.131	73.5297	109.131	71.304	109.131	73.6894	109.131	71.1727	109.131	73.7941	109.131	71.0937	109.131	73.8372	109.131	71.0658	109.131	73.8149	109.131	71.0842	109.131	73.7273	109.131	71.1407	109.131	73.5791	109.131	71.2255	109.131	73.3808	109.131	71.3281	109.131	73.1482	109.131	71.4392	109.131	72.9011	109.131	71.5511	109.131	72.6598	109.131	71.6594	109.131	72.4412	109.131	71.7633	109.131	72.2549	109.131	71.8662	109.131	72.1018	109.131	71.9756
112.793	72.7268	112.793	72.4389	112.793	73.012	112.793	72.1608	112.793	73.2824	112.793	71.9047	112.793	73.5268	112.793	71.6824	112.793	73.7343	112.793	71.5035	112.793	73.8952	112.793	71.375	112.793	74.0009	112.793	71.2998	112.793	74.0448	112.793	71.2767	112.793	74.023	112.793	71.3004	112.793	73.9355	112.793	71.3622	112.793	73.7872	112.793	71.452	112.793	73.589	112.793	71.5588	112.793	73.3569	112.793	71.673	112.793	73.1111	112.793	71.7868	112.793	72.8721	112.793	71.8956	112.793	72.657	112.793	71.9985	112.793	72.4751	112.793	72.0991	112.793	72.3267	112.793	72.205
116.455	72.7769	116.455	72.4786	116.455	73.072	116.455	72.1905	116.455	73.3513	116.455	71.9258	116.455	73.6029	116.455	71.6974	116.455	73.8157	116.455	71.5159	116.455	73.9798	116.455	71.3889	116.455	74.0867	116.455	71.3195	116.455	74.1298	116.455	71.3059	116.455	74.1056	116.455	71.3419	116.455	74.0146	116.455	71.418	116.455	73.8626	116.455	71.5224	116.455	73.6612	116.455	71.6434	116.455	73.428	116.455	71.7702	116.455	73.184	116.455	71.8943	116.455	72.9503	116.455	72.0104	116.455	72.7435	116.455	72.1169	116.455	72.5714	116.455	72.2171	116.455	72.4328	116.455	72.3187
120.85	73.0203	120.85	72.7262	120.85	73.3087	120.85	72.4401	120.85	73.5788	120.85	72.1757	120.85	73.8188	120.85	71.9464	120.85	74.0177	120.85	71.7638	120.85	74.1656	120.85	71.6364	120.85	74.254	120.85	71.5677	120.85	74.2763	120.85	71.5562	120.85	74.2291	120.85	71.5953	120.85	74.1136	120.85	71.6743	120.85	73.9367	120.85	71.7803	120.85	73.7122	120.85	71.9002	120.85	73.4606	120.85	72.0216	120.85	73.2066	120.85	72.1349	120.85	72.9743	120.85	72.2336	120.85	72.7816	120.85	72.3161	120.85	72.6352	120.85	72.3858	120.85	72.53	120.85	72.4523
125.244	73.0522	125.244	72.7453	125.244	73.3525	125.244	72.4455	125.244	73.6332	125.244	72.167	125.244	73.8821	125.244	71.9238	125.244	74.0881	125.244	71.7282	125.244	74.2405	125.244	71.5891	125.244	74.3302	125.244	71.5107	125.244	74.3496	125.244	71.4913	125.244	74.2942	125.244	71.5239	125.244	74.164	125.244	71.597	125.244	73.9652	125.244	71.6967	125.244	73.7117	125.244	71.8087	125.244	73.4248	125.244	71.92	125.244	73.1323	125.244	72.0207	125.244	72.8628	125.244	72.1047	125.244	72.6393	125.244	72.1715	125.244	72.4725	125.244	72.2269	125.244	72.3588	125.244	72.2834
129.639	73.1234	129.639	72.8176	129.639	73.4235	129.639	72.5198	129.639	73.7048	129.639	72.2439	129.639	73.9553	129.639	72.0033	129.639	74.1634	129.639	71.8099	129.639	74.3186	129.639	71.6719	129.639	74.4113	129.639	71.5929	129.639	74.4339	129.639	71.5708	129.639	74.3817	129.639	71.5987	129.639	74.2542	129.639	71.6652	129.639	74.0572	129.639	71.757	129.639	73.8039	129.639	71.8606	129.639	73.5153	129.639	71.964	129.639	73.2183	129.639	72.058	129.639	72.9415	129.639	72.1376	129.639	72.7083	129.639	72.203	129.639	72.5306	129.639	72.2604	129.639	72.4064	129.639	72.3224
134.033	73.0988	134.033	72.7877	134.033	73.4076	134.033	72.4892	134.033	73.6998	134.033	72.2184	134.033	73.9623	134.033	71.9896	134.033	74.1829	134.033	71.8145	134.033	74.3502	134.033	71.7006	134.033	74.4544	134.033	71.6495	134.033	74.4874	134.033	71.6568	134.033	74.4444	134.033	71.713	134.033	74.3249	134.033	71.8046	134.033	74.1352	134.033	71.917	134.033	73.8889	134.033	72.0361	134.033	73.6079	134.033	72.1496	134.033	73.3202	134.033	72.2489	134.033	73.0548	134.033	72.3291	134.033	72.8353	134.033	72.391	134.033	72.6725	134.033	72.4411	134.033	72.5631	134.033	72.4925
138.428	72.993	138.428	72.6616	138.428	73.3216	138.428	72.3447	138.428	73.6318	138.428	72.0601	138.428	73.9093	138.428	71.8252	138.428	74.1415	138.428	71.6542	138.428	74.3171	138.428	71.5558	138.428	74.4263	138.428	71.5314	138.428	74.4616	138.428	71.5744	138.428	74.4189	138.428	71.6719	138.428	74.2992	138.428	71.807	138.428	74.1102	138.428	71.9616	138.428	73.868	138.428	72.1188	138.428	73.5967	138.428	72.2647	138.428	73.3262	138.428	72.389	138.428	73.086	138.428	72.4859	138.428	72.8976	138.428	72.5551	138.428	72.7679	138.428	72.6024	138.428	72.6885	138.428	72.6406
143.555	73.068	143.555	72.7057	143.555	73.4208	143.555	72.3521	143.555	73.7478	143.555	72.0274	143.555	74.0348	143.555	71.7522	143.555	74.2692	143.555	71.5445	143.555	74.4396	143.555	71.4168	143.555	74.536	143.555	71.373	143.555	74.5506	143.555	71.4068	143.555	74.4789	143.555	71.5039	143.555	74.3216	143.555	71.6444	143.555	74.0869	143.555	71.8065	143.555	73.7927	143.555	71.9702	143.555	73.467	143.555	72.1189	143.555	73.1458	143.555	72.2402	143.555	72.8656	143.555	72.3277	143.555	72.6538	143.555	72.381	143.555	72.5191	143.555	72.4073	143.555	72.4502	143.555	72.4224
148.682	73.2387	148.682	72.8552	148.682	73.6061	148.682	72.474	148.682	73.942	148.682	72.1156	148.682	74.2328	148.682	71.8022	148.682	74.4668	148.682	71.5547	148.682	74.6331	148.682	71.3889	148.682	74.7221	148.682	71.3118	148.682	74.7259	148.682	71.3196	148.682	74.6397	148.682	71.3985	148.682	74.4637	148.682	71.5277	148.682	74.2055	148.682	71.6841	148.682	73.8828	148.682	71.8458	148.682	73.5239	148.682	71.9946	148.682	73.1665	148.682	72.1174	148.682	72.8501	148.682	72.2069	148.682	72.6055	148.682	72.2631	148.682	72.4445	148.682	72.2939	148.682	72.3567	148.682	72.3165
153.809	73.4385	153.809	73.0544	153.809	73.8042	153.809	72.6691	153.809	74.1367	153.809	72.3026	153.809	74.4233	153.809	71.9769	153.809	74.6526	153.809	71.7134	153.809	74.8139	153.809	71.5292	153.809	74.8976	153.809	71.433	153.809	74.8951	153.809	71.4228	153.809	74.8012	153.809	71.4857	153.809	74.6151	153.809	71.6015	153.809	74.3436	153.809	71.7465	153.809	74.0036	153.809	71.8984	153.809	73.6238	153.809	72.038	153.809	73.2426	153.809	72.152	153.809	72.9023	153.809	72.2329	153.809	72.6368	153.809	72.281	153.809	72.4608	153.809	72.3051	153.809	72.3653	153.809	72.324
159.668	73.5308	159.668	73.1389	159.668	73.9038	159.668	72.7456	159.668	74.2433	159.668	72.3719	159.668	74.5366	159.668	72.0408	159.668	74.7726	159.668	71.7753	159.668	74.9409	159.668	71.5938	159.668	75.0317	159.668	71.5055	159.668	75.0368	159.668	71.508	159.668	74.9508	159.668	71.587	159.668	74.7732	159.668	71.7204	159.668	74.5109	159.668	71.883	159.668	74.1808	159.668	72.0513	159.668	73.8116	159.668	72.2057	159.668	73.4414	159.668	72.3326	159.668	73.1113	159.668	72.425	159.668	72.8539	159.668	72.4832	159.668	72.6822	159.668	72.5161	159.668	72.5868	159.668	72.5417
164.795	73.6051	164.795	73.2203	164.795	73.9689	164.795	72.8314	164.795	74.2975	164.795	72.4587	164.795	74.5788	164.795	72.1249	164.795	74.8016	164.795	71.853	164.795	74.9559	164.795	71.6621	164.795	75.032	164.795	71.5628	164.795	75.0222	164.795	71.5542	164.795	74.9214	164.795	71.6233	164.795	74.7299	164.795	71.7492	164.795	74.4562	164.795	71.9069	164.795	74.1192	164.795	72.073	164.795	73.7495	164.795	72.2278	164.795	73.3869	164.795	72.3571	164.795	73.0722	164.795	72.453	164.795	72.835	164.795	72.5143	164.795	72.6839	164.795	72.548	164.795	72.6048	164.795	72.5698
170.654	73.6033	170.654	73.2215	170.654	73.9646	170.654	72.8376	170.654	74.2903	170.654	72.4734	170.654	74.5673	170.654	72.1535	170.654	74.7842	170.654	71.9021	170.654	74.9301	170.654	71.7385	170.654	74.9947	170.654	71.6722	170.654	74.9698	170.654	71.6992	170.654	74.85	170.654	71.8036	170.654	74.6364	170.654	71.9609	170.654	74.3391	170.654	72.1442	170.654	73.9812	170.654	72.3283	170.654	73.5999	170.654	72.4926	170.654	73.2425	170.654	72.6217	170.654	72.9559	170.654	72.7063	170.654	72.7698	170.654	72.7437	170.654	72.6856	170.654	72.7392	170.654	72.6779	170.654	72.7081
176.514	73.5359	176.514	73.1373	176.514	73.9128	176.514	72.7367	176.514	74.2517	176.514	72.3581	176.514	74.5393	176.514	72.0288	176.514	74.7632	176.514	71.7759	176.514	74.9121	176.514	71.6205	176.514	74.975	176.514	71.5719	176.514	74.9423	176.514	71.6235	176.514	74.8079	176.514	71.7552	176.514	74.5714	176.514	71.9382	176.514	74.2428	176.514	72.1417	176.514	73.8464	176.514	72.3381	176.514	73.4237	176.514	72.5051	176.514	73.03	176.514	72.6266	176.514	72.7218	176.514	72.693	176.514	72.5365	176.514	72.7018	176.514	72.4756	176.514	72.6593	176.514	72.5073	176.514	72.5836
183.105	73.531	183.105	73.0905	183.105	73.9409	183.105	72.6394	183.105	74.305	183.105	72.2036	183.105	74.6107	183.105	71.8147	183.105	74.8468	183.105	71.5062	183.105	75.0023	183.105	71.3068	183.105	75.0665	183.105	71.2315	183.105	75.0294	183.105	71.2754	183.105	74.8837	183.105	71.415	183.105	74.6279	183.105	71.6154	183.105	74.2701	183.105	71.8395	183.105	73.8334	183.105	72.0543	183.105	73.3596	183.105	72.2347	183.105	72.9074	183.105	72.3634	183.105	72.5412	183.105	72.4308	183.105	72.3077	183.105	72.4359	183.105	72.2152	183.105	72.3873	183.105	72.2325	183.105	72.3069
189.697	73.6983	189.697	73.2667	189.697	74.096	189.697	72.8189	189.697	74.4461	189.697	72.3783	189.697	74.737	189.697	71.9739	189.697	74.9581	189.697	71.6385	189.697	75.0985	189.697	71.4022	189.697	75.1473	189.697	71.2839	189.697	75.0941	189.697	71.2847	189.697	74.9314	189.697	71.3863	189.697	74.6574	189.697	71.5571	189.697	74.2804	189.697	71.7608	189.697	73.8244	189.697	71.9641	189.697	73.3329	189.697	72.1401	189.697	72.8668	189.697	72.27	189.697	72.492	189.697	72.3429	189.697	72.2545	189.697	72.3559	189.697	72.1602	189.697	72.3161	189.697	72.1746	189.697	72.2436
196.289	73.7978	196.289	73.3657	196.289	74.1951	196.289	72.9179	196.289	74.5428	196.289	72.4799	196.289	74.829	196.289	72.0837	196.289	75.0426	196.289	71.7645	196.289	75.1722	196.289	71.554	196.289	75.2065	196.289	71.47	196.289	75.1347	196.289	71.5099	196.289	74.9488	196.289	71.6504	196.289	74.6472	196.289	71.8556	196.289	74.24	196.289	72.0864	196.289	73.7551	196.289	72.3079	196.289	73.2436	196.289	72.4929	196.289	72.7774	196.289	72.622	196.289	72.4313	196.289	72.6834	196.289	72.252	196.289	72.6725	196.289	72.2346	196.289	72.5944	196.289	72.3286	196.289	72.4675
202.881	73.8322	202.881	73.3769	202.881	74.2481	202.881	72.9021	202.881	74.6098	202.881	72.435	202.881	74.9054	202.881	72.0103	202.881	75.1239	202.881	71.6675	202.881	75.254	202.881	71.4417	202.881	75.2836	202.881	71.353	202.881	75.2008	202.881	71.3969	202.881	74.9955	202.881	71.5461	202.881	74.6634	202.881	71.7591	202.881	74.211	202.881	71.9923	202.881	73.6638	202.881	72.2076	202.881	73.0735	202.881	72.3765	202.881	72.5199	202.881	72.4792	202.881	72.095	202.881	72.5042	202.881	71.8659	202.881	72.4483	202.881	71.838	202.881	72.3191	202.881	71.9561	202.881	72.1397
210.205	73.8047	210.205	73.3478	210.205	74.2172	210.205	72.8632	210.205	74.5738	210.205	72.3751	210.205	74.8649	210.205	71.9171	210.205	75.0811	210.205	71.5305	210.205	75.2117	210.205	71.2562	210.205	75.2447	210.205	71.1226	210.205	75.1671	210.205	71.1326	210.205	74.9678	210.205	71.2622	210.205	74.6405	210.205	71.4689	210.205	74.1903	210.205	71.7053	210.205	73.6404	210.205	71.9298	210.205	73.0411	210.205	72.1111	210.205	72.4709	210.205	72.2279	210.205	72.0226	210.205	72.2683	210.205	71.7656	210.205	72.2294	210.205	71.7092	210.205	72.1189	210.205	71.8007	210.205	71.9606
217.529	73.6979	217.529	73.2283	217.529	74.1277	217.529	72.7388	217.529	74.5033	217.529	72.257	217.529	74.8129	217.529	71.8196	217.529	75.0453	217.529	71.4688	217.529	75.1885	217.529	71.2431	217.529	75.2294	217.529	71.1639	217.529	75.1547	217.529	71.2257	217.529	74.953	217.529	71.3975	217.529	74.6188	217.529	71.6338	217.529	74.1581	217.529	71.8878	217.529	73.5976	217.529	72.1205	217.529	72.9919	217.529	72.3029	217.529	72.4265	217.529	72.4159	217.529	71.9991	217.529	72.4486	217.529	71.7782	217.529	72.398	217.529	71.7648	217.529	72.2707	217.529	71.8966	217.529	72.0888
225.586	73.8117	225.586	73.3024	225.586	74.2636	225.586	72.7547	225.586	74.646	225.586	72.1992	225.586	74.9498	225.586	71.6811	225.586	75.1662	225.586	71.2581	225.586	75.2851	225.586	70.9877	225.586	75.2944	225.586	70.9057	225.586	75.1811	225.586	71.0079	225.586	74.9336	225.586	71.251	225.586	74.5467	225.586	71.5719	225.586	74.0287	225.586	71.909	225.586	73.412	225.586	72.2143	225.586	72.7645	225.586	72.4545	225.586	72.1908	225.586	72.6091	225.586	71.8043	225.586	72.6663	225.586	71.6702	225.586	72.6215	225.586	71.7637	225.586	72.4786	225.586	71.9925	225.586	72.2553
232.91	74.1086	232.91	73.6171	232.91	74.5388	232.91	73.0788	232.91	74.8984	232.91	72.5184	232.91	75.1798	232.91	71.9747	232.91	75.3741	232.91	71.5017	232.91	75.4703	232.91	71.1599	232.91	75.4541	232.91	70.9963	232.91	75.3094	232.91	71.0218	232.91	75.0204	232.91	71.2041	232.91	74.5763	232.91	71.4824	232.91	73.9793	232.91	71.7909	232.91	73.2573	232.91	72.0744	232.91	72.4808	232.91	72.2936	232.91	71.7723	232.91	72.4232	232.91	71.2822	232.91	72.4476	232.91	71.1098	232.91	72.3595	232.91	71.2321	232.91	72.1605	232.91	71.5286	232.91	71.8682
241.699	73.9552	241.699	73.4383	241.699	74.4143	241.699	72.8797	241.699	74.805	241.699	72.3058	241.699	75.1184	241.699	71.7579	241.699	75.3446	241.699	71.2911	241.699	75.471	241.699	70.9651	241.699	75.4818	241.699	70.8227	241.699	75.3586	241.699	70.868	241.699	75.0823	241.699	71.0626	241.699	74.6373	241.699	71.3426	241.699	74.0189	241.699	71.6422	241.699	73.2457	241.699	71.9077	241.699	72.3793	241.699	72.1011	241.699	71.5434	241.699	72.1976	241.699	70.9142	241.699	72.1816	241.699	70.639	241.699	72.0454	241.699	70.7264	241.699	71.7909	241.699	71.0466	241.699	71.4389
249.756	74.2292	249.756	73.6508	249.756	74.7271	249.756	73.0041	249.756	75.1384	249.756	72.3144	249.756	75.4586	249.756	71.6277	249.756	75.6821	249.756	71.0151	249.756	75.7997	249.756	70.564	249.756	75.7985	249.756	70.3471	249.756	75.6618	249.756	70.3823	249.756	75.3714	249.756	70.6193	249.756	74.9116	249.756	70.9684	249.756	74.2758	249.756	71.3399	249.756	73.4792	249.756	71.6662	249.756	72.5772	249.756	71.9039	249.756	71.6866	249.756	72.0281	249.756	70.982	249.756	72.0264	249.756	70.6239	249.756	71.8952	249.756	70.6432	249.756	71.6423	249.756	70.9219	249.756	71.2958
258.545	74.4901	258.545	74.0077	258.545	74.9048	258.545	73.4645	258.545	75.2484	258.545	72.8766	258.545	75.5174	258.545	72.2753	258.545	75.7051	258.545	71.7119	258.545	75.8004	258.545	71.2533	258.545	75.7871	258.545	70.9647	258.545	75.6451	258.545	70.8797	258.545	75.3527	258.545	70.9804	258.545	74.8911	258.545	71.2061	258.545	74.2517	258.545	71.4813	258.545	73.4495	258.545	71.7398	258.545	72.5427	258.545	71.9344	258.545	71.6541	258.545	72.0352	258.545	70.964	258.545	72.0254	258.545	70.63	258.545	71.8979	258.545	70.6698	258.545	71.656	258.545	70.955	258.545	71.3222
268.066	74.0386	268.066	73.4548	268.066	74.5436	268.066	72.804	268.066	74.9644	268.066	72.1123	268.066	75.2969	268.066	71.4287	268.066	75.535	268.066	70.8298	268.066	75.6684	268.066	70.4082	268.066	75.6815	268.066	70.236	268.066	75.5544	268.066	70.3218	268.066	75.2638	268.066	70.602	268.066	74.7877	268.066	70.9779	268.066	74.1119	268.066	71.3573	268.066	73.2433	268.066	71.6741	268.066	72.233	268.066	71.8874	268.066	71.2085	268.066	71.9743	268.066	70.3865	268.066	71.9227	268.066	69.9881	268.066	71.7279	268.066	70.0644	268.066	71.3944	268.066	70.4553	268.066	70.9471
277.588	74.399	277.588	73.8941	277.588	74.8211	277.588	73.3042	277.588	75.1647	277.588	72.636	277.588	75.4324	277.588	71.9148	277.588	75.6216	277.588	71.1955	277.588	75.7241	277.588	70.5679	277.588	75.7253	277.588	70.1393	277.588	75.6058	277.588	69.9855	277.588	75.3433	277.588	70.0998	277.588	74.9176	277.588	70.3956	277.588	74.3174	277.588	70.759	277.588	73.5507	277.588	71.0957	277.588	72.6616	277.588	71.3449	277.588	71.7483	277.588	71.4748	277.588	70.9661	277.588	71.4737	277.588	70.4765	277.588	71.3445	277.588	70.3468	277.588	71.1055	277.588	70.5026	277.588	70.7981
287.109	74.0877	287.109	73.6133	287.109	74.4938	287.109	73.0728	287.109	74.8311	287.109	72.4756	287.109	75.0964	287.109	71.8473	287.109	75.2817	287.109	71.2378	287.109	75.3732	287.109	70.7219	287.109	75.3517	287.109	70.3826	287.109	75.1939	287.109	70.2729	287.109	74.8756	287.109	70.3818	287.109	74.3775	287.109	70.64	287.109	73.6952	287.109	70.9566	287.109	72.855	287.109	71.2545	287.109	71.9375	287.109	71.4823	287.109	71.0935	287.109	71.6124	287.109	70.5116	287.109	71.6338	287.109	70.3069	287.109	71.5449	287.109	70.4318	287.109	71.3512	287.109	70.7331	287.109	71.0677
297.363	74.3929	297.363	73.873	297.363	74.8327	297.363	73.2746	297.363	75.1919	297.363	72.6072	297.363	75.468	297.363	71.8966	297.363	75.6536	297.363	71.1954	297.363	75.7355	297.363	70.587	297.363	75.6942	297.363	70.1692	297.363	75.5047	297.363	70.0101	297.363	75.1389	297.363	70.1036	297.363	74.5704	297.363	70.3718	297.363	73.7842	297.363	70.7105	297.363	72.794	297.363	71.0314	297.363	71.6745	297.363	71.2766	297.363	70.6008	297.363	71.4139	297.363	69.8385	297.363	71.4278	297.363	69.5875	297.363	71.3109	297.363	69.7953	297.363	71.0617	297.363	70.2307	297.363	70.6886
307.617	74.3552	307.617	73.8806	307.617	74.7674	307.617	73.3492	307.617	75.113	307.617	72.774	307.617	75.386	307.617	72.1823	307.617	75.576	307.617	71.6222	307.617	75.6671	307.617	71.1608	307.617	75.638	307.617	70.8664	307.617	75.4617	307.617	70.7772	307.617	75.1084	307.617	70.8769	307.617	74.5497	307.617	71.1027	307.617	73.7688	307.617	71.3755	307.617	72.7785	307.617	71.6269	307.617	71.6563	307.617	71.8089	307.617	70.5886	307.617	71.8921	307.617	69.8595	307.617	71.8593	307.617	69.6757	307.617	71.7002	307.617	69.9645	307.617	71.4087	307.617	70.4725	307.617	70.9883
318.604	74.0289	318.604	73.4977	318.604	74.4795	318.604	72.8903	318.604	74.8486	318.604	72.2215	318.604	75.1343	318.604	71.5268	318.604	75.3304	318.604	70.8711	318.604	75.4245	318.604	70.3467	318.604	75.3976	318.604	70.0457	318.604	75.2239	318.604	70.0093	318.604	74.8734	318.604	70.1976	318.604	74.3167	318.604	70.5137	318.604	73.5345	318.604	70.8545	318.604	72.5342	318.604	71.142	318.604	71.3822	318.604	71.3284	318.604	70.2474	318.604	71.3891	318.604	69.406	318.604	71.314	318.604	69.0947	318.604	71.1016	318.604	69.293	318.604	70.7568	318.604	69.7676	318.604	70.296
329.59	74.0479	329.59	73.5309	329.59	74.4915	329.59	72.9472	329.59	74.8585	329.59	72.3135	329.59	75.1443	329.59	71.6661	329.59	75.3404	329.59	71.0678	329.59	75.4328	329.59	70.6034	329.59	75.4013	329.59	70.3515	329.59	75.2201	329.59	70.3404	329.59	74.86	329.59	70.5273	329.59	74.2942	329.59	70.8228	329.59	73.5099	329.59	71.1344	329.59	72.5286	329.59	71.3931	329.59	71.4403	329.59	71.5578	329.59	70.4368	329.59	71.6098	329.59	69.7767	329.59	71.5453	329.59	69.6114	329.59	71.3685	329.59	69.8489	329.59	71.0867	329.59	70.2716	329.59	70.7112
341.309	73.6399	341.309	72.9816	341.309	74.1844	341.309	72.2207	341.309	74.6134	341.309	71.3917	341.309	74.9263	341.309	70.5734	341.309	75.119	341.309	69.9025	341.309	75.181	341.309	69.5441	341.309	75.0937	341.309	69.5936	341.309	74.8306	341.309	69.9948	341.309	74.3602	341.309	70.5863	341.309	73.6544	341.309	71.2109	341.309	72.7084	341.309	71.7676	341.309	71.5829	341.309	72.2074	341.309	70.4755	341.309	72.514	341.309	69.7463	341.309	72.6871	341.309	69.6897	341.309	72.7327	341.309	70.1989	341.309	72.6543	341.309	70.9164	341.309	72.4468	341.309	71.5813	341.309	72.0948
353.76	74.4634	353.76	73.8787	353.76	74.9094	353.76	73.1371	353.76	75.2336	353.76	72.2292	353.76	75.4469	353.76	71.1747	353.76	75.5511	353.76	70.0614	353.76	75.5369	353.76	69.0959	353.76	75.3827	353.76	68.5827	353.76	75.0542	353.76	68.7076	353.76	74.5058	353.76	69.3321	353.76	73.6856	353.76	70.1492	353.76	72.5485	353.76	70.9254	353.76	71.0916	353.76	71.5478	353.76	69.4532	353.76	71.9778	353.76	68.0972	353.76	72.2102	353.76	67.72	353.76	72.2513	353.76	68.392	353.76	72.1069	353.76	69.467	353.76	71.7737	353.76	70.4638	353.76	71.2344
366.211	74.7951	366.211	74.2494	366.211	75.2045	366.211	73.5474	366.211	75.4946	366.211	72.6725	366.211	75.6762	366.211	71.6258	366.211	75.7516	366.211	70.4566	366.211	75.7127	366.211	69.3135	366.211	75.5383	366.211	68.4795	366.211	75.1934	366.211	68.2473	366.211	74.6299	366.211	68.6328	366.211	73.7914	366.211	69.3549	366.211	72.6247	366.211	70.1177	366.211	71.111	366.211	70.7541	366.211	69.3569	366.211	71.1996	366.211	67.7918	366.211	71.4402	366.211	67.1721	366.211	71.4827	366.211	67.705	366.211	71.3369	366.211	68.734	366.211	71.0049	366.211	69.7131	366.211	70.4721
378.662	74.9773	378.662	74.5274	378.662	75.309	378.662	73.9396	378.662	75.5386	378.662	73.1969	378.662	75.6748	378.662	72.2965	378.662	75.7167	378.662	71.272	378.662	75.6507	378.662	70.2276	378.662	75.4488	378.662	69.3678	378.662	75.0673	378.662	68.9403	378.662	74.4477	378.662	69.0474	378.662	73.5208	378.662	69.5405	378.662	72.219	378.662	70.1708	378.662	70.5176	378.662	70.7548	378.662	68.5769	378.662	71.2024	378.662	67.0611	378.662	71.4835	378.662	66.9307	378.662	71.5959	378.662	67.9709	378.662	71.5431	378.662	69.2141	378.662	71.3184	378.662	70.207	378.662	70.8913
392.578	74.5551	392.578	74.1642	392.578	74.8386	392.578	73.6445	392.578	75.0327	392.578	72.9785	392.578	75.1483	392.578	72.1628	392.578	75.1863	392.578	71.2281	392.578	75.134	392.578	70.267	392.578	74.9628	392.578	69.4553	392.578	74.6264	392.578	69.0065	392.578	74.0612	392.578	69.0236	392.578	73.1881	392.578	69.4022	392.578	71.9174	392.578	69.9304	392.578	70.1664	392.578	70.4322	392.578	67.9439	392.578	70.8089	392.578	65.7032	392.578	71.0169	392.578	64.834	392.578	71.0405	392.578	65.9057	392.578	70.8704	392.578	67.5346	392.578	70.4878	392.578	68.8872	392.578	69.85
405.762	73.9046	405.762	73.4539	405.762	74.2392	405.762	72.8683	405.762	74.4731	405.762	72.1339	405.762	74.6158	405.762	71.2556	405.762	74.6669	405.762	70.284	405.762	74.6139	405.762	69.3546	405.762	74.4274	405.762	68.6978	405.762	74.0593	405.762	68.5319	405.762	73.4418	405.762	68.8658	405.762	72.4895	405.762	69.4887	405.762	71.1048	405.762	70.1616	405.762	69.2034	405.762	70.7329	405.762	66.848	405.762	71.1328	405.762	64.769	405.762	71.3371	405.762	64.5952	405.762	71.3418	405.762	66.1413	405.762	71.1479	405.762	67.849	405.762	70.7477	405.762	69.1729	405.762	70.1107
420.41	74.5812	420.41	74.1999	420.41	74.8505	420.41	73.6764	420.41	75.0311	420.41	72.9781	420.41	75.1364	420.41	72.0794	420.41	75.1677	420.41	70.9791	420.41	75.1117	420.41	69.7374	420.41	74.9377	420.41	68.5355	420.41	74.5954	420.41	67.7026	420.41	74.0152	420.41	67.5305	420.41	73.1077	420.41	67.9577	420.41	71.7625	420.41	68.6457	420.41	69.8438	420.41	69.2997	420.41	67.2067	420.41	69.769	420.41	63.9296	420.41	69.9963	420.41	61.6199	420.41	69.9655	420.41	62.7613	420.41	69.6729	420.41	65.088	420.41	69.1067	420.41	66.9332	420.41	68.2254
435.059	74.0227	435.059	73.7016	435.059	74.2335	435.059	73.2408	435.059	74.3589	435.059	72.6131	435.059	74.4147	435.059	71.8056	435.059	74.4045	435.059	70.8411	435.059	74.3156	435.059	69.8139	435.059	74.1171	435.059	68.926	435.059	73.7578	435.059	68.4443	435.059	73.1689	435.059	68.5046	435.059	72.269	435.059	68.9697	435.059	70.9757	435.059	69.5731	435.059	69.2379	435.059	70.108	435.059	67.1488	435.059	70.4654	435.059	65.2623	435.059	70.6005	435.059	64.6722	435.059	70.5025	435.059	65.5264	435.059	70.1799	435.059	66.8223	435.059	69.6495	435.059	67.9869	435.059	68.9224
450.439	74.07	450.439	73.7765	450.439	74.266	450.439	73.3595	450.439	74.3797	450.439	72.7852	450.439	74.4168	450.439	72.0199	450.439	74.3728	450.439	71.0475	450.439	74.2309	450.439	69.9029	450.439	73.9566	450.439	68.7298	450.439	73.4926	450.439	67.8285	450.439	72.7557	450.439	67.532	450.439	71.636	450.439	67.8722	450.439	69.9961	450.439	68.5387	450.439	67.6792	450.439	69.204	450.439	64.6326	450.439	69.6854	450.439	61.7652	450.439	69.9117	450.439	61.8369	450.439	69.8683	450.439	63.9831	450.439	69.5695	450.439	65.9064	450.439	69.0406	450.439	67.291	450.439	68.2943
466.553	73.7532	466.553	73.5113	466.553	73.8862	466.553	73.135	466.553	73.9316	466.553	72.598	466.553	73.9046	466.553	71.882	466.553	73.811	466.553	70.9933	466.553	73.6412	466.553	69.9917	466.553	73.3625	466.553	69.0256	466.553	72.9136	466.553	68.3277	466.553	72.2054	466.553	68.0877	466.553	71.1255	466.553	68.2768	466.553	69.5485	466.553	68.6759	466.553	67.3711	466.553	69.0581	466.553	64.7017	466.553	69.2807	466.553	62.5542	466.553	69.2774	466.553	62.627	466.553	69.0337	466.553	64.0742	466.553	68.5758	466.553	65.4347	466.553	67.9629	466.553	66.4497	466.553	67.2551
482.666	73.2887	482.666	73.0652	482.666	73.4278	482.666	72.726	482.666	73.5032	482.666	72.233	482.666	73.5243	482.666	71.5486	482.666	73.4871	482.666	70.6518	482.666	73.3703	482.666	69.5673	482.666	73.1295	482.666	68.4148	482.666	72.6935	482.666	67.4556	482.666	71.9632	482.666	67.0088	482.666	70.8106	482.666	67.1666	482.666	69.0738	482.666	67.6864	482.666	66.5505	482.666	68.2508	482.666	63.1057	482.666	68.658	482.666	59.7952	482.666	68.8175	482.666	60.2451	482.666	68.7025	482.666	62.7047	482.666	68.3249	482.666	64.6283	482.666	67.7232	482.666	65.953	482.666	66.9377
500.244	73.3368	500.244	73.0844	500.244	73.4913	500.244	72.7149	500.244	73.5609	500.244	72.2035	500.244	73.5523	500.244	71.5263	500.244	73.4636	500.244	70.6761	500.244	73.2779	500.244	69.6921	500.244	72.9542	500.244	68.6994	500.244	72.4205	500.244	67.9235	500.244	71.571	500.244	67.5878	500.244	70.2677	500.244	67.715	500.244	68.3462	500.244	68.0988	500.244	65.6752	500.244	68.488	500.244	62.5922	500.244	68.7094	500.244	61.1861	500.244	68.6714	500.244	62.4841	500.244	68.3434	500.244	64.071	500.244	67.7561	500.244	65.0781	500.244	67.0199	500.244	65.7099	500.244	66.3065
517.822	72.867	517.822	72.5865	517.822	73.0418	517.822	72.1925	517.822	73.1162	517.822	71.6712	517.822	73.0968	517.822	71.0046	517.822	72.9895	517.822	70.1841	517.822	72.7903	517.822	69.2396	517.822	72.4711	517.822	68.2803	517.822	71.9671	517.822	67.5148	517.822	71.1712	517.822	67.1667	517.822	69.9328	517.822	67.284	517.822	68.0502	517.822	67.6839	517.822	65.2508	517.822	68.1188	517.822	61.3065	517.822	68.4097	517.822	57.9019	517.822	68.4605	517.822	59.5597	517.822	68.2344	517.822	62.306	517.822	67.7427	517.822	64.1126	517.822	67.0444	517.822	65.2968	517.822	66.2219
536.133	73.0388	536.133	72.7386	536.133	73.134	536.133	72.2476	536.133	73.0341	536.133	71.5967	536.133	72.7687	536.133	70.817	536.133	72.3708	536.133	69.9248	536.133	71.8507	536.133	68.9287	536.133	71.1698	536.133	67.8736	536.133	70.2288	536.133	66.912	536.133	68.8757	536.133	66.3282	536.133	66.9347	536.133	66.3549	536.133	64.3227	536.133	66.9009	536.133	61.6046	536.133	67.636	536.133	60.6784	536.133	68.2677	536.133	61.5447	536.133	68.6219	536.133	62.2478	536.133	68.5941	536.133	62.3747	536.133	68.1047	536.133	62.6534	536.133	67.0929	536.133	63.8501	536.133	65.5771
554.443	72.9495	554.443	72.6876	554.443	73.0392	554.443	72.2598	554.443	72.9705	554.443	71.6837	554.443	72.7743	554.443	70.9727	554.443	72.4794	554.443	70.1281	554.443	72.0843	554.443	69.1528	554.443	71.532	554.443	68.0935	554.443	70.7028	554.443	67.1011	554.443	69.4169	554.443	66.4425	554.443	67.4334	554.443	66.3335	554.443	64.4598	554.443	66.6971	554.443	60.539	554.443	67.2294	554.443	58.5167	554.443	67.644	554.443	60.2423	554.443	67.7541	554.443	61.5598	554.443	67.4301	554.443	61.5063	554.443	66.5547	554.443	60.7301	554.443	65.0235	554.443	60.9608	554.443	62.8931
574.219	73.5043	574.219	73.1887	574.219	73.6073	574.219	72.6746	574.219	73.5074	574.219	71.9906	574.219	73.2337	574.219	71.1605	574.219	72.8185	574.219	70.1852	574.219	72.2719	574.219	69.0493	574.219	71.5535	574.219	67.7718	574.219	70.5534	574.219	66.506	574.219	69.0819	574.219	65.6275	574.219	66.8549	574.219	65.5309	574.219	63.4791	574.219	66.1383	574.219	58.9724	574.219	66.9828	574.219	57.67	574.219	67.6793	574.219	60.2002	574.219	68.0243	574.219	61.479	574.219	67.8969	574.219	61.1839	574.219	67.1827	574.219	60.3319	574.219	65.7536	574.219	61.1279	574.219	63.5547
594.727	73.1719	594.727	72.936	594.727	73.2336	594.727	72.5432	594.727	73.1264	594.727	72.0147	594.727	72.8787	594.727	71.347	594.727	72.5232	594.727	70.4971	594.727	72.0651	594.727	69.3977	594.727	71.4504	594.727	68.0084	594.727	70.5501	594.727	66.4214	594.727	69.1512	594.727	65.0521	594.727	66.9223	594.727	64.6103	594.727	63.2788	594.727	65.2492	594.727	57.148	594.727	66.2957	594.727	54.3098	594.727	67.162	594.727	59.2993	594.727	67.5953	594.727	61.5197	594.727	67.4855	594.727	61.7408	594.727	66.7462	594.727	61.0644	594.727	65.2987	594.727	61.314	594.727	63.2192
615.234	73.6017	615.234	73.4177	615.234	73.5564	615.234	73.0177	615.234	73.3002	615.234	72.4424	615.234	72.8723	615.234	71.7361	615.234	72.3105	615.234	70.91	615.234	71.622	615.234	69.9224	615.234	70.7547	615.234	68.7012	615.234	69.5775	615.234	67.2122	615.234	67.8653	615.234	65.5926	615.234	65.2711	615.234	64.3582	615.234	61.3376	615.234	64.2064	615.234	56.9764	615.234	65.0226	615.234	58.0669	615.234	66.0153	615.234	60.4463	615.234	66.6458	615.234	60.7938	615.234	66.6796	615.234	58.9256	615.234	65.9641	615.234	55.1722	615.234	64.2828	615.234	56.4739	615.234	61.2332
637.207	74.2311	637.207	73.8125	637.207	74.3622	637.207	73.1237	637.207	74.2171	637.207	72.2232	637.207	73.8216	637.207	71.2061	637.207	73.2018	637.207	70.1635	637.207	72.3675	637.207	69.1206	637.207	71.2844	637.207	68.0294	637.207	69.8377	637.207	66.8622	637.207	67.7823	637.207	65.7693	637.207	64.6458	637.207	65.1705	637.207	59.4386	637.207	65.433	637.207	52.2929	637.207	66.3389	637.207	56.6458	637.207	67.3505	637.207	59.7735	637.207	68.0956	637.207	60.0181	637.207	68.3893	637.207	58.646	637.207	68.1135	637.207	58.9908	637.207	67.135	637.207	62.3081	637.207	65.2622
659.912	74.0134	659.912	73.8725	659.912	73.8649	659.912	73.4387	659.912	73.4569	659.912	72.7363	659.912	72.8414	659.912	71.8102	659.912	72.0787	659.912	70.7112	659.912	71.2098	659.912	69.4764	659.912	70.2145	659.912	68.1335	659.912	68.972	659.912	66.7583	659.912	67.2312	659.912	65.5876	659.912	64.5473	659.912	65.0327	659.912	59.9886	659.912	65.3047	659.912	50.5327	659.912	66.0805	659.912	51.869	659.912	66.8621	659.912	57.5657	659.912	67.3153	659.912	58.6498	659.912	67.2443	659.912	56.7627	659.912	66.4837	659.912	53.1003	659.912	64.8062	659.912	56.8159	659.912	61.8039
683.35	74.3795	683.35	74.4071	683.35	74.043	683.35	74.095	683.35	73.4578	683.35	73.4455	683.35	72.7014	683.35	72.4894	683.35	71.8442	683.35	71.2724	683.35	70.9112	683.35	69.8336	683.35	69.8421	683.35	68.1994	683.35	68.4652	683.35	66.4449	683.35	66.4776	683.35	64.8754	683.35	63.3749	683.35	64.1581	683.35	58.3152	683.35	64.6748	683.35	53.5178	683.35	65.8509	683.35	57.2886	683.35	66.9662	683.35	59.5295	683.35	67.6629	683.35	58.8617	683.35	67.7851	683.35	54.4352	683.35	67.2139	683.35	47.1795	683.35	65.7665	683.35	57.9636	683.35	63.0477
706.787	74.8743	706.787	74.8581	706.787	74.5095	706.787	74.4177	706.787	73.8341	706.787	73.5464	706.787	72.9326	706.787	72.2958	706.787	71.8725	706.787	70.8058	706.787	70.6565	706.787	69.2962	706.787	69.1895	706.787	67.9404	706.787	67.2651	706.787	66.7046	706.787	64.5242	706.787	65.4203	706.787	60.288	706.787	64.0945	706.787	53.3813	706.787	63.2533	706.787	51.6392	706.787	63.6372	706.787	55.5735	706.787	64.9384	706.787	55.9942	706.787	66.2389	706.787	54.1649	706.787	67.0537	706.787	55.6444	706.787	67.2452	706.787	60.2101	706.787	66.778	706.787	63.5236	706.787	65.5947
731.689	74.6895	731.689	74.8162	731.689	74.1975	731.689	74.5433	731.689	73.3964	731.689	73.8616	731.689	72.3541	731.689	72.7965	731.689	71.1244	731.689	71.4247	731.689	69.7145	731.689	69.8857	731.689	68.0608	731.689	68.3461	731.689	66.0079	731.689	66.9032	731.689	63.2497	731.689	65.5352	731.689	59.1406	731.689	64.2339	731.689	51.8296	731.689	63.256	731.689	38.7613	731.689	63.1113	731.689	49.7984	731.689	63.8563	731.689	51.0773	731.689	64.8673	731.689	48.3081	731.689	65.5716	731.689	50.889	731.689	65.6905	731.689	57.1331	731.689	65.0877	731.689	61.1439	731.689	63.6415
758.057	74.4364	758.057	74.6931	758.057	73.7609	758.057	74.4856	758.057	72.7511	758.057	73.8029	758.057	71.5248	758.057	72.6767	758.057	70.1855	758.057	71.2028	758.057	68.7389	758.057	69.5561	758.057	67.0503	758.057	67.9433	758.057	64.8655	758.057	66.4756	758.057	61.776	758.057	65.124	758.057	56.9371	758.057	63.916	758.057	48.3965	758.057	63.2186	758.057	49.3806	758.057	63.5169	758.057	53.5838	758.057	64.5668	758.057	53.4317	758.057	65.6144	758.057	48.6548	758.057	66.1598	758.057	44.8162	758.057	65.9913	758.057	55.0053	758.057	65.0084	758.057	60.0497	758.057	63.1093
784.424	74.2624	784.424	74.5541	784.424	73.6201	784.424	74.4602	784.424	72.6722	784.424	73.9536	784.424	71.4672	784.424	73.0227	784.424	70.0263	784.424	71.6964	784.424	68.3033	784.424	70.0825	784.424	66.1644	784.424	68.3845	784.424	63.3718	784.424	66.8279	784.424	59.4767	784.424	65.4973	784.424	53.3085	784.424	64.3209	784.424	39.8417	784.424	63.3236	784.424	47.1121	784.424	62.8591	784.424	50.6909	784.424	63.2581	784.424	50.0773	784.424	64.1699	784.424	48.0857	784.424	64.9339	784.424	51.8035	784.424	65.1355	784.424	56.9899	784.424	64.5781	784.424	60.6845	784.424	63.139
812.256	74.0605	812.256	74.2175	812.256	73.4834	812.256	73.948	812.256	72.4921	812.256	73.248	812.256	71.0857	812.256	72.1231	812.256	69.2363	812.256	70.6147	812.256	66.8611	812.256	68.8441	812.256	63.7961	812.256	67.0455	812.256	59.7975	812.256	65.4951	812.256	54.7965	812.256	64.313	812.256	50.7883	812.256	63.4181	812.256	50.4598	812.256	62.7944	812.256	49.6786	812.256	62.672	812.256	46.2302	812.256	63.1987	812.256	47.8847	812.256	64.0171	812.256	53.0992	812.256	64.5478	812.256	55.4184	812.256	64.3571	812.256	56.1782	812.256	63.1633	812.256	57.9011	812.256	60.8382
840.82	73.6526	840.82	73.9568	840.82	72.9147	840.82	73.8149	840.82	71.7684	840.82	73.2296	840.82	70.2363	840.82	72.2263	840.82	68.2925	840.82	70.8769	840.82	65.8003	840.82	69.3272	840.82	62.4404	840.82	67.777	840.82	57.5344	840.82	66.3552	840.82	49.0098	840.82	64.9884	840.82	36.8401	840.82	63.4643	840.82	47.6859	840.82	61.7137	840.82	49.8073	840.82	60.3698	840.82	50.6381	840.82	60.7505	840.82	52.0445	840.82	62.3963	840.82	52.8379	840.82	63.7664	840.82	51.4515	840.82	64.1731	840.82	50.6708	840.82	63.3396	840.82	56.4605	840.82	60.949
870.85	73.5717	870.85	73.8424	870.85	72.8169	870.85	73.6527	870.85	71.5658	870.85	73.0265	870.85	69.809	870.85	71.9817	870.85	67.5012	870.85	70.5476	870.85	64.5032	870.85	68.8128	870.85	60.6202	870.85	66.9839	870.85	56.3836	870.85	65.3743	870.85	54.7014	870.85	64.2151	870.85	54.67	870.85	63.4724	870.85	52.5361	870.85	63.023	870.85	44.1632	870.85	62.9469	870.85	44.7465	870.85	63.4256	870.85	53.2232	870.85	64.2908	870.85	55.4013	870.85	65.0176	870.85	54.269	870.85	65.1072	870.85	52.629	870.85	64.1754	870.85	57.4426	870.85	61.8067
901.611	73.5288	901.611	73.7587	901.611	72.8045	901.611	73.5003	901.611	71.6101	901.611	72.7932	901.611	69.9623	901.611	71.6994	901.611	67.7935	901.611	70.2948	901.611	64.871	901.611	68.6722	901.611	60.8034	901.611	66.9456	901.611	56.1841	901.611	65.236	901.611	56.1519	901.611	63.6374	901.611	58.0134	901.611	62.2237	901.611	57.8352	901.611	61.1793	901.611	54.9862	901.611	60.9004	901.611	49.0412	901.611	61.5622	901.611	50.0092	901.611	62.6563	901.611	53.4512	901.611	63.5035	901.611	53.7367	901.611	63.6686	901.611	53.8966	901.611	62.8676	901.611	57.3655	901.611	60.826
933.105	73.7275	933.105	73.9976	933.105	72.9252	933.105	73.7525	933.105	71.596	933.105	73.0303	933.105	69.7505	933.105	71.8813	933.105	67.37	933.105	70.3676	933.105	64.4024	933.105	68.5953	933.105	61.0584	933.105	66.7727	933.105	58.7137	933.105	65.2084	933.105	58.1271	933.105	64.1016	933.105	56.9354	933.105	63.322	933.105	53.7211	933.105	62.619	933.105	53.7526	933.105	62.0298	933.105	57.5238	933.105	61.9703	933.105	58.7026	933.105	62.625	933.105	56.6882	933.105	63.4812	933.105	50.6868	933.105	63.9319	933.105	53.5922	933.105	63.629	933.105	59.3979	933.105	62.2962
966.064	73.6282	966.064	73.9379	966.064	72.753	966.064	73.6716	966.064	71.3845	966.064	72.8847	966.064	69.616	966.064	71.6871	966.064	67.4771	966.064	70.2134	966.064	64.9257	966.064	68.5857	966.064	62.2966	966.064	66.91	966.064	61.1438	966.064	65.3368	966.064	61.7483	966.064	64.1089	966.064	61.8843	966.064	63.4185	966.064	60.0947	966.064	63.1643	966.064	54.734	966.064	63.054	966.064	45.8218	966.064	62.9263	966.064	54.6406	966.064	62.8414	966.064	56.8201	966.064	62.8684	966.064	55.0527	966.064	62.8007	966.064	52.5032	966.064	62.1628	966.064	56.6602	966.064	60.3547
999.756	73.8644	999.756	74.2501	999.756	72.9971	999.756	74.1237	999.756	71.7164	999.756	73.4875	999.756	70.1023	999.756	72.3795	999.756	68.1623	999.756	70.9038	999.756	65.8027	999.756	69.282	999.756	63.2683	999.756	67.8398	999.756	62.1891	999.756	66.7651	999.756	63.1034	999.756	65.862	999.756	63.6618	999.756	64.761	999.756	62.5414	999.756	63.3286	999.756	59.5054	999.756	62.0206	999.756	57.6215	999.756	61.7472	999.756	59.3997	999.756	62.4188	999.756	59.59	999.756	63.0582	999.756	56.6707	999.756	63.1403	999.756	53.1806	999.756	62.5003	999.756	57.4347	999.756	60.8456
1,034.91	73.4468	1,034.91	73.9527	1,034.91	72.5572	1,034.91	74.0099	1,034.91	71.4255	1,034.91	73.6082	1,034.91	70.223	1,034.91	72.7583	1,034.91	68.986	1,034.91	71.467	1,034.91	67.4812	1,034.91	69.7528	1,034.91	65.3339	1,034.91	67.7483	1,034.91	62.5849	1,034.91	65.8958	1,034.91	61.2038	1,034.91	64.8723	1,034.91	62.1855	1,034.91	64.7627	1,034.91	62.4105	1,034.91	64.9472	1,034.91	60.4468	1,034.91	64.9745	1,034.91	58.1524	1,034.91	64.7548	1,034.91	60.0963	1,034.91	64.3689	1,034.91	61.1914	1,034.91	63.9311	1,034.91	58.9539	1,034.91	63.4735	1,034.91	53.5182	1,034.91	62.742	1,034.91	56.872	1,034.91	60.9888
1,071.53	72.8504	1,071.53	73.6516	1,071.53	71.8142	1,071.53	74.0597	1,071.53	70.8022	1,071.53	73.9925	1,071.53	70.0255	1,071.53	73.3871	1,071.53	69.4033	1,071.53	72.1911	1,071.53	68.6064	1,071.53	70.4178	1,071.53	67.3093	1,071.53	68.2869	1,071.53	65.4056	1,071.53	66.3829	1,071.53	63.4734	1,071.53	65.3088	1,071.53	62.8516	1,071.53	64.9177	1,071.53	63.1547	1,071.53	64.7379	1,071.53	63.0775	1,071.53	64.6075	1,071.53	62.9106	1,071.53	64.4592	1,071.53	63.1217	1,071.53	64.082	1,071.53	62.4472	1,071.53	63.3473	1,071.53	59.2502	1,071.53	62.5808	1,071.53	54.2424	1,071.53	62.1402	1,071.53	58.0988	1,071.53	61.1981
1,109.62	72.077	1,109.62	73.0708	1,109.62	71.0489	1,109.62	73.6896	1,109.62	70.3762	1,109.62	73.7547	1,109.62	70.2212	1,109.62	73.2337	1,109.62	70.3445	1,109.62	72.1902	1,109.62	70.2711	1,109.62	70.7333	1,109.62	69.5232	1,109.62	68.9807	1,109.62	67.7045	1,109.62	67.0475	1,109.62	64.7889	1,109.62	65.1036	1,109.62	62.6064	1,109.62	63.561	1,109.62	62.6096	1,109.62	63.1088	1,109.62	61.7146	1,109.62	63.8067	1,109.62	60.6444	1,109.62	64.7369	1,109.62	63.0421	1,109.62	65.0994	1,109.62	64.3447	1,109.62	64.6239	1,109.62	62.2076	1,109.62	63.6086	1,109.62	54.902	1,109.62	62.6415	1,109.62	56.1543	1,109.62	61.05
1,148.44	71.5226	1,148.44	72.6468	1,148.44	70.5662	1,148.44	73.5974	1,148.44	70.1057	1,148.44	74.1116	1,148.44	70.2271	1,148.44	73.9889	1,148.44	70.6563	1,148.44	73.0978	1,148.44	70.9056	1,148.44	71.4602	1,148.44	70.4781	1,148.44	69.4145	1,148.44	68.9355	1,148.44	67.6226	1,148.44	65.9902	1,148.44	66.3652	1,148.44	62.8192	1,148.44	65.1978	1,148.44	62.6981	1,148.44	64.0702	1,148.44	62.9625	1,148.44	64.0314	1,148.44	62.566	1,148.44	65.1676	1,148.44	63.5837	1,148.44	65.8336	1,148.44	63.8568	1,148.44	64.9568	1,148.44	60.772	1,148.44	62.2646	1,148.44	54.0623	1,148.44	59.7113	1,148.44	57.9499	1,148.44	59.8468
1,189.45	72.7849	1,189.45	73.8377	1,189.45	71.6814	1,189.45	74.5594	1,189.45	71.0129	1,189.45	74.8589	1,189.45	71.0928	1,189.45	74.6523	1,189.45	71.6607	1,189.45	73.7671	1,189.45	72.112	1,189.45	72.0168	1,189.45	71.8708	1,189.45	69.3384	1,189.45	70.4235	1,189.45	66.0331	1,189.45	67.3652	1,189.45	63.2236	1,189.45	64.1783	1,189.45	62.0603	1,189.45	64.3943	1,189.45	62.1548	1,189.45	63.0007	1,189.45	63.3589	1,189.45	52.9716	1,189.45	65.1881	1,189.45	60.1152	1,189.45	66.3796	1,189.45	64.609	1,189.45	66.0681	1,189.45	62.9632	1,189.45	63.6919	1,189.45	53.777	1,189.45	59.2413	1,189.45	50.1883	1,189.45	56.062
1,231.2	74.0299	1,231.2	75.2754	1,231.2	72.5061	1,231.2	75.7505	1,231.2	71.5194	1,231.2	75.3948	1,231.2	71.6256	1,231.2	74.5626	1,231.2	72.4804	1,231.2	73.6837	1,231.2	73.2269	1,231.2	72.6142	1,231.2	73.1423	1,231.2	70.8314	1,231.2	71.6562	1,231.2	68.0589	1,231.2	68.1267	1,231.2	64.6852	1,231.2	63.6285	1,231.2	62.6388	1,231.2	64.8546	1,231.2	62.9103	1,231.2	65.1938	1,231.2	63.6258	1,231.2	60.6114	1,231.2	64.4476	1,231.2	56.0194	1,231.2	65.5228	1,231.2	60.8291	1,231.2	66.0081	1,231.2	59.5912	1,231.2	64.9973	1,231.2	51.6589	1,231.2	62.0083	1,231.2	50.1413	1,231.2	57.1603
1,274.41	73.9848	1,274.41	75.3939	1,274.41	72.5388	1,274.41	76.2613	1,274.41	71.7582	1,274.41	76.3529	1,274.41	72.003	1,274.41	75.6181	1,274.41	72.8646	1,274.41	74.1561	1,274.41	73.5947	1,274.41	72.2176	1,274.41	73.5896	1,274.41	70.1143	1,274.41	72.3632	1,274.41	67.9819	1,274.41	69.3303	1,274.41	65.6527	1,274.41	64.8028	1,274.41	62.9164	1,274.41	65.4248	1,274.41	60.725	1,274.41	67.076	1,274.41	61.8223	1,274.41	64.807	1,274.41	64.3552	1,274.41	54.898	1,274.41	65.8801	1,274.41	56.3918	1,274.41	65.98	1,274.41	60.2668	1,274.41	64.6855	1,274.41	56.5405	1,274.41	62.1424	1,274.41	48.7646	1,274.41	57.8859
1,319.82	74.1318	1,319.82	75.5703	1,319.82	72.8096	1,319.82	76.3961	1,319.82	72.4248	1,319.82	76.3258	1,319.82	73.0912	1,319.82	75.4036	1,319.82	74.2058	1,319.82	73.8384	1,319.82	75.0682	1,319.82	71.8524	1,319.82	75.1809	1,319.82	69.6391	1,319.82	74.1335	1,319.82	67.5324	1,319.82	71.3232	1,319.82	66.036	1,319.82	66.0006	1,319.82	65.1851	1,319.82	64.0835	1,319.82	64.2863	1,319.82	66.4789	1,319.82	62.983	1,319.82	64.9299	1,319.82	62.3951	1,319.82	61.3519	1,319.82	63.5106	1,319.82	63.8336	1,319.82	64.6252	1,319.82	64.3831	1,319.82	64.5472	1,319.82	60.2754	1,319.82	63.0592	1,319.82	52.9766	1,319.82	59.5072
1,365.97	73.5889	1,365.97	74.7902	1,365.97	72.7571	1,365.97	75.6046	1,365.97	72.8642	1,365.97	75.6689	1,365.97	73.6836	1,365.97	74.9943	1,365.97	74.6147	1,365.97	73.7477	1,365.97	75.1902	1,365.97	71.9915	1,365.97	75.1192	1,365.97	69.5962	1,365.97	74.1408	1,365.97	66.4484	1,365.97	71.8379	1,365.97	63.2457	1,365.97	67.5409	1,365.97	62.5398	1,365.97	62.4907	1,365.97	63.7353	1,365.97	63.5592	1,365.97	64.3797	1,365.97	63.8266	1,365.97	64.2391	1,365.97	61.5215	1,365.97	63.8734	1,365.97	61.5069	1,365.97	63.545	1,365.97	62.3701	1,365.97	62.9852	1,365.97	59.7497	1,365.97	61.7758	1,365.97	54.884	1,365.97	58.8301
1,414.31	73.0536	1,414.31	74.3288	1,414.31	72.4881	1,414.31	75.4546	1,414.31	72.8986	1,414.31	75.8081	1,414.31	73.8005	1,414.31	75.267	1,414.31	74.5967	1,414.31	74.1069	1,414.31	74.8978	1,414.31	72.7143	1,414.31	74.4779	1,414.31	71.1489	1,414.31	73.1204	1,414.31	69.0897	1,414.31	70.4832	1,414.31	65.9124	1,414.31	66.5038	1,414.31	59.7986	1,414.31	64.2821	1,414.31	47.6917	1,414.31	64.6713	1,414.31	61.4039	1,414.31	62.3268	1,414.31	65.5246	1,414.31	55.5237	1,414.31	66.5417	1,414.31	60.809	1,414.31	65.4812	1,414.31	63.5789	1,414.31	63.1885	1,414.31	61.2624	1,414.31	61.2216	1,414.31	54.2833	1,414.31	58.1506
1,464.11	73.1471	1,464.11	74.5219	1,464.11	72.5192	1,464.11	75.6882	1,464.11	72.823	1,464.11	75.8325	1,464.11	73.6704	1,464.11	74.7125	1,464.11	74.5603	1,464.11	72.704	1,464.11	75.0684	1,464.11	70.9105	1,464.11	74.9101	1,464.11	70.0878	1,464.11	73.7931	1,464.11	69.6066	1,464.11	71.2244	1,464.11	68.6137	1,464.11	66.6825	1,464.11	66.3721	1,464.11	63.5867	1,464.11	61.7629	1,464.11	64.7563	1,464.11	54.2776	1,464.11	63.2221	1,464.11	59.3856	1,464.11	58.4631	1,464.11	63.0562	1,464.11	58.7682	1,464.11	63.7848	1,464.11	59.9718	1,464.11	62.843	1,464.11	57.2847	1,464.11	61.1619	1,464.11	54.4497	1,464.11	58.4639
1,515.38	74.039	1,515.38	74.9652	1,515.38	73.4724	1,515.38	75.7986	1,515.38	73.4841	1,515.38	75.99	1,515.38	74.0328	1,515.38	75.1044	1,515.38	74.7656	1,515.38	72.9456	1,515.38	75.1958	1,515.38	69.8274	1,515.38	74.9448	1,515.38	67.5562	1,515.38	73.6672	1,515.38	67.7679	1,515.38	70.6482	1,515.38	68.2587	1,515.38	63.8686	1,515.38	67.3914	1,515.38	60.7584	1,515.38	64.7101	1,515.38	66.6343	1,515.38	61.361	1,515.38	67.0288	1,515.38	62.0831	1,515.38	63.6109	1,515.38	63.5984	1,515.38	58.6398	1,515.38	62.9446	1,515.38	59.2415	1,515.38	61.2255	1,515.38	58.6721	1,515.38	60.7497	1,515.38	56.6779	1,515.38	59.3316
1,568.85	73.8082	1,568.85	74.7413	1,568.85	73.1514	1,568.85	75.4767	1,568.85	73.2313	1,568.85	75.8468	1,568.85	73.8866	1,568.85	75.6115	1,568.85	74.5777	1,568.85	74.345	1,568.85	74.8682	1,568.85	71.7421	1,568.85	74.5315	1,568.85	68.1422	1,568.85	73.3468	1,568.85	66.0349	1,568.85	70.6804	1,568.85	66.5053	1,568.85	64.7778	1,568.85	66.3096	1,568.85	59.4708	1,568.85	64.1207	1,568.85	65.6485	1,568.85	61.7724	1,568.85	66.3638	1,568.85	64.1097	1,568.85	62.7604	1,568.85	66.0023	1,568.85	58.6076	1,568.85	65.2295	1,568.85	61.3633	1,568.85	62.2303	1,568.85	60.5097	1,568.85	59.8493	1,568.85	55.6139	1,568.85	57.7087
1,624.51	73.693	1,624.51	74.65	1,624.51	73.2202	1,624.51	75.1383	1,624.51	73.512	1,624.51	74.7089	1,624.51	74.0902	1,624.51	73.6571	1,624.51	74.5454	1,624.51	72.4328	1,624.51	74.6373	1,624.51	70.8533	1,624.51	74.2201	1,624.51	68.4649	1,624.51	73.0585	1,624.51	65.7754	1,624.51	70.4644	1,624.51	65.1256	1,624.51	64.8948	1,624.51	65.6496	1,624.51	59.1786	1,624.51	64.7113	1,624.51	63.6726	1,624.51	62.3515	1,624.51	64.4703	1,624.51	62.3375	1,624.51	63.3734	1,624.51	64.0068	1,624.51	62.2399	1,624.51	63.5602	1,624.51	62.6213	1,624.51	60.6746	1,624.51	62.2132	1,624.51	58.8174	1,624.51	58.9314	1,624.51	58.0737
1,681.64	72.7429	1,681.64	74.0261	1,681.64	72.9697	1,681.64	75.5819	1,681.64	73.8995	1,681.64	75.9934	1,681.64	74.6981	1,681.64	74.9455	1,681.64	75.1173	1,681.64	72.8569	1,681.64	75.1116	1,681.64	70.3919	1,681.64	74.6283	1,681.64	67.4797	1,681.64	73.2999	1,681.64	63.8283	1,681.64	70.1115	1,681.64	61.6982	1,681.64	62.847	1,681.64	62.3771	1,681.64	60.7295	1,681.64	62.3597	1,681.64	64.9167	1,681.64	61.3307	1,681.64	66.1304	1,681.64	62.7553	1,681.64	66.8745	1,681.64	65.0436	1,681.64	64.8568	1,681.64	64.8645	1,681.64	61.7911	1,681.64	61.8692	1,681.64	62.4747	1,681.64	58.8706	1,681.64	60.2529	1,681.64	57.9065
1,740.97	73.5783	1,740.97	74.199	1,740.97	73.4392	1,740.97	75.1803	1,740.97	73.4222	1,740.97	75.499	1,740.97	73.6136	1,740.97	74.4881	1,740.97	74.0451	1,740.97	72.1853	1,740.97	74.435	1,740.97	69.1209	1,740.97	74.4506	1,740.97	65.9009	1,740.97	73.6317	1,740.97	62.8125	1,740.97	71.0896	1,740.97	59.6552	1,740.97	65.0431	1,740.97	56.3035	1,740.97	53.755	1,740.97	53.0597	1,740.97	60.7723	1,740.97	56.8045	1,740.97	64.9497	1,740.97	62.8519	1,740.97	66.929	1,740.97	65.4986	1,740.97	64.908	1,740.97	65.1368	1,740.97	59.2571	1,740.97	62.0557	1,740.97	58.6089	1,740.97	58.1634	1,740.97	57.1706	1,740.97	56.4142
1,802.49	73.9206	1,802.49	74.431	1,802.49	73.84	1,802.49	75.1631	1,802.49	73.9147	1,802.49	75.3767	1,802.49	74.0363	1,802.49	74.5845	1,802.49	74.178	1,802.49	72.804	1,802.49	74.22	1,802.49	70.45	1,802.49	73.9765	1,802.49	68.0591	1,802.49	73.0617	1,802.49	66.0392	1,802.49	70.7151	1,802.49	65.0336	1,802.49	65.5822	1,802.49	64.7111	1,802.49	55.0867	1,802.49	62.8135	1,802.49	57.4196	1,802.49	55.369	1,802.49	62.8748	1,802.49	54.757	1,802.49	64.5912	1,802.49	63.1826	1,802.49	61.6187	1,802.49	65.2276	1,802.49	59.61	1,802.49	64.1542	1,802.49	61.0199	1,802.49	60.9063	1,802.49	56.449	1,802.49	55.2681
1,866.21	73.7491	1,866.21	74.473	1,866.21	73.4536	1,866.21	75.0898	1,866.21	73.3918	1,866.21	74.8429	1,866.21	73.4292	1,866.21	73.6507	1,866.21	73.5626	1,866.21	72.0978	1,866.21	73.7011	1,866.21	70.7994	1,866.21	73.6427	1,866.21	69.6945	1,866.21	72.8341	1,866.21	68.1501	1,866.21	70.2258	1,866.21	66.4478	1,866.21	64.1599	1,866.21	66.2681	1,866.21	57.7558	1,866.21	66.3045	1,866.21	58.6271	1,866.21	64.2048	1,866.21	60.9726	1,866.21	58.6798	1,866.21	63.8944	1,866.21	57.7297	1,866.21	60.6326	1,866.21	62.3506	1,866.21	56.5294	1,866.21	63.7229	1,866.21	60.1861	1,866.21	62.6137	1,866.21	57.4432	1,866.21	58.795
1,932.13	73.046	1,932.13	73.3767	1,932.13	73.3974	1,932.13	74.2895	1,932.13	73.5016	1,932.13	74.5121	1,932.13	73.2495	1,932.13	73.5499	1,932.13	73.0776	1,932.13	71.6999	1,932.13	73.2567	1,932.13	69.4894	1,932.13	73.5472	1,932.13	67.3471	1,932.13	73.2173	1,932.13	65.8762	1,932.13	71.1941	1,932.13	65.2771	1,932.13	65.9121	1,932.13	64.6825	1,932.13	54.6542	1,932.13	63.6782	1,932.13	50.5981	1,932.13	62.9873	1,932.13	53.3443	1,932.13	63.0051	1,932.13	61.8888	1,932.13	62.442	1,932.13	61.6255	1,932.13	60.6287	1,932.13	57.5062	1,932.13	60.3258	1,932.13	59.0355	1,932.13	60.6089	1,932.13	56.1913	1,932.13	56.6194
2,000.24	73.3533	2,000.24	73.0741	2,000.24	73.6709	2,000.24	73.5931	2,000.24	73.3266	2,000.24	74.0257	2,000.24	72.603	2,000.24	73.6298	2,000.24	72.1809	2,000.24	72.5603	2,000.24	72.5136	2,000.24	71.132	2,000.24	73.2044	2,000.24	69.3668	2,000.24	73.2321	2,000.24	67.1003	2,000.24	71.5959	2,000.24	64.5735	2,000.24	67.0923	2,000.24	62.6672	2,000.24	58.1704	2,000.24	61.486	2,000.24	52.8409	2,000.24	60.3911	2,000.24	46.3087	2,000.24	60.3331	2,000.24	60.1082	2,000.24	61.7583	2,000.24	60.334	2,000.24	62.7268	2,000.24	56.1998	2,000.24	62.3453	2,000.24	58.3166	2,000.24	60.0452	2,000.24	55.6595	2,000.24	53.9277
2,070.56	74.2188	2,070.56	73.7256	2,070.56	74.3303	2,070.56	73.5292	2,070.56	73.7501	2,070.56	73.67	2,070.56	72.8394	2,070.56	73.3799	2,070.56	72.2625	2,070.56	72.2206	2,070.56	72.3652	2,070.56	70.2786	2,070.56	72.9063	2,070.56	67.8233	2,070.56	72.9373	2,070.56	65.0843	2,070.56	71.2826	2,070.56	62.3035	2,070.56	66.414	2,070.56	59.8399	2,070.56	53.3339	2,070.56	58.2656	2,070.56	56.4533	2,070.56	58.2509	2,070.56	50.5925	2,070.56	59.8608	2,070.56	54.6873	2,070.56	61.2325	2,070.56	58.3614	2,070.56	61.5828	2,070.56	54.3033	2,070.56	61.4974	2,070.56	57.5051	2,070.56	60.1884	2,070.56	55.2541	2,070.56	54.3816
2,143.8	74.1997	2,143.8	73.8846	2,143.8	74.315	2,143.8	73.5549	2,143.8	73.7937	2,143.8	73.2494	2,143.8	72.8814	2,143.8	72.8245	2,143.8	72.4845	2,143.8	71.9607	2,143.8	72.7608	2,143.8	70.5805	2,143.8	73.2124	2,143.8	68.7856	2,143.8	73.2056	2,143.8	66.5278	2,143.8	71.8663	2,143.8	63.6778	2,143.8	67.7507	2,143.8	60.6621	2,143.8	55.814	2,143.8	58.7703	2,143.8	57.4634	2,143.8	58.843	2,143.8	56.7944	2,143.8	60.2699	2,143.8	52.8632	2,143.8	61.6618	2,143.8	57.9611	2,143.8	62.2223	2,143.8	53.2665	2,143.8	61.9737	2,143.8	55.903	2,143.8	59.9099	2,143.8	54.6713	2,143.8	52.5247
2,219.24	73.2869	2,219.24	72.9774	2,219.24	73.5498	2,219.24	73.1293	2,219.24	72.8979	2,219.24	73.0812	2,219.24	72.0544	2,219.24	72.6885	2,219.24	72.3035	2,219.24	72.0485	2,219.24	73.167	2,219.24	70.9342	2,219.24	73.757	2,219.24	69.0849	2,219.24	73.61	2,219.24	66.6649	2,219.24	72.1396	2,219.24	64.2967	2,219.24	68.0329	2,219.24	62.1854	2,219.24	56.3802	2,219.24	59.7922	2,219.24	56.5959	2,219.24	58.5794	2,219.24	57.2446	2,219.24	60.2866	2,219.24	55.071	2,219.24	61.4195	2,219.24	59.6275	2,219.24	61.4377	2,219.24	57.8132	2,219.24	61.5034	2,219.24	56.6817	2,219.24	59.7559	2,219.24	55.9636	2,219.24	53.2838
2,297.61	73.6468	2,297.61	72.805	2,297.61	73.3996	2,297.61	72.5619	2,297.61	72.0923	2,297.61	73.0282	2,297.61	71.4592	2,297.61	72.8948	2,297.61	72.0147	2,297.61	72.0615	2,297.61	72.9161	2,297.61	70.848	2,297.61	73.7075	2,297.61	69.0187	2,297.61	73.7997	2,297.61	66.3444	2,297.61	72.4418	2,297.61	63.7779	2,297.61	68.4705	2,297.61	62.0381	2,297.61	59.6113	2,297.61	59.7037	2,297.61	59.0924	2,297.61	57.2289	2,297.61	57.5261	2,297.61	59.8921	2,297.61	49.9145	2,297.61	61.7935	2,297.61	57.6677	2,297.61	61.2419	2,297.61	56.1928	2,297.61	60.3276	2,297.61	57.3197	2,297.61	58.6557	2,297.61	55.3449	2,297.61	49.7346
2,378.17	74.4617	2,378.17	73.9409	2,378.17	73.8029	2,378.17	72.9026	2,378.17	72.5777	2,378.17	72.7993	2,378.17	72.1217	2,378.17	72.8925	2,378.17	72.3911	2,378.17	71.7766	2,378.17	72.7928	2,378.17	69.5039	2,378.17	73.2173	2,378.17	66.7788	2,378.17	73.3571	2,378.17	63.8493	2,378.17	72.7762	2,378.17	60.8273	2,378.17	70.8524	2,378.17	58.615	2,378.17	66.0802	2,378.17	57.8115	2,378.17	56.9167	2,378.17	56.9601	2,378.17	57.7442	2,378.17	58.504	2,378.17	50.7692	2,378.17	60.5401	2,378.17	56.0088	2,378.17	60.9263	2,378.17	56.0316	2,378.17	60.2364	2,378.17	54.3901	2,378.17	57.0022	2,378.17	56.1252	2,378.17	48.7425
2,462.4	74.1874	2,462.4	74.1454	2,462.4	73.4245	2,462.4	73.2499	2,462.4	72.2394	2,462.4	72.3378	2,462.4	72.005	2,462.4	72.1674	2,462.4	72.4348	2,462.4	71.5361	2,462.4	72.5976	2,462.4	69.8103	2,462.4	72.5018	2,462.4	67.3898	2,462.4	72.1607	2,462.4	64.4758	2,462.4	71.4513	2,462.4	60.8866	2,462.4	69.6855	2,462.4	57.8587	2,462.4	65.103	2,462.4	56.8405	2,462.4	53.9585	2,462.4	56.7731	2,462.4	56.4971	2,462.4	58.5945	2,462.4	54.1402	2,462.4	60.3646	2,462.4	53.0241	2,462.4	60.398	2,462.4	57.3197	2,462.4	59.3874	2,462.4	57.1093	2,462.4	56.2494	2,462.4	55.8409	2,462.4	50.1744
2,548.83	73.8521	2,548.83	73.4595	2,548.83	73.1557	2,548.83	72.9028	2,548.83	71.8201	2,548.83	72.2587	2,548.83	71.7838	2,548.83	71.8455	2,548.83	72.1056	2,548.83	71.5146	2,548.83	71.9954	2,548.83	70.1933	2,548.83	71.6207	2,548.83	67.5874	2,548.83	71.2003	2,548.83	64.4235	2,548.83	70.6691	2,548.83	61.6418	2,548.83	69.0869	2,548.83	59.334	2,548.83	64.4545	2,548.83	57.0456	2,548.83	50.7633	2,548.83	55.7307	2,548.83	51.7985	2,548.83	57.3691	2,548.83	52.9605	2,548.83	59.3218	2,548.83	54.1309	2,548.83	60.2111	2,548.83	50.7715	2,548.83	59.7102	2,548.83	54.605	2,548.83	55.6484	2,548.83	56.8003	2,548.83	50.927
2,638.92	74.2673	2,638.92	73.8676	2,638.92	73.0029	2,638.92	72.5324	2,638.92	71.6272	2,638.92	71.8256	2,638.92	71.703	2,638.92	71.1006	2,638.92	72.0275	2,638.92	69.7583	2,638.92	71.8599	2,638.92	67.8976	2,638.92	71.4725	2,638.92	64.9246	2,638.92	71.0764	2,638.92	60.856	2,638.92	70.4148	2,638.92	57.8125	2,638.92	68.5593	2,638.92	57.0989	2,638.92	63.4604	2,638.92	55.2529	2,638.92	49.3722	2,638.92	51.8341	2,638.92	54.6745	2,638.92	55.6355	2,638.92	47.6358	2,638.92	58.509	2,638.92	53.2951	2,638.92	59.4847	2,638.92	56.3306	2,638.92	59.9367	2,638.92	55.0906	2,638.92	57.3352	2,638.92	56.2858	2,638.92	51.5573
2,731.93	74.3077	2,731.93	74.2832	2,731.93	72.8008	2,731.93	72.3624	2,731.93	71.5949	2,731.93	70.7339	2,731.93	71.8797	2,731.93	70.3246	2,731.93	72.1673	2,731.93	68.8021	2,731.93	71.9235	2,731.93	66.5596	2,731.93	71.3782	2,731.93	64.928	2,731.93	70.5834	2,731.93	63.2044	2,731.93	69.7641	2,731.93	60.2268	2,731.93	68.2872	2,731.93	57.9082	2,731.93	64.2816	2,731.93	57.2512	2,731.93	55.446	2,731.93	54.968	2,731.93	54.7933	2,731.93	54.7174	2,731.93	53.0617	2,731.93	58.3831	2,731.93	40.6295	2,731.93	60.0495	2,731.93	44.5147	2,731.93	59.9407	2,731.93	53.8613	2,731.93	55.9349	2,731.93	56.2813	2,731.93	47.9239
2,828.61	74.1856	2,828.61	74.4093	2,828.61	72.5845	2,828.61	72.4347	2,828.61	71.5034	2,828.61	69.5106	2,828.61	71.7726	2,828.61	69.288	2,828.61	71.9076	2,828.61	69.3018	2,828.61	71.8026	2,828.61	68.1409	2,828.61	71.5739	2,828.61	66.7761	2,828.61	71.0848	2,828.61	65.4389	2,828.61	70.3655	2,828.61	63.1489	2,828.61	68.8026	2,828.61	60.2161	2,828.61	64.7355	2,828.61	58.8427	2,828.61	55.2743	2,828.61	57.9119	2,828.61	53.4096	2,828.61	56.4262	2,828.61	51.3383	2,828.61	58.0836	2,828.61	41.3531	2,828.61	60.143	2,828.61	48.8985	2,828.61	59.4026	2,828.61	42.8458	2,828.61	53.1376	2,828.61	53.4422	2,828.61	49.2358
2,928.22	74.4218	2,928.22	74.6266	2,928.22	72.9445	2,928.22	72.7206	2,928.22	71.7584	2,928.22	69.135	2,928.22	71.72	2,928.22	68.0537	2,928.22	72.1014	2,928.22	68.7553	2,928.22	72.3325	2,928.22	68.2301	2,928.22	71.7373	2,928.22	66.5994	2,928.22	70.4476	2,928.22	64.4217	2,928.22	69.0656	2,928.22	61.2697	2,928.22	67.335	2,928.22	56.7891	2,928.22	63.931	2,928.22	54.7281	2,928.22	58.2965	2,928.22	56.8276	2,928.22	56.2255	2,928.22	57.1934	2,928.22	56.0825	2,928.22	56.7068	2,928.22	49.4177	2,928.22	59.1122	2,928.22	34.4783	2,928.22	59.2331	2,928.22	39.0518	2,928.22	51.9763	2,928.22	53.1526	2,928.22	50.7199
3,031.49	74.3434	3,031.49	74.4362	3,031.49	72.7402	3,031.49	72.2489	3,031.49	71.2827	3,031.49	68.1844	3,031.49	71.388	3,031.49	66.7687	3,031.49	72.0909	3,031.49	68.5789	3,031.49	72.2962	3,031.49	68.8557	3,031.49	71.6107	3,031.49	66.7772	3,031.49	70.0274	3,031.49	63.4354	3,031.49	67.9068	3,031.49	61.2383	3,031.49	65.5657	3,031.49	59.7567	3,031.49	62.2509	3,031.49	57.0993	3,031.49	56.7212	3,031.49	56.8443	3,031.49	50.029	3,031.49	57.8719	3,031.49	49.7467	3,031.49	57.8784	3,031.49	48.0313	3,031.49	59.2726	3,031.49	45.339	3,031.49	58.2391	3,031.49	44.0816	3,031.49	47.7847	3,031.49	46.8476	3,031.49	49.7121
3,138.43	73.9701	3,138.43	74.3635	3,138.43	72.3411	3,138.43	72.2492	3,138.43	70.6698	3,138.43	67.4001	3,138.43	70.6112	3,138.43	65.9844	3,138.43	71.8828	3,138.43	67.8564	3,138.43	72.5157	3,138.43	67.9996	3,138.43	71.7592	3,138.43	66.8854	3,138.43	69.4398	3,138.43	65.2905	3,138.43	66.3157	3,138.43	63.4164	3,138.43	64.5272	3,138.43	60.7176	3,138.43	63.0439	3,138.43	57.3314	3,138.43	57.6629	3,138.43	56.0121	3,138.43	47.2502	3,138.43	56.5956	3,138.43	50.0633	3,138.43	57.2242	3,138.43	52.1623	3,138.43	58.6017	3,138.43	37.988	3,138.43	56.7478	3,138.43	41.7988	3,138.43	43.7297	3,138.43	45.4479	3,138.43	51.314
3,249.02	74.0408	3,249.02	74.3048	3,249.02	72.2231	3,249.02	72.1964	3,249.02	69.5858	3,249.02	66.5034	3,249.02	69.7283	3,249.02	63.622	3,249.02	71.8374	3,249.02	67.5921	3,249.02	72.7889	3,249.02	68.3306	3,249.02	71.952	3,249.02	66.2069	3,249.02	69.4613	3,249.02	62.0545	3,249.02	66.4681	3,249.02	57.9839	3,249.02	65.4552	3,249.02	55.6559	3,249.02	64.8524	3,249.02	53.7895	3,249.02	60.7391	3,249.02	54.5772	3,249.02	51.9604	3,249.02	55.2439	3,249.02	50.1158	3,249.02	55.9954	3,249.02	51.8167	3,249.02	58.4439	3,249.02	48.6404	3,249.02	56.4755	3,249.02	49.1902	3,249.02	38.9667	3,249.02	41.1203	3,249.02	50.7542
3,363.28	73.296	3,363.28	73.8315	3,363.28	71.2072	3,363.28	71.8394	3,363.28	67.9219	3,363.28	65.9519	3,363.28	69.0054	3,363.28	62.9489	3,363.28	72.1365	3,363.28	67.2619	3,363.28	73.1168	3,363.28	67.2011	3,363.28	72.0407	3,363.28	63.7711	3,363.28	69.1888	3,363.28	60.952	3,363.28	66.4952	3,363.28	61.2208	3,363.28	67.024	3,363.28	59.9132	3,363.28	67.4331	3,363.28	55.6684	3,363.28	62.8574	3,363.28	54.5859	3,363.28	50.2644	3,363.28	55.5951	3,363.28	44.3284	3,363.28	55.5336	3,363.28	53.5088	3,363.28	58.197	3,363.28	43.1659	3,363.28	55.9516	3,363.28	51.1207	3,363.28	41.115	3,363.28	38.1336	3,363.28	50.7743
3,481.93	73.2352	3,481.93	73.615	3,481.93	70.9019	3,481.93	71.7402	3,481.93	66.1421	3,481.93	64.8062	3,481.93	68.469	3,481.93	61.5403	3,481.93	71.992	3,481.93	66.299	3,481.93	72.9332	3,481.93	66.2413	3,481.93	71.8019	3,481.93	64.8935	3,481.93	69.2125	3,481.93	63.1291	3,481.93	66.6633	3,481.93	60.4787	3,481.93	66.4696	3,481.93	57.133	3,481.93	66.7696	3,481.93	53.8126	3,481.93	61.7735	3,481.93	52.2106	3,481.93	42.3434	3,481.93	53.0753	3,481.93	38.3483	3,481.93	53.664	3,481.93	51.7516	3,481.93	55.9794	3,481.93	44.2109	3,481.93	54.244	3,481.93	50.8365	3,481.93	35.652	3,481.93	40.7916	3,481.93	50.8997
3,604.98	73.7651	3,604.98	74.1091	3,604.98	70.8506	3,604.98	71.5341	3,604.98	64.2548	3,604.98	63.2718	3,604.98	68.2812	3,604.98	60.6206	3,604.98	72.1182	3,604.98	66.4169	3,604.98	72.5458	3,604.98	66.5793	3,604.98	71.0315	3,604.98	64.2828	3,604.98	68.5015	3,604.98	61.5244	3,604.98	65.6611	3,604.98	60.1802	3,604.98	65.3782	3,604.98	58.7628	3,604.98	65.5453	3,604.98	55.7422	3,604.98	60.3634	3,604.98	54.2175	3,604.98	44.9543	3,604.98	53.6254	3,604.98	42.0913	3,604.98	53.8442	3,604.98	49.0979	3,604.98	57.0487	3,604.98	45.8225	3,604.98	53.782	3,604.98	49.4031	3,604.98	40.0112	3,604.98	44.603	3,604.98	48.3039
3,732.42	73.5957	3,732.42	73.9061	3,732.42	70.4465	3,732.42	71.5263	3,732.42	60.2765	3,732.42	61.6726	3,732.42	68.6147	3,732.42	61.7559	3,732.42	71.9934	3,732.42	66.7988	3,732.42	72.0374	3,732.42	66.7743	3,732.42	70.5079	3,732.42	65.4874	3,732.42	67.709	3,732.42	63.4086	3,732.42	63.1054	3,732.42	60.7669	3,732.42	61.751	3,732.42	58.0235	3,732.42	63.2516	3,732.42	54.4642	3,732.42	60.1455	3,732.42	51.7699	3,732.42	49.8725	3,732.42	52.4603	3,732.42	43.8294	3,732.42	53.4852	3,732.42	49.9397	3,732.42	55.5528	3,732.42	44.7879	3,732.42	52.0186	3,732.42	47.5689	3,732.42	38.8663	3,732.42	42.5433	3,732.42	47.221
3,863.53	73.8613	3,863.53	73.7762	3,863.53	69.758	3,863.53	70.7221	3,863.53	56.4573	3,863.53	60.2415	3,863.53	68.8122	3,863.53	61.793	3,863.53	71.9152	3,863.53	67.062	3,863.53	71.7781	3,863.53	67.1997	3,863.53	70.0051	3,863.53	65.2956	3,863.53	66.6524	3,863.53	61.4645	3,863.53	62.1493	3,863.53	56.951	3,863.53	61.9771	3,863.53	55.0818	3,863.53	63.6128	3,863.53	54.0501	3,863.53	61.1493	3,863.53	51.575	3,863.53	53.2549	3,863.53	47.0987	3,863.53	44.9033	3,863.53	50.9798	3,863.53	43.0349	3,863.53	54.0593	3,863.53	31.8087	3,863.53	48.7295	3,863.53	46.6994	3,863.53	40.7505	3,863.53	47.6038	3,863.53	46.6957
3,999.76	73.8889	3,999.76	74.0173	3,999.76	69.4862	3,999.76	70.4785	3,999.76	52.5377	3,999.76	57.0549	3,999.76	69.2875	3,999.76	63.3589	3,999.76	72.0712	3,999.76	67.4897	3,999.76	71.507	3,999.76	66.8294	3,999.76	69.1398	3,999.76	63.8033	3,999.76	65.3745	3,999.76	60.1029	3,999.76	59.1306	3,999.76	58.6009	3,999.76	60.1715	3,999.76	56.8038	3,999.76	61.7546	3,999.76	52.5527	3,999.76	58.7741	3,999.76	50.2778	3,999.76	50.2593	3,999.76	49.3938	3,999.76	47.4805	3,999.76	50.349	3,999.76	47.9381	3,999.76	54.6345	3,999.76	42.9755	3,999.76	48.7682	3,999.76	47.0108	3,999.76	41.5463	3,999.76	48.8137	3,999.76	43.6866
4,141.11	74.0569	4,141.11	74.3179	4,141.11	69.146	4,141.11	70.8334	4,141.11	54.0183	4,141.11	56.7201	4,141.11	69.4311	4,141.11	64.9099	4,141.11	71.618	4,141.11	67.7521	4,141.11	70.9729	4,141.11	66.3907	4,141.11	68.7959	4,141.11	63.9904	4,141.11	63.9236	4,141.11	60.4693	4,141.11	53.0769	4,141.11	56.7568	4,141.11	54.6026	4,141.11	54.8031	4,141.11	60.2191	4,141.11	52.6757	4,141.11	59.3204	4,141.11	50.979	4,141.11	49.309	4,141.11	49.2444	4,141.11	47.0767	4,141.11	49.7439	4,141.11	45.5544	4,141.11	52.9363	4,141.11	42.6073	4,141.11	46.6507	4,141.11	47.2926	4,141.11	40.9142	4,141.11	49.46	4,141.11	42.8707
4,286.87	74.5738	4,286.87	74.3798	4,286.87	69.4746	4,286.87	70.2096	4,286.87	57.0229	4,286.87	54.8257	4,286.87	69.7285	4,286.87	65.9129	4,286.87	71.5529	4,286.87	68.2762	4,286.87	70.1139	4,286.87	66.8425	4,286.87	66.9223	4,286.87	64.6465	4,286.87	60.6478	4,286.87	61.2457	4,286.87	51.3757	4,286.87	57.7716	4,286.87	55.6837	4,286.87	55.5974	4,286.87	60.0908	4,286.87	52.6941	4,286.87	58.5021	4,286.87	49.8713	4,286.87	51.6154	4,286.87	46.8163	4,286.87	44.7931	4,286.87	48.9575	4,286.87	32.6734	4,286.87	52.6952	4,286.87	38.1663	4,286.87	45.1141	4,286.87	41.6257	4,286.87	42.6811	4,286.87	48.9483	4,286.87	46.9507
4,438.48	75.0159	4,438.48	75.1476	4,438.48	69.7108	4,438.48	70.5749	4,438.48	61.5969	4,438.48	56.1787	4,438.48	69.9074	4,438.48	67.1952	4,438.48	71.3988	4,438.48	68.4561	4,438.48	69.7526	4,438.48	66.7414	4,438.48	65.4292	4,438.48	64.6416	4,438.48	55.7457	4,438.48	60.35	4,438.48	54.0769	4,438.48	55.0885	4,438.48	56.6565	4,438.48	54.2366	4,438.48	61.1412	4,438.48	51.9046	4,438.48	58.9944	4,438.48	49.3875	4,438.48	52.3677	4,438.48	46.9622	4,438.48	47.9591	4,438.48	47.3305	4,438.48	33.2075	4,438.48	51.329	4,438.48	43.8915	4,438.48	43.1038	4,438.48	42.2077	4,438.48	43.6832	4,438.48	48.6574	4,438.48	46.8652
4,594.48	75.3559	4,594.48	75.2529	4,594.48	70.1573	4,594.48	70.2878	4,594.48	64.886	4,594.48	59.0706	4,594.48	70.6389	4,594.48	68.4646	4,594.48	71.6296	4,594.48	68.8078	4,594.48	68.8841	4,594.48	66.3626	4,594.48	63.097	4,594.48	64.3461	4,594.48	46.9123	4,594.48	59.7928	4,594.48	58.572	4,594.48	52.9129	4,594.48	59.3195	4,594.48	52.7541	4,594.48	61.5916	4,594.48	50.6006	4,594.48	59.003	4,594.48	44.5247	4,594.48	53.9396	4,594.48	39.8825	4,594.48	51.9111	4,594.48	47.4624	4,594.48	30.9535	4,594.48	50.6172	4,594.48	45.0052	4,594.48	43.1315	4,594.48	38.0003	4,594.48	40.5812	4,594.48	48.8635	4,594.48	50.1492
4,757.08	75.3645	4,757.08	75.3617	4,757.08	70.2454	4,757.08	70.0408	4,757.08	66.7673	4,757.08	61.5597	4,757.08	71.3983	4,757.08	68.881	4,757.08	71.8966	4,757.08	68.5162	4,757.08	68.3931	4,757.08	65.4692	4,757.08	61.5365	4,757.08	63.3384	4,757.08	44.7992	4,757.08	58.2406	4,757.08	62.5169	4,757.08	50.0464	4,757.08	61.6548	4,757.08	52.7493	4,757.08	63.4804	4,757.08	50.2657	4,757.08	60.6339	4,757.08	45.5312	4,757.08	55.0494	4,757.08	42.7849	4,757.08	53.1251	4,757.08	46.38	4,757.08	40.7631	4,757.08	49.9749	4,757.08	46.401	4,757.08	41.1826	4,757.08	38.6813	4,757.08	44.6996	4,757.08	48.9336	4,757.08	51.0193
4,924.8	75.6041	4,924.8	75.5622	4,924.8	70.9919	4,924.8	70.2026	4,924.8	68.683	4,924.8	63.7307	4,924.8	72.0878	4,924.8	69.3995	4,924.8	71.9848	4,924.8	68.0482	4,924.8	67.3598	4,924.8	64.4835	4,924.8	59.2976	4,924.8	62.8023	4,924.8	55.3632	4,924.8	56.7357	4,924.8	64.2211	4,924.8	47.0798	4,924.8	62.1391	4,924.8	52.5049	4,924.8	64.2268	4,924.8	50.3796	4,924.8	61.2289	4,924.8	40.7397	4,924.8	55.5119	4,924.8	38.1623	4,924.8	54.9863	4,924.8	43.7602	4,924.8	43.2148	4,924.8	47.5074	4,924.8	48.0807	4,924.8	42.0358	4,924.8	42.9574	4,924.8	43.4602	4,924.8	48.2272	4,924.8	51.5489
5,098.39	75.6313	5,098.39	75.4325	5,098.39	71.4825	5,098.39	69.9219	5,098.39	69.926	5,098.39	65.0913	5,098.39	72.5777	5,098.39	69.7362	5,098.39	71.9787	5,098.39	67.5057	5,098.39	66.1102	5,098.39	63.0371	5,098.39	58.7827	5,098.39	62.1158	5,098.39	59.0808	5,098.39	56.8299	5,098.39	65.1614	5,098.39	43.6077	5,098.39	64.3924	5,098.39	50.591	5,098.39	65.7874	5,098.39	48.104	5,098.39	62.2591	5,098.39	38.4356	5,098.39	56.8049	5,098.39	41.9724	5,098.39	56.1111	5,098.39	46.819	5,098.39	47.0231	5,098.39	47.7796	5,098.39	50.0663	5,098.39	42.6833	5,098.39	45.6133	5,098.39	44.1352	5,098.39	48.7388	5,098.39	52.5111
5,277.83	75.7793	5,277.83	75.6734	5,277.83	72.3577	5,277.83	70.3503	5,277.83	71.6042	5,277.83	66.431	5,277.83	73.3082	5,277.83	69.748	5,277.83	72.0699	5,277.83	66.7089	5,277.83	65.423	5,277.83	61.6383	5,277.83	60.185	5,277.83	60.7731	5,277.83	59.1943	5,277.83	55.0117	5,277.83	65.4144	5,277.83	39.9716	5,277.83	64.5762	5,277.83	50.1908	5,277.83	65.3111	5,277.83	47.4301	5,277.83	61.271	5,277.83	36.914	5,277.83	56.8128	5,277.83	43.5194	5,277.83	57.2268	5,277.83	44.0795	5,277.83	48.0725	5,277.83	47.4379	5,277.83	50.6119	5,277.83	41.7137	5,277.83	44.0855	5,277.83	43.9611	5,277.83	51.2891	5,277.83	52.731
5,463.87	75.2121	5,463.87	74.8383	5,463.87	72.1718	5,463.87	69.605	5,463.87	71.8919	5,463.87	66.9846	5,463.87	73.3626	5,463.87	69.7464	5,463.87	71.8084	5,463.87	65.6662	5,463.87	63.9155	5,463.87	58.6525	5,463.87	60.9443	5,463.87	57.1849	5,463.87	58.4158	5,463.87	51.8084	5,463.87	65.3411	5,463.87	48.792	5,463.87	64.5606	5,463.87	47.8751	5,463.87	65.402	5,463.87	43.7479	5,463.87	61.2617	5,463.87	40.2654	5,463.87	56.4347	5,463.87	44.7947	5,463.87	58.1311	5,463.87	45.4995	5,463.87	48.6336	5,463.87	46.4845	5,463.87	51.5747	5,463.87	42.5388	5,463.87	44.5702	5,463.87	42.1304	5,463.87	50.0738	5,463.87	52.25
5,656.49	74.6383	5,656.49	74.4384	5,656.49	71.81	5,656.49	69.5863	5,656.49	71.846	5,656.49	67.9664	5,656.49	73.1088	5,656.49	69.7833	5,656.49	71.2416	5,656.49	64.5509	5,656.49	63.2927	5,656.49	54.5902	5,656.49	59.324	5,656.49	52.2854	5,656.49	57.6576	5,656.49	47.1097	5,656.49	64.4176	5,656.49	51.5772	5,656.49	64.211	5,656.49	50.8516	5,656.49	65.4065	5,656.49	37.5507	5,656.49	61.6935	5,656.49	34.278	5,656.49	56.0795	5,656.49	47.9592	5,656.49	57.3817	5,656.49	45.8192	5,656.49	48.951	5,656.49	47.3305	5,656.49	50.5838	5,656.49	40.2866	5,656.49	44.0738	5,656.49	42.3265	5,656.49	52.1031	5,656.49	51.594
5,856.45	74.7315	5,856.45	74.3528	5,856.45	72.1014	5,856.45	69.9809	5,856.45	71.8279	5,856.45	69.0846	5,856.45	72.722	5,856.45	70.3451	5,856.45	70.7894	5,856.45	64.3505	5,856.45	61.7662	5,856.45	54.108	5,856.45	59.4817	5,856.45	52.2398	5,856.45	57.0769	5,856.45	42.4097	5,856.45	63.2537	5,856.45	52.0901	5,856.45	63.5735	5,856.45	49.5072	5,856.45	65.1227	5,856.45	40.478	5,856.45	61.2254	5,856.45	37.7451	5,856.45	56.2247	5,856.45	48.6678	5,856.45	56.934	5,856.45	44.7478	5,856.45	49.5748	5,856.45	47.4484	5,856.45	49.2733	5,856.45	43.1676	5,856.45	46.6537	5,856.45	41.5959	5,856.45	50.5172	5,856.45	51.3252
6,062.99	75.3225	6,062.99	74.8236	6,062.99	72.6589	6,062.99	70.6021	6,062.99	71.6372	6,062.99	69.7213	6,062.99	72.4175	6,062.99	70.1588	6,062.99	70.5099	6,062.99	63.0185	6,062.99	60.9962	6,062.99	55.8157	6,062.99	60.6079	6,062.99	53.1315	6,062.99	54.1049	6,062.99	44.755	6,062.99	61.8494	6,062.99	52.2282	6,062.99	63.1075	6,062.99	52.2883	6,062.99	63.9996	6,062.99	35.6275	6,062.99	59.7499	6,062.99	39.9496	6,062.99	56.4044	6,062.99	49.9499	6,062.99	56.0707	6,062.99	45.8375	6,062.99	51.472	6,062.99	49.0626	6,062.99	48.5786	6,062.99	39.7658	6,062.99	47.913	6,062.99	44.029	6,062.99	51.4114	6,062.99	50.345
6,276.86	75.7627	6,276.86	75.0046	6,276.86	73.2542	6,276.86	70.9788	6,276.86	71.5382	6,276.86	69.7109	6,276.86	71.97	6,276.86	69.3717	6,276.86	70.1393	6,276.86	61.004	6,276.86	61.0837	6,276.86	56.824	6,276.86	58.5982	6,276.86	54.0713	6,276.86	51.6695	6,276.86	44.6098	6,276.86	58.5924	6,276.86	51.2795	6,276.86	61.0317	6,276.86	49.0834	6,276.86	63.7374	6,276.86	39.2203	6,276.86	59.2915	6,276.86	36.129	6,276.86	55.8452	6,276.86	48.1664	6,276.86	55.3062	6,276.86	43.9179	6,276.86	50.6495	6,276.86	46.8975	6,276.86	47.1727	6,276.86	40.3815	6,276.86	48.3401	6,276.86	43.037	6,276.86	49.832	6,276.86	49.0402
6,498.05	76.5488	6,498.05	75.5666	6,498.05	74.5417	6,498.05	71.6891	6,498.05	72.1982	6,498.05	69.9037	6,498.05	71.5379	6,498.05	68.2502	6,498.05	69.5407	6,498.05	57.7451	6,498.05	60.7692	6,498.05	56.8752	6,498.05	56.493	6,498.05	52.6869	6,498.05	50.4156	6,498.05	47.0786	6,498.05	57.564	6,498.05	49.3814	6,498.05	60.0775	6,498.05	46.5293	6,498.05	61.5484	6,498.05	38.9498	6,498.05	56.4513	6,498.05	43.8317	6,498.05	54.6023	6,498.05	47.4114	6,498.05	53.6	6,498.05	45.0868	6,498.05	50.8439	6,498.05	44.9822	6,498.05	46.8027	6,498.05	39.2013	6,498.05	46.984	6,498.05	44.3154	6,498.05	50.3737	6,498.05	49.5241
6,727.29	77.305	6,727.29	76.1905	6,727.29	75.5704	6,727.29	72.3627	6,727.29	72.9909	6,727.29	70.0516	6,727.29	71.4169	6,727.29	67.2656	6,727.29	68.5756	6,727.29	55.1322	6,727.29	58.4514	6,727.29	56.9477	6,727.29	56.706	6,727.29	48.1335	6,727.29	52.8746	6,727.29	51.3197	6,727.29	53.8008	6,727.29	49.9527	6,727.29	57.7383	6,727.29	37.78	6,727.29	59.4264	6,727.29	43.0851	6,727.29	54.3178	6,727.29	41.8339	6,727.29	53.4913	6,727.29	48.5446	6,727.29	51.4773	6,727.29	42.2667	6,727.29	51.3288	6,727.29	44.616	6,727.29	45.6087	6,727.29	26.454	6,727.29	45.6766	6,727.29	37.2667	6,727.29	47.8646	6,727.29	49.8527
6,964.6	77.1567	6,964.6	76.0439	6,964.6	75.8009	6,964.6	72.5782	6,964.6	73.3053	6,964.6	69.9233	6,964.6	71.0043	6,964.6	66.4125	6,964.6	67.5987	6,964.6	52.7752	6,964.6	57.7808	6,964.6	56.2814	6,964.6	55.5266	6,964.6	46.166	6,964.6	50.9247	6,964.6	52.5637	6,964.6	51.9512	6,964.6	51.2823	6,964.6	55.7003	6,964.6	43.1399	6,964.6	57.5354	6,964.6	43.1123	6,964.6	52.1598	6,964.6	44.4272	6,964.6	52.3832	6,964.6	46.6591	6,964.6	51.2319	6,964.6	43.8101	6,964.6	48.6791	6,964.6	43.9447	6,964.6	41.8938	6,964.6	31.0017	6,964.6	45.4118	6,964.6	32.9845	6,964.6	45.5823	6,964.6	46.2972
7,209.96	77.5782	7,209.96	76.0657	7,209.96	76.4263	7,209.96	72.2459	7,209.96	73.7319	7,209.96	69.5452	7,209.96	71.0219	7,209.96	65.4401	7,209.96	67.45	7,209.96	48.1258	7,209.96	58.573	7,209.96	56.4657	7,209.96	55.7149	7,209.96	49.5943	7,209.96	52.544	7,209.96	54.1482	7,209.96	45.9911	7,209.96	51.4293	7,209.96	53.5637	7,209.96	43.5407	7,209.96	55.9132	7,209.96	48.2296	7,209.96	50.873	7,209.96	41.7627	7,209.96	50.7091	7,209.96	47.2055	7,209.96	48.4311	7,209.96	42.1307	7,209.96	48.4907	7,209.96	44.4571	7,209.96	42.6315	7,209.96	21.3503	7,209.96	43.533	7,209.96	38.7985	7,209.96	41.4206	7,209.96	48.8695
7,464.11	76.7118	7,464.11	75.0528	7,464.11	76.1073	7,464.11	71.6321	7,464.11	74.0291	7,464.11	68.9373	7,464.11	71.2385	7,464.11	63.8319	7,464.11	66.9532	7,464.11	49.8431	7,464.11	58.4943	7,464.11	56.9422	7,464.11	54.3766	7,464.11	51.2975	7,464.11	51.8718	7,464.11	53.1675	7,464.11	40.9872	7,464.11	47.6513	7,464.11	48.4652	7,464.11	34.0067	7,464.11	52.2956	7,464.11	43.6985	7,464.11	47.8178	7,464.11	42.7779	7,464.11	48.3958	7,464.11	45.8361	7,464.11	44.6009	7,464.11	40.7624	7,464.11	46.1895	7,464.11	44.4859	7,464.11	39.9989	7,464.11	33.7925	7,464.11	41.189	7,464.11	40.8838	7,464.11	40.1272	7,464.11	47.1917
7,727.78	75.6966	7,727.78	73.9815	7,727.78	75.4852	7,727.78	70.971	7,727.78	73.617	7,727.78	67.8424	7,727.78	70.6161	7,727.78	61.0536	7,727.78	66.435	7,727.78	54.1639	7,727.78	59.2982	7,727.78	57.6283	7,727.78	54.1015	7,727.78	52.3366	7,727.78	51.5081	7,727.78	53.0348	7,727.78	36.1988	7,727.78	47.2761	7,727.78	47.0597	7,727.78	42.7939	7,727.78	52.748	7,727.78	46.7587	7,727.78	47.9585	7,727.78	42.8751	7,727.78	44.6673	7,727.78	44.8834	7,727.78	42.2988	7,727.78	35.9962	7,727.78	44.3852	7,727.78	41.7041	7,727.78	37.2243	7,727.78	31.3706	7,727.78	38.5663	7,727.78	40.7072	7,727.78	32.5365	7,727.78	44.6886
8,000.24	75.0998	8,000.24	73.9643	8,000.24	74.5488	8,000.24	71.5135	8,000.24	72.5482	8,000.24	68.1562	8,000.24	69.4681	8,000.24	61.6603	8,000.24	65.1093	8,000.24	56.062	8,000.24	58.1488	8,000.24	56.7691	8,000.24	52.0878	8,000.24	52.6282	8,000.24	51.3707	8,000.24	52.2746	8,000.24	38.8292	8,000.24	44.2799	8,000.24	43.4863	8,000.24	40.2285	8,000.24	49.3579	8,000.24	45.6333	8,000.24	45.324	8,000.24	39.2536	8,000.24	44.3103	8,000.24	45.2708	8,000.24	44.1007	8,000.24	36.3795	8,000.24	42.2812	8,000.24	43.3243	8,000.24	38.2165	8,000.24	28.3782	8,000.24	34.8285	8,000.24	40.5778	8,000.24	36.7394	8,000.24	44.8775
8,282.23	75.8318	8,282.23	75.031	8,282.23	74.5348	8,282.23	72.0005	8,282.23	71.8812	8,282.23	67.4365	8,282.23	68.5887	8,282.23	60.6849	8,282.23	64.6949	8,282.23	53.2265	8,282.23	57.8079	8,282.23	54.4107	8,282.23	51.9002	8,282.23	49.1758	8,282.23	53.6088	8,282.23	49.7422	8,282.23	41.6448	8,282.23	40.7449	8,282.23	43.6349	8,282.23	38.063	8,282.23	52.1658	8,282.23	44.8853	8,282.23	50.2678	8,282.23	32.157	8,282.23	44.2852	8,282.23	43.3683	8,282.23	44.5246	8,282.23	28.0756	8,282.23	43.2919	8,282.23	41.6565	8,282.23	38.5449	8,282.23	26.5258	8,282.23	42.9667	8,282.23	38.7612	8,282.23	33.9966	8,282.23	41.8322
8,574.46	77.3303	8,574.46	76.0415	8,574.46	75.8353	8,574.46	72.0787	8,574.46	72.2913	8,574.46	66.5359	8,574.46	68.0644	8,574.46	57.5332	8,574.46	63.2162	8,574.46	52.3385	8,574.46	54.8343	8,574.46	52.0211	8,574.46	55.1711	8,574.46	49.2543	8,574.46	55.1548	8,574.46	48.9538	8,574.46	50.0994	8,574.46	39.4482	8,574.46	40.3373	8,574.46	41.73	8,574.46	52.5378	8,574.46	44.9502	8,574.46	51.399	8,574.46	33.9371	8,574.46	43.9746	8,574.46	35.7554	8,574.46	48.3395	8,574.46	32.4189	8,574.46	42.0056	8,574.46	36.7964	8,574.46	38.9954	8,574.46	36.1172	8,574.46	44.0847	8,574.46	37.3659	8,574.46	35.9572	8,574.46	43.7722
8,876.22	77.2775	8,876.22	75.8941	8,876.22	76.0587	8,876.22	72.0534	8,876.22	72.5148	8,876.22	66.5386	8,876.22	66.8214	8,876.22	57.6215	8,876.22	59.8984	8,876.22	53.2326	8,876.22	53.4227	8,876.22	50.3273	8,876.22	54.4954	8,876.22	48.9377	8,876.22	53.9429	8,876.22	47.8949	8,876.22	49.8662	8,876.22	43.8348	8,876.22	47.2608	8,876.22	41.8257	8,876.22	45.8254	8,876.22	41.8393	8,876.22	49.0097	8,876.22	36.2078	8,876.22	38.8219	8,876.22	33.5075	8,876.22	45.7531	8,876.22	30.7418	8,876.22	36.6197	8,876.22	36.2533	8,876.22	37.3412	8,876.22	37.6726	8,876.22	41.7088	8,876.22	38.3686	8,876.22	37.6644	8,876.22	41.5699
9,189.7	77.1544	9,189.7	75.3564	9,189.7	76.3776	9,189.7	71.3226	9,189.7	73.2109	9,189.7	65.5371	9,189.7	67.995	9,189.7	53.9871	9,189.7	61.2263	9,189.7	48.5691	9,189.7	53.1231	9,189.7	46.3071	9,189.7	51.5976	9,189.7	49.9562	9,189.7	49.9587	9,189.7	47.2165	9,189.7	49.2004	9,189.7	42.29	9,189.7	46.4628	9,189.7	38.1501	9,189.7	39.2637	9,189.7	32.7072	9,189.7	41.9548	9,189.7	25.9956	9,189.7	38.5177	9,189.7	30.394	9,189.7	43.16	9,189.7	24.093	9,189.7	37.5429	9,189.7	32.9875	9,189.7	23.7682	9,189.7	35.5316	9,189.7	43.764	9,189.7	38.9253	9,189.7	41.7266	9,189.7	33.0867
9,513.43	77.3469	9,513.43	75.129	9,513.43	77.1665	9,513.43	70.9257	9,513.43	74.2086	9,513.43	64.0867	9,513.43	68.2386	9,513.43	51.303	9,513.43	60.1994	9,513.43	52.7115	9,513.43	51.955	9,513.43	52.8449	9,513.43	55.8546	9,513.43	53.1196	9,513.43	53.2742	9,513.43	49.0503	9,513.43	52.1129	9,513.43	45.0541	9,513.43	48.7593	9,513.43	40.6183	9,513.43	11.7873	9,513.43	35.2554	9,513.43	38.0179	9,513.43	29.0207	9,513.43	41.3102	9,513.43	37.1872	9,513.43	40.7707	9,513.43	25.4834	9,513.43	36.9696	9,513.43	33.7805	9,513.43	33.082	9,513.43	35.3237	9,513.43	42.7152	9,513.43	40.3867	9,513.43	39.4041	9,513.43	37.8211
9,848.88	77.2079	9,848.88	75.2465	9,848.88	76.6843	9,848.88	70.9777	9,848.88	73.3314	9,848.88	63.2252	9,848.88	67.2937	9,848.88	50.2355	9,848.88	59.6517	9,848.88	51.5289	9,848.88	56.5784	9,848.88	53.4141	9,848.88	57.1146	9,848.88	51.9477	9,848.88	54.4528	9,848.88	48.6348	9,848.88	50.6301	9,848.88	42.9803	9,848.88	45.3652	9,848.88	37.3501	9,848.88	41.2117	9,848.88	40.6335	9,848.88	42.5868	9,848.88	31.1461	9,848.88	41.021	9,848.88	40.1343	9,848.88	25.9831	9,848.88	30.3804	9,848.88	35.8496	9,848.88	38.7653	9,848.88	38.592	9,848.88	21.1722	9,848.88	40.1603	9,848.88	40.8815	9,848.88	39.1737	9,848.88	26.0768
10,196.8	77.4756	10,196.8	75.7737	10,196.8	76.4372	10,196.8	71.0209	10,196.8	72.6405	10,196.8	62.2041	10,196.8	66.2458	10,196.8	51.1989	10,196.8	58.9659	10,196.8	52.565	10,196.8	56.8492	10,196.8	53.27	10,196.8	56.5251	10,196.8	50.1054	10,196.8	52.3145	10,196.8	47.5133	10,196.8	48.449	10,196.8	39.1895	10,196.8	42.1091	10,196.8	37.459	10,196.8	43.5924	10,196.8	42.1751	10,196.8	45.3776	10,196.8	35.9092	10,196.8	38.5032	10,196.8	36.8557	10,196.8	35.2989	10,196.8	31.0457	10,196.8	25.2948	10,196.8	35.9021	10,196.8	37.5567	10,196.8	27.2363	10,196.8	40.2087	10,196.8	36.9344	10,196.8	40.84	10,196.8	37.8466
10,556.4	78.0271	10,556.4	76.2901	10,556.4	76.6349	10,556.4	71.0852	10,556.4	72.5257	10,556.4	62.1656	10,556.4	66.2393	10,556.4	47.0178	10,556.4	59.4364	10,556.4	52.1204	10,556.4	55.9277	10,556.4	50.6838	10,556.4	52.465	10,556.4	49.6059	10,556.4	48.8696	10,556.4	46.0445	10,556.4	47.2287	10,556.4	41.8227	10,556.4	41.3652	10,556.4	38.0865	10,556.4	40.2496	10,556.4	40.6946	10,556.4	44.6206	10,556.4	34.9093	10,556.4	28.3331	10,556.4	26.5257	10,556.4	41.8025	10,556.4	32.4325	10,556.4	39.0549	10,556.4	33.4331	10,556.4	37.9212	10,556.4	24.7814	10,556.4	44.166	10,556.4	31.3384	10,556.4	42.1114	10,556.4	36.9982
10,928.5	78.1472	10,928.5	75.5611	10,928.5	77.2357	10,928.5	69.4474	10,928.5	73.1994	10,928.5	60.3178	10,928.5	66.1536	10,928.5	39.7152	10,928.5	55.3214	10,928.5	51.6998	10,928.5	47.7643	10,928.5	50.2811	10,928.5	49.5915	10,928.5	51.1321	10,928.5	51.964	10,928.5	47.7882	10,928.5	51.0229	10,928.5	45.5552	10,928.5	44.8444	10,928.5	37.5948	10,928.5	28.2582	10,928.5	39.448	10,928.5	42.2508	10,928.5	35.2281	10,928.5	40.4971	10,928.5	32.1925	10,928.5	44.9996	10,928.5	31.3855	10,928.5	44.894	10,928.5	38.5685	10,928.5	35.6868	10,928.5	26.7134	10,928.5	46.7785	10,928.5	32.8463	10,928.5	46.2257	10,928.5	41.3013
11,313.7	78.2523	11,313.7	75.2577	11,313.7	77.4519	11,313.7	69.2532	11,313.7	73.2299	11,313.7	59.4272	11,313.7	65.4178	11,313.7	50.77	11,313.7	49.3939	11,313.7	51.0081	11,313.7	52.7053	11,313.7	54.7224	11,313.7	53.7963	11,313.7	52.4343	11,313.7	53.0038	11,313.7	51.8259	11,313.7	45.9027	11,313.7	47.3944	11,313.7	45.3869	11,313.7	39.4695	11,313.7	47.654	11,313.7	41.2087	11,313.7	45.2606	11,313.7	39.7536	11,313.7	47.1344	11,313.7	36.2756	11,313.7	46.3564	11,313.7	34.7577	11,313.7	47.6361	11,313.7	36.1059	11,313.7	13.0454	11,313.7	39.7806	11,313.7	49.3042	11,313.7	35.6812	11,313.7	48.1693	11,313.7	39.0192
11,712.9	77.1984	11,712.9	74.578	11,712.9	76.5659	11,712.9	69.3011	11,712.9	72.6712	11,712.9	57.4625	11,712.9	64.049	11,712.9	55.1362	11,712.9	53.8389	11,712.9	55.4562	11,712.9	55.7531	11,712.9	58.1718	11,712.9	56.5499	11,712.9	55.0486	11,712.9	54.3604	11,712.9	54.5162	11,712.9	46.8813	11,712.9	46.5975	11,712.9	42.4117	11,712.9	42.4635	11,712.9	52.6523	11,712.9	45.3203	11,712.9	50.6061	11,712.9	39.931	11,712.9	49.5466	11,712.9	38.4851	11,712.9	47.1461	11,712.9	40.2272	11,712.9	47.2235	11,712.9	27.4669	11,712.9	38.2764	11,712.9	44.7174	11,712.9	50.1717	11,712.9	29.2669	11,712.9	49.1241	11,712.9	42.5397
12,126	76.5899	12,126	74.3738	12,126	75.6155	12,126	68.2401	12,126	71.4881	12,126	52.913	12,126	62.3866	12,126	56.8371	12,126	53.6162	12,126	57.6272	12,126	53.5149	12,126	58.2543	12,126	58.0342	12,126	55.6954	12,126	56.077	12,126	53.1667	12,126	51.1173	12,126	43.5267	12,126	40.8433	12,126	41.0904	12,126	52.4126	12,126	43.5647	12,126	50.5398	12,126	36.6951	12,126	45.9932	12,126	36.5662	12,126	46.353	12,126	39.3861	12,126	41.9028	12,126	33.9509	12,126	38.6501	12,126	44.8335	12,126	49.3724	12,126	27.1708	12,126	49.7614	12,126	38.4439
12,553.7	76.6597	12,553.7	73.9054	12,553.7	75.3398	12,553.7	65.3493	12,553.7	70.3774	12,553.7	49.4787	12,553.7	60.1304	12,553.7	57.319	12,553.7	50.9047	12,553.7	58.4717	12,553.7	53.2364	12,553.7	57.075	12,553.7	57.7	12,553.7	54.1141	12,553.7	53.7113	12,553.7	48.9147	12,553.7	51.228	12,553.7	41.1962	12,553.7	40.5804	12,553.7	36.197	12,553.7	50.3873	12,553.7	37.9493	12,553.7	48.6509	12,553.7	29.2902	12,553.7	34.9974	12,553.7	38.0637	12,553.7	40.9847	12,553.7	35.0897	12,553.7	33.9546	12,553.7	40.9611	12,553.7	19.786	12,553.7	43.0846	12,553.7	46.063	12,553.7	31.0121	12,553.7	47.9799	12,553.7	32.8027
12,996.1	76.8487	12,996.1	73.4758	12,996.1	75.3311	12,996.1	62.8584	12,996.1	69.5389	12,996.1	50.7914	12,996.1	58.1499	12,996.1	59.3713	12,996.1	49.1001	12,996.1	59.006	12,996.1	54.7294	12,996.1	56.6724	12,996.1	55.4368	12,996.1	53.5976	12,996.1	50.3003	12,996.1	48.0441	12,996.1	50.1407	12,996.1	39.761	12,996.1	32.6329	12,996.1	27.6211	12,996.1	44.4922	12,996.1	38.9705	12,996.1	43.3995	12,996.1	27.7556	12,996.1	42.5747	12,996.1	41.7366	12,996.1	20.0707	12,996.1	36.8103	12,996.1	45.1064	12,996.1	45.0345	12,996.1	39.3354	12,996.1	46.5893	12,996.1	46.7218	12,996.1	33.6215	12,996.1	46.2504	12,996.1	42.2683
13,454.6	76.9255	13,454.6	73.0706	13,454.6	75.3807	13,454.6	61.8993	13,454.6	69.2451	13,454.6	50.6613	13,454.6	57.1507	13,454.6	60.0298	13,454.6	54.8755	13,454.6	57.6064	13,454.6	56.2505	13,454.6	57.0646	13,454.6	55.6896	13,454.6	52.0668	13,454.6	52.949	13,454.6	47.1192	13,454.6	45.7725	13,454.6	37.7073	13,454.6	42.4227	13,454.6	33.3016	13,454.6	49.8652	13,454.6	39.1425	13,454.6	48.9306	13,454.6	32.8089	13,454.6	47.3194	13,454.6	41.3474	13,454.6	44.4173	13,454.6	40.6971	13,454.6	48.8062	13,454.6	46.5585	13,454.6	45.7716	13,454.6	48.7594	13,454.6	49.3081	13,454.6	34.7989	13,454.6	46.8039	13,454.6	46.2853
13,928.5	76.3725	13,928.5	72.0638	13,928.5	75.1099	13,928.5	60.2023	13,928.5	68.8841	13,928.5	53.1381	13,928.5	54.8166	13,928.5	59.9125	13,928.5	57.861	13,928.5	57.2442	13,928.5	57.1455	13,928.5	56.1703	13,928.5	57.6791	13,928.5	48.3864	13,928.5	54.1237	13,928.5	44.8751	13,928.5	48.2773	13,928.5	40.0441	13,928.5	45.7089	13,928.5	35.505	13,928.5	54.1862	13,928.5	36.7986	13,928.5	52.6168	13,928.5	35.9951	13,928.5	47.9058	13,928.5	41.4625	13,928.5	49.1347	13,928.5	43.333	13,928.5	48.0904	13,928.5	48.0184	13,928.5	47.7589	13,928.5	49.1968	13,928.5	48.649	13,928.5	41.4181	13,928.5	46.5154	13,928.5	46.3736
14,419.9	76.1876	14,419.9	71.9931	14,419.9	74.5866	14,419.9	58.2291	14,419.9	67.6617	14,419.9	56.9968	14,419.9	51.1715	14,419.9	60.673	14,419.9	58.0886	14,419.9	58.0384	14,419.9	55.9546	14,419.9	54.4751	14,419.9	58.0567	14,419.9	47.0472	14,419.9	52.3221	14,419.9	40.0361	14,419.9	50.1373	14,419.9	42.7289	14,419.9	42.0936	14,419.9	32.6272	14,419.9	54.5735	14,419.9	34.4214	14,419.9	51.653	14,419.9	38.5043	14,419.9	45.5059	14,419.9	44.8886	14,419.9	48.7462	14,419.9	45.1006	14,419.9	41.0265	14,419.9	49.5664	14,419.9	45.9752	14,419.9	48.8596	14,419.9	44.9277	14,419.9	45.0163	14,419.9	46.7487	14,419.9	44.9842
14,928.2	77.1096	14,928.2	72.6231	14,928.2	74.9962	14,928.2	54.2072	14,928.2	66.5539	14,928.2	58.872	14,928.2	44.5236	14,928.2	61.741	14,928.2	58.7086	14,928.2	58.1904	14,928.2	55.9674	14,928.2	52.9823	14,928.2	56.7916	14,928.2	44.8507	14,928.2	48.5317	14,928.2	42.0067	14,928.2	46.972	14,928.2	44.3104	14,928.2	45.5894	14,928.2	38.2336	14,928.2	53.4415	14,928.2	37.7945	14,928.2	50.0325	14,928.2	39.0091	14,928.2	47.7346	14,928.2	46.6557	14,928.2	47.8285	14,928.2	46.5051	14,928.2	43.3891	14,928.2	50.7412	14,928.2	47.113	14,928.2	51.0377	14,928.2	48.6021	14,928.2	45.5522	14,928.2	48.5512	14,928.2	46.1209
15,454.8	78.3097	15,454.8	73.4009	15,454.8	76.0409	15,454.8	52.8723	15,454.8	66.4378	15,454.8	59.7389	15,454.8	47.1154	15,454.8	62.869	15,454.8	61.0042	15,454.8	57.5416	15,454.8	57.8048	15,454.8	52.3903	15,454.8	55.659	15,454.8	40.323	15,454.8	46.8357	15,454.8	41.3267	15,454.8	48.1819	15,454.8	44.5666	15,454.8	50.4659	15,454.8	38.6596	15,454.8	56.1204	15,454.8	38.8214	15,454.8	52.7095	15,454.8	41.8337	15,454.8	51.0958	15,454.8	47.3523	15,454.8	51.4874	15,454.8	48.9177	15,454.8	50.3508	15,454.8	52.4373	15,454.8	52.2383	15,454.8	53.981	15,454.8	52.9756	15,454.8	44.1271	15,454.8	53.0645	15,454.8	46.4313
15,999.8	78.6925	15,999.8	73.3887	15,999.8	76.4099	15,999.8	50.9456	15,999.8	65.9863	15,999.8	60.4269	15,999.8	52.3967	15,999.8	62.9925	15,999.8	61.7621	15,999.8	55.9545	15,999.8	57.5154	15,999.8	51.0663	15,999.8	55.864	15,999.8	33.7684	15,999.8	48.236	15,999.8	35.8684	15,999.8	51.6724	15,999.8	46.3981	15,999.8	52.8314	15,999.8	36.2373	15,999.8	58.5609	15,999.8	40.5028	15,999.8	54.8662	15,999.8	44.3901	15,999.8	52.4344	15,999.8	48.859	15,999.8	54.4841	15,999.8	50.9424	15,999.8	53.3218	15,999.8	53.999	15,999.8	55.3113	15,999.8	55.5382	15,999.8	55.1756	15,999.8	44.4979	15,999.8	55.6304	15,999.8	47.0394
16,564.5	78.345	16,564.5	72.7481	16,564.5	76.1121	16,564.5	42.9996	16,564.5	64.6001	16,564.5	61.2284	16,564.5	53.3417	16,564.5	61.8859	16,564.5	61.3739	16,564.5	53.7168	16,564.5	57.216	16,564.5	46.0289	16,564.5	55.9937	16,564.5	39.9985	16,564.5	49.0157	16,564.5	30.7062	16,564.5	52.1181	16,564.5	47.7523	16,564.5	51.4238	16,564.5	29.9683	16,564.5	59.0394	16,564.5	41.0374	16,564.5	54.9219	16,564.5	45.251	16,564.5	51.9935	16,564.5	50.2389	16,564.5	55.2126	16,564.5	51.7415	16,564.5	53.3529	16,564.5	54.8786	16,564.5	56.1198	16,564.5	55.5007	16,564.5	54.6502	16,564.5	45.6728	16,564.5	56.1809	16,564.5	44.895
17,148.2	78.5128	17,148.2	72.7592	17,148.2	75.8473	17,148.2	52.7198	17,148.2	60.9845	17,148.2	62.6356	17,148.2	58.3599	17,148.2	60.5759	17,148.2	60.2755	17,148.2	53.0485	17,148.2	56.51	17,148.2	40.1499	17,148.2	54.3703	17,148.2	43.1949	17,148.2	44.6703	17,148.2	38.8059	17,148.2	51.8426	17,148.2	49.8218	17,148.2	51.9514	17,148.2	37.3823	17,148.2	58.6771	17,148.2	43.4966	17,148.2	53.3007	17,148.2	46.1633	17,148.2	52.2687	17,148.2	51.6895	17,148.2	55.8273	17,148.2	52.8533	17,148.2	53.514	17,148.2	55.6066	17,148.2	56.487	17,148.2	56.1875	17,148.2	54.1215	17,148.2	46.6337	17,148.2	56.2172	17,148.2	45.5009
17,753.2	78.9741	17,753.2	72.8287	17,753.2	76.0946	17,753.2	57.6861	17,753.2	58.8776	17,753.2	62.6935	17,753.2	60.9613	17,753.2	59.4587	17,753.2	58.4318	17,753.2	53.2588	17,753.2	56.6107	17,753.2	41.3405	17,753.2	54.088	17,753.2	45.6693	17,753.2	39.0202	17,753.2	35.2758	17,753.2	52.4862	17,753.2	50.8062	17,753.2	54.1114	17,753.2	39.5675	17,753.2	59.5234	17,753.2	44.1052	17,753.2	53.8096	17,753.2	46.9225	17,753.2	53.5519	17,753.2	52.6405	17,753.2	57.4635	17,753.2	54.0201	17,753.2	55.8958	17,753.2	56.5763	17,753.2	58.0734	17,753.2	57.8444	17,753.2	56.6341	17,753.2	47.3166	17,753.2	58.3741	17,753.2	47.7108
18,379.4	78.2837	18,379.4	71.7513	18,379.4	75.3523	18,379.4	59.3508	18,379.4	56.1667	18,379.4	62.0314	18,379.4	60.8919	18,379.4	59.2994	18,379.4	57.5147	18,379.4	54.0673	18,379.4	56.7722	18,379.4	42.3652	18,379.4	55.4333	18,379.4	47.0217	18,379.4	41.4311	18,379.4	36.2343	18,379.4	52.9374	18,379.4	51.2344	18,379.4	54.8531	18,379.4	41.7607	18,379.4	60.4146	18,379.4	43.7446	18,379.4	54.9415	18,379.4	46.9335	18,379.4	53.8667	18,379.4	53.136	18,379.4	58.0921	18,379.4	54.2704	18,379.4	57.5934	18,379.4	57.3265	18,379.4	59.0553	18,379.4	58.4883	18,379.4	58.3861	18,379.4	47.8378	18,379.4	59.6346	18,379.4	47.5161
19,027.6	76.2668	19,027.6	69.3263	19,027.6	73.2702	19,027.6	60.0865	19,027.6	50.1778	19,027.6	61.205	19,027.6	59.2353	19,027.6	55.4207	19,027.6	55.7362	19,027.6	51.3152	19,027.6	54.8217	19,027.6	42.6644	19,027.6	54.9231	19,027.6	45.9138	19,027.6	35.9549	19,027.6	33.2795	19,027.6	51.9978	19,027.6	50.0845	19,027.6	53.8854	19,027.6	39.3759	19,027.6	59.295	19,027.6	43.3614	19,027.6	53.2482	19,027.6	45.3254	19,027.6	52.4912	19,027.6	51.9642	19,027.6	57.2375	19,027.6	52.9188	19,027.6	56.3953	19,027.6	56.4032	19,027.6	57.8208	19,027.6	57.3409	19,027.6	56.9813	19,027.6	46.5193	19,027.6	58.238	19,027.6	45.7343
19,698.5	75.9137	19,698.5	68.7454	19,698.5	72.6461	19,698.5	61.2917	19,698.5	46.916	19,698.5	60.6663	19,698.5	60.1333	19,698.5	52.7999	19,698.5	53.614	19,698.5	49.5973	19,698.5	52.4716	19,698.5	47.2283	19,698.5	55.0692	19,698.5	45.3114	19,698.5	39.7834	19,698.5	36.6355	19,698.5	51.8871	19,698.5	48.3954	19,698.5	54.8679	19,698.5	36.7465	19,698.5	59.2251	19,698.5	43.1076	19,698.5	53.0668	19,698.5	44.3044	19,698.5	52.8621	19,698.5	50.6122	19,698.5	57.2547	19,698.5	52.5192	19,698.5	56.097	19,698.5	56.3308	19,698.5	57.7413	19,698.5	57.6874	19,698.5	57.918	19,698.5	47.2236	19,698.5	58.721	19,698.5	49.1652
19,999.5	75.728	19,999.5	68.3238	19,999.5	72.5391	19,999.5	61.9844	19,999.5	42.0299	19,999.5	60.3735	19,999.5	60.4395	19,999.5	52.4728	19,999.5	51.2233	19,999.5	49.728	19,999.5	51.1923	19,999.5	48.2304	19,999.5	53.9952	19,999.5	45.8578	19,999.5	46.4026	19,999.5	41.1772	19,999.5	52.1419	19,999.5	48.0547	19,999.5	56.1104	19,999.5	34.6266	19,999.5	59.8994	19,999.5	44.0504	19,999.5	54.1647	19,999.5	43.3478	19,999.5	52.4961	19,999.5	49.923	19,999.5	57.3151	19,999.5	52.5754	19,999.5	56.3914	19,999.5	56.4555	19,999.5	58.4636	19,999.5	57.7516	19,999.5	58.4355	19,999.5	47.4278	19,999.5	59.6066	19,999.5	49.536
