"SPL Vertical"
"On-Axis"		"10°"		"-10°"		"20°"		"-20°"		"30°"		"-30°"		"40°"		"-40°"		"50°"		"-50°"		"60°"		"-60°"		"70°"		"-70°"		"80°"		"-80°"		"90°"		"-90°"		"100°"		"-100°"		"110°"		"-110°"		"120°"		"-120°"		"130°"		"-130°"		"140°"		"-140°"		"150°"		"-150°"		"160°"		"-160°"		"170°"		"-170°"		"180°"
"Frequency / Hz"	"Sound Pressure Level / dB (re 20 µPa/V)  [2.83  V @ 1. m]"	"Frequency / Hz"	"Sound Pressure Level / dB (re 20 µPa/V)  [2.83  V @ 1. m]"	"Frequency / Hz"	"Sound Pressure Level / dB (re 20 µPa/V)  [2.83  V @ 1. m]"	"Frequency / Hz"	"Sound Pressure Level / dB (re 20 µPa/V)  [2.83  V @ 1. m]"	"Frequency / Hz"	"Sound Pressure Level / dB (re 20 µPa/V)  [2.83  V @ 1. m]"	"Frequency / Hz"	"Sound Pressure Level / dB (re 20 µPa/V)  [2.83  V @ 1. m]"	"Frequency / Hz"	"Sound Pressure Level / dB (re 20 µPa/V)  [2.83  V @ 1. m]"	"Frequency / Hz"	"Sound Pressure Level / dB (re 20 µPa/V)  [2.83  V @ 1. m]"	"Frequency / Hz"	"Sound Pressure Level / dB (re 20 µPa/V)  [2.83  V @ 1. m]"	"Frequency / Hz"	"Sound Pressure Level / dB (re 20 µPa/V)  [2.83  V @ 1. m]"	"Frequency / Hz"	"Sound Pressure Level / dB (re 20 µPa/V)  [2.83  V @ 1. m]"	"Frequency / Hz"	"Sound Pressure Level / dB (re 20 µPa/V)  [2.83  V @ 1. m]"	"Frequency / Hz"	"Sound Pressure Level / dB (re 20 µPa/V)  [2.83  V @ 1. m]"	"Frequency / Hz"	"Sound Pressure Level / dB (re 20 µPa/V)  [2.83  V @ 1. m]"	"Frequency / Hz"	"Sound Pressure Level / dB (re 20 µPa/V)  [2.83  V @ 1. m]"	"Frequency / Hz"	"Sound Pressure Level / dB (re 20 µPa/V)  [2.83  V @ 1. m]"	"Frequency / Hz"	"Sound Pressure Level / dB (re 20 µPa/V)  [2.83  V @ 1. m]"	"Frequency / Hz"	"Sound Pressure Level / dB (re 20 µPa/V)  [2.83  V @ 1. m]"	"Frequency / Hz"	"Sound Pressure Level / dB (re 20 µPa/V)  [2.83  V @ 1. m]"	"Frequency / Hz"	"Sound Pressure Level / dB (re 20 µPa/V)  [2.83  V @ 1. m]"	"Frequency / Hz"	"Sound Pressure Level / dB (re 20 µPa/V)  [2.83  V @ 1. m]"	"Frequency / Hz"	"Sound Pressure Level / dB (re 20 µPa/V)  [2.83  V @ 1. m]"	"Frequency / Hz"	"Sound Pressure Level / dB (re 20 µPa/V)  [2.83  V @ 1. m]"	"Frequency / Hz"	"Sound Pressure Level / dB (re 20 µPa/V)  [2.83  V @ 1. m]"	"Frequency / Hz"	"Sound Pressure Level / dB (re 20 µPa/V)  [2.83  V @ 1. m]"	"Frequency / Hz"	"Sound Pressure Level / dB (re 20 µPa/V)  [2.83  V @ 1. m]"	"Frequency / Hz"	"Sound Pressure Level / dB (re 20 µPa/V)  [2.83  V @ 1. m]"	"Frequency / Hz"	"Sound Pressure Level / dB (re 20 µPa/V)  [2.83  V @ 1. m]"	"Frequency / Hz"	"Sound Pressure Level / dB (re 20 µPa/V)  [2.83  V @ 1. m]"	"Frequency / Hz"	"Sound Pressure Level / dB (re 20 µPa/V)  [2.83  V @ 1. m]"	"Frequency / Hz"	"Sound Pressure Level / dB (re 20 µPa/V)  [2.83  V @ 1. m]"	"Frequency / Hz"	"Sound Pressure Level / dB (re 20 µPa/V)  [2.83  V @ 1. m]"	"Frequency / Hz"	"Sound Pressure Level / dB (re 20 µPa/V)  [2.83  V @ 1. m]"	"Frequency / Hz"	"Sound Pressure Level / dB (re 20 µPa/V)  [2.83  V @ 1. m]"	"Frequency / Hz"	"Sound Pressure Level / dB (re 20 µPa/V)  [2.83  V @ 1. m]"	"Frequency / Hz"	"Sound Pressure Level / dB (re 20 µPa/V)  [2.83  V @ 1. m]"
20.5078	46.2126	20.5078	46.5369	20.5078	45.9151	20.5078	46.8872	20.5078	45.6502	20.5078	47.266	20.5078	45.4297	20.5078	47.6771	20.5078	45.2737	20.5078	48.1242	20.5078	45.2108	20.5078	48.6096	20.5078	45.2784	20.5078	49.1338	20.5078	45.5172	20.5078	49.6945	20.5078	45.9599	20.5078	50.2867	20.5078	46.6162	20.5078	50.9012	20.5078	47.463	20.5078	51.5237	20.5078	48.4469	20.5078	52.1339	20.5078	49.4975	20.5078	52.7056	20.5078	50.5425	20.5078	53.2074	20.5078	51.5173	20.5078	53.6051	20.5078	52.3692	20.5078	53.865	20.5078	53.0588	20.5078	53.9571	20.5078	53.5598	20.5078	53.8594
21.9727	30.9978	21.9727	32.6946	21.9727	29.413	21.9727	34.3546	21.9727	28.28	21.9727	35.9289	21.9727	28.0739	21.9727	37.409	21.9727	28.9581	21.9727	38.8026	21.9727	30.5725	21.9727	40.1235	21.9727	32.4886	21.9727	41.3881	21.9727	34.4839	21.9727	42.6119	21.9727	36.4823	21.9727	43.8058	21.9727	38.4613	21.9727	44.9723	21.9727	40.4034	21.9727	46.1024	21.9727	42.2812	21.9727	47.1746	21.9727	44.0566	21.9727	48.1563	21.9727	45.6857	21.9727	49.0076	21.9727	47.1242	21.9727	49.6854	21.9727	48.3316	21.9727	50.1481	21.9727	49.2751	21.9727	50.3596	21.9727	49.9322	21.9727	50.2928
23.4375	33.1284	23.4375	34.39	23.4375	31.3797	23.4375	35.2943	23.4375	28.9052	23.4375	35.9199	23.4375	25.1874	23.4375	36.3182	23.4375	18.8698	23.4375	36.5255	23.4375	14.8757	23.4375	36.5744	23.4375	22.2917	23.4375	36.5029	23.4375	26.468	23.4375	36.3667	23.4375	28.9705	23.4375	36.2469	23.4375	30.6084	23.4375	36.2447	23.4375	31.7639	23.4375	36.4458	23.4375	32.6865	23.4375	36.8668	23.4375	33.5611	23.4375	37.4345	23.4375	34.4949	23.4375	38.0225	23.4375	35.496	23.4375	38.5073	23.4375	36.4956	23.4375	38.7981	23.4375	37.3992	23.4375	38.8413	23.4375	38.1244	23.4375	38.6151
24.9023	37.0776	24.9023	37.6684	24.9023	36.6893	24.9023	38.2996	24.9023	36.6849	24.9023	38.8757	24.9023	37.1383	24.9023	39.3542	24.9023	37.9411	24.9023	39.7226	24.9023	38.8909	24.9023	39.9825	24.9023	39.8133	24.9023	40.1416	24.9023	40.6006	24.9023	40.2093	24.9023	41.1959	24.9023	40.1943	24.9023	41.5714	24.9023	40.103	24.9023	41.7139	24.9023	39.938	24.9023	41.6185	24.9023	39.698	24.9023	41.2878	24.9023	39.3791	24.9023	40.7354	24.9023	38.9799	24.9023	39.9961	24.9023	38.5132	24.9023	39.1453	24.9023	38.0267	24.9023	38.3198	24.9023	37.6271	24.9023	37.7105	24.9023	37.4764
26.3672	42.7638	26.3672	42.254	26.3672	43.409	26.3672	41.8918	26.3672	44.1538	26.3672	41.6637	26.3672	44.9489	26.3672	41.5392	26.3672	45.7431	26.3672	41.4831	26.3672	46.4923	26.3672	41.4645	26.3672	47.1612	26.3672	41.4623	26.3672	47.7233	26.3672	41.4657	26.3672	48.1592	26.3672	41.4731	26.3672	48.4543	26.3672	41.4907	26.3672	48.5982	26.3672	41.531	26.3672	48.5839	26.3672	41.6136	26.3672	48.4074	26.3672	41.7652	26.3672	48.0685	26.3672	42.0191	26.3672	47.5721	26.3672	42.4095	26.3672	46.9312	26.3672	42.958	26.3672	46.1706	26.3672	43.6585	26.3672	45.3312	26.3672	44.471
27.832	49.7731	27.832	49.5439	27.832	50.0514	27.832	49.364	27.832	50.3733	27.832	49.2289	27.832	50.7273	27.832	49.1314	27.832	51.0975	27.832	49.0633	27.832	51.4649	27.832	49.0174	27.832	51.8089	27.832	48.9886	27.832	52.1092	27.832	48.9745	27.832	52.3469	27.832	48.9755	27.832	52.5061	27.832	48.9942	27.832	52.5749	27.832	49.0347	27.832	52.5463	27.832	49.1024	27.832	52.4194	27.832	49.2029	27.832	52.1995	27.832	49.3418	27.832	51.8998	27.832	49.5248	27.832	51.5404	27.832	49.7569	27.832	51.1478	27.832	50.0411	27.832	50.7508	27.832	50.3756
29.2969	52.1074	29.2969	51.9114	29.2969	52.3604	29.2969	51.7654	29.2969	52.672	29.2969	51.6605	29.2969	53.0367	29.2969	51.5879	29.2969	53.441	29.2969	51.5405	29.2969	53.8645	29.2969	51.514	29.2969	54.2831	29.2969	51.5073	29.2969	54.6718	29.2969	51.5218	29.2969	55.0075	29.2969	51.5612	29.2969	55.2712	29.2969	51.6311	29.2969	55.4487	29.2969	51.7376	29.2969	55.5309	29.2969	51.8867	29.2969	55.5143	29.2969	52.0837	29.2969	55.4001	29.2969	52.3316	29.2969	55.195	29.2969	52.6304	29.2969	54.9106	29.2969	52.976	29.2969	54.5633	29.2969	53.3591	29.2969	54.1738	29.2969	53.7649
30.7617	55.8242	30.7617	55.6195	30.7617	56.0822	30.7617	55.4657	30.7617	56.3913	30.7617	55.3575	30.7617	56.7437	30.7617	55.2884	30.7617	57.1257	30.7617	55.2526	30.7617	57.5195	30.7617	55.246	30.7617	57.9048	30.7617	55.2667	30.7617	58.2612	30.7617	55.3147	30.7617	58.5702	30.7617	55.3919	30.7617	58.8164	30.7617	55.5016	30.7617	58.9887	30.7617	55.6472	30.7617	59.0798	30.7617	55.8318	30.7617	59.087	30.7617	56.0572	30.7617	59.0112	30.7617	56.3233	30.7617	58.8575	30.7617	56.6267	30.7617	58.6341	30.7617	56.9609	30.7617	58.3527	30.7617	57.3154	30.7617	58.028	30.7617	57.6764
32.2266	58.5126	32.2266	58.3092	32.2266	58.7675	32.2266	58.1559	32.2266	59.0708	32.2266	58.0485	32.2266	59.4146	32.2266	57.9815	32.2266	59.7855	32.2266	57.9497	32.2266	60.1665	32.2266	57.9492	32.2266	60.5384	32.2266	57.9776	32.2266	60.8821	32.2266	58.0346	32.2266	61.1802	32.2266	58.1212	32.2266	61.4183	32.2266	58.2396	32.2266	61.5859	32.2266	58.3923	32.2266	61.6766	32.2266	58.5817	32.2266	61.6878	32.2266	58.8088	32.2266	61.6208	32.2266	59.0728	32.2266	61.4802	32.2266	59.37	32.2266	61.2737	32.2266	59.6936	32.2266	61.0118	32.2266	60.0334	32.2266	60.7078	32.2266	60.3765
33.6914	61.2692	33.6914	61.0519	33.6914	61.5317	33.6914	60.8801	33.6914	61.8354	33.6914	60.7517	33.6914	62.1721	33.6914	60.6631	33.6914	62.5298	33.6914	60.6107	33.6914	62.8929	33.6914	60.5915	33.6914	63.2444	33.6914	60.6037	33.6914	63.567	33.6914	60.6473	33.6914	63.8449	33.6914	60.7233	33.6914	64.0651	33.6914	60.8338	33.6914	64.2177	33.6914	60.9815	33.6914	64.2966	33.6914	61.1684	33.6914	64.2993	33.6914	61.3953	33.6914	64.2266	33.6914	61.6609	33.6914	64.0826	33.6914	61.9608	33.6914	63.8745	33.6914	62.2874	33.6914	63.6119	33.6914	62.63	33.6914	63.3074	33.6914	62.9749
35.1562	63.9039	35.1562	63.6771	35.1562	64.1697	35.1562	63.4915	35.1562	64.4697	35.1562	63.3465	35.1562	64.7954	35.1562	63.2406	35.1562	65.1352	35.1562	63.1713	35.1562	65.4749	35.1562	63.1366	35.1562	65.799	35.1562	63.1353	35.1562	66.0921	35.1562	63.167	35.1562	66.34	35.1562	63.2322	35.1562	66.5308	35.1562	63.3321	35.1562	66.6558	35.1562	63.4683	35.1562	66.7098	35.1562	63.6417	35.1562	66.6908	35.1562	63.8526	35.1562	66.6003	35.1562	64.0996	35.1562	66.4431	35.1562	64.3791	35.1562	66.2269	35.1562	64.6852	35.1562	65.962	35.1562	65.0089	35.1562	65.6613	35.1562	65.3388
36.6211	66.6483	36.6211	66.4157	36.6211	66.9126	36.6211	66.2175	36.6211	67.2033	36.6211	66.0547	36.6211	67.5127	36.6211	65.9271	36.6211	67.8304	36.6211	65.8339	36.6211	68.1442	36.6211	65.7739	36.6211	68.4403	36.6211	65.7468	36.6211	68.7051	36.6211	65.7527	36.6211	68.9257	36.6211	65.7923	36.6211	69.0913	36.6211	65.8671	36.6211	69.1935	36.6211	65.9789	36.6211	69.227	36.6211	66.1294	36.6211	69.1897	36.6211	66.3194	36.6211	69.0829	36.6211	66.5488	36.6211	68.9108	36.6211	66.815	36.6211	68.6812	36.6211	67.1128	36.6211	68.4046	36.6211	67.4336	36.6211	68.0944	36.6211	67.7656
38.0859	69.447	38.0859	69.2554	38.0859	69.6672	38.0859	69.0943	38.0859	69.9123	38.0859	68.9639	38.0859	70.1762	38.0859	68.864	38.0859	70.4508	38.0859	68.7936	38.0859	70.7257	38.0859	68.752	38.0859	70.989	38.0859	68.7385	38.0859	71.2286	38.0859	68.7532	38.0859	71.4328	38.0859	68.7968	38.0859	71.5912	38.0859	68.8705	38.0859	71.6959	38.0859	68.9756	38.0859	71.7416	38.0859	69.1135	38.0859	71.7257	38.0859	69.2852	38.0859	71.6488	38.0859	69.4902	38.0859	71.514	38.0859	69.7262	38.0859	71.3274	38.0859	69.9881	38.0859	71.0976	38.0859	70.2679	38.0859	70.8358	38.0859	70.5547
39.5508	71.2335	39.5508	71.0496	39.5508	71.4468	39.5508	70.8973	39.5508	71.6854	39.5508	70.7771	39.5508	71.9429	39.5508	70.6887	39.5508	72.2107	39.5508	70.631	39.5508	72.4783	39.5508	70.6029	39.5508	72.7339	39.5508	70.6035	39.5508	72.9657	39.5508	70.6323	39.5508	73.1622	39.5508	70.6891	39.5508	73.3138	39.5508	70.7741	39.5508	73.4133	39.5508	70.8876	39.5508	73.4562	39.5508	71.0299	39.5508	73.441	39.5508	71.2004	39.5508	73.369	39.5508	71.3979	39.5508	73.2442	39.5508	71.6195	39.5508	73.0732	39.5508	71.8609	39.5508	72.8643	39.5508	72.1153	39.5508	72.6277	39.5508	72.3743
41.0156	73.1477	41.0156	72.9554	41.0156	73.3664	41.0156	72.7928	41.0156	73.6065	41.0156	72.6614	41.0156	73.8609	41.0156	72.5617	41.0156	74.121	41.0156	72.4934	41.0156	74.3763	41.0156	72.4555	41.0156	74.6157	41.0156	72.4469	41.0156	74.8279	41.0156	72.4669	41.0156	75.0025	41.0156	72.5148	41.0156	75.1309	41.0156	72.59	41.0156	75.2068	41.0156	72.6924	41.0156	75.2265	41.0156	72.8217	41.0156	75.1895	41.0156	72.9773	41.0156	75.0981	41.0156	73.1582	41.0156	74.9575	41.0156	73.3625	41.0156	74.7749	41.0156	73.587	41.0156	74.5598	41.0156	73.8269	41.0156	74.3229	41.0156	74.0751
42.4805	74.9583	42.4805	74.7645	42.4805	75.1746	42.4805	74.5966	42.4805	75.4083	42.4805	74.4565	42.4805	75.6528	42.4805	74.3452	42.4805	75.8996	42.4805	74.2628	42.4805	76.1391	42.4805	74.2088	42.4805	76.3606	42.4805	74.1827	42.4805	76.5535	42.4805	74.1838	42.4805	76.7078	42.4805	74.2118	42.4805	76.8153	42.4805	74.2663	42.4805	76.8698	42.4805	74.3473	42.4805	76.8681	42.4805	74.4548	42.4805	76.81	42.4805	74.5889	42.4805	76.6984	42.4805	74.7493	42.4805	76.5391	42.4805	74.9354	42.4805	76.3404	42.4805	75.1451	42.4805	76.113	42.4805	75.375	42.4805	75.8685	42.4805	75.619
43.9453	76.9693	43.9453	76.7783	43.9453	77.1761	43.9453	76.6066	43.9453	77.3939	43.9453	76.4562	43.9453	77.6163	43.9453	76.3284	43.9453	77.8354	43.9453	76.2235	43.9453	78.0424	43.9453	76.1418	43.9453	78.2277	43.9453	76.0831	43.9453	78.3815	43.9453	76.0476	43.9453	78.4952	43.9453	76.0355	43.9453	78.5614	43.9453	76.0474	43.9453	78.575	43.9453	76.0843	43.9453	78.5335	43.9453	76.1475	43.9453	78.4376	43.9453	76.2387	43.9453	78.2912	43.9453	76.3593	43.9453	78.1015	43.9453	76.5103	43.9453	77.8784	43.9453	76.6916	43.9453	77.634	43.9453	76.9009	43.9453	77.3815	43.9453	77.1335
45.4102	78.6326	45.4102	78.4627	45.4102	78.8164	45.4102	78.3096	45.4102	79.0102	45.4102	78.1748	45.4102	79.2085	45.4102	78.0591	45.4102	79.4047	45.4102	77.963	45.4102	79.5908	45.4102	77.8867	45.4102	79.7581	45.4102	77.8304	45.4102	79.8978	45.4102	77.7945	45.4102	80.0017	45.4102	77.7798	45.4102	80.0629	45.4102	77.7874	45.4102	80.0765	45.4102	77.8187	45.4102	80.0401	45.4102	77.8751	45.4102	79.9545	45.4102	77.9582	45.4102	79.8232	45.4102	78.0692	45.4102	79.6528	45.4102	78.2086	45.4102	79.4522	45.4102	78.3755	45.4102	79.2321	45.4102	78.5673	45.4102	79.0041	45.4102	78.7793
46.875	80.0237	46.875	79.851	46.875	80.2088	46.875	79.6943	46.875	80.4019	46.875	79.5558	46.875	80.5973	46.875	79.4371	46.875	80.7884	46.875	79.3393	46.875	80.9677	46.875	79.2629	46.875	81.1268	46.875	79.2081	46.875	81.2577	46.875	79.1754	46.875	81.3528	46.875	79.165	46.875	81.4057	46.875	79.1774	46.875	81.4123	46.875	79.2133	46.875	81.3708	46.875	79.2734	46.875	81.2825	46.875	79.3585	46.875	81.1515	46.875	79.4691	46.875	80.9844	46.875	79.6051	46.875	80.7902	46.875	79.7656	46.875	80.5793	46.875	79.9483	46.875	80.3624	46.875	80.1493
48.3398	81.1876	48.3398	81.0135	48.3398	81.373	48.3398	80.8545	48.3398	81.5651	48.3398	80.7133	48.3398	81.7582	48.3398	80.5918	48.3398	81.9457	48.3398	80.4914	48.3398	82.1199	48.3398	80.413	48.3398	82.273	48.3398	80.3572	48.3398	82.397	48.3398	80.3241	48.3398	82.4847	48.3398	80.314	48.3398	82.5304	48.3398	80.3271	48.3398	82.5301	48.3398	80.3636	48.3398	82.4828	48.3398	80.4237	48.3398	82.3901	48.3398	80.5078	48.3398	82.2564	48.3398	80.616	48.3398	82.0888	48.3398	80.7479	48.3398	81.8964	48.3398	80.9028	48.3398	81.6895	48.3398	81.0787	48.3398	81.4784	48.3398	81.2723
51.2695	83.1515	51.2695	82.9818	51.2695	83.3302	51.2695	82.8252	51.2695	83.5129	51.2695	82.6853	51.2695	83.6938	51.2695	82.5645	51.2695	83.8663	51.2695	82.465	51.2695	84.0236	51.2695	82.3881	51.2695	84.1584	51.2695	82.3345	51.2695	84.264	51.2695	82.3047	51.2695	84.3343	51.2695	82.2984	51.2695	84.3647	51.2695	82.3153	51.2695	84.3527	51.2695	82.3546	51.2695	84.2981	51.2695	82.4154	51.2695	84.2033	51.2695	82.4969	51.2695	84.0735	51.2695	82.5981	51.2695	83.9159	51.2695	82.7184	51.2695	83.739	51.2695	82.8568	51.2695	83.5523	51.2695	83.0122	51.2695	83.3643	51.2695	83.1825
52.7344	83.9015	52.7344	83.7388	52.7344	84.0695	52.7344	83.5852	52.7344	84.2382	52.7344	83.444	52.7344	84.4022	52.7344	83.3179	52.7344	84.5558	52.7344	83.2093	52.7344	84.6926	52.7344	83.12	52.7344	84.8063	52.7344	83.0514	52.7344	84.8907	52.7344	83.0045	52.7344	84.9405	52.7344	82.9799	52.7344	84.9517	52.7344	82.9781	52.7344	84.9225	52.7344	82.9988	52.7344	84.8531	52.7344	83.042	52.7344	84.7468	52.7344	83.1071	52.7344	84.609	52.7344	83.1935	52.7344	84.4473	52.7344	83.3004	52.7344	84.2703	52.7344	83.4268	52.7344	84.0869	52.7344	83.5712	52.7344	83.9052	52.7344	83.7317
54.1992	84.4298	54.1992	84.2739	54.1992	84.5881	54.1992	84.1242	54.1992	84.7447	54.1992	83.9838	54.1992	84.8948	54.1992	83.8557	54.1992	85.0329	54.1992	83.7422	54.1992	85.1532	54.1992	83.6454	54.1992	85.2499	54.1992	83.5671	54.1992	85.3171	54.1992	83.5087	54.1992	85.3498	54.1992	83.4709	54.1992	85.3444	54.1992	83.4544	54.1992	85.2993	54.1992	83.4594	54.1992	85.2154	54.1992	83.4858	54.1992	85.0962	54.1992	83.5335	54.1992	84.948	54.1992	83.6021	54.1992	84.779	54.1992	83.6913	54.1992	84.5986	54.1992	83.8005	54.1992	84.4163	54.1992	83.9292	54.1992	84.2402	54.1992	84.0765
55.6641	84.7706	55.6641	84.6138	55.6641	84.9291	55.6641	84.4624	55.6641	85.0854	55.6641	84.3193	55.6641	85.2348	55.6641	84.1872	55.6641	85.3719	55.6641	84.0685	55.6641	85.4908	55.6641	83.9654	55.6641	85.5856	55.6641	83.8796	55.6641	85.6501	55.6641	83.8127	55.6641	85.6793	55.6641	83.7659	55.6641	85.6692	55.6641	83.7399	55.6641	85.6179	55.6641	83.7351	55.6641	85.5262	55.6641	83.7518	55.6641	85.3975	55.6641	83.7901	55.6641	85.2383	55.6641	83.8502	55.6641	85.0571	55.6641	83.9324	55.6641	84.8643	55.6641	84.0372	55.6641	84.6703	55.6641	84.1648	55.6641	84.4847	55.6641	84.3147
58.5938	85.3175	58.5938	85.1649	58.5938	85.4737	58.5938	85.02	58.5938	85.6285	58.5938	84.8865	58.5938	85.7768	58.5938	84.7674	58.5938	85.9128	58.5938	84.665	58.5938	86.0308	58.5938	84.581	58.5938	86.1251	58.5938	84.5166	58.5938	86.1904	58.5938	84.4724	58.5938	86.2226	58.5938	84.4486	58.5938	86.2189	58.5938	84.445	58.5938	86.1784	58.5938	84.4611	58.5938	86.1026	58.5938	84.4962	58.5938	85.9952	58.5938	84.5497	58.5938	85.8618	58.5938	84.621	58.5938	85.71	58.5938	84.7095	58.5938	85.5479	58.5938	84.8149	58.5938	85.3834	58.5938	84.9365	58.5938	85.2235	58.5938	85.0734
60.0586	85.4881	60.0586	85.3345	60.0586	85.6434	60.0586	85.1873	60.0586	85.7957	60.0586	85.0507	60.0586	85.9393	60.0586	84.9279	60.0586	86.069	60.0586	84.8219	60.0586	86.1792	60.0586	84.7346	60.0586	86.2647	60.0586	84.6677	60.0586	86.3209	60.0586	84.6218	60.0586	86.3442	60.0586	84.5971	60.0586	86.3325	60.0586	84.5933	60.0586	86.2853	60.0586	84.6096	60.0586	86.2047	60.0586	84.6451	60.0586	86.0946	60.0586	84.6985	60.0586	85.9612	60.0586	84.7689	60.0586	85.8119	60.0586	84.8552	60.0586	85.6546	60.0586	84.9566	60.0586	85.4968	60.0586	85.0725	60.0586	85.3446	60.0586	85.2023
62.9883	85.5695	62.9883	85.4255	62.9883	85.7127	62.9883	85.2848	62.9883	85.8504	62.9883	85.1514	62.9883	85.9777	62.9883	85.0289	62.9883	86.0898	62.9883	84.9201	62.9883	86.1819	62.9883	84.8274	62.9883	86.2493	62.9883	84.7525	62.9883	86.288	62.9883	84.6966	62.9883	86.2948	62.9883	84.6602	62.9883	86.268	62.9883	84.6432	62.9883	86.2077	62.9883	84.6453	62.9883	86.1161	62.9883	84.6656	62.9883	85.9979	62.9883	84.7034	62.9883	85.8595	62.9883	84.7576	62.9883	85.7086	62.9883	84.8276	62.9883	85.5537	62.9883	84.9129	62.9883	85.4019	62.9883	85.0134	62.9883	85.2591	62.9883	85.129
64.4531	85.5446	64.4531	85.3991	64.4531	85.6891	64.4531	85.2568	64.4531	85.8281	64.4531	85.1214	64.4531	85.957	64.4531	84.9966	64.4531	86.0709	64.4531	84.8854	64.4531	86.165	64.4531	84.7904	64.4531	86.2346	64.4531	84.7136	64.4531	86.2755	64.4531	84.6564	64.4531	86.2846	64.4531	84.6195	64.4531	86.26	64.4531	84.6031	64.4531	86.2019	64.4531	84.6067	64.4531	86.1125	64.4531	84.6297	64.4531	85.9961	64.4531	84.671	64.4531	85.859	64.4531	84.7296	64.4531	85.7089	64.4531	84.8046	64.4531	85.5536	64.4531	84.8951	64.4531	85.4003	64.4531	85.0007	64.4531	85.2549	64.4531	85.1209
67.3828	85.5097	67.3828	85.3639	67.3828	85.6545	67.3828	85.2215	67.3828	85.7936	67.3828	85.0867	67.3828	85.9223	67.3828	84.9633	67.3828	86.0357	67.3828	84.8546	67.3828	86.129	67.3828	84.7632	67.3828	86.1978	67.3828	84.6912	67.3828	86.2383	67.3828	84.6397	67.3828	86.2477	67.3828	84.6092	67.3828	86.2248	67.3828	84.5996	67.3828	86.1702	67.3828	84.61	67.3828	86.0861	67.3828	84.6394	67.3828	85.9771	67.3828	84.6865	67.3828	85.849	67.3828	84.7501	67.3828	85.7086	67.3828	84.829	67.3828	85.5628	67.3828	84.9222	67.3828	85.4177	67.3828	85.0288	67.3828	85.2783	67.3828	85.148
68.8477	85.4548	68.8477	85.3095	68.8477	85.5993	68.8477	85.1678	68.8477	85.7383	68.8477	85.0339	68.8477	85.867	68.8477	84.9117	68.8477	85.9803	68.8477	84.8045	68.8477	86.0735	68.8477	84.715	68.8477	86.1423	68.8477	84.6453	68.8477	86.1829	68.8477	84.5965	68.8477	86.1926	68.8477	84.569	68.8477	86.1705	68.8477	84.5626	68.8477	86.1172	68.8477	84.5764	68.8477	86.0353	68.8477	84.609	68.8477	85.929	68.8477	84.6591	68.8477	85.8044	68.8477	84.7251	68.8477	85.6681	68.8477	84.8056	68.8477	85.5266	68.8477	84.8993	68.8477	85.3858	68.8477	85.0054	68.8477	85.2501	68.8477	85.1227
71.7773	85.4005	71.7773	85.2553	71.7773	85.5443	71.7773	85.1135	71.7773	85.6815	71.7773	84.9798	71.7773	85.807	71.7773	84.8582	71.7773	85.9158	71.7773	84.7522	71.7773	86.0033	71.7773	84.6647	71.7773	86.0652	71.7773	84.5976	71.7773	86.0984	71.7773	84.5518	71.7773	86.1009	71.7773	84.5275	71.7773	86.0723	71.7773	84.524	71.7773	86.0139	71.7773	84.5399	71.7773	85.9287	71.7773	84.5735	71.7773	85.8216	71.7773	84.6229	71.7773	85.6987	71.7773	84.6863	71.7773	85.5665	71.7773	84.7621	71.7773	85.4315	71.7773	84.8493	71.7773	85.2989	71.7773	84.947	71.7773	85.1727	71.7773	85.055
74.707	85.3752	74.707	85.2348	74.707	85.5131	74.707	85.0969	74.707	85.6434	74.707	84.9663	74.707	85.7611	74.707	84.8472	74.707	85.8613	74.707	84.7434	74.707	85.9398	74.707	84.6575	74.707	85.9929	74.707	84.5916	74.707	86.0178	74.707	84.5466	74.707	86.0133	74.707	84.5225	74.707	85.9791	74.707	84.5184	74.707	85.9172	74.707	84.5329	74.707	85.831	74.707	84.5641	74.707	85.7253	74.707	84.61	74.707	85.6062	74.707	84.6686	74.707	85.4802	74.707	84.7383	74.707	85.3531	74.707	84.8181	74.707	85.2299	74.707	84.9074	74.707	85.1136	74.707	85.0059
77.6367	85.3115	77.6367	85.1743	77.6367	85.4454	77.6367	85.0388	77.6367	85.5707	77.6367	84.9099	77.6367	85.6827	77.6367	84.7921	77.6367	85.7767	77.6367	84.6892	77.6367	85.8486	77.6367	84.6043	77.6367	85.8951	77.6367	84.5394	77.6367	85.9139	77.6367	84.4952	77.6367	85.9039	77.6367	84.4719	77.6367	85.8655	77.6367	84.4683	77.6367	85.8007	77.6367	84.4827	77.6367	85.7134	77.6367	84.513	77.6367	85.6086	77.6367	84.557	77.6367	85.4923	77.6367	84.6126	77.6367	85.371	77.6367	84.678	77.6367	85.2501	77.6367	84.7522	77.6367	85.1342	77.6367	84.8348	77.6367	85.0257	77.6367	84.9259
79.1016	85.2511	79.1016	85.1133	79.1016	85.3853	79.1016	84.9771	79.1016	85.5108	79.1016	84.8476	79.1016	85.6226	79.1016	84.7293	79.1016	85.7161	79.1016	84.6262	79.1016	85.7871	79.1016	84.5415	79.1016	85.8325	79.1016	84.4774	79.1016	85.8498	79.1016	84.4348	79.1016	85.8384	79.1016	84.4136	79.1016	85.7987	79.1016	84.4128	79.1016	85.7331	79.1016	84.4302	79.1016	85.6456	79.1016	84.4637	79.1016	85.5416	79.1016	84.5105	79.1016	85.4273	79.1016	84.5682	79.1016	85.3088	79.1016	84.6348	79.1016	85.1916	79.1016	84.709	79.1016	85.0797	79.1016	84.7903	79.1016	84.9752	79.1016	84.8789
82.0312	85.2181	82.0312	85.0779	82.0312	85.3528	82.0312	84.9376	82.0312	85.4765	82.0312	84.8025	82.0312	85.5843	82.0312	84.6775	82.0312	85.6715	82.0312	84.567	82.0312	85.7343	82.0312	84.4743	82.0312	85.7695	82.0312	84.4018	82.0312	85.7752	82.0312	84.3507	82.0312	85.751	82.0312	84.321	82.0312	85.6979	82.0312	84.3116	82.0312	85.6189	82.0312	84.3208	82.0312	85.5188	82.0312	84.3463	82.0312	85.4035	82.0312	84.3857	82.0312	85.2801	82.0312	84.4366	82.0312	85.1553	82.0312	84.497	82.0312	85.0346	82.0312	84.5655	82.0312	84.922	82.0312	84.6417	82.0312	84.8191	82.0312	84.726
84.9609	85.1533	84.9609	85.0162	84.9609	85.2862	84.9609	84.8802	84.9609	85.4097	84.9609	84.7501	84.9609	85.5189	84.9609	84.6307	84.9609	85.6091	84.9609	84.526	84.9609	85.676	84.9609	84.4389	84.9609	85.7165	84.9609	84.3716	84.9609	85.7281	84.9609	84.3247	84.9609	85.71	84.9609	84.298	84.9609	85.6628	84.9609	84.2901	84.9609	85.5888	84.9609	84.2989	84.9609	85.4921	84.9609	84.322	84.9609	85.3781	84.9609	84.3571	84.9609	85.2533	84.9609	84.4024	84.9609	85.1246	84.9609	84.4567	84.9609	84.9984	84.9609	84.5199	84.9609	84.8798	84.9609	84.5927	84.9609	84.772	84.9609	84.6764
87.8906	85.0254	87.8906	84.8821	87.8906	85.1633	87.8906	84.74	87.8906	85.2894	87.8906	84.6053	87.8906	85.3978	87.8906	84.4837	87.8906	85.4838	87.8906	84.3801	87.8906	85.5436	87.8906	84.2981	87.8906	85.5751	87.8906	84.2399	87.8906	85.5775	87.8906	84.2063	87.8906	85.5521	87.8906	84.1966	87.8906	85.5015	87.8906	84.2087	87.8906	85.4301	87.8906	84.2396	87.8906	85.3432	87.8906	84.2855	87.8906	85.2467	87.8906	84.3428	87.8906	85.1464	87.8906	84.4078	87.8906	85.0472	87.8906	84.4776	87.8906	84.9524	87.8906	84.5501	87.8906	84.8633	87.8906	84.6244	87.8906	84.7798	87.8906	84.7007
90.8203	84.9919	90.8203	84.8487	90.8203	85.1265	90.8203	84.7034	90.8203	85.2465	90.8203	84.5622	90.8203	85.3466	90.8203	84.4315	90.8203	85.4226	90.8203	84.3167	90.8203	85.4713	90.8203	84.2222	90.8203	85.4906	90.8203	84.1511	90.8203	85.4801	90.8203	84.1048	90.8203	85.4409	90.8203	84.0832	90.8203	85.3759	90.8203	84.0848	90.8203	85.2897	90.8203	84.1064	90.8203	85.1882	90.8203	84.1444	90.8203	85.0783	90.8203	84.1945	90.8203	84.9669	90.8203	84.2527	90.8203	84.8598	90.8203	84.3156	90.8203	84.7609	90.8203	84.3811	90.8203	84.6716	90.8203	84.4482	90.8203	84.5912	90.8203	84.5176
95.2148	84.9581	95.2148	84.8086	95.2148	85.0975	95.2148	84.6553	95.2148	85.2204	95.2148	84.5047	95.2148	85.3215	95.2148	84.3631	95.2148	85.3959	95.2148	84.2362	95.2148	85.4401	95.2148	84.1285	95.2148	85.4518	95.2148	84.0437	95.2148	85.4304	95.2148	83.9837	95.2148	85.3772	95.2148	83.9489	95.2148	85.2957	95.2148	83.9382	95.2148	85.1911	95.2148	83.9491	95.2148	85.0706	95.2148	83.9781	95.2148	84.9423	95.2148	84.021	95.2148	84.8143	95.2148	84.0738	95.2148	84.6935	95.2148	84.1327	95.2148	84.5844	95.2148	84.1954	95.2148	84.4885	95.2148	84.2608	95.2148	84.4045	95.2148	84.3297
98.1445	85.0809	98.1445	84.9341	98.1445	85.215	98.1445	84.7812	98.1445	85.3302	98.1445	84.6291	98.1445	85.4212	98.1445	84.4842	98.1445	85.4835	98.1445	84.3522	98.1445	85.5142	98.1445	84.2375	98.1445	85.5117	98.1445	84.1436	98.1445	85.4759	98.1445	84.0722	98.1445	85.4085	98.1445	84.0238	98.1445	85.313	98.1445	83.9973	98.1445	85.1945	98.1445	83.9907	98.1445	85.0601	98.1445	84.001	98.1445	84.918	98.1445	84.0248	98.1445	84.7765	98.1445	84.0589	98.1445	84.6435	98.1445	84.1007	98.1445	84.5244	98.1445	84.1485	98.1445	84.4219	98.1445	84.2023	98.1445	84.3359	98.1445	84.2638
101.074	84.9447	101.074	84.7999	101.074	85.0755	101.074	84.6475	101.074	85.187	101.074	84.4941	101.074	85.2745	101.074	84.3468	101.074	85.3346	101.074	84.2121	101.074	85.3651	101.074	84.0958	101.074	85.3649	101.074	84.0023	101.074	85.3345	101.074	83.9344	101.074	85.2757	101.074	83.893	101.074	85.1922	101.074	83.8773	101.074	85.089	101.074	83.8846	101.074	84.9726	101.074	83.9112	101.074	84.8501	101.074	83.9527	101.074	84.7286	101.074	84.0046	101.074	84.6138	101.074	84.0632	101.074	84.5094	101.074	84.1257	101.074	84.4165	101.074	84.1912	101.074	84.3343	101.074	84.26
105.469	84.9037	105.469	84.7536	105.469	85.0378	105.469	84.5939	105.469	85.1497	105.469	84.4316	105.469	85.2344	105.469	84.274	105.469	85.2878	105.469	84.1278	105.469	85.3069	105.469	83.999	105.469	85.2903	105.469	83.8925	105.469	85.2381	105.469	83.8116	105.469	85.1525	105.469	83.7575	105.469	85.038	105.469	83.7297	105.469	84.9014	105.469	83.7258	105.469	84.7516	105.469	83.7419	105.469	84.5989	105.469	83.773	105.469	84.4537	105.469	83.814	105.469	84.3246	105.469	83.86	105.469	84.2165	105.469	83.9076	105.469	84.1301	105.469	83.9556	105.469	84.0617	105.469	84.0055
108.398	85.0651	108.398	84.9131	108.398	85.2008	108.398	84.7512	108.398	85.3143	108.398	84.5865	108.398	85.4007	108.398	84.4261	108.398	85.456	108.398	84.2766	108.398	85.4773	108.398	84.144	108.398	85.463	108.398	84.033	108.398	85.4131	108.398	83.9466	108.398	85.329	108.398	83.8859	108.398	85.2142	108.398	83.8502	108.398	85.0742	108.398	83.837	108.398	84.917	108.398	83.8424	108.398	84.7521	108.398	83.862	108.398	84.5899	108.398	83.8912	108.398	84.4405	108.398	83.9263	108.398	84.3114	108.398	83.9653	108.398	84.206	108.398	84.0088	108.398	84.1236	108.398	84.0598
112.793	85.0764	112.793	84.9309	112.793	85.2093	112.793	84.7794	112.793	85.3238	112.793	84.6288	112.793	85.4153	112.793	84.4861	112.793	85.4802	112.793	84.3576	112.793	85.5161	112.793	84.2487	112.793	85.5218	112.793	84.163	112.793	85.4974	112.793	84.1023	112.793	85.4442	112.793	84.0667	112.793	85.3646	112.793	84.0542	112.793	85.2627	112.793	84.0616	112.793	85.1439	112.793	84.0847	112.793	85.0148	112.793	84.1192	112.793	84.8829	112.793	84.1613	112.793	84.7554	112.793	84.208	112.793	84.6384	112.793	84.2585	112.793	84.5359	112.793	84.3136	112.793	84.449	112.793	84.3759
117.188	84.9937	117.188	84.833	117.188	85.1395	117.188	84.6649	117.188	85.2642	117.188	84.4979	117.188	85.3631	117.188	84.3415	117.188	85.4329	117.188	84.2045	117.188	85.4717	117.188	84.0949	117.188	85.4792	117.188	84.0185	117.188	85.4565	117.188	83.978	117.188	85.4065	117.188	83.9728	117.188	85.3339	117.188	83.9991	117.188	85.2444	117.188	84.0508	117.188	85.1446	117.188	84.12	117.188	85.0414	117.188	84.1988	117.188	84.9409	117.188	84.2802	117.188	84.8477	117.188	84.3588	117.188	84.7642	117.188	84.4317	117.188	84.6904	117.188	84.4987	117.188	84.6241	117.188	84.5616
120.117	84.9387	120.117	84.7686	120.117	85.0913	120.117	84.5884	120.117	85.2202	120.117	84.4068	120.117	85.3206	120.117	84.2334	120.117	85.3891	120.117	84.0779	120.117	85.4238	120.117	83.9497	120.117	85.4245	120.117	83.8563	120.117	85.3928	120.117	83.8023	120.117	85.3324	120.117	83.789	120.117	85.2487	120.117	83.8138	120.117	85.1486	120.117	83.8704	120.117	85.0401	120.117	83.9503	120.117	84.931	120.117	84.0437	120.117	84.828	120.117	84.1411	120.117	84.7356	120.117	84.235	120.117	84.6555	120.117	84.3203	120.117	84.5862	120.117	84.3953	120.117	84.5234	120.117	84.4616
124.512	84.6679	124.512	84.5038	124.512	84.814	124.512	84.329	124.512	84.9356	124.512	84.152	124.512	85.0278	124.512	83.9818	124.512	85.087	124.512	83.8278	124.512	85.1117	124.512	83.6986	124.512	85.1024	124.512	83.6015	124.512	85.062	124.512	83.5415	124.512	84.9958	124.512	83.5207	124.512	84.9107	124.512	83.5377	124.512	84.8149	124.512	83.5879	124.512	84.7164	124.512	83.6639	124.512	84.6222	124.512	83.757	124.512	84.5369	124.512	83.8579	124.512	84.4619	124.512	83.9586	124.512	84.396	124.512	84.0527	124.512	84.3354	124.512	84.1368	124.512	84.2752	124.512	84.2103
128.906	84.8328	128.906	84.6593	128.906	84.9799	128.906	84.4677	128.906	85.0934	128.906	84.267	128.906	85.1673	128.906	84.0669	128.906	85.1978	128.906	83.8771	128.906	85.1831	128.906	83.7073	128.906	85.124	128.906	83.5665	128.906	85.0239	128.906	83.462	128.906	84.8895	128.906	83.3982	128.906	84.7305	128.906	83.3763	128.906	84.5593	128.906	83.3929	128.906	84.3901	128.906	83.4412	128.906	84.2368	128.906	83.5111	128.906	84.1104	128.906	83.5915	128.906	84.0159	128.906	83.6717	128.906	83.9516	128.906	83.7431	128.906	83.9091	128.906	83.8007	128.906	83.8771	128.906	83.8439
133.301	84.9928	133.301	84.8282	133.301	85.1316	133.301	84.6454	133.301	85.2385	133.301	84.4526	133.301	85.3088	133.301	84.2583	133.301	85.3394	133.301	84.0712	133.301	85.3294	133.301	83.8993	133.301	85.2792	133.301	83.7501	133.301	85.1915	133.301	83.6296	133.301	85.0703	133.301	83.5421	133.301	84.9217	133.301	83.4892	133.301	84.7537	133.301	83.4698	133.301	84.5762	133.301	83.4799	133.301	84.4003	133.301	83.5127	133.301	84.2372	133.301	83.5603	133.301	84.096	133.301	83.6146	133.301	83.9818	133.301	83.6692	133.301	83.8939	133.301	83.7212	133.301	83.8267	133.301	83.7719
139.16	84.9005	139.16	84.7554	139.16	85.0204	139.16	84.5927	139.16	85.1099	139.16	84.4212	139.16	85.1656	139.16	84.2507	139.16	85.1867	139.16	84.0907	139.16	85.1741	139.16	83.9496	139.16	85.1303	139.16	83.8337	139.16	85.0593	139.16	83.7466	139.16	84.9662	139.16	83.6893	139.16	84.8563	139.16	83.66	139.16	84.7355	139.16	83.6551	139.16	84.6093	139.16	83.6694	139.16	84.4828	139.16	83.6976	139.16	84.3606	139.16	83.7346	139.16	84.2469	139.16	83.7763	139.16	84.145	139.16	83.8209	139.16	84.0571	139.16	83.8685	139.16	83.9832	139.16	83.9214
143.555	84.4304	143.555	84.2546	143.555	84.5776	143.555	84.0586	143.555	84.6905	143.555	83.8542	143.555	84.7661	143.555	83.6553	143.555	84.8038	143.555	83.4773	143.555	84.8053	143.555	83.3347	143.555	84.7745	143.555	83.2393	143.555	84.7177	143.555	83.1977	143.555	84.6434	143.555	83.21	143.555	84.5617	143.555	83.2699	143.555	84.4826	143.555	83.3667	143.555	84.4141	143.555	83.4867	143.555	84.36	143.555	83.6165	143.555	84.3196	143.555	83.7447	143.555	84.2881	143.555	83.8632	143.555	84.2588	143.555	83.9671	143.555	84.2251	143.555	84.0547	143.555	84.1819	143.555	84.1258
147.949	84.74	147.949	84.5471	147.949	84.9018	147.949	84.3321	147.949	85.0254	147.949	84.1053	147.949	85.1051	147.949	83.8786	147.949	85.1371	147.949	83.6651	147.949	85.1198	147.949	83.4785	147.949	85.0546	147.949	83.3318	147.949	84.9467	147.949	83.2359	147.949	84.8055	147.949	83.1969	147.949	84.645	147.949	83.2148	147.949	84.4825	147.949	83.2827	147.949	84.3358	147.949	83.3882	147.949	84.2192	147.949	83.5154	147.949	84.1396	147.949	83.6481	147.949	84.0948	147.949	83.7726	147.949	84.0743	147.949	83.8786	147.949	84.0634	147.949	83.9602	147.949	84.0477	147.949	84.0157
153.809	84.964	153.809	84.7834	153.809	85.109	153.809	84.5755	153.809	85.211	153.809	84.349	153.809	85.2641	153.809	84.1132	153.809	85.2638	153.809	83.8778	153.809	85.2084	153.809	83.6528	153.809	85.0988	153.809	83.4487	153.809	84.9391	153.809	83.2761	153.809	84.7374	153.809	83.1441	153.809	84.5061	153.809	83.0595	153.809	84.2617	153.809	83.0242	153.809	84.0247	153.809	83.0347	153.809	83.8158	153.809	83.0817	153.809	83.6516	153.809	83.1518	153.809	83.5392	153.809	83.2301	153.809	83.474	153.809	83.3028	153.809	83.4412	153.809	83.3603	153.809	83.422	153.809	83.3988
159.668	84.9826	159.668	84.7947	159.668	85.139	159.668	84.5829	159.668	85.2581	159.668	84.3561	159.668	85.3359	159.668	84.1244	159.668	85.37	159.668	83.8985	159.668	85.36	159.668	83.689	159.668	85.3067	159.668	83.506	159.668	85.2123	159.668	83.3574	159.668	85.0804	159.668	83.2488	159.668	84.9164	159.668	83.1824	159.668	84.7277	159.668	83.1568	159.668	84.5242	159.668	83.1672	159.668	84.3179	159.668	83.2058	159.668	84.1224	159.668	83.2635	159.668	83.9496	159.668	83.331	159.668	83.8069	159.668	83.4006	159.668	83.695	159.668	83.4684	159.668	83.6077	159.668	83.5354
165.527	85.0515	165.527	84.8821	165.527	85.1848	165.527	84.6844	165.527	85.2762	165.527	84.4677	165.527	85.3224	165.527	84.2428	165.527	85.3227	165.527	84.0211	165.527	85.2791	165.527	83.8139	165.527	85.1964	165.527	83.6322	165.527	85.0819	165.527	83.4855	165.527	84.9449	165.527	83.3807	165.527	84.7958	165.527	83.322	165.527	84.645	165.527	83.3091	165.527	84.5016	165.527	83.3375	165.527	84.3718	165.527	83.3989	165.527	84.2587	165.527	83.4827	165.527	84.1616	165.527	83.5775	165.527	84.0774	165.527	83.6738	165.527	84.0009	165.527	83.7653	165.527	83.9266	165.527	83.8493
171.387	84.8977	171.387	84.7197	171.387	85.0369	171.387	84.5134	171.387	85.1294	171.387	84.2915	171.387	85.1707	171.387	84.0674	171.387	85.1596	171.387	83.8541	171.387	85.0984	171.387	83.663	171.387	84.9923	171.387	83.5032	171.387	84.8495	171.387	83.381	171.387	84.6804	171.387	83.2997	171.387	84.4981	171.387	83.26	171.387	84.3174	171.387	83.2595	171.387	84.1529	171.387	83.2929	171.387	84.0169	171.387	83.3526	171.387	83.9159	171.387	83.4287	171.387	83.8487	171.387	83.5111	171.387	83.8071	171.387	83.5901	171.387	83.7784	171.387	83.6582	171.387	83.7497	171.387	83.7114
177.246	84.7342	177.246	84.5405	177.246	84.8894	177.246	84.3192	177.246	84.9986	177.246	84.0845	177.246	85.0579	177.246	83.8528	177.246	85.0664	177.246	83.6406	177.246	85.0257	177.246	83.462	177.246	84.9396	177.246	83.3266	177.246	84.8137	177.246	83.2384	177.246	84.6561	177.246	83.1963	177.246	84.4771	177.246	83.1952	177.246	84.29	177.246	83.228	177.246	84.1105	177.246	83.2867	177.246	83.9545	177.246	83.3625	177.246	83.835	177.246	83.4462	177.246	83.7574	177.246	83.5279	177.246	83.7176	177.246	83.5983	177.246	83.7027	177.246	83.6506	177.246	83.696	177.246	83.682
183.105	84.7658	183.105	84.5649	183.105	84.9231	183.105	84.3291	183.105	85.0315	183.105	84.0711	183.105	85.0889	183.105	83.8063	183.105	85.0956	183.105	83.5526	183.105	85.0537	183.105	83.3284	183.105	84.9668	183.105	83.15	183.105	84.8398	183.105	83.0287	183.105	84.6791	183.105	82.9693	183.105	84.4932	183.105	82.9686	183.105	84.293	183.105	83.0165	183.105	84.0925	183.105	83.0984	183.105	83.9075	183.105	83.1978	183.105	83.7532	183.105	83.2986	183.105	83.6404	183.105	83.3872	183.105	83.5714	183.105	83.4547	183.105	83.5384	183.105	83.4972	183.105	83.5265	183.105	83.5179
188.965	84.6611	188.965	84.4658	188.965	84.8112	188.965	84.234	188.965	84.9095	188.965	83.9772	188.965	84.953	188.965	83.7088	188.965	84.9422	188.965	83.4432	188.965	84.8818	188.965	83.1958	188.965	84.7794	188.965	82.981	188.965	84.645	188.965	82.811	188.965	84.4887	188.965	82.6946	188.965	84.3196	188.965	82.636	188.965	84.1454	188.965	82.6339	188.965	83.9728	188.965	82.6816	188.965	83.809	188.965	82.7669	188.965	83.6619	188.965	82.8742	188.965	83.5386	188.965	82.9873	188.965	83.442	188.965	83.0921	188.965	83.3688	188.965	83.1802	188.965	83.3094	188.965	83.2505
196.289	84.4343	196.289	84.2113	196.289	84.6079	196.289	83.949	196.289	84.7272	196.289	83.6647	196.289	84.7911	196.289	83.3816	196.289	84.8011	196.289	83.1275	196.289	84.7607	196.289	82.9295	196.289	84.6765	196.289	82.8073	196.289	84.5593	196.289	82.7676	196.289	84.4246	196.289	82.8017	196.289	84.2914	196.289	82.8894	196.289	84.1767	196.289	83.0063	196.289	84.091	196.289	83.1313	196.289	84.0341	196.289	83.2507	196.289	83.9964	196.289	83.3591	196.289	83.9639	196.289	83.4575	196.289	83.9242	196.289	83.5495	196.289	83.8705	196.289	83.6381	196.289	83.8023	196.289	83.7233
203.613	84.9196	203.613	84.6962	203.613	85.0834	203.613	84.4247	203.613	85.1789	203.613	84.1183	203.613	85.2001	203.613	83.7924	203.613	85.1461	203.613	83.4652	203.613	85.0204	203.613	83.158	203.613	84.8317	203.613	82.8949	203.613	84.5925	203.613	82.7003	203.613	84.3178	203.613	82.5932	203.613	84.0258	203.613	82.5807	203.613	83.7377	203.613	82.6539	203.613	83.4792	203.613	82.7887	203.613	83.2772	203.613	82.9536	203.613	83.1538	203.613	83.117	203.613	83.1159	203.613	83.2535	203.613	83.1505	203.613	83.3458	203.613	83.2274	203.613	83.385	203.613	83.311	203.613	83.3703
210.938	84.6485	210.938	84.4678	210.938	84.7847	210.938	84.251	210.938	84.8717	210.938	84.0092	210.938	84.9086	210.938	83.7548	210.938	84.8971	210.938	83.4993	210.938	84.8403	210.938	83.2527	210.938	84.7418	210.938	83.0237	210.938	84.6055	210.938	82.8205	210.938	84.4367	210.938	82.6523	210.938	84.2431	210.938	82.5288	210.938	84.0346	210.938	82.4586	210.938	83.8237	210.938	82.4455	210.938	83.624	210.938	82.4858	210.938	83.4481	210.938	82.5675	210.938	83.3046	210.938	82.6729	210.938	83.1948	210.938	82.7834	210.938	83.1117	210.938	82.8844	210.938	83.0415	210.938	82.9694
218.262	84.2908	218.262	84.0439	218.262	84.4754	218.262	83.745	218.262	84.5933	218.262	83.4112	218.262	84.6451	218.262	83.0673	218.262	84.6361	218.262	82.7451	218.262	84.5762	218.262	82.4785	218.262	84.4791	218.262	82.2972	218.262	84.3605	218.262	82.2176	218.262	84.2354	218.262	82.2384	218.262	84.115	218.262	82.3415	218.262	84.0049	218.262	82.4996	218.262	83.9059	218.262	82.6842	218.262	83.8165	218.262	82.8716	218.262	83.7358	218.262	83.0451	218.262	83.6654	218.262	83.1945	218.262	83.6072	218.262	83.3148	218.262	83.5601	218.262	83.4054	218.262	83.518	218.262	83.4702
225.586	84.508	225.586	84.2613	225.586	84.6829	225.586	83.9524	225.586	84.7819	225.586	83.5973	225.586	84.8051	225.586	83.219	225.586	84.7566	225.586	82.847	225.586	84.6445	225.586	82.5154	225.586	84.4821	225.586	82.2582	225.586	84.2884	225.586	82.1025	225.586	84.0878	225.586	82.0617	225.586	83.9072	225.586	82.1314	225.586	83.7701	225.586	82.2908	225.586	83.6893	225.586	82.5102	225.586	83.6634	225.586	82.7579	225.586	83.6777	225.586	83.0062	225.586	83.711	225.586	83.2338	225.586	83.7422	225.586	83.4263	225.586	83.7545	225.586	83.5753	225.586	83.7359	225.586	83.6779
232.91	84.6307	232.91	84.3642	232.91	84.8212	232.91	84.0303	232.91	84.9293	232.91	83.6414	232.91	84.9509	232.91	83.2158	232.91	84.8848	232.91	82.7798	232.91	84.7344	232.91	82.3696	232.91	84.5093	232.91	82.0292	232.91	84.2263	232.91	81.8029	232.91	83.9102	232.91	81.7225	232.91	83.5935	232.91	81.7923	232.91	83.3141	232.91	81.986	232.91	83.1083	232.91	82.2562	232.91	82.9997	232.91	82.551	232.91	82.9898	232.91	82.8279	232.91	83.0562	232.91	83.0585	232.91	83.1615	232.91	83.228	232.91	83.267	232.91	83.3306	232.91	83.3421	232.91	83.367
241.699	84.4557	241.699	84.2415	241.699	84.5952	241.699	83.9659	241.699	84.6519	241.699	83.6453	241.699	84.6249	241.699	83.2973	241.699	84.5217	241.699	82.9407	241.699	84.3576	241.699	82.5953	241.699	84.153	241.699	82.283	241.699	83.9299	241.699	82.0279	241.699	83.7074	241.699	81.8545	241.699	83.4988	241.699	81.7821	241.699	83.3105	241.699	81.817	241.699	83.1443	241.699	81.9463	241.699	83.0015	241.699	82.1394	241.699	82.8877	241.699	82.3555	241.699	82.812	241.699	82.5548	241.699	82.7808	241.699	82.7071	241.699	82.7887	241.699	82.7973	241.699	82.8144	241.699	82.8271
250.488	84.4916	250.488	84.2041	250.488	84.6948	250.488	83.8434	250.488	84.8079	250.488	83.4277	250.488	84.8285	250.488	82.9824	250.488	84.7563	250.488	82.5383	250.488	84.5937	250.488	82.129	250.488	84.349	250.488	81.7869	250.488	84.0405	250.488	81.5403	250.488	83.7007	250.488	81.4094	250.488	83.3758	250.488	81.4032	250.488	83.1177	250.488	81.5162	250.488	82.9659	250.488	81.727	250.488	82.9285	250.488	82.001	250.488	82.9783	250.488	82.2979	250.488	83.0673	250.488	82.5805	250.488	83.15	250.488	82.8213	250.488	83.1959	250.488	83.0053	250.488	83.1906	250.488	83.1281
259.277	85.0257	259.277	84.7915	259.277	85.1823	259.277	84.4894	259.277	85.2533	259.277	84.1316	259.277	85.2333	259.277	83.7339	259.277	85.1209	259.277	83.3164	259.277	84.9204	259.277	82.9042	259.277	84.6433	259.277	82.5252	259.277	84.3077	259.277	82.2078	259.277	83.9382	259.277	81.9764	259.277	83.5653	259.277	81.8469	259.277	83.2256	259.277	81.8238	259.277	82.9584	259.277	81.8989	259.277	82.7953	259.277	82.052	259.277	82.7453	259.277	82.2545	259.277	82.7859	259.277	82.4741	259.277	82.8707	259.277	82.6793	259.277	82.9488	259.277	82.8435	259.277	82.9812	259.277	82.9473
268.066	84.8679	268.066	84.6016	268.066	85.0285	268.066	84.2371	268.066	85.0811	268.066	83.7886	268.066	85.0279	268.066	83.2794	268.066	84.8766	268.066	82.7452	268.066	84.6397	268.066	82.2341	268.066	84.3344	268.066	81.8007	268.066	83.9819	268.066	81.4944	268.066	83.6073	268.066	81.3444	268.066	83.2422	268.066	81.3519	268.066	82.9239	268.066	81.4931	268.066	82.6918	268.066	81.7297	268.066	82.575	268.066	82.0193	268.066	82.578	268.066	82.3214	268.066	82.6749	268.066	82.6006	268.066	82.8178	268.066	82.8283	268.066	82.9544	268.066	82.984	268.066	83.0425	268.066	83.056
276.855	85.0642	276.855	84.8211	276.855	85.2174	276.855	84.495	276.855	85.2763	276.855	84.0945	276.855	85.24	276.855	83.6315	276.855	85.1118	276.855	83.1227	276.855	84.9003	276.855	82.5931	276.855	84.6188	276.855	82.079	276.855	84.2843	276.855	81.6283	276.855	83.9165	276.855	81.2928	276.855	83.5365	276.855	81.1112	276.855	83.1678	276.855	81.0926	276.855	82.8378	276.855	81.2134	276.855	82.5765	276.855	81.4293	276.855	82.4092	276.855	81.691	276.855	82.3434	276.855	81.9541	276.855	82.3583	276.855	82.1817	276.855	82.4105	276.855	82.347	276.855	82.4497	276.855	82.4357
287.109	85.317	287.109	85.093	287.109	85.4497	287.109	84.7855	287.109	85.4862	287.109	84.406	287.109	85.4244	287.109	83.9707	287.109	85.2651	287.109	83.5015	287.109	85.0135	287.109	83.0256	287.109	84.6811	287.109	82.574	287.109	84.2878	287.109	82.1776	287.109	83.8641	287.109	81.8632	287.109	83.452	287.109	81.65	287.109	83.1003	287.109	81.5478	287.109	82.8515	287.109	81.5566	287.109	82.7235	287.109	81.6652	287.109	82.6994	287.109	81.8504	287.109	82.7358	287.109	82.079	287.109	82.7835	287.109	82.3137	287.109	82.8034	287.109	82.5211	287.109	82.7718	287.109	82.6777
297.363	85.1024	297.363	84.8837	297.363	85.2172	297.363	84.5711	297.363	85.2218	297.363	84.1773	297.363	85.1153	297.363	83.7192	297.363	84.9046	297.363	83.2208	297.363	84.6055	297.363	82.718	297.363	84.243	297.363	82.2597	297.363	83.8491	297.363	81.9014	297.363	83.4607	297.363	81.6874	297.363	83.1147	297.363	81.6304	297.363	82.8444	297.363	81.707	297.363	82.6744	297.363	81.8721	297.363	82.615	297.363	82.0821	297.363	82.656	297.363	82.3062	297.363	82.7645	297.363	82.5255	297.363	82.8928	297.363	82.7253	297.363	82.9933	297.363	82.8885	297.363	83.0323	297.363	82.996
307.617	85.3264	307.617	85.0881	307.617	85.4685	307.617	84.7632	307.617	85.5059	307.617	84.3613	307.617	85.4316	307.617	83.8936	307.617	85.2431	307.617	83.3749	307.617	84.9437	307.617	82.8279	307.617	84.5457	307.617	82.2877	307.617	84.0722	307.617	81.805	307.617	83.5602	307.617	81.4415	307.617	83.0593	307.617	81.2518	307.617	82.6259	307.617	81.2564	307.617	82.3108	307.617	81.4272	307.617	82.1451	307.617	81.7012	307.617	82.1303	307.617	82.0096	307.617	82.2358	307.617	82.2976	307.617	82.4068	307.617	82.5291	307.617	82.58	307.617	82.6809	307.617	82.702	307.617	82.7397
319.336	85.0265	319.336	84.7637	319.336	85.1965	319.336	84.4201	319.336	85.2638	319.336	84.0097	319.336	85.221	319.336	83.5486	319.336	85.0647	319.336	83.0569	319.336	84.7964	319.336	82.5608	319.336	84.424	319.336	82.0943	319.336	83.9656	319.336	81.6982	319.336	83.4551	319.336	81.4152	319.336	82.9488	319.336	81.2783	319.336	82.5218	319.336	81.2989	319.336	82.2449	319.336	81.461	319.336	82.1495	319.336	81.7255	319.336	82.2117	319.336	82.0408	319.336	82.3718	319.336	82.3546	319.336	82.5663	319.336	82.6208	319.336	82.7425	319.336	82.8041	319.336	82.8586	319.336	82.8843
329.59	85.1123	329.59	84.833	329.59	85.3069	329.59	84.4852	329.59	85.3998	329.59	84.082	329.59	85.3762	329.59	83.6338	329.59	85.2263	329.59	83.15	329.59	84.948	329.59	82.6443	329.59	84.5467	329.59	82.1416	329.59	84.0349	329.59	81.6829	329.59	83.4359	329.59	81.3242	329.59	82.7924	329.59	81.1213	329.59	82.1784	329.59	81.1056	329.59	81.6996	329.59	81.2648	329.59	81.4574	329.59	81.5473	329.59	81.4861	329.59	81.8843	329.59	81.7222	329.59	82.2101	329.59	82.0483	329.59	82.4724	329.59	82.356	329.59	82.6337	329.59	82.5751	329.59	82.6708
341.309	85.2023	341.309	84.8888	341.309	85.4036	341.309	84.4793	341.309	85.4834	341.309	83.9964	341.309	85.4384	341.309	83.4693	341.309	85.2703	341.309	82.9326	341.309	84.9834	341.309	82.4241	341.309	84.5845	341.309	81.9812	341.309	84.0853	341.309	81.636	341.309	83.5107	341.309	81.4102	341.309	82.9102	341.309	81.3126	341.309	82.3615	341.309	81.3387	341.309	81.9532	341.309	81.4716	341.309	81.7429	341.309	81.6831	341.309	81.7239	341.309	81.9339	341.309	81.8386	341.309	82.178	341.309	82.0201	341.309	82.3697	341.309	82.2148	341.309	82.4738	341.309	82.3789	341.309	82.4744
353.027	85.3412	353.027	84.9862	353.027	85.5535	353.027	84.4966	353.027	85.6207	353.027	83.8904	353.027	85.5463	353.027	83.2001	353.027	85.3393	353.027	82.4767	353.027	85.0141	353.027	81.7882	353.027	84.586	353.027	81.2044	353.027	84.0659	353.027	80.773	353.027	83.4611	353.027	80.5055	353.027	82.7886	353.027	80.3921	353.027	82.106	353.027	80.4299	353.027	81.5394	353.027	80.629	353.027	81.2554	353.027	80.9847	353.027	81.3366	353.027	81.4468	353.027	81.6873	353.027	81.9268	353.027	82.1169	353.027	82.3359	353.027	82.474	353.027	82.614	353.027	82.6865	353.027	82.7337
366.211	85.5092	366.211	85.2804	366.211	85.6289	366.211	84.9463	366.211	85.6336	366.211	84.5047	366.211	85.5202	366.211	83.9481	366.211	85.2904	366.211	83.2722	366.211	84.9522	366.211	82.4952	366.211	84.5192	366.211	81.6858	366.211	84.0097	366.211	80.9816	366.211	83.4454	366.211	80.5487	366.211	82.852	366.211	80.4585	366.211	82.2652	366.211	80.6146	366.211	81.7376	366.211	80.8483	366.211	81.3377	366.211	81.0499	366.211	81.1264	366.211	81.2018	366.211	81.1183	366.211	81.3354	366.211	81.2598	366.211	81.4724	366.211	81.4526	366.211	81.5929	366.211	81.6009	366.211	81.6487
379.395	85.7533	379.395	85.4977	379.395	85.9015	379.395	85.1416	379.395	85.9327	379.395	84.6908	379.395	85.8365	379.395	84.1527	379.395	85.6073	379.395	83.5403	379.395	85.2484	379.395	82.8792	379.395	84.7727	379.395	82.2148	379.395	84.1971	379.395	81.6149	379.395	83.5388	379.395	81.1571	379.395	82.8199	379.395	80.8989	379.395	82.0882	379.395	80.8496	379.395	81.4497	379.395	80.9714	379.395	81.0667	379.395	81.2064	379.395	81.0588	379.395	81.5	379.395	81.3692	379.395	81.8071	379.395	81.7994	379.395	82.0876	379.395	82.1646	379.395	82.3021	379.395	82.3728	379.395	82.4101
392.578	85.5772	392.578	85.2683	392.578	85.7723	392.578	84.864	392.578	85.8361	392.578	84.381	392.578	85.7565	392.578	83.8322	392.578	85.5315	392.578	83.2278	392.578	85.1687	392.578	82.5815	392.578	84.6806	392.578	81.9272	392.578	84.0802	392.578	81.3392	392.578	83.3838	392.578	80.9305	392.578	82.6232	392.578	80.7973	392.578	81.8622	392.578	80.9411	392.578	81.2095	392.578	81.2668	392.578	80.8103	392.578	81.6614	392.578	80.7822	392.578	82.0516	392.578	81.1155	392.578	82.3999	392.578	81.6557	392.578	82.6752	392.578	82.2046	392.578	82.8346	392.578	82.6172	392.578	82.8277
405.762	85.4185	405.762	85.1744	405.762	85.5418	405.762	84.814	405.762	85.5423	405.762	84.3404	405.762	85.4255	405.762	83.7543	405.762	85.2046	405.762	83.0583	405.762	84.8916	405.762	82.2678	405.762	84.4875	405.762	81.4304	405.762	83.9776	405.762	80.6505	405.762	83.3433	405.762	80.088	405.762	82.5846	405.762	79.8812	405.762	81.7487	405.762	80.0341	405.762	80.9524	405.762	80.4184	405.762	80.3733	405.762	80.8871	405.762	80.1702	405.762	81.3442	405.762	80.3654	405.762	81.7354	405.762	80.8245	405.762	82.0172	405.762	81.356	405.762	82.1441	405.762	81.8041	405.762	82.0774
420.41	85.7427	420.41	85.5375	420.41	85.8352	420.41	85.2154	420.41	85.8201	420.41	84.7718	420.41	85.702	420.41	84.199	420.41	85.482	420.41	83.4864	420.41	85.157	420.41	82.6297	420.41	84.7205	420.41	81.6545	420.41	84.1642	420.41	80.6555	420.41	83.478	420.41	79.8253	420.41	82.6561	420.41	79.3931	420.41	81.7235	420.41	79.4413	420.41	80.7877	420.41	79.8273	420.41	80.0831	420.41	80.3409	420.41	79.8696	420.41	80.8465	420.41	80.1664	420.41	81.2835	420.41	80.7167	420.41	81.6162	420.41	81.2528	420.41	81.8073	420.41	81.6357	420.41	81.8209
435.059	84.9668	435.059	84.7753	435.059	85.0687	435.059	84.4962	435.059	85.076	435.059	84.1251	435.059	84.9847	435.059	83.6492	435.059	84.7962	435.059	83.0485	435.059	84.5181	435.059	82.3056	435.059	84.1601	435.059	81.4311	435.059	83.726	435.059	80.5056	435.059	83.2088	435.059	79.7206	435.059	82.595	435.059	79.3293	435.059	81.8776	435.059	79.4432	435.059	81.0854	435.059	79.9112	435.059	80.3336	435.059	80.4893	435.059	79.8544	435.059	81.0179	435.059	79.8675	435.059	81.433	435.059	80.3245	435.059	81.7107	435.059	80.9374	435.059	81.8275	435.059	81.4499	435.059	81.7503
451.172	85.0158	451.172	84.7457	451.172	85.1856	451.172	84.3898	451.172	85.2343	451.172	83.9501	451.172	85.1465	451.172	83.4133	451.172	84.9234	451.172	82.7488	451.172	84.5847	451.172	81.9131	451.172	84.152	451.172	80.8686	451.172	83.628	451.172	79.6312	451.172	82.9904	451.172	78.3734	451.172	82.2124	451.172	77.5421	451.172	81.2967	451.172	77.6172	451.172	80.32	451.172	78.4712	451.172	79.4841	451.172	79.5574	451.172	79.1064	451.172	80.5244	451.172	79.3874	451.172	81.2672	451.172	80.1458	451.172	81.7725	451.172	80.9944	451.172	82.0271	451.172	81.6501	451.172	81.9976
465.82	84.9233	465.82	84.6507	465.82	85.0684	465.82	84.2661	465.82	85.0827	465.82	83.7886	465.82	84.98	465.82	83.233	465.82	84.7886	465.82	82.6031	465.82	84.5354	465.82	81.8868	465.82	84.2255	465.82	81.0557	465.82	83.8325	465.82	80.0784	465.82	83.3073	465.82	78.9706	465.82	82.602	465.82	77.9039	465.82	81.7001	465.82	77.2875	465.82	80.6627	465.82	77.4783	465.82	79.687	465.82	78.2954	465.82	79.0884	465.82	79.2676	465.82	79.0609	465.82	80.084	465.82	79.4613	465.82	80.6218	465.82	80.0013	465.82	80.8506	465.82	80.4797	465.82	80.787
483.398	84.6397	483.398	84.4763	483.398	84.7052	483.398	84.2117	483.398	84.6752	483.398	83.8471	483.398	84.55	483.398	83.3905	483.398	84.3338	483.398	82.8483	483.398	84.0383	483.398	82.208	483.398	83.6782	483.398	81.4228	483.398	83.2603	483.398	80.4192	483.398	82.7751	483.398	79.1481	483.398	82.1978	483.398	77.7065	483.398	81.4958	483.398	76.5296	483.398	80.6574	483.398	76.2833	483.398	79.7674	483.398	77.0404	483.398	79.1003	483.398	78.1983	483.398	79.01	483.398	79.2863	483.398	79.4993	483.398	80.1226	483.398	80.1715	483.398	80.6484	483.398	80.6675	483.398	80.8354
499.512	84.0432	499.512	83.9267	499.512	84.0635	499.512	83.7281	499.512	83.9743	499.512	83.4518	499.512	83.7782	499.512	83.0905	499.512	83.5048	499.512	82.6293	499.512	83.2028	499.512	82.055	499.512	82.9067	499.512	81.3584	499.512	82.6016	499.512	80.5323	499.512	82.2238	499.512	79.5775	499.512	81.7003	499.512	78.5393	499.512	80.9979	499.512	77.5751	499.512	80.1576	499.512	76.9827	499.512	79.3202	499.512	77.0373	499.512	78.7312	499.512	77.7017	499.512	78.6379	499.512	78.6496	499.512	79.0524	499.512	79.5421	499.512	79.6892	499.512	80.1587	499.512	80.2057	499.512	80.3878
517.09	84.1192	517.09	83.9594	517.09	84.1874	517.09	83.7409	517.09	84.1418	517.09	83.4918	517.09	83.9773	517.09	83.211	517.09	83.708	517.09	82.8513	517.09	83.3632	517.09	82.3331	517.09	82.9747	517.09	81.5862	517.09	82.5604	517.09	80.5844	517.09	82.1087	517.09	79.3625	517.09	81.5678	517.09	78.0449	517.09	80.8581	517.09	76.92	517.09	79.9352	517.09	76.4395	517.09	78.9237	517.09	76.8483	517.09	78.2533	517.09	77.8531	517.09	78.3764	517.09	78.974	517.09	79.1175	517.09	79.8983	517.09	79.9315	517.09	80.4838	517.09	80.4888	517.09	80.6819
536.133	83.5314	536.133	83.2581	536.133	83.5922	536.133	82.8302	536.133	83.4183	536.133	82.3411	536.133	83.0302	536.133	81.8966	536.133	82.5018	536.133	81.5477	536.133	81.9499	536.133	81.2404	536.133	81.4873	536.133	80.8576	536.133	81.164	536.133	80.3067	536.133	80.9421	536.133	79.5798	536.133	80.7157	536.133	78.7843	536.133	80.3561	536.133	78.1149	536.133	79.7653	536.133	77.7374	536.133	78.952	536.133	77.7121	536.133	78.1548	536.133	78.038	536.133	77.864	536.133	78.6496	536.133	78.3325	536.133	79.3583	536.133	79.1644	536.133	79.9093	536.133	79.8386	536.133	80.1005
555.176	84.4727	555.176	84.2606	555.176	84.4123	555.176	83.7755	555.176	84.0936	555.176	83.043	555.176	83.5549	555.176	82.1504	555.176	82.8678	555.176	81.2617	555.176	82.1245	555.176	80.5328	555.176	81.4161	555.176	79.9612	555.176	80.8242	555.176	79.3697	555.176	80.3925	555.176	78.5538	555.176	80.0553	555.176	77.4726	555.176	79.6486	555.176	76.4361	555.176	79.0409	555.176	76.0301	555.176	78.2596	555.176	76.4513	555.176	77.5532	555.176	77.3052	555.176	77.3124	555.176	78.2109	555.176	77.7223	555.176	78.9777	555.176	78.5091	555.176	79.4718	555.176	79.2235	555.176	79.5725
574.219	84.8132	574.219	84.7088	574.219	84.7084	574.219	84.4035	574.219	84.3949	574.219	83.904	574.219	83.8977	574.219	83.2312	574.219	83.2593	574.219	82.4595	574.219	82.5144	574.219	81.7246	574.219	81.6836	574.219	81.1267	574.219	80.8016	574.219	80.584	574.219	79.9364	574.219	79.8531	574.219	79.1616	574.219	78.7376	574.219	78.4973	574.219	77.3165	574.219	77.885	574.219	76.1472	574.219	77.2619	574.219	76.0321	574.219	76.7358	574.219	76.9369	574.219	76.6786	574.219	78.0964	574.219	77.3241	574.219	79.0137	574.219	78.3181	574.219	79.5227	574.219	79.1526	574.219	79.5736
594.727	85.2415	594.727	85.1809	594.727	85.0451	594.727	84.8979	594.727	84.5758	594.727	84.4278	594.727	83.8581	594.727	83.8022	594.727	82.9579	594.727	83.065	594.727	81.9435	594.727	82.3081	594.727	80.8373	594.727	81.6749	594.727	79.6378	594.727	81.2432	594.727	78.4312	594.727	80.8749	594.727	77.4338	594.727	80.2886	594.727	76.7795	594.727	79.3271	594.727	76.3393	594.727	78.1847	594.727	75.9571	594.727	77.4266	594.727	75.7252	594.727	77.4851	594.727	75.8885	594.727	78.1048	594.727	76.5111	594.727	78.7445	594.727	77.4027	594.727	79.0516	594.727	78.283	594.727	78.8889
615.234	85.8643	615.234	85.6558	615.234	85.7997	615.234	85.2182	615.234	85.4467	615.234	84.6003	615.234	84.8217	615.234	83.8367	615.234	83.9611	615.234	82.97	615.234	82.9107	615.234	82.1041	615.234	81.716	615.234	81.4073	615.234	80.4039	615.234	80.9691	615.234	78.9826	615.234	80.6383	615.234	77.486	615.234	80.1408	615.234	76.0544	615.234	79.3723	615.234	74.9163	615.234	78.5378	615.234	74.1309	615.234	78.0443	615.234	73.5798	615.234	78.1594	615.234	73.6892	615.234	78.735	615.234	75.1465	615.234	79.379	615.234	77.1791	615.234	79.7416	615.234	78.7535	615.234	79.5865
637.207	86.9409	637.207	86.6908	637.207	86.8551	637.207	86.1165	637.207	86.4478	637.207	85.2517	637.207	85.7786	637.207	84.1756	637.207	84.9363	637.207	83.0382	637.207	83.9578	637.207	82.0462	637.207	82.7509	637.207	81.3762	637.207	81.1283	637.207	81.0239	637.207	78.9437	637.207	80.7369	637.207	76.3049	637.207	80.1922	637.207	73.9412	637.207	79.2947	637.207	72.954	637.207	78.3816	637.207	73.0124	637.207	78.1124	637.207	73.2863	637.207	78.7549	637.207	74.1225	637.207	79.7892	637.207	75.8479	637.207	80.5968	637.207	77.8246	637.207	80.8643	637.207	79.4479	637.207	80.4844
659.18	87.812	659.18	87.38	659.18	87.9105	659.18	86.6463	659.18	87.6955	659.18	85.6631	659.18	87.2512	659.18	84.4682	659.18	86.6926	659.18	83.0805	659.18	86.069	659.18	81.5311	659.18	85.3063	659.18	79.8942	659.18	84.298	659.18	78.3797	659.18	83.0327	659.18	77.4892	659.18	81.5884	659.18	77.4886	659.18	79.9557	659.18	77.8047	659.18	77.8603	659.18	77.8965	659.18	74.8978	659.18	77.7988	659.18	71.3438	659.18	77.9681	659.18	69.8351	659.18	78.6972	659.18	72.0013	659.18	79.5824	659.18	75.3854	659.18	80.0157	659.18	78.0912	659.18	79.6032
682.617	86.8862	682.617	86.2745	682.617	87.1437	682.617	85.3542	682.617	87.0797	682.617	84.2072	682.617	86.8184	682.617	82.9185	682.617	86.4848	682.617	81.5485	682.617	86.1109	682.617	80.1179	682.617	85.6913	682.617	78.6082	682.617	85.234	682.617	77.0086	682.617	84.6967	682.617	75.4121	682.617	83.9799	682.617	74.1041	682.617	83.0146	682.617	73.5996	682.617	81.775	682.617	74.1908	682.617	80.1354	682.617	75.4093	682.617	77.7839	682.617	76.672	682.617	74.6714	682.617	77.8101	682.617	72.9599	682.617	78.7226	682.617	74.8992	682.617	79.1278	682.617	77.2966	682.617	78.7196
707.52	85.774	707.52	85.2212	707.52	85.9694	707.52	84.3629	707.52	85.8454	707.52	83.3043	707.52	85.5342	707.52	82.1723	707.52	85.1901	707.52	81.1538	707.52	84.8723	707.52	80.5138	707.52	84.537	707.52	80.3073	707.52	84.1188	707.52	80.062	707.52	83.5842	707.52	79.0903	707.52	82.9546	707.52	77.1172	707.52	82.2669	707.52	74.9107	707.52	81.4529	707.52	73.9776	707.52	80.2701	707.52	74.186	707.52	78.4708	707.52	74.9122	707.52	76.3295	707.52	76.1679	707.52	75.434	707.52	77.615	707.52	76.6315	707.52	78.6526	707.52	78.142	707.52	78.8766
732.422	85.2322	732.422	85.1583	732.422	85.0175	732.422	84.6758	732.422	84.6959	732.422	83.8443	732.422	84.3279	732.422	82.9149	732.422	83.8078	732.422	82.1447	732.422	83.0694	732.422	81.5063	732.422	82.2324	732.422	80.8083	732.422	81.4801	732.422	80.1626	732.422	80.9013	732.422	79.7906	732.422	80.553	732.422	79.1763	732.422	80.4599	732.422	77.6299	732.422	80.365	732.422	75.4355	732.422	79.783	732.422	74.4967	732.422	78.3933	732.422	75.3714	732.422	76.2162	732.422	76.2366	732.422	73.8973	732.422	76.7295	732.422	73.7241	732.422	77.0273	732.422	75.5461	732.422	76.7908
757.324	84.6225	757.324	84.1824	757.324	84.7651	757.324	83.5335	757.324	84.5902	757.324	82.7578	757.324	84.1629	757.324	81.9205	757.324	83.5737	757.324	81.1286	757.324	82.8844	757.324	80.4552	757.324	82.1466	757.324	79.803	757.324	81.4686	757.324	79.1659	757.324	80.9876	757.324	78.8251	757.324	80.6906	757.324	78.5407	757.324	80.331	757.324	77.6494	757.324	79.6203	757.324	75.8858	757.324	78.4568	757.324	74.0527	757.324	76.9603	757.324	74.2606	757.324	75.3708	757.324	75.4562	757.324	73.841	757.324	76.1975	757.324	73.1158	757.324	76.4201	757.324	74.3351	757.324	75.8601
785.156	83.6929	785.156	83.8371	785.156	83.6096	785.156	83.641	785.156	83.6501	785.156	82.8417	785.156	83.4198	785.156	81.535	785.156	82.674	785.156	80.4009	785.156	81.6455	785.156	80.2254	785.156	80.7744	785.156	80.1999	785.156	80.1115	785.156	79.0096	785.156	79.3406	785.156	76.8604	785.156	78.6661	785.156	75.6703	785.156	78.8335	785.156	75.383	785.156	79.3665	785.156	74.3669	785.156	78.9899	785.156	73.117	785.156	77.3331	785.156	73.2223	785.156	74.7438	785.156	74.419	785.156	72.0077	785.156	75.4574	785.156	71.8956	785.156	75.8812	785.156	73.9539	785.156	75.4413
811.523	83.541	811.523	83.1105	811.523	83.7498	811.523	82.8819	811.523	83.4681	811.523	82.9343	811.523	82.7135	811.523	82.8496	811.523	81.6473	811.523	82.1613	811.523	80.2683	811.523	80.7542	811.523	78.4809	811.523	79.2323	811.523	76.7354	811.523	77.9476	811.523	76.1933	811.523	76.0412	811.523	76.7397	811.523	73.8811	811.523	76.847	811.523	73.3707	811.523	76.3159	811.523	73.6378	811.523	76.3118	811.523	72.996	811.523	76.3117	811.523	73.2029	811.523	74.9665	811.523	75.5169	811.523	72.2464	811.523	76.945	811.523	69.9012	811.523	76.5019	811.523	71.3649	811.523	74.4243
840.82	83.8766	840.82	84.2844	840.82	83.2925	840.82	84.2193	840.82	82.6928	840.82	83.5645	840.82	81.9543	840.82	82.4649	840.82	81.0028	840.82	81.2773	840.82	80.0212	840.82	80.1912	840.82	79.242	840.82	79.0865	840.82	78.4711	840.82	78.3586	840.82	77.3373	840.82	78.4229	840.82	76.4939	840.82	78.4581	840.82	76.7259	840.82	77.9127	840.82	77.0303	840.82	77.4642	840.82	76.9853	840.82	76.6593	840.82	76.8293	840.82	74.7546	840.82	75.6081	840.82	73.8653	840.82	72.2432	840.82	75.0576	840.82	71.0942	840.82	76.2519	840.82	74.505	840.82	76.2538
870.117	84.264	870.117	84.1903	870.117	83.9533	870.117	84.1028	870.117	82.9558	870.117	83.9402	870.117	81.6931	870.117	83.3796	870.117	81.1219	870.117	82.1052	870.117	80.8731	870.117	80.2805	870.117	79.9238	870.117	79.2255	870.117	78.346	870.117	79.0846	870.117	76.6753	870.117	77.9009	870.117	75.1416	870.117	75.3852	870.117	74.7941	870.117	73.7505	870.117	75.8323	870.117	73.4674	870.117	75.7445	870.117	74.1497	870.117	73.7863	870.117	75.6111	870.117	72.1017	870.117	76.4723	870.117	71.6797	870.117	75.8025	870.117	72.0563	870.117	74.0537	870.117	72.7701	870.117	72.8916
900.879	85.1479	900.879	85.6704	900.879	84.2509	900.879	85.4282	900.879	83.4932	900.879	84.3665	900.879	82.8441	900.879	82.8062	900.879	81.8152	900.879	81.5045	900.879	80.1652	900.879	80.789	900.879	78.1112	900.879	79.9292	900.879	76.1919	900.879	78.8453	900.879	74.8428	900.879	78.3147	900.879	74.4877	900.879	77.5746	900.879	73.8479	900.879	76.2674	900.879	71.7302	900.879	75.4719	900.879	72.8438	900.879	75.3291	900.879	75.0204	900.879	74.4719	900.879	74.9951	900.879	74.067	900.879	73.7204	900.879	75.4498	900.879	73.357	900.879	76.3811	900.879	74.6179	900.879	76.0238
933.105	85.4717	933.105	85.4823	933.105	85.2017	933.105	85.4546	933.105	84.2794	933.105	85.0023	933.105	82.7607	933.105	83.8326	933.105	81.0564	933.105	82.1195	933.105	79.7025	933.105	80.1228	933.105	78.8347	933.105	78.0568	933.105	78.1331	933.105	76.5925	933.105	77.3781	933.105	76.1024	933.105	76.5159	933.105	76.3711	933.105	76.0305	933.105	76.7146	933.105	75.8961	933.105	76.5972	933.105	75.4157	933.105	76.6326	933.105	74.9593	933.105	76.3332	933.105	74.5178	933.105	75.1797	933.105	71.472	933.105	74.6807	933.105	68.9024	933.105	75.9164	933.105	74.8544	933.105	76.7853
965.332	85.9935	965.332	86.0378	965.332	85.4119	965.332	85.7613	965.332	84.4108	965.332	85.2959	965.332	83.4835	965.332	84.4465	965.332	82.7283	965.332	82.8793	965.332	81.6825	965.332	80.7694	965.332	79.9931	965.332	79.2326	965.332	77.878	965.332	78.6127	965.332	76.2619	965.332	78.1662	965.332	75.2297	965.332	77.845	965.332	73.6043	965.332	77.0165	965.332	71.7787	965.332	74.9048	965.332	72.0778	965.332	73.2984	965.332	73.2767	965.332	74.0689	965.332	74.2376	965.332	75.2253	965.332	74.2293	965.332	75.6426	965.332	72.8599	965.332	75.4593	965.332	72.5058	965.332	74.248
1,000.49	86.4913	1,000.49	86.9597	1,000.49	85.6692	1,000.49	86.5049	1,000.49	85.1335	1,000.49	85.2846	1,000.49	84.2846	1,000.49	83.8283	1,000.49	82.7744	1,000.49	82.6812	1,000.49	81.5943	1,000.49	81.7127	1,000.49	80.8874	1,000.49	79.9953	1,000.49	79.8031	1,000.49	77.4324	1,000.49	78.1437	1,000.49	76.103	1,000.49	76.127	1,000.49	77.0864	1,000.49	74.6711	1,000.49	78.119	1,000.49	74.1046	1,000.49	77.628	1,000.49	73.4016	1,000.49	76.3016	1,000.49	73.222	1,000.49	75.8383	1,000.49	73.8777	1,000.49	75.5554	1,000.49	73.2724	1,000.49	76.4822	1,000.49	68.8174	1,000.49	78.1879	1,000.49	73.8196	1,000.49	78.0684
1,035.64	86.0195	1,035.64	86.7715	1,035.64	85.4696	1,035.64	87.096	1,035.64	84.9804	1,035.64	86.6927	1,035.64	84.2412	1,035.64	85.5542	1,035.64	83.5842	1,035.64	83.4164	1,035.64	83.0435	1,035.64	80.2666	1,035.64	82.0173	1,035.64	77.4532	1,035.64	80.1757	1,035.64	76.2934	1,035.64	78.3879	1,035.64	76.1843	1,035.64	77.3196	1,035.64	76.5035	1,035.64	76.365	1,035.64	76.6224	1,035.64	75.3746	1,035.64	75.4345	1,035.64	73.7577	1,035.64	73.7366	1,035.64	72.6837	1,035.64	74.1081	1,035.64	72.3078	1,035.64	76.8034	1,035.64	69.9593	1,035.64	77.2857	1,035.64	70.3164	1,035.64	75.4059	1,035.64	70.9488	1,035.64	72.6556
1,072.27	86.296	1,072.27	86.2197	1,072.27	85.9994	1,072.27	86.5993	1,072.27	84.7375	1,072.27	86.6893	1,072.27	83.8499	1,072.27	85.7092	1,072.27	83.7775	1,072.27	83.7632	1,072.27	82.9347	1,072.27	81.7406	1,072.27	80.8556	1,072.27	80.2686	1,072.27	78.3964	1,072.27	79.009	1,072.27	77.1647	1,072.27	78.3658	1,072.27	77.3529	1,072.27	76.4172	1,072.27	77.2038	1,072.27	71.3585	1,072.27	75.4382	1,072.27	72.0574	1,072.27	74.0635	1,072.27	75.8594	1,072.27	74.7213	1,072.27	76.0463	1,072.27	74.1727	1,072.27	75.4267	1,072.27	72.6576	1,072.27	75.5691	1,072.27	68.6656	1,072.27	75.9133	1,072.27	69.9512	1,072.27	74.885
1,108.89	85.9486	1,108.89	86.5774	1,108.89	85.574	1,108.89	86.7731	1,108.89	85.4189	1,108.89	86.0575	1,108.89	84.6694	1,108.89	84.5606	1,108.89	83.4209	1,108.89	83.0989	1,108.89	82.7797	1,108.89	82.3937	1,108.89	82.1553	1,108.89	81.872	1,108.89	80.4765	1,108.89	80.1101	1,108.89	78.4033	1,108.89	77.5321	1,108.89	76.8402	1,108.89	76.9608	1,108.89	75.7495	1,108.89	76.9569	1,108.89	75.4037	1,108.89	74.4386	1,108.89	73.1315	1,108.89	72.2657	1,108.89	71.4619	1,108.89	73.7195	1,108.89	74.4981	1,108.89	74.4523	1,108.89	73.9607	1,108.89	75.1667	1,108.89	70.4485	1,108.89	75.8012	1,108.89	69.7704	1,108.89	74.2269
1,148.44	85.7715	1,148.44	86.2351	1,148.44	85.0023	1,148.44	86.2181	1,148.44	84.3163	1,148.44	85.6166	1,148.44	84.014	1,148.44	84.5428	1,148.44	83.7988	1,148.44	83.2294	1,148.44	83.1095	1,148.44	81.8219	1,148.44	81.4599	1,148.44	80.3718	1,148.44	79.1884	1,148.44	78.7884	1,148.44	76.8831	1,148.44	77.4154	1,148.44	75.8509	1,148.44	77.7881	1,148.44	76.0954	1,148.44	77.3577	1,148.44	76.5937	1,148.44	74.5479	1,148.44	76.3483	1,148.44	72.1722	1,148.44	73.2673	1,148.44	71.9459	1,148.44	71.5229	1,148.44	73.1372	1,148.44	71.7798	1,148.44	74.0479	1,148.44	69.0228	1,148.44	73.3213	1,148.44	66.9072	1,148.44	70.5523
1,189.45	85.5739	1,189.45	85.9959	1,189.45	85.1459	1,189.45	85.8233	1,189.45	84.4993	1,189.45	84.7919	1,189.45	83.3758	1,189.45	83.298	1,189.45	82.9934	1,189.45	82.2088	1,189.45	82.9767	1,189.45	81.6166	1,189.45	81.9085	1,189.45	80.1656	1,189.45	80.1445	1,189.45	77.4545	1,189.45	78.0876	1,189.45	75.5784	1,189.45	76.7968	1,189.45	75.0354	1,189.45	76.7733	1,189.45	74.8405	1,189.45	75.2542	1,189.45	74.7865	1,189.45	72.3599	1,189.45	72.6235	1,189.45	66.961	1,189.45	70.9125	1,189.45	66.5151	1,189.45	71.5286	1,189.45	71.6789	1,189.45	70.5564	1,189.45	69.5214	1,189.45	71.4131	1,189.45	65.5788	1,189.45	71.4106
1,230.47	85.5692	1,230.47	86.0179	1,230.47	84.9547	1,230.47	85.7026	1,230.47	84.156	1,230.47	84.267	1,230.47	83.4334	1,230.47	82.8837	1,230.47	83.2511	1,230.47	82.5278	1,230.47	83.7661	1,230.47	81.5223	1,230.47	83.8003	1,230.47	79.5588	1,230.47	82.1078	1,230.47	78.0601	1,230.47	77.9655	1,230.47	77.0445	1,230.47	72.0784	1,230.47	78.331	1,230.47	68.9392	1,230.47	79.0379	1,230.47	73.9666	1,230.47	78.1476	1,230.47	76.3987	1,230.47	75.8523	1,230.47	74.205	1,230.47	71.3075	1,230.47	71.4872	1,230.47	69.5894	1,230.47	69.3341	1,230.47	72.8565	1,230.47	72.0439	1,230.47	73.9021	1,230.47	68.7917	1,230.47	67.4251
1,274.41	85.3853	1,274.41	85.1235	1,274.41	84.5253	1,274.41	84.8321	1,274.41	82.9967	1,274.41	84.8724	1,274.41	82.8527	1,274.41	84.2415	1,274.41	83.3901	1,274.41	82.839	1,274.41	82.8201	1,274.41	81.3036	1,274.41	81.3515	1,274.41	78.3303	1,274.41	80.6195	1,274.41	76.7142	1,274.41	79.3941	1,274.41	77.1954	1,274.41	77.0035	1,274.41	73.3792	1,274.41	75.9275	1,274.41	68.6081	1,274.41	76.508	1,274.41	71.31	1,274.41	77.2971	1,274.41	73.753	1,274.41	76.1306	1,274.41	73.7761	1,274.41	71.9524	1,274.41	73.73	1,274.41	71.5808	1,274.41	73.2128	1,274.41	72.269	1,274.41	72.9828	1,274.41	67.0018	1,274.41	70.3265
1,319.82	84.4997	1,319.82	84.8258	1,319.82	83.8989	1,319.82	84.8054	1,319.82	83.039	1,319.82	83.8731	1,319.82	81.9017	1,319.82	82.435	1,319.82	81.5921	1,319.82	81.8086	1,319.82	82.0002	1,319.82	81.1606	1,319.82	81.3985	1,319.82	80.0278	1,319.82	80.097	1,319.82	78.3282	1,319.82	77.6067	1,319.82	76.7179	1,319.82	74.168	1,319.82	76.5935	1,319.82	73.9632	1,319.82	74.2449	1,319.82	75.7597	1,319.82	69.7018	1,319.82	76.9745	1,319.82	70.3153	1,319.82	76.7942	1,319.82	69.4942	1,319.82	76.6865	1,319.82	72.8647	1,319.82	75.4445	1,319.82	76.1852	1,319.82	74.528	1,319.82	74.6275	1,319.82	71.807	1,319.82	66.2325
1,366.7	84.5569	1,366.7	85.358	1,366.7	83.4112	1,366.7	84.9037	1,366.7	83.2349	1,366.7	83.8443	1,366.7	82.1246	1,366.7	82.3643	1,366.7	80.5096	1,366.7	80.1762	1,366.7	79.6315	1,366.7	78.7173	1,366.7	80.5353	1,366.7	78.5702	1,366.7	81.5735	1,366.7	75.1861	1,366.7	80.4489	1,366.7	71.7537	1,366.7	76.9745	1,366.7	70.986	1,366.7	73.2417	1,366.7	71.1544	1,366.7	75.0062	1,366.7	72.625	1,366.7	77.4854	1,366.7	71.7389	1,366.7	77.7671	1,366.7	67.5389	1,366.7	77.2902	1,366.7	70.4714	1,366.7	76.4247	1,366.7	75.3368	1,366.7	74.0817	1,366.7	73.9939	1,366.7	73.4051	1,366.7	70.4646
1,413.57	85.1351	1,413.57	85.5285	1,413.57	84.6766	1,413.57	85.2012	1,413.57	84.2893	1,413.57	84.3019	1,413.57	82.9895	1,413.57	83.1435	1,413.57	81.1352	1,413.57	81.3942	1,413.57	79.2545	1,413.57	79.1834	1,413.57	79.3183	1,413.57	77.4127	1,413.57	80.3889	1,413.57	74.9072	1,413.57	80.3884	1,413.57	72.8034	1,413.57	77.8812	1,413.57	72.8026	1,413.57	72.2029	1,413.57	72.1849	1,413.57	72.0399	1,413.57	71.4966	1,413.57	74.3949	1,413.57	71.7731	1,413.57	76.4756	1,413.57	71.5193	1,413.57	74.255	1,413.57	72.0936	1,413.57	74.6833	1,413.57	74.2981	1,413.57	74.9055	1,413.57	73.5423	1,413.57	73.587	1,413.57	71.8016
1,463.38	85.8726	1,463.38	85.9955	1,463.38	85.5423	1,463.38	85.2735	1,463.38	85.0515	1,463.38	84.4326	1,463.38	84.0239	1,463.38	83.6278	1,463.38	81.7203	1,463.38	81.0889	1,463.38	78.6816	1,463.38	77.4902	1,463.38	77.4927	1,463.38	76.7893	1,463.38	78.4426	1,463.38	76.4601	1,463.38	78.0758	1,463.38	70.9311	1,463.38	74.787	1,463.38	66.9292	1,463.38	68.0691	1,463.38	71.0325	1,463.38	67.102	1,463.38	68.6579	1,463.38	73.4583	1,463.38	69.4261	1,463.38	74.8466	1,463.38	72.2491	1,463.38	73.533	1,463.38	69.2317	1,463.38	75.2891	1,463.38	72.4301	1,463.38	75.1709	1,463.38	72.912	1,463.38	72.0546	1,463.38	71.4541
1,516.11	86.8402	1,516.11	86.11	1,516.11	86.6337	1,516.11	85.0862	1,516.11	85.2769	1,516.11	83.6776	1,516.11	84.2479	1,516.11	82.5028	1,516.11	82.0604	1,516.11	81.3275	1,516.11	78.8362	1,516.11	78.6672	1,516.11	76.5193	1,516.11	75.6007	1,516.11	75.849	1,516.11	72.2367	1,516.11	75.9512	1,516.11	68.4619	1,516.11	73.8514	1,516.11	67.1708	1,516.11	66.7443	1,516.11	70.1299	1,516.11	60.3057	1,516.11	72.9492	1,516.11	67.8199	1,516.11	72.2108	1,516.11	71.7374	1,516.11	67.8163	1,516.11	73.827	1,516.11	66.4273	1,516.11	72.8208	1,516.11	70.1463	1,516.11	73.868	1,516.11	71.822	1,516.11	73.5921	1,516.11	71.8425
1,568.85	86.5067	1,568.85	86.2159	1,568.85	86.6656	1,568.85	84.8221	1,568.85	85.5482	1,568.85	83.0348	1,568.85	84.0135	1,568.85	82.2656	1,568.85	83.0656	1,568.85	80.752	1,568.85	80.8827	1,568.85	77.8139	1,568.85	77.9137	1,568.85	74.269	1,568.85	75.0714	1,568.85	74.0643	1,568.85	73.9891	1,568.85	69.8651	1,568.85	74.7043	1,568.85	64.4658	1,568.85	71.9198	1,568.85	69.9151	1,568.85	68.4238	1,568.85	69.2922	1,568.85	62.626	1,568.85	69.5315	1,568.85	71.2888	1,568.85	71.3231	1,568.85	72.0571	1,568.85	68.6691	1,568.85	71.1736	1,568.85	69.0351	1,568.85	70.5791	1,568.85	72.2963	1,568.85	71.5422	1,568.85	71.8409
1,624.51	85.6698	1,624.51	85.8138	1,624.51	85.8432	1,624.51	84.4021	1,624.51	85.6499	1,624.51	83.4369	1,624.51	83.5466	1,624.51	82.9106	1,624.51	82.8947	1,624.51	78.9458	1,624.51	81.4576	1,624.51	75.9891	1,624.51	77.7638	1,624.51	76.9484	1,624.51	72.1384	1,624.51	75.8233	1,624.51	72.3392	1,624.51	75.1813	1,624.51	73.5291	1,624.51	70.0199	1,624.51	70.0351	1,624.51	64.2773	1,624.51	67.6949	1,624.51	70.5201	1,624.51	68.3248	1,624.51	72.6437	1,624.51	70.1068	1,624.51	71.8508	1,624.51	70.8876	1,624.51	69.6045	1,624.51	68.5431	1,624.51	67.9942	1,624.51	70.7594	1,624.51	71.4086	1,624.51	71.8658	1,624.51	70.8469
1,681.64	85.4635	1,681.64	85.0282	1,681.64	85.7221	1,681.64	84.9715	1,681.64	84.3057	1,681.64	83.5262	1,681.64	83.8922	1,681.64	81.8141	1,681.64	81.5751	1,681.64	79.4801	1,681.64	78.3163	1,681.64	76.2659	1,681.64	78.084	1,681.64	72.3332	1,681.64	77.2357	1,681.64	72.4147	1,681.64	74.8862	1,681.64	73.8941	1,681.64	73.0996	1,681.64	71.788	1,681.64	70.5203	1,681.64	64.9332	1,681.64	68.0422	1,681.64	72.3112	1,681.64	70.917	1,681.64	71.7919	1,681.64	69.9622	1,681.64	66.2163	1,681.64	64.45	1,681.64	65.3577	1,681.64	68.6941	1,681.64	65.9632	1,681.64	67.9824	1,681.64	69.3967	1,681.64	69.2185	1,681.64	66.8143
1,741.7	86.2058	1,741.7	85.0823	1,741.7	85.6763	1,741.7	84.2517	1,741.7	84.3895	1,741.7	83.103	1,741.7	83.2487	1,741.7	79.2959	1,741.7	80.6029	1,741.7	77.0236	1,741.7	79.6585	1,741.7	79.2211	1,741.7	77.6743	1,741.7	75.3059	1,741.7	77.0498	1,741.7	74.5257	1,741.7	76.608	1,741.7	72.4219	1,741.7	75.5339	1,741.7	61.5817	1,741.7	72.7809	1,741.7	63.7663	1,741.7	64.1403	1,741.7	65.8063	1,741.7	63.3697	1,741.7	73.9958	1,741.7	62.4265	1,741.7	71.5167	1,741.7	70.9599	1,741.7	62.1282	1,741.7	72.51	1,741.7	68.6704	1,741.7	71.5909	1,741.7	71.4304	1,741.7	74.587	1,741.7	69.1959
1,803.22	87.1102	1,803.22	86.1476	1,803.22	86.8112	1,803.22	84.2815	1,803.22	84.8284	1,803.22	81.7681	1,803.22	81.8709	1,803.22	79.6684	1,803.22	79.1292	1,803.22	77.3521	1,803.22	78.0125	1,803.22	74.0388	1,803.22	77.358	1,803.22	74.5883	1,803.22	75.9522	1,803.22	73.6682	1,803.22	73.6694	1,803.22	71.1765	1,803.22	73.5716	1,803.22	73.5175	1,803.22	73.0895	1,803.22	68.97	1,803.22	71.2089	1,803.22	63.2974	1,803.22	68.4918	1,803.22	73.0385	1,803.22	68.2984	1,803.22	70.241	1,803.22	72.1912	1,803.22	64.7889	1,803.22	69.6407	1,803.22	66.3396	1,803.22	69.9502	1,803.22	68.7742	1,803.22	71.6456	1,803.22	70.8226
1,866.21	87.2728	1,866.21	86.9527	1,866.21	86.64	1,866.21	84.6862	1,866.21	84.7379	1,866.21	80.5928	1,866.21	81.4224	1,866.21	78.5839	1,866.21	78.9787	1,866.21	76.6297	1,866.21	77.3208	1,866.21	74.7978	1,866.21	76.6762	1,866.21	75.3823	1,866.21	75.8029	1,866.21	72.3916	1,866.21	74.2876	1,866.21	69.5222	1,866.21	72.7881	1,866.21	71.2745	1,866.21	75.277	1,866.21	70.74	1,866.21	74.2865	1,866.21	63.2267	1,866.21	71.2952	1,866.21	72.0051	1,866.21	71.1488	1,866.21	71.134	1,866.21	71.9976	1,866.21	65.9339	1,866.21	69.8785	1,866.21	66.0219	1,866.21	69.9884	1,866.21	65.434	1,866.21	71.2858	1,866.21	68.0636
1,932.13	86.8649	1,932.13	86.2194	1,932.13	86.1227	1,932.13	83.5939	1,932.13	84.3134	1,932.13	79.5818	1,932.13	80.9492	1,932.13	76.8933	1,932.13	79.1999	1,932.13	75.7356	1,932.13	79.4137	1,932.13	73.4191	1,932.13	77.9091	1,932.13	73.0689	1,932.13	75.2026	1,932.13	67.792	1,932.13	73.859	1,932.13	65.984	1,932.13	71.9621	1,932.13	64.9919	1,932.13	71.4515	1,932.13	69.0367	1,932.13	71.5204	1,932.13	68.2757	1,932.13	70.6301	1,932.13	67.4032	1,932.13	66.1465	1,932.13	69.7189	1,932.13	65.7129	1,932.13	64.7202	1,932.13	63.5466	1,932.13	65	1,932.13	65.5274	1,932.13	64.7218	1,932.13	69.6421	1,932.13	67.8192
1,999.51	87.0378	1,999.51	85.3197	1,999.51	85.7215	1,999.51	82.009	1,999.51	82.2413	1,999.51	79.931	1,999.51	78.08	1,999.51	76.7128	1,999.51	78.7509	1,999.51	74.1844	1,999.51	80.0404	1,999.51	74.8122	1,999.51	80.1884	1,999.51	74.2195	1,999.51	78.742	1,999.51	72.7771	1,999.51	76.4825	1,999.51	71.9614	1,999.51	74.9286	1,999.51	69.5322	1,999.51	69.0373	1,999.51	69.3907	1,999.51	66.4295	1,999.51	67.9778	1,999.51	71.4526	1,999.51	67.879	1,999.51	70.2907	1,999.51	69.0474	1,999.51	69.0227	1,999.51	62.8708	1,999.51	67.6334	1,999.51	63.8461	1,999.51	57.5636	1,999.51	64.8252	1,999.51	67.5489	1,999.51	67.572
2,069.82	87.8775	2,069.82	85.8929	2,069.82	86.5723	2,069.82	82.0834	2,069.82	82.12	2,069.82	78.6465	2,069.82	77.6664	2,069.82	74.2541	2,069.82	77.9473	2,069.82	73.8195	2,069.82	80.9081	2,069.82	74.1724	2,069.82	80.9018	2,069.82	71.6434	2,069.82	79.7171	2,069.82	68.7813	2,069.82	77.2917	2,069.82	70.4619	2,069.82	74.5892	2,069.82	66.8212	2,069.82	71.1626	2,069.82	68.0336	2,069.82	67.3588	2,069.82	71.2948	2,069.82	66.3606	2,069.82	66.9143	2,069.82	68.8506	2,069.82	69.4545	2,069.82	69.6737	2,069.82	63.1628	2,069.82	69.287	2,069.82	58.1604	2,069.82	62.1196	2,069.82	63.8029	2,069.82	69.5563	2,069.82	70.4347
2,143.07	87.8708	2,143.07	86.3676	2,143.07	86.8626	2,143.07	83.0017	2,143.07	82.219	2,143.07	75.1542	2,143.07	75.1078	2,143.07	70.6075	2,143.07	78.5194	2,143.07	71.9231	2,143.07	81.5365	2,143.07	73.1706	2,143.07	81.1195	2,143.07	72.7636	2,143.07	79.2845	2,143.07	73.2659	2,143.07	78.3995	2,143.07	71.1161	2,143.07	76.412	2,143.07	71.2514	2,143.07	74.4093	2,143.07	66.8525	2,143.07	71.3343	2,143.07	70.3424	2,143.07	67.4977	2,143.07	67.4044	2,143.07	70.2176	2,143.07	68.3706	2,143.07	71.0848	2,143.07	66.8784	2,143.07	70.27	2,143.07	52.5119	2,143.07	51.8895	2,143.07	55.6279	2,143.07	70.3765	2,143.07	71.0183
2,219.24	86.9512	2,219.24	86.138	2,219.24	85.6687	2,219.24	82.6112	2,219.24	80.3509	2,219.24	70.7016	2,219.24	71.5444	2,219.24	67.1227	2,219.24	79.7189	2,219.24	72.0105	2,219.24	81.962	2,219.24	75.8357	2,219.24	81.8086	2,219.24	73.8085	2,219.24	79.8484	2,219.24	71.7175	2,219.24	77.5063	2,219.24	74.5669	2,219.24	75.0289	2,219.24	71.4765	2,219.24	76.1487	2,219.24	68.5926	2,219.24	72.3665	2,219.24	69.6265	2,219.24	68.7902	2,219.24	69.8564	2,219.24	72.8688	2,219.24	66.5557	2,219.24	71.0616	2,219.24	65.6043	2,219.24	68.5056	2,219.24	40.7871	2,219.24	52.9706	2,219.24	57.3405	2,219.24	69.5357	2,219.24	70.7718
2,296.88	87.3478	2,296.88	85.7051	2,296.88	85.3114	2,296.88	80.6995	2,296.88	77.4232	2,296.88	71.3593	2,296.88	74.297	2,296.88	67.8316	2,296.88	80.2204	2,296.88	74.6699	2,296.88	82.2813	2,296.88	75.9224	2,296.88	81.4487	2,296.88	75.6251	2,296.88	78.1001	2,296.88	74.8708	2,296.88	74.7831	2,296.88	71.8982	2,296.88	75.3777	2,296.88	70.8332	2,296.88	75.4945	2,296.88	70.3363	2,296.88	73.8574	2,296.88	67.5061	2,296.88	66.2068	2,296.88	71.6049	2,296.88	72.3965	2,296.88	67.575	2,296.88	71.4476	2,296.88	67.9104	2,296.88	67.6989	2,296.88	51.1119	2,296.88	55.6567	2,296.88	58.2009	2,296.88	68.8733	2,296.88	65.7346
2,378.91	87.7361	2,378.91	86.0498	2,378.91	85.8005	2,378.91	80.4254	2,378.91	78.022	2,378.91	70.6331	2,378.91	74.3744	2,378.91	70.944	2,378.91	81.3926	2,378.91	76.2067	2,378.91	83.1859	2,378.91	77.0806	2,378.91	81.7286	2,378.91	74.6707	2,378.91	78.0871	2,378.91	71.6958	2,378.91	75.0925	2,378.91	70.349	2,378.91	75.9595	2,378.91	69.4982	2,378.91	73.827	2,378.91	72.31	2,378.91	71.3395	2,378.91	67.7368	2,378.91	67.6034	2,378.91	70.3297	2,378.91	72.2072	2,378.91	68.4849	2,378.91	69.4529	2,378.91	66.626	2,378.91	68.7318	2,378.91	57.6486	2,378.91	62.6353	2,378.91	63.7994	2,378.91	69.0494	2,378.91	68.522
2,462.4	86.7349	2,462.4	85.9411	2,462.4	85.1044	2,462.4	82.1552	2,462.4	77.5352	2,462.4	72.6081	2,462.4	74.4656	2,462.4	74.0809	2,462.4	82.0914	2,462.4	77.6521	2,462.4	83.6287	2,462.4	76.391	2,462.4	82.3425	2,462.4	74.9271	2,462.4	78.7088	2,462.4	76.2968	2,462.4	74.5585	2,462.4	73.2846	2,462.4	76.0973	2,462.4	73.2555	2,462.4	74.9314	2,462.4	69.6345	2,462.4	72.0116	2,462.4	70.2895	2,462.4	68.6385	2,462.4	69.3116	2,462.4	72.4477	2,462.4	69.4319	2,462.4	70.2266	2,462.4	64.9078	2,462.4	67.5806	2,462.4	61.4051	2,462.4	62.4583	2,462.4	64.3468	2,462.4	69.0203	2,462.4	68.1581
2,548.83	86.7308	2,548.83	85.9859	2,548.83	84.3248	2,548.83	81.8204	2,548.83	75.7269	2,548.83	76.3113	2,548.83	72.9931	2,548.83	75.8451	2,548.83	82.1413	2,548.83	77.2791	2,548.83	83.1734	2,548.83	77.2701	2,548.83	82.1158	2,548.83	77.7656	2,548.83	77.4375	2,548.83	73.6177	2,548.83	73.5406	2,548.83	76.3607	2,548.83	75.2545	2,548.83	71.1545	2,548.83	72.8245	2,548.83	70.733	2,548.83	69.7877	2,548.83	71.298	2,548.83	69.9131	2,548.83	69.158	2,548.83	72.2231	2,548.83	70.4234	2,548.83	70.9357	2,548.83	65.566	2,548.83	70.7454	2,548.83	63.1193	2,548.83	66.4771	2,548.83	60.6531	2,548.83	66.6467	2,548.83	67.8461
2,639.65	87.2772	2,639.65	86.3923	2,639.65	85.0194	2,639.65	81.8902	2,639.65	76.1238	2,639.65	77.9154	2,639.65	76.4234	2,639.65	77.1161	2,639.65	82.3891	2,639.65	78.2544	2,639.65	82.7496	2,639.65	78.8356	2,639.65	80.9156	2,639.65	77.2799	2,639.65	75.5507	2,639.65	76.28	2,639.65	76.4012	2,639.65	71.64	2,639.65	76.2453	2,639.65	72.517	2,639.65	67.0092	2,639.65	70.8383	2,639.65	53.0066	2,639.65	70.5655	2,639.65	66.5064	2,639.65	71.5863	2,639.65	70.4937	2,639.65	70.3379	2,639.65	71.4577	2,639.65	65.8937	2,639.65	71.4298	2,639.65	61.346	2,639.65	67.4617	2,639.65	53.0405	2,639.65	67.1175	2,639.65	69.2245
2,731.93	86.7241	2,731.93	86.258	2,731.93	84.3741	2,731.93	82.8895	2,731.93	78.7093	2,731.93	77.7118	2,731.93	77.7654	2,731.93	78.7958	2,731.93	82.9309	2,731.93	79.8774	2,731.93	83.2734	2,731.93	79.8772	2,731.93	81.5783	2,731.93	76.0148	2,731.93	76.3705	2,731.93	75.6907	2,731.93	73.5636	2,731.93	71.8605	2,731.93	73.5629	2,731.93	73.4432	2,731.93	62.3675	2,731.93	70.2733	2,731.93	61.4663	2,731.93	70.5784	2,731.93	62.4604	2,731.93	70.8909	2,731.93	69.8097	2,731.93	70.1288	2,731.93	69.7824	2,731.93	67.1149	2,731.93	69.8626	2,731.93	62.0128	2,731.93	65.4257	2,731.93	59.4441	2,731.93	68.6207	2,731.93	66.7421
2,828.61	86.4938	2,828.61	86.2962	2,828.61	83.3384	2,828.61	83.3983	2,828.61	78.7214	2,828.61	78.4911	2,828.61	78.4423	2,828.61	80.0858	2,828.61	82.9304	2,828.61	81.1548	2,828.61	83.3541	2,828.61	79.5377	2,828.61	80.0986	2,828.61	77.9178	2,828.61	77.6191	2,828.61	75.624	2,828.61	74.1194	2,828.61	73.405	2,828.61	69.9894	2,828.61	72.3078	2,828.61	65.9912	2,828.61	70.5601	2,828.61	56.8375	2,828.61	67.7587	2,828.61	64.215	2,828.61	71.3574	2,828.61	68.8612	2,828.61	69.4541	2,828.61	66.3768	2,828.61	68.4776	2,828.61	66.5066	2,828.61	58.7294	2,828.61	64.6996	2,828.61	63.038	2,828.61	69.3263	2,828.61	67.608
2,928.22	86.7815	2,928.22	86.757	2,928.22	83.6629	2,928.22	83.1375	2,928.22	78.9438	2,928.22	79.4896	2,928.22	78.881	2,928.22	80.4239	2,928.22	81.6631	2,928.22	81.0008	2,928.22	82.7923	2,928.22	79.1212	2,928.22	80.1575	2,928.22	77.1945	2,928.22	78.963	2,928.22	75.5889	2,928.22	75.0929	2,928.22	71.9514	2,928.22	63.2849	2,928.22	71.6135	2,928.22	71.9615	2,928.22	69.5591	2,928.22	66.5885	2,928.22	69.2487	2,928.22	65.3578	2,928.22	69.7339	2,928.22	58.6333	2,928.22	70.0703	2,928.22	62.5063	2,928.22	66.9154	2,928.22	66.8041	2,928.22	59.8058	2,928.22	65.0426	2,928.22	61.9545	2,928.22	70.0139	2,928.22	65.4219
3,030.76	85.8472	3,030.76	86.1012	3,030.76	83.1414	3,030.76	82.3631	3,030.76	79.358	3,030.76	80.1255	3,030.76	80.2692	3,030.76	81.7888	3,030.76	80.9779	3,030.76	81.4845	3,030.76	82.0757	3,030.76	80.1062	3,030.76	79.482	3,030.76	77.0063	3,030.76	78.5417	3,030.76	74.6006	3,030.76	72.9053	3,030.76	74.094	3,030.76	70.9399	3,030.76	72.5184	3,030.76	69.9714	3,030.76	71.5595	3,030.76	69.4707	3,030.76	68.8855	3,030.76	64.0245	3,030.76	69.9428	3,030.76	66.8483	3,030.76	70.504	3,030.76	65.1911	3,030.76	66.7824	3,030.76	64.097	3,030.76	60.6998	3,030.76	65.7461	3,030.76	60.6883	3,030.76	69.0914	3,030.76	64.6655
3,137.7	86.5572	3,137.7	86.8786	3,137.7	82.9387	3,137.7	83.2374	3,137.7	80.0211	3,137.7	80.9385	3,137.7	81.1912	3,137.7	82.0901	3,137.7	81.1399	3,137.7	81.3847	3,137.7	81.09	3,137.7	79.176	3,137.7	79.9422	3,137.7	76.0117	3,137.7	78.6149	3,137.7	76.7548	3,137.7	73.5376	3,137.7	73.7678	3,137.7	76.0692	3,137.7	71.0627	3,137.7	68.369	3,137.7	69.7631	3,137.7	66.1467	3,137.7	69.6063	3,137.7	61.1978	3,137.7	68.9526	3,137.7	66.8985	3,137.7	70.221	3,137.7	65.8717	3,137.7	65.9798	3,137.7	61.8653	3,137.7	60.7718	3,137.7	65.2933	3,137.7	57.083	3,137.7	68.1567	3,137.7	64.9103
3,249.02	86.722	3,249.02	86.9898	3,249.02	82.7739	3,249.02	83.3232	3,249.02	81.2048	3,249.02	81.9185	3,249.02	81.6918	3,249.02	81.9505	3,249.02	79.8905	3,249.02	81.3366	3,249.02	80.57	3,249.02	79.7136	3,249.02	79.4766	3,249.02	77.4298	3,249.02	78.8627	3,249.02	74.6281	3,249.02	76.4916	3,249.02	71.5122	3,249.02	77.6115	3,249.02	72.4955	3,249.02	65.4624	3,249.02	70.7388	3,249.02	62.6046	3,249.02	70.1608	3,249.02	63.4545	3,249.02	68.9552	3,249.02	67.8905	3,249.02	69.6948	3,249.02	65.7089	3,249.02	67.2047	3,249.02	59.402	3,249.02	63.8724	3,249.02	63.9773	3,249.02	58.8975	3,249.02	69.2801	3,249.02	64.2803
3,363.28	86.6522	3,363.28	86.2865	3,363.28	82.8534	3,363.28	82.8664	3,363.28	81.6969	3,363.28	82.2972	3,363.28	81.283	3,363.28	82.5139	3,363.28	79.724	3,363.28	81.1453	3,363.28	79.1892	3,363.28	79.3557	3,363.28	79.5553	3,363.28	76.536	3,363.28	79.2303	3,363.28	75.0589	3,363.28	78.6788	3,363.28	74.9201	3,363.28	77.8762	3,363.28	71.3547	3,363.28	63.6561	3,363.28	71.0409	3,363.28	62.8217	3,363.28	67.9741	3,363.28	65.9064	3,363.28	69.9236	3,363.28	65.8035	3,363.28	68.8452	3,363.28	65.9224	3,363.28	67.6163	3,363.28	55.2636	3,363.28	60.5313	3,363.28	65.4194	3,363.28	57.7465	3,363.28	68.2124	3,363.28	63.3833
3,481.93	86.984	3,481.93	86.0825	3,481.93	82.6911	3,481.93	83.3961	3,481.93	81.5764	3,481.93	82.9358	3,481.93	82.0992	3,481.93	82.5122	3,481.93	79.454	3,481.93	81.4942	3,481.93	78.3854	3,481.93	79.1338	3,481.93	80.7419	3,481.93	76.818	3,481.93	78.5521	3,481.93	76.2112	3,481.93	79.5896	3,481.93	70.2628	3,481.93	75.7459	3,481.93	70.0066	3,481.93	57.9488	3,481.93	69.6364	3,481.93	66.3733	3,481.93	69.6296	3,481.93	68.9795	3,481.93	68.103	3,481.93	66.1571	3,481.93	68.6727	3,481.93	67.5377	3,481.93	66.7994	3,481.93	55.5619	3,481.93	61.6548	3,481.93	65.4648	3,481.93	55.4797	3,481.93	68.3083	3,481.93	66.2352
3,604.98	87.1954	3,604.98	85.9053	3,604.98	83.4594	3,604.98	83.9485	3,604.98	82.2937	3,604.98	82.8907	3,604.98	82.7069	3,604.98	82.6267	3,604.98	79.5478	3,604.98	81.3106	3,604.98	77.4863	3,604.98	78.5792	3,604.98	82.0033	3,604.98	77.1738	3,604.98	79.3269	3,604.98	73.2287	3,604.98	78.3746	3,604.98	73.0481	3,604.98	65.9125	3,604.98	70.5202	3,604.98	61.5433	3,604.98	70.1279	3,604.98	68.5369	3,604.98	67.9011	3,604.98	66.5528	3,604.98	67.5483	3,604.98	63.0628	3,604.98	67.9054	3,604.98	68.1917	3,604.98	67.1998	3,604.98	44.0526	3,604.98	62.6722	3,604.98	65.0714	3,604.98	51.5934	3,604.98	67.9136	3,604.98	64.8399
3,732.42	86.97	3,732.42	85.3984	3,732.42	83.0693	3,732.42	84.3844	3,732.42	82.6409	3,732.42	83.5981	3,732.42	83.2381	3,732.42	82.7295	3,732.42	79.1467	3,732.42	81.1064	3,732.42	77.5597	3,732.42	78.3648	3,732.42	81.668	3,732.42	76.5058	3,732.42	79.0786	3,732.42	74.945	3,732.42	75.3223	3,732.42	71.894	3,732.42	72.0281	3,732.42	69.7954	3,732.42	63.7818	3,732.42	69.7572	3,732.42	68.4535	3,732.42	68.7578	3,732.42	63.4311	3,732.42	66.4065	3,732.42	60.9214	3,732.42	67.6175	3,732.42	69.1842	3,732.42	64.8564	3,732.42	54.5975	3,732.42	57.7443	3,732.42	66.6642	3,732.42	53.3605	3,732.42	67.0045	3,732.42	63.5595
3,864.26	86.5832	3,864.26	86.2494	3,864.26	83.9944	3,864.26	83.8408	3,864.26	82.3264	3,864.26	83.4377	3,864.26	84.2782	3,864.26	82.1147	3,864.26	79.47	3,864.26	80.6798	3,864.26	77.5419	3,864.26	78.001	3,864.26	81.0261	3,864.26	76.4638	3,864.26	78.7327	3,864.26	74.2002	3,864.26	76.4046	3,864.26	70.9447	3,864.26	74.8637	3,864.26	70.3884	3,864.26	66.898	3,864.26	67.6017	3,864.26	65.0508	3,864.26	69.8726	3,864.26	66.0455	3,864.26	65.3634	3,864.26	64.9887	3,864.26	67.7091	3,864.26	66.6689	3,864.26	66.8657	3,864.26	59.3233	3,864.26	62.2351	3,864.26	66.3877	3,864.26	55.0524	3,864.26	66.2994	3,864.26	63.9255
4,000.49	86.9965	4,000.49	85.7034	4,000.49	83.9586	4,000.49	84.4319	4,000.49	82.352	4,000.49	83.8288	4,000.49	84.7449	4,000.49	82.0804	4,000.49	80.338	4,000.49	80.9914	4,000.49	78.3833	4,000.49	77.8593	4,000.49	80.8314	4,000.49	76.0759	4,000.49	78.7597	4,000.49	73.0282	4,000.49	74.8174	4,000.49	74.1285	4,000.49	73.9931	4,000.49	70.1016	4,000.49	71.914	4,000.49	69.0079	4,000.49	58.1832	4,000.49	67.5271	4,000.49	68.7973	4,000.49	68.0297	4,000.49	64.6984	4,000.49	68.8421	4,000.49	65.8347	4,000.49	65.6656	4,000.49	40.5728	4,000.49	61.9145	4,000.49	66.8695	4,000.49	55.7853	4,000.49	65.9733	4,000.49	62.7397
4,141.11	87.0052	4,141.11	85.3837	4,141.11	84.225	4,141.11	84.6668	4,141.11	81.2333	4,141.11	84.429	4,141.11	84.3989	4,141.11	82.4023	4,141.11	81.333	4,141.11	80.3568	4,141.11	78.6608	4,141.11	78.6742	4,141.11	80.1678	4,141.11	75.7541	4,141.11	77.2686	4,141.11	76.2468	4,141.11	75.7944	4,141.11	71.2053	4,141.11	76.7532	4,141.11	70.1128	4,141.11	73.0821	4,141.11	69.3506	4,141.11	60.5166	4,141.11	68.5471	4,141.11	66.1423	4,141.11	67.5659	4,141.11	64.8991	4,141.11	68.176	4,141.11	66.2045	4,141.11	65.8123	4,141.11	54.232	4,141.11	63.4806	4,141.11	66.3324	4,141.11	38.0038	4,141.11	65.6694	4,141.11	63.6331
4,287.6	86.8702	4,287.6	85.9125	4,287.6	85.3571	4,287.6	85.702	4,287.6	81.2757	4,287.6	82.3596	4,287.6	83.7964	4,287.6	82.102	4,287.6	81.7993	4,287.6	80.9712	4,287.6	78.2947	4,287.6	77.7162	4,287.6	78.1723	4,287.6	77.0165	4,287.6	76.6008	4,287.6	72.6561	4,287.6	76.4256	4,287.6	73.0938	4,287.6	77.0636	4,287.6	69.9166	4,287.6	66.2735	4,287.6	68.7146	4,287.6	62.0527	4,287.6	67.5321	4,287.6	66.4727	4,287.6	66.4687	4,287.6	67.1202	4,287.6	67.4121	4,287.6	66.7317	4,287.6	65.9845	4,287.6	55.9843	4,287.6	61.8208	4,287.6	64.554	4,287.6	52.7568	4,287.6	67.1325	4,287.6	60.6261
4,438.48	85.8208	4,438.48	85.0233	4,438.48	86.1706	4,438.48	84.2075	4,438.48	82.1168	4,438.48	84.1752	4,438.48	83.2351	4,438.48	83.1611	4,438.48	82.9428	4,438.48	80.1117	4,438.48	77.2268	4,438.48	79.0075	4,438.48	74.8177	4,438.48	75.3936	4,438.48	77.4657	4,438.48	74.5403	4,438.48	78.0257	4,438.48	69.118	4,438.48	74.8856	4,438.48	66.469	4,438.48	58.3519	4,438.48	68.8958	4,438.48	59.5058	4,438.48	68.307	4,438.48	63.3616	4,438.48	65.9899	4,438.48	69.0106	4,438.48	66.3496	4,438.48	63.8284	4,438.48	65.8249	4,438.48	56.9502	4,438.48	59.5108	4,438.48	64.5298	4,438.48	55.2598	4,438.48	65.4405	4,438.48	59.9141
4,595.21	86.4486	4,595.21	86.0885	4,595.21	85.9186	4,595.21	85.1804	4,595.21	82.6784	4,595.21	83.7461	4,595.21	83.271	4,595.21	81.7023	4,595.21	82.6935	4,595.21	80.5663	4,595.21	73.483	4,595.21	77.2769	4,595.21	75.5554	4,595.21	75.9054	4,595.21	79.0496	4,595.21	71.4323	4,595.21	78.892	4,595.21	73.0916	4,595.21	72.5858	4,595.21	69.9272	4,595.21	68.0083	4,595.21	66.2609	4,595.21	62.5312	4,595.21	66.7487	4,595.21	50.5884	4,595.21	65.5709	4,595.21	68.4979	4,595.21	66.5967	4,595.21	61.3662	4,595.21	65.7458	4,595.21	57.0388	4,595.21	64.6901	4,595.21	64.9989	4,595.21	53.0011	4,595.21	63.7663	4,595.21	62.2807
4,756.35	85.2563	4,756.35	86.0873	4,756.35	85.5335	4,756.35	84.9848	4,756.35	83.5155	4,756.35	83.7723	4,756.35	82.1587	4,756.35	82.8307	4,756.35	82.4181	4,756.35	80.7544	4,756.35	71.2596	4,756.35	77.2554	4,756.35	78.2056	4,756.35	74.8116	4,756.35	80.4226	4,756.35	74.1203	4,756.35	75.6066	4,756.35	69.81	4,756.35	65.8236	4,756.35	69.1439	4,756.35	63.0748	4,756.35	66.7208	4,756.35	58.696	4,756.35	67.8253	4,756.35	58.0365	4,756.35	66.5167	4,756.35	66.7989	4,756.35	66.8441	4,756.35	62.1827	4,756.35	64.1705	4,756.35	57.4692	4,756.35	62.2642	4,756.35	58.2115	4,756.35	54.0283	4,756.35	65.7034	4,756.35	59.5523
4,924.8	86.4524	4,924.8	85.863	4,924.8	86.002	4,924.8	84.997	4,924.8	83.5502	4,924.8	84.2421	4,924.8	82.2596	4,924.8	81.8665	4,924.8	81.9902	4,924.8	80.2738	4,924.8	73.2147	4,924.8	77.2608	4,924.8	79.0957	4,924.8	77.0303	4,924.8	79.257	4,924.8	72.4057	4,924.8	72.3598	4,924.8	72.4516	4,924.8	70.2412	4,924.8	68.5554	4,924.8	66.8547	4,924.8	68.5816	4,924.8	67.5108	4,924.8	67.5115	4,924.8	57.6797	4,924.8	66.2338	4,924.8	63.4058	4,924.8	66.7488	4,924.8	51.6222	4,924.8	65.861	4,924.8	56.1926	4,924.8	64.9438	4,924.8	60.1753	4,924.8	59.538	4,924.8	63.8142	4,924.8	54.1751
5,097.66	85.8771	5,097.66	85.88	5,097.66	85.6311	5,097.66	85.9554	5,097.66	85.1067	5,097.66	83.0709	5,097.66	82.7064	5,097.66	82.7685	5,097.66	81.5065	5,097.66	80.3999	5,097.66	76.1229	5,097.66	77.8186	5,097.66	78.4812	5,097.66	76.0851	5,097.66	75.7888	5,097.66	72.856	5,097.66	73.2203	5,097.66	70.6924	5,097.66	65.2793	5,097.66	67.7462	5,097.66	64.6044	5,097.66	67.0794	5,097.66	69.057	5,097.66	66.4072	5,097.66	49.3351	5,097.66	66.0295	5,097.66	56.288	5,097.66	66.5695	5,097.66	59.0346	5,097.66	63.8194	5,097.66	56.8127	5,097.66	61.3997	5,097.66	61.3661	5,097.66	44.1388	5,097.66	64.4536	5,097.66	57.2166
5,277.83	86.906	5,277.83	85.9614	5,277.83	85.6233	5,277.83	85.6164	5,277.83	85.4975	5,277.83	83.7607	5,277.83	82.4142	5,277.83	82.4518	5,277.83	81.3327	5,277.83	80.5164	5,277.83	77.824	5,277.83	76.7566	5,277.83	77.1675	5,277.83	75.9784	5,277.83	73.5404	5,277.83	69.7706	5,277.83	73.585	5,277.83	70.4473	5,277.83	69.5033	5,277.83	66.3813	5,277.83	67.5553	5,277.83	67.0835	5,277.83	63.3837	5,277.83	65.8243	5,277.83	62.5275	5,277.83	63.6532	5,277.83	58.9919	5,277.83	65.2891	5,277.83	64.8319	5,277.83	65.9343	5,277.83	53.4295	5,277.83	63.6843	5,277.83	58.6452	5,277.83	58.9793	5,277.83	63.9962	5,277.83	53.1345
5,463.87	86.6081	5,463.87	85.4677	5,463.87	85.4044	5,463.87	85.6905	5,463.87	85.893	5,463.87	83.7096	5,463.87	81.4272	5,463.87	82.048	5,463.87	80.5869	5,463.87	80.9596	5,463.87	78.6849	5,463.87	76.3739	5,463.87	72.5189	5,463.87	75.4801	5,463.87	74.8878	5,463.87	72.2349	5,463.87	73.1893	5,463.87	69.8584	5,463.87	72.5354	5,463.87	67.6113	5,463.87	68.9571	5,463.87	65.5525	5,463.87	60.664	5,463.87	65.2524	5,463.87	61.3567	5,463.87	65.358	5,463.87	55.2789	5,463.87	66.1384	5,463.87	63.8737	5,463.87	65.2696	5,463.87	53.8175	5,463.87	61.994	5,463.87	56.3101	5,463.87	55.4749	5,463.87	63.8109	5,463.87	54.3178
5,657.23	86.6414	5,657.23	85.6489	5,657.23	85.779	5,657.23	85.875	5,657.23	84.7499	5,657.23	83.6482	5,657.23	80.8332	5,657.23	82.151	5,657.23	82.0931	5,657.23	80.6594	5,657.23	79.6874	5,657.23	76.5236	5,657.23	68.0533	5,657.23	74.9303	5,657.23	74.7602	5,657.23	72.078	5,657.23	71.2649	5,657.23	69.5997	5,657.23	72.4308	5,657.23	67.0932	5,657.23	69.9142	5,657.23	65.9198	5,657.23	60.9327	5,657.23	64.7146	5,657.23	53.1289	5,657.23	65.944	5,657.23	51.9383	5,657.23	64.5947	5,657.23	61.0104	5,657.23	64.021	5,657.23	56.0164	5,657.23	62.5696	5,657.23	53.4481	5,657.23	55.295	5,657.23	61.586	5,657.23	57.5025
5,856.45	86.4598	5,856.45	85.9427	5,856.45	85.6267	5,856.45	85.3342	5,856.45	84.5677	5,856.45	83.4295	5,856.45	82.239	5,856.45	81.9374	5,856.45	81.8712	5,856.45	80.6667	5,856.45	78.7788	5,856.45	76.0471	5,856.45	68.7268	5,856.45	74.9276	5,856.45	74.9535	5,856.45	69.5077	5,856.45	72.4108	5,856.45	66.084	5,856.45	69.9977	5,856.45	65.9726	5,856.45	64.2371	5,856.45	64.2313	5,856.45	65.4741	5,856.45	63.278	5,856.45	59.3566	5,856.45	64.8086	5,856.45	58.5155	5,856.45	64.1552	5,856.45	60.426	5,856.45	62.9331	5,856.45	53.3228	5,856.45	62.8455	5,856.45	56.3907	5,856.45	55.4984	5,856.45	59.6757	5,856.45	55.0568
6,062.99	86.5736	6,062.99	85.3808	6,062.99	85.466	6,062.99	85.2358	6,062.99	85.4024	6,062.99	83.54	6,062.99	83.2085	6,062.99	82.4527	6,062.99	82.133	6,062.99	79.9249	6,062.99	79.0253	6,062.99	76.2917	6,062.99	69.6634	6,062.99	72.4765	6,062.99	75.182	6,062.99	71.2932	6,062.99	71.592	6,062.99	66.6539	6,062.99	71.6268	6,062.99	66.0903	6,062.99	60.6938	6,062.99	63.4238	6,062.99	64.7142	6,062.99	63.1276	6,062.99	61.9291	6,062.99	65.7326	6,062.99	50.6924	6,062.99	62.124	6,062.99	52.5459	6,062.99	65.2625	6,062.99	50.5293	6,062.99	61.6374	6,062.99	53.8481	6,062.99	57.699	6,062.99	59.3213	6,062.99	56.4024
6,276.86	86.5795	6,276.86	85.7047	6,276.86	85.0918	6,276.86	85.2207	6,276.86	85.4288	6,276.86	83.8178	6,276.86	83.6201	6,276.86	82.1172	6,276.86	80.7607	6,276.86	79.9569	6,276.86	78.5022	6,276.86	75.558	6,276.86	68.481	6,276.86	72.935	6,276.86	76.1522	6,276.86	70.5227	6,276.86	72.6173	6,276.86	68.0203	6,276.86	71.1352	6,276.86	66.3286	6,276.86	59.502	6,276.86	65.7165	6,276.86	60.3459	6,276.86	61.7747	6,276.86	60.0891	6,276.86	66.5693	6,276.86	48.4789	6,276.86	61.7868	6,276.86	46.6075	6,276.86	64.5879	6,276.86	50.8058	6,276.86	62.8473	6,276.86	54.0105	6,276.86	59.1364	6,276.86	60.3436	6,276.86	52.8864
6,498.05	86.1283	6,498.05	85.2351	6,498.05	84.8603	6,498.05	85.1452	6,498.05	83.7651	6,498.05	84.071	6,498.05	82.2331	6,498.05	81.5062	6,498.05	78.6713	6,498.05	79.9108	6,498.05	79.0372	6,498.05	75.7101	6,498.05	71.413	6,498.05	74.0202	6,498.05	74.8229	6,498.05	69.3944	6,498.05	71.6334	6,498.05	67.8599	6,498.05	70.0187	6,498.05	63.8563	6,498.05	61.7207	6,498.05	63.9734	6,498.05	51.2946	6,498.05	60.7206	6,498.05	57.1065	6,498.05	65.047	6,498.05	54.0562	6,498.05	61.3176	6,498.05	53.0017	6,498.05	65.7988	6,498.05	51.03	6,498.05	60.9675	6,498.05	53.0254	6,498.05	60.0008	6,498.05	60.6126	6,498.05	53.2432
6,726.56	86.4633	6,726.56	85.6488	6,726.56	85.4684	6,726.56	85.4268	6,726.56	84.0576	6,726.56	83.5952	6,726.56	80.4362	6,726.56	82.0284	6,726.56	77.5685	6,726.56	79.3083	6,726.56	78.8614	6,726.56	76.0287	6,726.56	72.5535	6,726.56	72.2544	6,726.56	73.2171	6,726.56	69.7823	6,726.56	69.8235	6,726.56	66.9301	6,726.56	69.2623	6,726.56	63.8549	6,726.56	65.4257	6,726.56	63.0446	6,726.56	61.5134	6,726.56	62.2543	6,726.56	51.1673	6,726.56	64.0097	6,726.56	54.2887	6,726.56	61.1149	6,726.56	58.5872	6,726.56	65.2765	6,726.56	56.0412	6,726.56	59.5485	6,726.56	53.9254	6,726.56	61.8784	6,726.56	58.6641	6,726.56	48.3584
6,963.87	86.349	6,963.87	85.8271	6,963.87	86.044	6,963.87	85.2381	6,963.87	85.0171	6,963.87	83.7027	6,963.87	80.9823	6,963.87	82.1871	6,963.87	79.1131	6,963.87	78.5379	6,963.87	78.2732	6,963.87	75.5032	6,963.87	72.7492	6,963.87	72.257	6,963.87	69.1458	6,963.87	69.8507	6,963.87	72.182	6,963.87	68.1604	6,963.87	66.3837	6,963.87	65.7887	6,963.87	64.0757	6,963.87	63.1007	6,963.87	64.856	6,963.87	63.3419	6,963.87	52.3889	6,963.87	63.9375	6,963.87	44.8124	6,963.87	61.2832	6,963.87	58.8727	6,963.87	64.7654	6,963.87	55.4475	6,963.87	61.8847	6,963.87	33.6921	6,963.87	62.1708	6,963.87	55.7558	6,963.87	45.3802
7,209.96	85.819	7,209.96	85.7604	7,209.96	85.2244	7,209.96	85.2574	7,209.96	84.4766	7,209.96	83.9952	7,209.96	82.3975	7,209.96	81.6046	7,209.96	80.3165	7,209.96	78.3441	7,209.96	77.8123	7,209.96	75.5746	7,209.96	73.3717	7,209.96	73.5384	7,209.96	58.5411	7,209.96	69.5076	7,209.96	75.554	7,209.96	67.6033	7,209.96	63.6997	7,209.96	64.7245	7,209.96	54.8573	7,209.96	60.7937	7,209.96	64.545	7,209.96	62.0955	7,209.96	52.989	7,209.96	63.0458	7,209.96	49.8862	7,209.96	60.1738	7,209.96	58.5362	7,209.96	64.6453	7,209.96	55.4745	7,209.96	63.4884	7,209.96	49.4313	7,209.96	61.2784	7,209.96	54.8837	7,209.96	49.6185
7,464.84	86.0158	7,464.84	85.6097	7,464.84	85.3396	7,464.84	85.6861	7,464.84	84.2052	7,464.84	83.6241	7,464.84	82.4965	7,464.84	80.9208	7,464.84	80.5907	7,464.84	78.8349	7,464.84	77.7841	7,464.84	75.1925	7,464.84	71.7214	7,464.84	72.991	7,464.84	65.8301	7,464.84	68.4558	7,464.84	74.2661	7,464.84	65.8611	7,464.84	64.686	7,464.84	62.9053	7,464.84	56.8535	7,464.84	60.8698	7,464.84	64.5161	7,464.84	61.6174	7,464.84	54.6048	7,464.84	60.8218	7,464.84	47.9729	7,464.84	59.1709	7,464.84	57.654	7,464.84	62.4564	7,464.84	54.1717	7,464.84	61.5765	7,464.84	53.2388	7,464.84	58.7522	7,464.84	54.1721	7,464.84	54.9183
7,727.05	85.8082	7,727.05	85.5822	7,727.05	86.1017	7,727.05	85.5711	7,727.05	84.6252	7,727.05	83.266	7,727.05	81.3512	7,727.05	81.3726	7,727.05	79.201	7,727.05	78.0379	7,727.05	77.8293	7,727.05	75.3705	7,727.05	70.9249	7,727.05	71.508	7,727.05	66.8887	7,727.05	68.4626	7,727.05	70.7229	7,727.05	65.54	7,727.05	64.0185	7,727.05	62.8934	7,727.05	58.2271	7,727.05	60.8415	7,727.05	56.1387	7,727.05	60.9146	7,727.05	47.5858	7,727.05	61.4745	7,727.05	54.7561	7,727.05	60.3409	7,727.05	57.1561	7,727.05	61.3212	7,727.05	55.0023	7,727.05	59.0397	7,727.05	42.3968	7,727.05	60.1811	7,727.05	52.1145	7,727.05	53.5828
7,999.51	85.5183	7,999.51	85.9548	7,999.51	85.3614	7,999.51	85.2326	7,999.51	84.0384	7,999.51	83.0099	7,999.51	81.917	7,999.51	81.1485	7,999.51	78.528	7,999.51	77.5465	7,999.51	75.9715	7,999.51	75.206	7,999.51	71.9276	7,999.51	71.7033	7,999.51	53.2018	7,999.51	68.2956	7,999.51	69.4345	7,999.51	65.7953	7,999.51	65.3699	7,999.51	63.4968	7,999.51	61.5819	7,999.51	59.506	7,999.51	48.8587	7,999.51	60.3397	7,999.51	44.381	7,999.51	61.1102	7,999.51	53.9045	7,999.51	60.6437	7,999.51	53.803	7,999.51	59.48	7,999.51	53.9419	7,999.51	60.6484	7,999.51	40.6491	7,999.51	58.5355	7,999.51	53.899	7,999.51	51.3171
8,282.23	85.8226	8,282.23	85.6847	8,282.23	85.5927	8,282.23	85.4256	8,282.23	84.3462	8,282.23	82.7375	8,282.23	82.7475	8,282.23	80.5696	8,282.23	77.8825	8,282.23	78.3682	8,282.23	73.8225	8,282.23	74.0854	8,282.23	73.072	8,282.23	70.2076	8,282.23	62.0067	8,282.23	66.9908	8,282.23	70.5706	8,282.23	62.504	8,282.23	64.2479	8,282.23	63.0532	8,282.23	62.0346	8,282.23	57.92	8,282.23	45.0288	8,282.23	60.658	8,282.23	41.6127	8,282.23	57.7501	8,282.23	49.0603	8,282.23	59.4894	8,282.23	55.2212	8,282.23	58.5762	8,282.23	52.6084	8,282.23	59.573	8,282.23	39.3963	8,282.23	58.054	8,282.23	49.7845	8,282.23	53.7597
8,573.73	85.9511	8,573.73	85.868	8,573.73	85.0279	8,573.73	85.4841	8,573.73	84.3557	8,573.73	82.2997	8,573.73	81.7447	8,573.73	81.0016	8,573.73	76.5029	8,573.73	77.9088	8,573.73	74.3447	8,573.73	73.5271	8,573.73	72.3312	8,573.73	69.9715	8,573.73	70.4416	8,573.73	67.4163	8,573.73	69.9187	8,573.73	63.6339	8,573.73	66.1944	8,573.73	62.4109	8,573.73	63.0207	8,573.73	59.1263	8,573.73	46.7128	8,573.73	61.4949	8,573.73	47.6537	8,573.73	58.5623	8,573.73	41.8322	8,573.73	59.0584	8,573.73	53.9453	8,573.73	60.9041	8,573.73	53.1369	8,573.73	59.0551	8,573.73	41.1141	8,573.73	59.9693	8,573.73	52.9184	8,573.73	44.8868
8,876.95	86.0281	8,876.95	86.3247	8,876.95	85.4926	8,876.95	85.2726	8,876.95	83.9968	8,876.95	82.4846	8,876.95	81.4746	8,876.95	80.7791	8,876.95	77.0297	8,876.95	77.542	8,876.95	77.7296	8,876.95	73.7386	8,876.95	68.9169	8,876.95	70.2677	8,876.95	73.3195	8,876.95	66.7412	8,876.95	66.8202	8,876.95	64.7034	8,876.95	66.5296	8,876.95	60.6294	8,876.95	58.7701	8,876.95	59.5021	8,876.95	50.3835	8,876.95	59.3659	8,876.95	49.6787	8,876.95	58.8804	8,876.95	51.8552	8,876.95	57.011	8,876.95	57.0863	8,876.95	60.7744	8,876.95	51.3071	8,876.95	58.086	8,876.95	49.646	8,876.95	56.8807	8,876.95	53.1786	8,876.95	46.1876
9,188.96	85.901	9,188.96	86.4709	9,188.96	85.5049	9,188.96	85.1265	9,188.96	84.3858	9,188.96	82.6414	9,188.96	80.5957	9,188.96	80.4998	9,188.96	78.6106	9,188.96	77.6536	9,188.96	78.0007	9,188.96	72.7844	9,188.96	68.8231	9,188.96	70.3503	9,188.96	72.104	9,188.96	67.4374	9,188.96	61.5261	9,188.96	63.938	9,188.96	65.223	9,188.96	61.6191	9,188.96	62.5107	9,188.96	59.9778	9,188.96	56.5632	9,188.96	59.7179	9,188.96	46.4485	9,188.96	60.4634	9,188.96	50.449	9,188.96	57.6659	9,188.96	54.8368	9,188.96	58.6739	9,188.96	44.9267	9,188.96	58.3286	9,188.96	40.4147	9,188.96	57.3457	9,188.96	50.2644	9,188.96	52.3369
9,514.16	86.279	9,514.16	86.1891	9,514.16	85.6955	9,514.16	85.0939	9,514.16	84.617	9,514.16	82.145	9,514.16	81.8939	9,514.16	81.0916	9,514.16	78.9335	9,514.16	76.4371	9,514.16	75.7884	9,514.16	73.8921	9,514.16	73.4991	9,514.16	70.0768	9,514.16	69.1279	9,514.16	67.5484	9,514.16	53.0066	9,514.16	63.5176	9,514.16	66.0043	9,514.16	60.9872	9,514.16	65.7103	9,514.16	57.9776	9,514.16	62.4032	9,514.16	58.8469	9,514.16	55.3948	9,514.16	59.8008	9,514.16	36.7016	9,514.16	57.3669	9,514.16	43.2122	9,514.16	58.8187	9,514.16	35.7613	9,514.16	59.2264	9,514.16	36.5283	9,514.16	55.3069	9,514.16	49.0848	9,514.16	51.7651
9,849.61	86.2363	9,849.61	86.1257	9,849.61	85.3661	9,849.61	84.8105	9,849.61	84.3573	9,849.61	82.3773	9,849.61	82.0098	9,849.61	80.3059	9,849.61	78.1926	9,849.61	76.568	9,849.61	74.9763	9,849.61	73.0423	9,849.61	74.4844	9,849.61	69.8479	9,849.61	70.6041	9,849.61	67.1763	9,849.61	57.6596	9,849.61	62.9466	9,849.61	63.6767	9,849.61	60.2462	9,849.61	65.3802	9,849.61	57.739	9,849.61	63.7465	9,849.61	57.1583	9,849.61	57.6144	9,849.61	57.7486	9,849.61	39.3399	9,849.61	56.1013	9,849.61	44.5406	9,849.61	57.5387	9,849.61	48.7542	9,849.61	57.0166	9,849.61	43.2844	9,849.61	55.9877	9,849.61	47.7123	9,849.61	49.8387
10,196.8	86.3895	10,196.8	86.1937	10,196.8	85.1707	10,196.8	84.6336	10,196.8	83.9078	10,196.8	82.2245	10,196.8	80.6131	10,196.8	79.8706	10,196.8	79.4109	10,196.8	76.229	10,196.8	75.1134	10,196.8	73.4321	10,196.8	74.451	10,196.8	69.6593	10,196.8	69.0352	10,196.8	66.0833	10,196.8	49.7475	10,196.8	61.4446	10,196.8	63.0961	10,196.8	58.3254	10,196.8	64.5047	10,196.8	57.7312	10,196.8	62.313	10,196.8	56.454	10,196.8	57.9303	10,196.8	57.2421	10,196.8	43.8313	10,196.8	57.1096	10,196.8	51.1556	10,196.8	55.7319	10,196.8	46.6315	10,196.8	54.8849	10,196.8	49.7283	10,196.8	53.906	10,196.8	49.0054	10,196.8	45.0128
10,555.7	86.5242	10,555.7	86.117	10,555.7	85.3212	10,555.7	84.5353	10,555.7	83.8252	10,555.7	81.8345	10,555.7	81.2799	10,555.7	79.6038	10,555.7	79.1847	10,555.7	75.8592	10,555.7	75.5064	10,555.7	73.1969	10,555.7	73.2169	10,555.7	68.0866	10,555.7	69.8161	10,555.7	65.3744	10,555.7	48.6818	10,555.7	62.4929	10,555.7	61.8017	10,555.7	56.009	10,555.7	60.7069	10,555.7	58.1392	10,555.7	55.1183	10,555.7	54.7338	10,555.7	55.3397	10,555.7	57.356	10,555.7	41.3866	10,555.7	56.5377	10,555.7	51.6974	10,555.7	55.8699	10,555.7	47.123	10,555.7	55.4531	10,555.7	48.9997	10,555.7	51.6003	10,555.7	49.6178	10,555.7	48.493
10,927.7	86.641	10,927.7	86.059	10,927.7	85.3082	10,927.7	84.5621	10,927.7	83.9607	10,927.7	81.8663	10,927.7	82.5952	10,927.7	78.9613	10,927.7	78.9019	10,927.7	76.6622	10,927.7	75.8424	10,927.7	72.5874	10,927.7	73.2047	10,927.7	68.0652	10,927.7	68.4491	10,927.7	64.5119	10,927.7	59.2684	10,927.7	60.8123	10,927.7	59.7362	10,927.7	56.661	10,927.7	62.1788	10,927.7	56.7071	10,927.7	60.7788	10,927.7	53.2127	10,927.7	49.4347	10,927.7	58.1281	10,927.7	49.0299	10,927.7	56.4988	10,927.7	52.7329	10,927.7	55.537	10,927.7	52.3543	10,927.7	52.9242	10,927.7	47.7138	10,927.7	51.4682	10,927.7	47.6468	10,927.7	51.9573
11,313	86.5723	11,313	85.8762	11,313	85.2179	11,313	84.7402	11,313	83.5231	11,313	81.3624	11,313	81.7135	11,313	79.3891	11,313	78.7705	11,313	76.256	11,313	76.1965	11,313	72.6247	11,313	75.6969	11,313	67.1778	11,313	65.0944	11,313	65.54	11,313	64.1422	11,313	62.1275	11,313	55.7247	11,313	56.2469	11,313	65.1969	11,313	57.0913	11,313	63.3615	11,313	54.9342	11,313	44.9173	11,313	59.2333	11,313	40.058	11,313	55.6774	11,313	49.1387	11,313	54.8771	11,313	53.4391	11,313	53.2062	11,313	38.9537	11,313	53.4384	11,313	45.223	11,313	48.2464
11,712.9	86.5249	11,712.9	85.5701	11,712.9	85.4219	11,712.9	84.625	11,712.9	83.6905	11,712.9	81.3288	11,712.9	80.489	11,712.9	79.1351	11,712.9	78.8761	11,712.9	76.5391	11,712.9	76.1178	11,712.9	72.4885	11,712.9	73.9034	11,712.9	67.2278	11,712.9	55.5062	11,712.9	65.1922	11,712.9	63.6149	11,712.9	61.3617	11,712.9	56.5405	11,712.9	57.513	11,712.9	66.7739	11,712.9	54.8221	11,712.9	62.8654	11,712.9	55.7058	11,712.9	43.4962	11,712.9	58.8568	11,712.9	46.8254	11,712.9	54.7336	11,712.9	52.843	11,712.9	54.9944	11,712.9	49.4559	11,712.9	54.1207	11,712.9	36.25	11,712.9	53.1219	11,712.9	45.2049	11,712.9	47.7315
12,126	86.1417	12,126	85.3952	12,126	85.2194	12,126	84.3094	12,126	83.527	12,126	81.059	12,126	81.9964	12,126	79.7255	12,126	78.9227	12,126	75.6727	12,126	76.2734	12,126	72.8427	12,126	72.886	12,126	68.0262	12,126	64.6109	12,126	64.8193	12,126	63.1774	12,126	61.0522	12,126	56.6723	12,126	56.672	12,126	66.2347	12,126	55.1117	12,126	63.0108	12,126	54.8475	12,126	49.7505	12,126	58.3444	12,126	46.9077	12,126	55.1567	12,126	54.656	12,126	55.9895	12,126	47.375	12,126	53.6057	12,126	43.5966	12,126	53.8494	12,126	50.1823	12,126	49.9213
12,553.7	86.0288	12,553.7	85.0818	12,553.7	84.8841	12,553.7	84.212	12,553.7	83.1627	12,553.7	81.0129	12,553.7	80.8681	12,553.7	79.6412	12,553.7	79.2977	12,553.7	75.7116	12,553.7	75.856	12,553.7	72.8152	12,553.7	72.9615	12,553.7	67.2232	12,553.7	61.7851	12,553.7	64.3694	12,553.7	65.0201	12,553.7	60.6849	12,553.7	54.9131	12,553.7	55.9042	12,553.7	67.5071	12,553.7	52.8528	12,553.7	65.3184	12,553.7	55.4883	12,553.7	51.9438	12,553.7	57.5609	12,553.7	46.8519	12,553.7	54.2705	12,553.7	50.1177	12,553.7	55.5552	12,553.7	44.8798	12,553.7	51.9756	12,553.7	50.0328	12,553.7	50.6606	12,553.7	47.4289	12,553.7	47.7544
12,996.1	85.5448	12,996.1	85.1644	12,996.1	85.0909	12,996.1	83.9001	12,996.1	83.0565	12,996.1	81.4059	12,996.1	80.9686	12,996.1	79.9028	12,996.1	79.7457	12,996.1	75.2182	12,996.1	77.5257	12,996.1	73.0087	12,996.1	72.1604	12,996.1	67.0799	12,996.1	65.3487	12,996.1	62.8576	12,996.1	65.3913	12,996.1	58.7878	12,996.1	57.8142	12,996.1	55.6489	12,996.1	68.9522	12,996.1	49.2295	12,996.1	66.3641	12,996.1	55.1695	12,996.1	54.407	12,996.1	58.2606	12,996.1	43.25	12,996.1	54.2294	12,996.1	53.6916	12,996.1	54.6371	12,996.1	45.5452	12,996.1	50.8639	12,996.1	47.6163	12,996.1	52.0443	12,996.1	47.479	12,996.1	46.9969
13,454.6	85.4965	13,454.6	85.2046	13,454.6	85.0374	13,454.6	83.8354	13,454.6	83.8518	13,454.6	81.5955	13,454.6	82.0151	13,454.6	79.9966	13,454.6	80.5618	13,454.6	75.4739	13,454.6	75.5636	13,454.6	72.5177	13,454.6	72.6806	13,454.6	66.8299	13,454.6	67.1771	13,454.6	63.5556	13,454.6	65.6854	13,454.6	58.3808	13,454.6	58.0272	13,454.6	55.8136	13,454.6	69.4783	13,454.6	50.8557	13,454.6	66.3553	13,454.6	54.9765	13,454.6	54.2973	13,454.6	55.4848	13,454.6	44.009	13,454.6	54.6458	13,454.6	51.1952	13,454.6	54.9813	13,454.6	41.9152	13,454.6	50.4356	13,454.6	45.6928	13,454.6	51.6503	13,454.6	48.8954	13,454.6	45.7572
13,929.2	85.5774	13,929.2	85.4286	13,929.2	85.3634	13,929.2	83.9943	13,929.2	83.7032	13,929.2	81.9392	13,929.2	81.8895	13,929.2	80.0216	13,929.2	80.3406	13,929.2	75.5775	13,929.2	75.6437	13,929.2	71.8713	13,929.2	71.0974	13,929.2	66.0068	13,929.2	68.2953	13,929.2	63.2111	13,929.2	64.1458	13,929.2	58.3609	13,929.2	60.4163	13,929.2	55.2938	13,929.2	69.809	13,929.2	50.4184	13,929.2	67.1709	13,929.2	54.5475	13,929.2	56.7318	13,929.2	55.2024	13,929.2	43.4013	13,929.2	54.0615	13,929.2	49.9764	13,929.2	54.325	13,929.2	41.9041	13,929.2	53.0925	13,929.2	51.6813	13,929.2	52.8498	13,929.2	51.5084	13,929.2	47.318
14,419.9	85.92	14,419.9	85.7249	14,419.9	85.7557	14,419.9	84.2565	14,419.9	84.5792	14,419.9	82.0527	14,419.9	82.3344	14,419.9	80.0179	14,419.9	79.8697	14,419.9	75.2711	14,419.9	76.2458	14,419.9	70.8955	14,419.9	69.3591	14,419.9	66.3861	14,419.9	68.0769	14,419.9	60.9763	14,419.9	64.1824	14,419.9	56.8413	14,419.9	60.1725	14,419.9	55.4854	14,419.9	70.6225	14,419.9	43.2666	14,419.9	68.4563	14,419.9	52.4718	14,419.9	58.32	14,419.9	55.773	14,419.9	32.7468	14,419.9	51.9885	14,419.9	48.599	14,419.9	54.322	14,419.9	39.5585	14,419.9	53.3896	14,419.9	50.9713	14,419.9	53.0993	14,419.9	51.6424	14,419.9	44.2259
14,928.2	86.2673	14,928.2	85.968	14,928.2	85.8475	14,928.2	84.8259	14,928.2	84.8596	14,928.2	82.0878	14,928.2	81.95	14,928.2	80.197	14,928.2	80.084	14,928.2	74.6995	14,928.2	75.4493	14,928.2	70.4919	14,928.2	71.479	14,928.2	65.2993	14,928.2	67.3299	14,928.2	60.9375	14,928.2	64.7117	14,928.2	54.0083	14,928.2	61.5945	14,928.2	53.792	14,928.2	71.8265	14,928.2	45.2623	14,928.2	68.827	14,928.2	52.5015	14,928.2	58.102	14,928.2	54.2015	14,928.2	27.0837	14,928.2	53.0624	14,928.2	43.0245	14,928.2	53.1335	14,928.2	42.3236	14,928.2	51.1121	14,928.2	50.5202	14,928.2	51.9268	14,928.2	50.9649	14,928.2	37.8482
15,455.6	86.9369	15,455.6	86.3647	15,455.6	86.3689	15,455.6	85.1468	15,455.6	85.0305	15,455.6	82.1784	15,455.6	82.6606	15,455.6	80.1161	15,455.6	79.8731	15,455.6	74.0768	15,455.6	75.7742	15,455.6	70.4242	15,455.6	70.5484	15,455.6	63.9497	15,455.6	68.1561	15,455.6	59.8215	15,455.6	61.7364	15,455.6	54.4698	15,455.6	61.7556	15,455.6	55.0307	15,455.6	72.3	15,455.6	44.8662	15,455.6	68.6281	15,455.6	53.0782	15,455.6	58.8668	15,455.6	54.6828	15,455.6	24.6679	15,455.6	51.4937	15,455.6	47.0553	15,455.6	52.5746	15,455.6	42.845	15,455.6	49.714	15,455.6	48.2478	15,455.6	50.8306	15,455.6	50.3861	15,455.6	37.9038
16,000.5	87.3843	16,000.5	86.7584	16,000.5	86.8307	16,000.5	85.5146	16,000.5	85.6411	16,000.5	82.3201	16,000.5	82.3204	16,000.5	80.1671	16,000.5	79.2642	16,000.5	73.9789	16,000.5	75.61	16,000.5	70.0908	16,000.5	71.7858	16,000.5	63.8993	16,000.5	66.3335	16,000.5	58.6444	16,000.5	61.752	16,000.5	52.9177	16,000.5	63.0005	16,000.5	55.3435	16,000.5	72.8725	16,000.5	48.0366	16,000.5	69.7105	16,000.5	54.1742	16,000.5	60.9667	16,000.5	54.2745	16,000.5	46.3461	16,000.5	51.5597	16,000.5	37.2377	16,000.5	53.2507	16,000.5	43.3816	16,000.5	51.9826	16,000.5	48.2765	16,000.5	52.2374	16,000.5	51.0302	16,000.5	28.5229
16,564.5	87.5999	16,564.5	86.8588	16,564.5	87.0697	16,564.5	85.8589	16,564.5	86.1278	16,564.5	82.5213	16,564.5	83.5241	16,564.5	79.7048	16,564.5	80.0812	16,564.5	73.7742	16,564.5	75.2648	16,564.5	70.2148	16,564.5	72.5845	16,564.5	64.3153	16,564.5	67.0317	16,564.5	59.8149	16,564.5	60.916	16,564.5	54.6404	16,564.5	62.74	16,564.5	55.0463	16,564.5	73.638	16,564.5	50.2995	16,564.5	69.9172	16,564.5	54.2402	16,564.5	62.2601	16,564.5	54.1059	16,564.5	46.2257	16,564.5	52.2928	16,564.5	39.3715	16,564.5	51.8165	16,564.5	45.1474	16,564.5	51.0827	16,564.5	48.6115	16,564.5	50.0861	16,564.5	48.1638	16,564.5	29.8646
17,148.9	87.6712	17,148.9	86.9851	17,148.9	87.3588	17,148.9	86.0235	17,148.9	86.5931	17,148.9	82.9999	17,148.9	83.9637	17,148.9	79.8246	17,148.9	80.6563	17,148.9	73.6236	17,148.9	75.4759	17,148.9	70.5585	17,148.9	72.0556	17,148.9	65.993	17,148.9	66.6593	17,148.9	59.4962	17,148.9	57.2106	17,148.9	54.9381	17,148.9	62.4386	17,148.9	53.0009	17,148.9	74.0682	17,148.9	53.8091	17,148.9	69.6072	17,148.9	54.3441	17,148.9	63.1753	17,148.9	52.8453	17,148.9	45.6082	17,148.9	52.3635	17,148.9	30.9128	17,148.9	51.201	17,148.9	47.4246	17,148.9	49.4247	17,148.9	49.2117	17,148.9	51.6298	17,148.9	48.1917	17,148.9	37.7851
17,752.4	87.7707	17,752.4	87.0801	17,752.4	87.6803	17,752.4	86.358	17,752.4	87.0298	17,752.4	83.4115	17,752.4	84.5318	17,752.4	80.1808	17,752.4	80.9738	17,752.4	73.2463	17,752.4	74.5924	17,752.4	71.442	17,752.4	72.1929	17,752.4	66.4346	17,752.4	66.7835	17,752.4	60.603	17,752.4	57.3781	17,752.4	57.258	17,752.4	60.2972	17,752.4	53.2681	17,752.4	74.0115	17,752.4	54.5911	17,752.4	69.3792	17,752.4	54.525	17,752.4	64.3484	17,752.4	53.4116	17,752.4	42.7105	17,752.4	51.4901	17,752.4	41.1161	17,752.4	51.0228	17,752.4	42.2137	17,752.4	48.017	17,752.4	44.7792	17,752.4	50.5073	17,752.4	41.4346	17,752.4	38.7118
18,379.4	87.8657	18,379.4	87.2814	18,379.4	88.1444	18,379.4	86.6549	18,379.4	87.5589	18,379.4	83.7533	18,379.4	84.6824	18,379.4	81.0765	18,379.4	81.0901	18,379.4	74.0104	18,379.4	75.2362	18,379.4	72.5607	18,379.4	71.766	18,379.4	67.023	18,379.4	67.1565	18,379.4	62.1556	18,379.4	53.5921	18,379.4	58.8293	18,379.4	57.8823	18,379.4	53.7399	18,379.4	73.7366	18,379.4	55.3341	18,379.4	67.456	18,379.4	55.0568	18,379.4	62.1345	18,379.4	55.0515	18,379.4	41.138	18,379.4	52.7772	18,379.4	42.5098	18,379.4	51.2318	18,379.4	46.9523	18,379.4	49.0194	18,379.4	50.5012	18,379.4	52.6356	18,379.4	47.9776	18,379.4	38.1988
19,026.9	87.573	19,026.9	87.2318	19,026.9	88.2896	19,026.9	87.1964	19,026.9	87.7877	19,026.9	84.3981	19,026.9	84.9446	19,026.9	82.0751	19,026.9	81.3034	19,026.9	75.3915	19,026.9	74.7677	19,026.9	73.1017	19,026.9	72.1924	19,026.9	67.9933	19,026.9	66.2537	19,026.9	63.2682	19,026.9	56.952	19,026.9	59.5412	19,026.9	53.1983	19,026.9	52.1957	19,026.9	72.1393	19,026.9	56.8951	19,026.9	64.1072	19,026.9	54.9835	19,026.9	64.2803	19,026.9	54.4105	19,026.9	47.8419	19,026.9	53.1377	19,026.9	47.4265	19,026.9	50.5453	19,026.9	42.7073	19,026.9	49.7377	19,026.9	49.637	19,026.9	52.8895	19,026.9	46.9927	19,026.9	43.9811
19,697.8	86.9878	19,697.8	87.0433	19,697.8	87.703	19,697.8	87.9011	19,697.8	87.4287	19,697.8	85.1716	19,697.8	84.9674	19,697.8	82.7558	19,697.8	81.3672	19,697.8	76.0096	19,697.8	75.7132	19,697.8	73.4925	19,697.8	71.4689	19,697.8	69.0009	19,697.8	69.047	19,697.8	63.4927	19,697.8	59.7542	19,697.8	60.5669	19,697.8	54.1997	19,697.8	49.7001	19,697.8	70.562	19,697.8	57.0531	19,697.8	60.9512	19,697.8	54.8153	19,697.8	63.713	19,697.8	53.4206	19,697.8	48.7808	19,697.8	52.4585	19,697.8	46.5834	19,697.8	47.7661	19,697.8	44.9899	19,697.8	43.173	19,697.8	51.1355	19,697.8	50.371	19,697.8	42.912	19,697.8	48.206
19,999.5	86.665	19,999.5	86.9456	19,999.5	87.3356	19,999.5	87.4501	19,999.5	87.285	19,999.5	85.1564	19,999.5	84.6121	19,999.5	82.9464	19,999.5	81.4492	19,999.5	75.7793	19,999.5	75.8894	19,999.5	73.1026	19,999.5	70.9607	19,999.5	68.1808	19,999.5	67.1291	19,999.5	61.5632	19,999.5	59.2189	19,999.5	61.2583	19,999.5	39.0332	19,999.5	50.607	19,999.5	68.6506	19,999.5	60.5315	19,999.5	61.7161	19,999.5	57.9594	19,999.5	62.1647	19,999.5	61.789	19,999.5	50.3189	19,999.5	52.2041	19,999.5	56.3435	19,999.5	41.8083	19,999.5	53.4399	19,999.5	50.6021	19,999.5	54.2954	19,999.5	50.4281	19,999.5	51.0925	19,999.5	51.8402
