"SPL Horizontal"
"On-Axis"		"10°"		"-10°"		"20°"		"-20°"		"30°"		"-30°"		"40°"		"-40°"		"50°"		"-50°"		"60°"		"-60°"		"70°"		"-70°"		"80°"		"-80°"		"90°"		"-90°"		"100°"		"-100°"		"110°"		"-110°"		"120°"		"-120°"		"130°"		"-130°"		"140°"		"-140°"		"150°"		"-150°"		"160°"		"-160°"		"170°"		"-170°"		"180°"
"Frequency / Hz"	"Sound Pressure Level / dB (re 20 µPa/V)  [2.83  V @ 1. m]"	"Frequency / Hz"	"Sound Pressure Level / dB (re 20 µPa/V)  [2.83  V @ 1. m]"	"Frequency / Hz"	"Sound Pressure Level / dB (re 20 µPa/V)  [2.83  V @ 1. m]"	"Frequency / Hz"	"Sound Pressure Level / dB (re 20 µPa/V)  [2.83  V @ 1. m]"	"Frequency / Hz"	"Sound Pressure Level / dB (re 20 µPa/V)  [2.83  V @ 1. m]"	"Frequency / Hz"	"Sound Pressure Level / dB (re 20 µPa/V)  [2.83  V @ 1. m]"	"Frequency / Hz"	"Sound Pressure Level / dB (re 20 µPa/V)  [2.83  V @ 1. m]"	"Frequency / Hz"	"Sound Pressure Level / dB (re 20 µPa/V)  [2.83  V @ 1. m]"	"Frequency / Hz"	"Sound Pressure Level / dB (re 20 µPa/V)  [2.83  V @ 1. m]"	"Frequency / Hz"	"Sound Pressure Level / dB (re 20 µPa/V)  [2.83  V @ 1. m]"	"Frequency / Hz"	"Sound Pressure Level / dB (re 20 µPa/V)  [2.83  V @ 1. m]"	"Frequency / Hz"	"Sound Pressure Level / dB (re 20 µPa/V)  [2.83  V @ 1. m]"	"Frequency / Hz"	"Sound Pressure Level / dB (re 20 µPa/V)  [2.83  V @ 1. m]"	"Frequency / Hz"	"Sound Pressure Level / dB (re 20 µPa/V)  [2.83  V @ 1. m]"	"Frequency / Hz"	"Sound Pressure Level / dB (re 20 µPa/V)  [2.83  V @ 1. m]"	"Frequency / Hz"	"Sound Pressure Level / dB (re 20 µPa/V)  [2.83  V @ 1. m]"	"Frequency / Hz"	"Sound Pressure Level / dB (re 20 µPa/V)  [2.83  V @ 1. m]"	"Frequency / Hz"	"Sound Pressure Level / dB (re 20 µPa/V)  [2.83  V @ 1. m]"	"Frequency / Hz"	"Sound Pressure Level / dB (re 20 µPa/V)  [2.83  V @ 1. m]"	"Frequency / Hz"	"Sound Pressure Level / dB (re 20 µPa/V)  [2.83  V @ 1. m]"	"Frequency / Hz"	"Sound Pressure Level / dB (re 20 µPa/V)  [2.83  V @ 1. m]"	"Frequency / Hz"	"Sound Pressure Level / dB (re 20 µPa/V)  [2.83  V @ 1. m]"	"Frequency / Hz"	"Sound Pressure Level / dB (re 20 µPa/V)  [2.83  V @ 1. m]"	"Frequency / Hz"	"Sound Pressure Level / dB (re 20 µPa/V)  [2.83  V @ 1. m]"	"Frequency / Hz"	"Sound Pressure Level / dB (re 20 µPa/V)  [2.83  V @ 1. m]"	"Frequency / Hz"	"Sound Pressure Level / dB (re 20 µPa/V)  [2.83  V @ 1. m]"	"Frequency / Hz"	"Sound Pressure Level / dB (re 20 µPa/V)  [2.83  V @ 1. m]"	"Frequency / Hz"	"Sound Pressure Level / dB (re 20 µPa/V)  [2.83  V @ 1. m]"	"Frequency / Hz"	"Sound Pressure Level / dB (re 20 µPa/V)  [2.83  V @ 1. m]"	"Frequency / Hz"	"Sound Pressure Level / dB (re 20 µPa/V)  [2.83  V @ 1. m]"	"Frequency / Hz"	"Sound Pressure Level / dB (re 20 µPa/V)  [2.83  V @ 1. m]"	"Frequency / Hz"	"Sound Pressure Level / dB (re 20 µPa/V)  [2.83  V @ 1. m]"	"Frequency / Hz"	"Sound Pressure Level / dB (re 20 µPa/V)  [2.83  V @ 1. m]"	"Frequency / Hz"	"Sound Pressure Level / dB (re 20 µPa/V)  [2.83  V @ 1. m]"	"Frequency / Hz"	"Sound Pressure Level / dB (re 20 µPa/V)  [2.83  V @ 1. m]"	"Frequency / Hz"	"Sound Pressure Level / dB (re 20 µPa/V)  [2.83  V @ 1. m]"
20.5078	46.2126	20.5078	45.9472	20.5078	46.5291	20.5078	45.7381	20.5078	46.8929	20.5078	45.5945	20.5078	47.2991	20.5078	45.5334	20.5078	47.7403	20.5078	45.5842	20.5078	48.2059	20.5078	45.7883	20.5078	48.6839	20.5078	46.1876	20.5078	49.1645	20.5078	46.8026	20.5078	49.6429	20.5078	47.615	20.5078	50.1213	20.5078	48.5692	20.5078	50.6066	20.5078	49.5911	20.5078	51.1069	20.5078	50.6062	20.5078	51.625	20.5078	51.5493	20.5078	52.1527	20.5078	52.3683	20.5078	52.6672	20.5078	53.0255	20.5078	53.1337	20.5078	53.4975	20.5078	53.5121	20.5078	53.7747	20.5078	53.7644	20.5078	53.8594
21.9727	30.9978	21.9727	31.6241	21.9727	30.6805	21.9727	32.6605	21.9727	30.6036	21.9727	34.1366	21.9727	30.7718	21.9727	35.9444	21.9727	31.2402	21.9727	37.896	21.9727	32.064	21.9727	39.8221	21.9727	33.2541	21.9727	41.6149	21.9727	34.7683	21.9727	43.2229	21.9727	36.5331	21.9727	44.6323	21.9727	38.4652	21.9727	45.8529	21.9727	40.4757	21.9727	46.9063	21.9727	42.4696	21.9727	47.8168	21.9727	44.3523	21.9727	48.6013	21.9727	46.0409	21.9727	49.2624	21.9727	47.4744	21.9727	49.7872	21.9727	48.6177	21.9727	50.1523	21.9727	49.4604	21.9727	50.3303	21.9727	50.0118	21.9727	50.2928
23.4375	33.1284	23.4375	32.0506	23.4375	34.1296	23.4375	30.8304	23.4375	35.0795	23.4375	29.3549	23.4375	35.9735	23.4375	27.4493	23.4375	36.7875	23.4375	24.823	23.4375	37.4891	23.4375	20.9214	23.4375	38.0446	23.4375	15.5341	23.4375	38.4255	23.4375	17.8949	23.4375	38.6164	23.4375	23.6194	23.4375	38.6222	23.4375	27.6414	23.4375	38.4777	23.4375	30.6266	23.4375	38.2528	23.4375	32.9493	23.4375	38.0464	23.4375	34.7755	23.4375	37.9551	23.4375	36.1896	23.4375	38.0232	23.4375	37.2437	23.4375	38.2154	23.4375	37.9762	23.4375	38.4415	23.4375	38.4213	23.4375	38.6019	23.4375	38.6151
24.9023	37.0776	24.9023	36.8826	24.9023	37.3372	24.9023	36.7626	24.9023	37.6472	24.9023	36.726	24.9023	37.9883	24.9023	36.7794	24.9023	38.3353	24.9023	36.9233	24.9023	38.659	24.9023	37.146	24.9023	38.9293	24.9023	37.4208	24.9023	39.1197	24.9023	37.7084	24.9023	39.2122	24.9023	37.966	24.9023	39.2012	24.9023	38.1569	24.9023	39.0938	24.9023	38.257	24.9023	38.9075	24.9023	38.258	24.9023	38.6658	24.9023	38.1682	24.9023	38.3944	24.9023	38.0111	24.9023	38.1193	24.9023	37.8227	24.9023	37.8662	24.9023	37.6458	24.9023	37.6603	24.9023	37.5206	24.9023	37.5247	24.9023	37.4764
26.3672	42.7638	26.3672	42.8342	26.3672	42.728	26.3672	42.938	26.3672	42.7271	26.3672	43.074	26.3672	42.759	26.3672	43.2419	26.3672	42.8188	26.3672	43.4413	26.3672	42.9	26.3672	43.6693	26.3672	42.9958	26.3672	43.9188	26.3672	43.1005	26.3672	44.1768	26.3672	43.2108	26.3672	44.4253	26.3672	43.3245	26.3672	44.6444	26.3672	43.44	26.3672	44.8161	26.3672	43.555	26.3672	44.9275	26.3672	43.6681	26.3672	44.9735	26.3672	43.7802	26.3672	44.9565	26.3672	43.8956	26.3672	44.8849	26.3672	44.0205	26.3672	44.771	26.3672	44.159	26.3672	44.6285	26.3672	44.3111	26.3672	44.471
27.832	49.7731	27.832	49.7887	27.832	49.7705	27.832	49.8175	27.832	49.7803	27.832	49.8591	27.832	49.801	27.832	49.9119	27.832	49.8306	27.832	49.9738	27.832	49.867	27.832	50.0413	27.832	49.9078	27.832	50.1101	27.832	49.9509	27.832	50.1755	27.832	49.9948	27.832	50.2328	27.832	50.0399	27.832	50.2783	27.832	50.0877	27.832	50.3101	27.832	50.1398	27.832	50.3286	27.832	50.1961	27.832	50.3371	27.832	50.2534	27.832	50.3407	27.832	50.3057	27.832	50.3449	27.832	50.3465	27.832	50.3529	27.832	50.3714	27.832	50.3645	27.832	50.3799	27.832	50.3756
29.2969	52.1074	29.2969	52.1442	29.2969	52.0889	29.2969	52.1998	29.2969	52.0882	29.2969	52.2754	29.2969	52.1054	29.2969	52.3717	29.2969	52.1408	29.2969	52.4888	29.2969	52.1946	29.2969	52.6252	29.2969	52.2666	29.2969	52.7777	29.2969	52.3563	29.2969	52.9407	29.2969	52.4632	29.2969	53.1066	29.2969	52.5864	29.2969	53.2669	29.2969	52.7254	29.2969	53.4134	29.2969	52.8781	29.2969	53.5396	29.2969	53.0403	29.2969	53.6417	29.2969	53.2046	29.2969	53.7183	29.2969	53.3618	29.2969	53.7693	29.2969	53.5023	29.2969	53.7946	29.2969	53.6188	29.2969	53.7937	29.2969	53.7068	29.2969	53.7649
30.7617	55.8242	30.7617	55.8472	30.7617	55.8268	30.7617	55.8961	30.7617	55.8541	30.7617	55.9708	30.7617	55.9053	30.7617	56.0699	30.7617	55.9789	30.7617	56.1909	30.7617	56.0731	30.7617	56.3299	30.7617	56.186	30.7617	56.4816	30.7617	56.3152	30.7617	56.6402	30.7617	56.4579	30.7617	56.7996	30.7617	56.6117	30.7617	56.9542	30.7617	56.7736	30.7617	57.0999	30.7617	56.9397	30.7617	57.234	30.7617	57.1046	30.7617	57.3549	30.7617	57.2614	30.7617	57.4609	30.7617	57.4018	30.7617	57.55	30.7617	57.5183	30.7617	57.6185	30.7617	57.6049	30.7617	57.6622	30.7617	57.6579	30.7617	57.6764
32.2266	58.5126	32.2266	58.5093	32.2266	58.5396	32.2266	58.5307	32.2266	58.5891	32.2266	58.5773	32.2266	58.6598	32.2266	58.6493	32.2266	58.75	32.2266	58.7459	32.2266	58.8579	32.2266	58.865	32.2266	58.9811	32.2266	59.0038	32.2266	59.1169	32.2266	59.1578	32.2266	59.2625	32.2266	59.3217	32.2266	59.4148	32.2266	59.4892	32.2266	59.5707	32.2266	59.6545	32.2266	59.7267	32.2266	59.8125	32.2266	59.8786	32.2266	59.9587	32.2266	60.0208	32.2266	60.0896	32.2266	60.1472	32.2266	60.2012	32.2266	60.2512	32.2266	60.2892	32.2266	60.3266	32.2266	60.349	32.2266	60.3691	32.2266	60.3765
33.6914	61.2692	33.6914	61.2714	33.6914	61.2883	33.6914	61.2951	33.6914	61.328	33.6914	61.3405	33.6914	61.3873	33.6914	61.4071	33.6914	61.465	33.6914	61.494	33.6914	61.5594	33.6914	61.5994	33.6914	61.6688	33.6914	61.7209	33.6914	61.7908	33.6914	61.8555	33.6914	61.9229	33.6914	61.9989	33.6914	62.0623	33.6914	62.147	33.6914	62.2064	33.6914	62.295	33.6914	62.3518	33.6914	62.439	33.6914	62.4945	33.6914	62.5749	33.6914	62.6296	33.6914	62.6987	33.6914	62.7507	33.6914	62.8058	33.6914	62.8512	33.6914	62.8909	33.6914	62.9249	33.6914	62.9487	33.6914	62.967	33.6914	62.9749
35.1562	63.9039	35.1562	63.9059	35.1562	63.9196	35.1562	63.926	35.1562	63.9527	35.1562	63.9642	35.1562	64.0024	35.1562	64.0201	35.1562	64.0677	35.1562	64.0928	35.1562	64.1474	35.1562	64.181	35.1562	64.2399	35.1562	64.2825	35.1562	64.3435	35.1562	64.3947	35.1562	64.4558	35.1562	64.5142	35.1562	64.5746	35.1562	64.6373	35.1562	64.6974	35.1562	64.7607	35.1562	64.8211	35.1562	64.8809	35.1562	64.9423	35.1562	64.9949	35.1562	65.0564	35.1562	65.0993	35.1562	65.158	35.1562	65.1903	35.1562	65.2415	35.1562	65.2635	35.1562	65.3016	35.1562	65.3142	35.1562	65.3347	35.1562	65.3388
36.6211	66.6483	36.6211	66.6258	36.6211	66.6842	36.6211	66.6177	36.6211	66.7323	36.6211	66.6244	36.6211	66.7915	36.6211	66.6465	36.6211	66.8605	36.6211	66.6838	36.6211	66.9377	36.6211	66.7359	36.6211	67.0215	36.6211	66.8017	36.6211	67.1101	36.6211	66.8799	36.6211	67.2017	36.6211	66.9684	36.6211	67.2945	36.6211	67.0651	36.6211	67.3867	36.6211	67.1676	36.6211	67.4763	36.6211	67.2733	36.6211	67.5609	36.6211	67.3792	36.6211	67.6374	36.6211	67.4817	36.6211	67.702	36.6211	67.5764	36.6211	67.7505	36.6211	67.6583	36.6211	67.779	36.6211	67.7227	36.6211	67.7845	36.6211	67.7656
38.0859	69.447	38.0859	69.4408	38.0859	69.4668	38.0859	69.4486	38.0859	69.4996	38.0859	69.4707	38.0859	69.5443	38.0859	69.5071	38.0859	69.6003	38.0859	69.5572	38.0859	69.6663	38.0859	69.6201	38.0859	69.7413	38.0859	69.6945	38.0859	69.8239	38.0859	69.7787	38.0859	69.9127	38.0859	69.8704	38.0859	70.0057	38.0859	69.9672	38.0859	70.1007	38.0859	70.0663	38.0859	70.1949	38.0859	70.1647	38.0859	70.2853	38.0859	70.2594	38.0859	70.3684	38.0859	70.3468	38.0859	70.4406	38.0859	70.4235	38.0859	70.4982	38.0859	70.4858	38.0859	70.538	38.0859	70.5305	38.0859	70.5573	38.0859	70.5547
39.5508	71.2335	39.5508	71.2388	39.5508	71.2421	39.5508	71.2581	39.5508	71.2645	39.5508	71.2911	39.5508	71.3002	39.5508	71.3374	39.5508	71.3489	39.5508	71.3963	39.5508	71.4098	39.5508	71.4666	39.5508	71.482	39.5508	71.547	39.5508	71.5642	39.5508	71.6357	39.5508	71.6548	39.5508	71.7306	39.5508	71.7517	39.5508	71.8292	39.5508	71.8521	39.5508	71.9288	39.5508	71.9531	39.5508	72.0263	39.5508	72.051	39.5508	72.1182	39.5508	72.1421	39.5508	72.201	39.5508	72.2227	39.5508	72.271	39.5508	72.289	39.5508	72.325	39.5508	72.3379	39.5508	72.3601	39.5508	72.3668	39.5508	72.3743
41.0156	73.1477	41.0156	73.1541	41.0156	73.153	41.0156	73.1722	41.0156	73.1698	41.0156	73.2018	41.0156	73.1978	41.0156	73.2425	41.0156	73.2366	41.0156	73.2936	41.0156	73.2854	41.0156	73.354	41.0156	73.3433	41.0156	73.4224	41.0156	73.4091	41.0156	73.4971	41.0156	73.4811	41.0156	73.5761	41.0156	73.5578	41.0156	73.6572	41.0156	73.6371	41.0156	73.7379	41.0156	73.7171	41.0156	73.8157	41.0156	73.7954	41.0156	73.888	41.0156	73.8694	41.0156	73.9521	41.0156	73.9362	41.0156	74.0052	41.0156	73.9928	41.0156	74.0447	41.0156	74.0362	41.0156	74.0685	41.0156	74.0642	41.0156	74.0751
42.4805	74.9583	42.4805	74.9596	42.4805	74.9653	42.4805	74.9693	42.4805	74.9804	42.4805	74.9874	42.4805	75.0032	42.4805	75.0134	42.4805	75.0333	42.4805	75.047	42.4805	75.0699	42.4805	75.0875	42.4805	75.1123	42.4805	75.134	42.4805	75.1594	42.4805	75.1857	42.4805	75.2102	42.4805	75.2412	42.4805	75.2635	42.4805	75.2991	42.4805	75.3182	42.4805	75.358	42.4805	75.373	42.4805	75.4159	42.4805	75.4266	42.4805	75.4707	42.4805	75.4773	42.4805	75.5201	42.4805	75.5234	42.4805	75.5617	42.4805	75.5627	42.4805	75.5931	42.4805	75.5929	42.4805	75.6125	42.4805	75.6122	42.4805	75.619
43.9453	76.9693	43.9453	76.9834	43.9453	76.9576	43.9453	76.9994	43.9453	76.9488	43.9453	77.0167	43.9453	76.9435	43.9453	77.035	43.9453	76.9418	43.9453	77.0539	43.9453	76.9441	43.9453	77.0727	43.9453	76.9501	43.9453	77.0912	43.9453	76.9594	43.9453	77.1087	43.9453	76.9713	43.9453	77.1247	43.9453	76.9851	43.9453	77.1387	43.9453	77	43.9453	77.1499	43.9453	77.0157	43.9453	77.158	43.9453	77.0318	43.9453	77.1627	43.9453	77.0485	43.9453	77.1639	43.9453	77.0657	43.9453	77.1615	43.9453	77.0834	43.9453	77.1556	43.9453	77.1012	43.9453	77.1462	43.9453	77.1182	43.9453	77.1335
45.4102	78.6326	45.4102	78.6415	45.4102	78.6251	45.4102	78.6517	45.4102	78.6193	45.4102	78.6629	45.4102	78.6155	45.4102	78.675	45.4102	78.6137	45.4102	78.6878	45.4102	78.6142	45.4102	78.7011	45.4102	78.617	45.4102	78.7147	45.4102	78.6223	45.4102	78.7284	45.4102	78.63	45.4102	78.7418	45.4102	78.6398	45.4102	78.7546	45.4102	78.6518	45.4102	78.7663	45.4102	78.6655	45.4102	78.7766	45.4102	78.6808	45.4102	78.7849	45.4102	78.6975	45.4102	78.7908	45.4102	78.7152	45.4102	78.7937	45.4102	78.7333	45.4102	78.793	45.4102	78.7508	45.4102	78.7883	45.4102	78.7665	45.4102	78.7793
46.875	80.0237	46.875	80.0316	46.875	80.0168	46.875	80.0403	46.875	80.0114	46.875	80.0497	46.875	80.0076	46.875	80.0596	46.875	80.0059	46.875	80.0699	46.875	80.0066	46.875	80.0807	46.875	80.0099	46.875	80.0917	46.875	80.0157	46.875	80.1029	46.875	80.024	46.875	80.1141	46.875	80.0345	46.875	80.125	46.875	80.0465	46.875	80.1353	46.875	80.0598	46.875	80.1445	46.875	80.0736	46.875	80.152	46.875	80.0878	46.875	80.1573	46.875	80.1019	46.875	80.1599	46.875	80.1156	46.875	80.1595	46.875	80.1285	46.875	80.1559	46.875	80.1399	46.875	80.1493
48.3398	81.1876	48.3398	81.194	48.3398	81.1822	48.3398	81.2011	48.3398	81.178	48.3398	81.209	48.3398	81.1751	48.3398	81.2174	48.3398	81.1739	48.3398	81.2261	48.3398	81.1744	48.3398	81.2351	48.3398	81.1767	48.3398	81.244	48.3398	81.1809	48.3398	81.2527	48.3398	81.1867	48.3398	81.2609	48.3398	81.1938	48.3398	81.2684	48.3398	81.202	48.3398	81.275	48.3398	81.2108	48.3398	81.2803	48.3398	81.2199	48.3398	81.2841	48.3398	81.2292	48.3398	81.2859	48.3398	81.2384	48.3398	81.2855	48.3398	81.2476	48.3398	81.283	48.3398	81.2564	48.3398	81.2785	48.3398	81.2648	48.3398	81.2723
51.2695	83.1515	51.2695	83.153	51.2695	83.15	51.2695	83.1547	51.2695	83.1485	51.2695	83.1567	51.2695	83.1469	51.2695	83.1591	51.2695	83.1454	51.2695	83.1621	51.2695	83.144	51.2695	83.1656	51.2695	83.143	51.2695	83.1694	51.2695	83.1425	51.2695	83.1734	51.2695	83.1426	51.2695	83.1773	51.2695	83.1434	51.2695	83.1808	51.2695	83.145	51.2695	83.1839	51.2695	83.1475	51.2695	83.1864	51.2695	83.1508	51.2695	83.1883	51.2695	83.1551	51.2695	83.1893	51.2695	83.1603	51.2695	83.1893	51.2695	83.1662	51.2695	83.1883	51.2695	83.1722	51.2695	83.186	51.2695	83.1778	51.2695	83.1825
52.7344	83.9015	52.7344	83.9061	52.7344	83.8942	52.7344	83.908	52.7344	83.8844	52.7344	83.9072	52.7344	83.8724	52.7344	83.9039	52.7344	83.8586	52.7344	83.8982	52.7344	83.8434	52.7344	83.8904	52.7344	83.8274	52.7344	83.8805	52.7344	83.8111	52.7344	83.8688	52.7344	83.7949	52.7344	83.8554	52.7344	83.7791	52.7344	83.8408	52.7344	83.7642	52.7344	83.8254	52.7344	83.7505	52.7344	83.8097	52.7344	83.7387	52.7344	83.7943	52.7344	83.7293	52.7344	83.7794	52.7344	83.7229	52.7344	83.7654	52.7344	83.72	52.7344	83.7525	52.7344	83.7207	52.7344	83.7412	52.7344	83.7247	52.7344	83.7317
54.1992	84.4298	54.1992	84.4402	54.1992	84.415	54.1992	84.446	54.1992	84.396	54.1992	84.447	54.1992	84.3734	54.1992	84.4432	54.1992	84.3476	54.1992	84.4344	54.1992	84.3191	54.1992	84.4205	54.1992	84.2886	54.1992	84.4017	54.1992	84.2566	54.1992	84.3779	54.1992	84.2239	54.1992	84.3497	54.1992	84.1913	54.1992	84.3178	54.1992	84.1598	54.1992	84.2834	54.1992	84.1304	54.1992	84.2477	54.1992	84.1045	54.1992	84.2122	54.1992	84.0833	54.1992	84.1781	54.1992	84.0681	54.1992	84.1466	54.1992	84.0595	54.1992	84.1186	54.1992	84.0582	54.1992	84.095	54.1992	84.064	54.1992	84.0765
55.6641	84.7706	55.6641	84.7743	55.6641	84.7612	55.6641	84.7723	55.6641	84.7465	55.6641	84.7646	55.6641	84.7265	55.6641	84.7514	55.6641	84.7016	55.6641	84.7327	55.6641	84.6721	55.6641	84.7091	55.6641	84.6385	55.6641	84.681	55.6641	84.6012	55.6641	84.6492	55.6641	84.5609	55.6641	84.6143	55.6641	84.5186	55.6641	84.5771	55.6641	84.4756	55.6641	84.5384	55.6641	84.4334	55.6641	84.4991	55.6641	84.3941	55.6641	84.4602	55.6641	84.3598	55.6641	84.4227	55.6641	84.3324	55.6641	84.3881	55.6641	84.3136	55.6641	84.3576	55.6641	84.3044	55.6641	84.3327	55.6641	84.305	55.6641	84.3147
58.5938	85.3175	58.5938	85.3106	58.5938	85.3212	58.5938	85.3005	58.5938	85.3213	58.5938	85.2878	58.5938	85.318	58.5938	85.2728	58.5938	85.3113	58.5938	85.256	58.5938	85.3014	58.5938	85.2379	58.5938	85.2884	58.5938	85.2189	58.5938	85.2726	58.5938	85.1994	58.5938	85.2542	58.5938	85.1796	58.5938	85.2335	58.5938	85.16	58.5938	85.2112	58.5938	85.1408	58.5938	85.1879	58.5938	85.1226	58.5938	85.1645	58.5938	85.1061	58.5938	85.1421	58.5938	85.0921	58.5938	85.1216	58.5938	85.0813	58.5938	85.104	58.5938	85.0743	58.5938	85.0898	58.5938	85.0716	58.5938	85.0795	58.5938	85.0734
60.0586	85.4881	60.0586	85.4821	60.0586	85.4896	60.0586	85.4719	60.0586	85.4866	60.0586	85.458	60.0586	85.4791	60.0586	85.4409	60.0586	85.4673	60.0586	85.4212	60.0586	85.4516	60.0586	85.3994	60.0586	85.4325	60.0586	85.3763	60.0586	85.4106	60.0586	85.3523	60.0586	85.3865	60.0586	85.3279	60.0586	85.3612	60.0586	85.3038	60.0586	85.3354	60.0586	85.2805	60.0586	85.31	60.0586	85.2589	60.0586	85.286	60.0586	85.2397	60.0586	85.2641	60.0586	85.2238	60.0586	85.245	60.0586	85.2118	60.0586	85.2291	60.0586	85.2042	60.0586	85.2166	60.0586	85.2011	60.0586	85.2076	60.0586	85.2023
62.9883	85.5695	62.9883	85.565	62.9883	85.568	62.9883	85.5546	62.9883	85.5604	62.9883	85.5387	62.9883	85.5469	62.9883	85.5177	62.9883	85.5278	62.9883	85.4923	62.9883	85.5037	62.9883	85.4631	62.9883	85.4751	62.9883	85.4307	62.9883	85.4426	62.9883	85.3958	62.9883	85.4072	62.9883	85.3593	62.9883	85.3695	62.9883	85.3219	62.9883	85.3307	62.9883	85.2846	62.9883	85.2918	62.9883	85.2486	62.9883	85.2543	62.9883	85.2152	62.9883	85.2197	62.9883	85.1858	62.9883	85.1891	62.9883	85.1614	62.9883	85.164	62.9883	85.1434	62.9883	85.1451	62.9883	85.1324	62.9883	85.1333	62.9883	85.129
64.4531	85.5446	64.4531	85.5398	64.4531	85.5437	64.4531	85.5293	64.4531	85.5371	64.4531	85.5135	64.4531	85.525	64.4531	85.4928	64.4531	85.5077	64.4531	85.4677	64.4531	85.4857	64.4531	85.4389	64.4531	85.4595	64.4531	85.4071	64.4531	85.4295	64.4531	85.373	64.4531	85.3964	64.4531	85.3374	64.4531	85.3609	64.4531	85.3011	64.4531	85.3236	64.4531	85.2652	64.4531	85.2858	64.4531	85.2309	64.4531	85.2488	64.4531	85.1993	64.4531	85.2141	64.4531	85.1718	64.4531	85.1833	64.4531	85.1494	64.4531	85.1577	64.4531	85.133	64.4531	85.1383	64.4531	85.1234	64.4531	85.126	64.4531	85.1209
67.3828	85.5097	67.3828	85.5041	67.3828	85.5106	67.3828	85.4941	67.3828	85.5068	67.3828	85.4798	67.3828	85.4984	67.3828	85.4615	67.3828	85.4856	67.3828	85.4396	67.3828	85.4687	67.3828	85.4147	67.3828	85.448	67.3828	85.3871	67.3828	85.4239	67.3828	85.3576	67.3828	85.3969	67.3828	85.3267	67.3828	85.3676	67.3828	85.2953	67.3828	85.3365	67.3828	85.2641	67.3828	85.3047	67.3828	85.2343	67.3828	85.273	67.3828	85.207	67.3828	85.2426	67.3828	85.1835	67.3828	85.2147	67.3828	85.1649	67.3828	85.1904	67.3828	85.1524	67.3828	85.1706	67.3828	85.1466	67.3828	85.1562	67.3828	85.148
68.8477	85.4548	68.8477	85.4507	68.8477	85.4546	68.8477	85.4424	68.8477	85.45	68.8477	85.4302	68.8477	85.441	68.8477	85.4145	68.8477	85.4279	68.8477	85.3957	68.8477	85.4109	68.8477	85.374	68.8477	85.3903	68.8477	85.35	68.8477	85.3668	68.8477	85.324	68.8477	85.3409	68.8477	85.2966	68.8477	85.3131	68.8477	85.2683	68.8477	85.2842	68.8477	85.2399	68.8477	85.255	68.8477	85.2122	68.8477	85.2264	68.8477	85.1863	68.8477	85.1994	68.8477	85.1635	68.8477	85.1752	68.8477	85.1448	68.8477	85.1547	68.8477	85.1313	68.8477	85.1386	68.8477	85.1238	68.8477	85.1278	68.8477	85.1227
71.7773	85.4005	71.7773	85.394	71.7773	85.4022	71.7773	85.3828	71.7773	85.3989	71.7773	85.3674	71.7773	85.3906	71.7773	85.3483	71.7773	85.3776	71.7773	85.3263	71.7773	85.3604	71.7773	85.3018	71.7773	85.3393	71.7773	85.2755	71.7773	85.315	71.7773	85.248	71.7773	85.2882	71.7773	85.2199	71.7773	85.2594	71.7773	85.1916	71.7773	85.2295	71.7773	85.1639	71.7773	85.199	71.7773	85.1374	71.7773	85.1689	71.7773	85.1131	71.7773	85.1401	71.7773	85.0918	71.7773	85.1137	71.7773	85.0745	71.7773	85.091	71.7773	85.0622	71.7773	85.0731	71.7773	85.0555	71.7773	85.0609	71.7773	85.055
74.707	85.3752	74.707	85.3666	74.707	85.378	74.707	85.3526	74.707	85.3749	74.707	85.3337	74.707	85.366	74.707	85.3104	74.707	85.3518	74.707	85.2838	74.707	85.3326	74.707	85.2545	74.707	85.3093	74.707	85.2234	74.707	85.2826	74.707	85.1915	74.707	85.2533	74.707	85.1596	74.707	85.2224	74.707	85.1285	74.707	85.1906	74.707	85.0991	74.707	85.1588	74.707	85.0721	74.707	85.1277	74.707	85.0486	74.707	85.0983	74.707	85.0292	74.707	85.0715	74.707	85.0148	74.707	85.048	74.707	85.006	74.707	85.0288	74.707	85.003	74.707	85.0146	74.707	85.0059
77.6367	85.3115	77.6367	85.3048	77.6367	85.3121	77.6367	85.2923	77.6367	85.3068	77.6367	85.2743	77.6367	85.2959	77.6367	85.2516	77.6367	85.2798	77.6367	85.225	77.6367	85.2593	77.6367	85.1953	77.6367	85.2352	77.6367	85.1636	77.6367	85.2081	77.6367	85.1306	77.6367	85.1787	77.6367	85.0975	77.6367	85.1479	77.6367	85.0649	77.6367	85.1161	77.6367	85.0336	77.6367	85.084	77.6367	85.0045	77.6367	85.0524	77.6367	84.9785	77.6367	85.022	77.6367	84.9565	77.6367	84.994	77.6367	84.9395	77.6367	84.9694	77.6367	84.9284	77.6367	84.9492	77.6367	84.9238	77.6367	84.9345	77.6367	84.9259
79.1016	85.2511	79.1016	85.2455	79.1016	85.2505	79.1016	85.234	79.1016	85.2438	79.1016	85.2171	79.1016	85.2315	79.1016	85.1954	79.1016	85.2141	79.1016	85.1698	79.1016	85.1923	79.1016	85.1414	79.1016	85.1671	79.1016	85.1111	79.1016	85.1393	79.1016	85.0798	79.1016	85.1096	79.1016	85.0484	79.1016	85.0789	79.1016	85.0177	79.1016	85.0478	79.1016	84.9883	79.1016	85.0171	79.1016	84.9609	79.1016	84.9873	79.1016	84.9362	79.1016	84.9593	79.1016	84.915	79.1016	84.9341	79.1016	84.898	79.1016	84.9125	79.1016	84.8859	79.1016	84.8957	79.1016	84.8794	79.1016	84.8843	79.1016	84.8789
82.0312	85.2181	82.0312	85.2138	82.0312	85.2149	82.0312	85.2022	82.0312	85.2039	82.0312	85.1837	82.0312	85.1857	82.0312	85.1592	82.0312	85.1608	82.0312	85.1296	82.0312	85.1299	82.0312	85.0959	82.0312	85.094	82.0312	85.0594	82.0312	85.0543	82.0312	85.0209	82.0312	85.0119	82.0312	84.9816	82.0312	84.9679	82.0312	84.9423	82.0312	84.9238	82.0312	84.9039	82.0312	84.8807	82.0312	84.8671	82.0312	84.8401	82.0312	84.8326	82.0312	84.8035	82.0312	84.8013	82.0312	84.7724	82.0312	84.774	82.0312	84.7482	82.0312	84.7516	82.0312	84.7322	82.0312	84.7352	82.0312	84.7247	82.0312	84.726
84.9609	85.1533	84.9609	85.1455	84.9609	85.1544	84.9609	85.1312	84.9609	85.1488	84.9609	85.1109	84.9609	85.1367	84.9609	85.0852	84.9609	85.1183	84.9609	85.0548	84.9609	85.0941	84.9609	85.0207	84.9609	85.0648	84.9609	84.9838	84.9609	85.0309	84.9609	84.9453	84.9609	84.9933	84.9609	84.9061	84.9609	84.9527	84.9609	84.8673	84.9609	84.9101	84.9609	84.8297	84.9609	84.8667	84.9609	84.7944	84.9609	84.8239	84.9609	84.762	84.9609	84.7835	84.9609	84.7334	84.9609	84.7473	84.9609	84.7095	84.9609	84.7172	84.9609	84.6914	84.9609	84.6949	84.9609	84.6801	84.9609	84.6812	84.9609	84.6764
87.8906	85.0254	87.8906	85.0197	87.8906	85.0239	87.8906	85.0068	87.8906	85.0156	87.8906	84.9874	87.8906	85.0014	87.8906	84.9623	87.8906	84.9824	87.8906	84.9328	87.8906	84.9602	87.8906	84.9004	87.8906	84.9361	87.8906	84.8665	87.8906	84.9114	87.8906	84.8328	87.8906	84.8871	87.8906	84.8005	87.8906	84.8638	87.8906	84.7707	87.8906	84.8415	87.8906	84.7444	87.8906	84.8203	87.8906	84.7224	87.8906	84.7999	87.8906	84.7054	87.8906	84.7803	87.8906	84.6938	87.8906	84.7614	87.8906	84.6879	87.8906	84.7436	87.8906	84.6875	87.8906	84.7272	87.8906	84.692	87.8906	84.7127	87.8906	84.7007
90.8203	84.9919	90.8203	84.9879	90.8203	84.9862	90.8203	84.9745	90.8203	84.9712	90.8203	84.9521	90.8203	84.9479	90.8203	84.9221	90.8203	84.9174	90.8203	84.8857	90.8203	84.8814	90.8203	84.8449	90.8203	84.8417	90.8203	84.8015	90.8203	84.8002	90.8203	84.7573	90.8203	84.7585	90.8203	84.7143	90.8203	84.718	90.8203	84.6739	90.8203	84.6798	90.8203	84.6372	90.8203	84.6445	90.8203	84.605	90.8203	84.6129	90.8203	84.5777	90.8203	84.5852	90.8203	84.5555	90.8203	84.5619	90.8203	84.5384	90.8203	84.5432	90.8203	84.5263	90.8203	84.5295	90.8203	84.5194	90.8203	84.5209	90.8203	84.5176
95.2148	84.9581	95.2148	84.9569	95.2148	84.947	95.2148	84.9436	95.2148	84.9239	95.2148	84.9189	95.2148	84.8901	95.2148	84.8843	95.2148	84.847	95.2148	84.8414	95.2148	84.7969	95.2148	84.7923	95.2148	84.742	95.2148	84.739	95.2148	84.6849	95.2148	84.6836	95.2148	84.6278	95.2148	84.6281	95.2148	84.5727	95.2148	84.5742	95.2148	84.5213	95.2148	84.5234	95.2148	84.4746	95.2148	84.477	95.2148	84.4337	95.2148	84.436	95.2148	84.399	95.2148	84.4012	95.2148	84.3711	95.2148	84.3729	95.2148	84.3501	95.2148	84.3515	95.2148	84.3362	95.2148	84.3371	95.2148	84.3294	95.2148	84.3297
98.1445	85.0809	98.1445	85.0876	98.1445	85.0599	98.1445	85.0803	98.1445	85.0247	98.1445	85.06	98.1445	84.9765	98.1445	85.0281	98.1445	84.9165	98.1445	84.9864	98.1445	84.8471	98.1445	84.9369	98.1445	84.7706	98.1445	84.8814	98.1445	84.69	98.1445	84.8218	98.1445	84.6083	98.1445	84.7596	98.1445	84.5285	98.1445	84.6961	98.1445	84.4536	98.1445	84.6321	98.1445	84.3863	98.1445	84.5686	98.1445	84.3291	98.1445	84.5065	98.1445	84.2839	98.1445	84.4468	98.1445	84.252	98.1445	84.391	98.1445	84.2343	98.1445	84.3407	98.1445	84.2308	98.1445	84.2976	98.1445	84.241	98.1445	84.2638
101.074	84.9447	101.074	84.9363	101.074	84.9376	101.074	84.9133	101.074	84.9151	101.074	84.8777	101.074	84.8778	101.074	84.8318	101.074	84.8274	101.074	84.7787	101.074	84.7662	101.074	84.722	101.074	84.6971	101.074	84.6649	101.074	84.6233	101.074	84.6106	101.074	84.5482	101.074	84.5611	101.074	84.4752	101.074	84.5174	101.074	84.4074	101.074	84.4792	101.074	84.3475	101.074	84.4453	101.074	84.2979	101.074	84.4137	101.074	84.2602	101.074	84.3826	101.074	84.2357	101.074	84.3509	101.074	84.2244	101.074	84.3189	101.074	84.2259	101.074	84.2878	101.074	84.2385	101.074	84.26
105.469	84.9037	105.469	84.8834	105.469	84.9087	105.469	84.8478	105.469	84.8988	105.469	84.7979	105.469	84.8746	105.469	84.7349	105.469	84.8374	105.469	84.6609	105.469	84.7888	105.469	84.5789	105.469	84.7305	105.469	84.4921	105.469	84.6645	105.469	84.4042	105.469	84.593	105.469	84.3191	105.469	84.5179	105.469	84.2401	105.469	84.4412	105.469	84.1701	105.469	84.365	105.469	84.1109	105.469	84.2914	105.469	84.0635	105.469	84.2224	105.469	84.0283	105.469	84.1602	105.469	84.0051	105.469	84.1064	105.469	83.9937	105.469	84.0622	105.469	83.9939	105.469	84.0284	105.469	84.0055
108.398	85.0651	108.398	85.0602	108.398	85.0541	108.398	85.0394	108.398	85.0278	108.398	85.0034	108.398	84.9872	108.398	84.9533	108.398	84.9337	108.398	84.8906	108.398	84.8694	108.398	84.8174	108.398	84.7964	108.398	84.7363	108.398	84.7172	108.398	84.6498	108.398	84.634	108.398	84.5609	108.398	84.5491	108.398	84.4727	108.398	84.4646	108.398	84.388	108.398	84.3827	108.398	84.3092	108.398	84.3053	108.398	84.2386	108.398	84.2348	108.398	84.1779	108.398	84.1735	108.398	84.1286	108.398	84.1238	108.398	84.0918	108.398	84.0875	108.398	84.0686	108.398	84.066	108.398	84.0598
112.793	85.0764	112.793	85.052	112.793	85.0875	112.793	85.016	112.793	85.0846	112.793	84.9704	112.793	85.0675	112.793	84.918	112.793	85.0371	112.793	84.8611	112.793	84.9949	112.793	84.8021	112.793	84.943	112.793	84.7429	112.793	84.8839	112.793	84.6849	112.793	84.8202	112.793	84.6291	112.793	84.7548	112.793	84.5763	112.793	84.69	112.793	84.5273	112.793	84.6279	112.793	84.4833	112.793	84.5702	112.793	84.4455	112.793	84.5183	112.793	84.415	112.793	84.4734	112.793	84.3926	112.793	84.4362	112.793	84.3786	112.793	84.4075	112.793	84.373	112.793	84.3874	112.793	84.3759
117.188	84.9937	117.188	84.969	117.188	85.0035	117.188	84.9304	117.188	84.9988	117.188	84.8798	117.188	84.9809	117.188	84.8203	117.188	84.9521	117.188	84.7554	117.188	84.9152	117.188	84.6896	117.188	84.8737	117.188	84.6269	117.188	84.8309	117.188	84.5712	117.188	84.7899	117.188	84.5256	117.188	84.753	117.188	84.4921	117.188	84.7215	117.188	84.4715	117.188	84.6953	117.188	84.4636	117.188	84.6735	117.188	84.4669	117.188	84.6544	117.188	84.4791	117.188	84.6365	117.188	84.4972	117.188	84.6188	117.188	84.5184	117.188	84.6006	117.188	84.5404	117.188	84.5817	117.188	84.5616
120.117	84.9387	120.117	84.9165	120.117	84.9438	120.117	84.878	120.117	84.9319	120.117	84.8253	120.117	84.9044	120.117	84.7616	120.117	84.8634	120.117	84.691	120.117	84.8118	120.117	84.6184	120.117	84.7534	120.117	84.5486	120.117	84.6925	120.117	84.4865	120.117	84.6334	120.117	84.4356	120.117	84.5805	120.117	84.3988	120.117	84.5371	120.117	84.3772	120.117	84.505	120.117	84.3704	120.117	84.4841	120.117	84.3764	120.117	84.4728	120.117	84.3917	120.117	84.4686	120.117	84.412	120.117	84.4683	120.117	84.4327	120.117	84.4689	120.117	84.45	120.117	84.4675	120.117	84.4616
124.512	84.6679	124.512	84.6784	124.512	84.6394	124.512	84.669	124.512	84.596	124.512	84.6398	124.512	84.5417	124.512	84.5923	124.512	84.4811	124.512	84.5301	124.512	84.4188	124.512	84.4577	124.512	84.3589	124.512	84.3811	124.512	84.3049	124.512	84.3063	124.512	84.2594	124.512	84.2391	124.512	84.224	124.512	84.1846	124.512	84.1997	124.512	84.1462	124.512	84.1866	124.512	84.1254	124.512	84.1833	124.512	84.1217	124.512	84.1876	124.512	84.1322	124.512	84.1965	124.512	84.1521	124.512	84.2065	124.512	84.1753	124.512	84.2141	124.512	84.1961	124.512	84.2161	124.512	84.2103
128.906	84.8328	128.906	84.8513	128.906	84.784	128.906	84.8392	128.906	84.707	128.906	84.7979	128.906	84.6057	128.906	84.7302	128.906	84.4861	128.906	84.6407	128.906	84.3557	128.906	84.5351	128.906	84.2233	128.906	84.4203	128.906	84.0978	128.906	84.3036	128.906	83.9875	128.906	84.1923	128.906	83.8984	128.906	84.0926	128.906	83.8339	128.906	84.0093	128.906	83.794	128.906	83.9451	128.906	83.776	128.906	83.9002	128.906	83.7751	128.906	83.8727	128.906	83.7858	128.906	83.8585	128.906	83.8023	128.906	83.8525	128.906	83.8196	128.906	83.8492	128.906	83.8341	128.906	83.8439
133.301	84.9928	133.301	84.986	133.301	84.9723	133.301	84.9535	133.301	84.9241	133.301	84.8979	133.301	84.8492	133.301	84.8225	133.301	84.7502	133.301	84.7318	133.301	84.6314	133.301	84.6303	133.301	84.499	133.301	84.5231	133.301	84.3605	133.301	84.4148	133.301	84.2241	133.301	84.3095	133.301	84.098	133.301	84.21	133.301	83.9889	133.301	84.1185	133.301	83.9012	133.301	84.0365	133.301	83.8361	133.301	83.9651	133.301	83.7922	133.301	83.9051	133.301	83.7663	133.301	83.8567	133.301	83.7544	133.301	83.8194	133.301	83.7528	133.301	83.7916	133.301	83.759	133.301	83.7719
139.16	84.9005	139.16	84.8658	139.16	84.913	139.16	84.8111	139.16	84.9024	139.16	84.7394	139.16	84.869	139.16	84.6547	139.16	84.8137	139.16	84.5619	139.16	84.7388	139.16	84.4666	139.16	84.6473	139.16	84.3745	139.16	84.5435	139.16	84.2907	139.16	84.4325	139.16	84.219	139.16	84.32	139.16	84.1608	139.16	84.2125	139.16	84.1153	139.16	84.1158	139.16	84.0797	139.16	84.0346	139.16	84.0504	139.16	83.9718	139.16	84.0238	139.16	83.9286	139.16	83.9977	139.16	83.9044	139.16	83.9711	139.16	83.8973	139.16	83.9449	139.16	83.9043	139.16	83.9214
143.555	84.4304	143.555	84.394	143.555	84.4447	143.555	84.3363	143.555	84.4381	143.555	84.2603	143.555	84.4141	143.555	84.1711	143.555	84.3775	143.555	84.0753	143.555	84.334	143.555	83.9808	143.555	84.2892	143.555	83.8959	143.555	84.2479	143.555	83.8285	143.555	84.2138	143.555	83.785	143.555	84.1885	143.555	83.7688	143.555	84.1725	143.555	83.78	143.555	84.1646	143.555	83.8147	143.555	84.1626	143.555	83.8665	143.555	84.164	143.555	83.9273	143.555	84.1659	143.555	83.9892	143.555	84.1656	143.555	84.0455	143.555	84.1606	143.555	84.0917	143.555	84.1482	143.555	84.1258
147.949	84.74	147.949	84.7242	147.949	84.7199	147.949	84.6739	147.949	84.6654	147.949	84.5928	147.949	84.5805	147.949	84.4865	147.949	84.472	147.949	84.3629	147.949	84.3488	147.949	84.231	147.949	84.2216	147.949	84.101	147.949	84.1019	147.949	83.9831	147.949	84	147.949	83.8868	147.949	83.924	147.949	83.8195	147.949	83.8784	147.949	83.7847	147.949	83.8631	147.949	83.7818	147.949	83.8739	147.949	83.8058	147.949	83.9031	147.949	83.8485	147.949	83.9414	147.949	83.9	147.949	83.9792	147.949	83.9504	147.949	84.0079	147.949	83.9911	147.949	84.0212	147.949	84.0157
153.809	84.964	153.809	84.956	153.809	84.9316	153.809	84.9095	153.809	84.8588	153.809	84.8278	153.809	84.7472	153.809	84.7156	153.809	84.6007	153.809	84.579	153.809	84.4253	153.809	84.4249	153.809	84.23	153.809	84.2613	153.809	84.0264	153.809	84.0961	153.809	83.828	153.809	83.9372	153.809	83.6491	153.809	83.7922	153.809	83.5023	153.809	83.6674	153.809	83.3963	153.809	83.5675	153.809	83.3334	153.809	83.4946	153.809	83.3092	153.809	83.4475	153.809	83.3141	153.809	83.422	153.809	83.3357	153.809	83.4109	153.809	83.3621	153.809	83.4058	153.809	83.3845	153.809	83.3988
159.668	84.9826	159.668	84.9525	159.668	84.9793	159.668	84.8904	159.668	84.9427	159.668	84.7992	159.668	84.8745	159.668	84.6839	159.668	84.7776	159.668	84.5508	159.668	84.656	159.668	84.4079	159.668	84.515	159.668	84.2637	159.668	84.3607	159.668	84.1264	159.668	84.1998	159.668	84.0031	159.668	84.0397	159.668	83.8984	159.668	83.8879	159.668	83.8143	159.668	83.752	159.668	83.7497	159.668	83.6395	159.668	83.7012	159.668	83.5561	159.668	83.6637	159.668	83.5044	159.668	83.6317	159.668	83.4828	159.668	83.6006	159.668	83.4859	159.668	83.5682	159.668	83.506	159.668	83.5354
165.527	85.0515	165.527	85.0374	165.527	85.0318	165.527	84.9892	165.527	84.9802	165.527	84.9084	165.527	84.9003	165.527	84.7987	165.527	84.7973	165.527	84.6656	165.527	84.6776	165.527	84.5166	165.527	84.5484	165.527	84.3608	165.527	84.4176	165.527	84.2084	165.527	84.2931	165.527	84.0697	165.527	84.1815	165.527	83.9542	165.527	84.0873	165.527	83.8688	165.527	84.0122	165.527	83.8165	165.527	83.9548	165.527	83.7952	165.527	83.9127	165.527	83.7974	165.527	83.8832	165.527	83.8126	165.527	83.8646	165.527	83.8302	165.527	83.855	165.527	83.8431	165.527	83.8515	165.527	83.8493
171.387	84.8977	171.387	84.8775	171.387	84.8801	171.387	84.821	171.387	84.8252	171.387	84.732	171.387	84.7361	171.387	84.6163	171.387	84.6185	171.387	84.4815	171.387	84.4798	171.387	84.3366	171.387	84.3297	171.387	84.1909	171.387	84.1784	171.387	84.0535	171.387	84.0369	171.387	83.9318	171.387	83.9147	171.387	83.8313	171.387	83.8188	171.387	83.7553	171.387	83.7522	171.387	83.7048	171.387	83.7128	171.387	83.6786	171.387	83.6952	171.387	83.6727	171.387	83.6922	171.387	83.6803	171.387	83.6972	171.387	83.6936	171.387	83.7047	171.387	83.7054	171.387	83.7105	171.387	83.7114
177.246	84.7342	177.246	84.7067	177.246	84.7244	177.246	84.6425	177.246	84.6785	177.246	84.5452	177.246	84.6004	177.246	84.4201	177.246	84.4958	177.246	84.2754	177.246	84.3724	177.246	84.1212	177.246	84.2387	177.246	83.9689	177.246	84.1034	177.246	83.83	177.246	83.975	177.246	83.7139	177.246	83.8615	177.246	83.6265	177.246	83.7695	177.246	83.5701	177.246	83.7036	177.246	83.5433	177.246	83.665	177.246	83.5424	177.246	83.6509	177.246	83.5616	177.246	83.6551	177.246	83.5935	177.246	83.6687	177.246	83.6295	177.246	83.6826	177.246	83.6612	177.246	83.6887	177.246	83.682
183.105	84.7658	183.105	84.7424	183.105	84.7442	183.105	84.6762	183.105	84.6785	183.105	84.572	183.105	84.5731	183.105	84.4363	183.105	84.4362	183.105	84.2779	183.105	84.2791	183.105	84.1071	183.105	84.1152	183.105	83.9356	183.105	83.9582	183.105	83.7756	183.105	83.8197	183.105	83.6383	183.105	83.7076	183.105	83.5319	183.105	83.6253	183.105	83.46	183.105	83.5717	183.105	83.4216	183.105	83.5425	183.105	83.4114	183.105	83.5311	183.105	83.4219	183.105	83.5304	183.105	83.4448	183.105	83.5333	183.105	83.4722	183.105	83.5345	183.105	83.4979	183.105	83.53	183.105	83.5179
188.965	84.6611	188.965	84.6576	188.965	84.6174	188.965	84.6087	188.965	84.5279	188.965	84.519	188.965	84.3968	188.965	84.396	188.965	84.2317	188.965	84.2494	188.965	84.0427	188.965	84.0901	188.965	83.8422	188.965	83.9295	188.965	83.6444	188.965	83.7778	188.965	83.4643	188.965	83.6429	188.965	83.3156	188.965	83.5297	188.965	83.2088	188.965	83.4397	188.965	83.1479	188.965	83.3717	188.965	83.1289	188.965	83.3235	188.965	83.1406	188.965	83.2917	188.965	83.1683	188.965	83.2728	188.965	83.1988	188.965	83.2625	188.965	83.2238	188.965	83.2565	188.965	83.2406	188.965	83.2505
196.289	84.4343	196.289	84.3887	196.289	84.4332	196.289	84.2988	196.289	84.3854	196.289	84.1694	196.289	84.2947	196.289	84.0084	196.289	84.1689	196.289	83.8268	196.289	84.0203	196.289	83.64	196.289	83.8652	196.289	83.4669	196.289	83.7211	196.289	83.3276	196.289	83.6032	196.289	83.2387	196.289	83.5213	196.289	83.2077	196.289	83.4787	196.289	83.2308	196.289	83.4737	196.289	83.2942	196.289	83.5008	196.289	83.38	196.289	83.5514	196.289	83.4719	196.289	83.6134	196.289	83.5581	196.289	83.6724	196.289	83.6317	196.289	83.7151	196.289	83.6882	196.289	83.733	196.289	83.7233
203.613	84.9196	203.613	84.8833	203.613	84.8954	203.613	84.7911	203.613	84.809	203.613	84.6498	203.613	84.6614	203.613	84.4684	203.613	84.4575	203.613	84.2574	203.613	84.2065	203.613	84.028	203.613	83.9234	203.613	83.793	203.613	83.6296	203.613	83.5662	203.613	83.3523	203.613	83.3634	203.613	83.1205	203.613	83.2011	203.613	82.9593	203.613	83.093	203.613	82.8826	203.613	83.0463	203.613	82.8893	203.613	83.0576	203.613	82.9626	203.613	83.1133	203.613	83.0752	203.613	83.1931	203.613	83.1956	203.613	83.2752	203.613	83.2957	203.613	83.3397	203.613	83.3566	203.613	83.3703
210.938	84.6485	210.938	84.5917	210.938	84.6481	210.938	84.4808	210.938	84.5915	210.938	84.3232	210.938	84.483	210.938	84.1297	210.938	84.3296	210.938	83.9131	210.938	84.1408	210.938	83.6866	210.938	83.9278	210.938	83.4626	210.938	83.7041	210.938	83.2516	210.938	83.4848	210.938	83.0628	210.938	83.2864	210.938	82.9041	210.938	83.1247	210.938	82.7822	210.938	83.0127	210.938	82.702	210.938	82.9564	210.938	82.6663	210.938	82.9506	210.938	82.6747	210.938	82.9785	210.938	82.7228	210.938	83.0152	210.938	82.8002	210.938	83.0352	210.938	82.8894	210.938	83.0213	210.938	82.9694
218.262	84.2908	218.262	84.2859	218.262	84.2461	218.262	84.2313	218.262	84.1559	218.262	84.1317	218.262	84.0258	218.262	83.998	218.262	83.863	218.262	83.8463	218.262	83.6763	218.262	83.6953	218.262	83.4773	218.262	83.5617	218.262	83.2811	218.262	83.4572	218.262	83.1046	218.262	83.3871	218.262	82.9647	218.262	83.3515	218.262	82.8744	218.262	83.3479	218.262	82.841	218.262	83.3708	218.262	82.8655	218.262	83.4117	218.262	82.941	218.262	83.4581	218.262	83.0525	218.262	83.4967	218.262	83.1794	218.262	83.516	218.262	83.3006	218.262	83.5084	218.262	83.4002	218.262	83.4702
225.586	84.508	225.586	84.4748	225.586	84.4706	225.586	84.3679	225.586	84.3688	225.586	84.1888	225.586	84.2108	225.586	83.9465	225.586	84.0071	225.586	83.6605	225.586	83.7719	225.586	83.3605	225.586	83.5247	225.586	83.0841	225.586	83.2903	225.586	82.8695	225.586	83.0947	225.586	82.7449	225.586	82.9584	225.586	82.7217	225.586	82.8905	225.586	82.7921	225.586	82.8882	225.586	82.9338	225.586	82.9434	225.586	83.1162	225.586	83.0471	225.586	83.3073	225.586	83.1881	225.586	83.4778	225.586	83.3477	225.586	83.6051	225.586	83.4995	225.586	83.6743	225.586	83.6164	225.586	83.6779
232.91	84.6307	232.91	84.613	232.91	84.5789	232.91	84.5219	232.91	84.4629	232.91	84.3558	232.91	84.2891	232.91	84.1174	232.91	84.0646	232.91	83.8168	232.91	83.7987	232.91	83.4733	232.91	83.5055	232.91	83.1175	232.91	83.2082	232.91	82.7895	232.91	82.9408	232.91	82.5324	232.91	82.7418	232.91	82.3832	232.91	82.6392	232.91	82.3613	232.91	82.6356	232.91	82.4614	232.91	82.7086	232.91	82.6527	232.91	82.8259	232.91	82.8855	232.91	82.9603	232.91	83.1059	232.91	83.0947	232.91	83.2706	232.91	83.2168	232.91	83.3577	232.91	83.3134	232.91	83.367
241.699	84.4557	241.699	84.441	241.699	84.4021	241.699	84.357	241.699	84.2843	241.699	84.2057	241.699	84.1082	241.699	83.9943	241.699	83.8819	241.699	83.7354	241.699	83.6148	241.699	83.4483	241.699	83.3181	241.699	83.1573	241.699	83.0064	241.699	82.89	241.699	82.7004	241.699	82.6728	241.699	82.4283	241.699	82.5257	241.699	82.2206	241.699	82.4582	241.699	82.0992	241.699	82.4683	241.699	82.0688	241.699	82.542	241.699	82.1183	241.699	82.6546	241.699	82.229	241.699	82.7717	241.699	82.3808	241.699	82.8563	241.699	82.5504	241.699	82.8788	241.699	82.7095	241.699	82.8271
250.488	84.4916	250.488	84.4428	250.488	84.4513	250.488	84.3086	250.488	84.3216	250.488	84.0951	250.488	84.1085	250.488	83.8114	250.488	83.8248	250.488	83.4714	250.488	83.4905	250.488	83.097	250.488	83.1302	250.488	82.72	250.488	82.7717	250.488	82.3808	250.488	82.4465	250.488	82.1226	250.488	82.1923	250.488	81.9799	250.488	82.0474	250.488	81.9678	250.488	82.0339	250.488	82.0767	250.488	82.1412	250.488	82.2763	250.488	82.3288	250.488	82.5234	250.488	82.5482	250.488	82.77	250.488	82.7612	250.488	82.9717	250.488	82.9426	250.488	83.0959	250.488	83.0716	250.488	83.1281
259.277	85.0257	259.277	84.9498	259.277	85.0163	259.277	84.7914	259.277	84.9184	259.277	84.5537	259.277	84.7311	259.277	84.2431	259.277	84.4588	259.277	83.8734	259.277	84.115	259.277	83.47	259.277	83.7238	259.277	83.0695	259.277	83.3198	259.277	82.7151	259.277	82.9441	259.277	82.4464	259.277	82.6374	259.277	82.2875	259.277	82.4313	259.277	82.2419	259.277	82.3396	259.277	82.2926	259.277	82.354	259.277	82.4096	259.277	82.4465	259.277	82.5587	259.277	82.5808	259.277	82.7083	259.277	82.7217	259.277	82.8337	259.277	82.8416	259.277	82.917	259.277	82.9207	259.277	82.9473
268.066	84.8679	268.066	84.7814	268.066	84.8691	268.066	84.6166	268.066	84.7785	268.066	84.3779	268.066	84.5936	268.066	84.0682	268.066	84.3182	268.066	83.6941	268.066	83.9631	268.066	83.2737	268.066	83.5457	268.066	82.8429	268.066	83.0926	268.066	82.4552	268.066	82.6445	268.066	82.1696	268.066	82.2596	268.066	82.0295	268.066	82.0039	268.066	82.0441	268.066	81.9221	268.066	82.1847	268.066	82.0088	268.066	82.3988	268.066	82.2098	268.066	82.63	268.066	82.4541	268.066	82.832	268.066	82.6849	268.066	82.9763	268.066	82.8694	268.066	83.0511	268.066	82.9945	268.066	83.056
276.855	85.0642	276.855	85.0096	276.855	85.036	276.855	84.8808	276.855	84.9166	276.855	84.6814	276.855	84.7026	276.855	84.4072	276.855	84.3975	276.855	84.0508	276.855	84.0103	276.855	83.6115	276.855	83.552	276.855	83.1089	276.855	83.0362	276.855	82.5913	276.855	82.4889	276.855	82.1313	276.855	81.9669	276.855	81.8007	276.855	81.5645	276.855	81.6386	276.855	81.3743	276.855	81.6387	276.855	81.4153	276.855	81.7631	276.855	81.6122	276.855	81.959	276.855	81.8579	276.855	82.1674	276.855	82.0802	276.855	82.3343	276.855	82.2533	276.855	82.4262	276.855	82.3736	276.855	82.4357
287.109	85.317	287.109	85.2082	287.109	85.2986	287.109	84.9818	287.109	85.1552	287.109	84.658	287.109	84.8995	287.109	84.2633	287.109	84.5544	287.109	83.8254	287.109	84.1516	287.109	83.3687	287.109	83.7257	287.109	82.916	287.109	83.3014	287.109	82.4944	287.109	82.8827	287.109	82.1389	287.109	82.4601	287.109	81.8832	287.109	82.0446	287.109	81.7403	287.109	81.7047	287.109	81.6946	287.109	81.5548	287.109	81.723	287.109	81.6642	287.109	81.8205	287.109	81.9736	287.109	81.995	287.109	82.3349	287.109	82.2351	287.109	82.6121	287.109	82.4889	287.109	82.7308	287.109	82.6777
297.363	85.1024	297.363	85.1242	297.363	84.9939	297.363	85.0493	297.363	84.8043	297.363	84.8695	297.363	84.531	297.363	84.5821	297.363	84.1667	297.363	84.1906	297.363	83.7125	297.363	83.7025	297.363	83.1958	297.363	83.1311	297.363	82.6773	297.363	82.508	297.363	82.2314	297.363	81.9066	297.363	81.9055	297.363	81.4518	297.363	81.7009	297.363	81.2699	297.363	81.602	297.363	81.3885	297.363	81.6118	297.363	81.7103	297.363	81.7486	297.363	82.1008	297.363	82.0072	297.363	82.4665	297.363	82.3376	297.363	82.7585	297.363	82.6598	297.363	82.9447	297.363	82.8963	297.363	82.996
307.617	85.3264	307.617	85.2393	307.617	85.309	307.617	85.0411	307.617	85.2025	307.617	84.7404	307.617	85.0203	307.617	84.3617	307.617	84.7643	307.617	83.94	307.617	84.4234	307.617	83.5102	307.617	83.9849	307.617	83.0952	307.617	83.4528	307.617	82.6989	307.617	82.8637	307.617	82.3137	307.617	82.287	307.617	81.947	307.617	81.8064	307.617	81.6467	307.617	81.4951	307.617	81.4949	307.617	81.4035	307.617	81.5483	307.617	81.5422	307.617	81.7796	307.617	81.8556	307.617	82.0939	307.617	82.2286	307.617	82.3953	307.617	82.5409	307.617	82.6227	307.617	82.7177	307.617	82.7397
319.336	85.0265	319.336	84.9686	319.336	84.9966	319.336	84.8189	319.336	84.8756	319.336	84.5657	319.336	84.6594	319.336	84.1952	319.336	84.3487	319.336	83.7017	319.336	83.9528	319.336	83.0995	319.336	83.4899	319.336	82.4319	319.336	82.991	319.336	81.775	319.336	82.5059	319.336	81.2287	319.336	82.1015	319.336	80.8918	319.336	81.8376	319.336	80.8269	319.336	81.7329	319.336	81.0309	319.336	81.7609	319.336	81.4316	319.336	81.8798	319.336	81.9154	319.336	82.0611	319.336	82.3683	319.336	82.2879	319.336	82.7042	319.336	82.5339	319.336	82.8779	319.336	82.7523	319.336	82.8843
329.59	85.1123	329.59	85.0398	329.59	85.1287	329.59	84.9208	329.59	85.0694	329.59	84.7471	329.59	84.9146	329.59	84.4956	329.59	84.65	329.59	84.1397	329.59	84.2665	329.59	83.665	329.59	83.7586	329.59	83.0807	329.59	83.1306	329.59	82.4264	329.59	82.4157	329.59	81.7729	329.59	81.7004	329.59	81.2194	329.59	81.1303	329.59	80.8825	329.59	80.8557	329.59	80.854	329.59	80.9269	329.59	81.1312	329.59	81.2533	329.59	81.5923	329.59	81.6791	329.59	82.0676	329.59	82.0776	329.59	82.4298	329.59	82.385	329.59	82.6284	329.59	82.5841	329.59	82.6708
341.309	85.2023	341.309	85.1772	341.309	85.1091	341.309	85.0298	341.309	84.9097	341.309	84.7659	341.309	84.6205	341.309	84.3999	341.309	84.2606	341.309	83.9517	341.309	83.8494	341.309	83.4436	341.309	83.4036	341.309	82.9007	341.309	82.9374	341.309	82.3497	341.309	82.4687	341.309	81.8184	341.309	82.0283	341.309	81.3434	341.309	81.6653	341.309	80.9894	341.309	81.4395	341.309	80.8484	341.309	81.3976	341.309	80.9792	341.309	81.5391	341.309	81.3295	341.309	81.8024	341.309	81.7563	341.309	82.0919	341.309	82.1245	341.309	82.3251	341.309	82.3669	341.309	82.4575	341.309	82.4744
353.027	85.3412	353.027	85.3183	353.027	85.2717	353.027	85.1995	353.027	85.0999	353.027	84.9659	353.027	84.8133	353.027	84.5929	353.027	84.4069	353.027	84.0647	353.027	83.8848	353.027	83.3905	353.027	83.2564	353.027	82.6172	353.027	82.5362	353.027	81.8336	353.027	81.7631	353.027	81.151	353.027	81.0289	353.027	80.6568	353.027	80.4777	353.027	80.3841	353.027	80.237	353.027	80.3453	353.027	80.3384	353.027	80.5688	353.027	80.7165	353.027	81.0477	353.027	81.2563	353.027	81.663	353.027	81.8267	353.027	82.2281	353.027	82.31	353.027	82.6024	353.027	82.6272	353.027	82.7337
366.211	85.5092	366.211	85.315	366.211	85.5582	366.211	85.0036	366.211	85.4478	366.211	84.6151	366.211	85.1729	366.211	84.1864	366.211	84.7354	366.211	83.7292	366.211	84.1484	366.211	83.2221	366.211	83.4389	366.211	82.6315	366.211	82.6362	366.211	81.9636	366.211	81.7582	366.211	81.3205	366.211	80.8336	366.211	80.8966	366.211	79.9863	366.211	80.8268	366.211	79.4823	366.211	81.0237	366.211	79.5275	366.211	81.2754	366.211	79.9882	366.211	81.4513	366.211	80.5534	366.211	81.5479	366.211	81.0283	366.211	81.609	366.211	81.362	366.211	81.651	366.211	81.5624	366.211	81.6487
379.395	85.7533	379.395	85.7089	379.395	85.7481	379.395	85.6038	379.395	85.6816	379.395	85.4092	379.395	85.526	379.395	85.0922	379.395	85.2499	379.395	84.6292	379.395	84.8318	379.395	84.0115	379.395	84.271	379.395	83.2396	379.395	83.5929	379.395	82.3214	379.395	82.8424	379.395	81.2989	379.395	82.0661	379.395	80.3159	379.395	81.3098	379.395	79.6439	379.395	80.6613	379.395	79.5048	379.395	80.2962	379.395	79.8428	379.395	80.3803	379.395	80.4346	379.395	80.8599	379.395	81.1017	379.395	81.4844	379.395	81.7224	379.395	82.0235	379.395	82.1876	379.395	82.3512	379.395	82.4101
392.578	85.5772	392.578	85.5697	392.578	85.4977	392.578	85.4756	392.578	85.3323	392.578	85.2911	392.578	85.0833	392.578	85.0035	392.578	84.749	392.578	84.5953	392.578	84.3212	392.578	84.0524	392.578	83.7908	392.578	83.3701	392.578	83.159	392.578	82.5605	392.578	82.4428	392.578	81.6731	392.578	81.6771	392.578	80.8297	392.578	80.929	392.578	80.2305	392.578	80.3324	392.578	80.0564	392.578	80.0857	392.578	80.3189	392.578	80.3196	392.578	80.8671	392.578	80.9394	392.578	81.5222	392.578	81.6916	392.578	82.1412	392.578	82.3406	392.578	82.6082	392.578	82.7402	392.578	82.8277
405.762	85.4185	405.762	85.3496	405.762	85.4067	405.762	85.1944	405.762	85.321	405.762	84.9487	405.762	85.1588	405.762	84.6072	405.762	84.8961	405.762	84.1634	405.762	84.4868	405.762	83.6125	405.762	83.8833	405.762	82.944	405.762	83.0725	405.762	82.1306	405.762	82.11	405.762	81.153	405.762	81.1304	405.762	80.0979	405.762	80.3037	405.762	79.2878	405.762	79.753	405.762	79.1369	405.762	79.5346	405.762	79.6263	405.762	79.6818	405.762	80.3401	405.762	80.1748	405.762	80.9915	405.762	80.8669	405.762	81.5163	405.762	81.5274	405.762	81.9005	405.762	81.9606	405.762	82.0774
420.41	85.7427	420.41	85.7375	420.41	85.6455	420.41	85.613	420.41	85.4592	420.41	85.3571	420.41	85.1898	420.41	84.9651	420.41	84.8363	420.41	84.4364	420.41	84.3911	420.41	83.7749	420.41	83.833	420.41	82.9956	420.41	83.1267	420.41	82.1226	420.41	82.2406	420.41	81.175	420.41	81.1852	420.41	80.1863	420.41	80.0701	420.41	79.3249	420.41	79.1589	420.41	78.9917	420.41	78.79	420.41	79.4594	420.41	79.0631	420.41	80.3968	420.41	79.7155	420.41	81.2667	420.41	80.4287	420.41	81.7921	420.41	81.0386	420.41	81.9471	420.41	81.5048	420.41	81.8209
435.059	84.9668	435.059	84.9115	435.059	84.9686	435.059	84.8139	435.059	84.902	435.059	84.6707	435.059	84.755	435.059	84.4555	435.059	84.5166	435.059	84.1204	435.059	84.1717	435.059	83.6147	435.059	83.6964	435.059	82.9203	435.059	83.0619	435.059	82.0829	435.059	82.2538	435.059	81.2059	435.059	81.3109	435.059	80.3903	435.059	80.3648	435.059	79.6973	435.059	79.6248	435.059	79.2348	435.059	79.2713	435.059	79.2308	435.059	79.3489	435.059	79.7826	435.059	79.7715	435.059	80.6061	435.059	80.3811	435.059	81.3139	435.059	81.0029	435.059	81.7053	435.059	81.4926	435.059	81.7503
451.172	85.0158	451.172	84.9049	451.172	85.0382	451.172	84.7252	451.172	84.9523	451.172	84.4882	451.172	84.7435	451.172	84.1914	451.172	84.4029	451.172	83.813	451.172	83.9262	451.172	83.3073	451.172	83.3141	451.172	82.6041	451.172	82.5625	451.172	81.6287	451.172	81.638	451.172	80.3536	451.172	80.4665	451.172	78.9071	451.172	79.0043	451.172	77.7315	451.172	77.5019	451.172	77.4695	451.172	76.8608	451.172	78.2178	451.172	77.7213	451.172	79.3992	451.172	79.2282	451.172	80.5094	451.172	80.5206	451.172	81.3365	451.172	81.3823	451.172	81.8297	451.172	81.8542	451.172	81.9976
465.82	84.9233	465.82	84.8981	465.82	84.8787	465.82	84.7882	465.82	84.767	465.82	84.5739	465.82	84.5804	465.82	84.2413	465.82	84.3077	465.82	83.7864	465.82	83.932	465.82	83.2093	465.82	83.4268	465.82	82.5033	465.82	82.7692	465.82	81.6441	465.82	81.9642	465.82	80.6	465.82	81.0399	465.82	79.3803	465.82	80.0027	465.82	78.1276	465.82	78.8428	465.82	77.2222	465.82	77.7483	465.82	77.1503	465.82	77.3588	465.82	77.9321	465.82	78.0634	465.82	79.0341	465.82	79.2117	465.82	79.9768	465.82	80.1339	465.82	80.5677	465.82	80.6501	465.82	80.787
483.398	84.6397	483.398	84.5695	483.398	84.6388	483.398	84.4484	483.398	84.5499	483.398	84.2853	483.398	84.3666	483.398	84.067	483.398	84.0926	483.398	83.7605	483.398	83.7358	483.398	83.3208	483.398	83.2895	483.398	82.6925	483.398	82.7081	483.398	81.8058	483.398	81.9084	483.398	80.5889	483.398	80.8191	483.398	79.0361	483.398	79.4666	483.398	77.4077	483.398	78.0708	483.398	76.4874	483.398	77.0865	483.398	76.9055	483.398	76.9869	483.398	78.0612	483.398	77.7762	483.398	79.1861	483.398	78.9523	483.398	80.0413	483.398	80.0014	483.398	80.6048	483.398	80.6512	483.398	80.8354
499.512	84.0432	499.512	83.9597	499.512	84.0101	499.512	83.8055	499.512	83.8581	499.512	83.6268	499.512	83.6351	499.512	83.4341	499.512	83.3915	499.512	83.1976	499.512	83.121	499.512	82.8592	499.512	82.7584	499.512	82.3494	499.512	82.2305	499.512	81.6154	499.512	81.4926	499.512	80.6456	499.512	80.5201	499.512	79.4536	499.512	79.3033	499.512	78.0557	499.512	77.9274	499.512	76.6462	499.512	76.7565	499.512	76.0487	499.512	76.3962	499.512	76.9973	499.512	76.9991	499.512	78.596	499.512	78.059	499.512	79.8272	499.512	79.1025	499.512	80.4058	499.512	79.9139	499.512	80.3878
517.09	84.1192	517.09	84.1218	517.09	84.0355	517.09	83.9967	517.09	83.9169	517.09	83.7335	517.09	83.7657	517.09	83.3587	517.09	83.5415	517.09	82.9075	517.09	83.2112	517.09	82.3927	517.09	82.7805	517.09	81.7811	517.09	82.2536	517.09	80.9919	517.09	81.5667	517.09	79.932	517.09	80.5978	517.09	78.5758	517.09	79.2693	517.09	77.0927	517.09	77.682	517.09	76.0174	517.09	76.2988	517.09	76.0775	517.09	75.9977	517.09	77.2334	517.09	77.0699	517.09	78.6643	517.09	78.6079	517.09	79.7878	517.09	79.8225	517.09	80.4499	517.09	80.4965	517.09	80.6819
536.133	83.5314	536.133	83.4677	536.133	83.4227	536.133	83.254	536.133	83.1432	536.133	82.9294	536.133	82.735	536.133	82.5401	536.133	82.2795	536.133	82.1185	536.133	81.8472	536.133	81.6636	536.133	81.4338	536.133	81.1315	536.133	80.9547	536.133	80.4386	536.133	80.292	536.133	79.4728	536.133	79.3449	536.133	78.1406	536.133	78.0951	536.133	76.5143	536.133	76.7221	536.133	75.1303	536.133	75.7269	536.133	74.946	536.133	75.6858	536.133	76.1137	536.133	76.5484	536.133	77.7624	536.133	77.7467	536.133	79.1567	536.133	78.8553	536.133	79.9579	536.133	79.6836	536.133	80.1005
555.176	84.4727	555.176	84.366	555.176	84.4685	555.176	84.1551	555.176	84.3467	555.176	83.8454	555.176	84.1067	555.176	83.4425	555.176	83.7376	555.176	82.9351	555.176	83.1985	555.176	82.2842	555.176	82.4525	555.176	81.4509	555.176	81.5374	555.176	80.4054	555.176	80.5364	555.176	79.0686	555.176	79.3865	555.176	77.2758	555.176	77.7853	555.176	74.9225	555.176	75.3689	555.176	72.556	555.176	72.2439	555.176	72.1744	555.176	70.9459	555.176	74.1415	555.176	73.3645	555.176	76.446	555.176	76.1275	555.176	78.2093	555.176	78.0631	555.176	79.2544	555.176	79.183	555.176	79.5725
574.219	84.8132	574.219	84.6997	574.219	84.7928	574.219	84.5159	574.219	84.6173	574.219	84.2828	574.219	84.3243	574.219	83.9605	574.219	83.9722	574.219	83.5482	574.219	83.6156	574.219	83.1152	574.219	83.2585	574.219	82.6528	574.219	82.8017	574.219	81.9708	574.219	82.1204	574.219	80.8302	574.219	81.1754	574.219	79.0755	574.219	79.9239	574.219	76.5291	574.219	78.1226	574.219	72.9848	574.219	75.5223	574.219	70.8563	574.219	73.1742	574.219	73.7598	574.219	73.8826	574.219	76.6355	574.219	76.195	574.219	78.3202	574.219	78.091	574.219	79.2403	574.219	79.2245	574.219	79.5736
594.727	85.2415	594.727	85.2124	594.727	85.1094	594.727	84.9832	594.727	84.9066	594.727	84.6383	594.727	84.6937	594.727	84.3307	594.727	84.4793	594.727	84.1067	594.727	84.2382	594.727	83.8463	594.727	83.9565	594.727	83.4322	594.727	83.6448	594.727	82.8609	594.727	83.231	594.727	82.1317	594.727	82.4834	594.727	81.1203	594.727	81.1312	594.727	79.6074	594.727	79.0071	594.727	77.3283	594.727	76.1247	594.727	74.2291	594.727	73.3254	594.727	72.5986	594.727	73.3229	594.727	74.8097	594.727	75.5228	594.727	77.1277	594.727	77.4367	594.727	78.4342	594.727	78.5603	594.727	78.8889
615.234	85.8643	615.234	85.7536	615.234	85.8225	615.234	85.5043	615.234	85.6053	615.234	85.1247	615.234	85.2046	615.234	84.6288	615.234	84.6913	615.234	84.0781	615.234	84.2247	615.234	83.5974	615.234	83.8884	615.234	83.2466	615.234	83.5397	615.234	82.8702	615.234	82.9804	615.234	82.1819	615.234	82.1877	615.234	80.9458	615.234	81.2082	615.234	79.0148	615.234	79.8606	615.234	76.2745	615.234	77.8067	615.234	72.9458	615.234	75.2576	615.234	71.5779	615.234	74.2962	615.234	74.1528	615.234	75.9212	615.234	77.063	615.234	77.8963	615.234	78.9028	615.234	79.2057	615.234	79.5865
637.207	86.9409	637.207	86.8624	637.207	86.8513	637.207	86.6306	637.207	86.622	637.207	86.2838	637.207	86.3258	637.207	85.8703	637.207	86.0257	637.207	85.4516	637.207	85.7067	637.207	85.0795	637.207	85.3326	637.207	84.7357	637.207	84.9551	637.207	84.338	637.207	84.6114	637.207	83.7704	637.207	84.1177	637.207	82.818	637.207	83.1495	637.207	81.132	637.207	81.4566	637.207	78.3378	637.207	78.8593	637.207	74.5352	637.207	75.23	637.207	73.2247	637.207	72.3725	637.207	76.2244	637.207	74.4472	637.207	78.8799	637.207	77.5168	637.207	80.2809	637.207	79.553	637.207	80.4844
659.18	87.812	659.18	87.6108	659.18	87.7938	659.18	87.2505	659.18	87.4907	659.18	86.7544	659.18	86.9463	659.18	86.2038	659.18	86.3199	659.18	85.7501	659.18	85.7887	659.18	85.4906	659.18	85.4889	659.18	85.3699	659.18	85.4643	659.18	85.1987	659.18	85.545	659.18	84.8174	659.18	85.4048	659.18	84.1918	659.18	84.8002	659.18	83.2467	659.18	83.6078	659.18	81.6642	659.18	81.628	659.18	78.8852	659.18	78.5267	659.18	74.7697	659.18	74.8724	659.18	74.0297	659.18	74.9132	659.18	77.0675	659.18	77.4579	659.18	78.9665	659.18	79.1194	659.18	79.6032
682.617	86.8862	682.617	86.6996	682.617	86.6975	682.617	86.1813	682.617	86.2279	682.617	85.4975	682.617	85.5776	682.617	84.7735	682.617	84.7976	682.617	84.0539	682.617	83.9933	682.617	83.4235	682.617	83.3516	682.617	83.0543	682.617	83.0179	682.617	83.0948	682.617	83.0146	682.617	83.3588	682.617	83.1666	682.617	83.3453	682.617	83.1294	682.617	82.6818	682.617	82.5908	682.617	81.2408	682.617	81.2763	682.617	78.9349	682.617	78.8746	682.617	75.9465	682.617	75.8276	682.617	74.3412	682.617	75.5502	682.617	75.7464	682.617	77.632	682.617	77.5993	682.617	78.8145	682.617	78.7196
707.52	85.774	707.52	85.6502	707.52	85.7002	707.52	85.2754	707.52	85.4554	707.52	84.6256	707.52	84.9677	707.52	83.7128	707.52	84.0909	707.52	82.6029	707.52	82.7991	707.52	81.5158	707.52	81.4458	707.52	80.7586	707.52	80.6441	707.52	80.3623	707.52	80.4429	707.52	80.1787	707.52	80.302	707.52	80.0563	707.52	79.923	707.52	79.5852	707.52	79.4002	707.52	78.4091	707.52	78.7353	707.52	76.8189	707.52	77.6746	707.52	75.8925	707.52	76.2097	707.52	76.4226	707.52	75.371	707.52	77.7098	707.52	76.5396	707.52	78.6681	707.52	78.1551	707.52	78.8766
732.422	85.2322	732.422	85.2	732.422	85.133	732.422	84.937	732.422	84.8484	732.422	84.3211	732.422	84.3149	732.422	83.4313	732.422	83.5833	732.422	82.4682	732.422	82.6971	732.422	81.4242	732.422	81.6393	732.422	80.2559	732.422	80.5556	732.422	79.3233	732.422	79.7913	732.422	78.7781	732.422	79.3827	732.422	78.1368	732.422	78.8596	732.422	77.1697	732.422	77.8821	732.422	75.8049	732.422	76.4667	732.422	73.7806	732.422	74.653	732.422	72.1507	732.422	73.2268	732.422	72.8901	732.422	73.5393	732.422	74.8486	732.422	74.674	732.422	76.4234	732.422	75.9459	732.422	76.7908
757.324	84.6225	757.324	84.5681	757.324	84.4572	757.324	84.2798	757.324	84.1178	757.324	83.8042	757.324	83.5747	757.324	83.16	757.324	82.7863	757.324	82.306	757.324	81.8781	757.324	81.2991	757.324	81.031	757.324	80.3822	757.324	80.208	757.324	79.8066	757.324	79.3567	757.324	79.4868	757.324	78.7839	757.324	78.9979	757.324	78.5663	757.324	78.0146	757.324	78.0086	757.324	76.4309	757.324	76.4476	757.324	74.2857	757.324	73.5893	757.324	72.3649	757.324	70.5351	757.324	72.5254	757.324	72.1755	757.324	74.0378	757.324	74.8839	757.324	75.2415	757.324	75.9141	757.324	75.8601
785.156	83.6929	785.156	83.5465	785.156	83.605	785.156	83.1767	785.156	83.3145	785.156	82.5521	785.156	82.7968	785.156	81.5615	785.156	81.9923	785.156	80.3663	785.156	80.9119	785.156	79.4448	785.156	79.5801	785.156	78.6578	785.156	78.2095	785.156	77.3994	785.156	77.3344	785.156	76.0494	785.156	76.7614	785.156	75.693	785.156	75.6434	785.156	76.0042	785.156	74.363	785.156	75.681	785.156	73.6393	785.156	73.9181	785.156	72.3908	785.156	71.8377	785.156	70.3512	785.156	73.422	785.156	71.5644	785.156	74.6431	785.156	74.9809	785.156	74.6043	785.156	76.3086	785.156	75.4413
811.523	83.541	811.523	83.5911	811.523	83.1945	811.523	83.1464	811.523	82.8111	811.523	82.2916	811.523	82.3985	811.523	81.2853	811.523	81.6612	811.523	80.2217	811.523	80.438	811.523	79.0554	811.523	79.0547	811.523	77.9259	811.523	78.2239	811.523	76.8518	811.523	77.8907	811.523	75.9716	811.523	77.3467	811.523	75.5101	811.523	76.5923	811.523	74.5897	811.523	75.7788	811.523	73.0372	811.523	74.6709	811.523	71.6333	811.523	72.84	811.523	69.9499	811.523	69.9472	811.523	69.735	811.523	69.3108	811.523	72.2203	811.523	71.6369	811.523	74.1748	811.523	73.4059	811.523	74.4243
840.82	83.8766	840.82	83.3493	840.82	84.0154	840.82	82.8954	840.82	83.4905	840.82	82.5032	840.82	82.5729	840.82	81.7258	840.82	81.7667	840.82	80.4846	840.82	81.0525	840.82	79.341	840.82	79.867	840.82	78.6778	840.82	78.1373	840.82	78.1002	840.82	76.9475	840.82	76.9758	840.82	76.5745	840.82	75.4293	840.82	75.7385	840.82	74.7269	840.82	74.4297	840.82	74.0041	840.82	73.3358	840.82	71.4826	840.82	72.3331	840.82	69.5638	840.82	72.1755	840.82	71.5017	840.82	73.2914	840.82	73.3689	840.82	75.0567	840.82	75.0492	840.82	76.2538	840.82	76.2538
870.117	84.264	870.117	84.364	870.117	84.0258	870.117	84.0878	870.117	83.8225	870.117	83.5112	870.117	83.3861	870.117	82.826	870.117	82.4948	870.117	82.0414	870.117	81.6131	870.117	81.1554	870.117	81.1578	870.117	80.0873	870.117	80.476	870.117	78.917	870.117	79.1163	870.117	78.0913	870.117	78.0561	870.117	77.371	870.117	77.7702	870.117	75.9321	870.117	76.6375	870.117	73.4347	870.117	74.2209	870.117	70.4044	870.117	71.5955	870.117	66.9984	870.117	68.2497	870.117	65.1539	870.117	65.0829	870.117	70.452	870.117	70.8762	870.117	72.4469	870.117	73.202	870.117	72.8916
900.879	85.1479	900.879	84.7723	900.879	85.1283	900.879	84.3009	900.879	84.6389	900.879	83.7368	900.879	83.9216	900.879	82.7775	900.879	83.1181	900.879	81.2398	900.879	81.9053	900.879	79.2373	900.879	80.0577	900.879	77.6384	900.879	78.4969	900.879	76.8946	900.879	77.889	900.879	76.2393	900.879	77.1776	900.879	76.0206	900.879	76.2953	900.879	76.1197	900.879	75.1115	900.879	74.7511	900.879	72.8166	900.879	71.51	900.879	70.336	900.879	67.859	900.879	69.5821	900.879	69.8475	900.879	70.2508	900.879	72.6519	900.879	72.469	900.879	74.6026	900.879	75.3667	900.879	76.0238
933.105	85.4717	933.105	85.5425	933.105	85.1676	933.105	85.2159	933.105	84.7871	933.105	84.6014	933.105	84.2336	933.105	83.852	933.105	83.2855	933.105	83.0953	933.105	82.0912	933.105	82.4466	933.105	81.1067	933.105	81.6027	933.105	80.1485	933.105	80.4914	933.105	79.179	933.105	79.704	933.105	78.8951	933.105	78.9284	933.105	78.7016	933.105	77.5381	933.105	78.1956	933.105	76.0841	933.105	77.0325	933.105	73.5459	933.105	74.251	933.105	68.16	933.105	68.0154	933.105	67.6313	933.105	66.657	933.105	72.6023	933.105	73.3856	933.105	75.991	933.105	75.7196	933.105	76.7853
965.332	85.9935	965.332	85.8393	965.332	85.9336	965.332	85.5896	965.332	85.591	965.332	85.0314	965.332	85.0808	965.332	84.0255	965.332	84.2218	965.332	82.801	965.332	82.8073	965.332	81.7209	965.332	81.1237	965.332	80.4915	965.332	79.7341	965.332	79.0749	965.332	78.5866	965.332	78.2212	965.332	77.9605	965.332	78.1825	965.332	77.9811	965.332	77.8434	965.332	77.5301	965.332	76.1687	965.332	76.363	965.332	73.7172	965.332	73.6272	965.332	70.1981	965.332	70.1571	965.332	66.7506	965.332	68.1763	965.332	71.2894	965.332	71.051	965.332	73.2699	965.332	74.5269	965.332	74.248
1,000.49	86.4913	1,000.49	86.456	1,000.49	86.0028	1,000.49	85.8735	1,000.49	85.3305	1,000.49	85.1218	1,000.49	84.5775	1,000.49	84.2549	1,000.49	83.6939	1,000.49	82.8042	1,000.49	82.5457	1,000.49	80.7122	1,000.49	80.702	1,000.49	79.4816	1,000.49	78.1072	1,000.49	79.1622	1,000.49	76.9869	1,000.49	79.2237	1,000.49	77.6565	1,000.49	79.481	1,000.49	78.2293	1,000.49	78.67	1,000.49	78.283	1,000.49	76.9225	1,000.49	77.449	1,000.49	74.8398	1,000.49	75.3433	1,000.49	71.0102	1,000.49	70.27	1,000.49	66.9836	1,000.49	68.1053	1,000.49	72.3912	1,000.49	73.0165	1,000.49	76.3922	1,000.49	76.6717	1,000.49	78.0684
1,035.64	86.0195	1,035.64	85.908	1,035.64	86.0606	1,035.64	85.6962	1,035.64	85.5664	1,035.64	85.1296	1,035.64	84.6612	1,035.64	84.1044	1,035.64	83.8885	1,035.64	82.7772	1,035.64	83.1193	1,035.64	81.4722	1,035.64	82.019	1,035.64	79.6189	1,035.64	80.3194	1,035.64	77.2267	1,035.64	77.5687	1,035.64	75.5128	1,035.64	75.3776	1,035.64	76.2303	1,035.64	76.2614	1,035.64	77.5581	1,035.64	77.0508	1,035.64	77.9468	1,035.64	76.9721	1,035.64	76.8462	1,035.64	76.0334	1,035.64	72.7912	1,035.64	73.022	1,035.64	65.9604	1,035.64	62.8381	1,035.64	65.5638	1,035.64	66.5299	1,035.64	72.1548	1,035.64	70.8085	1,035.64	72.6556
1,072.27	86.296	1,072.27	86.2279	1,072.27	86.0589	1,072.27	85.8416	1,072.27	85.6513	1,072.27	85.1773	1,072.27	85.2479	1,072.27	84.3209	1,072.27	84.531	1,072.27	82.9562	1,072.27	83.1505	1,072.27	80.8863	1,072.27	81.4147	1,072.27	78.946	1,072.27	79.5642	1,072.27	77.7903	1,072.27	77.1488	1,072.27	76.6078	1,072.27	74.4823	1,072.27	76.5866	1,072.27	74.1484	1,072.27	77.7666	1,072.27	75.6529	1,072.27	77.2099	1,072.27	76.7883	1,072.27	75.5506	1,072.27	75.7288	1,072.27	73.3993	1,072.27	71.6621	1,072.27	68.7954	1,072.27	64.882	1,072.27	70.0322	1,072.27	66.7871	1,072.27	73.4013	1,072.27	73.9883	1,072.27	74.885
1,108.89	85.9486	1,108.89	85.6956	1,108.89	85.777	1,108.89	85.0451	1,108.89	85.355	1,108.89	84.53	1,108.89	84.3466	1,108.89	83.7184	1,108.89	82.9627	1,108.89	82.1432	1,108.89	81.8861	1,108.89	80.5865	1,108.89	80.9619	1,108.89	79.0556	1,108.89	79.598	1,108.89	76.9858	1,108.89	77.36	1,108.89	75.1351	1,108.89	74.0011	1,108.89	75.3101	1,108.89	72.0484	1,108.89	75.256	1,108.89	73.2715	1,108.89	75.3961	1,108.89	74.4856	1,108.89	75.9445	1,108.89	75.2761	1,108.89	72.8377	1,108.89	73.3597	1,108.89	66.1994	1,108.89	68.8507	1,108.89	64.8184	1,108.89	67.856	1,108.89	70.451	1,108.89	72.1329	1,108.89	74.2269
1,148.44	85.7715	1,148.44	85.7125	1,148.44	85.7203	1,148.44	85.1788	1,148.44	85.2886	1,148.44	84.3424	1,148.44	84.4198	1,148.44	83.5031	1,148.44	83.4609	1,148.44	82.1477	1,148.44	82.1612	1,148.44	80.5135	1,148.44	80.6495	1,148.44	78.7669	1,148.44	79.4103	1,148.44	75.9549	1,148.44	77.5236	1,148.44	73.4593	1,148.44	74.3869	1,148.44	72.0693	1,148.44	72.6838	1,148.44	73.8177	1,148.44	73.696	1,148.44	76.5736	1,148.44	74.7248	1,148.44	76.5168	1,148.44	75.2078	1,148.44	73.2922	1,148.44	73.6282	1,148.44	67.4533	1,148.44	68.0465	1,148.44	63.7063	1,148.44	58.7156	1,148.44	69.6348	1,148.44	68.141	1,148.44	70.5523
1,189.45	85.5739	1,189.45	85.1641	1,189.45	85.5287	1,189.45	84.777	1,189.45	85.0721	1,189.45	84.045	1,189.45	84.4346	1,189.45	82.7386	1,189.45	83.5151	1,189.45	81.3672	1,189.45	82.2094	1,189.45	80.0195	1,189.45	80.8552	1,189.45	78.6838	1,189.45	79.5228	1,189.45	76.3697	1,189.45	77.9747	1,189.45	73.1054	1,189.45	74.4253	1,189.45	71.8796	1,189.45	67.8748	1,189.45	72.4455	1,189.45	69.6261	1,189.45	73.791	1,189.45	72.157	1,189.45	74.2877	1,189.45	73.171	1,189.45	73.5961	1,189.45	70.6424	1,189.45	69.0971	1,189.45	63.7593	1,189.45	61.2149	1,189.45	60.5449	1,189.45	68.1912	1,189.45	70.4619	1,189.45	71.4106
1,230.47	85.5692	1,230.47	85.2042	1,230.47	85.4667	1,230.47	84.3569	1,230.47	84.9561	1,230.47	83.8489	1,230.47	83.7809	1,230.47	83.1784	1,230.47	82.3286	1,230.47	81.3691	1,230.47	80.8916	1,230.47	79.7686	1,230.47	79.2851	1,230.47	79.175	1,230.47	78.2054	1,230.47	78.2048	1,230.47	77.8049	1,230.47	75.9269	1,230.47	77.0359	1,230.47	73.2645	1,230.47	74.2579	1,230.47	72.4905	1,230.47	68.5198	1,230.47	74.5514	1,230.47	69.8231	1,230.47	75.9911	1,230.47	73.0415	1,230.47	74.6016	1,230.47	73.9287	1,230.47	72.1795	1,230.47	70.9702	1,230.47	71.946	1,230.47	64.7871	1,230.47	70.5848	1,230.47	61.968	1,230.47	67.4251
1,274.41	85.3853	1,274.41	85.0874	1,274.41	84.7203	1,274.41	84.0513	1,274.41	83.8554	1,274.41	82.8928	1,274.41	82.6545	1,274.41	81.4116	1,274.41	80.9427	1,274.41	79.8173	1,274.41	79.2482	1,274.41	78.4821	1,274.41	78.5418	1,274.41	77.737	1,274.41	77.1341	1,274.41	77.6753	1,274.41	76.6842	1,274.41	76.3169	1,274.41	76.5722	1,274.41	70.958	1,274.41	74.1323	1,274.41	66.6258	1,274.41	70.2125	1,274.41	69.5615	1,274.41	69.9409	1,274.41	72.0669	1,274.41	71.7723	1,274.41	72.0667	1,274.41	69.8725	1,274.41	69.6128	1,274.41	66.7495	1,274.41	66.5314	1,274.41	68.1403	1,274.41	72.1758	1,274.41	65.5704	1,274.41	70.3265
1,319.82	84.4997	1,319.82	84.4636	1,319.82	84.2268	1,319.82	83.8448	1,319.82	83.5972	1,319.82	82.249	1,319.82	82.2706	1,319.82	80.6437	1,319.82	80.1196	1,319.82	79.5635	1,319.82	77.8805	1,319.82	77.5674	1,319.82	75.5427	1,319.82	76.6511	1,319.82	73.2058	1,319.82	76.2309	1,319.82	73.1056	1,319.82	74.3316	1,319.82	75.1501	1,319.82	72.3629	1,319.82	74.3221	1,319.82	67.9772	1,319.82	71.6488	1,319.82	65.5827	1,319.82	68.6635	1,319.82	68.5718	1,319.82	69.6403	1,319.82	70.2811	1,319.82	70.6146	1,319.82	70.8582	1,319.82	68.6273	1,319.82	70.4366	1,319.82	68.2599	1,319.82	70.7979	1,319.82	67.0204	1,319.82	66.2325
1,366.7	84.5569	1,366.7	84.6302	1,366.7	84.1802	1,366.7	84.4191	1,366.7	83.4818	1,366.7	83.4175	1,366.7	82.551	1,366.7	82.2355	1,366.7	81.407	1,366.7	80.9132	1,366.7	79.9554	1,366.7	79.3731	1,366.7	78.2015	1,366.7	76.5843	1,366.7	76.1016	1,366.7	75.4514	1,366.7	74.0768	1,366.7	74.2876	1,366.7	73.8477	1,366.7	73.2452	1,366.7	72.7611	1,366.7	71.944	1,366.7	69.9069	1,366.7	67.6719	1,366.7	67.0585	1,366.7	57.8086	1,366.7	59.1627	1,366.7	54.2213	1,366.7	65.1426	1,366.7	62.5403	1,366.7	65.9267	1,366.7	68.6179	1,366.7	67.1741	1,366.7	69.4242	1,366.7	69.8286	1,366.7	70.4646
1,413.57	85.1351	1,413.57	84.7537	1,413.57	85.2093	1,413.57	84.3185	1,413.57	84.5565	1,413.57	83.2838	1,413.57	83.684	1,413.57	82.2436	1,413.57	82.6086	1,413.57	81.1247	1,413.57	81.3252	1,413.57	78.4993	1,413.57	79.5788	1,413.57	77.217	1,413.57	77.2291	1,413.57	76.4227	1,413.57	75.0893	1,413.57	75.3065	1,413.57	74.466	1,413.57	74.9232	1,413.57	74.6346	1,413.57	73.9851	1,413.57	75.2489	1,413.57	71.2958	1,413.57	71.2694	1,413.57	68.2436	1,413.57	64.994	1,413.57	59.6043	1,413.57	66.248	1,413.57	62.2623	1,413.57	65.2561	1,413.57	65.194	1,413.57	67.6897	1,413.57	70.5394	1,413.57	71.0856	1,413.57	71.8016
1,463.38	85.8726	1,463.38	85.8997	1,463.38	85.7183	1,463.38	85.0867	1,463.38	85.2278	1,463.38	84.261	1,463.38	84.4057	1,463.38	82.933	1,463.38	83.2882	1,463.38	80.5527	1,463.38	81.9293	1,463.38	79.2597	1,463.38	80.179	1,463.38	77.0844	1,463.38	78.4173	1,463.38	74.7649	1,463.38	76.0136	1,463.38	74.5093	1,463.38	73.0416	1,463.38	74.6678	1,463.38	73.4427	1,463.38	73.573	1,463.38	72.9676	1,463.38	72.0617	1,463.38	73.2811	1,463.38	71.1164	1,463.38	72.3883	1,463.38	71.8048	1,463.38	69.4144	1,463.38	65.2652	1,463.38	59.2018	1,463.38	62.388	1,463.38	67.68	1,463.38	69.9451	1,463.38	71.5227	1,463.38	71.4541
1,516.11	86.8402	1,516.11	86.6082	1,516.11	86.59	1,516.11	85.9942	1,516.11	85.9989	1,516.11	85.0231	1,516.11	84.603	1,516.11	83.5012	1,516.11	83.8421	1,516.11	82.2171	1,516.11	82.2312	1,516.11	80.5059	1,516.11	80.2295	1,516.11	79.1794	1,516.11	78.4825	1,516.11	76.3072	1,516.11	75.2156	1,516.11	73.1499	1,516.11	72.2984	1,516.11	70.6662	1,516.11	73.9519	1,516.11	74.5113	1,516.11	74.0992	1,516.11	74.2	1,516.11	73.4373	1,516.11	73.6194	1,516.11	72.4742	1,516.11	72.0927	1,516.11	69.821	1,516.11	62.7267	1,516.11	62.1553	1,516.11	62.1512	1,516.11	64.965	1,516.11	70.7274	1,516.11	70.1637	1,516.11	71.8425
1,568.85	86.5067	1,568.85	86.3118	1,568.85	86.2402	1,568.85	85.5093	1,568.85	85.7618	1,568.85	84.8737	1,568.85	84.4719	1,568.85	83.4487	1,568.85	82.5453	1,568.85	81.3272	1,568.85	81.1581	1,568.85	80.0647	1,568.85	80.2112	1,568.85	77.8531	1,568.85	78.6116	1,568.85	75.971	1,568.85	77.0635	1,568.85	74.0819	1,568.85	73.8287	1,568.85	75.2597	1,568.85	70.2096	1,568.85	73.2395	1,568.85	70.1326	1,568.85	72.0541	1,568.85	68.6641	1,568.85	72.6999	1,568.85	68.4661	1,568.85	70.9982	1,568.85	69.7356	1,568.85	68.5243	1,568.85	65.5086	1,568.85	57.8858	1,568.85	60.6079	1,568.85	70.1323	1,568.85	70.818	1,568.85	71.8409
1,624.51	85.6698	1,624.51	85.5689	1,624.51	85.372	1,624.51	84.7386	1,624.51	85.2665	1,624.51	84.0066	1,624.51	83.757	1,624.51	82.4192	1,624.51	81.7288	1,624.51	81.4416	1,624.51	80.9079	1,624.51	79.8558	1,624.51	80.0205	1,624.51	78.262	1,624.51	78.4425	1,624.51	76.5517	1,624.51	74.8621	1,624.51	74.154	1,624.51	72.8937	1,624.51	71.1421	1,624.51	72.5028	1,624.51	68.6754	1,624.51	73.0136	1,624.51	72.4509	1,624.51	72.122	1,624.51	71.2352	1,624.51	70.656	1,624.51	72.245	1,624.51	70.1251	1,624.51	65.9734	1,624.51	67.1022	1,624.51	60.8637	1,624.51	55.8873	1,624.51	69.1863	1,624.51	68.3077	1,624.51	70.8469
1,681.64	85.4635	1,681.64	84.9433	1,681.64	84.8268	1,681.64	84.4549	1,681.64	84.311	1,681.64	83.2251	1,681.64	83.3856	1,681.64	81.8717	1,681.64	82.1426	1,681.64	79.7001	1,681.64	80.2871	1,681.64	78.6344	1,681.64	78.5268	1,681.64	77.9628	1,681.64	76.7147	1,681.64	73.8234	1,681.64	74.8995	1,681.64	74.4928	1,681.64	75.5831	1,681.64	72.8999	1,681.64	73.0015	1,681.64	71.2289	1,681.64	72.9069	1,681.64	67.0815	1,681.64	70.0756	1,681.64	70.1688	1,681.64	72.0812	1,681.64	71.6456	1,681.64	70.8118	1,681.64	70.0652	1,681.64	70.4481	1,681.64	58.3573	1,681.64	63.0507	1,681.64	68.1388	1,681.64	63.9683	1,681.64	66.8143
1,741.7	86.2058	1,741.7	85.9667	1,741.7	86.0511	1,741.7	85.2588	1,741.7	85.0198	1,741.7	84.2135	1,741.7	84.3	1,741.7	81.9125	1,741.7	82.9209	1,741.7	80.4251	1,741.7	80.4063	1,741.7	79.8274	1,741.7	79.7384	1,741.7	77.3349	1,741.7	77.8979	1,741.7	76.4812	1,741.7	77.3121	1,741.7	72.949	1,741.7	73.1963	1,741.7	70.7277	1,741.7	70.0543	1,741.7	69.4804	1,741.7	69.6737	1,741.7	69.2233	1,741.7	70.7571	1,741.7	69.0056	1,741.7	70.9795	1,741.7	71.0993	1,741.7	71.4222	1,741.7	70.6322	1,741.7	68.584	1,741.7	53.13	1,741.7	64.0149	1,741.7	64.8137	1,741.7	66.309	1,741.7	69.1959
1,803.22	87.1102	1,803.22	86.793	1,803.22	86.5916	1,803.22	85.8739	1,803.22	85.887	1,803.22	84.6106	1,803.22	84.8814	1,803.22	82.7256	1,803.22	83.1479	1,803.22	80.9734	1,803.22	81.4765	1,803.22	79.8193	1,803.22	79.9356	1,803.22	78.1146	1,803.22	78.8393	1,803.22	76.8738	1,803.22	76.9946	1,803.22	73.9843	1,803.22	75.0743	1,803.22	71.8839	1,803.22	73.3406	1,803.22	71.1501	1,803.22	72.5337	1,803.22	71.4442	1,803.22	71.2025	1,803.22	70.366	1,803.22	71.7336	1,803.22	71.068	1,803.22	72.2377	1,803.22	69.4106	1,803.22	69.6053	1,803.22	61.6408	1,803.22	63.1101	1,803.22	68.2084	1,803.22	67.2809	1,803.22	70.8226
1,866.21	87.2728	1,866.21	87.0667	1,866.21	86.946	1,866.21	86.1968	1,866.21	86.2788	1,866.21	85.0016	1,866.21	84.976	1,866.21	83.5784	1,866.21	83.3935	1,866.21	81.6583	1,866.21	81.3748	1,866.21	79.4554	1,866.21	79.4473	1,866.21	78.9514	1,866.21	77.6893	1,866.21	77.3517	1,866.21	76.9859	1,866.21	75.423	1,866.21	75.6049	1,866.21	73.4549	1,866.21	73.9414	1,866.21	72.2546	1,866.21	72.0549	1,866.21	70.5118	1,866.21	71.6862	1,866.21	70.1041	1,866.21	70.4768	1,866.21	71.8746	1,866.21	71.7964	1,866.21	69.2848	1,866.21	69.6665	1,866.21	60.5346	1,866.21	59.2872	1,866.21	65.2631	1,866.21	67.4515	1,866.21	68.0636
1,932.13	86.8649	1,932.13	86.815	1,932.13	86.5839	1,932.13	85.9667	1,932.13	85.8865	1,932.13	84.871	1,932.13	84.7412	1,932.13	83.1558	1,932.13	83.2509	1,932.13	81.3164	1,932.13	81.2427	1,932.13	79.8448	1,932.13	79.1637	1,932.13	77.7953	1,932.13	77.2137	1,932.13	77.324	1,932.13	75.6514	1,932.13	75.6675	1,932.13	74.5535	1,932.13	73.5136	1,932.13	72.0629	1,932.13	72.0608	1,932.13	70.5658	1,932.13	70.8446	1,932.13	68.8679	1,932.13	70.4791	1,932.13	68.1663	1,932.13	71.3104	1,932.13	70.7447	1,932.13	71.3559	1,932.13	71.8016	1,932.13	65.2895	1,932.13	65.7345	1,932.13	64.4462	1,932.13	59.3412	1,932.13	67.8192
1,999.51	87.0378	1,999.51	86.4129	1,999.51	86.6831	1,999.51	85.589	1,999.51	86.0631	1,999.51	84.5508	1,999.51	85.0368	1,999.51	83.1502	1,999.51	83.6455	1,999.51	81.1185	1,999.51	81.7014	1,999.51	78.4553	1,999.51	79.7303	1,999.51	76.9158	1,999.51	77.8194	1,999.51	75.7035	1,999.51	76.5548	1,999.51	73.7851	1,999.51	74.9362	1,999.51	71.7829	1,999.51	72.463	1,999.51	72.5195	1,999.51	72.1676	1,999.51	71.3149	1,999.51	71.3067	1,999.51	66.2778	1,999.51	68.4998	1,999.51	68.6144	1,999.51	70.1508	1,999.51	69.4523	1,999.51	70.9057	1,999.51	65.9086	1,999.51	68.1702	1,999.51	68.0531	1,999.51	66.7179	1,999.51	67.572
2,069.82	87.8775	2,069.82	87.4984	2,069.82	87.7515	2,069.82	86.7148	2,069.82	86.9064	2,069.82	85.4762	2,069.82	85.786	2,069.82	84.2354	2,069.82	84.1432	2,069.82	82.2239	2,069.82	82.7085	2,069.82	80.2596	2,069.82	80.5286	2,069.82	77.6101	2,069.82	78.8866	2,069.82	76.7591	2,069.82	76.6181	2,069.82	75.5121	2,069.82	76.0853	2,069.82	73.2079	2,069.82	72.5452	2,069.82	71.4885	2,069.82	70.9104	2,069.82	70.7945	2,069.82	69.3259	2,069.82	69.5394	2,069.82	70.3591	2,069.82	67.9262	2,069.82	69.3943	2,069.82	69.197	2,069.82	69.2321	2,069.82	66.0254	2,069.82	66.6313	2,069.82	66.7867	2,069.82	67.3415	2,069.82	70.4347
2,143.07	87.8708	2,143.07	87.7539	2,143.07	87.4766	2,143.07	86.9214	2,143.07	86.808	2,143.07	85.9636	2,143.07	85.6574	2,143.07	84.5054	2,143.07	84.2638	2,143.07	83.1053	2,143.07	82.6835	2,143.07	80.8442	2,143.07	80.799	2,143.07	78.1515	2,143.07	78.6762	2,143.07	77.1322	2,143.07	77.051	2,143.07	75.5565	2,143.07	74.6341	2,143.07	73.9212	2,143.07	71.9754	2,143.07	72.8738	2,143.07	70.6818	2,143.07	72.2806	2,143.07	71.6536	2,143.07	69.8601	2,143.07	69.0631	2,143.07	69.4469	2,143.07	70.1275	2,143.07	70.0835	2,143.07	71.1266	2,143.07	67.1442	2,143.07	65.9653	2,143.07	67.0417	2,143.07	67.9385	2,143.07	71.0183
2,219.24	86.9512	2,219.24	86.6958	2,219.24	86.592	2,219.24	86.1	2,219.24	86.0372	2,219.24	85.1315	2,219.24	84.836	2,219.24	83.8715	2,219.24	83.6105	2,219.24	82.3528	2,219.24	81.9944	2,219.24	80.4806	2,219.24	80.0885	2,219.24	77.802	2,219.24	78.0184	2,219.24	74.7974	2,219.24	75.9875	2,219.24	74.4188	2,219.24	75.0653	2,219.24	71.4382	2,219.24	73.2782	2,219.24	70.0381	2,219.24	70.7396	2,219.24	72.1143	2,219.24	69.2903	2,219.24	68.4994	2,219.24	69.7548	2,219.24	69.2931	2,219.24	68.2552	2,219.24	70.4229	2,219.24	69.1044	2,219.24	66.4721	2,219.24	61.6443	2,219.24	68.4005	2,219.24	63.5177	2,219.24	70.7718
2,296.88	87.3478	2,296.88	86.7664	2,296.88	87.1952	2,296.88	86.117	2,296.88	86.3978	2,296.88	84.9863	2,296.88	85.4839	2,296.88	83.9295	2,296.88	83.8592	2,296.88	82.4789	2,296.88	82.4746	2,296.88	80.0387	2,296.88	80.8721	2,296.88	78.3327	2,296.88	78.854	2,296.88	77.0786	2,296.88	76.4235	2,296.88	74.4738	2,296.88	75.3439	2,296.88	73.2644	2,296.88	73.6899	2,296.88	67.9055	2,296.88	70.9525	2,296.88	69.2377	2,296.88	71.8079	2,296.88	70.0704	2,296.88	70.2813	2,296.88	67.784	2,296.88	70.2504	2,296.88	69.6172	2,296.88	69.3235	2,296.88	63.0477	2,296.88	67.7924	2,296.88	57.3438	2,296.88	63.7932	2,296.88	65.7346
2,378.91	87.7361	2,378.91	87.525	2,378.91	87.3368	2,378.91	86.6641	2,378.91	86.9364	2,378.91	85.9732	2,378.91	85.6927	2,378.91	84.4703	2,378.91	84.3248	2,378.91	82.6064	2,378.91	82.8254	2,378.91	80.9394	2,378.91	81.1161	2,378.91	78.9979	2,378.91	78.859	2,378.91	76.6397	2,378.91	76.8416	2,378.91	75.5088	2,378.91	74.9336	2,378.91	72.9436	2,378.91	74.1834	2,378.91	70.4187	2,378.91	70.7897	2,378.91	70.8394	2,378.91	71.1883	2,378.91	69.3072	2,378.91	69.5164	2,378.91	68.0933	2,378.91	67.5632	2,378.91	69.9135	2,378.91	71.5655	2,378.91	67.1713	2,378.91	66.8745	2,378.91	64.7217	2,378.91	62.2232	2,378.91	68.522
2,462.4	86.7349	2,462.4	86.5654	2,462.4	86.7372	2,462.4	86.1958	2,462.4	86.1184	2,462.4	85.2435	2,462.4	85.2802	2,462.4	84.2357	2,462.4	83.6538	2,462.4	82.655	2,462.4	82.2152	2,462.4	80.944	2,462.4	80.3687	2,462.4	78.8319	2,462.4	77.95	2,462.4	77.142	2,462.4	76.2372	2,462.4	75.0084	2,462.4	73.7518	2,462.4	73.5263	2,462.4	72.3033	2,462.4	71.6423	2,462.4	70.8614	2,462.4	71.3901	2,462.4	71.1732	2,462.4	70.5182	2,462.4	69.7614	2,462.4	68.1247	2,462.4	66.3388	2,462.4	70.4657	2,462.4	69.2006	2,462.4	68.5463	2,462.4	69.0181	2,462.4	66.7261	2,462.4	63.7495	2,462.4	68.1581
2,548.83	86.7308	2,548.83	86.6656	2,548.83	86.8054	2,548.83	85.9699	2,548.83	86.4051	2,548.83	84.8888	2,548.83	85.439	2,548.83	83.435	2,548.83	84.3144	2,548.83	82.3526	2,548.83	82.6668	2,548.83	80.695	2,548.83	80.6265	2,548.83	78.7262	2,548.83	78.884	2,548.83	76.9155	2,548.83	76.281	2,548.83	73.6536	2,548.83	74.3634	2,548.83	74.0018	2,548.83	72.78	2,548.83	70.3997	2,548.83	71.349	2,548.83	69.6411	2,548.83	70.5462	2,548.83	70.5703	2,548.83	72.0188	2,548.83	65.781	2,548.83	67.1127	2,548.83	68.2816	2,548.83	68.9973	2,548.83	68.4795	2,548.83	69.7513	2,548.83	65.5013	2,548.83	67.0407	2,548.83	67.8461
2,639.65	87.2772	2,639.65	87.4648	2,639.65	86.7683	2,639.65	86.5727	2,639.65	86.6933	2,639.65	86.049	2,639.65	85.3409	2,639.65	83.7462	2,639.65	84.397	2,639.65	81.8969	2,639.65	82.6295	2,639.65	81.0626	2,639.65	80.8862	2,639.65	78.8589	2,639.65	79.1054	2,639.65	74.9611	2,639.65	76.1082	2,639.65	74.7568	2,639.65	74.0232	2,639.65	72.383	2,639.65	73.0464	2,639.65	68.8311	2,639.65	71.1455	2,639.65	69.7538	2,639.65	69.9234	2,639.65	71.4832	2,639.65	71.5783	2,639.65	69.1078	2,639.65	68.5891	2,639.65	68.6884	2,639.65	68.4174	2,639.65	66.2171	2,639.65	66.6763	2,639.65	68.0381	2,639.65	66.2015	2,639.65	69.2245
2,731.93	86.7241	2,731.93	86.7503	2,731.93	86.3567	2,731.93	86.3706	2,731.93	85.7603	2,731.93	85.4474	2,731.93	84.7732	2,731.93	83.6996	2,731.93	83.6018	2,731.93	81.8752	2,731.93	81.7622	2,731.93	79.9242	2,731.93	80.0472	2,731.93	78.5465	2,731.93	78.1074	2,731.93	75.037	2,731.93	74.6999	2,731.93	73.6002	2,731.93	73.8733	2,731.93	71.0676	2,731.93	73.0519	2,731.93	71.1183	2,731.93	70.1581	2,731.93	69.828	2,731.93	67.0716	2,731.93	71.527	2,731.93	69.9669	2,731.93	69.5687	2,731.93	69.245	2,731.93	67.9351	2,731.93	66.9912	2,731.93	65.7477	2,731.93	65.2044	2,731.93	60.9367	2,731.93	62.3117	2,731.93	66.7421
2,828.61	86.4938	2,828.61	86.2504	2,828.61	86.7858	2,828.61	86.2786	2,828.61	85.7479	2,828.61	84.8945	2,828.61	85.3224	2,828.61	84.1133	2,828.61	83.9876	2,828.61	82.6094	2,828.61	82.1774	2,828.61	79.3605	2,828.61	80.0195	2,828.61	77.3198	2,828.61	77.841	2,828.61	75.9679	2,828.61	75.8459	2,828.61	72.6297	2,828.61	74.6561	2,828.61	71.7215	2,828.61	72.5569	2,828.61	70.6455	2,828.61	69.67	2,828.61	68.6835	2,828.61	68.5996	2,828.61	69.6948	2,828.61	68.8009	2,828.61	69.8239	2,828.61	69.6485	2,828.61	68.475	2,828.61	68.0214	2,828.61	67.1767	2,828.61	68.1585	2,828.61	61.8138	2,828.61	61.3193	2,828.61	67.608
2,928.22	86.7815	2,928.22	86.7625	2,928.22	86.7081	2,928.22	86.4678	2,928.22	85.9722	2,928.22	85.5628	2,928.22	85.2911	2,928.22	84.7592	2,928.22	83.8222	2,928.22	83.1712	2,928.22	82.1782	2,928.22	80.3101	2,928.22	80.41	2,928.22	78.1761	2,928.22	77.5868	2,928.22	76.8234	2,928.22	75.2952	2,928.22	73.8181	2,928.22	73.1736	2,928.22	72.4948	2,928.22	70.9308	2,928.22	70.9561	2,928.22	69.2585	2,928.22	67.8194	2,928.22	68.1011	2,928.22	69.7029	2,928.22	68.4335	2,928.22	69.04	2,928.22	68.2201	2,928.22	68.557	2,928.22	69.6458	2,928.22	68.3854	2,928.22	68.5462	2,928.22	60.8042	2,928.22	61.923	2,928.22	65.4219
3,030.76	85.8472	3,030.76	85.8425	3,030.76	86.0586	3,030.76	85.4681	3,030.76	85.4403	3,030.76	84.869	3,030.76	84.7732	3,030.76	83.7276	3,030.76	83.6491	3,030.76	82.6019	3,030.76	81.8524	3,030.76	80.0999	3,030.76	79.3856	3,030.76	78.1286	3,030.76	77.1066	3,030.76	76.2728	3,030.76	75.5712	3,030.76	73.1754	3,030.76	73.2616	3,030.76	71.9841	3,030.76	70.2476	3,030.76	71.0715	3,030.76	70.4049	3,030.76	68.4149	3,030.76	68.7921	3,030.76	68.8477	3,030.76	68.7522	3,030.76	68.7819	3,030.76	68.62	3,030.76	68.3594	3,030.76	66.5663	3,030.76	68.4956	3,030.76	69.6891	3,030.76	65.8416	3,030.76	61.8313	3,030.76	64.6655
3,137.7	86.5572	3,137.7	86.7119	3,137.7	86.2805	3,137.7	86.3465	3,137.7	86.3121	3,137.7	85.7909	3,137.7	85.3792	3,137.7	84.694	3,137.7	84.4257	3,137.7	82.9979	3,137.7	82.526	3,137.7	81.403	3,137.7	80.5473	3,137.7	79.3873	3,137.7	77.8208	3,137.7	76.1553	3,137.7	75.7737	3,137.7	74.1249	3,137.7	73.8907	3,137.7	71.7742	3,137.7	70.962	3,137.7	69.8459	3,137.7	70.3656	3,137.7	68.519	3,137.7	68.9078	3,137.7	68.1272	3,137.7	69.846	3,137.7	68.8245	3,137.7	68.9614	3,137.7	69.4919	3,137.7	68.1669	3,137.7	70.0572	3,137.7	68.846	3,137.7	62.4925	3,137.7	64.5492	3,137.7	64.9103
3,249.02	86.722	3,249.02	86.8466	3,249.02	86.4774	3,249.02	86.4772	3,249.02	86.2529	3,249.02	85.8529	3,249.02	85.5522	3,249.02	84.8403	3,249.02	84.4642	3,249.02	82.4134	3,249.02	82.5335	3,249.02	81.0405	3,249.02	80.6011	3,249.02	78.8377	3,249.02	78.0065	3,249.02	75.8117	3,249.02	76.1492	3,249.02	73.9167	3,249.02	73.8598	3,249.02	72.5857	3,249.02	71.8142	3,249.02	69.4738	3,249.02	70.4829	3,249.02	68.21	3,249.02	68.2312	3,249.02	69.2594	3,249.02	69.2022	3,249.02	69.6914	3,249.02	70.0366	3,249.02	68.7303	3,249.02	68.9204	3,249.02	69.2023	3,249.02	69.6017	3,249.02	62.3214	3,249.02	63.9282	3,249.02	64.2803
3,363.28	86.6522	3,363.28	86.4551	3,363.28	86.7048	3,363.28	86.4818	3,363.28	86.1939	3,363.28	86.0069	3,363.28	85.6769	3,363.28	84.4602	3,363.28	84.1922	3,363.28	82.3235	3,363.28	82.514	3,363.28	80.3341	3,363.28	80.5596	3,363.28	77.3106	3,363.28	78.1482	3,363.28	75.2187	3,363.28	76.0563	3,363.28	73.9604	3,363.28	71.7655	3,363.28	72.2501	3,363.28	71.4814	3,363.28	69.6996	3,363.28	70.4219	3,363.28	69.2392	3,363.28	67.5201	3,363.28	68.534	3,363.28	67.8869	3,363.28	69.7057	3,363.28	69.5693	3,363.28	67.133	3,363.28	66.5498	3,363.28	68.6509	3,363.28	68.7333	3,363.28	63.5657	3,363.28	63.3351	3,363.28	63.3833
3,481.93	86.984	3,481.93	86.6801	3,481.93	87.4554	3,481.93	86.7025	3,481.93	86.6663	3,481.93	86.2686	3,481.93	86.2143	3,481.93	84.3748	3,481.93	85.05	3,481.93	83.1285	3,481.93	83.6031	3,481.93	80.5291	3,481.93	80.8303	3,481.93	78.3654	3,481.93	78.5573	3,481.93	75.7929	3,481.93	76.1804	3,481.93	73.9725	3,481.93	73.3649	3,481.93	71.2133	3,481.93	71.3615	3,481.93	70.4897	3,481.93	69.6709	3,481.93	68.5141	3,481.93	67.481	3,481.93	68.1572	3,481.93	67.5281	3,481.93	70.1553	3,481.93	69.8213	3,481.93	68.1496	3,481.93	68.3044	3,481.93	69.2852	3,481.93	69.3266	3,481.93	65.2528	3,481.93	63.1677	3,481.93	66.2352
3,604.98	87.1954	3,604.98	87.3162	3,604.98	87.0945	3,604.98	86.9259	3,604.98	87.0394	3,604.98	86.3087	3,604.98	86.4545	3,604.98	85.3799	3,604.98	85.2919	3,604.98	83.7706	3,604.98	83.2187	3,604.98	80.8984	3,604.98	80.7609	3,604.98	78.4973	3,604.98	78.2605	3,604.98	76.0769	3,604.98	76.4698	3,604.98	74.465	3,604.98	72.9044	3,604.98	71.7662	3,604.98	71.1131	3,604.98	70.2396	3,604.98	68.0887	3,604.98	67.9277	3,604.98	67.8728	3,604.98	68.2397	3,604.98	67.674	3,604.98	69.7436	3,604.98	69.5077	3,604.98	67.924	3,604.98	67.4102	3,604.98	70.2938	3,604.98	68.1652	3,604.98	65.0506	3,604.98	64.0788	3,604.98	64.8399
3,732.42	86.97	3,732.42	87.0241	3,732.42	87.1271	3,732.42	86.7888	3,732.42	86.9983	3,732.42	86.0137	3,732.42	86.1642	3,732.42	84.6114	3,732.42	84.9527	3,732.42	82.9393	3,732.42	83.0409	3,732.42	80.5056	3,732.42	80.5795	3,732.42	78.062	3,732.42	78.6963	3,732.42	75.1756	3,732.42	75.2243	3,732.42	73.1108	3,732.42	72.9331	3,732.42	69.569	3,732.42	70.6933	3,732.42	69.5996	3,732.42	69.7061	3,732.42	68.1004	3,732.42	68.58	3,732.42	66.8088	3,732.42	65.1058	3,732.42	68.2538	3,732.42	69.3975	3,732.42	67.4886	3,732.42	68.6003	3,732.42	68.6852	3,732.42	68.5626	3,732.42	62.3104	3,732.42	65.4381	3,732.42	63.5595
3,864.26	86.5832	3,864.26	87.2439	3,864.26	86.6264	3,864.26	87.1271	3,864.26	86.9848	3,864.26	86.2772	3,864.26	86.2786	3,864.26	85.5209	3,864.26	84.7893	3,864.26	83.156	3,864.26	82.4158	3,864.26	80.6594	3,864.26	80.3915	3,864.26	78.203	3,864.26	78.5948	3,864.26	76.4011	3,864.26	75.7321	3,864.26	73.7781	3,864.26	73.9562	3,864.26	70.9678	3,864.26	70.6287	3,864.26	70.1328	3,864.26	69.8448	3,864.26	69.1999	3,864.26	67.5016	3,864.26	68.0615	3,864.26	68.0561	3,864.26	69.3207	3,864.26	69.0275	3,864.26	67.8748	3,864.26	67.6364	3,864.26	67.698	3,864.26	69.602	3,864.26	62.1299	3,864.26	65.7491	3,864.26	63.9255
4,000.49	86.9965	4,000.49	87.1165	4,000.49	87.1228	4,000.49	86.6188	4,000.49	86.5557	4,000.49	85.9297	4,000.49	85.7487	4,000.49	84.2204	4,000.49	84.3194	4,000.49	82.0911	4,000.49	82.0903	4,000.49	79.7005	4,000.49	80.5127	4,000.49	77.8439	4,000.49	78.0122	4,000.49	75.6978	4,000.49	74.7112	4,000.49	72.2239	4,000.49	72.9231	4,000.49	71.9242	4,000.49	71.0702	4,000.49	69.0078	4,000.49	69.133	4,000.49	68.2268	4,000.49	68.2033	4,000.49	67.8562	4,000.49	67.9872	4,000.49	67.1669	4,000.49	67.0838	4,000.49	67.0693	4,000.49	68.1622	4,000.49	67.2046	4,000.49	67.7961	4,000.49	63.917	4,000.49	63.2446	4,000.49	62.7397
4,141.11	87.0052	4,141.11	86.5338	4,141.11	87.3193	4,141.11	86.4961	4,141.11	86.2084	4,141.11	85.5488	4,141.11	85.1717	4,141.11	83.3477	4,141.11	83.6268	4,141.11	81.7911	4,141.11	82.1811	4,141.11	79.6054	4,141.11	79.9855	4,141.11	78.3644	4,141.11	77.4259	4,141.11	76.1085	4,141.11	75.3161	4,141.11	72.9255	4,141.11	73.2459	4,141.11	70.8674	4,141.11	70.4252	4,141.11	68.7384	4,141.11	69.3701	4,141.11	68.3477	4,141.11	67.0565	4,141.11	67.4684	4,141.11	64.9327	4,141.11	67.6708	4,141.11	67.3638	4,141.11	67.716	4,141.11	68.2137	4,141.11	66.301	4,141.11	65.0107	4,141.11	63.2052	4,141.11	63.2287	4,141.11	63.6331
4,287.6	86.8702	4,287.6	86.5877	4,287.6	86.5403	4,287.6	85.7658	4,287.6	86.1519	4,287.6	84.7836	4,287.6	84.971	4,287.6	83.7328	4,287.6	84.3187	4,287.6	81.5096	4,287.6	82.4669	4,287.6	79.7616	4,287.6	79.9131	4,287.6	77.2804	4,287.6	76.9429	4,287.6	74.4364	4,287.6	74.8867	4,287.6	72.2463	4,287.6	72.6589	4,287.6	70.4909	4,287.6	70.8604	4,287.6	68.5357	4,287.6	68.1772	4,287.6	65.5692	4,287.6	67.4168	4,287.6	65.0636	4,287.6	67.3265	4,287.6	67.2931	4,287.6	68.0829	4,287.6	67.7604	4,287.6	67.5306	4,287.6	66.433	4,287.6	66.3108	4,287.6	60.6262	4,287.6	63.4398	4,287.6	60.6261
4,438.48	85.8208	4,438.48	86.0478	4,438.48	85.8332	4,438.48	85.0512	4,438.48	85.4377	4,438.48	84.7563	4,438.48	84.8592	4,438.48	84.1269	4,438.48	83.0453	4,438.48	82.6303	4,438.48	81.2454	4,438.48	79.7767	4,438.48	79.1923	4,438.48	77.8311	4,438.48	76.9803	4,438.48	75.3027	4,438.48	75.9036	4,438.48	73.5946	4,438.48	72.2664	4,438.48	72.4485	4,438.48	70.4918	4,438.48	68.2849	4,438.48	66.6092	4,438.48	66.2404	4,438.48	66.4158	4,438.48	65.2558	4,438.48	64.768	4,438.48	65.5886	4,438.48	64.7516	4,438.48	67.2372	4,438.48	66.4695	4,438.48	66.8595	4,438.48	66.9144	4,438.48	63.4101	4,438.48	57.984	4,438.48	59.9141
4,595.21	86.4486	4,595.21	86.0965	4,595.21	86.4108	4,595.21	86.4227	4,595.21	85.4924	4,595.21	84.857	4,595.21	84.7855	4,595.21	83.5652	4,595.21	83.4341	4,595.21	81.897	4,595.21	81.5444	4,595.21	80.1059	4,595.21	80.3433	4,595.21	77.3327	4,595.21	78.3986	4,595.21	74.9721	4,595.21	74.3592	4,595.21	70.7015	4,595.21	72.7374	4,595.21	69.2323	4,595.21	70.2578	4,595.21	66.6003	4,595.21	68.3251	4,595.21	66.9564	4,595.21	66.4481	4,595.21	64.7857	4,595.21	66.478	4,595.21	65.1754	4,595.21	65.5542	4,595.21	68.5018	4,595.21	68.3135	4,595.21	65.4289	4,595.21	66.1909	4,595.21	62.3653	4,595.21	63.7959	4,595.21	62.2807
4,756.35	85.2563	4,756.35	85.5765	4,756.35	84.9751	4,756.35	84.29	4,756.35	84.5111	4,756.35	84.0352	4,756.35	82.9987	4,756.35	82.7114	4,756.35	82.8524	4,756.35	80.9194	4,756.35	81.914	4,756.35	80.2968	4,756.35	79.2838	4,756.35	78.8612	4,756.35	76.9326	4,756.35	74.6867	4,756.35	75.0249	4,756.35	72.4578	4,756.35	72.0892	4,756.35	68.5964	4,756.35	69.7013	4,756.35	70.172	4,756.35	67.4856	4,756.35	67.7404	4,756.35	66.878	4,756.35	67.7851	4,756.35	62.7549	4,756.35	66.4317	4,756.35	66.1661	4,756.35	65.9778	4,756.35	66.8504	4,756.35	64.2133	4,756.35	64.393	4,756.35	64.506	4,756.35	63.0357	4,756.35	59.5523
4,924.8	86.4524	4,924.8	86.2328	4,924.8	86.7232	4,924.8	85.5106	4,924.8	85.5933	4,924.8	84.9346	4,924.8	84.986	4,924.8	84.2975	4,924.8	83.7304	4,924.8	82.6633	4,924.8	82.1236	4,924.8	79.8868	4,924.8	80.5927	4,924.8	76.7836	4,924.8	77.488	4,924.8	73.4023	4,924.8	73.3913	4,924.8	72.5621	4,924.8	72.397	4,924.8	71.5476	4,924.8	69.5437	4,924.8	66.4209	4,924.8	67.4757	4,924.8	64.9819	4,924.8	66.0426	4,924.8	64.5128	4,924.8	64.1675	4,924.8	68.0942	4,924.8	65.7872	4,924.8	67.258	4,924.8	67.184	4,924.8	65.2068	4,924.8	66.0158	4,924.8	64.3322	4,924.8	62.7452	4,924.8	54.1751
5,097.66	85.8771	5,097.66	85.3511	5,097.66	85.9416	5,097.66	85.4421	5,097.66	85.065	5,097.66	84.2236	5,097.66	84.4838	5,097.66	84.1225	5,097.66	83.4856	5,097.66	82.0738	5,097.66	81.8465	5,097.66	79.6406	5,097.66	79.4205	5,097.66	76.1147	5,097.66	77.0608	5,097.66	74.9772	5,097.66	74.8676	5,097.66	70.6359	5,097.66	71.2378	5,097.66	71.0226	5,097.66	69.1443	5,097.66	69.2444	5,097.66	67.4105	5,097.66	66.6314	5,097.66	66.0944	5,097.66	65.0834	5,097.66	64.9998	5,097.66	67.1245	5,097.66	65.9836	5,097.66	69.2402	5,097.66	66.325	5,097.66	66.7733	5,097.66	64.9585	5,097.66	62.7464	5,097.66	63.507	5,097.66	57.2166
5,277.83	86.906	5,277.83	86.8396	5,277.83	86.3563	5,277.83	85.9521	5,277.83	85.9206	5,277.83	85.8618	5,277.83	84.9241	5,277.83	84.6073	5,277.83	84.2024	5,277.83	82.9315	5,277.83	82.6507	5,277.83	80.573	5,277.83	80.0324	5,277.83	78.9376	5,277.83	77.7036	5,277.83	75.6058	5,277.83	74.7743	5,277.83	73.1589	5,277.83	71.3248	5,277.83	66.0328	5,277.83	68.6198	5,277.83	66.333	5,277.83	69.1173	5,277.83	65.8212	5,277.83	64.0457	5,277.83	65.7715	5,277.83	65.449	5,277.83	61.2331	5,277.83	63.784	5,277.83	66.2632	5,277.83	65.3447	5,277.83	65.2323	5,277.83	65.2519	5,277.83	63.7963	5,277.83	64.2845	5,277.83	53.1345
5,463.87	86.6081	5,463.87	86.3053	5,463.87	86.7036	5,463.87	85.3682	5,463.87	85.6081	5,463.87	84.0189	5,463.87	85.1211	5,463.87	83.2217	5,463.87	83.8633	5,463.87	80.7121	5,463.87	81.7591	5,463.87	78.9918	5,463.87	80.1278	5,463.87	76.0522	5,463.87	77.0875	5,463.87	73.3985	5,463.87	72.4682	5,463.87	71.7793	5,463.87	71.7574	5,463.87	69.0031	5,463.87	67.912	5,463.87	64.5543	5,463.87	66.6953	5,463.87	64.022	5,463.87	66.0043	5,463.87	64.693	5,463.87	63.3751	5,463.87	66.8194	5,463.87	63.7601	5,463.87	67.1023	5,463.87	66.7975	5,463.87	64.6904	5,463.87	66.1406	5,463.87	64.0098	5,463.87	65.157	5,463.87	54.3178
5,657.23	86.6414	5,657.23	86.5413	5,657.23	86.4936	5,657.23	85.4181	5,657.23	85.7575	5,657.23	84.7356	5,657.23	84.8096	5,657.23	84.1098	5,657.23	83.6357	5,657.23	82.1467	5,657.23	81.9722	5,657.23	79.6323	5,657.23	79.234	5,657.23	76.5272	5,657.23	75.953	5,657.23	74.7623	5,657.23	74.5271	5,657.23	71.7674	5,657.23	71.12	5,657.23	71.2154	5,657.23	69.7859	5,657.23	68.3022	5,657.23	65.9079	5,657.23	67.5135	5,657.23	64.792	5,657.23	65.0202	5,657.23	65.9016	5,657.23	63.2728	5,657.23	63.6106	5,657.23	63.5996	5,657.23	63.7765	5,657.23	65.9441	5,657.23	65.2886	5,657.23	64.0179	5,657.23	64.4827	5,657.23	57.5025
5,856.45	86.4598	5,856.45	86.2688	5,856.45	86.1349	5,856.45	85.5221	5,856.45	85.3376	5,856.45	84.738	5,856.45	83.7377	5,856.45	83.4135	5,856.45	82.8573	5,856.45	81.8464	5,856.45	81.0861	5,856.45	79.5116	5,856.45	79.0887	5,856.45	77.9844	5,856.45	77.6391	5,856.45	73.1069	5,856.45	73.4326	5,856.45	71.1651	5,856.45	70.7514	5,856.45	66.2301	5,856.45	68.0117	5,856.45	65.3648	5,856.45	65.9577	5,856.45	62.1371	5,856.45	64.5005	5,856.45	66.595	5,856.45	59.8034	5,856.45	64.5171	5,856.45	60.5655	5,856.45	64.5555	5,856.45	65.2456	5,856.45	64.4203	5,856.45	65.0431	5,856.45	60.8831	5,856.45	63.4614	5,856.45	55.0568
6,062.99	86.5736	6,062.99	86.4068	6,062.99	86.5419	6,062.99	85.2478	6,062.99	85.0897	6,062.99	84.2606	6,062.99	84.5262	6,062.99	83.0729	6,062.99	83.1674	6,062.99	80.6748	6,062.99	80.4493	6,062.99	78.7223	6,062.99	79.1903	6,062.99	75.9346	6,062.99	76.0723	6,062.99	72.357	6,062.99	72.6321	6,062.99	69.4147	6,062.99	71.5361	6,062.99	68.4179	6,062.99	67.0689	6,062.99	64.8069	6,062.99	65.9306	6,062.99	65.2342	6,062.99	64.6433	6,062.99	64.6153	6,062.99	62.7696	6,062.99	66.5081	6,062.99	63.6301	6,062.99	65.1804	6,062.99	63.958	6,062.99	64.3356	6,062.99	63.4076	6,062.99	61.4736	6,062.99	62.9901	6,062.99	56.4024
6,276.86	86.5795	6,276.86	86.1897	6,276.86	86.0749	6,276.86	85.0189	6,276.86	85.2267	6,276.86	83.8282	6,276.86	83.5946	6,276.86	82.9497	6,276.86	82.99	6,276.86	80.5127	6,276.86	81.3708	6,276.86	78.0864	6,276.86	78.3222	6,276.86	73.7736	6,276.86	75.4606	6,276.86	73.158	6,276.86	73.1439	6,276.86	70.0671	6,276.86	70.4434	6,276.86	68.2057	6,276.86	66.6654	6,276.86	66.976	6,276.86	66.7746	6,276.86	63.163	6,276.86	61.4922	6,276.86	59.3121	6,276.86	63.2399	6,276.86	61.1997	6,276.86	63.2489	6,276.86	63.8539	6,276.86	63.0615	6,276.86	63.2111	6,276.86	63.4775	6,276.86	61.6018	6,276.86	61.9182	6,276.86	52.8864
6,498.05	86.1283	6,498.05	85.7092	6,498.05	85.7624	6,498.05	84.3098	6,498.05	84.4741	6,498.05	83.7019	6,498.05	83.4993	6,498.05	82.5712	6,498.05	81.652	6,498.05	80.9177	6,498.05	80.1861	6,498.05	77.9537	6,498.05	78.2989	6,498.05	76.6107	6,498.05	75.6584	6,498.05	73.0379	6,498.05	72.3569	6,498.05	71.0473	6,498.05	69.4215	6,498.05	66.0763	6,498.05	67.6081	6,498.05	64.1806	6,498.05	62.6044	6,498.05	63.4729	6,498.05	62.9958	6,498.05	63.3626	6,498.05	60.125	6,498.05	63.7618	6,498.05	60.786	6,498.05	64.0339	6,498.05	64.0515	6,498.05	62.5614	6,498.05	62.3501	6,498.05	61.1435	6,498.05	61.4083	6,498.05	53.2432
6,726.56	86.4633	6,726.56	85.9704	6,726.56	86.0188	6,726.56	84.8936	6,726.56	84.8971	6,726.56	83.8311	6,726.56	83.5409	6,726.56	83.0554	6,726.56	82.6507	6,726.56	80.1818	6,726.56	80.4949	6,726.56	78.9133	6,726.56	77.882	6,726.56	76.1033	6,726.56	74.6789	6,726.56	73.0582	6,726.56	72.6219	6,726.56	70.0353	6,726.56	69.6922	6,726.56	67.2985	6,726.56	67.2208	6,726.56	63.9984	6,726.56	63.9987	6,726.56	59.9725	6,726.56	62.2844	6,726.56	61.2484	6,726.56	64.3267	6,726.56	60.4353	6,726.56	60.5956	6,726.56	63.6007	6,726.56	60.8489	6,726.56	61.3413	6,726.56	60.4293	6,726.56	61.4551	6,726.56	61.4488	6,726.56	48.3584
6,963.87	86.349	6,963.87	86.0945	6,963.87	86.0358	6,963.87	84.9888	6,963.87	85.1846	6,963.87	83.6375	6,963.87	83.6664	6,963.87	82.4149	6,963.87	82.3058	6,963.87	80.3596	6,963.87	80.9004	6,963.87	78.4014	6,963.87	78.2345	6,963.87	75.2268	6,963.87	75.3101	6,963.87	71.273	6,963.87	72.1686	6,963.87	68.2493	6,963.87	68.9906	6,963.87	66.1649	6,963.87	67.2222	6,963.87	63.0505	6,963.87	63.8032	6,963.87	62.8927	6,963.87	63.0512	6,963.87	58.544	6,963.87	57.5	6,963.87	62.0875	6,963.87	58.9591	6,963.87	63.1128	6,963.87	63.5486	6,963.87	62.6149	6,963.87	62.4191	6,963.87	61.2367	6,963.87	60.7308	6,963.87	45.3802
7,209.96	85.819	7,209.96	85.5864	7,209.96	85.8291	7,209.96	84.5751	7,209.96	84.5738	7,209.96	83.1274	7,209.96	83.4016	7,209.96	82.183	7,209.96	81.8758	7,209.96	80.0561	7,209.96	79.5929	7,209.96	77.2196	7,209.96	77.6926	7,209.96	73.2184	7,209.96	74.3256	7,209.96	71.7284	7,209.96	71.8805	7,209.96	69.4377	7,209.96	68.3927	7,209.96	66.0889	7,209.96	64.9025	7,209.96	63.6199	7,209.96	61.8879	7,209.96	61.3927	7,209.96	60.839	7,209.96	59.9112	7,209.96	61.9771	7,209.96	59.1833	7,209.96	59.6751	7,209.96	61.8199	7,209.96	59.8494	7,209.96	59.9343	7,209.96	58.7317	7,209.96	60.9431	7,209.96	59.3636	7,209.96	49.6185
7,464.84	86.0158	7,464.84	85.6151	7,464.84	85.6256	7,464.84	84.5753	7,464.84	84.4726	7,464.84	83.1306	7,464.84	82.8855	7,464.84	81.8894	7,464.84	81.4604	7,464.84	79.4211	7,464.84	79.522	7,464.84	78.3221	7,464.84	76.7585	7,464.84	75.1524	7,464.84	73.7105	7,464.84	71.5095	7,464.84	70.876	7,464.84	69.6318	7,464.84	68.0481	7,464.84	65.9822	7,464.84	63.7939	7,464.84	63.8693	7,464.84	62.9399	7,464.84	63.3346	7,464.84	60.0615	7,464.84	57.4505	7,464.84	55.6991	7,464.84	59.3534	7,464.84	57.453	7,464.84	62.574	7,464.84	61.9322	7,464.84	61.1487	7,464.84	61.2113	7,464.84	58.7598	7,464.84	59.4547	7,464.84	54.9183
7,727.05	85.8082	7,727.05	85.7649	7,727.05	85.6441	7,727.05	84.6303	7,727.05	84.4692	7,727.05	83.1062	7,727.05	82.7373	7,727.05	81.938	7,727.05	80.9055	7,727.05	80.0834	7,727.05	79.018	7,727.05	77.6345	7,727.05	76.469	7,727.05	75.0572	7,727.05	73.6611	7,727.05	71.5152	7,727.05	70.376	7,727.05	68.9049	7,727.05	67.0997	7,727.05	64.5813	7,727.05	64.4074	7,727.05	64.7865	7,727.05	61.2513	7,727.05	59.899	7,727.05	58.3988	7,727.05	54.014	7,727.05	58.5902	7,727.05	55.6802	7,727.05	59.1653	7,727.05	60.993	7,727.05	62.2302	7,727.05	61.3355	7,727.05	62.1891	7,727.05	58.8672	7,727.05	54.4183	7,727.05	53.5828
7,999.51	85.5183	7,999.51	85.6132	7,999.51	85.4759	7,999.51	84.5777	7,999.51	84.4507	7,999.51	82.9583	7,999.51	82.3856	7,999.51	81.8346	7,999.51	81.2826	7,999.51	79.0835	7,999.51	79.0442	7,999.51	76.8774	7,999.51	76.3213	7,999.51	73.1482	7,999.51	73.1858	7,999.51	70.6159	7,999.51	69.3871	7,999.51	68.2715	7,999.51	67.6806	7,999.51	64.1773	7,999.51	64.4208	7,999.51	61.8349	7,999.51	62.0286	7,999.51	58.0289	7,999.51	59.7815	7,999.51	54.6208	7,999.51	55.8128	7,999.51	58.4322	7,999.51	56.1321	7,999.51	62.3785	7,999.51	61.4247	7,999.51	60.724	7,999.51	60.3493	7,999.51	59.0176	7,999.51	57.9594	7,999.51	51.3171
8,282.23	85.8226	8,282.23	85.6159	8,282.23	85.5211	8,282.23	84.5045	8,282.23	84.3799	8,282.23	82.6462	8,282.23	82.2182	8,282.23	81.4433	8,282.23	80.53	8,282.23	78.701	8,282.23	78.5311	8,282.23	76.1145	8,282.23	76.078	8,282.23	72.7482	8,282.23	72.8401	8,282.23	70.1173	8,282.23	69.7067	8,282.23	66.7169	8,282.23	66.946	8,282.23	64.1383	8,282.23	62.8504	8,282.23	60.9383	8,282.23	61.5202	8,282.23	56.803	8,282.23	58.4844	8,282.23	54.7668	8,282.23	57.2134	8,282.23	56.9251	8,282.23	58.5578	8,282.23	61.1564	8,282.23	59.8954	8,282.23	60.2355	8,282.23	56.1226	8,282.23	55.0658	8,282.23	54.8688	8,282.23	53.7597
8,573.73	85.9511	8,573.73	85.6099	8,573.73	85.7658	8,573.73	84.4769	8,573.73	84.1062	8,573.73	82.3724	8,573.73	82.1204	8,573.73	81.0218	8,573.73	80.4423	8,573.73	77.9378	8,573.73	78.3531	8,573.73	75.9325	8,573.73	75.8268	8,573.73	72.262	8,573.73	73.12	8,573.73	69.0027	8,573.73	68.6765	8,573.73	67.4516	8,573.73	66.4698	8,573.73	62.4711	8,573.73	62.1549	8,573.73	60.2185	8,573.73	59.9611	8,573.73	57.8724	8,573.73	59.4204	8,573.73	54.588	8,573.73	56.1367	8,573.73	58.274	8,573.73	54.6494	8,573.73	60.9048	8,573.73	57.6501	8,573.73	57.0063	8,573.73	58.6334	8,573.73	57.0571	8,573.73	53.345	8,573.73	44.8868
8,876.95	86.0281	8,876.95	85.9776	8,876.95	85.7442	8,876.95	84.4714	8,876.95	84.5143	8,876.95	82.6724	8,876.95	82.3186	8,876.95	81.3272	8,876.95	80.5135	8,876.95	77.9549	8,876.95	77.5138	8,876.95	75.3743	8,876.95	75.1175	8,876.95	73.4699	8,876.95	72.2108	8,876.95	68.8622	8,876.95	67.1616	8,876.95	66.9586	8,876.95	65.5829	8,876.95	62.563	8,876.95	61.8909	8,876.95	59.0634	8,876.95	60.5941	8,876.95	59.3222	8,876.95	57.9986	8,876.95	57.6118	8,876.95	52.0751	8,876.95	52.3018	8,876.95	53.4618	8,876.95	60.8958	8,876.95	59.1327	8,876.95	57.4941	8,876.95	60.1299	8,876.95	54.0569	8,876.95	50.2381	8,876.95	46.1876
9,188.96	85.901	9,188.96	85.6823	9,188.96	85.7834	9,188.96	84.5289	9,188.96	84.0952	9,188.96	82.8388	9,188.96	82.272	9,188.96	81.1637	9,188.96	79.902	9,188.96	77.3093	9,188.96	77.2734	9,188.96	75.4314	9,188.96	74.3544	9,188.96	71.8566	9,188.96	71.2183	9,188.96	69.0257	9,188.96	66.7786	9,188.96	66.8923	9,188.96	65.6393	9,188.96	62.7677	9,188.96	62.722	9,188.96	61.4471	9,188.96	59.7358	9,188.96	59.2195	9,188.96	57.3491	9,188.96	56.6886	9,188.96	50.1645	9,188.96	51.5886	9,188.96	49.2668	9,188.96	58.8467	9,188.96	58.434	9,188.96	58.7462	9,188.96	60.6348	9,188.96	53.3424	9,188.96	52.3192	9,188.96	52.3369
9,514.16	86.279	9,514.16	85.9634	9,514.16	85.9604	9,514.16	84.6639	9,514.16	84.2215	9,514.16	82.2649	9,514.16	81.9547	9,514.16	80.2147	9,514.16	79.3921	9,514.16	77.6075	9,514.16	77.0341	9,514.16	74.8208	9,514.16	74.5637	9,514.16	70.8928	9,514.16	71.6559	9,514.16	68.7841	9,514.16	68.3764	9,514.16	65.9637	9,514.16	65.37	9,514.16	60.8332	9,514.16	60.7029	9,514.16	61.2221	9,514.16	59.7846	9,514.16	58.3796	9,514.16	54.9231	9,514.16	52.6646	9,514.16	48.9264	9,514.16	55.0386	9,514.16	52.2245	9,514.16	59.9892	9,514.16	58.819	9,514.16	57.072	9,514.16	60.648	9,514.16	48.9918	9,514.16	49.989	9,514.16	51.7651
9,849.61	86.2363	9,849.61	85.8573	9,849.61	85.8642	9,849.61	84.5056	9,849.61	84.2215	9,849.61	82.2702	9,849.61	81.8306	9,849.61	80.5885	9,849.61	79.5475	9,849.61	77.1153	9,849.61	76.7907	9,849.61	74.9307	9,849.61	74.2324	9,849.61	72.1227	9,849.61	71.3584	9,849.61	68.4855	9,849.61	67.9914	9,849.61	66.6262	9,849.61	64.7489	9,849.61	61.5435	9,849.61	61.876	9,849.61	60.6501	9,849.61	62.0295	9,849.61	55.7119	9,849.61	56.544	9,849.61	55.2796	9,849.61	55.6251	9,849.61	53.7286	9,849.61	53.2028	9,849.61	59.22	9,849.61	57.5692	9,849.61	56.3597	9,849.61	59.6045	9,849.61	49.2299	9,849.61	49.2667	9,849.61	49.8387
10,196.8	86.3895	10,196.8	86.0686	10,196.8	85.9226	10,196.8	84.5708	10,196.8	84.2682	10,196.8	82.2305	10,196.8	81.9695	10,196.8	80.2515	10,196.8	79.2513	10,196.8	76.9148	10,196.8	76.6848	10,196.8	74.5556	10,196.8	73.9751	10,196.8	71.9893	10,196.8	70.0117	10,196.8	68.2252	10,196.8	67.0322	10,196.8	65.6485	10,196.8	64.8843	10,196.8	62.7292	10,196.8	62.7113	10,196.8	59.5458	10,196.8	59.8245	10,196.8	55.8274	10,196.8	54.0242	10,196.8	55.6422	10,196.8	52.7078	10,196.8	52.8735	10,196.8	52.2022	10,196.8	59.5763	10,196.8	56.0403	10,196.8	55.3483	10,196.8	58.3899	10,196.8	49.0704	10,196.8	48.1052	10,196.8	45.0128
10,555.7	86.5242	10,555.7	86.1107	10,555.7	86.0244	10,555.7	84.7356	10,555.7	84.2884	10,555.7	82.2491	10,555.7	81.8146	10,555.7	80.1888	10,555.7	79.2736	10,555.7	77.0001	10,555.7	77.1605	10,555.7	75.4037	10,555.7	74.1605	10,555.7	71.0775	10,555.7	71.3207	10,555.7	69.0888	10,555.7	68.4385	10,555.7	65.8066	10,555.7	65.6686	10,555.7	62.6206	10,555.7	61.9768	10,555.7	59.9442	10,555.7	59.5728	10,555.7	54.5399	10,555.7	51.0174	10,555.7	55.3709	10,555.7	55.8932	10,555.7	53.6521	10,555.7	53.5294	10,555.7	57.648	10,555.7	55.5599	10,555.7	57.1436	10,555.7	57.9299	10,555.7	48.898	10,555.7	49.626	10,555.7	48.493
10,927.7	86.641	10,927.7	86.0186	10,927.7	86.0554	10,927.7	84.6019	10,927.7	84.2474	10,927.7	82.2203	10,927.7	81.8727	10,927.7	80.1748	10,927.7	79.3007	10,927.7	77.3389	10,927.7	77.1156	10,927.7	75.5546	10,927.7	74.5658	10,927.7	71.9234	10,927.7	72.3838	10,927.7	68.5475	10,927.7	69.3263	10,927.7	66.1183	10,927.7	66.0626	10,927.7	62.7107	10,927.7	61.3819	10,927.7	60.024	10,927.7	60.5449	10,927.7	55.5302	10,927.7	56.1677	10,927.7	53.6046	10,927.7	54.9228	10,927.7	52.8247	10,927.7	52.2771	10,927.7	58.7667	10,927.7	56.1216	10,927.7	55.579	10,927.7	56.8136	10,927.7	41.3764	10,927.7	47.8889	10,927.7	51.9573
11,313	86.5723	11,313	85.9359	11,313	85.8687	11,313	84.4172	11,313	84.3134	11,313	82.0536	11,313	81.8516	11,313	80.5625	11,313	79.1571	11,313	76.9963	11,313	77.1147	11,313	75.8103	11,313	74.8705	11,313	73.431	11,313	72.4177	11,313	70.0177	11,313	67.882	11,313	66.7704	11,313	66.044	11,313	63.0352	11,313	63.015	11,313	58.7266	11,313	60.9572	11,313	53.5399	11,313	52.3083	11,313	56.0909	11,313	57.8466	11,313	54.8764	11,313	50.8147	11,313	58.4524	11,313	57.2844	11,313	53.8716	11,313	57.212	11,313	41.5333	11,313	47.9575	11,313	48.2464
11,712.9	86.5249	11,712.9	85.7835	11,712.9	85.7903	11,712.9	84.4674	11,712.9	84.0974	11,712.9	82.1162	11,712.9	81.7805	11,712.9	80.4231	11,712.9	79.4672	11,712.9	77.2644	11,712.9	77.4082	11,712.9	76.3576	11,712.9	75.3279	11,712.9	72.6434	11,712.9	71.8432	11,712.9	69.421	11,712.9	69.1593	11,712.9	66.3842	11,712.9	65.5757	11,712.9	62.7114	11,712.9	64.642	11,712.9	58.8459	11,712.9	59.3333	11,712.9	54.7114	11,712.9	55.0495	11,712.9	53.5313	11,712.9	55.8284	11,712.9	52.4021	11,712.9	51.0196	11,712.9	56.8955	11,712.9	54.8652	11,712.9	54.3621	11,712.9	59.7408	11,712.9	45.6	11,712.9	44.4265	11,712.9	47.7315
12,126	86.1417	12,126	85.5935	12,126	85.5304	12,126	84.192	12,126	83.8861	12,126	81.9884	12,126	81.6497	12,126	80.3509	12,126	79.5356	12,126	77.8383	12,126	78.0588	12,126	76.3327	12,126	75.58	12,126	72.388	12,126	73.1066	12,126	69.0117	12,126	70.1278	12,126	66.9129	12,126	66.4443	12,126	63.7704	12,126	63.7632	12,126	57.9848	12,126	59.9116	12,126	54.5251	12,126	56.978	12,126	57.1405	12,126	57.3076	12,126	52.3193	12,126	52.3959	12,126	56.167	12,126	56.0482	12,126	54.6535	12,126	59.2646	12,126	45.1772	12,126	45.1062	12,126	49.9213
12,553.7	86.0288	12,553.7	85.5303	12,553.7	85.2941	12,553.7	83.9313	12,553.7	83.504	12,553.7	81.9633	12,553.7	81.7321	12,553.7	80.8573	12,553.7	79.6248	12,553.7	77.7358	12,553.7	77.6895	12,553.7	76.2968	12,553.7	75.7233	12,553.7	73.3638	12,553.7	72.5156	12,553.7	69.9931	12,553.7	68.2636	12,553.7	66.0714	12,553.7	66.1376	12,553.7	63.6221	12,553.7	62.4673	12,553.7	58.8887	12,553.7	59.7676	12,553.7	57.7593	12,553.7	54.7413	12,553.7	57.6083	12,553.7	57.6333	12,553.7	51.0076	12,553.7	50.925	12,553.7	56.613	12,553.7	55.1465	12,553.7	54.5066	12,553.7	57.6141	12,553.7	47.402	12,553.7	47.0076	12,553.7	47.7544
12,996.1	85.5448	12,996.1	85.1561	12,996.1	85.0318	12,996.1	83.7177	12,996.1	83.2993	12,996.1	82.2301	12,996.1	81.7223	12,996.1	80.8484	12,996.1	79.7086	12,996.1	77.5317	12,996.1	77.8999	12,996.1	76.1881	12,996.1	75.0982	12,996.1	72.3306	12,996.1	71.9289	12,996.1	69.6311	12,996.1	69.2571	12,996.1	66.5428	12,996.1	65.0569	12,996.1	62.2033	12,996.1	62.7222	12,996.1	57.0593	12,996.1	58.6708	12,996.1	57.4263	12,996.1	54.377	12,996.1	55.8577	12,996.1	56.0165	12,996.1	46.6091	12,996.1	50.2706	12,996.1	55.8727	12,996.1	54.0527	12,996.1	55.1034	12,996.1	58.4258	12,996.1	48.6011	12,996.1	46.1043	12,996.1	46.9969
13,454.6	85.4965	13,454.6	85.1351	13,454.6	85.0925	13,454.6	83.7738	13,454.6	83.3022	13,454.6	82.383	13,454.6	81.9211	13,454.6	81.2126	13,454.6	79.8998	13,454.6	77.8711	13,454.6	78.0335	13,454.6	76.1146	13,454.6	75.12	13,454.6	72.0238	13,454.6	72.396	13,454.6	68.6747	13,454.6	68.7591	13,454.6	66.0168	13,454.6	64.6912	13,454.6	62.0729	13,454.6	62.3351	13,454.6	59.9607	13,454.6	58.6613	13,454.6	57.0688	13,454.6	54.6252	13,454.6	56.4297	13,454.6	55.825	13,454.6	48.4693	13,454.6	48.7135	13,454.6	52.9498	13,454.6	53.6146	13,454.6	54.1931	13,454.6	57.6814	13,454.6	45.7729	13,454.6	49.9544	13,454.6	45.7572
13,929.2	85.5774	13,929.2	85.2405	13,929.2	85.176	13,929.2	84.2013	13,929.2	83.5533	13,929.2	82.6258	13,929.2	82.109	13,929.2	81.5637	13,929.2	80.1595	13,929.2	78.0405	13,929.2	77.8011	13,929.2	76.2753	13,929.2	75.231	13,929.2	72.6587	13,929.2	72.1832	13,929.2	68.2524	13,929.2	67.3396	13,929.2	64.71	13,929.2	64.7762	13,929.2	61.6733	13,929.2	62.024	13,929.2	59.3419	13,929.2	57.6732	13,929.2	57.7097	13,929.2	56.2418	13,929.2	57.3944	13,929.2	57.0186	13,929.2	43.1346	13,929.2	49.7176	13,929.2	53.2901	13,929.2	53.2973	13,929.2	53.5611	13,929.2	57.8926	13,929.2	50.7386	13,929.2	49.8066	13,929.2	47.318
14,419.9	85.92	14,419.9	85.7278	14,419.9	85.5221	14,419.9	84.5678	14,419.9	83.8997	14,419.9	82.9466	14,419.9	82.3523	14,419.9	81.7019	14,419.9	80.3	14,419.9	77.6988	14,419.9	77.8916	14,419.9	75.6604	14,419.9	75.0025	14,419.9	72.1284	14,419.9	71.5299	14,419.9	67.9713	14,419.9	68.3297	14,419.9	64.7008	14,419.9	64.35	14,419.9	61.6616	14,419.9	60.3003	14,419.9	59.5278	14,419.9	58.2043	14,419.9	58.3029	14,419.9	56.0062	14,419.9	56.3121	14,419.9	56.1739	14,419.9	47.9258	14,419.9	50.7911	14,419.9	51.6429	14,419.9	52.227	14,419.9	52.1674	14,419.9	58.4435	14,419.9	49.4996	14,419.9	49.5066	14,419.9	44.2259
14,928.2	86.2673	14,928.2	86.0589	14,928.2	85.8184	14,928.2	84.687	14,928.2	84.1268	14,928.2	82.9476	14,928.2	82.4806	14,928.2	81.8017	14,928.2	80.0974	14,928.2	77.7128	14,928.2	77.6211	14,928.2	75.4614	14,928.2	74.2867	14,928.2	72.3775	14,928.2	71.7531	14,928.2	67.9024	14,928.2	67.4784	14,928.2	65.1012	14,928.2	63.9082	14,928.2	60.4868	14,928.2	60.9554	14,928.2	60.746	14,928.2	58.2206	14,928.2	57.0063	14,928.2	56.0239	14,928.2	53.4897	14,928.2	54.9837	14,928.2	42.7905	14,928.2	49.6968	14,928.2	51.858	14,928.2	51.0658	14,928.2	52.1227	14,928.2	56.8484	14,928.2	51.0911	14,928.2	50.586	14,928.2	37.8482
15,455.6	86.9369	15,455.6	86.5834	15,455.6	86.4254	15,455.6	85.4784	15,455.6	84.7388	15,455.6	83.6	15,455.6	83.0195	15,455.6	82.2412	15,455.6	80.4807	15,455.6	77.8646	15,455.6	77.9946	15,455.6	75.53	15,455.6	74.9486	15,455.6	72.7764	15,455.6	71.712	15,455.6	67.9909	15,455.6	68.0008	15,455.6	65.1603	15,455.6	64.1032	15,455.6	60.0255	15,455.6	61.0117	15,455.6	60.089	15,455.6	58.5878	15,455.6	57.6501	15,455.6	55.3882	15,455.6	53.4186	15,455.6	56.8073	15,455.6	45.4366	15,455.6	51.5068	15,455.6	47.3093	15,455.6	52.3121	15,455.6	49.7673	15,455.6	54.6162	15,455.6	51.0051	15,455.6	50.0753	15,455.6	37.9038
16,000.5	87.3843	16,000.5	87.0857	16,000.5	86.8423	16,000.5	85.999	16,000.5	85.0906	16,000.5	84.0422	16,000.5	83.3571	16,000.5	82.6406	16,000.5	80.7803	16,000.5	78.0097	16,000.5	78.3745	16,000.5	75.9191	16,000.5	75.1786	16,000.5	73.0954	16,000.5	71.8842	16,000.5	68.8788	16,000.5	68.3287	16,000.5	64.3231	16,000.5	65.2026	16,000.5	60.9362	16,000.5	60.5872	16,000.5	60.0939	16,000.5	58.8669	16,000.5	55.5966	16,000.5	56.5412	16,000.5	50.801	16,000.5	56.2538	16,000.5	46.1831	16,000.5	52.2918	16,000.5	43.4282	16,000.5	51.2726	16,000.5	45.4482	16,000.5	54.865	16,000.5	52.1523	16,000.5	51.4464	16,000.5	28.5229
16,564.5	87.5999	16,564.5	87.3746	16,564.5	86.986	16,564.5	86.2375	16,564.5	85.2496	16,564.5	84.1389	16,564.5	83.6201	16,564.5	82.999	16,564.5	81.1156	16,564.5	78.4637	16,564.5	78.7383	16,564.5	76.0399	16,564.5	75.5716	16,564.5	73.024	16,564.5	72.6107	16,564.5	69.4417	16,564.5	68.1181	16,564.5	65.6019	16,564.5	65.5941	16,564.5	59.889	16,564.5	60.9394	16,564.5	59.8031	16,564.5	59.6588	16,564.5	54.9907	16,564.5	56.7135	16,564.5	51.0844	16,564.5	56.153	16,564.5	45.0187	16,564.5	52.4854	16,564.5	46.1062	16,564.5	52.7192	16,564.5	46.3124	16,564.5	54.1737	16,564.5	50.5409	16,564.5	51.9374	16,564.5	29.8646
17,148.9	87.6712	17,148.9	87.41	17,148.9	87.0719	17,148.9	86.6222	17,148.9	85.375	17,148.9	84.6855	17,148.9	84.2315	17,148.9	83.6409	17,148.9	81.7749	17,148.9	78.7024	17,148.9	79.4799	17,148.9	76.492	17,148.9	76.3101	17,148.9	72.8305	17,148.9	73.1132	17,148.9	69.8095	17,148.9	69.1907	17,148.9	66.6686	17,148.9	66.3087	17,148.9	60.9484	17,148.9	61.745	17,148.9	61.4134	17,148.9	59.8252	17,148.9	55.1261	17,148.9	57.3404	17,148.9	46.9249	17,148.9	57.087	17,148.9	43.4249	17,148.9	52.9935	17,148.9	40.5788	17,148.9	52.3129	17,148.9	45.9213	17,148.9	53.4583	17,148.9	45.7981	17,148.9	52.6156	17,148.9	37.7851
17,752.4	87.7707	17,752.4	87.7631	17,752.4	87.3237	17,752.4	87.1075	17,752.4	85.7117	17,752.4	85.4512	17,752.4	84.7648	17,752.4	84.3351	17,752.4	82.5092	17,752.4	79.4156	17,752.4	80.2724	17,752.4	77.1356	17,752.4	76.9092	17,752.4	73.4818	17,752.4	74.4077	17,752.4	70.3733	17,752.4	68.6784	17,752.4	66.7642	17,752.4	66.8552	17,752.4	61.7278	17,752.4	62.3655	17,752.4	61.6595	17,752.4	60.0342	17,752.4	54.7278	17,752.4	58.4254	17,752.4	49.5067	17,752.4	57.0008	17,752.4	42.1676	17,752.4	54.2742	17,752.4	44.7454	17,752.4	53.4718	17,752.4	50.6054	17,752.4	50.9613	17,752.4	47.0208	17,752.4	53.0685	17,752.4	38.7118
18,379.4	87.8657	18,379.4	88.069	18,379.4	87.341	18,379.4	87.602	18,379.4	86.0251	18,379.4	86.062	18,379.4	85.478	18,379.4	84.9432	18,379.4	83.3235	18,379.4	79.8863	18,379.4	80.8724	18,379.4	77.3811	18,379.4	77.4639	18,379.4	73.3673	18,379.4	74.694	18,379.4	71.1869	18,379.4	70.5997	18,379.4	67.9574	18,379.4	67.5479	18,379.4	62.3089	18,379.4	62.5309	18,379.4	62.1713	18,379.4	60.5892	18,379.4	54.4181	18,379.4	58.6735	18,379.4	47.7087	18,379.4	57.9048	18,379.4	28.447	18,379.4	55.0773	18,379.4	42.7018	18,379.4	52.166	18,379.4	50.7244	18,379.4	50.469	18,379.4	50.4757	18,379.4	54.2852	18,379.4	38.1988
19,026.9	87.573	19,026.9	88.0197	19,026.9	87.2454	19,026.9	87.7192	19,026.9	86.1768	19,026.9	86.3844	19,026.9	86.0036	19,026.9	85.3793	19,026.9	83.7941	19,026.9	80.3788	19,026.9	81.187	19,026.9	78.0315	19,026.9	77.7029	19,026.9	73.8898	19,026.9	75.0118	19,026.9	71.3082	19,026.9	70.5519	19,026.9	67.9417	19,026.9	67.4176	19,026.9	63.1443	19,026.9	62.6789	19,026.9	62.3389	19,026.9	58.9958	19,026.9	55.5324	19,026.9	58.6246	19,026.9	50.7362	19,026.9	58.1542	19,026.9	39.7436	19,026.9	55.4247	19,026.9	46.5202	19,026.9	53.605	19,026.9	50.7122	19,026.9	49.0866	19,026.9	51.907	19,026.9	55.2718	19,026.9	43.9811
19,697.8	86.9878	19,697.8	87.5864	19,697.8	87.1637	19,697.8	87.5453	19,697.8	86.4364	19,697.8	86.4802	19,697.8	86.385	19,697.8	85.8544	19,697.8	84.1322	19,697.8	80.8312	19,697.8	81.2825	19,697.8	78.0618	19,697.8	77.5127	19,697.8	74.2015	19,697.8	75.0916	19,697.8	71.0889	19,697.8	70.5257	19,697.8	68.3649	19,697.8	67.1296	19,697.8	63.0997	19,697.8	63.2142	19,697.8	63.7852	19,697.8	59.8465	19,697.8	54.5297	19,697.8	57.9745	19,697.8	53.4338	19,697.8	57.0181	19,697.8	29.1026	19,697.8	55.4638	19,697.8	48.8121	19,697.8	53.9777	19,697.8	49.3737	19,697.8	46.5737	19,697.8	49.6469	19,697.8	54.6541	19,697.8	48.206
19,999.5	86.665	19,999.5	87.0729	19,999.5	87.2376	19,999.5	87.1472	19,999.5	86.5573	19,999.5	86.1595	19,999.5	86.2484	19,999.5	85.5348	19,999.5	83.9086	19,999.5	80.8925	19,999.5	81.5267	19,999.5	77.9109	19,999.5	77.5064	19,999.5	74.1956	19,999.5	76.2724	19,999.5	72.0044	19,999.5	70.6478	19,999.5	69.0671	19,999.5	64.8602	19,999.5	63.7554	19,999.5	64.1635	19,999.5	64.8843	19,999.5	63.5701	19,999.5	59.4055	19,999.5	53.4486	19,999.5	47.7753	19,999.5	57.4459	19,999.5	40.4755	19,999.5	61.9424	19,999.5	50.4892	19,999.5	47.6002	19,999.5	43.3178	19,999.5	47.645	19,999.5	49.034	19,999.5	56.9056	19,999.5	51.8402
