"SPL Horizontal"																																																																							
"On-Axis"		"10°"		"-10°"		"20°"		"-20°"		"30°"		"-30°"		"40°"		"-40°"		"50°"		"-50°"		"60°"		"-60°"		"70°"		"-70°"		"80°"		"-80°"		"90°"		"-90°"		"100°"		"-100°"		"110°"		"-110°"		"120°"		"-120°"		"130°"		"-130°"		"140°"		"-140°"		"150°"		"-150°"		"160°"		"-160°"		"170°"		"-170°"		"180°"	
"Frequency [Hz]"	"Sound Pessure Level [dB]  / [2.83V 1m] "	"Frequency [Hz]"	"Sound Pessure Level [dB]  / [2.83V 1m] "	"Frequency [Hz]"	"Sound Pessure Level [dB]  / [2.83V 1m] "	"Frequency [Hz]"	"Sound Pessure Level [dB]  / [2.83V 1m] "	"Frequency [Hz]"	"Sound Pessure Level [dB]  / [2.83V 1m] "	"Frequency [Hz]"	"Sound Pessure Level [dB]  / [2.83V 1m] "	"Frequency [Hz]"	"Sound Pessure Level [dB]  / [2.83V 1m] "	"Frequency [Hz]"	"Sound Pessure Level [dB]  / [2.83V 1m] "	"Frequency [Hz]"	"Sound Pessure Level [dB]  / [2.83V 1m] "	"Frequency [Hz]"	"Sound Pessure Level [dB]  / [2.83V 1m] "	"Frequency [Hz]"	"Sound Pessure Level [dB]  / [2.83V 1m] "	"Frequency [Hz]"	"Sound Pessure Level [dB]  / [2.83V 1m] "	"Frequency [Hz]"	"Sound Pessure Level [dB]  / [2.83V 1m] "	"Frequency [Hz]"	"Sound Pessure Level [dB]  / [2.83V 1m] "	"Frequency [Hz]"	"Sound Pessure Level [dB]  / [2.83V 1m] "	"Frequency [Hz]"	"Sound Pessure Level [dB]  / [2.83V 1m] "	"Frequency [Hz]"	"Sound Pessure Level [dB]  / [2.83V 1m] "	"Frequency [Hz]"	"Sound Pessure Level [dB]  / [2.83V 1m] "	"Frequency [Hz]"	"Sound Pessure Level [dB]  / [2.83V 1m] "	"Frequency [Hz]"	"Sound Pessure Level [dB]  / [2.83V 1m] "	"Frequency [Hz]"	"Sound Pessure Level [dB]  / [2.83V 1m] "	"Frequency [Hz]"	"Sound Pessure Level [dB]  / [2.83V 1m] "	"Frequency [Hz]"	"Sound Pessure Level [dB]  / [2.83V 1m] "	"Frequency [Hz]"	"Sound Pessure Level [dB]  / [2.83V 1m] "	"Frequency [Hz]"	"Sound Pessure Level [dB]  / [2.83V 1m] "	"Frequency [Hz]"	"Sound Pessure Level [dB]  / [2.83V 1m] "	"Frequency [Hz]"	"Sound Pessure Level [dB]  / [2.83V 1m] "	"Frequency [Hz]"	"Sound Pessure Level [dB]  / [2.83V 1m] "	"Frequency [Hz]"	"Sound Pessure Level [dB]  / [2.83V 1m] "	"Frequency [Hz]"	"Sound Pessure Level [dB]  / [2.83V 1m] "	"Frequency [Hz]"	"Sound Pessure Level [dB]  / [2.83V 1m] "	"Frequency [Hz]"	"Sound Pessure Level [dB]  / [2.83V 1m] "	"Frequency [Hz]"	"Sound Pessure Level [dB]  / [2.83V 1m] "	"Frequency [Hz]"	"Sound Pessure Level [dB]  / [2.83V 1m] "	"Frequency [Hz]"	"Sound Pessure Level [dB]  / [2.83V 1m] "	"Frequency [Hz]"	"Sound Pessure Level [dB]  / [2.83V 1m] "
20.5078	43.9761	20.5078	43.9725	20.5078	43.9479	20.5078	43.9372	20.5078	43.8882	20.5078	43.8699	20.5078	43.797	20.5078	43.7708	20.5078	43.6747	20.5078	43.6401	20.5078	43.5219	20.5078	43.4786	20.5078	43.3397	20.5078	43.2879	20.5078	43.1305	20.5078	43.0705	20.5078	42.8976	20.5078	42.8304	20.5078	42.646	20.5078	42.5733	20.5078	42.3828	20.5078	42.3069	20.5078	42.1166	20.5078	42.0404	20.5078	41.8579	20.5078	41.7848	20.5078	41.6179	20.5078	41.5516	20.5078	41.4079	20.5078	41.3521	20.5078	41.2382	20.5078	41.196	20.5078	41.1172	20.5078	41.0909	20.5078	41.0507	20.5078	41.0418
21.2402	49.5007	21.2402	49.5262	21.2402	49.4665	21.2402	49.5427	21.2402	49.4245	21.2402	49.5496	21.2402	49.3756	21.2402	49.5467	21.2402	49.3207	21.2402	49.5337	21.2402	49.2612	21.2402	49.5109	21.2402	49.1987	21.2402	49.4785	21.2402	49.1351	21.2402	49.4372	21.2402	49.0726	21.2402	49.3881	21.2402	49.0135	21.2402	49.3325	21.2402	48.96	21.2402	49.2722	21.2402	48.9143	21.2402	49.2092	21.2402	48.8782	21.2402	49.1457	21.2402	48.8528	21.2402	49.084	21.2402	48.8386	21.2402	49.0261	21.2402	48.8359	21.2402	48.9738	21.2402	48.8441	21.2402	48.9284	21.2402	48.8628	21.2402	48.8911
21.9727	49.3343	21.9727	49.3312	21.9727	49.3251	21.9727	49.3156	21.9727	49.3038	21.9727	49.2875	21.9727	49.2706	21.9727	49.2467	21.9727	49.2258	21.9727	49.1933	21.9727	49.1697	21.9727	49.1277	21.9727	49.103	21.9727	49.0505	21.9727	49.0266	21.9727	48.9628	21.9727	48.9418	21.9727	48.8666	21.9727	48.8502	21.9727	48.7642	21.9727	48.7541	21.9727	48.6589	21.9727	48.6559	21.9727	48.5548	21.9727	48.5589	21.9727	48.4565	21.9727	48.4665	21.9727	48.3687	21.9727	48.3824	21.9727	48.296	21.9727	48.3104	21.9727	48.2424	21.9727	48.2543	21.9727	48.2108	21.9727	48.2175	21.9727	48.2025
22.7051	49.2888	22.7051	49.2772	22.7051	49.2838	22.7051	49.2488	22.7051	49.2623	22.7051	49.2039	22.7051	49.2247	22.7051	49.1424	22.7051	49.1714	22.7051	49.065	22.7051	49.103	22.7051	48.9724	22.7051	49.0205	22.7051	48.8658	22.7051	48.9249	22.7051	48.7469	22.7051	48.8175	22.7051	48.6182	22.7051	48.7003	22.7051	48.4829	22.7051	48.5754	22.7051	48.3453	22.7051	48.4457	22.7051	48.2105	22.7051	48.3148	22.7051	48.0844	22.7051	48.1872	22.7051	47.9733	22.7051	48.0679	22.7051	47.8832	22.7051	47.9626	22.7051	47.8197	22.7051	47.8771	22.7051	47.7866	22.7051	47.8167	22.7051	47.7857
23.4375	50.3139	23.4375	50.3093	23.4375	50.3017	23.4375	50.2875	23.4375	50.273	23.4375	50.2484	23.4375	50.2279	23.4375	50.1918	23.4375	50.1668	23.4375	50.1178	23.4375	50.0903	23.4375	50.0265	23.4375	49.9988	23.4375	49.9188	23.4375	49.8933	23.4375	49.796	23.4375	49.7751	23.4375	49.66	23.4375	49.6459	23.4375	49.5142	23.4375	49.5083	23.4375	49.3626	23.4375	49.3656	23.4375	49.2109	23.4375	49.2221	23.4375	49.0657	23.4375	49.0832	23.4375	48.9341	23.4375	48.9549	23.4375	48.8235	23.4375	48.8439	23.4375	48.7407	23.4375	48.757	23.4375	48.691	23.4375	48.7	23.4375	48.6772
24.1699	51.2632	24.1699	51.2535	24.1699	51.2587	24.1699	51.2298	24.1699	51.2402	24.1699	51.1919	24.1699	51.2075	24.1699	51.1401	24.1699	51.1609	24.1699	51.0746	24.1699	51.1005	24.1699	50.9958	24.1699	51.0268	24.1699	50.9046	24.1699	50.9404	24.1699	50.8021	24.1699	50.8425	24.1699	50.6904	24.1699	50.7348	24.1699	50.572	24.1699	50.6195	24.1699	50.4504	24.1699	50.4998	24.1699	50.3299	24.1699	50.3794	24.1699	50.2157	24.1699	50.2629	24.1699	50.1132	24.1699	50.1556	24.1699	50.028	24.1699	50.0629	24.1699	49.9651	24.1699	49.99	24.1699	49.9285	24.1699	49.9415	24.1699	49.9205
25.6348	52.1268	25.6348	52.1266	25.6348	52.1115	25.6348	52.1109	25.6348	52.0808	25.6348	52.0795	25.6348	52.0348	25.6348	52.0326	25.6348	51.9738	25.6348	51.9703	25.6348	51.8983	25.6348	51.8929	25.6348	51.8088	25.6348	51.8012	25.6348	51.7064	25.6348	51.6964	25.6348	51.5927	25.6348	51.5802	25.6348	51.4701	25.6348	51.455	25.6348	51.3415	25.6348	51.3243	25.6348	51.2108	25.6348	51.1922	25.6348	51.0827	25.6348	51.0638	25.6348	50.9627	25.6348	50.9446	25.6348	50.8565	25.6348	50.8406	25.6348	50.7698	25.6348	50.7574	25.6348	50.7078	25.6348	50.6998	25.6348	50.6743	25.6348	50.6716
26.3672	52.6566	26.3672	52.6563	26.3672	52.6409	26.3672	52.6399	26.3672	52.6092	26.3672	52.6073	26.3672	52.5617	26.3672	52.5588	26.3672	52.4985	26.3672	52.4944	26.3672	52.4202	26.3672	52.4145	26.3672	52.3272	26.3672	52.3198	26.3672	52.2207	26.3672	52.2114	26.3672	52.1023	26.3672	52.0911	26.3672	51.9742	26.3672	51.9614	26.3672	51.8395	26.3672	51.8256	26.3672	51.7024	26.3672	51.6878	26.3672	51.5677	26.3672	51.5534	26.3672	51.4413	26.3672	51.428	26.3672	51.3294	26.3672	51.3179	26.3672	51.2382	26.3672	51.2293	26.3672	51.1731	26.3672	51.1676	26.3672	51.1385	26.3672	51.1366
27.0996	52.4274	27.0996	52.4273	27.0996	52.4088	27.0996	52.4083	27.0996	52.3715	27.0996	52.3702	27.0996	52.3156	27.0996	52.313	27.0996	52.2413	27.0996	52.2366	27.0996	52.1488	27.0996	52.1411	27.0996	52.0387	27.0996	52.0271	27.0996	51.9119	27.0996	51.8957	27.0996	51.7701	27.0996	51.7488	27.0996	51.6158	27.0996	51.5892	27.0996	51.4525	27.0996	51.4211	27.0996	51.2848	27.0996	51.2498	27.0996	51.1188	27.0996	51.082	27.0996	50.9614	27.0996	50.9254	27.0996	50.8206	27.0996	50.7882	27.0996	50.7042	27.0996	50.6784	27.0996	50.6197	27.0996	50.603	27.0996	50.5728	27.0996	50.567
27.832	53.5692	27.832	53.5679	27.832	53.5548	27.832	53.5506	27.832	53.5245	27.832	53.5175	27.832	53.4784	27.832	53.4684	27.832	53.4166	27.832	53.4032	27.832	53.3393	27.832	53.3224	27.832	53.2469	27.832	53.2262	27.832	53.1404	27.832	53.1158	27.832	53.021	27.832	52.9927	27.832	52.8911	27.832	52.8595	27.832	52.7537	27.832	52.7195	27.832	52.6128	27.832	52.5773	27.832	52.4737	27.832	52.4384	27.832	52.3421	27.832	52.309	27.832	52.2246	27.832	52.1959	27.832	52.1278	27.832	52.1055	27.832	52.0577	27.832	52.0435	27.832	52.0188	27.832	52.0139
29.2969	54.154	29.2969	54.1371	29.2969	54.1541	29.2969	54.1033	29.2969	54.1371	29.2969	54.0528	29.2969	54.1033	29.2969	53.9859	29.2969	54.0525	29.2969	53.9032	29.2969	53.9853	29.2969	53.8055	29.2969	53.9019	29.2969	53.6941	29.2969	53.8034	29.2969	53.571	29.2969	53.691	29.2969	53.4388	29.2969	53.5667	29.2969	53.301	29.2969	53.4333	29.2969	53.1618	29.2969	53.2943	29.2969	53.0265	29.2969	53.1543	29.2969	52.9006	29.2969	53.0184	29.2969	52.7901	29.2969	52.8926	29.2969	52.7006	29.2969	52.7828	29.2969	52.6373	29.2969	52.6948	29.2969	52.604	29.2969	52.6335	29.2969	52.6027
30.0293	54.5502	30.0293	54.5346	30.0293	54.5465	30.0293	54.5	30.0293	54.5235	30.0293	54.4465	30.0293	54.4813	30.0293	54.3744	30.0293	54.4199	30.0293	54.2844	30.0293	54.3395	30.0293	54.1774	30.0293	54.2409	30.0293	54.0547	30.0293	54.1247	30.0293	53.9184	30.0293	53.9927	30.0293	53.7711	30.0293	53.8471	30.0293	53.6163	30.0293	53.6913	30.0293	53.4585	30.0293	53.5295	30.0293	53.3028	30.0293	53.3674	30.0293	53.1554	30.0293	53.2114	30.0293	53.0229	30.0293	53.0688	30.0293	52.912	30.0293	52.9468	30.0293	52.8291	30.0293	52.8524	30.0293	52.7794	30.0293	52.791	30.0293	52.7663
31.4941	56.2197	31.4941	56.2144	31.4941	56.2077	31.4941	56.1918	31.4941	56.1784	31.4941	56.1522	31.4941	56.1318	31.4941	56.0955	31.4941	56.068	31.4941	56.0221	31.4941	55.9871	31.4941	55.9325	31.4941	55.8898	31.4941	55.8275	31.4941	55.7771	31.4941	55.7085	31.4941	55.6506	31.4941	55.5775	31.4941	55.5128	31.4941	55.4372	31.4941	55.367	31.4941	55.2915	31.4941	55.2178	31.4941	55.1449	31.4941	55.0705	31.4941	55.003	31.4941	54.9315	31.4941	54.872	31.4941	54.8074	31.4941	54.7584	31.4941	54.7051	31.4941	54.6686	31.4941	54.6304	31.4941	54.6079	31.4941	54.588	31.4941	54.5804
32.2266	56.7084	32.2266	56.6976	32.2266	56.7034	32.2266	56.6708	32.2266	56.6824	32.2266	56.6282	32.2266	56.6454	32.2266	56.5698	32.2266	56.5927	32.2266	56.4962	32.2266	56.5244	32.2266	56.4077	32.2266	56.441	32.2266	56.3054	32.2266	56.3434	32.2266	56.1909	32.2266	56.233	32.2266	56.0663	32.2266	56.1118	32.2266	55.9347	32.2266	55.9825	32.2266	55.8001	32.2266	55.8487	32.2266	55.6671	32.2266	55.7148	32.2266	55.5413	32.2266	55.5861	32.2266	55.4287	32.2266	55.4682	32.2266	55.335	32.2266	55.3671	32.2266	55.2656	32.2266	55.2883	32.2266	55.2247	32.2266	55.2364	32.2266	55.2147
33.6914	57.6929	33.6914	57.6831	33.6914	57.6886	33.6914	57.6596	33.6914	57.6703	33.6914	57.6223	33.6914	57.6379	33.6914	57.5716	33.6914	57.5913	33.6914	57.5077	33.6914	57.5308	33.6914	57.4311	33.6914	57.4567	33.6914	57.3427	33.6914	57.3697	33.6914	57.2436	33.6914	57.2712	33.6914	57.1357	33.6914	57.1628	33.6914	57.0215	33.6914	57.0472	33.6914	56.904	33.6914	56.9277	33.6914	56.7874	33.6914	56.8083	33.6914	56.6762	33.6914	56.6939	33.6914	56.5755	33.6914	56.5899	33.6914	56.4907	33.6914	56.5014	33.6914	56.4265	33.6914	56.4336	33.6914	56.3869	33.6914	56.3904	33.6914	56.3746
34.4238	58.0011	34.4238	57.9863	34.4238	58.0001	34.4238	57.9558	34.4238	57.9831	34.4238	57.9098	34.4238	57.95	34.4238	57.8487	34.4238	57.901	34.4238	57.7729	34.4238	57.8362	34.4238	57.6833	34.4238	57.7561	34.4238	57.581	34.4238	57.6616	34.4238	57.4676	34.4238	57.5539	34.4238	57.3454	34.4238	57.4351	34.4238	57.2173	34.4238	57.3077	34.4238	57.087	34.4238	57.1754	34.4238	56.9592	34.4238	57.0425	34.4238	56.8389	34.4238	56.9141	34.4238	56.7318	34.4238	56.7961	34.4238	56.6434	34.4238	56.6942	34.4238	56.5788	34.4238	56.614	34.4238	56.5421	34.4238	56.56	34.4238	56.5356
35.8887	58.852	35.8887	58.8453	35.8887	58.8445	35.8887	58.8246	35.8887	58.8227	35.8887	58.79	35.8887	58.7867	35.8887	58.7417	35.8887	58.7365	35.8887	58.6803	35.8887	58.6726	35.8887	58.6063	35.8887	58.5954	35.8887	58.5206	35.8887	58.5059	35.8887	58.4245	35.8887	58.4056	35.8887	58.3198	35.8887	58.2965	35.8887	58.2088	35.8887	58.1814	35.8887	58.0946	35.8887	58.0637	35.8887	57.9808	35.8887	57.9478	35.8887	57.8716	35.8887	57.8385	35.8887	57.7717	35.8887	57.7408	35.8887	57.6861	35.8887	57.6599	35.8887	57.6192	35.8887	57.6002	35.8887	57.5751	35.8887	57.5651	35.8887	57.5566
37.3535	59.3067	37.3535	59.3012	37.3535	59.2976	37.3535	59.2811	37.3535	59.2737	37.3535	59.2466	37.3535	59.2352	37.3535	59.1981	37.3535	59.1824	37.3535	59.136	37.3535	59.1157	37.3535	59.0611	37.3535	59.0358	37.3535	58.9743	37.3535	58.9439	37.3535	58.8771	37.3535	58.8417	37.3535	58.7715	37.3535	58.7314	37.3535	58.6597	37.3535	58.6158	37.3535	58.5451	37.3535	58.4987	37.3535	58.4312	37.3535	58.3842	37.3535	58.3222	37.3535	58.277	37.3535	58.2228	37.3535	58.182	37.3535	58.1375	37.3535	58.1039	37.3535	58.0709	37.3535	58.0469	37.3535	58.0266	37.3535	58.014	37.3535	58.0072
38.8184	60.0517	38.8184	60.0472	38.8184	60.0403	38.8184	60.0267	38.8184	60.0129	38.8184	59.9906	38.8184	59.9695	38.8184	59.9392	38.8184	59.9105	38.8184	59.873	38.8184	59.8364	38.8184	59.7927	38.8184	59.748	38.8184	59.6993	38.8184	59.6464	38.8184	59.5944	38.8184	59.5337	38.8184	59.48	38.8184	59.4121	38.8184	59.3586	38.8184	59.2851	38.8184	59.2334	38.8184	59.1566	38.8184	59.1085	38.8184	59.0313	38.8184	58.9884	38.8184	58.9145	38.8184	58.878	38.8184	58.8116	38.8184	58.7825	38.8184	58.7279	38.8184	58.7067	38.8184	58.6679	38.8184	58.655	38.8184	58.6348	38.8184	58.6305
39.5508	60.0328	39.5508	60.0379	39.5508	60.0113	39.5508	60.0268	39.5508	59.9736	39.5508	59.9995	39.5508	59.9197	39.5508	59.9565	39.5508	59.8502	39.5508	59.8981	39.5508	59.7657	39.5508	59.825	39.5508	59.6673	39.5508	59.7382	39.5508	59.5567	39.5508	59.639	39.5508	59.4362	39.5508	59.5291	39.5508	59.3089	39.5508	59.4109	39.5508	59.1785	39.5508	59.2871	39.5508	59.0498	39.5508	59.1613	39.5508	58.9278	39.5508	59.0376	39.5508	58.8183	39.5508	58.9205	39.5508	58.7266	39.5508	58.8149	39.5508	58.6575	39.5508	58.7259	39.5508	58.6147	39.5508	58.6581	39.5508	58.6005	39.5508	58.6154
41.0156	61.7339	41.0156	61.7027	41.0156	61.75	41.0156	61.657	41.0156	61.7509	41.0156	61.5974	41.0156	61.7361	41.0156	61.5245	41.0156	61.7055	41.0156	61.4392	41.0156	61.6591	41.0156	61.3428	41.0156	61.5971	41.0156	61.2368	41.0156	61.5199	41.0156	61.1232	41.0156	61.4285	41.0156	61.0047	41.0156	61.3243	41.0156	60.8845	41.0156	61.2094	41.0156	60.7666	41.0156	61.0865	41.0156	60.6554	41.0156	60.9593	41.0156	60.5557	41.0156	60.8322	41.0156	60.4726	41.0156	60.7104	41.0156	60.4107	41.0156	60.5995	41.0156	60.3738	41.0156	60.5049	41.0156	60.3646	41.0156	60.4318	41.0156	60.3842
42.4805	62.4502	42.4805	62.4366	42.4805	62.4484	42.4805	62.4077	42.4805	62.4311	42.4805	62.3637	42.4805	62.3984	42.4805	62.3051	42.4805	62.3504	42.4805	62.2325	42.4805	62.2876	42.4805	62.1467	42.4805	62.2107	42.4805	62.0491	42.4805	62.1207	42.4805	61.9413	42.4805	62.0192	42.4805	61.8259	42.4805	61.9082	42.4805	61.7057	42.4805	61.7903	42.4805	61.5845	42.4805	61.669	42.4805	61.4668	42.4805	61.5482	42.4805	61.3572	42.4805	61.4324	42.4805	61.2608	42.4805	61.3263	42.4805	61.1823	42.4805	61.235	42.4805	61.126	42.4805	61.1629	42.4805	61.0949	42.4805	61.1139	42.4805	61.0908
43.9453	62.8794	43.9453	62.8651	43.9453	62.8791	43.9453	62.8364	43.9453	62.8643	43.9453	62.7937	43.9453	62.8349	43.9453	62.7372	43.9453	62.7912	43.9453	62.6677	43.9453	62.7334	43.9453	62.586	43.9453	62.6622	43.9453	62.4934	43.9453	62.5785	43.9453	62.3916	43.9453	62.4837	43.9453	62.2829	43.9453	62.3797	43.9453	62.1702	43.9453	62.2689	43.9453	62.0569	43.9453	62.1544	43.9453	61.9471	43.9453	62.0401	43.9453	61.8453	43.9453	61.9301	43.9453	61.7561	43.9453	61.8292	43.9453	61.6838	43.9453	61.742	43.9453	61.6323	43.9453	61.6728	43.9453	61.6045	43.9453	61.6253	43.9453	61.6021
45.4102	63.414	45.4102	63.4053	45.4102	63.408	45.4102	63.3822	45.4102	63.3875	45.4102	63.3446	45.4102	63.3524	45.4102	63.2931	45.4102	63.303	45.4102	63.2279	45.4102	63.2398	45.4102	63.1499	45.4102	63.1634	45.4102	63.0601	45.4102	63.0748	45.4102	62.96	45.4102	62.9755	45.4102	62.8517	45.4102	62.8674	45.4102	62.7378	45.4102	62.7534	45.4102	62.6216	45.4102	62.6366	45.4102	62.5073	45.4102	62.5211	45.4102	62.3991	45.4102	62.4114	45.4102	62.302	45.4102	62.3123	45.4102	62.2206	45.4102	62.2287	45.4102	62.1594	45.4102	62.1649	45.4102	62.1217	45.4102	62.1245	45.4102	62.1098
47.6074	64.335	47.6074	64.3271	47.6074	64.3294	47.6074	64.3057	47.6074	64.3101	47.6074	64.2712	47.6074	64.2773	47.6074	64.224	47.6074	64.2313	47.6074	64.1645	47.6074	64.1725	47.6074	64.0937	47.6074	64.1017	47.6074	64.0126	47.6074	64.02	47.6074	63.9228	47.6074	63.9289	47.6074	63.826	47.6074	63.8307	47.6074	63.7249	47.6074	63.7278	47.6074	63.6224	47.6074	63.6234	47.6074	63.5218	47.6074	63.5212	47.6074	63.427	47.6074	63.4252	47.6074	63.342	47.6074	63.3395	47.6074	63.2707	47.6074	63.2681	47.6074	63.2166	47.6074	63.2145	47.6074	63.1827	47.6074	63.1815	47.6074	63.1707
49.0723	64.9072	49.0723	64.8981	49.0723	64.9019	49.0723	64.8747	49.0723	64.8821	49.0723	64.8374	49.0723	64.8479	49.0723	64.7865	49.0723	64.7996	49.0723	64.7229	49.0723	64.7378	49.0723	64.6475	49.0723	64.6633	49.0723	64.5615	49.0723	64.5774	49.0723	64.4666	49.0723	64.4817	49.0723	64.3648	49.0723	64.3785	49.0723	64.2589	49.0723	64.2704	49.0723	64.1518	49.0723	64.1609	49.0723	64.0472	49.0723	64.0537	49.0723	63.9489	49.0723	63.9531	49.0723	63.861	49.0723	63.8633	49.0723	63.7875	49.0723	63.7885	49.0723	63.732	49.0723	63.7322	49.0723	63.6974	49.0723	63.6974	49.0723	63.6856
50.5371	65.438	50.5371	65.4283	50.5371	65.4332	50.5371	65.4043	50.5371	65.4139	50.5371	65.3663	50.5371	65.3802	50.5371	65.3148	50.5371	65.3324	50.5371	65.2504	50.5371	65.271	50.5371	65.1742	50.5371	65.1968	50.5371	65.0874	50.5371	65.111	50.5371	64.9916	50.5371	65.0152	50.5371	64.8889	50.5371	64.9117	50.5371	64.7821	50.5371	64.8032	50.5371	64.6741	50.5371	64.693	50.5371	64.5688	50.5371	64.5849	50.5371	64.4701	50.5371	64.4832	50.5371	64.382	50.5371	64.3921	50.5371	64.3087	50.5371	64.3159	50.5371	64.2536	50.5371	64.2583	50.5371	64.2198	50.5371	64.222	50.5371	64.209
52.7344	66.1891	52.7344	66.1773	52.7344	66.1865	52.7344	66.1515	52.7344	66.1695	52.7344	66.112	52.7344	66.1382	52.7344	66.0594	52.7344	66.093	52.7344	65.9944	52.7344	66.0343	52.7344	65.9181	52.7344	65.963	52.7344	65.832	52.7344	65.8803	52.7344	65.7377	52.7344	65.7879	52.7344	65.6376	52.7344	65.688	52.7344	65.5344	52.7344	65.5833	52.7344	65.4311	52.7344	65.477	52.7344	65.3313	52.7344	65.3727	52.7344	65.2387	52.7344	65.2746	52.7344	65.1571	52.7344	65.1866	52.7344	65.09	52.7344	65.1126	52.7344	65.0408	52.7344	65.056	52.7344	65.0117	52.7344	65.0193	52.7344	65.0044
54.1992	66.7984	54.1992	66.7877	54.1992	66.7951	54.1992	66.7633	54.1992	66.7777	54.1992	66.7255	54.1992	66.7465	54.1992	66.6748	54.1992	66.7017	54.1992	66.6121	54.1992	66.644	54.1992	66.5383	54.1992	66.5741	54.1992	66.4549	54.1992	66.4934	54.1992	66.3635	54.1992	66.4035	54.1992	66.2664	54.1992	66.3065	54.1992	66.1662	54.1992	66.2052	54.1992	66.066	54.1992	66.1026	54.1992	65.9691	54.1992	66.0023	54.1992	65.8792	54.1992	65.9081	54.1992	65.8	54.1992	65.8238	54.1992	65.7348	54.1992	65.7531	54.1992	65.6868	54.1992	65.6992	54.1992	65.6583	54.1992	65.6645	54.1992	65.6507
56.3965	67.4716	56.3965	67.4605	56.3965	67.4684	56.3965	67.4354	56.3965	67.4508	56.3965	67.3967	56.3965	67.419	56.3965	67.3451	56.3965	67.3734	56.3965	67.2815	56.3965	67.3146	56.3965	67.207	56.3965	67.2437	56.3965	67.1232	56.3965	67.162	56.3965	67.0321	56.3965	67.0715	56.3965	66.9358	56.3965	66.9743	56.3965	66.8371	56.3965	66.8734	56.3965	66.739	56.3965	66.772	56.3965	66.6447	56.3965	66.6736	56.3965	66.5577	56.3965	66.5818	56.3965	66.4813	56.3965	66.5005	56.3965	66.4186	56.3965	66.4328	56.3965	66.3724	56.3965	66.3817	56.3965	66.3447	56.3965	66.3493	56.3965	66.3368
58.5938	68.5644	58.5938	68.5559	58.5938	68.5588	58.5938	68.5333	58.5938	68.539	58.5938	68.4973	58.5938	68.5052	58.5938	68.4485	58.5938	68.4579	58.5938	68.3878	58.5938	68.3978	58.5938	68.3164	58.5938	68.3262	58.5938	68.236	58.5938	68.2445	58.5938	68.1485	58.5938	68.1547	58.5938	68.0559	58.5938	68.0593	58.5938	67.9611	58.5938	67.9611	58.5938	67.8668	58.5938	67.8634	58.5938	67.776	58.5938	67.7697	58.5938	67.6919	58.5938	67.6836	58.5938	67.6175	58.5938	67.6084	58.5938	67.5557	58.5938	67.5471	58.5938	67.5089	58.5938	67.5023	58.5938	67.4792	58.5938	67.4756	58.5938	67.4678
60.0586	69.0966	60.0586	69.0851	60.0586	69.0953	60.0586	69.061	60.0586	69.0809	60.0586	69.0249	60.0586	69.0538	60.0586	68.9775	60.0586	69.0142	60.0586	68.9198	60.0586	68.963	60.0586	68.8531	60.0586	68.9009	60.0586	68.779	60.0586	68.8296	60.0586	68.6994	60.0586	68.7507	60.0586	68.6164	60.0586	68.6665	60.0586	68.5324	60.0586	68.5795	60.0586	68.4501	60.0586	68.4926	60.0586	68.372	60.0586	68.4088	60.0586	68.3009	60.0586	68.3313	60.0586	68.2393	60.0586	68.2631	60.0586	68.1893	60.0586	68.2067	60.0586	68.1529	60.0586	68.1642	60.0586	68.1315	60.0586	68.137	60.0586	68.1261
62.2559	69.5728	62.2559	69.5593	62.2559	69.5718	62.2559	69.5317	62.2559	69.5563	62.2559	69.4905	62.2559	69.5265	62.2559	69.4367	62.2559	69.483	62.2559	69.3714	62.2559	69.4265	62.2559	69.2962	62.2559	69.3584	62.2559	69.213	62.2559	69.2802	62.2559	69.124	62.2559	69.194	62.2559	69.0318	62.2559	69.1024	62.2559	68.9394	62.2559	69.0081	62.2559	68.8496	62.2559	68.9143	62.2559	68.7655	62.2559	68.8243	62.2559	68.6899	62.2559	68.7411	62.2559	68.6256	62.2559	68.6678	62.2559	68.5745	62.2559	68.6069	62.2559	68.5385	62.2559	68.5604	62.2559	68.5187	62.2559	68.5297	62.2559	68.5157
64.4531	70.2721	64.4531	70.2593	64.4531	70.2696	64.4531	70.2317	64.4531	70.2519	64.4531	70.1899	64.4531	70.2192	64.4531	70.135	64.4531	70.1722	64.4531	70.0681	64.4531	70.1117	64.4531	69.991	64.4531	70.0392	64.4531	69.9058	64.4531	69.9567	64.4531	69.8147	64.4531	69.8663	64.4531	69.7206	64.4531	69.7708	64.4531	69.6264	64.4531	69.6734	64.4531	69.535	64.4531	69.5774	64.4531	69.4496	64.4531	69.4863	64.4531	69.3729	64.4531	69.4032	64.4531	69.3073	64.4531	69.331	64.4531	69.2548	64.4531	69.2721	64.4531	69.217	64.4531	69.2283	64.4531	69.195	64.4531	69.2005	64.4531	69.1894
66.6504	70.9817	66.6504	70.9669	66.6504	70.9807	66.6504	70.9367	66.6504	70.9639	66.6504	70.8919	66.6504	70.9314	66.6504	70.8335	66.6504	70.8841	66.6504	70.763	66.6504	70.8227	66.6504	70.6822	66.6504	70.7489	66.6504	70.5932	66.6504	70.6645	66.6504	70.4987	66.6504	70.5719	66.6504	70.4014	66.6504	70.474	66.6504	70.3046	66.6504	70.3739	66.6504	70.2114	66.6504	70.2752	66.6504	70.1248	66.6504	70.1813	66.6504	70.0477	66.6504	70.0955	66.6504	69.9825	66.6504	70.0209	66.6504	69.9309	66.6504	69.9596	66.6504	69.8946	66.6504	69.9135	66.6504	69.8742	66.6504	69.8837	66.6504	69.8705
69.5801	71.9256	69.5801	71.9076	69.5801	71.9272	69.5801	71.8736	69.5801	71.9122	69.5801	71.8245	69.5801	71.881	69.5801	71.7613	69.5801	71.8343	69.5801	71.6859	69.5801	71.7731	69.5801	71.6002	69.5801	71.6991	69.5801	71.5066	69.5801	71.6142	69.5801	71.4082	69.5801	71.5209	69.5801	71.3082	69.5801	71.4222	69.5801	71.2098	69.5801	71.3214	69.5801	71.1164	69.5801	71.222	69.5801	71.0313	69.5801	71.1273	69.5801	70.957	69.5801	71.0407	69.5801	70.8958	69.5801	70.9649	69.5801	70.8491	69.5801	70.9021	69.5801	70.8179	69.5801	70.8537	69.5801	70.8027	69.5801	70.8207	69.5801	70.8036
71.7773	72.5451	71.7773	72.5238	71.7773	72.5498	71.7773	72.4863	71.7773	72.5377	71.7773	72.4334	71.7773	72.5092	71.7773	72.3666	71.7773	72.465	71.7773	72.2876	71.7773	72.4061	71.7773	72.1984	71.7773	72.3342	71.7773	72.102	71.7773	72.2512	71.7773	72.0013	71.7773	72.1597	71.7773	71.8998	71.7773	72.0626	71.7773	71.801	71.7773	71.9631	71.7773	71.7086	71.7773	71.8646	71.7773	71.6257	71.7773	71.7703	71.7773	71.555	71.7773	71.6834	71.7773	71.4985	71.7773	71.6064	71.7773	71.4574	71.7773	71.5413	71.7773	71.4323	71.7773	71.4897	71.7773	71.4233	71.7773	71.4524	71.7773	71.4301
73.9746	73.1636	73.9746	73.1439	73.9746	73.1664	73.9746	73.1076	73.9746	73.1524	73.9746	73.0556	73.9746	73.122	73.9746	72.9891	73.9746	73.076	73.9746	72.9099	73.9746	73.0158	73.9746	72.8203	73.9746	72.9431	73.9746	72.723	73.9746	72.8601	73.9746	72.6215	73.9746	72.7694	73.9746	72.5193	73.9746	72.674	73.9746	72.4201	73.9746	72.577	73.9746	72.3279	73.9746	72.4816	73.9746	72.2458	73.9746	72.3909	73.9746	72.1766	73.9746	72.3076	73.9746	72.1222	73.9746	72.234	73.9746	72.0836	73.9746	72.1717	73.9746	72.0611	73.9746	72.1219	73.9746	72.0542	73.9746	72.0853	73.9746	72.0625
76.9043	74.0018	76.9043	73.9872	76.9043	73.999	76.9043	73.9554	76.9043	73.979	76.9043	73.9073	76.9043	73.9423	76.9043	73.8441	76.9043	73.8901	76.9043	73.7678	76.9043	73.824	76.9043	73.6805	76.9043	73.746	76.9043	73.5853	76.9043	73.6588	76.9043	73.4854	76.9043	73.5652	76.9043	73.3846	76.9043	73.4686	76.9043	73.2866	76.9043	73.3724	76.9043	73.1952	76.9043	73.2799	76.9043	73.1136	76.9043	73.1942	76.9043	73.0444	76.9043	73.1176	76.9043	72.9891	76.9043	73.052	76.9043	72.9486	76.9043	72.9985	76.9043	72.9229	76.9043	72.9575	76.9043	72.9115	76.9043	72.9292	76.9043	72.9138
79.834	74.8606	79.834	74.8486	79.834	74.8547	79.834	74.8189	79.834	74.8309	79.834	74.7724	79.834	74.79	79.834	74.7105	79.834	74.7333	79.834	74.635	79.834	74.6625	79.834	74.5485	79.834	74.58	79.834	74.454	79.834	74.4886	79.834	74.3549	79.834	74.3918	79.834	74.2551	79.834	74.2931	79.834	74.1582	79.834	74.1963	79.834	74.0681	79.834	74.105	79.834	73.9877	79.834	74.0223	79.834	73.9194	79.834	73.9505	79.834	73.8645	79.834	73.891	79.834	73.8236	79.834	73.8444	79.834	73.7962	79.834	73.8105	79.834	73.7816	79.834	73.789	79.834	73.7794
82.7637	75.6983	82.7637	75.6861	82.7637	75.6909	82.7637	75.6545	82.7637	75.6639	82.7637	75.6046	82.7637	75.6182	82.7637	75.5378	82.7637	75.5551	82.7637	75.4565	82.7637	75.4767	82.7637	75.3633	82.7637	75.3856	82.7637	75.2618	82.7637	75.2852	82.7637	75.1556	82.7637	75.1793	82.7637	75.0491	82.7637	75.0721	82.7637	74.9465	82.7637	74.968	82.7637	74.8516	82.7637	74.8709	82.7637	74.7678	82.7637	74.7845	82.7637	74.6971	82.7637	74.7109	82.7637	74.6407	82.7637	74.6516	82.7637	74.5987	82.7637	74.6066	82.7637	74.5701	82.7637	74.5753	82.7637	74.5541	82.7637	74.5566	82.7637	74.5497
85.6934	76.545	85.6934	76.5334	85.6934	76.5369	85.6934	76.5023	85.6934	76.5091	85.6934	76.4529	85.6934	76.4622	85.6934	76.3863	85.6934	76.3973	85.6934	76.3046	85.6934	76.3162	85.6934	76.2101	85.6934	76.221	85.6934	76.1058	85.6934	76.1148	85.6934	75.9953	85.6934	76.0012	85.6934	75.8822	85.6934	75.8841	85.6934	75.7706	85.6934	75.7681	85.6934	75.6643	85.6934	75.6574	85.6934	75.5668	85.6934	75.5562	85.6934	75.4809	85.6934	75.468	85.6934	75.4088	85.6934	75.3951	85.6934	75.3515	85.6934	75.339	85.6934	75.3097	85.6934	75.3002	85.6934	75.2834	85.6934	75.2783	85.6934	75.2729
88.623	77.1172	88.623	77.1015	88.623	77.1152	88.623	77.0684	88.623	77.0954	88.623	77.0193	88.623	77.0587	88.623	76.9562	88.623	77.0066	88.623	76.8815	88.623	76.9413	88.623	76.7986	88.623	76.8655	88.623	76.7111	88.623	76.7827	88.623	76.623	88.623	76.6967	88.623	76.5383	88.623	76.6115	88.623	76.4608	88.623	76.5308	88.623	76.3935	88.623	76.4579	88.623	76.3383	88.623	76.3954	88.623	76.296	88.623	76.3444	88.623	76.266	88.623	76.3049	88.623	76.2469	88.623	76.276	88.623	76.2367	88.623	76.256	88.623	76.2334	88.623	76.243	88.623	76.2356
91.5527	77.9561	91.5527	77.9423	91.5527	77.9493	91.5527	77.9084	91.5527	77.9222	91.5527	77.8557	91.5527	77.8756	91.5527	77.7861	91.5527	77.8114	91.5527	77.7024	91.5527	77.7318	91.5527	77.608	91.5527	77.6403	91.5527	77.5069	91.5527	77.5405	91.5527	77.4037	91.5527	77.4371	91.5527	77.3031	91.5527	77.3348	91.5527	77.2094	91.5527	77.2381	91.5527	77.1263	91.5527	77.1512	91.5527	77.0566	91.5527	77.077	91.5527	77.0014	91.5527	77.0173	91.5527	76.9605	91.5527	76.9721	91.5527	76.9323	91.5527	76.9402	91.5527	76.9148	91.5527	76.9195	91.5527	76.9057	91.5527	76.9079	91.5527	76.9036
94.4824	78.7276	94.4824	78.711	94.4824	78.7227	94.4824	78.6733	94.4824	78.6963	94.4824	78.6161	94.4824	78.6496	94.4824	78.5416	94.4824	78.5844	94.4824	78.4529	94.4824	78.5035	94.4824	78.3539	94.4824	78.4104	94.4824	78.2492	94.4824	78.3094	94.4824	78.1439	94.4824	78.2056	94.4824	78.0433	94.4824	78.104	94.4824	77.952	94.4824	78.0097	94.4824	77.8742	94.4824	77.9268	94.4824	77.812	94.4824	77.8583	94.4824	77.7663	94.4824	77.8052	94.4824	77.7359	94.4824	77.7668	94.4824	77.7181	94.4824	77.7411	94.4824	77.7098	94.4824	77.7249	94.4824	77.7078	94.4824	77.7153	94.4824	77.7099
98.1445	79.7287	98.1445	79.715	98.1445	79.7199	98.1445	79.6794	98.1445	79.6887	98.1445	79.6231	98.1445	79.6361	98.1445	79.5482	98.1445	79.5638	98.1445	79.4577	98.1445	79.4744	98.1445	79.3551	98.1445	79.3714	98.1445	79.2449	98.1445	79.259	98.1445	79.1317	98.1445	79.1422	98.1445	79.0209	98.1445	79.0262	98.1445	78.917	98.1445	78.9166	98.1445	78.8244	98.1445	78.8182	98.1445	78.7458	98.1445	78.7347	98.1445	78.6827	98.1445	78.6681	98.1445	78.6348	98.1445	78.6189	98.1445	78.6004	98.1445	78.5857	98.1445	78.5773	98.1445	78.566	98.1445	78.5632	98.1445	78.557	98.1445	78.5565
101.807	80.6623	101.807	80.6459	101.807	80.6561	101.807	80.6076	101.807	80.6274	101.807	80.5488	101.807	80.5775	101.807	80.472	101.807	80.5082	101.807	80.3806	101.807	80.4226	101.807	80.2788	101.807	80.3245	101.807	80.1715	101.807	80.2185	101.807	80.0641	101.807	80.11	101.807	79.9622	101.807	80.0045	101.807	79.8706	101.807	79.9074	101.807	79.7933	101.807	79.8231	101.807	79.7325	101.807	79.7548	101.807	79.6884	101.807	79.7036	101.807	79.6594	101.807	79.6685	101.807	79.6424	101.807	79.6471	101.807	79.6339	101.807	79.6358	101.807	79.6303	101.807	79.6308	101.807	79.6294
105.469	81.6427	105.469	81.6241	105.469	81.6376	105.469	81.5825	105.469	81.6091	105.469	81.5197	105.469	81.5584	105.469	81.4384	105.469	81.4877	105.469	81.3422	105.469	81.4003	105.469	81.236	105.469	81.3004	105.469	81.1251	105.469	81.193	105.469	81.0155	105.469	81.084	105.469	80.9131	105.469	80.9793	105.469	80.8233	105.469	80.8845	105.469	80.7502	105.469	80.8041	105.469	80.6956	105.469	80.7409	105.469	80.6594	105.469	80.6955	105.469	80.6393	105.469	80.6664	105.469	80.6311	105.469	80.6501	105.469	80.6304	105.469	80.6423	105.469	80.633	105.469	80.6387	105.469	80.636
109.131	82.6186	109.131	82.6024	109.131	82.6095	109.131	82.5616	109.131	82.5754	109.131	82.498	109.131	82.5179	109.131	82.4145	109.131	82.4394	109.131	82.3152	109.131	82.3438	109.131	82.2051	109.131	82.2359	109.131	82.0902	109.131	82.1215	109.131	81.9771	109.131	82.0072	109.131	81.8723	109.131	81.8995	109.131	81.7816	109.131	81.8045	109.131	81.7092	109.131	81.7272	109.131	81.6571	109.131	81.6699	109.131	81.6247	109.131	81.6328	109.131	81.6089	109.131	81.6132	109.131	81.6048	109.131	81.6065	109.131	81.607	109.131	81.6073	109.131	81.6106	109.131	81.6105	109.131	81.612
112.793	83.5946	112.793	83.5779	112.793	83.5847	112.793	83.5354	112.793	83.5482	112.793	83.4692	112.793	83.4867	112.793	83.3826	112.793	83.4027	112.793	83.2799	112.793	83.3003	112.793	83.1666	112.793	83.1845	112.793	83.0492	112.793	83.0618	112.793	82.9345	112.793	82.9393	112.793	82.8294	112.793	82.8245	112.793	82.7396	112.793	82.7244	112.793	82.6692	112.793	82.6445	112.793	82.6198	112.793	82.5877	112.793	82.5903	112.793	82.554	112.793	82.5767	112.793	82.5405	112.793	82.5736	112.793	82.5417	112.793	82.5749	112.793	82.5512	112.793	82.5753	112.793	82.5627	112.793	82.5714
116.455	84.5486	116.455	84.5206	116.455	84.5475	116.455	84.4647	116.455	84.5174	116.455	84.3831	116.455	84.46	116.455	84.2798	116.455	84.3779	116.455	84.1599	116.455	84.2754	116.455	84.0298	116.455	84.158	116.455	83.8973	116.455	84.0325	116.455	83.7706	116.455	83.9067	116.455	83.6576	116.455	83.7883	116.455	83.5652	116.455	83.6849	116.455	83.4978	116.455	83.6022	116.455	83.4568	116.455	83.5431	116.455	83.44	116.455	83.5074	116.455	83.4421	116.455	83.4916	116.455	83.4558	116.455	83.4896	116.455	83.4736	116.455	83.4943	116.455	83.4889	116.455	83.4986	116.455	83.4976
120.85	85.8817	120.85	85.8526	120.85	85.879	120.85	85.7925	120.85	85.8447	120.85	85.7039	120.85	85.7806	120.85	85.5905	120.85	85.6898	120.85	85.4578	120.85	85.5766	120.85	85.3126	120.85	85.4471	120.85	85.1632	120.85	85.3087	120.85	85.0189	120.85	85.1698	120.85	84.8889	120.85	85.039	120.85	84.7813	120.85	84.9246	120.85	84.702	120.85	84.833	120.85	84.6531	120.85	84.7673	120.85	84.6326	120.85	84.7275	120.85	84.6347	120.85	84.7092	120.85	84.6514	120.85	84.7058	120.85	84.6738	120.85	84.7091	120.85	84.694	120.85	84.7113	120.85	84.707
125.244	87.0262	125.244	86.9977	125.244	87.0216	125.244	86.9366	125.244	86.9844	125.244	86.8451	125.244	86.9168	125.244	86.7268	125.244	86.8222	125.244	86.5871	125.244	86.7056	125.244	86.4329	125.244	86.5732	125.244	86.2729	125.244	86.433	125.244	86.1171	125.244	86.2936	125.244	85.9758	125.244	86.164	125.244	85.8586	125.244	86.0522	125.244	85.7724	125.244	85.9642	125.244	85.7206	125.244	85.9027	125.244	85.7017	125.244	85.8664	125.244	85.7099	125.244	85.8501	125.244	85.7361	125.244	85.8462	125.244	85.7702	125.244	85.8458	125.244	85.8029	125.244	85.8413	125.244	85.8275
129.639	88.1124	129.639	88.0981	129.639	88.0922	129.639	88.0501	129.639	88.0382	129.639	87.9706	129.639	87.9524	129.639	87.8632	129.639	87.8388	129.639	87.7331	129.639	87.7025	129.639	87.5873	129.639	87.5509	129.639	87.4342	129.639	87.3926	129.639	87.2832	129.639	87.2379	129.639	87.1443	129.639	87.097	129.639	87.0264	129.639	86.9793	129.639	86.9362	129.639	86.8917	129.639	86.8769	129.639	86.8372	129.639	86.8471	129.639	86.8137	129.639	86.8414	129.639	86.8151	129.639	86.8511	129.639	86.832	129.639	86.8666	129.639	86.8543	129.639	86.8789	129.639	86.873	129.639	86.8818
134.033	89.2144	134.033	89.2009	134.033	89.1922	134.033	89.1526	134.033	89.1348	134.033	89.0721	134.033	89.0441	134.033	88.9633	134.033	88.9237	134.033	88.832	134.033	88.7791	134.033	88.6855	134.033	88.6176	134.033	88.5326	134.033	88.4485	134.033	88.3831	134.033	88.2826	134.033	88.2471	134.033	88.1312	134.033	88.1332	134.033	88.0051	134.033	88.0477	134.033	87.9123	134.033	87.9928	134.033	87.8567	134.033	87.9661	134.033	87.837	134.033	87.961	134.033	87.8467	134.033	87.9681	134.033	87.8757	134.033	87.9773	134.033	87.9125	134.033	87.9798	134.033	87.9464	134.033	87.97
138.428	90.1122	138.428	90.091	138.428	90.0973	138.428	90.035	138.428	90.0465	138.428	89.9474	138.428	89.9617	138.428	89.833	138.428	89.8464	138.428	89.6982	138.428	89.7063	138.428	89.5513	138.428	89.5492	138.428	89.4021	138.428	89.3847	138.428	89.2613	138.428	89.2243	138.428	89.1391	138.428	89.08	138.428	89.0442	138.428	88.9631	138.428	88.9817	138.428	88.8818	138.428	88.9519	138.428	88.8398	138.428	88.9504	138.428	88.8351	138.428	88.9684	138.428	88.8601	138.428	88.9946	138.428	88.9033	138.428	89.0177	138.428	88.9517	138.428	89.0282	138.428	88.9937	138.428	89.0205
143.555	91.1232	143.555	91.0858	143.555	91.1212	143.555	91.0105	143.555	91.0799	143.555	90.9003	143.555	91.0015	143.555	90.7606	143.555	90.8896	143.555	90.5987	143.555	90.7501	143.555	90.4242	143.555	90.5909	143.555	90.2486	143.555	90.4221	143.555	90.0849	143.555	90.2555	143.555	89.9457	143.555	90.1038	143.555	89.842	143.555	89.9787	143.555	89.7798	143.555	89.8894	143.555	89.7598	143.555	89.84	143.555	89.7758	143.555	89.8282	143.555	89.8165	143.555	89.8462	143.555	89.868	143.555	89.8817	143.555	89.9161	143.555	89.9207	143.555	89.9496	143.555	89.9503	143.555	89.9614
148.682	92.0137	148.682	91.9778	148.682	92.0068	148.682	91.9001	148.682	91.9577	148.682	91.7837	148.682	91.8688	148.682	91.6338	148.682	91.7448	148.682	91.458	148.682	91.5922	148.682	91.2664	148.682	91.4201	148.682	91.0717	148.682	91.2396	148.682	90.8883	148.682	91.0639	148.682	90.7311	148.682	90.9067	148.682	90.6128	148.682	90.7805	148.682	90.5418	148.682	90.6943	148.682	90.5194	148.682	90.6512	148.682	90.5397	148.682	90.6476	148.682	90.59	148.682	90.6733	148.682	90.6545	148.682	90.7142	148.682	90.7169	148.682	90.755	148.682	90.7636	148.682	90.7821	148.682	90.7862
153.809	92.6441	153.809	92.6118	153.809	92.6305	153.809	92.5347	153.809	92.572	153.809	92.4157	153.809	92.4711	153.809	92.2599	153.809	92.3325	153.809	92.0748	153.809	92.1635	153.809	91.8707	153.809	91.9735	153.809	91.6605	153.809	91.7747	153.809	91.4595	153.809	91.5815	153.809	91.2834	153.809	91.4087	153.809	91.1467	153.809	91.2703	153.809	91.0592	153.809	91.1759	153.809	91.0236	153.809	91.129	153.809	91.0346	153.809	91.125	153.809	91.0797	153.809	91.1529	153.809	91.142	153.809	91.197	153.809	91.2042	153.809	91.2408	153.809	91.2516	153.809	91.2698	153.809	91.2746
159.668	93.3207	159.668	93.2912	159.668	93.3023	159.668	93.2151	159.668	93.2367	159.668	93.0955	159.668	93.1266	159.668	92.9378	159.668	92.9768	159.668	92.75	159.668	92.7946	159.668	92.543	159.668	92.5904	159.668	92.3306	159.668	92.3775	159.668	92.1287	159.668	92.1717	159.668	91.9543	159.668	91.9901	159.668	91.8221	159.668	91.8485	159.668	91.742	159.668	91.7581	159.668	91.7161	159.668	91.7226	159.668	91.7375	159.668	91.7365	159.668	91.7921	159.668	91.7863	159.668	91.8613	159.668	91.8538	159.668	91.9261	159.668	91.9196	159.668	91.971	159.668	91.9673	159.668	91.9858
164.795	93.6346	164.795	93.6054	164.795	93.6144	164.795	93.528	164.795	93.5453	164.795	93.4057	164.795	93.43	164.795	93.244	164.795	93.273	164.795	93.0511	164.795	93.082	164.795	92.838	164.795	92.8672	164.795	92.6188	164.795	92.6425	164.795	92.4099	164.795	92.4244	164.795	92.2289	164.795	92.2311	164.795	92.0911	164.795	92.0796	164.795	92.0069	164.795	91.9824	164.795	91.9786	164.795	91.9438	164.795	91.9992	164.795	91.9587	164.795	92.0535	164.795	92.0128	164.795	92.1224	164.795	92.0867	164.795	92.1862	164.795	92.1599	164.795	92.2285	164.795	92.2146	164.795	92.239
170.654	93.6908	170.654	93.6531	170.654	93.6766	170.654	93.565	170.654	93.6109	170.654	93.4302	170.654	93.4963	170.654	93.2548	170.654	93.3377	170.654	93.048	170.654	93.1428	170.654	92.8223	170.654	92.9225	170.654	92.5937	170.654	92.6917	170.654	92.381	170.654	92.4681	170.654	92.2035	170.654	92.2718	170.654	92.0781	170.654	92.1215	170.654	92.0149	170.654	92.031	170.654	92.0141	170.654	92.005	170.654	92.0652	170.654	92.0372	170.654	92.1493	170.654	92.1113	170.654	92.2437	170.654	92.2052	170.654	92.3262	170.654	92.2955	170.654	92.3793	170.654	92.3624	170.654	92.3923
176.514	93.3974	176.514	93.36	176.514	93.3798	176.514	93.2687	176.514	93.3084	176.514	93.1267	176.514	93.186	176.514	92.9398	176.514	93.0182	176.514	92.7169	176.514	92.8133	176.514	92.4708	176.514	92.5831	176.514	92.2183	176.514	92.3432	176.514	91.9799	176.514	92.1129	176.514	91.778	176.514	91.9129	176.514	91.6327	176.514	91.7627	176.514	91.5576	176.514	91.6762	176.514	91.5547	176.514	91.6568	176.514	91.6135	176.514	91.6964	176.514	91.7133	176.514	91.7766	176.514	91.8282	176.514	91.8731	176.514	91.9329	176.514	91.9613	176.514	92.0069	176.514	92.0206	176.514	92.0375
183.105	93.004	183.105	92.97	183.105	92.9788	183.105	92.8783	183.105	92.8951	183.105	92.7324	183.105	92.7558	183.105	92.5383	183.105	92.5662	183.105	92.3054	183.105	92.335	183.105	92.0467	183.105	92.075	183.105	91.7796	183.105	91.8035	183.105	91.5252	183.105	91.5421	183.105	91.3069	183.105	91.3151	183.105	91.146	183.105	91.1453	183.105	91.0572	183.105	91.0489	183.105	91.0435	183.105	91.0303	183.105	91.0946	183.105	91.0794	183.105	91.1892	183.105	91.1748	183.105	91.3004	183.105	91.2886	183.105	91.4014	183.105	91.3932	183.105	91.4705	183.105	91.4664	183.105	91.4938
189.697	92.7719	189.697	92.7311	189.697	92.7492	189.697	92.6289	189.697	92.6632	189.697	92.4694	189.697	92.5162	189.697	92.2595	189.697	92.3129	189.697	92.0095	189.697	92.0616	189.697	91.7334	189.697	91.7748	189.697	91.4502	189.697	91.4703	189.697	91.1824	189.697	91.1712	189.697	90.9544	189.697	90.9046	189.697	90.7881	189.697	90.6979	189.697	90.6975	189.697	90.5719	189.697	90.6838	189.697	90.5349	189.697	90.7345	189.697	90.5786	189.697	90.8263	189.697	90.6802	189.697	90.9307	189.697	90.809	189.697	91.0205	189.697	90.9339	189.697	91.0741	189.697	91.0292	189.697	91.0781
196.289	92.3913	196.289	92.338	196.289	92.378	196.289	92.2196	196.289	92.2982	196.289	92.0405	196.289	92.1547	196.289	91.8078	196.289	91.9527	196.289	91.5328	196.289	91.7009	196.289	91.2318	196.289	91.4125	196.289	90.9266	196.289	91.106	196.289	90.6443	196.289	90.8059	196.289	90.4139	196.289	90.541	196.289	90.2609	196.289	90.34	196.289	90.1996	196.289	90.2249	196.289	90.2282	196.289	90.2039	196.289	90.3279	196.289	90.2672	196.289	90.4681	196.289	90.3894	196.289	90.6149	196.289	90.537	196.289	90.7374	196.289	90.6763	196.289	90.8126	196.289	90.7793	196.289	90.8275
202.881	92.0124	202.881	91.9495	202.881	92.0041	202.881	91.8169	202.881	91.9251	202.881	91.618	202.881	91.7781	202.881	91.3591	202.881	91.5677	202.881	91.0505	202.881	91.3023	202.881	90.7078	202.881	90.9944	202.881	90.3533	202.881	90.6626	202.881	90.016	202.881	90.3317	202.881	89.7296	202.881	90.032	202.881	89.5262	202.881	89.7953	202.881	89.4275	202.881	89.6473	202.881	89.4363	202.881	89.5992	202.881	89.5343	202.881	89.6427	202.881	89.6876	202.881	89.7514	202.881	89.8564	202.881	89.889	202.881	90.0045	202.881	90.0183	202.881	90.1044	202.881	90.1089	202.881	90.1404
210.205	91.6291	210.205	91.5693	210.205	91.6168	210.205	91.4382	210.205	91.5337	210.205	91.2384	210.205	91.3829	210.205	90.9757	210.205	91.17	210.205	90.6598	210.205	90.9036	210.205	90.3055	210.205	90.5968	210.205	89.9347	210.205	90.2679	210.205	89.5763	210.205	89.9411	210.205	89.2647	210.205	89.6456	210.205	89.0337	210.205	89.411	210.205	88.9083	210.205	89.261	210.205	88.8947	210.205	89.2053	210.205	88.9775	210.205	89.2349	210.205	89.124	210.205	89.3244	210.205	89.2943	210.205	89.4393	210.205	89.451	210.205	89.5444	210.205	89.5655	210.205	89.6111	210.205	89.6205
217.529	91.1404	217.529	91.094	217.529	91.1126	217.529	90.9737	217.529	91.013	217.529	90.7822	217.529	90.8461	217.529	90.5254	217.529	90.6197	217.529	90.2142	217.529	90.345	217.529	89.8658	217.529	90.0388	217.529	89.505	217.529	89.7232	217.529	89.1644	217.529	89.4263	217.529	88.8818	217.529	89.179	217.529	88.6926	217.529	89.0095	217.529	88.6194	217.529	88.9353	217.529	88.6629	217.529	88.9569	217.529	88.8005	217.529	89.056	217.529	88.9941	217.529	89.2011	217.529	89.201	217.529	89.3556	217.529	89.3837	217.529	89.4855	217.529	89.5141	217.529	89.5645	217.529	89.5761
225.586	90.6172	225.586	90.6132	225.586	90.5322	225.586	90.5202	225.586	90.3606	225.586	90.3404	225.586	90.1073	225.586	90.0795	225.586	89.7808	225.586	89.7479	225.586	89.3954	225.586	89.3636	225.586	88.9735	225.586	88.9546	225.586	88.5484	225.586	88.5608	225.586	88.1647	225.586	88.2318	225.586	87.8739	225.586	88.0179	225.586	87.7219	225.586	87.9531	225.586	87.7316	225.586	88.04	225.586	87.891	225.586	88.2465	225.586	88.1566	225.586	88.518	225.586	88.4697	225.586	88.7957	225.586	88.7729	225.586	89.0295	225.586	89.0203	225.586	89.1835	225.586	89.1806	225.586	89.2366
232.91	90.6693	232.91	90.6369	232.91	90.6109	232.91	90.5164	232.91	90.4599	232.91	90.312	232.91	90.2159	232.91	90.03	232.91	89.8809	232.91	89.6801	232.91	89.4614	232.91	89.2778	232.91	88.9712	232.91	88.8466	232.91	88.4359	232.91	88.4208	232.91	87.898	232.91	88.0443	232.91	87.419	232.91	87.7651	232.91	87.0713	232.91	87.6208	232.91	86.9152	232.91	87.6236	232.91	86.9692	232.91	87.7518	232.91	87.1972	232.91	87.9573	232.91	87.5251	232.91	88.1815	232.91	87.8727	232.91	88.3706	232.91	88.1748	232.91	88.4832	232.91	88.3889	232.91	88.4931
241.699	90.0482	241.699	89.9536	241.699	90.0516	241.699	89.7693	241.699	89.9632	241.699	89.4987	241.699	89.784	241.699	89.1481	241.699	89.5164	241.699	88.7289	241.699	89.1663	241.699	88.2603	241.699	88.7448	241.699	87.7731	241.699	88.2717	241.699	87.3121	241.699	87.7797	241.699	86.9333	241.699	87.3164	241.699	86.693	241.699	86.942	241.699	86.6265	241.699	86.7149	241.699	86.7299	241.699	86.6687	241.699	86.9596	241.699	86.7932	241.699	87.2495	241.699	87.0369	241.699	87.5331	241.699	87.3286	241.699	87.7574	241.699	87.6009	241.699	87.8867	241.699	87.8027	241.699	87.9026
249.756	90.1724	249.756	90.1092	249.756	90.135	249.756	89.9453	249.756	89.9973	249.756	89.682	249.756	89.7605	249.756	89.3219	249.756	89.4275	249.756	88.8719	249.756	89.0043	249.756	88.3453	249.756	88.5034	249.756	87.7676	249.756	87.9474	249.756	87.1814	249.756	87.375	249.756	86.65	249.756	86.8444	249.756	86.251	249.756	86.4292	249.756	86.0527	249.756	86.1984	249.756	86.0796	249.756	86.1839	249.756	86.2955	249.756	86.3602	249.756	86.6207	249.756	86.6551	249.756	86.9665	249.756	86.9817	249.756	87.2607	249.756	87.2659	249.756	87.4546	249.756	87.4558	249.756	87.5222
258.545	90.1232	258.545	90.0493	258.545	90.0981	258.545	89.8778	258.545	89.9735	258.545	89.6105	258.545	89.7491	258.545	89.2512	258.545	89.4259	258.545	88.8072	258.545	89.0077	258.545	88.2921	258.545	88.5036	258.545	87.7306	258.545	87.932	258.545	87.1624	258.545	87.3265	258.545	86.6457	258.545	86.7412	258.545	86.2503	258.545	86.2507	258.545	86.0375	258.545	85.9342	258.545	86.0306	258.545	85.8421	258.545	86.199	258.545	85.9653	258.545	86.4715	258.545	86.2372	258.545	86.7657	258.545	86.5664	258.545	87.0122	258.545	86.87	258.545	87.1629	258.545	87.0894	258.545	87.191
268.066	89.695	268.066	89.6013	268.066	89.6822	268.066	89.4006	268.066	89.5632	268.066	89.0929	268.066	89.3381	268.066	88.6793	268.066	89.0081	268.066	88.1649	268.066	88.5762	268.066	87.5625	268.066	88.0506	268.066	86.8993	268.066	87.449	268.066	86.2262	268.066	86.8053	268.066	85.6238	268.066	86.1773	268.066	85.1948	268.066	85.6485	268.066	85.0262	268.066	85.312	268.066	85.1371	268.066	85.2301	268.066	85.461	268.066	85.3943	268.066	85.8845	268.066	85.7263	268.066	86.2987	268.066	86.1192	268.066	86.6254	268.066	86.4782	268.066	86.8181	268.066	86.7368	268.066	86.8558
277.588	89.9279	277.588	89.8694	277.588	89.8847	277.588	89.7079	277.588	89.7402	277.588	89.4416	277.588	89.4944	277.588	89.0685	277.588	89.1474	277.588	88.5878	277.588	88.7012	277.588	88.0023	277.588	88.1616	277.588	87.3231	277.588	87.5433	277.588	86.5775	277.588	86.8763	277.588	85.8206	277.588	86.2137	277.588	85.1443	277.588	85.636	277.588	84.6681	277.588	85.2373	277.588	84.4911	277.588	85.0864	277.588	84.6247	277.588	85.1822	277.588	84.9787	277.588	85.4483	277.588	85.4177	277.588	85.7741	277.588	85.8228	277.588	86.0593	277.588	86.116	277.588	86.2333	277.588	86.2566
287.109	89.728	287.109	89.6751	287.109	89.683	287.109	89.5237	287.109	89.54	287.109	89.2727	287.109	89.2976	287.109	88.9208	287.109	88.9546	287.109	88.4688	287.109	88.5107	287.109	87.9217	287.109	87.9697	287.109	87.2935	287.109	87.3438	287.109	86.6143	287.109	86.6614	287.109	85.9382	287.109	85.9759	287.109	85.3482	287.109	85.3725	287.109	84.9423	287.109	84.955	287.109	84.794	287.109	84.803	287.109	84.9048	287.109	84.9191	287.109	85.1984	287.109	85.2213	287.109	85.5626	287.109	85.5902	287.109	85.8953	287.109	85.92	287.109	86.1249	287.109	86.1394	287.109	86.211
297.363	89.889	297.363	89.8456	297.363	89.8311	297.363	89.7003	297.363	89.6715	297.363	89.452	297.363	89.4085	297.363	89.0997	297.363	89.0397	297.363	88.6439	297.363	88.5634	297.363	88.0898	297.363	87.9803	297.363	87.451	297.363	87.2984	297.363	86.7565	297.363	86.5405	297.363	86.0597	297.363	85.7561	297.363	85.4425	297.363	85.0338	297.363	85.004	297.363	84.497	297.363	84.8206	297.363	84.2597	297.363	84.897	297.363	84.3516	297.363	85.1571	297.363	84.6886	297.363	85.4859	297.363	85.1281	297.363	85.7776	297.363	85.5406	297.363	85.9576	297.363	85.8404	297.363	85.9834
307.617	89.7214	307.617	89.6341	307.617	89.7098	307.617	89.4478	307.617	89.5988	307.617	89.1623	307.617	89.3876	307.617	88.7781	307.617	89.0753	307.617	88.298	307.617	88.6622	307.617	87.7303	307.617	88.1513	307.617	87.0937	307.617	87.5526	307.617	86.4246	307.617	86.8888	307.617	85.7853	307.617	86.2038	307.617	85.2636	307.617	85.5712	307.617	84.9528	307.617	85.09	307.617	84.9054	307.617	84.8531	307.617	85.0957	307.617	84.8934	307.617	85.4306	307.617	85.156	307.617	85.7969	307.617	85.5283	307.617	86.101	307.617	85.8951	307.617	86.2814	307.617	86.1712	307.617	86.3066
318.604	89.5111	318.604	89.4417	318.604	89.4673	318.604	89.2581	318.604	89.3108	318.604	88.9594	318.604	89.0419	318.604	88.5456	318.604	88.6613	318.604	88.0195	318.604	88.1713	318.604	87.39	318.604	87.5791	318.604	86.6783	318.604	86.9016	318.604	85.9267	318.604	86.1738	318.604	85.2095	318.604	85.4596	318.604	84.6339	318.604	84.8564	318.604	84.3131	318.604	84.4768	318.604	84.3055	318.604	84.3955	318.604	84.5701	318.604	84.5961	318.604	84.9899	318.604	84.9763	318.604	85.4364	318.604	85.4076	318.604	85.8111	318.604	85.7841	318.604	86.053	318.604	86.0375	318.604	86.1312
329.59	89.5455	329.59	89.4591	329.59	89.5255	329.59	89.2648	329.59	89.3994	329.59	88.9602	329.59	89.1665	329.59	88.5427	329.59	88.8255	329.59	88.0117	329.59	88.3762	329.59	87.3715	329.59	87.8214	329.59	86.6386	329.59	87.1714	329.59	85.8517	329.59	86.4512	329.59	85.0861	329.59	85.7105	329.59	84.4594	329.59	85.0339	329.59	84.1038	329.59	84.5346	329.59	84.0924	329.59	84.3144	329.59	84.3791	329.59	84.3995	329.59	84.8278	329.59	84.7153	329.59	85.2932	329.59	85.132	329.59	85.6693	329.59	85.527	329.59	85.8954	329.59	85.8144	329.59	85.9443
341.309	88.8934	341.309	88.8382	341.309	88.8081	341.309	88.6423	341.309	88.5823	341.309	88.3052	341.309	88.2165	341.309	87.8278	341.309	87.7135	341.309	87.2146	341.309	87.0823	341.309	86.4805	341.309	86.3456	341.309	85.6622	341.309	85.5532	341.309	84.8366	341.309	84.7986	341.309	84.1383	341.309	84.2256	341.309	83.7417	341.309	83.9885	341.309	83.7712	341.309	84.1561	341.309	84.1992	341.309	84.6516	341.309	84.8656	341.309	85.3109	341.309	85.5915	341.309	85.9789	341.309	86.2492	341.309	86.5521	341.309	86.767	341.309	86.973	341.309	87.1089	341.309	87.2129	341.309	87.2592
353.76	89.818	353.76	89.7201	353.76	89.7702	353.76	89.475	353.76	89.5733	353.76	89.0768	353.76	89.2192	353.76	88.5153	353.76	88.695	353.76	87.7771	353.76	87.9829	353.76	86.8493	353.76	87.0621	353.76	85.7296	353.76	85.9139	353.76	84.4539	353.76	84.5428	353.76	83.1617	353.76	83.0361	353.76	82.1853	353.76	81.7002	353.76	81.967	353.76	81.1277	353.76	82.6053	353.76	81.6743	353.76	83.7084	353.76	82.9195	353.76	84.8516	353.76	84.265	353.76	85.8113	353.76	85.4079	353.76	86.5032	353.76	86.2525	353.76	86.9004	353.76	86.7806	353.76	86.9946
366.211	90.0783	366.211	89.9736	366.211	90.0438	366.211	89.7246	366.211	89.8692	366.211	89.32	366.211	89.547	366.211	88.7416	366.211	89.0636	366.211	87.9642	366.211	88.3982	366.211	86.9556	366.211	87.5231	366.211	85.6783	366.211	86.4045	366.211	84.1059	366.211	85.0114	366.211	82.2856	366.211	83.3518	366.211	80.5432	366.211	81.5982	366.211	79.7409	366.211	80.3473	366.211	80.4938	366.211	80.436	366.211	82.0895	366.211	81.7151	366.211	83.6796	366.211	83.2894	366.211	84.9482	366.211	84.6443	366.211	85.834	366.211	85.635	366.211	86.3401	366.211	86.2428	366.211	86.4757
378.662	90.7634	378.662	90.7065	378.662	90.7134	378.662	90.5352	378.662	90.5554	378.662	90.234	378.662	90.2802	378.662	89.7795	378.662	89.8696	378.662	89.139	378.662	89.2964	378.662	88.2683	378.662	88.5225	378.662	87.1058	378.662	87.495	378.662	85.563	378.662	86.1406	378.662	83.5141	378.662	84.3599	378.662	80.8289	378.662	82.0477	378.662	77.8054	378.662	79.3198	378.662	76.8602	378.662	77.5672	378.662	79.2632	378.662	78.8668	378.662	81.9877	378.662	81.4209	378.662	84.0018	378.662	83.5521	378.662	85.3228	378.662	85.0276	378.662	86.0487	378.662	85.9039	378.662	86.2371
392.578	89.9262	392.578	89.9094	392.578	89.9002	392.578	89.8441	392.578	89.8282	392.578	89.7176	392.578	89.6999	392.578	89.51	392.578	89.4975	392.578	89.1958	392.578	89.1975	392.578	88.7439	392.578	88.7711	392.578	88.1166	392.578	88.1835	392.578	87.2676	392.578	87.3932	392.578	86.139	392.578	86.35	392.578	84.6596	392.578	84.9963	392.578	82.7582	392.578	83.284	392.578	80.4532	392.578	81.2523	392.578	78.2288	392.578	79.2933	392.578	77.4915	392.578	78.4243	392.578	78.6255	392.578	79.1058	392.578	80.131	392.578	80.3197	392.578	81.1517	392.578	81.2137	392.578	81.5129
405.762	90.2275	405.762	90.2132	405.762	90.1619	405.762	90.1171	405.762	90.0151	405.762	89.9341	405.762	89.7828	405.762	89.6555	405.762	89.4576	405.762	89.2687	405.762	89.0282	405.762	88.7569	405.762	88.4797	405.762	88.0998	405.762	87.7939	405.762	87.275	405.762	86.9527	405.762	86.2646	405.762	85.9468	405.762	85.0714	405.762	84.7986	405.762	83.7627	405.762	83.611	405.762	82.5516	405.762	82.6303	405.762	81.8323	405.762	82.1971	405.762	81.9018	405.762	82.4377	405.762	82.5672	405.762	83.0805	405.762	83.3688	405.762	83.7412	405.762	83.9811	405.762	84.1718	405.762	84.2613
420.41	91.2829	420.41	91.2079	420.41	91.2708	420.41	91.0453	420.41	91.167	420.41	90.7898	420.41	90.9627	420.41	90.4315	420.41	90.6444	420.41	89.9557	420.41	90.1939	420.41	89.343	420.41	89.5882	420.41	88.5697	420.41	88.7975	420.41	87.609	420.41	87.7848	420.41	86.4373	420.41	86.5055	420.41	85.0536	420.41	84.9177	420.41	83.5359	420.41	83.0271	420.41	82.1538	420.41	81.0515	420.41	81.4066	420.41	79.735	420.41	81.5911	420.41	79.92	420.41	82.3525	420.41	81.1367	420.41	83.1397	420.41	82.4061	420.41	83.6324	420.41	83.2931	420.41	83.7001
435.059	91.1861	435.059	91.1285	435.059	91.1583	435.059	90.9822	435.059	91.0439	435.059	90.7397	435.059	90.8379	435.059	90.3896	435.059	90.5313	435.059	89.9164	435.059	90.1114	435.059	89.3007	435.059	89.5614	435.059	88.5207	435.059	88.8616	435.059	87.5544	435.059	87.9912	435.059	86.3906	435.059	86.9351	435.059	85.0575	435.059	85.7046	435.059	83.6924	435.059	84.3881	435.059	82.6371	435.059	83.2366	435.059	82.3369	435.059	82.6615	435.059	82.8498	435.059	82.8855	435.059	83.7353	435.059	83.6271	435.059	84.5534	435.059	84.4306	435.059	85.0809	435.059	85.0079	435.059	85.2369
450.439	91.4308	450.439	91.3844	450.439	91.3905	450.439	91.2476	450.439	91.2634	450.439	91.0124	450.439	91.0453	450.439	90.6665	450.439	90.7272	450.439	90.1918	450.439	90.2944	450.439	89.5633	450.439	89.7255	450.439	88.7471	450.439	88.9908	450.439	87.6991	450.439	88.0514	450.439	86.3662	450.439	86.8606	450.439	84.7023	450.439	85.3753	450.439	82.7451	450.439	83.6074	450.439	80.8816	450.439	81.7979	450.439	80.1479	450.439	80.7075	450.439	81.0531	450.439	81.0844	450.439	82.5761	450.439	82.3799	450.439	83.8538	450.439	83.6595	450.439	84.6247	450.439	84.5159	450.439	84.8447
466.553	91.1643	466.553	91.107	466.553	91.1307	466.553	90.9585	466.553	91.0037	466.553	90.715	466.553	90.7783	466.553	90.3691	466.553	90.4461	466.553	89.9086	466.553	89.9952	466.553	89.3162	466.553	89.409	466.553	88.5693	466.553	88.6647	466.553	87.6407	466.553	87.7333	466.553	86.5041	466.553	86.5834	466.553	85.1526	466.553	85.1966	466.553	83.6523	466.553	83.6189	466.553	82.2597	466.553	82.0913	466.553	81.4904	466.553	81.1789	466.553	81.6984	466.553	81.3553	466.553	82.5426	466.553	82.2779	466.553	83.4375	466.553	83.2739	466.553	84.0434	466.553	83.9674	466.553	84.2315
482.666	90.9479	482.666	90.9089	482.666	90.8946	482.666	90.7747	482.666	90.75	482.666	90.5402	482.666	90.5124	482.666	90.1967	482.666	90.1764	482.666	89.731	482.666	89.7316	482.666	89.1235	482.666	89.1604	482.666	88.3459	482.666	88.4366	482.666	87.3596	482.666	87.5245	482.666	86.1153	482.666	86.379	482.666	84.5615	482.666	84.9554	482.666	82.6906	482.666	83.2497	482.666	80.7153	482.666	81.4359	482.666	79.4322	482.666	80.1398	482.666	79.7485	482.666	80.1717	482.666	81.0933	482.666	81.2547	482.666	82.4092	482.666	82.4542	482.666	83.26	482.666	83.2683	482.666	83.5483
500.244	91.4315	500.244	91.3639	500.244	91.3986	500.244	91.1967	500.244	91.2616	500.244	90.9276	500.244	91.0148	500.244	90.55	500.244	90.65	500.244	90.0522	500.244	90.1561	500.244	89.4171	500.244	89.5169	500.244	88.6212	500.244	88.71	500.244	87.6351	500.244	87.7051	500.244	86.4291	500.244	86.4674	500.244	84.9925	500.244	84.973	500.244	83.3985	500.244	83.2682	500.244	81.9507	500.244	81.6307	500.244	81.2586	500.244	80.7395	500.244	81.6594	500.244	81.1068	500.244	82.6625	500.244	82.229	500.244	83.6314	500.244	83.3513	500.244	84.2528	500.244	84.1172	500.244	84.4231
517.822	90.9716	517.822	90.926	517.822	90.9539	517.822	90.816	517.822	90.8709	517.822	90.6373	517.822	90.7174	517.822	90.3802	517.822	90.4832	517.822	90.0276	517.822	90.1512	517.822	89.553	517.822	89.696	517.822	88.9193	517.822	89.082	517.822	88.0758	517.822	88.2608	517.822	86.957	517.822	87.1674	517.822	85.4834	517.822	85.7172	517.822	83.5907	517.822	83.8181	517.822	81.3825	517.822	81.476	517.822	79.6507	517.822	79.2985	517.822	79.8181	517.822	79.0287	517.822	81.4091	517.822	80.712	517.822	82.9525	517.822	82.5134	517.822	83.8982	517.822	83.692	517.822	84.1501
536.133	91.3845	536.133	91.309	536.133	91.3069	536.133	91.0933	536.133	91.0784	536.133	90.7626	536.133	90.7158	536.133	90.3462	536.133	90.2454	536.133	89.8661	536.133	89.6943	536.133	89.3239	536.133	89.0775	536.133	88.6911	536.133	88.3865	536.133	87.9063	536.133	87.5802	536.133	86.8747	536.133	86.5817	536.133	85.4658	536.133	85.2793	536.133	83.5155	536.133	83.5376	536.133	80.9137	536.133	81.2853	536.133	78.3178	536.133	79.0303	536.133	78.4266	536.133	78.7608	536.133	80.8958	536.133	80.7673	536.133	83.0563	536.133	82.8561	536.133	84.3096	536.133	84.1888	536.133	84.6743
554.443	91.5104	554.443	91.4004	554.443	91.4539	554.443	91.132	554.443	91.2387	554.443	90.7281	554.443	90.8858	554.443	90.2215	554.443	90.4238	554.443	89.646	554.443	89.8795	554.443	89.0225	554.443	89.2661	554.443	88.3456	554.443	88.5726	554.443	87.5749	554.443	87.7564	554.443	86.6329	554.443	86.7403	554.443	85.4084	554.443	85.4083	554.443	83.7633	554.443	83.5993	554.443	81.5774	554.443	81.1196	554.443	79.0398	554.443	78.0145	554.443	77.6342	554.443	76.1649	554.443	78.8451	554.443	77.9514	554.443	80.8006	554.443	80.4128	554.443	82.1032	554.443	81.9581	554.443	82.5021
574.219	92.3096	574.219	92.2108	574.219	92.2411	574.219	91.9587	574.219	92.0072	574.219	91.5805	574.219	91.6251	574.219	91.1091	574.219	91.1241	574.219	90.5724	574.219	90.5383	574.219	89.9802	574.219	89.8949	574.219	89.3134	574.219	89.201	574.219	88.5196	574.219	88.4314	574.219	87.5117	574.219	87.5225	574.219	86.1649	574.219	86.3701	574.219	84.3079	574.219	84.8287	574.219	81.7331	574.219	82.723	574.219	78.5032	574.219	79.9935	574.219	76.7703	574.219	77.6349	574.219	78.7832	574.219	78.2549	574.219	81.2045	574.219	80.545	574.219	82.6024	574.219	82.2426	574.219	82.9343
594.727	91.8432	594.727	91.7105	594.727	91.7835	594.727	91.3995	594.727	91.5413	594.727	90.9471	594.727	91.1485	594.727	90.4065	594.727	90.653	594.727	89.8336	594.727	90.1061	594.727	89.2637	594.727	89.5432	594.727	88.6902	594.727	88.9632	594.727	88.0552	594.727	88.3175	594.727	87.2558	594.727	87.5102	594.727	86.1544	594.727	86.4022	594.727	84.5864	594.727	84.804	594.727	82.4042	594.727	82.4664	594.727	79.8318	594.727	79.2415	594.727	78.7123	594.727	76.8012	594.727	80.4362	594.727	78.7729	594.727	82.5942	594.727	81.7046	594.727	83.9144	594.727	83.5341	594.727	84.2383
615.234	91.6743	615.234	91.5303	615.234	91.6107	615.234	91.1889	615.234	91.3447	615.234	90.6766	615.234	90.8976	615.234	90.034	615.234	90.306	615.234	89.3122	615.234	89.6175	615.234	88.561	615.234	88.8807	615.234	87.8087	615.234	88.1275	615.234	87.0413	615.234	87.3533	615.234	86.1905	615.234	86.504	615.234	85.1366	615.234	85.4763	615.234	83.718	615.234	84.1302	615.234	81.7513	615.234	82.3199	615.234	79.1655	615.234	80.0382	615.234	76.8068	615.234	78.0195	615.234	77.1007	615.234	78.0245	615.234	79.1735	615.234	79.5986	615.234	80.7551	615.234	80.9133	615.234	81.3371
637.207	92.5936	637.207	92.4188	637.207	92.4992	637.207	91.9941	637.207	92.144	637.207	91.3694	637.207	91.5668	637.207	90.6271	637.207	90.8409	637.207	89.8732	637.207	90.0729	637.207	89.2009	637.207	89.3768	637.207	88.6353	637.207	88.8159	637.207	88.1015	637.207	88.3487	637.207	87.4424	637.207	87.8303	637.207	86.4503	637.207	87.0524	637.207	84.8637	637.207	85.7625	637.207	82.3228	637.207	83.6302	637.207	78.5226	637.207	80.2425	637.207	76.3783	637.207	76.6179	637.207	79.9423	637.207	78.7493	637.207	83.1776	637.207	82.422	637.207	84.9056	637.207	84.5689	637.207	85.3479
659.912	92.0638	659.912	91.9115	659.912	91.9791	659.912	91.5323	659.912	91.6691	659.912	90.9601	659.912	91.166	659.912	90.2539	659.912	90.5206	659.912	89.4908	659.912	89.7978	659.912	88.7445	659.912	89.0625	659.912	88.0485	659.912	88.355	659.912	87.3656	659.912	87.6641	659.912	86.5841	659.912	86.9127	659.912	85.5338	659.912	85.964	659.912	83.9924	659.912	84.6316	659.912	81.6728	659.912	82.6884	659.912	78.3328	659.912	79.9527	659.912	75.4542	659.912	77.129	659.912	77.3173	659.912	77.3973	659.912	80.2958	659.912	79.9297	659.912	82.0248	659.912	81.7948	659.912	82.4966
683.35	92.3914	683.35	92.2268	683.35	92.276	683.35	91.792	683.35	91.888	683.35	91.1163	683.35	91.2545	683.35	90.2554	683.35	90.4299	683.35	89.2997	683.35	89.5042	683.35	88.3696	683.35	88.5984	683.35	87.577	683.35	87.8264	683.35	86.9557	683.35	87.2229	683.35	86.4156	683.35	86.6957	683.35	85.7686	683.35	86.0519	683.35	84.7858	683.35	85.0525	683.35	83.2322	683.35	83.4379	683.35	80.9438	683.35	80.9693	683.35	78.4115	683.35	77.9827	683.35	78.0768	683.35	77.3842	683.35	80.1056	683.35	79.7437	683.35	81.8046	683.35	81.6744	683.35	82.3604
706.787	92.6053	706.787	92.416	706.787	92.4632	706.787	91.9054	706.787	91.9967	706.787	91.1066	706.787	91.2345	706.787	90.0931	706.787	90.2418	706.787	89.0008	706.787	89.1426	706.787	88.0258	706.787	88.1241	706.787	87.3353	706.787	87.3668	706.787	86.9188	706.787	86.8992	706.787	86.5568	706.787	86.5372	706.787	85.9357	706.787	85.9818	706.787	84.7164	706.787	84.9078	706.787	82.4659	706.787	82.927	706.787	78.4543	706.787	79.4364	706.787	73.2596	706.787	74.3395	706.787	77.1205	706.787	76.1911	706.787	81.4518	706.787	80.7975	706.787	83.5868	706.787	83.2833	706.787	84.1414
731.689	92.3115	731.689	92.1552	731.689	92.1607	731.689	91.7033	731.689	91.7002	731.689	90.9786	731.689	90.9403	731.689	90.0231	731.689	89.9139	731.689	88.9123	731.689	88.6959	731.689	87.7675	731.689	87.4273	731.689	86.7417	731.689	86.3106	731.689	85.9444	731.689	85.5091	731.689	85.3355	731.689	84.9823	731.689	84.7045	731.689	84.4626	731.689	83.7429	731.689	83.5848	731.689	82.0811	731.689	81.9474	731.689	79.217	731.689	79.0333	731.689	74.644	731.689	74.4955	731.689	73.1141	731.689	73.831	731.689	77.5264	731.689	78.0718	731.689	80.3331	731.689	80.5832	731.689	81.2795
758.057	92.1071	758.057	91.8946	758.057	91.9867	758.057	91.3583	758.057	91.5348	758.057	90.521	758.057	90.7658	758.057	89.4303	758.057	89.7168	758.057	88.1795	758.057	88.4651	758.057	86.9306	758.057	87.1539	758.057	85.8949	758.057	85.9946	758.057	85.2113	758.057	85.1779	758.057	84.7983	758.057	84.699	758.057	84.3773	758.057	84.3068	758.057	83.6087	758.057	83.6332	758.057	82.1402	758.057	82.2805	758.057	79.566	758.057	79.7592	758.057	75.8085	758.057	75.5363	758.057	74.9061	758.057	73.2474	758.057	78.3328	758.057	77.4065	758.057	80.6944	758.057	80.3387	758.057	81.3508
784.424	91.7031	784.424	91.5151	784.424	91.5616	784.424	91.0033	784.424	91.0885	784.424	90.1803	784.424	90.287	784.424	89.0747	784.424	89.1725	784.424	87.7489	784.424	87.7882	784.424	86.3273	784.424	86.2366	784.424	85.0134	784.424	84.7244	784.424	84.0228	784.424	83.5511	784.424	83.399	784.424	82.9004	784.424	82.9094	784.424	82.5817	784.424	82.164	784.424	82.1282	784.424	80.7319	784.424	81.0291	784.424	78.113	784.424	78.6995	784.424	74.0602	784.424	74.2149	784.424	73.218	784.424	69.9561	784.424	77.0909	784.424	75.2536	784.424	79.5245	784.424	78.8329	784.424	80.0944
812.256	91.8157	812.256	91.6104	812.256	91.6623	812.256	91.0459	812.256	91.1618	812.256	90.1353	812.256	90.338	812.256	88.9124	812.256	89.2292	812.256	87.451	812.256	87.893	812.256	85.8965	812.256	86.42	812.256	84.4852	812.256	84.9569	812.256	83.4622	812.256	83.7177	812.256	82.8676	812.256	82.8942	812.256	82.4434	812.256	82.4416	812.256	81.794	812.256	82.0017	812.256	80.517	812.256	81.0615	812.256	78.1924	812.256	79.0258	812.256	74.7209	812.256	75.109	812.256	73.7247	812.256	71.1386	812.256	77.061	812.256	75.3704	812.256	79.4687	812.256	78.862	812.256	80.0908
840.82	91.7322	840.82	91.4881	840.82	91.6139	840.82	90.8933	840.82	91.1402	840.82	89.9766	840.82	90.336	840.82	88.7842	840.82	89.2437	840.82	87.3826	840.82	87.922	840.82	85.8677	840.82	86.448	840.82	84.3741	840.82	84.9285	840.82	83.0646	840.82	83.5198	840.82	82.0543	840.82	82.4032	840.82	81.2862	840.82	81.6368	840.82	80.4812	840.82	80.9831	840.82	79.2058	840.82	79.9534	840.82	76.9515	840.82	77.944	840.82	73.6974	840.82	74.4527	840.82	73.6247	840.82	72.5739	840.82	77.2856	840.82	76.4054	840.82	79.7299	840.82	79.3694	840.82	80.4168
870.85	91.7089	870.85	91.4933	870.85	91.5432	870.85	90.8996	870.85	91.0127	870.85	89.9507	870.85	90.1548	870.85	88.6902	870.85	89.0275	870.85	87.191	870.85	87.7064	870.85	85.5733	870.85	86.282	870.85	84.022	870.85	84.8571	870.85	82.7576	870.85	83.5428	870.85	81.8946	870.85	82.4298	870.85	81.2792	870.85	81.5075	870.85	80.513	870.85	80.5759	870.85	79.0775	870.85	79.2328	870.85	76.3404	870.85	76.8761	870.85	72.1208	870.85	72.7182	870.85	72.7758	870.85	70.1896	870.85	77.0729	870.85	75.1141	870.85	79.4072	870.85	78.5321	870.85	79.8581
901.611	91.2855	901.611	91.0192	901.611	91.168	901.611	90.3857	901.611	90.6641	901.611	89.4117	901.611	89.7915	901.611	88.132	901.611	88.5933	901.611	86.5958	901.611	87.1483	901.611	84.89	901.611	85.5829	901.611	83.1828	901.611	84.0741	901.611	81.7477	901.611	82.8057	901.611	80.8199	901.611	81.8548	901.611	80.293	901.611	81.1019	901.611	79.6899	901.611	80.2655	901.611	78.4028	901.611	78.9765	901.611	75.6611	901.611	76.7544	901.611	69.9084	901.611	72.9472	901.611	66.5302	901.611	69.282	901.611	73.7317	901.611	72.9764	901.611	76.9616	901.611	76.4362	901.611	77.7083
933.105	91.1732	933.105	90.8943	933.105	91.0255	933.105	90.199	933.105	90.4617	933.105	89.1213	933.105	89.5108	933.105	87.7207	933.105	88.2221	933.105	86.0803	933.105	86.674	933.105	84.3062	933.105	84.9876	933.105	82.5413	933.105	83.3376	933.105	80.9988	933.105	81.9242	933.105	79.9337	933.105	80.8714	933.105	79.403	933.105	80.1026	933.105	79.0296	933.105	79.3252	933.105	78.1405	933.105	78.091	933.105	75.8572	933.105	75.7323	933.105	70.3081	933.105	70.9059	933.105	63.7571	933.105	65.6624	933.105	73.6681	933.105	73.147	933.105	77.5045	933.105	77.1734	933.105	78.4631
966.064	89.9342	966.064	89.6082	966.064	89.8107	966.064	88.8558	966.064	89.2267	966.064	87.7224	966.064	88.1806	966.064	86.2843	966.064	86.6908	966.064	84.6446	966.064	84.8247	966.064	82.9068	966.064	82.7475	966.064	81.1389	966.064	80.7752	966.064	79.3814	966.064	79.3206	966.064	77.7485	966.064	78.5845	966.064	76.553	966.064	78.3118	966.064	76.0426	966.064	78.0237	966.064	75.7594	966.064	77.261	966.064	74.6802	966.064	75.5119	966.064	71.4759	966.064	71.9851	966.064	64.3802	966.064	67.5534	966.064	69.4856	966.064	71.513	966.064	74.6422	966.064	75.2489	966.064	76.2435
999.756	88.5344	999.756	88.1832	999.756	88.3866	999.756	87.3414	999.756	87.7432	999.756	86.0367	999.756	86.6242	999.756	84.3346	999.756	85.0816	999.756	82.3738	999.756	83.2248	999.756	80.4103	999.756	81.246	999.756	78.7981	999.756	79.4386	999.756	77.7821	999.756	78.1658	999.756	77.2458	999.756	77.6108	999.756	76.7899	999.756	77.456	999.756	75.9859	999.756	77.067	999.756	74.4154	999.756	75.7915	999.756	71.3737	999.756	72.7195	999.756	64.6824	999.756	64.7701	999.756	63.5581	999.756	63.8908	999.756	71.9936	999.756	72.9163	999.756	75.7005	999.756	76.1939	999.756	76.9635
1,034.91	88.3709	1,034.91	88.104	1,034.91	88.2035	1,034.91	87.4073	1,034.91	87.6155	1,034.91	86.311	1,034.91	86.6329	1,034.91	84.8768	1,034.91	85.2925	1,034.91	83.1958	1,034.91	83.6422	1,034.91	81.3855	1,034.91	81.7451	1,034.91	79.6123	1,034.91	79.7379	1,034.91	78.1686	1,034.91	78.0096	1,034.91	77.4403	1,034.91	77.1826	1,034.91	77.4516	1,034.91	77.2698	1,034.91	77.6251	1,034.91	77.4609	1,034.91	77.2561	1,034.91	76.9937	1,034.91	75.7045	1,034.91	75.229	1,034.91	71.9879	1,034.91	70.9273	1,034.91	64.8726	1,034.91	60.8874	1,034.91	69.8017	1,034.91	69.8557	1,034.91	74.5997	1,034.91	74.7407	1,034.91	76.0113
1,071.53	89.7162	1,071.53	89.5242	1,071.53	89.5077	1,071.53	88.93	1,071.53	88.925	1,071.53	87.9652	1,071.53	88.0134	1,071.53	86.698	1,071.53	86.8366	1,071.53	85.2223	1,071.53	85.4704	1,071.53	83.6346	1,071.53	83.983	1,071.53	82.0212	1,071.53	82.422	1,071.53	80.511	1,071.53	80.8627	1,071.53	79.3946	1,071.53	79.5208	1,071.53	78.986	1,071.53	78.7176	1,071.53	79.0188	1,071.53	78.4267	1,071.53	78.6485	1,071.53	77.999	1,071.53	76.9306	1,071.53	76.4514	1,071.53	72.3527	1,071.53	72.0567	1,071.53	63.643	1,071.53	47.0973	1,071.53	73.2306	1,071.53	72.0088	1,071.53	77.6015	1,071.53	77.2464	1,071.53	78.7196
1,109.62	90.4196	1,109.62	90.1445	1,109.62	90.2081	1,109.62	89.3892	1,109.62	89.5227	1,109.62	88.193	1,109.62	88.3915	1,109.62	86.6397	1,109.62	86.8661	1,109.62	84.8584	1,109.62	85.0347	1,109.62	83.0061	1,109.62	83.023	1,109.62	81.2344	1,109.62	80.9895	1,109.62	79.6693	1,109.62	79.1406	1,109.62	78.4718	1,109.62	77.7792	1,109.62	77.8957	1,109.62	77.2449	1,109.62	77.9613	1,109.62	77.5046	1,109.62	78.0541	1,109.62	77.8749	1,109.62	77.1994	1,109.62	77.3748	1,109.62	74.0298	1,109.62	74.716	1,109.62	63.673	1,109.62	65.5681	1,109.62	70.3116	1,109.62	68.6715	1,109.62	76.5795	1,109.62	76.1842	1,109.62	78.0719
1,148.44	89.5348	1,148.44	89.2664	1,148.44	89.3281	1,148.44	88.5832	1,148.44	88.5982	1,148.44	87.5444	1,148.44	87.3308	1,148.44	86.2019	1,148.44	85.5799	1,148.44	84.6013	1,148.44	83.5072	1,148.44	82.799	1,148.44	81.3934	1,148.44	80.9114	1,148.44	79.5381	1,148.44	79.1878	1,148.44	78.038	1,148.44	77.9898	1,148.44	76.6936	1,148.44	77.4725	1,148.44	75.3159	1,148.44	77.2837	1,148.44	74.3184	1,148.44	76.798	1,148.44	74.33	1,148.44	75.3246	1,148.44	74.323	1,148.44	71.6476	1,148.44	72.3531	1,148.44	59.4637	1,148.44	66.2534	1,148.44	67.844	1,148.44	69.1958	1,148.44	74.4245	1,148.44	74.755	1,148.44	76.1938
1,189.45	90.0038	1,189.45	90.1258	1,189.45	89.3093	1,189.45	89.6872	1,189.45	88.0113	1,189.45	88.7084	1,189.45	86.0554	1,189.45	87.2459	1,189.45	83.4198	1,189.45	85.4025	1,189.45	80.2624	1,189.45	83.3123	1,189.45	77.0717	1,189.45	81.0961	1,189.45	74.4434	1,189.45	78.8262	1,189.45	72.9851	1,189.45	76.662	1,189.45	73.3399	1,189.45	75.3755	1,189.45	74.481	1,189.45	75.7779	1,189.45	75.1474	1,189.45	76.6056	1,189.45	75.2223	1,189.45	76.2141	1,189.45	75.1124	1,189.45	73.4775	1,189.45	74.8073	1,189.45	66.1215	1,189.45	73.5701	1,189.45	63.944	1,189.45	70.7956	1,189.45	69.8869	1,189.45	68.8126	1,189.45	70.288
1,231.2	89.6525	1,231.2	89.7563	1,231.2	88.866	1,231.2	89.1385	1,231.2	87.4753	1,231.2	87.7918	1,231.2	85.6867	1,231.2	85.7735	1,231.2	83.9852	1,231.2	83.2697	1,231.2	82.9133	1,231.2	80.6787	1,231.2	82.3106	1,231.2	78.5651	1,231.2	81.5389	1,231.2	77.2556	1,231.2	80.2977	1,231.2	76.5045	1,231.2	78.8374	1,231.2	75.9184	1,231.2	77.8529	1,231.2	75.5408	1,231.2	77.7882	1,231.2	75.5484	1,231.2	78.2649	1,231.2	75.3051	1,231.2	78.6382	1,231.2	73.6077	1,231.2	78.3008	1,231.2	68.884	1,231.2	76.5475	1,231.2	58.3833	1,231.2	72.2287	1,231.2	62.8965	1,231.2	61.6005	1,231.2	60.9727
1,274.41	88.1512	1,274.41	87.4659	1,274.41	88.1853	1,274.41	86.0029	1,274.41	87.7545	1,274.41	83.7746	1,274.41	87.1006	1,274.41	81.1811	1,274.41	86.475	1,274.41	79.1957	1,274.41	85.9686	1,274.41	78.3536	1,274.41	85.4434	1,274.41	78.0768	1,274.41	84.7503	1,274.41	77.9229	1,274.41	83.9004	1,274.41	77.807	1,274.41	82.9555	1,274.41	77.7678	1,274.41	81.8746	1,274.41	78.0849	1,274.41	80.7554	1,274.41	78.8719	1,274.41	80.2387	1,274.41	79.474	1,274.41	80.506	1,274.41	78.9678	1,274.41	80.2796	1,274.41	76.3997	1,274.41	78.2102	1,274.41	69.5466	1,274.41	73.3467	1,274.41	57.0611	1,274.41	68.5989	1,274.41	68.1481
1,319.82	87.1181	1,319.82	86.5575	1,319.82	87.2778	1,319.82	85.6348	1,319.82	87.1013	1,319.82	84.6107	1,319.82	86.7213	1,319.82	83.9056	1,319.82	86.295	1,319.82	83.5837	1,319.82	85.8445	1,319.82	83.2602	1,319.82	85.2009	1,319.82	82.6656	1,319.82	84.2737	1,319.82	81.8224	1,319.82	83.3328	1,319.82	80.8337	1,319.82	82.7737	1,319.82	79.747	1,319.82	82.4506	1,319.82	78.9233	1,319.82	81.8648	1,319.82	79.2129	1,319.82	80.9483	1,319.82	80.1854	1,319.82	80.1811	1,319.82	80.2604	1,319.82	79.3942	1,319.82	78.2662	1,319.82	77.1917	1,319.82	73.1215	1,319.82	72.1965	1,319.82	69.3185	1,319.82	69.9204	1,319.82	71.6485
1,365.97	85.9447	1,365.97	85.2916	1,365.97	86.3632	1,365.97	84.6542	1,365.97	86.4939	1,365.97	84.3451	1,365.97	86.4158	1,365.97	84.375	1,365.97	86.1975	1,365.97	84.3767	1,365.97	85.7718	1,365.97	84.0016	1,365.97	84.9705	1,365.97	83.195	1,365.97	83.7226	1,365.97	82.219	1,365.97	82.3193	1,365.97	81.4353	1,365.97	81.4446	1,365.97	80.795	1,365.97	81.2813	1,365.97	79.8729	1,365.97	81.1479	1,365.97	78.8323	1,365.97	80.6387	1,365.97	78.6806	1,365.97	79.8861	1,365.97	78.8008	1,365.97	78.6689	1,365.97	77.2932	1,365.97	75.8977	1,365.97	73.112	1,365.97	71.1641	1,365.97	71.036	1,365.97	71.6813	1,365.97	73.0748
1,414.31	87.304	1,414.31	87.1028	1,414.31	87.2643	1,414.31	86.782	1,414.31	87.0154	1,414.31	86.4999	1,414.31	86.6757	1,414.31	86.2347	1,414.31	86.3097	1,414.31	85.7665	1,414.31	85.8374	1,414.31	84.8765	1,414.31	85.0525	1,414.31	83.5406	1,414.31	83.7502	1,414.31	82.1192	1,414.31	81.9824	1,414.31	81.3416	1,414.31	80.3903	1,414.31	81.3282	1,414.31	79.6884	1,414.31	81.2641	1,414.31	79.4036	1,414.31	80.7167	1,414.31	78.9326	1,414.31	80.0253	1,414.31	78.4218	1,414.31	79.1929	1,414.31	77.5741	1,414.31	77.1183	1,414.31	74.9166	1,414.31	73.2879	1,414.31	69.5098	1,414.31	72.955	1,414.31	71.8248	1,414.31	74.3263
1,464.11	88.0536	1,464.11	87.7454	1,464.11	88.0257	1,464.11	87.2909	1,464.11	87.6452	1,464.11	86.8878	1,464.11	87.0816	1,464.11	86.5135	1,464.11	86.5632	1,464.11	85.9316	1,464.11	86.1252	1,464.11	84.9175	1,464.11	85.49	1,464.11	83.4371	1,464.11	84.3036	1,464.11	81.7746	1,464.11	82.4671	1,464.11	80.5567	1,464.11	80.4075	1,464.11	80.0447	1,464.11	79.0048	1,464.11	79.6054	1,464.11	78.5546	1,464.11	78.9069	1,464.11	78.6875	1,464.11	78.4269	1,464.11	79.0662	1,464.11	77.8202	1,464.11	78.8219	1,464.11	75.4379	1,464.11	76.5579	1,464.11	69.2192	1,464.11	69.779	1,464.11	66.7718	1,464.11	63.2346	1,464.11	69.4571
1,515.38	86.8144	1,515.38	86.765	1,515.38	86.4166	1,515.38	86.461	1,515.38	85.6672	1,515.38	86.1655	1,515.38	84.965	1,515.38	85.9068	1,515.38	84.7066	1,515.38	85.4381	1,515.38	84.7363	1,515.38	84.4977	1,515.38	84.4764	1,515.38	83.0449	1,515.38	83.539	1,515.38	81.4184	1,515.38	81.9519	1,515.38	80.2775	1,515.38	80.1664	1,515.38	79.6251	1,515.38	78.7155	1,515.38	78.5907	1,515.38	77.6277	1,515.38	77.2479	1,515.38	77.2401	1,515.38	77.2588	1,515.38	78.1454	1,515.38	77.7338	1,515.38	78.9043	1,515.38	76.2454	1,515.38	77.7822	1,515.38	71.3069	1,515.38	73.3657	1,515.38	65.3687	1,515.38	63.7601	1,515.38	65.5181
1,568.85	83.9247	1,568.85	84.1926	1,568.85	82.8164	1,568.85	83.9628	1,568.85	81.4616	1,568.85	83.9093	1,568.85	81.1434	1,568.85	84.2049	1,568.85	82.0654	1,568.85	84.459	1,568.85	83.1057	1,568.85	84.2184	1,568.85	83.3722	1,568.85	83.2227	1,568.85	82.5562	1,568.85	81.504	1,568.85	80.797	1,568.85	79.7356	1,568.85	78.9994	1,568.85	78.9119	1,568.85	78.2834	1,568.85	78.3163	1,568.85	77.6303	1,568.85	76.8832	1,568.85	76.0399	1,568.85	76.1367	1,568.85	75.8838	1,568.85	77.2223	1,568.85	77.8399	1,568.85	76.9386	1,568.85	78.0578	1,568.85	73.3881	1,568.85	74.7721	1,568.85	68.1387	1,568.85	67.5175	1,568.85	67.6048
1,624.51	82.4363	1,624.51	82.7138	1,624.51	82.3605	1,624.51	83.1479	1,624.51	82.6417	1,624.51	83.6037	1,624.51	82.8809	1,624.51	83.8524	1,624.51	82.8723	1,624.51	83.9349	1,624.51	82.9475	1,624.51	83.7382	1,624.51	82.9704	1,624.51	82.8763	1,624.51	82.3159	1,624.51	81.0978	1,624.51	80.5397	1,624.51	78.9697	1,624.51	77.9951	1,624.51	78.2409	1,624.51	76.8012	1,624.51	78.4624	1,624.51	76.9572	1,624.51	77.6016	1,624.51	76.0602	1,624.51	75.8826	1,624.51	74.9618	1,624.51	76.2209	1,624.51	76.8487	1,624.51	76.6927	1,624.51	78.1101	1,624.51	74.1199	1,624.51	76.0378	1,624.51	67.9711	1,624.51	69.5661	1,624.51	64.2153
1,681.64	85.3764	1,681.64	85.4002	1,681.64	85.7717	1,681.64	85.615	1,681.64	86.1605	1,681.64	85.5172	1,681.64	85.9478	1,681.64	84.9399	1,681.64	85.0603	1,681.64	84.1998	1,681.64	83.9981	1,681.64	83.4548	1,681.64	83.1356	1,681.64	82.2162	1,681.64	82.0195	1,681.64	79.8653	1,681.64	79.8325	1,681.64	76.9073	1,681.64	76.2257	1,681.64	76.6685	1,681.64	73.4264	1,681.64	77.8693	1,681.64	73.861	1,681.64	77.1013	1,681.64	73.5728	1,681.64	73.3571	1,681.64	71.6489	1,681.64	71.6585	1,681.64	73.3441	1,681.64	74.9297	1,681.64	75.7835	1,681.64	74.8887	1,681.64	74.9102	1,681.64	71.4345	1,681.64	71.1032	1,681.64	68.2792
1,740.97	87.802	1,740.97	87.6121	1,740.97	88.3782	1,740.97	87.5583	1,740.97	88.8335	1,740.97	87.0043	1,740.97	88.5585	1,740.97	85.7225	1,740.97	87.3181	1,740.97	84.0702	1,740.97	85.3437	1,740.97	82.5725	1,740.97	83.4248	1,740.97	81.0932	1,740.97	82.1649	1,740.97	78.795	1,740.97	80.7546	1,740.97	75.1337	1,740.97	78.054	1,740.97	72.3789	1,740.97	74.0842	1,740.97	74.1865	1,740.97	73.5338	1,740.97	75.6903	1,740.97	75.2577	1,740.97	74.6088	1,740.97	73.7623	1,740.97	72.051	1,740.97	70.0254	1,740.97	73.4836	1,740.97	72.8648	1,740.97	74.3243	1,740.97	73.1541	1,740.97	72.1711	1,740.97	69.4907	1,740.97	68.917
1,802.49	89.5475	1,802.49	89.2769	1,802.49	89.7742	1,802.49	88.8869	1,802.49	89.9037	1,802.49	88.2469	1,802.49	89.7084	1,802.49	87.204	1,802.49	88.9127	1,802.49	85.6104	1,802.49	87.3556	1,802.49	83.46	1,802.49	85.1456	1,802.49	81.0814	1,802.49	82.8235	1,802.49	78.8268	1,802.49	80.9903	1,802.49	76.4091	1,802.49	79.307	1,802.49	73.0607	1,802.49	76.9423	1,802.49	70.6812	1,802.49	74.7525	1,802.49	74.2567	1,802.49	75.4252	1,802.49	76.0882	1,802.49	75.76	1,802.49	74.2047	1,802.49	73.3543	1,802.49	70.1875	1,802.49	72.393	1,802.49	70.6639	1,802.49	74.1826	1,802.49	71.0129	1,802.49	73.4607	1,802.49	71.4025
1,866.21	90.3379	1,866.21	90.2381	1,866.21	90.1818	1,866.21	89.9156	1,866.21	89.7798	1,866.21	89.4018	1,866.21	89.1174	1,866.21	88.6178	1,866.21	88.0946	1,866.21	87.3739	1,866.21	86.5728	1,866.21	85.5273	1,866.21	84.5167	1,866.21	83.2013	1,866.21	82.1695	1,866.21	80.8944	1,866.21	80.0295	1,866.21	79.0647	1,866.21	78.272	1,866.21	77.4773	1,866.21	76.5618	1,866.21	75.8684	1,866.21	75.5377	1,866.21	75.4733	1,866.21	76.385	1,866.21	76.0608	1,866.21	76.6572	1,866.21	75.296	1,866.21	74.1506	1,866.21	73.1563	1,866.21	72.5188	1,866.21	72.2843	1,866.21	75.2795	1,866.21	72.9976	1,866.21	75.7107	1,866.21	74.3418
1,932.13	90.271	1,932.13	90.357	1,932.13	90.2816	1,932.13	90.3609	1,932.13	90.3741	1,932.13	90.0488	1,932.13	90.321	1,932.13	89.2435	1,932.13	89.8221	1,932.13	87.9058	1,932.13	88.6598	1,932.13	86.1628	1,932.13	86.8451	1,932.13	84.2385	1,932.13	84.7225	1,932.13	82.3107	1,932.13	82.7486	1,932.13	80.3929	1,932.13	80.8143	1,932.13	78.4525	1,932.13	78.1394	1,932.13	77.3677	1,932.13	75.6412	1,932.13	78.218	1,932.13	77.3893	1,932.13	78.9332	1,932.13	78.8427	1,932.13	77.8051	1,932.13	77.1361	1,932.13	75.153	1,932.13	72.5612	1,932.13	73.4914	1,932.13	71.6469	1,932.13	73.0793	1,932.13	72.7505	1,932.13	72.7932
2,000.24	90.5792	2,000.24	90.7646	2,000.24	90.6646	2,000.24	90.9637	2,000.24	90.9708	2,000.24	90.8311	2,000.24	91.1462	2,000.24	90.1185	2,000.24	90.7568	2,000.24	88.7012	2,000.24	89.5008	2,000.24	86.5292	2,000.24	87.366	2,000.24	83.7139	2,000.24	84.7806	2,000.24	80.8528	2,000.24	82.521	2,000.24	78.848	2,000.24	80.8436	2,000.24	77.5162	2,000.24	78.8238	2,000.24	75.7654	2,000.24	75.2537	2,000.24	74.3645	2,000.24	72.7872	2,000.24	75.1684	2,000.24	75.4705	2,000.24	75.4161	2,000.24	76.159	2,000.24	73.764	2,000.24	74.0844	2,000.24	71.9219	2,000.24	72.2442	2,000.24	72.0483	2,000.24	72.6686	2,000.24	72.723
2,070.56	91.3578	2,070.56	91.5509	2,070.56	91.2213	2,070.56	91.6319	2,070.56	91.145	2,070.56	91.3508	2,070.56	90.9435	2,070.56	90.4875	2,070.56	90.3023	2,070.56	88.926	2,070.56	88.9538	2,070.56	86.6585	2,070.56	86.8488	2,070.56	83.788	2,070.56	84.24	2,070.56	80.7063	2,070.56	81.6611	2,070.56	78.1895	2,070.56	79.5585	2,070.56	76.4369	2,070.56	77.548	2,070.56	74.5762	2,070.56	74.7664	2,070.56	72.7979	2,070.56	71.8678	2,070.56	72.4901	2,070.56	71.4664	2,070.56	72.2451	2,070.56	71.1906	2,070.56	71.5445	2,070.56	69.9171	2,070.56	71.155	2,070.56	69.4866	2,070.56	70.1928	2,070.56	69.2072	2,070.56	69.1215
2,143.8	90.5661	2,143.8	90.7782	2,143.8	90.2518	2,143.8	90.8047	2,143.8	89.7526	2,143.8	90.4141	2,143.8	88.9843	2,143.8	89.4473	2,143.8	87.8824	2,143.8	87.9197	2,143.8	86.3163	2,143.8	85.8965	2,143.8	84.1493	2,143.8	83.3771	2,143.8	81.4605	2,143.8	80.5853	2,143.8	78.6683	2,143.8	78.1807	2,143.8	76.2069	2,143.8	76.2575	2,143.8	73.8302	2,143.8	73.8844	2,143.8	70.7649	2,143.8	71.6418	2,143.8	67.7533	2,143.8	71.329	2,143.8	67.1581	2,143.8	69.1739	2,143.8	65.4696	2,143.8	64.0795	2,143.8	59.9516	2,143.8	65.9098	2,143.8	61.5738	2,143.8	66.5204	2,143.8	63.7932	2,143.8	65.0008
2,219.24	89.2375	2,219.24	89.0811	2,219.24	89.0739	2,219.24	88.6898	2,219.24	88.4781	2,219.24	87.995	2,219.24	87.4618	2,219.24	86.9012	2,219.24	86.018	2,219.24	85.3825	2,219.24	83.9615	2,219.24	83.3868	2,219.24	81.1566	2,219.24	80.824	2,219.24	77.9068	2,219.24	78.1087	2,219.24	74.85	2,219.24	76.3285	2,219.24	72.4188	2,219.24	75.1917	2,219.24	70.4148	2,219.24	72.8276	2,219.24	67.5544	2,219.24	68.9423	2,219.24	61.9677	2,219.24	68.9462	2,219.24	59.4521	2,219.24	68.0079	2,219.24	60.8172	2,219.24	61.6486	2,219.24	52.6103	2,219.24	60.5845	2,219.24	53.6786	2,219.24	60.4648	2,219.24	56.7754	2,219.24	56.6224
2,297.61	89.744	2,297.61	89.115	2,297.61	89.7545	2,297.61	88.0527	2,297.61	89.016	2,297.61	86.6034	2,297.61	87.5722	2,297.61	84.7139	2,297.61	85.5304	2,297.61	82.3976	2,297.61	82.9537	2,297.61	79.7115	2,297.61	80	2,297.61	76.6941	2,297.61	76.9049	2,297.61	74.0209	2,297.61	73.5444	2,297.61	72.7276	2,297.61	69.8466	2,297.61	71.6189	2,297.61	66.8268	2,297.61	68.9036	2,297.61	64.39	2,297.61	65.2656	2,297.61	58.2404	2,297.61	64.6172	2,297.61	51.7598	2,297.61	62.7547	2,297.61	59.2402	2,297.61	62.8285	2,297.61	57.0027	2,297.61	63.8178	2,297.61	52.3563	2,297.61	60.296	2,297.61	54.0267	2,297.61	55.2374
2,378.17	90.6374	2,378.17	90.0243	2,378.17	90.3269	2,378.17	88.6119	2,378.17	89.0674	2,378.17	86.5374	2,378.17	87.0552	2,378.17	84.0203	2,378.17	84.5877	2,378.17	81.3046	2,378.17	81.7264	2,378.17	78.3291	2,378.17	78.41	2,378.17	74.779	2,378.17	74.771	2,378.17	71.9868	2,378.17	70.6341	2,378.17	71.2228	2,378.17	65.7046	2,378.17	69.245	2,378.17	63.0725	2,378.17	63.8301	2,378.17	62.3721	2,378.17	62.7663	2,378.17	57.8509	2,378.17	64.8051	2,378.17	57.2665	2,378.17	61.6086	2,378.17	61.741	2,378.17	62.1693	2,378.17	62.8246	2,378.17	63.1236	2,378.17	62.0692	2,378.17	57.9448	2,378.17	57.9747	2,378.17	53.0072
2,462.4	90.4992	2,462.4	90.2408	2,462.4	89.9628	2,462.4	89.0537	2,462.4	88.7684	2,462.4	86.7645	2,462.4	86.9911	2,462.4	83.275	2,462.4	84.47	2,462.4	78.7559	2,462.4	80.9468	2,462.4	73.0802	2,462.4	76.7402	2,462.4	66.065	2,462.4	72.7494	2,462.4	68.2879	2,462.4	68.2525	2,462.4	69.9313	2,462.4	63.699	2,462.4	67.5279	2,462.4	65.211	2,462.4	64.3398	2,462.4	64.2001	2,462.4	65.6097	2,462.4	61.781	2,462.4	64.2605	2,462.4	64.9326	2,462.4	62.6478	2,462.4	64.9003	2,462.4	64.5771	2,462.4	63.4755	2,462.4	63.4591	2,462.4	64.822	2,462.4	58.7952	2,462.4	63.0031	2,462.4	58.4057
2,548.83	91.291	2,548.83	91.1083	2,548.83	90.9978	2,548.83	90.3944	2,548.83	90.0547	2,548.83	88.8266	2,548.83	88.212	2,548.83	86.0455	2,548.83	85.1088	2,548.83	81.939	2,548.83	80.04	2,548.83	76.3418	2,548.83	72.1899	2,548.83	67.0423	2,548.83	66.5267	2,548.83	62.21	2,548.83	67.0312	2,548.83	65.9108	2,548.83	68.8163	2,548.83	65.6202	2,548.83	70.5803	2,548.83	68.8335	2,548.83	69.4379	2,548.83	68.1211	2,548.83	67.3944	2,548.83	60.5846	2,548.83	68.7622	2,548.83	52.9926	2,548.83	68.2197	2,548.83	59.4583	2,548.83	64.2411	2,548.83	64.6259	2,548.83	63.7757	2,548.83	65.329	2,548.83	62.357	2,548.83	63.1635
2,638.92	92.1411	2,638.92	91.9063	2,638.92	91.8899	2,638.92	91.0943	2,638.92	91.0477	2,638.92	89.4015	2,638.92	89.3817	2,638.92	86.5015	2,638.92	86.4036	2,638.92	82.243	2,638.92	81.0923	2,638.92	76.519	2,638.92	71.7435	2,638.92	68.0456	2,638.92	64.5575	2,638.92	64.5343	2,638.92	66.839	2,638.92	65.0385	2,638.92	69.5456	2,638.92	66.1305	2,638.92	70.9348	2,638.92	68.9758	2,638.92	69.4701	2,638.92	66.2921	2,638.92	67.7946	2,638.92	50.756	2,638.92	68.8242	2,638.92	54.4658	2,638.92	68.3627	2,638.92	63.4518	2,638.92	65.3889	2,638.92	67.1043	2,638.92	64.0145	2,638.92	67.75	2,638.92	66.3125	2,638.92	67.9087
2,731.93	91.834	2,731.93	91.4497	2,731.93	91.6894	2,731.93	90.523	2,731.93	90.7406	2,731.93	88.6777	2,731.93	88.7555	2,731.93	85.5398	2,731.93	85.5185	2,731.93	81.2534	2,731.93	80.4784	2,731.93	76.8943	2,731.93	73.169	2,731.93	72.5392	2,731.93	67.078	2,731.93	68.6116	2,731.93	64.3362	2,731.93	66.5005	2,731.93	66.0637	2,731.93	68.3475	2,731.93	67.1903	2,731.93	69.9766	2,731.93	64.6439	2,731.93	66.0748	2,731.93	63.0036	2,731.93	55.9989	2,731.93	64.642	2,731.93	60.7273	2,731.93	62.4127	2,731.93	67.6943	2,731.93	54.7672	2,731.93	70.6319	2,731.93	59.2341	2,731.93	69.5868	2,731.93	65.5243	2,731.93	68.1191
2,828.61	89.6769	2,828.61	89.1442	2,828.61	89.3838	2,828.61	87.8804	2,828.61	88.1086	2,828.61	85.7817	2,828.61	85.8689	2,828.61	82.8377	2,828.61	82.6771	2,828.61	79.5611	2,828.61	78.0998	2,828.61	76.4441	2,828.61	71.941	2,828.61	72.2417	2,828.61	67.1404	2,828.61	66.6135	2,828.61	63.9404	2,828.61	63.6471	2,828.61	56.3554	2,828.61	65.8246	2,828.61	57.4538	2,828.61	65.7933	2,828.61	56.2897	2,828.61	57.7425	2,828.61	59.5083	2,828.61	62.2813	2,828.61	66.2591	2,828.61	67.1543	2,828.61	67.6889	2,828.61	67.9225	2,828.61	64.7886	2,828.61	68.8413	2,828.61	63.1305	2,828.61	67.5733	2,828.61	65.3623	2,828.61	66.488
2,928.22	87.4008	2,928.22	86.5332	2,928.22	87.0765	2,928.22	85.0487	2,928.22	85.2118	2,928.22	83.2068	2,928.22	82.0408	2,928.22	80.9277	2,928.22	78.2649	2,928.22	78.373	2,928.22	74.1425	2,928.22	75.6297	2,928.22	69.81	2,928.22	71.7806	2,928.22	66.9519	2,928.22	66.3529	2,928.22	65.7928	2,928.22	61.8879	2,928.22	63.2765	2,928.22	59.8135	2,928.22	60.2776	2,928.22	57.2615	2,928.22	58.427	2,928.22	54.6282	2,928.22	53.1268	2,928.22	57.628	2,928.22	62.5967	2,928.22	65.28	2,928.22	67.0098	2,928.22	67.6595	2,928.22	65.0326	2,928.22	68.2195	2,928.22	58.6961	2,928.22	66.6483	2,928.22	57.5629	2,928.22	62.9594
3,031.49	86.7121	3,031.49	85.9418	3,031.49	86.4964	3,031.49	84.6379	3,031.49	84.9884	3,031.49	82.7929	3,031.49	82.24	3,031.49	80.271	3,031.49	78.0588	3,031.49	76.9612	3,031.49	73.1344	3,031.49	72.9847	3,031.49	72.8761	3,031.49	69.7287	3,031.49	73.2379	3,031.49	68.0701	3,031.49	72.86	3,031.49	66.058	3,031.49	71.4856	3,031.49	61.1595	3,031.49	69.0852	3,031.49	55.4126	3,031.49	67.002	3,031.49	56.4052	3,031.49	65.9713	3,031.49	60.8226	3,031.49	66.9907	3,031.49	66.0616	3,031.49	66.7484	3,031.49	68.2015	3,031.49	62.626	3,031.49	66.7124	3,031.49	61.809	3,031.49	66.5836	3,031.49	66.8127	3,031.49	68.1392
3,138.43	91.4401	3,138.43	91.0816	3,138.43	90.9395	3,138.43	89.6454	3,138.43	89.3943	3,138.43	86.6139	3,138.43	86.4483	3,138.43	81.6986	3,138.43	81.3861	3,138.43	75.18	3,138.43	71.4806	3,138.43	66.5666	3,138.43	72.515	3,138.43	59.7445	3,138.43	75.4495	3,138.43	65.9418	3,138.43	75.4356	3,138.43	65.5491	3,138.43	75.137	3,138.43	65.2932	3,138.43	73.4508	3,138.43	67.6292	3,138.43	70.4256	3,138.43	68.7098	3,138.43	67.9071	3,138.43	67.1809	3,138.43	68.7764	3,138.43	70.4919	3,138.43	70.3308	3,138.43	73.8512	3,138.43	67.9862	3,138.43	72.9909	3,138.43	64.9221	3,138.43	71.3806	3,138.43	70.0625	3,138.43	71.5563
3,249.02	91.9717	3,249.02	91.3488	3,249.02	91.4954	3,249.02	89.8404	3,249.02	89.6767	3,249.02	87.4056	3,249.02	86.6543	3,249.02	84.1222	3,249.02	82.6743	3,249.02	80.4354	3,249.02	76.4071	3,249.02	76.1382	3,249.02	63.6108	3,249.02	71.6173	3,249.02	66.1249	3,249.02	68.1362	3,249.02	68.5449	3,249.02	61.5024	3,249.02	70.2978	3,249.02	61.9344	3,249.02	68.5774	3,249.02	67.1416	3,249.02	65.1577	3,249.02	67.1901	3,249.02	65.4584	3,249.02	61.7876	3,249.02	68.4352	3,249.02	70.3103	3,249.02	69.253	3,249.02	74.5159	3,249.02	66.1959	3,249.02	73.8593	3,249.02	64.4541	3,249.02	72.2805	3,249.02	70.6931	3,249.02	72.3844
3,363.28	90.1593	3,363.28	89.5955	3,363.28	89.5756	3,363.28	88.2788	3,363.28	87.6658	3,363.28	86.3656	3,363.28	84.7811	3,363.28	83.859	3,363.28	81.6438	3,363.28	80.7569	3,363.28	78.5726	3,363.28	76.7223	3,363.28	74.7929	3,363.28	71.9758	3,363.28	70.508	3,363.28	68.352	3,363.28	68.6361	3,363.28	63.7195	3,363.28	67.9948	3,363.28	53.6352	3,363.28	64.7499	3,363.28	58.5322	3,363.28	59.3745	3,363.28	64.4121	3,363.28	59.7881	3,363.28	64.389	3,363.28	65.62	3,363.28	69.2629	3,363.28	68.5878	3,363.28	72.6593	3,363.28	65.8489	3,363.28	71.525	3,363.28	61.468	3,363.28	70.7535	3,363.28	69.6687	3,363.28	71.4591
3,481.93	88.8667	3,481.93	88.2717	3,481.93	88.1581	3,481.93	86.7537	3,481.93	85.8822	3,481.93	84.6543	3,481.93	82.3957	3,481.93	82.3395	3,481.93	79.0096	3,481.93	79.6061	3,481.93	77.9499	3,481.93	75.6784	3,481.93	77.4927	3,481.93	71.3891	3,481.93	75.9493	3,481.93	68.8865	3,481.93	74.8412	3,481.93	66.1899	3,481.93	73.2208	3,481.93	58.9417	3,481.93	69.4942	3,481.93	50.2834	3,481.93	65.4889	3,481.93	58.7676	3,481.93	63.1939	3,481.93	58.5274	3,481.93	65.1168	3,481.93	66.5739	3,481.93	68.3561	3,481.93	70.5347	3,481.93	65.257	3,481.93	69.8009	3,481.93	63.1393	3,481.93	69.8399	3,481.93	70.6827	3,481.93	71.6734
3,604.98	90.1952	3,604.98	89.6752	3,604.98	89.6329	3,604.98	88.2719	3,604.98	87.6457	3,604.98	85.8167	3,604.98	84.3422	3,604.98	82.5934	3,604.98	80.4317	3,604.98	79.444	3,604.98	77.7504	3,604.98	76.2389	3,604.98	76.8608	3,604.98	72.1229	3,604.98	75.635	3,604.98	68.7906	3,604.98	74.8617	3,604.98	66.0425	3,604.98	73.6253	3,604.98	60.9518	3,604.98	70.5034	3,604.98	48.6625	3,604.98	68.1041	3,604.98	57.1771	3,604.98	66.099	3,604.98	58.6299	3,604.98	65.7187	3,604.98	66.2977	3,604.98	71.2495	3,604.98	70.371	3,604.98	68.5916	3,604.98	70.2385	3,604.98	64.7573	3,604.98	70.8653	3,604.98	72.443	3,604.98	73.1947
3,732.42	89.7145	3,732.42	88.964	3,732.42	89.2239	3,732.42	87.1312	3,732.42	87.3688	3,732.42	84.1269	3,732.42	84.755	3,732.42	80.431	3,732.42	81.9887	3,732.42	77.225	3,732.42	79.9302	3,732.42	73.3641	3,732.42	78.076	3,732.42	69.6972	3,732.42	76.3105	3,732.42	68.4219	3,732.42	75.5831	3,732.42	63.7757	3,732.42	73.6683	3,732.42	52.8408	3,732.42	69.4362	3,732.42	47.2143	3,732.42	65.7658	3,732.42	61.0332	3,732.42	65.1915	3,732.42	63.8483	3,732.42	63.4843	3,732.42	69.9232	3,732.42	69.9548	3,732.42	72.8842	3,732.42	69.5353	3,732.42	72.3981	3,732.42	65.1692	3,732.42	72.3739	3,732.42	72.1453	3,732.42	73.5289
3,863.53	88.7757	3,863.53	88.3373	3,863.53	88.1173	3,863.53	86.5288	3,863.53	86.4309	3,863.53	83.3184	3,863.53	83.882	3,863.53	80.4984	3,863.53	80.6222	3,863.53	79.3075	3,863.53	78.4095	3,863.53	77.0386	3,863.53	77.1124	3,863.53	74.8414	3,863.53	76.0303	3,863.53	73.2926	3,863.53	75.049	3,863.53	68.8376	3,863.53	73.0673	3,863.53	59.866	3,863.53	69.7651	3,863.53	55.4357	3,863.53	65.3629	3,863.53	63.5273	3,863.53	61.9512	3,863.53	65.3866	3,863.53	61.9634	3,863.53	68.0707	3,863.53	67.847	3,863.53	70.0984	3,863.53	68.4921	3,863.53	67.9077	3,863.53	56.5655	3,863.53	66.2449	3,863.53	66.0839	3,863.53	67.5996
3,999.76	90.1316	3,999.76	89.8307	3,999.76	89.3714	3,999.76	88.0494	3,999.76	87.8405	3,999.76	85.0129	3,999.76	85.4528	3,999.76	82.6895	3,999.76	81.9095	3,999.76	81.599	3,999.76	78.8954	3,999.76	79.0332	3,999.76	77.9495	3,999.76	75.7589	3,999.76	77.5906	3,999.76	73.6938	3,999.76	76.564	3,999.76	70.1419	3,999.76	74.3739	3,999.76	62.5596	3,999.76	71.5323	3,999.76	58.0352	3,999.76	68.6566	3,999.76	62.6867	3,999.76	63.8849	3,999.76	63.2719	3,999.76	61.0607	3,999.76	66.6026	3,999.76	67.8102	3,999.76	69.2015	3,999.76	67.5861	3,999.76	66.6642	3,999.76	52.7477	3,999.76	67.1084	3,999.76	70.7069	3,999.76	71.3937
4,141.11	90.2977	4,141.11	89.9497	4,141.11	89.6356	4,141.11	88.2712	4,141.11	88.2887	4,141.11	85.6441	4,141.11	86.2869	4,141.11	84.0793	4,141.11	83.4036	4,141.11	83.1668	4,141.11	80.3652	4,141.11	79.8851	4,141.11	78.4655	4,141.11	76.1312	4,141.11	77.8024	4,141.11	73.2755	4,141.11	77.0036	4,141.11	65.9754	4,141.11	74.6915	4,141.11	54.3859	4,141.11	70.8416	4,141.11	50.5866	4,141.11	67.8221	4,141.11	62.6529	4,141.11	66.2958	4,141.11	66.2717	4,141.11	64.2298	4,141.11	70.0056	4,141.11	70.6486	4,141.11	73.8191	4,141.11	69.379	4,141.11	72.9676	4,141.11	62.3024	4,141.11	71.5414	4,141.11	73.0673	4,141.11	73.6122
4,286.87	90.6369	4,286.87	90.2656	4,286.87	89.6127	4,286.87	87.9506	4,286.87	87.9416	4,286.87	84.8401	4,286.87	85.7924	4,286.87	83.818	4,286.87	82.8274	4,286.87	82.6162	4,286.87	80.4831	4,286.87	78.7447	4,286.87	79.7161	4,286.87	76.786	4,286.87	79.3748	4,286.87	75.5089	4,286.87	76.9978	4,286.87	69.3456	4,286.87	72.8166	4,286.87	57.6781	4,286.87	69.5327	4,286.87	55.5718	4,286.87	66.3913	4,286.87	64.6016	4,286.87	59.2246	4,286.87	69.1547	4,286.87	65.0335	4,286.87	70.2952	4,286.87	69.4897	4,286.87	72.6718	4,286.87	71.178	4,286.87	69.9708	4,286.87	61.5958	4,286.87	67.4163	4,286.87	70.6898	4,286.87	70.6524
4,438.48	90.4469	4,438.48	90.1276	4,438.48	89.6383	4,438.48	88.5041	4,438.48	88.3371	4,438.48	86.6148	4,438.48	86.4224	4,438.48	85.693	4,438.48	83.1647	4,438.48	84.2269	4,438.48	80.036	4,438.48	81.3762	4,438.48	79.5667	4,438.48	79.7757	4,438.48	79.1714	4,438.48	76.9363	4,438.48	76.4366	4,438.48	70.9339	4,438.48	72.2994	4,438.48	65.9141	4,438.48	69.6862	4,438.48	63.0791	4,438.48	68.1426	4,438.48	63.6994	4,438.48	63.2993	4,438.48	70.1567	4,438.48	59.2694	4,438.48	67.4788	4,438.48	68.2509	4,438.48	67.792	4,438.48	71.5591	4,438.48	63.3414	4,438.48	61.9723	4,438.48	56.8919	4,438.48	67.0631	4,438.48	66.6385
4,594.48	91.0992	4,594.48	91.0376	4,594.48	90.255	4,594.48	89.5437	4,594.48	89.2894	4,594.48	87.6759	4,594.48	87.4125	4,594.48	86.3993	4,594.48	83.8907	4,594.48	84.4313	4,594.48	81.4141	4,594.48	81.7488	4,594.48	81.8154	4,594.48	80.4577	4,594.48	81.0325	4,594.48	77.7159	4,594.48	77.39	4,594.48	72.7207	4,594.48	71.9662	4,594.48	69.1492	4,594.48	69.1384	4,594.48	67.2552	4,594.48	69.7729	4,594.48	64.9268	4,594.48	64.044	4,594.48	69.7618	4,594.48	61.543	4,594.48	52.6315	4,594.48	59.7556	4,594.48	69.763	4,594.48	69.1595	4,594.48	69.0003	4,594.48	64.9057	4,594.48	65.1654	4,594.48	71.581	4,594.48	70.2466
4,757.08	91.9933	4,757.08	91.5482	4,757.08	91.4696	4,757.08	89.8976	4,757.08	90.4742	4,757.08	87.8428	4,757.08	88.5945	4,757.08	86.1998	4,757.08	85.628	4,757.08	84.6055	4,757.08	83.6487	4,757.08	82.9746	4,757.08	83.343	4,757.08	81.2155	4,757.08	81.9125	4,757.08	78.1256	4,757.08	78.2291	4,757.08	73.6721	4,757.08	73.1511	4,757.08	70.347	4,757.08	69.8029	4,757.08	66.2567	4,757.08	70.9842	4,757.08	62.281	4,757.08	68.3929	4,757.08	67.5226	4,757.08	62.9987	4,757.08	55.6547	4,757.08	60.5673	4,757.08	71.0117	4,757.08	67.1874	4,757.08	70.2883	4,757.08	67.3656	4,757.08	66.4628	4,757.08	72.9646	4,757.08	71.3475
4,924.8	91.2473	4,924.8	90.9039	4,924.8	90.6624	4,924.8	89.523	4,924.8	89.6374	4,924.8	87.8667	4,924.8	87.8781	4,924.8	86.4476	4,924.8	85.2404	4,924.8	84.8519	4,924.8	83.5765	4,924.8	82.8046	4,924.8	83.2772	4,924.8	80.9021	4,924.8	81.8532	4,924.8	78.4433	4,924.8	78.7602	4,924.8	72.6218	4,924.8	74.232	4,924.8	65.3494	4,924.8	69.4937	4,924.8	61.2254	4,924.8	69.0544	4,924.8	58.718	4,924.8	64.8647	4,924.8	63.8717	4,924.8	64.6749	4,924.8	59.5758	4,924.8	61.7073	4,924.8	71.5132	4,924.8	59.6762	4,924.8	69.23	4,924.8	64.2085	4,924.8	62.189	4,924.8	71.8392	4,924.8	69.4599
5,098.39	90.3118	5,098.39	89.9567	5,098.39	89.9651	5,098.39	88.8108	5,098.39	89.0617	5,098.39	87.137	5,098.39	87.1509	5,098.39	85.5144	5,098.39	84.3853	5,098.39	84.4331	5,098.39	82.8041	5,098.39	83.1943	5,098.39	82.2928	5,098.39	81.3946	5,098.39	80.4932	5,098.39	78.9971	5,098.39	77.1001	5,098.39	73.5433	5,098.39	71.4855	5,098.39	66.9585	5,098.39	66.0561	5,098.39	66.0276	5,098.39	67.9574	5,098.39	61.4892	5,098.39	65.0545	5,098.39	63.5414	5,098.39	60.0505	5,098.39	51.5715	5,098.39	60.7443	5,098.39	68.8214	5,098.39	63.2517	5,098.39	66.5353	5,098.39	62.8481	5,098.39	54.8055	5,098.39	69.5128	5,098.39	64.7392
5,277.83	89.717	5,277.83	89.6409	5,277.83	89.3211	5,277.83	88.8838	5,277.83	88.4095	5,277.83	87.5568	5,277.83	86.1912	5,277.83	86.0763	5,277.83	83.0493	5,277.83	85.0213	5,277.83	81.1844	5,277.83	83.4848	5,277.83	80.0748	5,277.83	81.4503	5,277.83	77.9324	5,277.83	79.6406	5,277.83	74.8219	5,277.83	73.6136	5,277.83	67.4247	5,277.83	61.6921	5,277.83	57.2112	5,277.83	64.3169	5,277.83	65.5451	5,277.83	63.3796	5,277.83	64.2469	5,277.83	61.5913	5,277.83	57.7309	5,277.83	62.9923	5,277.83	58.5392	5,277.83	66.4905	5,277.83	61.6446	5,277.83	63.2097	5,277.83	58.9767	5,277.83	55.6773	5,277.83	69.7286	5,277.83	65.8786
5,463.87	89.8108	5,463.87	89.4202	5,463.87	89.5659	5,463.87	88.4357	5,463.87	88.4372	5,463.87	86.7296	5,463.87	86.2193	5,463.87	84.9459	5,463.87	83.7468	5,463.87	83.7205	5,463.87	81.8484	5,463.87	81.5551	5,463.87	79.4698	5,463.87	79.7832	5,463.87	76.4587	5,463.87	79.0511	5,463.87	72.4813	5,463.87	74.0654	5,463.87	62.9171	5,463.87	64.7433	5,463.87	62.4005	5,463.87	64.9472	5,463.87	62.0754	5,463.87	65.9075	5,463.87	62.8792	5,463.87	62.0398	5,463.87	41.5136	5,463.87	65.1983	5,463.87	56.5677	5,463.87	67.3213	5,463.87	62.2541	5,463.87	63.5161	5,463.87	59.7995	5,463.87	55.3709	5,463.87	68.67	5,463.87	65.3475
5,656.49	88.022	5,656.49	87.4457	5,656.49	88.0475	5,656.49	86.5267	5,656.49	86.8054	5,656.49	85.0996	5,656.49	84.4201	5,656.49	84.3813	5,656.49	82.3763	5,656.49	83.9623	5,656.49	80.4995	5,656.49	81.7543	5,656.49	77.7279	5,656.49	80.4215	5,656.49	75.8187	5,656.49	79.8727	5,656.49	72.7962	5,656.49	74.9252	5,656.49	64.8469	5,656.49	66.3311	5,656.49	66.7137	5,656.49	61.2207	5,656.49	63.0234	5,656.49	64.5386	5,656.49	59.2958	5,656.49	55.1245	5,656.49	50.937	5,656.49	65.3398	5,656.49	54.9984	5,656.49	66.956	5,656.49	59.1826	5,656.49	64.5109	5,656.49	58.2737	5,656.49	64.1169	5,656.49	65.6198	5,656.49	62.6945
5,856.45	86.475	5,856.45	86.0545	5,856.45	86.4414	5,856.45	85.1803	5,856.45	85.331	5,856.45	84.0363	5,856.45	83.8757	5,856.45	84.107	5,856.45	82.3514	5,856.45	83.423	5,856.45	79.8472	5,856.45	80.6458	5,856.45	77.6379	5,856.45	79.4925	5,856.45	76.0561	5,856.45	77.8076	5,856.45	70.3619	5,856.45	73.1281	5,856.45	66.6362	5,856.45	69.0812	5,856.45	68.5883	5,856.45	65.4346	5,856.45	67.6738	5,856.45	65.2274	5,856.45	59.5259	5,856.45	63.2718	5,856.45	58.6255	5,856.45	63.6555	5,856.45	61.4722	5,856.45	64.7258	5,856.45	60.0364	5,856.45	61.85	5,856.45	58.0341	5,856.45	64.8894	5,856.45	60.2868	5,856.45	54.7237
6,062.99	86.3484	6,062.99	86.3123	6,062.99	85.9413	6,062.99	85.3954	6,062.99	85.0904	6,062.99	84.0745	6,062.99	83.8948	6,062.99	83.4844	6,062.99	82.0493	6,062.99	82.0786	6,062.99	79.7509	6,062.99	79.6288	6,062.99	78.5907	6,062.99	78.4301	6,062.99	76.7906	6,062.99	76.1425	6,062.99	71.0391	6,062.99	72.1948	6,062.99	68.2436	6,062.99	69.0819	6,062.99	66.7129	6,062.99	64.3715	6,062.99	66.4878	6,062.99	60.2409	6,062.99	63.1429	6,062.99	63.4312	6,062.99	54.9961	6,062.99	62.5862	6,062.99	57.8208	6,062.99	63.262	6,062.99	58.9547	6,062.99	62.4008	6,062.99	60.768	6,062.99	65.5722	6,062.99	61.0857	6,062.99	56.3079
6,276.86	86.7424	6,276.86	86.4338	6,276.86	86.3133	6,276.86	85.1469	6,276.86	85.3448	6,276.86	83.6719	6,276.86	83.9337	6,276.86	82.8877	6,276.86	81.8387	6,276.86	81.6277	6,276.86	79.7172	6,276.86	79.6946	6,276.86	78.9949	6,276.86	78.1487	6,276.86	77.1968	6,276.86	75.8516	6,276.86	72.2257	6,276.86	72.2308	6,276.86	70.8349	6,276.86	68.807	6,276.86	67.7587	6,276.86	64.5528	6,276.86	65.5039	6,276.86	56.3373	6,276.86	63.3447	6,276.86	63.9397	6,276.86	54.7919	6,276.86	64.0809	6,276.86	54.6103	6,276.86	61.2997	6,276.86	62.9535	6,276.86	66.2205	6,276.86	63.7471	6,276.86	68.352	6,276.86	62.391	6,276.86	61.34
6,498.05	85.3711	6,498.05	85.3466	6,498.05	84.8969	6,498.05	84.2297	6,498.05	84.2859	6,498.05	82.7319	6,498.05	83.1331	6,498.05	82.0077	6,498.05	80.5122	6,498.05	80.928	6,498.05	77.8324	6,498.05	79.2733	6,498.05	77.3233	6,498.05	77.7917	6,498.05	74.8764	6,498.05	74.9933	6,498.05	70.0812	6,498.05	71.5177	6,498.05	68.8848	6,498.05	68.4314	6,498.05	63.0978	6,498.05	63.6915	6,498.05	60.664	6,498.05	57.496	6,498.05	61.3265	6,498.05	64.1404	6,498.05	56.6029	6,498.05	61.8651	6,498.05	55.4177	6,498.05	59.1096	6,498.05	65.5597	6,498.05	67.0759	6,498.05	67.0449	6,498.05	69.8567	6,498.05	61.0637	6,498.05	63.6087
6,727.29	85.6504	6,727.29	85.7282	6,727.29	84.9424	6,727.29	84.4453	6,727.29	84.3874	6,727.29	82.6948	6,727.29	82.9287	6,727.29	81.207	6,727.29	79.5085	6,727.29	79.9508	6,727.29	76.5914	6,727.29	79.2049	6,727.29	75.4785	6,727.29	77.11	6,727.29	71.9589	6,727.29	74.2218	6,727.29	70.2773	6,727.29	71.3511	6,727.29	68.6719	6,727.29	68.3252	6,727.29	63.3674	6,727.29	64.5924	6,727.29	55.5984	6,727.29	53.5044	6,727.29	62.4361	6,727.29	62.1874	6,727.29	53.297	6,727.29	52.8827	6,727.29	48.5397	6,727.29	62.5541	6,727.29	65.5928	6,727.29	67.9103	6,727.29	67.0283	6,727.29	71.1328	6,727.29	62.7932	6,727.29	66.2997
6,964.6	86.0693	6,964.6	85.7418	6,964.6	85.4806	6,964.6	84.6256	6,964.6	84.1738	6,964.6	82.8643	6,964.6	81.8019	6,964.6	80.9425	6,964.6	78.0957	6,964.6	80.4308	6,964.6	75.515	6,964.6	79.5134	6,964.6	73.5729	6,964.6	76.7557	6,964.6	71.0764	6,964.6	74.5233	6,964.6	70.1916	6,964.6	71.9591	6,964.6	67.406	6,964.6	68.2105	6,964.6	65.1505	6,964.6	64.5377	6,964.6	51.4787	6,964.6	51.9898	6,964.6	56.4546	6,964.6	65.3652	6,964.6	47.444	6,964.6	61.1369	6,964.6	58.6478	6,964.6	63.3999	6,964.6	66.6335	6,964.6	66.8429	6,964.6	67.4124	6,964.6	69.6218	6,964.6	65.0601	6,964.6	67.2309
7,209.96	85.8775	7,209.96	86.013	7,209.96	85.2022	7,209.96	85.3147	7,209.96	83.7144	7,209.96	83.3477	7,209.96	80.9639	7,209.96	81.5229	7,209.96	77.5516	7,209.96	81.1607	7,209.96	75.8834	7,209.96	79.6014	7,209.96	74.5061	7,209.96	76.2915	7,209.96	73.9381	7,209.96	74.4826	7,209.96	71.7515	7,209.96	72.4931	7,209.96	66.4135	7,209.96	67.691	7,209.96	66.501	7,209.96	64.8274	7,209.96	59.516	7,209.96	45.9328	7,209.96	53.4632	7,209.96	65.5146	7,209.96	56.1495	7,209.96	66.3154	7,209.96	63.6036	7,209.96	65.6801	7,209.96	67.0806	7,209.96	65.1983	7,209.96	65.6615	7,209.96	67.8966	7,209.96	63.6553	7,209.96	66.6717
7,464.11	85.8283	7,464.11	85.604	7,464.11	85.0039	7,464.11	84.4811	7,464.11	82.9774	7,464.11	82.6964	7,464.11	80.148	7,464.11	81.7865	7,464.11	77.5949	7,464.11	81.7704	7,464.11	76.6503	7,464.11	79.9891	7,464.11	77.0599	7,464.11	76.6591	7,464.11	76.206	7,464.11	76.0601	7,464.11	71.4978	7,464.11	73.6682	7,464.11	69.6612	7,464.11	67.0328	7,464.11	69.964	7,464.11	63.1786	7,464.11	64.5803	7,464.11	42.6673	7,464.11	61.1336	7,464.11	65.0768	7,464.11	60.7823	7,464.11	67.8933	7,464.11	64.7384	7,464.11	65.0941	7,464.11	67.1845	7,464.11	60.4723	7,464.11	65.0283	7,464.11	60.6506	7,464.11	60.8991	7,464.11	60.9725
7,727.78	84.8756	7,727.78	84.575	7,727.78	84.5301	7,727.78	83.6898	7,727.78	83.1259	7,727.78	82.0857	7,727.78	80.5335	7,727.78	81.167	7,727.78	77.2015	7,727.78	80.7855	7,727.78	75.8654	7,727.78	78.5456	7,727.78	76.3908	7,727.78	75.8041	7,727.78	74.5996	7,727.78	75.5237	7,727.78	70.4539	7,727.78	73.0544	7,727.78	69.4722	7,727.78	66.8957	7,727.78	68.3357	7,727.78	61.8433	7,727.78	63.8985	7,727.78	44.4359	7,727.78	62.0859	7,727.78	63.7024	7,727.78	61.9608	7,727.78	67.1423	7,727.78	62.1966	7,727.78	64.1628	7,727.78	62.765	7,727.78	58.4814	7,727.78	60.7449	7,727.78	58.8934	7,727.78	54.8321	7,727.78	54.2841
8,000.24	84.6773	8,000.24	84.34	8,000.24	84.2642	8,000.24	83.0157	8,000.24	82.961	8,000.24	81.3305	8,000.24	80.1319	8,000.24	80.3959	8,000.24	76.2637	8,000.24	79.2124	8,000.24	74.8882	8,000.24	77.0916	8,000.24	73.7966	8,000.24	75.4818	8,000.24	69.7819	8,000.24	74.6558	8,000.24	67.0847	8,000.24	70.7247	8,000.24	64.9594	8,000.24	62.745	8,000.24	64.2595	8,000.24	60.9724	8,000.24	62.582	8,000.24	54.4446	8,000.24	62.3014	8,000.24	60.8929	8,000.24	62.3458	8,000.24	65.3898	8,000.24	60.635	8,000.24	61.0512	8,000.24	57.5771	8,000.24	56.8185	8,000.24	54.6331	8,000.24	61.6336	8,000.24	51.2022	8,000.24	52.6034
8,282.23	85.5582	8,282.23	84.7887	8,282.23	85.4816	8,282.23	83.2478	8,282.23	84.3955	8,282.23	81.1844	8,282.23	81.8523	8,282.23	79.1708	8,282.23	78.5721	8,282.23	78.0837	8,282.23	76.4428	8,282.23	77.4334	8,282.23	73.2914	8,282.23	76.4919	8,282.23	71.3266	8,282.23	75.7422	8,282.23	69.5109	8,282.23	71.2162	8,282.23	68.5435	8,282.23	61.2622	8,282.23	68.1299	8,282.23	62.5805	8,282.23	61.0338	8,282.23	59.4236	8,282.23	62.5335	8,282.23	61.4649	8,282.23	58.4933	8,282.23	65.7088	8,282.23	54.3942	8,282.23	58.0209	8,282.23	60.7115	8,282.23	55.5263	8,282.23	57.2346	8,282.23	61.4388	8,282.23	54.4419	8,282.23	57.59
8,574.46	86.6637	8,574.46	85.5977	8,574.46	86.7655	8,574.46	83.4685	8,574.46	85.8047	8,574.46	80.9043	8,574.46	83.6575	8,574.46	79.5125	8,574.46	81.3588	8,574.46	79.4734	8,574.46	79.514	8,574.46	79.2395	8,574.46	76.7285	8,574.46	78.6553	8,574.46	75.5514	8,574.46	77.5601	8,574.46	73.0329	8,574.46	73.2525	8,574.46	72.2715	8,574.46	64.8831	8,574.46	71.1074	8,574.46	63.5003	8,574.46	62.1953	8,574.46	64.2298	8,574.46	62.527	8,574.46	61.3793	8,574.46	53.9655	8,574.46	69.1237	8,574.46	51.2784	8,574.46	63.4834	8,574.46	63.0727	8,574.46	54.508	8,574.46	54.745	8,574.46	60.6671	8,574.46	52.4451	8,574.46	56.5864
8,876.22	86.8275	8,876.22	85.3608	8,876.22	87.0548	8,876.22	82.8651	8,876.22	86.2189	8,876.22	79.909	8,876.22	84.6305	8,876.22	78.3332	8,876.22	82.8214	8,876.22	78.8852	8,876.22	80.7088	8,876.22	78.8952	8,876.22	78.3277	8,876.22	78.4705	8,876.22	77.8911	8,876.22	77.9201	8,876.22	74.7036	8,876.22	73.4706	8,876.22	73.0568	8,876.22	66.4403	8,876.22	71.8377	8,876.22	62.558	8,876.22	63.5159	8,876.22	64.9612	8,876.22	62.8736	8,876.22	61.5585	8,876.22	58.7113	8,876.22	68.9979	8,876.22	42.42	8,876.22	60.9544	8,876.22	61.0227	8,876.22	55.7919	8,876.22	48.6918	8,876.22	55.4529	8,876.22	60.3191	8,876.22	53.0074
9,189.7	85.8053	9,189.7	84.008	9,189.7	86.4902	9,189.7	80.6198	9,189.7	86.0358	9,189.7	75.5376	9,189.7	84.5533	9,189.7	73.4621	9,189.7	82.6307	9,189.7	75.0193	9,189.7	80.4782	9,189.7	75.2426	9,189.7	78.2019	9,189.7	76.5347	9,189.7	77.22	9,189.7	75.9586	9,189.7	73.1568	9,189.7	71.8127	9,189.7	70.208	9,189.7	65.7737	9,189.7	68.4736	9,189.7	58.3004	9,189.7	61.254	9,189.7	62.8104	9,189.7	54.6362	9,189.7	55.1809	9,189.7	56.4594	9,189.7	65.539	9,189.7	50.4661	9,189.7	54.6628	9,189.7	56.1246	9,189.7	57.3182	9,189.7	54.4902	9,189.7	38.6903	9,189.7	59.9224	9,189.7	53.5757
9,513.43	84.7218	9,513.43	82.9782	9,513.43	85.4081	9,513.43	79.8655	9,513.43	85.0489	9,513.43	74.4066	9,513.43	83.8026	9,513.43	66.9159	9,513.43	82.0376	9,513.43	67.6252	9,513.43	79.7095	9,513.43	70.6662	9,513.43	77.5685	9,513.43	72.9051	9,513.43	76.9674	9,513.43	72.1121	9,513.43	72.4662	9,513.43	67.9887	9,513.43	71.3706	9,513.43	60.931	9,513.43	69.3372	9,513.43	47.8234	9,513.43	62.3485	9,513.43	59.3105	9,513.43	59.6824	9,513.43	46.9039	9,513.43	54.0745	9,513.43	61.0703	9,513.43	53.4883	9,513.43	45.0332	9,513.43	51.414	9,513.43	59.7635	9,513.43	56.4573	9,513.43	52.5568	9,513.43	59.9276	9,513.43	56.1288
9,848.88	84.9526	9,848.88	83.6683	9,848.88	85.1702	9,848.88	80.4683	9,848.88	84.8868	9,848.88	75.2554	9,848.88	83.9901	9,848.88	67.1953	9,848.88	82.2485	9,848.88	61.1856	9,848.88	79.6856	9,848.88	67.3496	9,848.88	77.7703	9,848.88	69.2682	9,848.88	77.1584	9,848.88	69.7123	9,848.88	73.5334	9,848.88	65.9856	9,848.88	71.9279	9,848.88	60.7723	9,848.88	69.011	9,848.88	45.0292	9,848.88	60.6619	9,848.88	59.4332	9,848.88	59.8175	9,848.88	50.2883	9,848.88	54.716	9,848.88	60.1778	9,848.88	54.8191	9,848.88	52.8114	9,848.88	39.4651	9,848.88	62.1781	9,848.88	57.5456	9,848.88	48.3414	9,848.88	58.0514	9,848.88	52.2854
10,196.8	85.9271	10,196.8	84.529	10,196.8	86.5336	10,196.8	82.2555	10,196.8	86.26	10,196.8	78.4545	10,196.8	85.0587	10,196.8	72.5024	10,196.8	83.2622	10,196.8	64.0831	10,196.8	81.3387	10,196.8	62.1321	10,196.8	79.829	10,196.8	65.7084	10,196.8	78.4593	10,196.8	68.8448	10,196.8	73.4406	10,196.8	64.5614	10,196.8	71.2209	10,196.8	61.4744	10,196.8	68.6048	10,196.8	47.6649	10,196.8	59.6721	10,196.8	59.2013	10,196.8	58.3603	10,196.8	53.8135	10,196.8	50.4508	10,196.8	58.861	10,196.8	49.6963	10,196.8	51.5969	10,196.8	40.6443	10,196.8	62.798	10,196.8	53.2617	10,196.8	50.9538	10,196.8	50.4108	10,196.8	56.2189
10,556.4	86.7566	10,556.4	83.6758	10,556.4	88.3236	10,556.4	80.3029	10,556.4	87.8219	10,556.4	76.8828	10,556.4	85.9792	10,556.4	72.1739	10,556.4	84.2892	10,556.4	64.9155	10,556.4	82.6711	10,556.4	57.1952	10,556.4	81.0366	10,556.4	61.6317	10,556.4	79.7557	10,556.4	65.8145	10,556.4	74.7726	10,556.4	61.2139	10,556.4	74.9487	10,556.4	59.2001	10,556.4	71.5788	10,556.4	54.9795	10,556.4	58.2524	10,556.4	58.6919	10,556.4	59.0926	10,556.4	56.1963	10,556.4	55.9393	10,556.4	60.8808	10,556.4	54.6535	10,556.4	39.6667	10,556.4	50.3471	10,556.4	64.239	10,556.4	56.9389	10,556.4	56.248	10,556.4	47.9317	10,556.4	58.8288
10,928.5	87.4554	10,928.5	83.4691	10,928.5	89.5229	10,928.5	79.3772	10,928.5	88.749	10,928.5	75.4114	10,928.5	86.1027	10,928.5	71.8291	10,928.5	83.9471	10,928.5	69.1717	10,928.5	82.3671	10,928.5	63.3972	10,928.5	81.0918	10,928.5	55.2596	10,928.5	79.8988	10,928.5	57.3095	10,928.5	75.8055	10,928.5	53.6353	10,928.5	76.6135	10,928.5	60.8066	10,928.5	72.5786	10,928.5	59.6346	10,928.5	55.5649	10,928.5	57.7644	10,928.5	57.9081	10,928.5	59.6944	10,928.5	51.3025	10,928.5	62.624	10,928.5	53.0105	10,928.5	56.2107	10,928.5	56.4593	10,928.5	63.6287	10,928.5	57.6018	10,928.5	61.5732	10,928.5	58.0818	10,928.5	60.6894
11,313.7	88.0463	11,313.7	83.8072	11,313.7	89.8615	11,313.7	78.4206	11,313.7	88.7286	11,313.7	73.4936	11,313.7	85.971	11,313.7	71.7089	11,313.7	83.9066	11,313.7	69.4184	11,313.7	81.986	11,313.7	62.1535	11,313.7	80.5859	11,313.7	63.4626	11,313.7	79.2783	11,313.7	55.0151	11,313.7	75.2983	11,313.7	56.2143	11,313.7	75.844	11,313.7	61.4688	11,313.7	71.101	11,313.7	59.3563	11,313.7	55.1493	11,313.7	60.984	11,313.7	52.6563	11,313.7	59.4125	11,313.7	48.5151	11,313.7	64.4821	11,313.7	55.746	11,313.7	61.3469	11,313.7	60.1719	11,313.7	64.2632	11,313.7	59.4773	11,313.7	64.8845	11,313.7	60.8836	11,313.7	62.1277
11,712.9	87.9394	11,712.9	83.6741	11,712.9	90.1959	11,712.9	77.1588	11,712.9	89.2282	11,712.9	69.8964	11,712.9	85.9501	11,712.9	71.1838	11,712.9	83.303	11,712.9	70.0412	11,712.9	81.5648	11,712.9	70.6329	11,712.9	80.1378	11,712.9	68.376	11,712.9	78.3318	11,712.9	64.9376	11,712.9	74.0157	11,712.9	63.2691	11,712.9	74.1808	11,712.9	62.6504	11,712.9	68.3419	11,712.9	58.1701	11,712.9	57.2387	11,712.9	62.9748	11,712.9	56.9685	11,712.9	60.4897	11,712.9	55.4437	11,712.9	64.8372	11,712.9	58.4299	11,712.9	65.2127	11,712.9	61.4447	11,712.9	64.7291	11,712.9	59.8202	11,712.9	66.6607	11,712.9	65.3878	11,712.9	62.8558
12,126	89.8631	12,126	86.2491	12,126	90.9926	12,126	79.3205	12,126	89.2221	12,126	68.2988	12,126	85.5489	12,126	71.8001	12,126	83.1705	12,126	72.5835	12,126	81.0971	12,126	73.3215	12,126	78.7153	12,126	68.7276	12,126	77.2497	12,126	70.2127	12,126	72.3701	12,126	66.9365	12,126	73.2215	12,126	64.8	12,126	65.7376	12,126	61.232	12,126	50.2649	12,126	65.6599	12,126	59.2264	12,126	63.8093	12,126	58.3803	12,126	66.846	12,126	62.2138	12,126	68.1883	12,126	62.0717	12,126	67.8036	12,126	62.3992	12,126	68.2466	12,126	67.7024	12,126	66.4052
12,553.7	92.3085	12,553.7	89.1167	12,553.7	92.6896	12,553.7	82.8417	12,553.7	89.7398	12,553.7	68.7817	12,553.7	85.1728	12,553.7	67.9803	12,553.7	83.338	12,553.7	72.5694	12,553.7	81.6983	12,553.7	73.0641	12,553.7	78.9796	12,553.7	70.0755	12,553.7	76.9339	12,553.7	71.9802	12,553.7	71.5781	12,553.7	67.7155	12,553.7	72.7032	12,553.7	67.4884	12,553.7	63.267	12,553.7	63.4434	12,553.7	55.9574	12,553.7	66.9979	12,553.7	60.2247	12,553.7	64.125	12,553.7	61.5213	12,553.7	68.6608	12,553.7	63.3447	12,553.7	69.3549	12,553.7	63.4071	12,553.7	68.5726	12,553.7	64.0379	12,553.7	69.58	12,553.7	69.4049	12,553.7	68.2657
12,996.1	94.7662	12,996.1	91.8394	12,996.1	94.8566	12,996.1	86.2457	12,996.1	91.1547	12,996.1	75.7107	12,996.1	85.0262	12,996.1	67.4944	12,996.1	82.9855	12,996.1	72.0493	12,996.1	82.1767	12,996.1	73.1817	12,996.1	79.2933	12,996.1	70.6251	12,996.1	77.6777	12,996.1	70.4923	12,996.1	72.1943	12,996.1	67.3152	12,996.1	72.9946	12,996.1	67.4844	12,996.1	62.1372	12,996.1	64.2132	12,996.1	57.2101	12,996.1	66.8469	12,996.1	62.0583	12,996.1	65.2638	12,996.1	61.8998	12,996.1	69.6258	12,996.1	63.9046	12,996.1	70.0199	12,996.1	64.9195	12,996.1	69.4353	12,996.1	65.5858	12,996.1	72.3789	12,996.1	70.6014	12,996.1	69.5694
13,454.6	95.117	13,454.6	91.5316	13,454.6	95.4655	13,454.6	85.5297	13,454.6	91.4343	13,454.6	74.8641	13,454.6	84.154	13,454.6	70.9115	13,454.6	81.9262	13,454.6	73.5211	13,454.6	81.6728	13,454.6	73.4339	13,454.6	77.7286	13,454.6	70.1632	13,454.6	76.3184	13,454.6	70.0391	13,454.6	69.0042	13,454.6	68.2771	13,454.6	70.6615	13,454.6	67.3772	13,454.6	54.4699	13,454.6	66.661	13,454.6	57.8647	13,454.6	66.566	13,454.6	61.7894	13,454.6	66.6537	13,454.6	62.1955	13,454.6	70.3424	13,454.6	64.6642	13,454.6	70.5688	13,454.6	63.6039	13,454.6	71.69	13,454.6	66.3805	13,454.6	74.188	13,454.6	70.9788	13,454.6	69.8188
13,928.5	93.2925	13,928.5	89.4937	13,928.5	93.5998	13,928.5	82.943	13,928.5	88.9326	13,928.5	70.5041	13,928.5	79.8339	13,928.5	68.6589	13,928.5	78.4088	13,928.5	71.3898	13,928.5	79.637	13,928.5	70.5515	13,928.5	75.1662	13,928.5	68.6147	13,928.5	74.2056	13,928.5	64.4379	13,928.5	65.8252	13,928.5	64.3746	13,928.5	68.7655	13,928.5	66.3431	13,928.5	57.872	13,928.5	66.9206	13,928.5	58.2727	13,928.5	64.2538	13,928.5	63.1262	13,928.5	67.3785	13,928.5	59.121	13,928.5	69.9258	13,928.5	65.3017	13,928.5	71.101	13,928.5	60.8519	13,928.5	71.5701	13,928.5	64.0946	13,928.5	73.7002	13,928.5	70.1154	13,928.5	67.432
14,419.9	91.1982	14,419.9	86.8603	14,419.9	91.6601	14,419.9	79.8122	14,419.9	85.9059	14,419.9	65.4411	14,419.9	68.193	14,419.9	68.262	14,419.9	72.3098	14,419.9	69.8665	14,419.9	77.8359	14,419.9	69.2337	14,419.9	72.5996	14,419.9	67.7348	14,419.9	71.607	14,419.9	64.9773	14,419.9	63.7443	14,419.9	63.014	14,419.9	69.4109	14,419.9	69.0817	14,419.9	55.265	14,419.9	68.5575	14,419.9	59.1319	14,419.9	66.089	14,419.9	62.5044	14,419.9	68.945	14,419.9	57.8961	14,419.9	70.5375	14,419.9	66.0108	14,419.9	70.6722	14,419.9	60.5868	14,419.9	70.642	14,419.9	62.7576	14,419.9	72.3687	14,419.9	68.1036	14,419.9	65.465
14,928.2	90.8421	14,928.2	86.2462	14,928.2	91.4358	14,928.2	78.8845	14,928.2	85.673	14,928.2	52.0101	14,928.2	68.16	14,928.2	67.5342	14,928.2	62.1466	14,928.2	69.5844	14,928.2	74.4949	14,928.2	68.5558	14,928.2	65.786	14,928.2	66.596	14,928.2	69.1419	14,928.2	65.4679	14,928.2	59.9262	14,928.2	64.665	14,928.2	67.4952	14,928.2	68.8172	14,928.2	50.5458	14,928.2	69.4955	14,928.2	59.7156	14,928.2	65.3618	14,928.2	62.1371	14,928.2	68.8022	14,928.2	57.418	14,928.2	69.574	14,928.2	66.1729	14,928.2	69.7934	14,928.2	62.249	14,928.2	69.593	14,928.2	64.0249	14,928.2	71.8981	14,928.2	67.7021	14,928.2	65.7619
15,454.8	90.6597	15,454.8	86.0701	15,454.8	91.1954	15,454.8	79.4025	15,454.8	85.5075	15,454.8	66.0547	15,454.8	72.6603	15,454.8	67.4243	15,454.8	60.6705	15,454.8	69.4936	15,454.8	68.6779	15,454.8	67.7007	15,454.8	55.8573	15,454.8	68.2559	15,454.8	66.3726	15,454.8	53.7622	15,454.8	59.9255	15,454.8	64.5091	15,454.8	64.9205	15,454.8	64.0969	15,454.8	58.0921	15,454.8	67.6491	15,454.8	59.7889	15,454.8	60.0171	15,454.8	61.4796	15,454.8	65.7565	15,454.8	58.6624	15,454.8	66.7227	15,454.8	64.602	15,454.8	68.0764	15,454.8	62.2129	15,454.8	67.5046	15,454.8	63.1273	15,454.8	71.4396	15,454.8	67.3747	15,454.8	64.2183
15,999.8	89.9963	15,999.8	85.4124	15,999.8	90.5975	15,999.8	79.1737	15,999.8	85.3418	15,999.8	66.9584	15,999.8	74.0335	15,999.8	68.3153	15,999.8	61.1869	15,999.8	68.992	15,999.8	66.8317	15,999.8	66.8295	15,999.8	59.19	15,999.8	68.6031	15,999.8	62.3624	15,999.8	60.033	15,999.8	64.5352	15,999.8	62.5122	15,999.8	63.3831	15,999.8	60.8649	15,999.8	60.4165	15,999.8	63.422	15,999.8	53.8917	15,999.8	50.7557	15,999.8	61.3189	15,999.8	62.2555	15,999.8	56.7716	15,999.8	61.9615	15,999.8	63.2566	15,999.8	66.4444	15,999.8	58.582	15,999.8	63.3329	15,999.8	60.2403	15,999.8	70.0972	15,999.8	65.6374	15,999.8	59.9877
16,564.5	88.1435	16,564.5	83.0934	16,564.5	88.9273	16,564.5	76.9584	16,564.5	83.8361	16,564.5	68.9632	16,564.5	72.5172	16,564.5	69.6608	16,564.5	62.1757	16,564.5	68.011	16,564.5	64.3636	16,564.5	65.9158	16,564.5	52.892	16,564.5	66.6977	16,564.5	61.5876	16,564.5	64.6609	16,564.5	61.7082	16,564.5	57.8386	16,564.5	57.9309	16,564.5	63.4437	16,564.5	60.909	16,564.5	58.746	16,564.5	51.7376	16,564.5	56.013	16,564.5	59.4722	16,564.5	57.05	16,564.5	51.9285	16,564.5	59.7693	16,564.5	60.5815	16,564.5	63.3137	16,564.5	54.5206	16,564.5	60.7528	16,564.5	56.6838	16,564.5	67.2251	16,564.5	62.958	16,564.5	54.4833
17,148.2	86.22	17,148.2	81.0468	17,148.2	86.9848	17,148.2	76.3142	17,148.2	82.0713	17,148.2	69.622	17,148.2	72.2612	17,148.2	69.5687	17,148.2	64.584	17,148.2	66.1356	17,148.2	57.6417	17,148.2	64.867	17,148.2	50.5108	17,148.2	62.1886	17,148.2	53.6378	17,148.2	65.185	17,148.2	52.1018	17,148.2	47.7715	17,148.2	53.4094	17,148.2	62.7032	17,148.2	57.6508	17,148.2	52.7498	17,148.2	48.3943	17,148.2	57.2956	17,148.2	55.5605	17,148.2	52.4776	17,148.2	50.5693	17,148.2	56.8683	17,148.2	55.8104	17,148.2	59.3953	17,148.2	52.9017	17,148.2	59.0774	17,148.2	54.3792	17,148.2	65.2141	17,148.2	60.9169	17,148.2	52.3383
17,753.2	84.1643	17,753.2	78.4457	17,753.2	84.9184	17,753.2	74.0134	17,753.2	80.1053	17,753.2	67.5898	17,753.2	70.8487	17,753.2	69.1877	17,753.2	64.9021	17,753.2	62.9131	17,753.2	48.4028	17,753.2	63.8276	17,753.2	56.1656	17,753.2	55.9487	17,753.2	53.7497	17,753.2	66.2187	17,753.2	54.1264	17,753.2	47.9606	17,753.2	43.5714	17,753.2	63.1961	17,753.2	51.0604	17,753.2	52.3805	17,753.2	42.0274	17,753.2	57.3546	17,753.2	45.6173	17,753.2	45.9917	17,753.2	46.5377	17,753.2	57.2691	17,753.2	48.4029	17,753.2	54.1677	17,753.2	51.118	17,753.2	58.7012	17,753.2	54.3629	17,753.2	64.0973	17,753.2	58.786	17,753.2	53.3529
18,379.4	80.8597	18,379.4	72.7539	18,379.4	81.8828	18,379.4	71.0421	18,379.4	76.456	18,379.4	66.1904	18,379.4	66.0157	18,379.4	67.2876	18,379.4	62.6621	18,379.4	59.0703	18,379.4	56.2125	18,379.4	62.7292	18,379.4	56.974	18,379.4	59.3018	18,379.4	52.6446	18,379.4	65.9417	18,379.4	54.8481	18,379.4	56.1921	18,379.4	48.3514	18,379.4	62.187	18,379.4	54.3841	18,379.4	55.9074	18,379.4	42.9069	18,379.4	52.2956	18,379.4	47.9111	18,379.4	48.6149	18,379.4	46.8314	18,379.4	54.7268	18,379.4	51.062	18,379.4	55.1969	18,379.4	51.992	18,379.4	51.4238	18,379.4	55.7235	18,379.4	62.3221	18,379.4	58.6202	18,379.4	56.3929
19,027.6	76.0084	19,027.6	69.4288	19,027.6	77.4503	19,027.6	72.0866	19,027.6	71.1125	19,027.6	67.3857	19,027.6	64.9907	19,027.6	67.4661	19,027.6	52.8966	19,027.6	59.6332	19,027.6	55.7732	19,027.6	60.6804	19,027.6	47.1761	19,027.6	59.6652	19,027.6	57.9935	19,027.6	63.938	19,027.6	61.0864	19,027.6	53.4669	19,027.6	42.8494	19,027.6	61.1665	19,027.6	55.5376	19,027.6	52.0515	19,027.6	50.1465	19,027.6	54.2563	19,027.6	50.5291	19,027.6	46.3892	19,027.6	49.1759	19,027.6	57.2902	19,027.6	53.4837	19,027.6	55.9572	19,027.6	54.9661	19,027.6	54.7387	19,027.6	56.0949	19,027.6	58.3574	19,027.6	58.9281	19,027.6	57.3045
19,698.5	72.7501	19,698.5	69.7725	19,698.5	76.0972	19,698.5	70.2109	19,698.5	75.1204	19,698.5	65.6517	19,698.5	70.5642	19,698.5	64.8982	19,698.5	60.1164	19,698.5	56.3003	19,698.5	48.2655	19,698.5	59.1178	19,698.5	49.2604	19,698.5	54.1273	19,698.5	56.6219	19,698.5	60.0294	19,698.5	58.1971	19,698.5	48.4003	19,698.5	39.8321	19,698.5	57.2822	19,698.5	51.8513	19,698.5	52.083	19,698.5	48.6441	19,698.5	53.7044	19,698.5	44.2076	19,698.5	38.7624	19,698.5	44.486	19,698.5	57.937	19,698.5	55.2091	19,698.5	53.7187	19,698.5	51.0094	19,698.5	59.3103	19,698.5	57.3242	19,698.5	57.0583	19,698.5	56.1998	19,698.5	57.8786
19,999.5	71.4571	19,999.5	67.7688	19,999.5	76.1965	19,999.5	67.5463	19,999.5	76.2705	19,999.5	63.3981	19,999.5	71.5743	19,999.5	62.4668	19,999.5	62.2947	19,999.5	54.7601	19,999.5	47.9023	19,999.5	57.1101	19,999.5	52.771	19,999.5	51.021	19,999.5	56.9183	19,999.5	57.6611	19,999.5	56.8512	19,999.5	50.6673	19,999.5	33.2931	19,999.5	53.9977	19,999.5	48.9899	19,999.5	50.8691	19,999.5	46.5979	19,999.5	52.9624	19,999.5	44.4137	19,999.5	38.8341	19,999.5	40.0152	19,999.5	57.0524	19,999.5	54.9137	19,999.5	51.4931	19,999.5	46.0543	19,999.5	59.6463	19,999.5	57.0002	19,999.5	57.1071	19,999.5	53.7236	19,999.5	57.7691
