"SPL Vertical"																																																																							
"On-Axis"		"10°"		"-10°"		"20°"		"-20°"		"30°"		"-30°"		"40°"		"-40°"		"50°"		"-50°"		"60°"		"-60°"		"70°"		"-70°"		"80°"		"-80°"		"90°"		"-90°"		"100°"		"-100°"		"110°"		"-110°"		"120°"		"-120°"		"130°"		"-130°"		"140°"		"-140°"		"150°"		"-150°"		"160°"		"-160°"		"170°"		"-170°"		"180°"	
"Frequency [Hz]"	"Sound Pessure Level [dB]  / [2.83V 1m] "	"Frequency [Hz]"	"Sound Pessure Level [dB]  / [2.83V 1m] "	"Frequency [Hz]"	"Sound Pessure Level [dB]  / [2.83V 1m] "	"Frequency [Hz]"	"Sound Pessure Level [dB]  / [2.83V 1m] "	"Frequency [Hz]"	"Sound Pessure Level [dB]  / [2.83V 1m] "	"Frequency [Hz]"	"Sound Pessure Level [dB]  / [2.83V 1m] "	"Frequency [Hz]"	"Sound Pessure Level [dB]  / [2.83V 1m] "	"Frequency [Hz]"	"Sound Pessure Level [dB]  / [2.83V 1m] "	"Frequency [Hz]"	"Sound Pessure Level [dB]  / [2.83V 1m] "	"Frequency [Hz]"	"Sound Pessure Level [dB]  / [2.83V 1m] "	"Frequency [Hz]"	"Sound Pessure Level [dB]  / [2.83V 1m] "	"Frequency [Hz]"	"Sound Pessure Level [dB]  / [2.83V 1m] "	"Frequency [Hz]"	"Sound Pessure Level [dB]  / [2.83V 1m] "	"Frequency [Hz]"	"Sound Pessure Level [dB]  / [2.83V 1m] "	"Frequency [Hz]"	"Sound Pessure Level [dB]  / [2.83V 1m] "	"Frequency [Hz]"	"Sound Pessure Level [dB]  / [2.83V 1m] "	"Frequency [Hz]"	"Sound Pessure Level [dB]  / [2.83V 1m] "	"Frequency [Hz]"	"Sound Pessure Level [dB]  / [2.83V 1m] "	"Frequency [Hz]"	"Sound Pessure Level [dB]  / [2.83V 1m] "	"Frequency [Hz]"	"Sound Pessure Level [dB]  / [2.83V 1m] "	"Frequency [Hz]"	"Sound Pessure Level [dB]  / [2.83V 1m] "	"Frequency [Hz]"	"Sound Pessure Level [dB]  / [2.83V 1m] "	"Frequency [Hz]"	"Sound Pessure Level [dB]  / [2.83V 1m] "	"Frequency [Hz]"	"Sound Pessure Level [dB]  / [2.83V 1m] "	"Frequency [Hz]"	"Sound Pessure Level [dB]  / [2.83V 1m] "	"Frequency [Hz]"	"Sound Pessure Level [dB]  / [2.83V 1m] "	"Frequency [Hz]"	"Sound Pessure Level [dB]  / [2.83V 1m] "	"Frequency [Hz]"	"Sound Pessure Level [dB]  / [2.83V 1m] "	"Frequency [Hz]"	"Sound Pessure Level [dB]  / [2.83V 1m] "	"Frequency [Hz]"	"Sound Pessure Level [dB]  / [2.83V 1m] "	"Frequency [Hz]"	"Sound Pessure Level [dB]  / [2.83V 1m] "	"Frequency [Hz]"	"Sound Pessure Level [dB]  / [2.83V 1m] "	"Frequency [Hz]"	"Sound Pessure Level [dB]  / [2.83V 1m] "	"Frequency [Hz]"	"Sound Pessure Level [dB]  / [2.83V 1m] "	"Frequency [Hz]"	"Sound Pessure Level [dB]  / [2.83V 1m] "	"Frequency [Hz]"	"Sound Pessure Level [dB]  / [2.83V 1m] "
20.5078	43.9761	20.5078	43.7569	20.5078	44.1667	20.5078	43.5142	20.5078	44.3237	20.5078	43.2527	20.5078	44.4421	20.5078	42.977	20.5078	44.5168	20.5078	42.6913	20.5078	44.5435	20.5078	42.3997	20.5078	44.5188	20.5078	42.1063	20.5078	44.44	20.5078	41.8155	20.5078	44.3063	20.5078	41.5323	20.5078	44.1185	20.5078	41.2633	20.5078	43.8792	20.5078	41.0175	20.5078	43.5927	20.5078	40.8066	20.5078	43.2651	20.5078	40.6454	20.5078	42.9041	20.5078	40.5503	20.5078	42.5195	20.5078	40.5368	20.5078	42.1237	20.5078	40.615	20.5078	41.7322	20.5078	40.7863	20.5078	41.3643	20.5078	41.0418
21.2402	49.5007	21.2402	49.3368	21.2402	49.6591	21.2402	49.1715	21.2402	49.8081	21.2402	49.0086	21.2402	49.9434	21.2402	48.8517	21.2402	50.0608	21.2402	48.7042	21.2402	50.1565	21.2402	48.5695	21.2402	50.2268	21.2402	48.4505	21.2402	50.2686	21.2402	48.3503	21.2402	50.2795	21.2402	48.2718	21.2402	50.2579	21.2402	48.2179	21.2402	50.2033	21.2402	48.1916	21.2402	50.1162	21.2402	48.1956	21.2402	49.9981	21.2402	48.2321	21.2402	49.8519	21.2402	48.3024	21.2402	49.6818	21.2402	48.4066	21.2402	49.4934	21.2402	48.5426	21.2402	49.2933	21.2402	48.7062	21.2402	49.0897	21.2402	48.8911
21.9727	49.3343	21.9727	49.1797	21.9727	49.4802	21.9727	49.0207	21.9727	49.6127	21.9727	48.8614	21.9727	49.7271	21.9727	48.7055	21.9727	49.8186	21.9727	48.5563	21.9727	49.8827	21.9727	48.4165	21.9727	49.9154	21.9727	48.2885	21.9727	49.9134	21.9727	48.1742	21.9727	49.8746	21.9727	48.0753	21.9727	49.7984	21.9727	47.9933	21.9727	49.6859	21.9727	47.9299	21.9727	49.5401	21.9727	47.8869	21.9727	49.366	21.9727	47.8668	21.9727	49.1709	21.9727	47.8723	21.9727	48.9632	21.9727	47.9066	21.9727	48.7529	21.9727	47.9723	21.9727	48.55	21.9727	48.071	21.9727	48.364	21.9727	48.2025
22.7051	49.2888	22.7051	49.1159	22.7051	49.4481	22.7051	48.9339	22.7051	49.5891	22.7051	48.7472	22.7051	49.7071	22.7051	48.5598	22.7051	49.7972	22.7051	48.3755	22.7051	49.8549	22.7051	48.1979	22.7051	49.8765	22.7051	48.0304	22.7051	49.8586	22.7051	47.876	22.7051	49.7995	22.7051	47.7379	22.7051	49.6987	22.7051	47.6191	22.7051	49.5576	22.7051	47.523	22.7051	49.3796	22.7051	47.4531	22.7051	49.1705	22.7051	47.4132	22.7051	48.9379	22.7051	47.4076	22.7051	48.6914	22.7051	47.4401	22.7051	48.4417	22.7051	47.5136	22.7051	48.2004	22.7051	47.6292	22.7051	47.9785	22.7051	47.7857
23.4375	50.3139	23.4375	50.1545	23.4375	50.4597	23.4375	49.9857	23.4375	50.5872	23.4375	49.8115	23.4375	50.6919	23.4375	49.6354	23.4375	50.7688	23.4375	49.4609	23.4375	50.8134	23.4375	49.2908	23.4375	50.8215	23.4375	49.1279	23.4375	50.7897	23.4375	48.9749	23.4375	50.7161	23.4375	48.8342	23.4375	50.6003	23.4375	48.7085	23.4375	50.4439	23.4375	48.6005	23.4375	50.2512	23.4375	48.5138	23.4375	50.0288	23.4375	48.4521	23.4375	49.7861	23.4375	48.4201	23.4375	49.5342	23.4375	48.4228	23.4375	49.2855	23.4375	48.4647	23.4375	49.0527	23.4375	48.5491	23.4375	48.847	23.4375	48.6772
24.1699	51.2632	24.1699	51.1023	24.1699	51.4129	24.1699	50.9347	24.1699	51.5468	24.1699	50.7646	24.1699	51.6599	24.1699	50.5959	24.1699	51.7474	24.1699	50.4319	24.1699	51.8045	24.1699	50.2758	24.1699	51.827	24.1699	50.1303	24.1699	51.8117	24.1699	49.9979	24.1699	51.7566	24.1699	49.8809	24.1699	51.6612	24.1699	49.7815	24.1699	51.5273	24.1699	49.7018	24.1699	51.3589	24.1699	49.6444	24.1699	51.1621	24.1699	49.6118	24.1699	50.9454	24.1699	49.6072	24.1699	50.7187	24.1699	49.6335	24.1699	50.4928	24.1699	49.6936	24.1699	50.2785	24.1699	49.7892	24.1699	50.0852	24.1699	49.9205
25.6348	52.1268	25.6348	51.9777	25.6348	52.2642	25.6348	51.8211	25.6348	52.3856	25.6348	51.6606	25.6348	52.4865	25.6348	51.4996	25.6348	52.5623	25.6348	51.3411	25.6348	52.6085	25.6348	51.188	25.6348	52.621	25.6348	51.0426	25.6348	52.5965	25.6348	50.9072	25.6348	52.5328	25.6348	50.7839	25.6348	52.4294	25.6348	50.6748	25.6348	52.2878	25.6348	50.5822	25.6348	52.1119	25.6348	50.5087	25.6348	51.9081	25.6348	50.4577	25.6348	51.6852	25.6348	50.4327	25.6348	51.4538	25.6348	50.438	25.6348	51.2259	25.6348	50.4778	25.6348	51.0131	25.6348	50.5551	25.6348	50.8258	25.6348	50.6716
26.3672	52.6566	26.3672	52.5023	26.3672	52.7985	26.3672	52.3399	26.3672	52.9236	26.3672	52.1729	26.3672	53.0272	26.3672	52.005	26.3672	53.1047	26.3672	51.839	26.3672	53.1514	26.3672	51.6779	26.3672	53.1631	26.3672	51.5243	26.3672	53.1364	26.3672	51.3806	26.3672	53.0691	26.3672	51.2494	26.3672	52.961	26.3672	51.133	26.3672	52.8136	26.3672	51.0343	26.3672	52.6311	26.3672	50.9565	26.3672	52.4201	26.3672	50.903	26.3672	52.1896	26.3672	50.878	26.3672	51.9505	26.3672	50.8856	26.3672	51.7147	26.3672	50.9297	26.3672	51.4939	26.3672	51.013	26.3672	51.2985	26.3672	51.1366
27.0996	52.4274	27.0996	52.2806	27.0996	52.5591	27.0996	52.1227	27.0996	52.6714	27.0996	51.9574	27.0996	52.7596	27.0996	51.7878	27.0996	52.8189	27.0996	51.6167	27.0996	52.8448	27.0996	51.4466	27.0996	52.8331	27.0996	51.2798	27.0996	52.7807	27.0996	51.1182	27.0996	52.6857	27.0996	50.9643	27.0996	52.5482	27.0996	50.8205	27.0996	52.3706	27.0996	50.6899	27.0996	52.1577	27.0996	50.5766	27.0996	51.9176	27.0996	50.4853	27.0996	51.6604	27.0996	50.4219	27.0996	51.3987	27.0996	50.3929	27.0996	51.1462	27.0996	50.4044	27.0996	50.916	27.0996	50.4615	27.0996	50.7201	27.0996	50.567
27.832	53.5692	27.832	53.4326	27.832	53.6942	27.832	53.2881	27.832	53.8035	27.832	53.1391	27.832	53.8926	27.832	52.9884	27.832	53.9571	27.832	52.8384	27.832	53.9925	27.832	52.6914	27.832	53.9948	27.832	52.549	27.832	53.9605	27.832	52.413	27.832	53.8876	27.832	52.2849	27.832	53.7755	27.832	52.1668	27.832	53.6259	27.832	52.0609	27.832	53.4428	27.832	51.9704	27.832	53.233	27.832	51.8994	27.832	53.0057	27.832	51.8528	27.832	52.7721	27.832	51.836	27.832	52.5448	27.832	51.8546	27.832	52.3359	27.832	51.9131	27.832	52.1563	27.832	52.0139
29.2969	54.154	29.2969	53.9976	29.2969	54.2971	29.2969	53.8317	29.2969	54.4223	29.2969	53.6602	29.2969	54.5253	29.2969	53.4865	29.2969	54.6014	29.2969	53.3138	29.2969	54.6462	29.2969	53.1454	29.2969	54.6555	29.2969	52.9843	29.2969	54.6262	29.2969	52.8335	29.2969	54.5562	29.2969	52.6961	29.2969	54.4453	29.2969	52.5752	29.2969	54.2953	29.2969	52.474	29.2969	54.1104	29.2969	52.3959	29.2969	53.8974	29.2969	52.3446	29.2969	53.6653	29.2969	52.3235	29.2969	53.4249	29.2969	52.3363	29.2969	53.1879	29.2969	52.386	29.2969	52.9655	29.2969	52.4747	29.2969	52.7679	29.2969	52.6027
30.0293	54.5502	30.0293	54.4001	30.0293	54.6855	30.0293	54.2395	30.0293	54.8017	30.0293	54.0719	30.0293	54.894	30.0293	53.9006	30.0293	54.9577	30.0293	53.7288	30.0293	54.988	30.0293	53.5591	30.0293	54.9806	30.0293	53.3942	30.0293	54.9322	30.0293	53.2367	30.0293	54.8407	30.0293	53.0892	30.0293	54.7063	30.0293	52.9543	30.0293	54.5312	30.0293	52.835	30.0293	54.3208	30.0293	52.7344	30.0293	54.0833	30.0293	52.6565	30.0293	53.8297	30.0293	52.6055	30.0293	53.5727	30.0293	52.5863	30.0293	53.3263	30.0293	52.604	30.0293	53.1031	30.0293	52.663	30.0293	52.9141	30.0293	52.7663
31.4941	56.2197	31.4941	56.0677	31.4941	56.358	31.4941	55.906	31.4941	56.4786	31.4941	55.7381	31.4941	56.5769	31.4941	55.5672	31.4941	56.6485	31.4941	55.3963	31.4941	56.6888	31.4941	55.2282	31.4941	56.6939	31.4941	55.0656	31.4941	56.6606	31.4941	54.9111	31.4941	56.5866	31.4941	54.7674	31.4941	56.4716	31.4941	54.6377	31.4941	56.3172	31.4941	54.5254	31.4941	56.1273	31.4941	54.4342	31.4941	55.9086	31.4941	54.3686	31.4941	55.6698	31.4941	54.3333	31.4941	55.4222	31.4941	54.3333	31.4941	55.1778	31.4941	54.3728	31.4941	54.949	31.4941	54.4549	31.4941	54.7469	31.4941	54.5804
32.2266	56.7084	32.2266	56.5412	32.2266	56.8636	32.2266	56.366	32.2266	57.0021	32.2266	56.1867	32.2266	57.1194	32.2266	56.0069	32.2266	57.2105	32.2266	55.8297	32.2266	57.2707	32.2266	55.6583	32.2266	57.2955	32.2266	55.4955	32.2266	57.2812	32.2266	55.3445	32.2266	57.2252	32.2266	55.208	32.2266	57.1265	32.2266	55.0894	32.2266	56.9859	32.2266	54.9919	32.2266	56.8069	32.2266	54.9194	32.2266	56.5954	32.2266	54.8758	32.2266	56.3597	32.2266	54.8652	32.2266	56.1106	32.2266	54.8915	32.2266	55.8598	32.2266	54.9577	32.2266	55.6197	32.2266	55.0657	32.2266	55.4016	32.2266	55.2147
33.6914	57.6929	33.6914	57.5395	33.6914	57.836	33.6914	57.3798	33.6914	57.9647	33.6914	57.2175	33.6914	58.0742	33.6914	57.0558	33.6914	58.1599	33.6914	56.8977	33.6914	58.2172	33.6914	56.7458	33.6914	58.2417	33.6914	56.6028	33.6914	58.2299	33.6914	56.4711	33.6914	58.1793	33.6914	56.3532	33.6914	58.0892	33.6914	56.2516	33.6914	57.9607	33.6914	56.1691	33.6914	57.7974	33.6914	56.1085	33.6914	57.605	33.6914	56.073	33.6914	57.3919	33.6914	56.0659	33.6914	57.1679	33.6914	56.0904	33.6914	56.9439	33.6914	56.1492	33.6914	56.7309	33.6914	56.244	33.6914	56.5386	33.6914	56.3746
34.4238	58.0011	34.4238	57.8437	34.4238	58.1465	34.4238	57.6783	34.4238	58.2754	34.4238	57.5086	34.4238	58.3831	34.4238	57.3381	34.4238	58.4652	34.4238	57.1701	34.4238	58.5168	34.4238	57.0074	34.4238	58.5338	34.4238	56.8528	34.4238	58.5128	34.4238	56.7092	34.4238	58.4515	34.4238	56.5793	34.4238	58.3493	34.4238	56.4658	34.4238	58.2076	34.4238	56.3718	34.4238	58.0304	34.4238	56.3004	34.4238	57.8239	34.4238	56.2551	34.4238	57.5969	34.4238	56.2396	34.4238	57.36	34.4238	56.2573	34.4238	57.1246	34.4238	56.3116	34.4238	56.9024	34.4238	56.4043	34.4238	56.7034	34.4238	56.5356
35.8887	58.852	35.8887	58.7055	35.8887	58.9885	35.8887	58.5529	35.8887	59.1107	35.8887	58.3976	35.8887	59.2142	35.8887	58.2429	35.8887	59.2944	35.8887	58.0916	35.8887	59.3466	35.8887	57.9463	35.8887	59.3669	35.8887	57.8094	35.8887	59.3517	35.8887	57.6831	35.8887	59.2987	35.8887	57.5698	35.8887	59.2075	35.8887	57.4717	35.8887	59.0794	35.8887	57.3912	35.8887	58.918	35.8887	57.331	35.8887	58.7295	35.8887	57.2939	35.8887	58.5221	35.8887	57.2831	35.8887	58.3059	35.8887	57.3017	35.8887	58.0915	35.8887	57.3524	35.8887	57.8894	35.8887	57.4373	35.8887	57.7088	35.8887	57.5566
37.3535	59.3067	37.3535	59.1565	37.3535	59.4464	37.3535	58.9997	37.3535	59.5712	37.3535	58.8402	37.3535	59.6764	37.3535	58.6814	37.3535	59.7574	37.3535	58.5263	37.3535	59.8097	37.3535	58.3778	37.3535	59.8292	37.3535	58.2384	37.3535	59.8127	37.3535	58.1107	37.3535	59.758	37.3535	57.997	37.3535	59.6647	37.3535	57.8996	37.3535	59.5346	37.3535	57.8208	37.3535	59.3716	37.3535	57.7632	37.3535	59.1819	37.3535	57.7294	37.3535	58.9739	37.3535	57.7223	37.3535	58.7575	37.3535	57.7445	37.3535	58.5432	37.3535	57.7985	37.3535	58.3412	37.3535	57.886	37.3535	58.1603	37.3535	58.0072
38.8184	60.0517	38.8184	59.8984	38.8184	60.1932	38.8184	59.7374	38.8184	60.3185	38.8184	59.5724	38.8184	60.423	38.8184	59.4067	38.8184	60.5021	38.8184	59.2436	38.8184	60.5513	38.8184	59.086	38.8184	60.5663	38.8184	58.9367	38.8184	60.5439	38.8184	58.7983	38.8184	60.4821	38.8184	58.6734	38.8184	60.3803	38.8184	58.5648	38.8184	60.2404	38.8184	58.4751	38.8184	60.0664	38.8184	58.4074	38.8184	59.8649	38.8184	58.3647	38.8184	59.6446	38.8184	58.3503	38.8184	59.416	38.8184	58.3674	38.8184	59.1902	38.8184	58.4188	38.8184	58.9782	38.8184	58.5064	38.8184	58.7892	38.8184	58.6305
39.5508	60.0328	39.5508	59.8753	39.5508	60.1783	39.5508	59.7099	39.5508	60.3075	39.5508	59.5406	39.5508	60.4156	39.5508	59.3707	39.5508	60.4979	39.5508	59.2035	39.5508	60.55	39.5508	59.0422	39.5508	60.5677	39.5508	58.8896	39.5508	60.5476	39.5508	58.7486	39.5508	60.4878	39.5508	58.6218	39.5508	60.3876	39.5508	58.5123	39.5508	60.249	39.5508	58.423	39.5508	60.0757	39.5508	58.3569	39.5508	59.8742	39.5508	58.3172	39.5508	59.653	39.5508	58.3074	39.5508	59.4223	39.5508	58.3303	39.5508	59.1932	39.5508	58.3886	39.5508	58.9763	39.5508	58.4837	39.5508	58.7812	39.5508	58.6154
41.0156	61.7339	41.0156	61.6283	41.0156	61.8277	41.0156	61.5146	41.0156	61.906	41.0156	61.3958	41.0156	61.9648	41.0156	61.2747	41.0156	62.0003	41.0156	61.1539	41.0156	62.0086	41.0156	61.0353	41.0156	61.9868	41.0156	60.9209	41.0156	61.9327	41.0156	60.8122	41.0156	61.8457	41.0156	60.7106	41.0156	61.7273	41.0156	60.6174	41.0156	61.581	41.0156	60.5339	41.0156	61.413	41.0156	60.4614	41.0156	61.2313	41.0156	60.4015	41.0156	61.046	41.0156	60.3563	41.0156	60.8675	41.0156	60.3284	41.0156	60.7056	41.0156	60.3214	41.0156	60.5682	41.0156	60.3387	41.0156	60.4604	41.0156	60.3842
42.4805	62.4502	42.4805	62.2774	42.4805	62.6125	42.4805	62.0984	42.4805	62.7594	42.4805	61.9173	42.4805	62.8859	42.4805	61.7378	42.4805	62.987	42.4805	61.5636	42.4805	63.0574	42.4805	61.3979	42.4805	63.0926	42.4805	61.2437	42.4805	63.0883	42.4805	61.1038	42.4805	63.0418	42.4805	60.9812	42.4805	62.9516	42.4805	60.8784	42.4805	62.8187	42.4805	60.7981	42.4805	62.6464	42.4805	60.743	42.4805	62.441	42.4805	60.716	42.4805	62.211	42.4805	60.7198	42.4805	61.9675	42.4805	60.7573	42.4805	61.7224	42.4805	60.8309	42.4805	61.4878	42.4805	60.9421	42.4805	61.2745	42.4805	61.0908
43.9453	62.8794	43.9453	62.722	43.9453	63.0264	43.9453	62.5584	43.9453	63.1587	43.9453	62.3925	43.9453	63.2714	43.9453	62.2278	43.9453	63.3599	43.9453	62.0675	43.9453	63.4195	43.9453	61.9147	43.9453	63.4459	43.9453	61.7722	43.9453	63.4355	43.9453	61.6427	43.9453	63.3861	43.9453	61.5286	43.9453	63.2968	43.9453	61.4325	43.9453	63.1692	43.9453	61.3569	43.9453	63.007	43.9453	61.3043	43.9453	62.8162	43.9453	61.2772	43.9453	62.6052	43.9453	61.2782	43.9453	62.3841	43.9453	61.3096	43.9453	62.1636	43.9453	61.3735	43.9453	61.954	43.9453	61.4711	43.9453	61.7646	43.9453	61.6021
45.4102	63.414	45.4102	63.2596	45.4102	63.558	45.4102	63.099	45.4102	63.6872	45.4102	62.936	45.4102	63.797	45.4102	62.774	45.4102	63.8824	45.4102	62.6161	45.4102	63.9388	45.4102	62.4652	45.4102	63.962	45.4102	62.3239	45.4102	63.9483	45.4102	62.1949	45.4102	63.8955	45.4102	62.0803	45.4102	63.8029	45.4102	61.9826	45.4102	63.6721	45.4102	61.9043	45.4102	63.507	45.4102	61.8478	45.4102	63.314	45.4102	61.8157	45.4102	63.1016	45.4102	61.8109	45.4102	62.8802	45.4102	61.8359	45.4102	62.6606	45.4102	61.8933	45.4102	62.4533	45.4102	61.9845	45.4102	62.2675	45.4102	62.1098
47.6074	64.335	47.6074	64.1825	47.6074	64.4782	47.6074	64.0249	47.6074	64.6075	47.6074	63.8662	47.6074	64.7181	47.6074	63.7098	47.6074	64.8052	47.6074	63.5591	47.6074	64.8642	47.6074	63.417	47.6074	64.8908	47.6074	63.2861	47.6074	64.8818	47.6074	63.1687	47.6074	64.8349	47.6074	63.0671	47.6074	64.7499	47.6074	62.9833	47.6074	64.6283	47.6074	62.9193	47.6074	64.4744	47.6074	62.8767	47.6074	64.2943	47.6074	62.8576	47.6074	64.0965	47.6074	62.8638	47.6074	63.8905	47.6074	62.8969	47.6074	63.6864	47.6074	62.9586	47.6074	63.4935	47.6074	63.0498	47.6074	63.3198	47.6074	63.1707
49.0723	64.9072	49.0723	64.7526	49.0723	65.0517	49.0723	64.5921	49.0723	65.1815	49.0723	64.4299	49.0723	65.2918	49.0723	64.2695	49.0723	65.3777	49.0723	64.1143	49.0723	65.4347	49.0723	63.9674	49.0723	65.4584	49.0723	63.8315	49.0723	65.4457	49.0723	63.7092	49.0723	65.3945	49.0723	63.6028	49.0723	65.3045	49.0723	63.5144	49.0723	65.1775	49.0723	63.4461	49.0723	65.0178	49.0723	63.3999	49.0723	64.832	49.0723	63.3776	49.0723	64.6285	49.0723	63.3812	49.0723	64.4174	49.0723	63.4125	49.0723	64.2089	49.0723	63.4731	49.0723	64.0125	49.0723	63.5641	49.0723	63.8362	49.0723	63.6856
50.5371	65.438	50.5371	65.2827	50.5371	65.583	50.5371	65.1216	50.5371	65.7132	50.5371	64.9588	50.5371	65.8237	50.5371	64.7978	50.5371	65.9096	50.5371	64.6422	50.5371	65.9663	50.5371	64.4949	50.5371	65.9896	50.5371	64.3588	50.5371	65.9761	50.5371	64.2365	50.5371	65.9238	50.5371	64.1301	50.5371	65.8325	50.5371	64.0418	50.5371	65.7041	50.5371	63.9736	50.5371	65.543	50.5371	63.9274	50.5371	65.3558	50.5371	63.905	50.5371	65.1513	50.5371	63.9082	50.5371	64.9394	50.5371	63.9389	50.5371	64.7306	50.5371	63.9986	50.5371	64.5344	50.5371	64.0886	50.5371	64.3587	50.5371	64.209
52.7344	66.1891	52.7344	66.0315	52.7344	66.3363	52.7344	65.868	52.7344	66.4685	52.7344	65.7029	52.7344	66.5807	52.7344	65.54	52.7344	66.6683	52.7344	65.3831	52.7344	66.7264	52.7344	65.2354	52.7344	66.7511	52.7344	65.1	52.7344	66.7392	52.7344	64.9795	52.7344	66.6888	52.7344	64.8764	52.7344	66.5998	52.7344	64.7926	52.7344	66.4743	52.7344	64.7302	52.7344	66.3166	52.7344	64.6906	52.7344	66.1333	52.7344	64.6753	52.7344	65.9331	52.7344	64.6857	52.7344	65.7257	52.7344	64.723	52.7344	65.521	52.7344	64.7882	52.7344	65.328	52.7344	64.882	52.7344	65.1541	52.7344	65.0044
54.1992	66.7984	54.1992	66.6424	54.1992	66.9445	54.1992	66.4811	54.1992	67.0762	54.1992	66.3188	54.1992	67.1884	54.1992	66.1591	54.1992	67.2764	54.1992	66.0059	54.1992	67.3353	54.1992	65.8621	54.1992	67.3612	54.1992	65.7307	54.1992	67.3508	54.1992	65.6144	54.1992	67.3022	54.1992	65.5152	54.1992	67.2153	54.1992	65.4351	54.1992	67.0922	54.1992	65.3758	54.1992	66.9372	54.1992	65.3389	54.1992	66.7571	54.1992	65.3255	54.1992	66.5605	54.1992	65.337	54.1992	66.3569	54.1992	65.3744	54.1992	66.1562	54.1992	65.4388	54.1992	65.9672	54.1992	65.5309	54.1992	65.7971	54.1992	65.6507
56.3965	67.4716	56.3965	67.3129	56.3965	67.6202	56.3965	67.1487	56.3965	67.7538	56.3965	66.9835	56.3965	67.8675	56.3965	66.8213	56.3965	67.9562	56.3965	66.6659	56.3965	68.0154	56.3965	66.5208	56.3965	68.041	56.3965	66.3889	56.3965	68.0298	56.3965	66.273	56.3965	67.9803	56.3965	66.1753	56.3965	67.8924	56.3965	66.0976	56.3965	67.7685	56.3965	66.0417	56.3965	67.6132	56.3965	66.0086	56.3965	67.4334	56.3965	65.9994	56.3965	67.2379	56.3965	66.0149	56.3965	67.036	56.3965	66.0559	56.3965	66.8375	56.3965	66.123	56.3965	66.6507	56.3965	66.2167	56.3965	66.4823	56.3965	66.3368
58.5938	68.5644	58.5938	68.4039	58.5938	68.7152	58.5938	68.2384	58.5938	68.8512	58.5938	68.0724	58.5938	68.9673	58.5938	67.9102	58.5938	69.0586	58.5938	67.7558	58.5938	69.1203	58.5938	67.6126	58.5938	69.1482	58.5938	67.4838	58.5938	69.1392	58.5938	67.3721	58.5938	69.0915	58.5938	67.2795	58.5938	69.0052	58.5938	67.2077	58.5938	68.8825	58.5938	67.1579	58.5938	68.7283	58.5938	67.1308	58.5938	68.5497	58.5938	67.1269	58.5938	68.3554	58.5938	67.1464	58.5938	68.1553	58.5938	67.1898	58.5938	67.9592	58.5938	67.2575	58.5938	67.7754	58.5938	67.3501	58.5938	67.6103	58.5938	67.4678
60.0586	69.0966	60.0586	68.9332	60.0586	69.2515	60.0586	68.766	60.0586	69.3928	60.0586	68.5998	60.0586	69.5154	60.0586	68.4388	60.0586	69.6143	60.0586	68.2871	60.0586	69.6846	60.0586	68.1482	60.0586	69.7221	60.0586	68.0252	60.0586	69.7235	60.0586	67.9209	60.0586	69.6869	60.0586	67.8372	60.0586	69.6121	60.0586	67.7758	60.0586	69.5012	60.0586	67.7374	60.0586	69.3584	60.0586	67.7227	60.0586	69.1904	60.0586	67.7316	60.0586	69.0054	60.0586	67.7641	60.0586	68.8127	60.0586	67.8199	60.0586	68.6213	60.0586	67.8989	60.0586	68.4394	60.0586	68.0011	60.0586	68.2729	60.0586	68.1261
62.2559	69.5728	62.2559	69.412	62.2559	69.7236	62.2559	69.246	62.2559	69.8591	62.2559	69.0796	62.2559	69.9745	62.2559	68.9172	62.2559	70.0646	62.2559	68.7628	62.2559	70.1248	62.2559	68.6203	62.2559	70.1511	62.2559	68.493	62.2559	70.1406	62.2559	68.3836	62.2559	70.0918	62.2559	68.2944	62.2559	70.0051	62.2559	68.2269	62.2559	69.8834	62.2559	68.1823	62.2559	69.7317	62.2559	68.1609	62.2559	69.5573	62.2559	68.1629	62.2559	69.369	62.2559	68.188	62.2559	69.1764	62.2559	68.236	62.2559	68.9883	62.2559	68.3066	62.2559	68.8123	62.2559	68.3998	62.2559	68.6536	62.2559	68.5157
64.4531	70.2721	64.4531	70.1077	64.4531	70.4257	64.4531	69.9376	64.4531	70.5634	64.4531	69.7668	64.4531	70.6799	64.4531	69.5999	64.4531	70.7701	64.4531	69.4414	64.4531	70.8295	64.4531	69.2953	64.4531	70.8539	64.4531	69.1649	64.4531	70.8407	64.4531	69.0534	64.4531	70.7884	64.4531	68.963	64.4531	70.6977	64.4531	68.8952	64.4531	70.5716	64.4531	68.8511	64.4531	70.4156	64.4531	68.8307	64.4531	70.2372	64.4531	68.8341	64.4531	70.0457	64.4531	68.8605	64.4531	69.8508	64.4531	68.9095	64.4531	69.6615	64.4531	68.9807	64.4531	69.4851	64.4531	69.0739	64.4531	69.3268	64.4531	69.1894
66.6504	70.9817	66.6504	70.8157	66.6504	71.1364	66.6504	70.6436	66.6504	71.2746	66.6504	70.4705	66.6504	71.3911	66.6504	70.3011	66.6504	71.4807	66.6504	70.1399	66.6504	71.5388	66.6504	69.991	66.6504	71.5613	66.6504	69.8582	66.6504	71.5456	66.6504	69.7443	66.6504	71.4903	66.6504	69.6518	66.6504	71.3962	66.6504	69.5823	66.6504	71.2665	66.6504	69.5368	66.6504	71.1069	66.6504	69.5154	66.6504	70.9252	66.6504	69.518	66.6504	70.7309	66.6504	69.5438	66.6504	70.5338	66.6504	69.5922	66.6504	70.3431	66.6504	69.6629	66.6504	70.166	66.6504	69.7556	66.6504	70.0077	66.6504	69.8705
69.5801	71.9256	69.5801	71.7573	69.5801	72.0819	69.5801	71.5822	69.5801	72.2209	69.5801	71.4055	69.5801	72.3373	69.5801	71.2322	69.5801	72.426	69.5801	71.0671	69.5801	72.4825	69.5801	70.9146	69.5801	72.503	69.5801	70.7785	69.5801	72.4847	69.5801	70.6622	69.5801	72.4266	69.5801	70.5682	69.5801	72.3298	69.5801	70.4984	69.5801	72.1976	69.5801	70.4537	69.5801	72.0362	69.5801	70.4342	69.5801	71.8535	69.5801	70.4394	69.5801	71.6592	69.5801	70.4683	69.5801	71.4629	69.5801	70.5199	69.5801	71.2735	69.5801	70.5932	69.5801	71.0979	69.5801	70.6878	69.5801	70.9406	69.5801	70.8036
71.7773	72.5451	71.7773	72.3751	71.7773	72.703	71.7773	72.1983	71.7773	72.8434	71.7773	72.0201	71.7773	72.9608	71.7773	71.8456	71.7773	73.0503	71.7773	71.6796	71.7773	73.1071	71.7773	71.5267	71.7773	73.1273	71.7773	71.3907	71.7773	73.1085	71.7773	71.2752	71.7773	73.0495	71.7773	71.1826	71.7773	72.9515	71.7773	71.1146	71.7773	72.8182	71.7773	71.0722	71.7773	72.6557	71.7773	71.0552	71.7773	72.4724	71.7773	71.0628	71.7773	72.2781	71.7773	71.0938	71.7773	72.0825	71.7773	71.1469	71.7773	71.8946	71.7773	71.2209	71.7773	71.7208	71.7773	71.3153	71.7773	71.5654	71.7773	71.4301
73.9746	73.1636	73.9746	72.9937	73.9746	73.3212	73.9746	72.8171	73.9746	73.4609	73.9746	72.6391	73.9746	73.5774	73.9746	72.465	73.9746	73.6655	73.9746	72.2999	73.9746	73.7205	73.9746	72.1483	73.9746	73.7387	73.9746	72.0143	73.9746	73.7175	73.9746	71.9012	73.9746	73.6562	73.9746	71.8115	73.9746	73.5562	73.9746	71.7466	73.9746	73.4215	73.9746	71.7073	73.9746	73.2586	73.9746	71.6931	73.9746	73.0762	73.9746	71.7029	73.9746	72.8842	73.9746	71.7352	73.9746	72.6925	73.9746	71.7882	73.9746	72.5097	73.9746	71.8607	73.9746	72.3418	73.9746	71.9521	73.9746	72.1924	73.9746	72.0625
76.9043	74.0018	76.9043	73.8262	76.9043	74.1646	76.9043	73.6435	76.9043	74.3088	76.9043	73.4595	76.9043	74.4288	76.9043	73.2799	76.9043	74.5194	76.9043	73.1102	76.9043	74.5761	76.9043	72.9552	76.9043	74.595	76.9043	72.8196	76.9043	74.5736	76.9043	72.7067	76.9043	74.5115	76.9043	72.6192	76.9043	74.4101	76.9043	72.5584	76.9043	74.2737	76.9043	72.5247	76.9043	74.1092	76.9043	72.5171	76.9043	73.9255	76.9043	72.5338	76.9043	73.7328	76.9043	72.5726	76.9043	73.5412	76.9043	72.6313	76.9043	73.359	76.9043	72.7081	76.9043	73.1922	76.9043	72.8022	76.9043	73.0435	76.9043	72.9138
79.834	74.8606	79.834	74.6841	79.834	75.0236	79.834	74.4998	79.834	75.1673	79.834	74.3137	79.834	75.2863	79.834	74.1317	79.834	75.3753	79.834	73.9593	79.834	75.43	79.834	73.8018	79.834	75.4466	79.834	73.6641	79.834	75.423	79.834	73.5499	79.834	75.3587	79.834	73.4621	79.834	75.2557	79.834	73.4023	79.834	75.1185	79.834	73.3707	79.834	74.9543	79.834	73.3662	79.834	74.7721	79.834	73.3868	79.834	74.5821	79.834	73.4297	79.834	74.3942	79.834	73.4922	79.834	74.2161	79.834	73.572	79.834	74.0531	79.834	73.6678	79.834	73.9075	79.834	73.7794
82.7637	75.6983	82.7637	75.5201	82.7637	75.8613	82.7637	75.3327	82.7637	76.0031	82.7637	75.1423	82.7637	76.1183	82.7637	74.955	82.7637	76.2017	82.7637	74.7768	82.7637	76.2489	82.7637	74.6135	82.7637	76.2565	82.7637	74.4702	82.7637	76.2225	82.7637	74.3511	82.7637	76.147	82.7637	74.2593	82.7637	76.0325	82.7637	74.1966	82.7637	75.8844	82.7637	74.1629	82.7637	75.7108	82.7637	74.1572	82.7637	75.5217	82.7637	74.1767	82.7637	75.328	82.7637	74.2182	82.7637	75.1401	82.7637	74.2784	82.7637	74.9654	82.7637	74.3545	82.7637	74.8084	82.7637	74.4449	82.7637	74.6702	82.7637	74.5497
85.6934	76.545	85.6934	76.3696	85.6934	76.7052	85.6934	76.1848	85.6934	76.8445	85.6934	75.996	85.6934	76.9575	85.6934	75.8091	85.6934	77.0392	85.6934	75.6295	85.6934	77.0847	85.6934	75.4624	85.6934	77.0905	85.6934	75.3125	85.6934	77.0542	85.6934	75.1839	85.6934	76.9754	85.6934	75.0798	85.6934	76.8562	85.6934	75.0024	85.6934	76.7014	85.6934	74.9526	85.6934	76.5188	85.6934	74.93	85.6934	76.3184	85.6934	74.9333	85.6934	76.1115	85.6934	74.9605	85.6934	75.9089	85.6934	75.0094	85.6934	75.7195	85.6934	75.0782	85.6934	75.5491	85.6934	75.1659	85.6934	75.4002	85.6934	75.2729
88.623	77.1172	88.623	76.9398	88.623	77.2816	88.623	76.7559	88.623	77.4268	88.623	76.5721	88.623	77.5467	88.623	76.3951	88.623	77.6363	88.623	76.231	88.623	77.6908	88.623	76.0857	88.623	77.7072	88.623	75.9641	88.623	77.6836	88.623	75.8697	88.623	77.6207	88.623	75.8049	88.623	77.5212	88.623	75.7701	88.623	77.3911	88.623	75.7641	88.623	77.2386	88.623	75.7844	88.623	77.0737	88.623	75.8269	88.623	76.9064	88.623	75.8873	88.623	76.7457	88.623	75.9612	88.623	76.5972	88.623	76.045	88.623	76.4634	88.623	76.1366	88.623	76.3437	88.623	76.2356
91.5527	77.9561	91.5527	77.7751	91.5527	78.1215	91.5527	77.585	91.5527	78.2652	91.5527	77.3928	91.5527	78.3812	91.5527	77.2051	91.5527	78.4642	91.5527	77.0287	91.5527	78.51	91.5527	76.8698	91.5527	78.5151	91.5527	76.7339	91.5527	78.478	91.5527	76.6253	91.5527	78.3994	91.5527	76.5469	91.5527	78.2825	91.5527	76.4995	91.5527	78.1338	91.5527	76.4823	91.5527	77.9625	91.5527	76.4927	91.5527	77.7796	91.5527	76.5265	91.5527	77.5967	91.5527	76.5792	91.5527	77.4237	91.5527	76.646	91.5527	77.267	91.5527	76.7233	91.5527	77.1292	91.5527	76.8091	91.5527	77.0091	91.5527	76.9036
94.4824	78.7276	94.4824	78.5397	94.4824	78.8985	94.4824	78.3417	94.4824	79.0458	94.4824	78.141	94.4824	79.1638	94.4824	77.9451	94.4824	79.247	94.4824	77.7614	94.4824	79.2912	94.4824	77.5972	94.4824	79.2935	94.4824	77.4587	94.4824	79.2526	94.4824	77.3508	94.4824	79.1698	94.4824	77.2765	94.4824	79.049	94.4824	77.2368	94.4824	78.8975	94.4824	77.2301	94.4824	78.7253	94.4824	77.2528	94.4824	78.5443	94.4824	77.2998	94.4824	78.3661	94.4824	77.3648	94.4824	78.2003	94.4824	77.442	94.4824	78.0525	94.4824	77.5267	94.4824	77.9236	94.4824	77.616	94.4824	77.8109	94.4824	77.7099
98.1445	79.7287	98.1445	79.5442	98.1445	79.8956	98.1445	79.3486	98.1445	80.0385	98.1445	79.1488	98.1445	80.1516	98.1445	78.9519	98.1445	80.2295	98.1445	78.7648	98.1445	80.268	98.1445	78.5942	98.1445	80.2636	98.1445	78.4464	98.1445	80.215	98.1445	78.3261	98.1445	80.1229	98.1445	78.2369	98.1445	79.9914	98.1445	78.1802	98.1445	79.8277	98.1445	78.1556	98.1445	79.6419	98.1445	78.1604	98.1445	79.4464	98.1445	78.1904	98.1445	79.2537	98.1445	78.2405	98.1445	79.0745	98.1445	78.3054	98.1445	78.9151	98.1445	78.3809	98.1445	78.7774	98.1445	78.4645	98.1445	78.6593	98.1445	78.5565
101.807	80.6623	101.807	80.4724	101.807	80.8347	101.807	80.2721	101.807	80.9829	101.807	80.0689	101.807	81.1007	101.807	79.8705	101.807	81.1827	101.807	79.6846	101.807	81.2245	101.807	79.5186	101.807	81.223	101.807	79.3788	101.807	81.1769	101.807	79.2703	101.807	81.0878	101.807	79.1963	101.807	80.96	101.807	79.1576	101.807	80.8016	101.807	79.1526	101.807	80.6235	101.807	79.1773	101.807	80.4385	101.807	79.2263	101.807	80.2593	101.807	79.2928	101.807	80.0955	101.807	79.3704	101.807	79.9524	101.807	79.454	101.807	79.83	101.807	79.5403	101.807	79.7242	101.807	79.6294
105.469	81.6427	105.469	81.4482	105.469	81.819	105.469	81.2429	105.469	81.97	105.469	81.0348	105.469	82.0895	105.469	80.8323	105.469	82.1718	105.469	80.6434	105.469	82.2124	105.469	80.476	105.469	82.2082	105.469	80.3369	105.469	82.1584	105.469	80.2315	105.469	82.0647	105.469	80.1628	105.469	81.9322	105.469	80.1313	105.469	81.7696	105.469	80.1348	105.469	81.5888	105.469	80.1684	105.469	81.4036	105.469	80.2257	105.469	81.227	105.469	80.2991	105.469	81.0689	105.469	80.3814	105.469	80.9338	105.469	80.4666	105.469	80.8205	105.469	80.5515	105.469	80.7236	105.469	80.636
109.131	82.6186	109.131	82.4189	109.131	82.7987	109.131	82.2075	109.131	82.9519	109.131	81.9928	109.131	83.0717	109.131	81.7836	109.131	83.1526	109.131	81.5888	109.131	83.19	109.131	81.4168	109.131	83.1811	109.131	81.2753	109.131	83.1251	109.131	81.1697	109.131	83.0244	109.131	81.1035	109.131	82.8847	109.131	81.0767	109.131	82.7156	109.131	81.0868	109.131	82.5302	109.131	81.128	109.131	82.3431	109.131	81.1929	109.131	82.1681	109.131	81.2729	109.131	82.0147	109.131	81.3598	109.131	81.8869	109.131	81.4472	109.131	81.7821	109.131	81.5313	109.131	81.6933	109.131	81.612
112.793	83.5946	112.793	83.3929	112.793	83.7755	112.793	83.1782	112.793	83.928	112.793	82.9593	112.793	84.0458	112.793	82.7455	112.793	84.1231	112.793	82.5459	112.793	84.1557	112.793	82.3697	112.793	84.1407	112.793	82.2249	112.793	84.0777	112.793	82.1175	112.793	83.9695	112.793	82.0512	112.793	83.8223	112.793	82.0261	112.793	83.6467	112.793	82.0393	112.793	83.4566	112.793	82.0845	112.793	83.2674	112.793	82.1535	112.793	83.0934	112.793	82.237	112.793	82.9445	112.793	82.326	112.793	82.8234	112.793	82.4135	112.793	82.7267	112.793	82.4954	112.793	82.6459	112.793	82.5714
116.455	84.5486	116.455	84.3417	116.455	84.7326	116.455	84.1202	116.455	84.886	116.455	83.8935	116.455	85.0021	116.455	83.6714	116.455	85.0751	116.455	83.464	116.455	85.1008	116.455	83.2811	116.455	85.0767	116.455	83.1313	116.455	85.0028	116.455	83.0214	116.455	84.8825	116.455	82.955	116.455	84.7233	116.455	82.9325	116.455	84.537	116.455	82.9502	116.455	84.3391	116.455	83.0012	116.455	84.1464	116.455	83.0763	116.455	83.9739	116.455	83.1653	116.455	83.8311	116.455	83.2581	116.455	83.7197	116.455	83.3468	116.455	83.6341	116.455	83.4268	116.455	83.5638	116.455	83.4976
120.85	85.8817	120.85	85.6751	120.85	86.0629	120.85	85.4515	120.85	86.2107	120.85	85.2207	120.85	86.3186	120.85	84.9928	120.85	86.3806	120.85	84.7784	120.85	86.3927	120.85	84.588	120.85	86.3522	120.85	84.431	120.85	86.2594	120.85	84.3145	120.85	86.1181	120.85	84.2426	120.85	85.9367	120.85	84.2155	120.85	85.7285	120.85	84.2292	120.85	85.511	120.85	84.2761	120.85	85.3036	120.85	84.3463	120.85	85.1234	120.85	84.4285	120.85	84.9811	120.85	84.5121	120.85	84.8781	120.85	84.5888	120.85	84.8069	120.85	84.6537	120.85	84.7545	120.85	84.707
125.244	87.0262	125.244	86.813	125.244	87.2127	125.244	86.582	125.244	87.3645	125.244	86.3432	125.244	87.4746	125.244	86.1075	125.244	87.5373	125.244	85.8862	125.244	87.5481	125.244	85.6906	125.244	87.5042	125.244	85.5308	125.244	87.4057	125.244	85.4146	125.244	87.2565	125.244	85.3461	125.244	87.065	125.244	85.325	125.244	86.8453	125.244	85.3465	125.244	86.6161	125.244	85.4016	125.244	86.3987	125.244	85.4788	125.244	86.2121	125.244	85.5657	125.244	86.0683	125.244	85.6506	125.244	85.9692	125.244	85.7247	125.244	85.906	125.244	85.7834	125.244	85.8641	125.244	85.8275
129.639	88.1124	129.639	87.8921	129.639	88.3047	129.639	87.6532	129.639	88.4611	129.639	87.4058	129.639	88.5744	129.639	87.1614	129.639	88.6387	129.639	86.9317	129.639	88.6496	129.639	86.7287	129.639	88.6043	129.639	86.563	129.639	88.503	129.639	86.443	129.639	88.3495	129.639	86.3731	129.639	88.1527	129.639	86.353	129.639	87.9268	129.639	86.3772	129.639	87.6913	129.639	86.4364	129.639	87.4678	129.639	86.5182	129.639	87.2761	129.639	86.6096	129.639	87.1285	129.639	86.6984	129.639	87.0269	129.639	86.7755	129.639	86.9623	129.639	86.8363	129.639	86.9194	129.639	86.8818
134.033	89.2144	134.033	88.9895	134.033	89.4102	134.033	88.7449	134.033	89.5687	134.033	88.4913	134.033	89.6828	134.033	88.2404	134.033	89.7465	134.033	88.0048	134.033	89.7553	134.033	87.797	134.033	89.7065	134.033	87.6284	134.033	89.6003	134.033	87.5076	134.033	89.4406	134.033	87.4393	134.033	89.2366	134.033	87.4228	134.033	89.0033	134.033	87.4523	134.033	88.761	134.033	87.5173	134.033	88.5327	134.033	87.6046	134.033	88.3391	134.033	87.7003	134.033	88.1931	134.033	87.7918	134.033	88.096	134.033	87.8695	134.033	88.0378	134.033	87.9285	134.033	88.0017	134.033	87.97
138.428	90.1122	138.428	89.8806	138.428	90.3144	138.428	89.6296	138.428	90.4785	138.428	89.3705	138.428	90.5975	138.428	89.1161	138.428	90.6651	138.428	88.8799	138.428	90.6769	138.428	88.6755	138.428	90.6306	138.428	88.515	138.428	90.5266	138.428	88.4074	138.428	90.3694	138.428	88.3569	138.428	90.1692	138.428	88.3617	138.428	89.9419	138.428	88.4141	138.428	89.7089	138.428	88.5021	138.428	89.4937	138.428	88.6107	138.428	89.3168	138.428	88.7245	138.428	89.1897	138.428	88.8301	138.428	89.1113	138.428	88.9171	138.428	89.0695	138.428	88.9803	138.428	89.0454	138.428	89.0205
143.555	91.1232	143.555	90.8767	143.555	91.3369	143.555	90.6078	143.555	91.5088	143.555	90.3287	143.555	91.6316	143.555	90.0532	143.555	91.6991	143.555	89.7964	143.555	91.7068	143.555	89.5738	143.555	91.6523	143.555	89.3995	143.555	91.5361	143.555	89.284	143.555	91.3632	143.555	89.2323	143.555	91.1446	143.555	89.2422	143.555	90.8976	143.555	89.3049	143.555	90.646	143.555	89.4059	143.555	90.416	143.555	89.5282	143.555	90.2303	143.555	89.6544	143.555	90.1015	143.555	89.7692	143.555	90.0275	143.555	89.8613	143.555	89.9939	143.555	89.9251	143.555	89.979	143.555	89.9614
148.682	92.0137	148.682	91.756	148.682	92.2343	148.682	91.4719	148.682	92.4089	148.682	91.1739	148.682	92.5304	148.682	90.8771	148.682	92.5928	148.682	90.5981	148.682	92.592	148.682	90.3543	148.682	92.5259	148.682	90.1621	148.682	92.3957	148.682	90.0342	148.682	92.2072	148.682	89.9768	148.682	91.9723	148.682	89.9881	148.682	91.7103	148.682	90.0583	148.682	91.4468	148.682	90.1714	148.682	91.2099	148.682	90.3079	148.682	91.0235	148.682	90.4485	148.682	90.8995	148.682	90.5762	148.682	90.8339	148.682	90.6784	148.682	90.8091	148.682	90.7483	148.682	90.8009	148.682	90.7862
153.809	92.6441	153.809	92.3837	153.809	92.8643	153.809	92.0933	153.809	93.0358	153.809	91.7856	153.809	93.1515	153.809	91.4754	153.809	93.2058	153.809	91.1801	153.809	93.1946	153.809	90.918	153.809	93.1158	153.809	90.7071	153.809	92.9706	153.809	90.5619	153.809	92.7648	153.809	90.4904	153.809	92.5109	153.809	90.4918	153.809	92.2293	153.809	90.5562	153.809	91.9471	153.809	90.667	153.809	91.6947	153.809	90.8034	153.809	91.498	153.809	90.9447	153.809	91.3697	153.809	91.0727	153.809	91.3053	153.809	91.174	153.809	91.2853	153.809	91.2411	153.809	91.2833	153.809	91.2746
159.668	93.3207	159.668	93.0491	159.668	93.5489	159.668	92.7445	159.668	93.7252	159.668	92.4201	159.668	93.8429	159.668	92.0918	159.668	93.8967	159.668	91.7784	159.668	93.8825	159.668	91.5007	159.668	93.7989	159.668	91.2791	159.668	93.6472	159.668	91.1301	159.668	93.4341	159.668	91.063	159.668	93.173	159.668	91.0766	159.668	92.8854	159.668	91.1593	159.668	92.6006	159.668	91.2919	159.668	92.3504	159.668	91.4509	159.668	92.1611	159.668	91.6133	159.668	92.0445	159.668	91.7592	159.668	91.9934	159.668	91.874	159.668	91.9854	159.668	91.9496	159.668	91.9917	159.668	91.9858
164.795	93.6346	164.795	93.3708	164.795	93.8534	164.795	93.0721	164.795	94.0192	164.795	92.7509	164.795	94.1252	164.795	92.4224	164.795	94.1661	164.795	92.105	164.795	94.138	164.795	91.8192	164.795	94.0391	164.795	91.5861	164.795	93.871	164.795	91.4236	164.795	93.6409	164.795	91.3428	164.795	93.3633	164.795	91.3446	164.795	93.0619	164.795	91.419	164.795	92.7686	164.795	91.5471	164.795	92.5176	164.795	91.705	164.795	92.3363	164.795	91.8687	164.795	92.2352	164.795	92.0168	164.795	92.2033	164.795	92.1329	164.795	92.2139	164.795	92.2076	164.795	92.235	164.795	92.239
170.654	93.6908	170.654	93.4209	170.654	93.9139	170.654	93.1149	170.654	94.0817	170.654	92.7863	170.654	94.1869	170.654	92.4516	170.654	94.2241	170.654	92.131	170.654	94.189	170.654	91.8469	170.654	94.0796	170.654	91.6217	170.654	93.8977	170.654	91.4744	170.654	93.6509	170.654	91.4153	170.654	93.3551	170.654	91.4435	170.654	93.037	170.654	91.5456	170.654	92.7325	170.654	91.6996	170.654	92.481	170.654	91.8786	170.654	92.3133	170.654	92.0563	170.654	92.2397	170.654	92.2101	170.654	92.2452	170.654	92.3226	170.654	92.2968	170.654	92.3839	170.654	92.3564	170.654	92.3923
176.514	93.3974	176.514	93.1183	176.514	93.627	176.514	92.8007	176.514	93.7985	176.514	92.4584	176.514	93.9048	176.514	92.1088	176.514	93.9398	176.514	91.7733	176.514	93.8991	176.514	91.4759	176.514	93.7804	176.514	91.2414	176.514	93.5848	176.514	91.0905	176.514	93.3195	176.514	91.0347	176.514	93.0008	176.514	91.0721	176.514	92.6567	176.514	91.1874	176.514	92.3266	176.514	91.3555	176.514	92.0546	176.514	91.5466	176.514	91.8767	176.514	91.7322	176.514	91.8055	176.514	91.8879	176.514	91.8249	176.514	91.9959	176.514	91.8974	176.514	92.0461	176.514	91.9803	176.514	92.0375
183.105	93.004	183.105	92.7083	183.105	93.2444	183.105	92.3678	183.105	93.4212	183.105	91.9964	183.105	93.5278	183.105	91.6123	183.105	93.5589	183.105	91.2385	183.105	93.5104	183.105	90.9024	183.105	93.3802	183.105	90.6328	183.105	93.1698	183.105	90.4551	183.105	92.8867	183.105	90.3841	183.105	92.5479	183.105	90.419	183.105	92.1825	183.105	90.5426	183.105	91.8317	183.105	90.7261	183.105	91.5423	183.105	90.9359	183.105	91.3519	183.105	91.1402	183.105	91.2737	183.105	91.3125	183.105	91.2899	183.105	91.4343	183.105	91.3607	183.105	91.495	183.105	91.4411	183.105	91.4938
189.697	92.7719	189.697	92.4888	189.697	92.9968	189.697	92.1576	189.697	93.1559	189.697	91.7911	189.697	93.2426	189.697	91.4064	189.697	93.2517	189.697	91.0255	189.697	93.1787	189.697	90.675	189.697	93.0213	189.697	90.3843	189.697	92.7806	189.697	90.1803	189.697	92.4644	189.697	90.0812	189.697	92.0908	189.697	90.0896	189.697	91.6921	189.697	90.1915	189.697	91.3145	189.697	90.359	189.697	91.0106	189.697	90.5583	189.697	90.8219	189.697	90.7558	189.697	90.7606	189.697	90.9232	189.697	90.8029	189.697	91.0395	189.697	90.9018	189.697	91.0921	189.697	91.0068	189.697	91.0781
196.289	92.3913	196.289	92.1006	196.289	92.6223	196.289	91.7608	196.289	92.785	196.289	91.3861	196.289	92.8728	196.289	90.9953	196.289	92.8797	196.289	90.6128	196.289	92.8009	196.289	90.2681	196.289	92.6337	196.289	89.9929	196.289	92.379	196.289	89.8149	196.289	92.0447	196.289	89.7504	196.289	91.6503	196.289	89.7978	196.289	91.2314	196.289	89.9372	196.289	90.8396	196.289	90.1359	196.289	90.5344	196.289	90.3569	196.289	90.3623	196.289	90.5653	196.289	90.3347	196.289	90.7326	196.289	90.422	196.289	90.8384	196.289	90.5688	196.289	90.8708	196.289	90.7184	196.289	90.8275
202.881	92.0124	202.881	91.7026	202.881	92.2562	202.881	91.3376	202.881	92.4258	202.881	90.932	202.881	92.514	202.881	90.5053	202.881	92.5148	202.881	90.0834	202.881	92.4233	202.881	89.6986	202.881	92.2359	202.881	89.3865	202.881	91.9526	202.881	89.1793	202.881	91.5807	202.881	89.0962	202.881	91.1392	202.881	89.136	202.881	90.6646	202.881	89.2764	202.881	90.2132	202.881	89.4804	202.881	89.8529	202.881	89.7066	202.881	89.6405	202.881	89.9173	202.881	89.5938	202.881	90.0823	202.881	89.6818	202.881	90.1806	202.881	89.8426	202.881	90.2005	202.881	90.0117	202.881	90.1404
210.205	91.6291	210.205	91.326	210.205	91.8634	210.205	90.9631	210.205	92.0222	210.205	90.5529	210.205	92.1002	210.205	90.1136	210.205	92.0925	210.205	89.6705	210.205	91.9948	210.205	89.2566	210.205	91.8037	210.205	88.9108	210.205	91.5191	210.205	88.6702	210.205	91.1469	210.205	88.5598	210.205	90.7048	210.205	88.5824	210.205	90.2274	210.205	88.7162	210.205	89.7692	210.205	88.9221	210.205	89.3974	210.205	89.1552	210.205	89.1701	210.205	89.3742	210.205	89.1079	210.205	89.5471	210.205	89.1827	210.205	89.6517	210.205	89.3338	210.205	89.6764	210.205	89.4963	210.205	89.6205
217.529	91.1404	217.529	90.8299	217.529	91.3827	217.529	90.4623	217.529	91.5486	217.529	90.0528	217.529	91.6315	217.529	89.6225	217.529	91.626	217.529	89.1993	217.529	91.5276	217.529	88.8186	217.529	91.334	217.529	88.5187	217.529	91.0469	217.529	88.3337	217.529	90.6758	217.529	88.2819	217.529	90.2442	217.529	88.3587	217.529	89.794	217.529	88.537	217.529	89.3863	217.529	88.7761	217.529	89.089	217.529	89.0329	217.529	88.9494	217.529	89.2698	217.529	88.9693	217.529	89.4581	217.529	89.104	217.529	89.578	217.529	89.2872	217.529	89.6184	217.529	89.4583	217.529	89.5761
225.586	90.6172	225.586	90.2863	225.586	90.8638	225.586	89.8808	225.586	91.0196	225.586	89.4158	225.586	91.0791	225.586	88.9148	225.586	91.0373	225.586	88.4131	225.586	90.8894	225.586	87.9592	225.586	90.6316	225.586	87.6101	225.586	90.2641	225.586	87.4178	225.586	89.7969	225.586	87.4091	225.586	89.2582	225.586	87.5724	225.586	88.7058	225.586	87.8621	225.586	88.2302	225.586	88.2169	225.586	87.9349	225.586	88.5778	225.586	87.8855	225.586	88.8977	225.586	88.0644	225.586	89.1426	225.586	88.3822	225.586	89.2893	225.586	88.7324	225.586	89.323	225.586	89.033	225.586	89.2366
232.91	90.6693	232.91	90.3398	232.91	90.9128	232.91	89.9309	232.91	91.065	232.91	89.453	232.91	91.1204	232.91	88.9235	232.91	91.0731	232.91	88.3707	232.91	90.916	232.91	87.8381	232.91	90.6416	232.91	87.3846	232.91	90.2446	232.91	87.074	232.91	89.7267	232.91	86.954	232.91	89.1059	232.91	87.0321	232.91	88.4302	232.91	87.2702	232.91	87.7905	232.91	87.601	232.91	87.3134	232.91	87.9531	232.91	87.1105	232.91	88.2673	232.91	87.2032	232.91	88.5008	232.91	87.5052	232.91	88.6256	232.91	87.886	232.91	88.6251	232.91	88.2369	232.91	88.4931
241.699	90.0482	241.699	89.6876	241.699	90.3242	241.699	89.2513	241.699	90.5087	241.699	88.7526	241.699	90.5952	241.699	88.2122	241.699	90.577	241.699	87.6621	241.699	90.4467	241.699	87.149	241.699	90.1962	241.699	86.7322	241.699	89.8191	241.699	86.4711	241.699	89.3155	241.699	86.4034	241.699	88.7002	241.699	86.5246	241.699	88.0171	241.699	86.7885	241.699	87.3525	241.699	87.1268	241.699	86.8329	241.699	87.4715	241.699	86.5789	241.699	87.7682	241.699	86.6275	241.699	87.9788	241.699	86.9031	241.699	88.0789	241.699	87.2757	241.699	88.0548	241.699	87.632	241.699	87.9026
249.756	90.1724	249.756	89.7772	249.756	90.4638	249.756	89.2832	249.756	90.6478	249.756	88.6993	249.756	90.7212	249.756	88.0424	249.756	90.6793	249.756	87.3437	249.756	90.5161	249.756	86.6564	249.756	90.224	249.756	86.0593	249.756	89.7964	249.756	85.6458	249.756	89.232	249.756	85.489	249.756	88.5452	249.756	85.5993	249.756	87.7817	249.756	85.9161	249.756	87.0368	249.756	86.341	249.756	86.4551	249.756	86.7802	249.756	86.1752	249.756	87.1647	249.756	86.233	249.756	87.4508	249.756	86.5315	249.756	87.6131	249.756	86.9189	249.756	87.6383	249.756	87.2724	249.756	87.5222
258.545	90.1232	258.545	89.7764	258.545	90.3738	258.545	89.3364	258.545	90.5259	258.545	88.809	258.545	90.5763	258.545	88.2062	258.545	90.5199	258.545	87.552	258.545	90.3489	258.545	86.8893	258.545	90.0532	258.545	86.2845	258.545	89.6223	258.545	85.8224	258.545	89.0499	258.545	85.5805	258.545	88.3438	258.545	85.5901	258.545	87.5425	258.545	85.8149	258.545	86.7374	258.545	86.1709	258.545	86.0812	258.545	86.5648	258.545	85.738	258.545	86.9211	258.545	85.7704	258.545	87.1877	258.545	86.0839	258.545	87.3322	258.545	86.5088	258.545	87.3359	258.545	86.9044	258.545	87.191
268.066	89.695	268.066	89.3038	268.066	89.978	268.066	88.8062	268.066	90.1518	268.066	88.2073	268.066	90.214	268.066	87.5201	268.066	90.16	268.066	86.7736	268.066	89.9823	268.066	86.0226	268.066	89.6702	268.066	85.356	268.066	89.2116	268.066	84.8868	268.066	88.5984	268.066	84.7089	268.066	87.8368	268.066	84.8391	268.066	86.9672	268.066	85.2026	268.066	86.0932	268.066	85.68	268.066	85.3946	268.066	86.1623	268.066	85.0665	268.066	86.5738	268.066	85.1708	268.066	86.8689	268.066	85.5768	268.066	87.0223	268.066	86.0816	268.066	87.0201	268.066	86.5336	268.066	86.8558
277.588	89.9279	277.588	89.5984	277.588	90.156	277.588	89.1639	277.588	90.2842	277.588	88.6204	277.588	90.311	277.588	87.9667	277.588	90.2317	277.588	87.2111	277.588	90.0378	277.588	86.3825	277.588	89.7174	277.588	85.5454	277.588	89.2565	277.588	84.8121	277.588	88.6432	277.588	84.3258	277.588	87.8774	277.588	84.1927	277.588	86.988	277.588	84.4037	277.588	86.0606	277.588	84.8386	277.588	85.2593	277.588	85.3478	277.588	84.7879	277.588	85.8146	277.588	84.7534	277.588	86.1676	277.588	85.0648	277.588	86.3687	277.588	85.5207	277.588	86.3999	277.588	85.95	277.588	86.2566
287.109	89.728	287.109	89.3956	287.109	89.9662	287.109	88.9694	287.109	90.1079	287.109	88.4492	287.109	90.1484	287.109	87.8365	287.109	90.0799	287.109	87.1407	287.109	89.8914	287.109	86.3885	287.109	89.5683	287.109	85.6353	287.109	89.0941	287.109	84.9742	287.109	88.4549	287.109	84.5218	287.109	87.6502	287.109	84.3684	287.109	86.7136	287.109	84.5174	287.109	85.7461	287.109	84.8796	287.109	84.9405	287.109	85.3292	287.109	84.5234	287.109	85.7583	287.109	84.5819	287.109	86.0947	287.109	84.9755	287.109	86.2959	287.109	85.4755	287.109	86.3386	287.109	85.9144	287.109	86.211
297.363	89.889	297.363	89.5303	297.363	90.1465	297.363	89.0726	297.363	90.2998	297.363	88.5181	297.363	90.3442	297.363	87.8717	297.363	90.2727	297.363	87.1454	297.363	90.0747	297.363	86.3677	297.363	89.7357	297.363	85.5943	297.363	89.2381	297.363	84.9157	297.363	88.5654	297.363	84.4445	297.363	87.7118	297.363	84.2682	297.363	86.7038	297.363	84.3918	297.363	85.637	297.363	84.7308	297.363	84.7142	297.363	85.163	297.363	84.2003	297.363	85.5804	297.363	84.2229	297.363	85.9082	297.363	84.6362	297.363	86.1008	297.363	85.178	297.363	86.1309	297.363	85.6568	297.363	85.9834
307.617	89.7214	307.617	89.3814	307.617	89.9647	307.617	88.9477	307.617	90.1072	307.617	88.4239	307.617	90.1435	307.617	87.8164	307.617	90.0661	307.617	87.1406	307.617	89.8643	307.617	86.4291	307.617	89.523	307.617	85.7423	307.617	89.0242	307.617	85.1708	307.617	88.3507	307.617	84.816	307.617	87.4964	307.617	84.7419	307.617	86.4897	307.617	84.9319	307.617	85.434	307.617	85.296	307.617	84.5477	307.617	85.7205	307.617	84.1092	307.617	86.1089	307.617	84.233	307.617	86.3949	307.617	84.7449	307.617	86.5376	307.617	85.369	307.617	86.5127	307.617	85.9174	307.617	86.3066
318.604	89.5111	318.604	89.1307	318.604	89.7783	318.604	88.6373	318.604	89.9317	318.604	88.0328	318.604	89.9696	318.604	87.3244	318.604	89.8876	318.604	86.5322	318.604	89.6776	318.604	85.7022	318.604	89.3264	318.604	84.9207	318.604	88.8167	318.604	84.3164	318.604	88.1318	318.604	84.0207	318.604	87.2663	318.604	84.0875	318.604	86.2506	318.604	84.4481	318.604	85.1928	318.604	84.9599	318.604	84.317	318.604	85.4856	318.604	83.8999	318.604	85.9299	318.604	84.0428	318.604	86.2379	318.604	84.5621	318.604	86.3814	318.604	85.1865	318.604	86.3475	318.604	85.7359	318.604	86.1312
329.59	89.5455	329.59	89.2025	329.59	89.781	329.59	88.7511	329.59	89.909	329.59	88.1906	329.59	89.9275	329.59	87.5232	329.59	89.8317	329.59	86.7609	329.59	89.6123	329.59	85.9377	329.59	89.2543	329.59	85.1252	329.59	88.7379	329.59	84.4424	329.59	88.0426	329.59	84.0316	329.59	87.1591	329.59	83.9818	329.59	86.1151	329.59	84.2587	329.59	85.0209	329.59	84.7281	329.59	84.1143	329.59	85.2408	329.59	83.692	329.59	85.6877	329.59	83.8548	329.59	86.005	329.59	84.3949	329.59	86.1614	329.59	85.0248	329.59	86.1431	329.59	85.5653	329.59	85.9443
341.309	88.8934	341.309	88.4648	341.309	89.185	341.309	87.8964	341.309	89.3414	341.309	87.1872	341.309	89.3623	341.309	86.3443	341.309	89.2432	341.309	85.3962	341.309	88.9744	341.309	84.4187	341.309	88.5399	341.309	83.5652	341.309	87.9195	341.309	83.0581	341.309	87.098	341.309	83.0686	341.309	86.0893	341.309	83.562	341.309	84.9905	341.309	84.3302	341.309	84.0586	341.309	85.1595	341.309	83.6781	341.309	85.9146	341.309	84.022	341.309	86.5302	341.309	84.8258	341.309	86.9802	341.309	85.7068	341.309	87.2557	341.309	86.4433	341.309	87.3517	341.309	86.962	341.309	87.2592
353.76	89.818	353.76	89.4729	353.76	90.0172	353.76	88.9666	353.76	90.0796	353.76	88.2779	353.76	90.0073	353.76	87.3819	353.76	89.7944	353.76	86.257	353.76	89.425	353.76	84.9052	353.76	88.8704	353.76	83.4066	353.76	88.0867	353.76	82.0376	353.76	87.0152	353.76	81.3389	353.76	85.5924	353.76	81.6918	353.76	83.8007	353.76	82.7821	353.76	81.8665	353.76	84.0509	353.76	80.6866	353.76	85.1839	353.76	81.2534	353.76	86.0746	353.76	82.8746	353.76	86.7011	353.76	84.4749	353.76	87.0647	353.76	85.6975	353.76	87.1662	353.76	86.5208	353.76	86.9946
366.211	90.0783	366.211	89.7814	366.211	90.237	366.211	89.3297	366.211	90.2665	366.211	88.6978	366.211	90.1684	366.211	87.8523	366.211	89.936	366.211	86.7536	366.211	89.5513	366.211	85.3653	366.211	88.9812	366.211	83.6861	366.211	88.1723	366.211	81.8565	366.211	87.0467	366.211	80.4039	366.211	85.4989	366.211	80.1917	366.211	83.4147	366.211	81.2697	366.211	80.8345	366.211	82.7858	366.211	78.7605	366.211	84.169	366.211	79.3391	366.211	85.2503	366.211	81.5879	366.211	86.0114	366.211	83.6209	366.211	86.4665	366.211	85.062	366.211	86.6249	366.211	85.9793	366.211	86.4757
378.662	90.7634	378.662	90.5512	378.662	90.8776	378.662	90.2222	378.662	90.9016	378.662	89.7457	378.662	90.8335	378.662	89.0802	378.662	90.6613	378.662	88.1746	378.662	90.3613	378.662	86.9689	378.662	89.8936	378.662	85.3974	378.662	89.1959	378.662	83.4081	378.662	88.174	378.662	81.0811	378.662	86.6818	378.662	79.0825	378.662	84.4725	378.662	78.918	378.662	81.0594	378.662	80.5628	378.662	75.3866	378.662	82.5126	378.662	71.7855	378.662	84.1136	378.662	78.1084	378.662	85.274	378.662	82.0641	378.662	86.0136	378.662	84.3322	378.662	86.3433	378.662	85.6186	378.662	86.2371
392.578	89.9262	392.578	89.7398	392.578	90.0735	392.578	89.5117	392.578	90.1743	392.578	89.2252	392.578	90.2168	392.578	88.8497	392.578	90.187	392.578	88.3459	392.578	90.068	392.578	87.675	392.578	89.8362	392.578	86.8076	392.578	89.4577	392.578	85.7357	392.578	88.8852	392.578	84.4943	392.578	88.0543	392.578	83.2044	392.578	86.8769	392.578	82.121	392.578	85.2271	392.578	81.5675	392.578	82.912	392.578	81.6481	392.578	79.6297	392.578	82.1001	392.578	75.2615	392.578	82.5484	392.578	73.4532	392.578	82.7186	392.578	76.8214	392.578	82.4286	392.578	79.7465	392.578	81.5129
405.762	90.2275	405.762	89.9789	405.762	90.3828	405.762	89.6423	405.762	90.4378	405.762	89.216	405.762	90.3876	405.762	88.6879	405.762	90.2285	405.762	88.0382	405.762	89.954	405.762	87.25	405.762	89.5497	405.762	86.3273	405.762	88.9897	405.762	85.3226	405.762	88.2353	405.762	84.3703	405.762	87.2376	405.762	83.691	405.762	85.9451	405.762	83.485	405.762	84.3246	405.762	83.7506	405.762	82.4317	405.762	84.2726	405.762	80.6172	405.762	84.7976	405.762	79.7502	405.762	85.1451	405.762	80.3874	405.762	85.2089	405.762	81.8083	405.762	84.9267	405.762	83.2014	405.762	84.2613
420.41	91.2829	420.41	91.0918	420.41	91.3793	420.41	90.7992	420.41	91.3832	420.41	90.3909	420.41	91.2945	420.41	89.8438	420.41	91.1102	420.41	89.1288	420.41	90.8211	420.41	88.2181	420.41	90.4083	420.41	87.0998	420.41	89.8402	420.41	85.8046	420.41	89.0712	420.41	84.4606	420.41	88.0426	420.41	83.3592	420.41	86.6842	420.41	82.8796	420.41	84.9186	420.41	83.1284	420.41	82.6898	420.41	83.7868	420.41	80.1296	420.41	84.455	420.41	78.1805	420.41	84.8824	420.41	78.5073	420.41	84.943	420.41	80.4129	420.41	84.5662	420.41	82.3037	420.41	83.7001
435.059	91.1861	435.059	91.0107	435.059	91.269	435.059	90.7405	435.059	91.2561	435.059	90.3629	435.059	91.1431	435.059	89.8541	435.059	90.925	435.059	89.1841	435.059	90.5922	435.059	88.3287	435.059	90.1264	435.059	87.29	435.059	89.4974	435.059	86.1298	435.059	88.6641	435.059	85.0204	435.059	87.5826	435.059	84.2603	435.059	86.224	435.059	84.1097	435.059	84.6175	435.059	84.5174	435.059	82.9438	435.059	85.1681	435.059	81.6609	435.059	85.7627	435.059	81.3376	435.059	86.126	435.059	82.0036	435.059	86.175	435.059	83.1385	435.059	85.8779	435.059	84.2911	435.059	85.2369
450.439	91.4308	450.439	91.2868	450.439	91.4864	450.439	91.0587	450.439	91.4441	450.439	90.7366	450.439	91.2956	450.439	90.2914	450.439	91.0342	450.439	89.6795	450.439	90.6502	450.439	88.8546	450.439	90.123	450.439	87.7838	450.439	89.4164	450.439	86.4757	450.439	88.4764	450.439	85.0398	450.439	87.2327	450.439	83.7877	450.439	85.6042	450.439	83.2092	450.439	83.5184	450.439	83.512	450.439	81.0068	450.439	84.3211	450.439	78.6328	450.439	85.1456	450.439	78.0623	450.439	85.7044	450.439	79.6931	450.439	85.8747	450.439	81.8176	450.439	85.5996	450.439	83.5848	450.439	84.8447
466.553	91.1643	466.553	91.0287	466.553	91.2078	466.553	90.8036	466.553	91.1515	466.553	90.4771	466.553	90.9896	466.553	90.0198	466.553	90.7179	466.553	89.3905	466.553	90.3286	466.553	88.5506	466.553	89.801	466.553	87.4829	466.553	89.0963	466.553	86.2238	466.553	88.1567	466.553	84.92	466.553	86.9128	466.553	83.8865	466.553	85.3014	466.553	83.4928	466.553	83.3148	466.553	83.7907	466.553	81.1452	466.553	84.4369	466.553	79.4622	466.553	85.0531	466.553	79.1855	466.553	85.4157	466.553	80.2033	466.553	85.4201	466.553	81.6705	466.553	85.0251	466.553	83.0814	466.553	84.2315
482.666	90.9479	482.666	90.7864	482.666	91.0291	482.666	90.5666	482.666	91.0084	482.666	90.2921	482.666	90.8738	482.666	89.9356	482.666	90.6209	482.666	89.4434	482.666	90.2426	482.666	88.7548	482.666	89.7191	482.666	87.825	482.666	89.0126	482.666	86.6503	482.666	88.0686	482.666	85.313	482.666	86.8242	482.666	84.0569	482.666	85.2239	482.666	83.2977	482.666	83.2499	482.666	83.3118	482.666	80.9934	482.666	83.8791	482.666	78.8345	482.666	84.5428	482.666	77.6836	482.666	84.9748	482.666	78.3257	482.666	85.0047	482.666	80.1217	482.666	84.544	482.666	82.027	482.666	83.5483
500.244	91.4315	500.244	91.2109	500.244	91.5306	500.244	90.8853	500.244	91.4974	500.244	90.4635	500.244	91.3312	500.244	89.9332	500.244	91.0348	500.244	89.2597	500.244	90.6026	500.244	88.3997	500.244	90.0093	500.244	87.3289	500.244	89.2032	500.244	86.0826	500.244	88.1068	500.244	84.8211	500.244	86.6251	500.244	83.8831	500.244	84.6768	500.244	83.6292	500.244	82.3072	500.244	84.049	500.244	80.0439	500.244	84.7593	500.244	79.106	500.244	85.3888	500.244	79.7579	500.244	85.7288	500.244	80.9527	500.244	85.6859	500.244	82.1724	500.244	85.237	500.244	83.3548	500.244	84.4231
517.822	90.9716	517.822	90.843	517.822	91.0047	517.822	90.6357	517.822	90.9276	517.822	90.3494	517.822	90.7383	517.822	89.9529	517.822	90.4448	517.822	89.3884	517.822	90.0522	517.822	88.5912	517.822	89.5486	517.822	87.5129	517.822	88.8969	517.822	86.1531	517.822	88.0347	517.822	84.6275	517.822	86.8794	517.822	83.2942	517.822	85.3332	517.822	82.7309	517.822	83.2827	517.822	83.1472	517.822	80.5992	517.822	84.0646	517.822	77.3036	517.822	84.9414	517.822	74.9495	517.822	85.4958	517.822	76.6895	517.822	85.6012	517.822	79.8845	517.822	85.1785	517.822	82.4207	517.822	84.1501
536.133	91.3845	536.133	91.1606	536.133	91.4011	536.133	90.7808	536.133	91.1909	536.133	90.3188	536.133	90.7574	536.133	89.8327	536.133	90.1121	536.133	89.3184	536.133	89.2588	536.133	88.6988	536.133	88.1833	536.133	87.8612	536.133	86.8605	536.133	86.7071	536.133	85.3139	536.133	85.2065	536.133	83.7695	536.133	83.5361	536.133	82.7622	536.133	82.3697	536.133	82.5713	536.133	82.594	536.133	82.5802	536.133	83.8991	536.133	81.9418	536.133	85.2867	536.133	80.1299	536.133	86.2303	536.133	77.6646	536.133	86.5374	536.133	78.5908	536.133	86.0777	536.133	82.094	536.133	84.6743
554.443	91.5104	554.443	91.1455	554.443	91.6688	554.443	90.6423	554.443	91.6002	554.443	90.1111	554.443	91.3107	554.443	89.6496	554.443	90.8094	554.443	89.2592	554.443	90.087	554.443	88.8283	554.443	89.0935	554.443	88.1998	554.443	87.7196	554.443	87.2409	554.443	85.7836	554.443	85.8774	554.443	83.0712	554.443	84.1606	554.443	79.7983	554.443	82.4987	554.443	78.4118	554.443	81.8498	554.443	80.0075	554.443	82.6065	554.443	81.317	554.443	83.8267	554.443	81.2474	554.443	84.6855	554.443	79.9113	554.443	84.8538	554.443	78.6961	554.443	84.1674	554.443	80.0704	554.443	82.5021
574.219	92.3096	574.219	91.9514	574.219	92.3914	574.219	91.3421	574.219	92.2135	574.219	90.5671	574.219	91.813	574.219	89.7601	574.219	91.2279	574.219	89.0329	574.219	90.4782	574.219	88.3823	574.219	89.5431	574.219	87.6856	574.219	88.3381	574.219	86.7921	574.219	86.6992	574.219	85.6143	574.219	84.3808	574.219	84.216	574.219	81.1234	574.219	82.9675	574.219	77.3942	574.219	82.5453	574.219	76.4613	574.219	83.1536	574.219	77.9832	574.219	84.1399	574.219	78.6717	574.219	84.8585	574.219	78.4192	574.219	84.9928	574.219	78.7916	574.219	84.3831	574.219	80.7605	574.219	82.9343
594.727	91.8432	594.727	91.6137	594.727	91.8226	594.727	91.151	594.727	91.578	594.727	90.5269	594.727	91.1572	594.727	89.848	594.727	90.608	594.727	89.1881	594.727	89.954	594.727	88.5178	594.727	89.1709	594.727	87.7117	594.727	88.1702	594.727	86.6221	594.727	86.8019	594.727	85.1527	594.727	84.8718	594.727	83.37	594.727	82.1832	594.727	81.8071	594.727	78.7271	594.727	81.5554	594.727	75.4402	594.727	82.7205	594.727	74.1826	594.727	84.1711	594.727	74.5722	594.727	85.2061	594.727	76.4071	594.727	85.6156	594.727	79.4583	594.727	85.3202	594.727	82.2766	594.727	84.2383
615.234	91.6743	615.234	91.517	615.234	91.5673	615.234	91.0941	615.234	91.2372	615.234	90.4604	615.234	90.7456	615.234	89.7287	615.234	90.1423	615.234	89.0276	615.234	89.4298	615.234	88.4086	615.234	88.5433	615.234	87.7874	615.234	87.3648	615.234	86.9927	615.234	85.7707	615.234	85.8569	615.234	83.7626	615.234	84.2829	615.234	81.8256	615.234	82.3802	615.234	81.0023	615.234	80.838	615.234	81.1657	615.234	80.773	615.234	80.9506	615.234	81.8737	615.234	79.4863	615.234	82.9178	615.234	76.6838	615.234	83.3111	615.234	75.5547	615.234	82.845	615.234	78.5809	615.234	81.3371
637.207	92.5936	637.207	92.1881	637.207	92.6519	637.207	91.447	637.207	92.3911	637.207	90.451	637.207	91.8642	637.207	89.3851	637.207	91.1325	637.207	88.5021	637.207	90.2328	637.207	87.9278	637.207	89.1358	637.207	87.5052	637.207	87.7171	637.207	86.9308	637.207	85.7647	637.207	85.9503	637.207	83.0708	637.207	84.4305	637.207	79.9871	637.207	82.5155	637.207	78.6896	637.207	81.2234	637.207	79.4216	637.207	82.0167	637.207	79.2982	637.207	83.9676	637.207	77.0058	637.207	85.6049	637.207	74.2547	637.207	86.4668	637.207	78.5924	637.207	86.4293	637.207	82.9141	637.207	85.3479
659.912	92.0638	659.912	91.8821	659.912	91.9042	659.912	91.332	659.912	91.4686	659.912	90.4369	659.912	90.8583	659.912	89.3064	659.912	90.1855	659.912	88.1655	659.912	89.5112	659.912	87.2685	659.912	88.7819	659.912	86.6648	659.912	87.8316	659.912	86.1264	659.912	86.4348	659.912	85.3649	659.912	84.3641	659.912	84.2235	659.912	81.541	659.912	82.8036	659.912	78.6854	659.912	81.6966	659.912	77.5935	659.912	81.7597	659.912	77.5494	659.912	82.7899	659.912	76.6212	659.912	83.8069	659.912	75.2334	659.912	84.2327	659.912	76.7482	659.912	83.8434	659.912	80.0434	659.912	82.4966
683.35	92.3914	683.35	92.4295	683.35	92.0164	683.35	92.0649	683.35	91.4254	683.35	91.2969	683.35	90.7756	683.35	90.2174	683.35	90.1892	683.35	89.0356	683.35	89.6538	683.35	88.001	683.35	89.0062	683.35	87.1833	683.35	88.0109	683.35	86.3776	683.35	86.4263	683.35	85.2968	683.35	84.0717	683.35	83.7939	683.35	81.252	683.35	82.1408	683.35	79.8901	683.35	81.4459	683.35	80.7171	683.35	82.4523	683.35	81.2442	683.35	83.9963	683.35	80.2641	683.35	85.0271	683.35	77.5663	683.35	85.2	683.35	75.6522	683.35	84.3724	683.35	78.9417	683.35	82.3604
706.787	92.6053	706.787	92.5397	706.787	92.3384	706.787	92.0699	706.787	91.8485	706.787	91.1753	706.787	91.2529	706.787	89.912	706.787	90.6208	706.787	88.4685	706.787	89.9254	706.787	87.1838	706.787	89.046	706.787	86.3229	706.787	87.8016	706.787	85.7391	706.787	85.9853	706.787	84.9853	706.787	83.4438	706.787	83.6308	706.787	80.4813	706.787	81.3826	706.787	78.6719	706.787	78.7382	706.787	78.5564	706.787	78.9743	706.787	78.067	706.787	81.8791	706.787	76.3065	706.787	84.162	706.787	75.4184	706.787	85.262	706.787	78.4703	706.787	85.2454	706.787	81.8876	706.787	84.1414
731.689	92.3115	731.689	92.4735	731.689	91.8366	731.689	92.2243	731.689	91.1813	731.689	91.5117	731.689	90.4771	731.689	90.343	731.689	89.7984	731.689	88.8323	731.689	89.1232	731.689	87.2746	731.689	88.3373	731.689	86.0834	731.689	87.2716	731.689	85.3877	731.689	85.7557	731.689	84.8244	731.689	83.706	731.689	83.9122	731.689	81.3082	731.689	82.332	731.689	79.1596	731.689	80.1452	731.689	77.6051	731.689	78.7866	731.689	76.1218	731.689	80.0613	731.689	74.4476	731.689	82.0081	731.689	73.5707	731.689	83.0218	731.689	75.2539	731.689	82.7965	731.689	78.5372	731.689	81.2795
758.057	92.1071	758.057	92.3736	758.057	91.5703	758.057	92.2127	758.057	90.9762	758.057	91.5488	758.057	90.4923	758.057	90.3955	758.057	90.118	758.057	88.9	758.057	89.6943	758.057	87.3975	758.057	89.0112	758.057	86.2705	758.057	87.8645	758.057	85.5293	758.057	86.0514	758.057	84.7502	758.057	83.4077	758.057	83.4606	758.057	80.2145	758.057	81.3739	758.057	78.3214	758.057	79.0361	758.057	78.6755	758.057	79.2631	758.057	79.0645	758.057	81.7693	758.057	78.4896	758.057	83.6643	758.057	76.8781	758.057	84.2816	758.057	75.4723	758.057	83.5459	758.057	77.8258	758.057	81.3508
784.424	91.7031	784.424	91.9146	784.424	91.1846	784.424	91.7358	784.424	90.511	784.424	91.1429	784.424	89.8556	784.424	90.1589	784.424	89.3085	784.424	88.878	784.424	88.8162	784.424	87.5167	784.424	88.2169	784.424	86.3717	784.424	87.3033	784.424	85.5588	784.424	85.8578	784.424	84.8302	784.424	83.6752	784.424	83.7712	784.424	80.6252	784.424	82.0308	784.424	76.9269	784.424	79.5953	784.424	73.9617	784.424	78.0719	784.424	73.523	784.424	79.5912	784.424	74.1025	784.424	81.6743	784.424	73.7426	784.424	82.6254	784.424	73.3436	784.424	82.1523	784.424	76.447	784.424	80.0944
812.256	91.8157	812.256	91.9359	812.256	91.3085	812.256	91.5938	812.256	90.6086	812.256	90.7982	812.256	89.9975	812.256	89.6201	812.256	89.6353	812.256	88.2022	812.256	89.3713	812.256	86.7993	812.256	88.892	812.256	85.7389	812.256	87.957	812.256	85.1422	812.256	86.4867	812.256	84.7177	812.256	84.6438	812.256	83.9989	812.256	82.8626	812.256	82.6087	812.256	81.2621	812.256	80.431	812.256	79.1039	812.256	78.4911	812.256	75.9813	812.256	79.2861	812.256	74.2719	812.256	81.415	812.256	74.4137	812.256	82.6081	812.256	73.7593	812.256	82.2673	812.256	76.1199	812.256	80.0908
840.82	91.7322	840.82	91.9858	840.82	91.2174	840.82	91.7886	840.82	90.717	840.82	91.0347	840.82	90.4532	840.82	89.6882	840.82	90.3823	840.82	87.8537	840.82	90.2465	840.82	86.0068	840.82	89.8153	840.82	85.0301	840.82	88.9892	840.82	85.0974	840.82	87.777	840.82	85.3157	840.82	86.2277	840.82	84.9366	840.82	84.2366	840.82	83.5485	840.82	81.1896	840.82	80.816	840.82	75.8571	840.82	77.3664	840.82	74.3946	840.82	78.4251	840.82	78.9592	840.82	81.7791	840.82	79.9694	840.82	83.4569	840.82	77.5606	840.82	83.1148	840.82	75.9183	840.82	80.4168
870.85	91.7089	870.85	92.0749	870.85	91.1519	870.85	92.0993	870.85	90.6091	870.85	91.6353	870.85	90.2512	870.85	90.4965	870.85	90.0017	870.85	88.4613	870.85	89.5645	870.85	85.3608	870.85	88.6886	870.85	81.8684	870.85	87.3653	870.85	81.3043	870.85	86.028	870.85	83.1315	870.85	85.4293	870.85	84.2332	870.85	85.336	870.85	84.0209	870.85	84.3575	870.85	82.4475	870.85	80.8717	870.85	80.0081	870.85	72.437	870.85	79.7715	870.85	76.9176	870.85	82.1689	870.85	80.5162	870.85	83.6088	870.85	79.4396	870.85	83.0059	870.85	76.4756	870.85	79.8581
901.611	91.2855	901.611	91.4118	901.611	90.9849	901.611	91.2976	901.611	90.6438	901.611	90.8866	901.611	90.3899	901.611	90.0673	901.611	90.1615	901.611	88.6748	901.611	89.703	901.611	86.5562	901.611	88.7557	901.611	83.7487	901.611	87.1748	901.611	81.1313	901.611	85.0233	901.611	80.561	901.611	82.9208	901.611	81.3201	901.611	81.8389	901.611	81.5117	901.611	81.045	901.611	80.5671	901.611	78.8035	901.611	78.8947	901.611	75.2479	901.611	78.4627	901.611	76.2241	901.611	79.9492	901.611	78.0671	901.611	81.0037	901.611	77.0731	901.611	80.3814	901.611	75.1486	901.611	77.7083
933.105	91.1732	933.105	91.5427	933.105	90.5141	933.105	91.3241	933.105	89.9569	933.105	90.4418	933.105	89.607	933.105	88.9991	933.105	89.1958	933.105	87.1803	933.105	88.4133	933.105	85.1057	933.105	87.074	933.105	82.803	933.105	85.1794	933.105	80.5276	933.105	83.2991	933.105	79.2082	933.105	82.5911	933.105	79.3376	933.105	82.489	933.105	79.7449	933.105	80.9795	933.105	79.3948	933.105	76.2045	933.105	78.2364	933.105	71.651	933.105	77.6979	933.105	76.7742	933.105	79.0408	933.105	77.6754	933.105	80.4133	933.105	75.2266	933.105	80.3898	933.105	74.9136	933.105	78.4631
966.064	89.9342	966.064	90.3943	966.064	89.2607	966.064	90.1883	966.064	88.9323	966.064	89.1958	966.064	88.9606	966.064	87.5528	966.064	88.885	966.064	85.55	966.064	88.359	966.064	83.4233	966.064	87.222	966.064	81.1848	966.064	85.4031	966.064	78.9045	966.064	83.069	966.064	77.3326	966.064	81.0824	966.064	77.2976	966.064	80.1568	966.064	77.8538	966.064	78.9822	966.064	77.7188	966.064	76.4915	966.064	76.6708	966.064	75.1078	966.064	76.1892	966.064	76.1053	966.064	77.4943	966.064	75.7517	966.064	78.5181	966.064	74.0909	966.064	78.0526	966.064	74.1482	966.064	76.2435
999.756	88.5344	999.756	89.2068	999.756	87.8279	999.756	89.2493	999.756	87.6197	999.756	88.4547	999.756	87.6658	999.756	86.9141	999.756	87.4457	999.756	84.8803	999.756	86.7208	999.756	82.5878	999.756	85.4038	999.756	80.0898	999.756	83.4264	999.756	77.4764	999.756	81.0283	999.756	75.676	999.756	79.5315	999.756	75.8176	999.756	79.4525	999.756	76.49	999.756	78.3689	999.756	76.0962	999.756	73.6864	999.756	74.6625	999.756	68.164	999.756	74.9268	999.756	74.9385	999.756	77.3945	999.756	76.4245	999.756	78.978	999.756	74.6542	999.756	78.8628	999.756	74.0935	999.756	76.9635
1,034.91	88.3709	1,034.91	89.0519	1,034.91	87.9694	1,034.91	89.2918	1,034.91	88.1378	1,034.91	88.7181	1,034.91	88.3865	1,034.91	87.3923	1,034.91	88.2472	1,034.91	85.672	1,034.91	87.564	1,034.91	83.89	1,034.91	86.2899	1,034.91	81.9543	1,034.91	84.3649	1,034.91	79.4121	1,034.91	81.9314	1,034.91	75.8725	1,034.91	80.0614	1,034.91	72.4602	1,034.91	79.6065	1,034.91	72.6185	1,034.91	78.7848	1,034.91	73.6871	1,034.91	76.3445	1,034.91	73.728	1,034.91	74.2802	1,034.91	74.5747	1,034.91	74.9745	1,034.91	76.8158	1,034.91	75.6927	1,034.91	78.1396	1,034.91	75.8071	1,034.91	77.6426	1,034.91	75.4548	1,034.91	76.0113
1,071.53	89.7162	1,071.53	90.0786	1,071.53	89.8395	1,071.53	90.2348	1,071.53	90.3531	1,071.53	89.6126	1,071.53	90.6525	1,071.53	88.0853	1,071.53	90.4532	1,071.53	85.9278	1,071.53	89.7206	1,071.53	83.7956	1,071.53	88.3333	1,071.53	82.3226	1,071.53	85.965	1,071.53	81.5001	1,071.53	82.3563	1,071.53	80.9847	1,071.53	79.6596	1,071.53	80.5523	1,071.53	80.8	1,071.53	79.8458	1,071.53	80.7175	1,071.53	78.0837	1,071.53	76.4364	1,071.53	73.98	1,071.53	66.3829	1,071.53	69.5637	1,071.53	74.7411	1,071.53	75.2031	1,071.53	76.4093	1,071.53	78.6423	1,071.53	75.6308	1,071.53	79.5712	1,071.53	76.7215	1,071.53	78.7196
1,109.62	90.4196	1,109.62	90.8434	1,109.62	90.3906	1,109.62	91.0791	1,109.62	90.7802	1,109.62	90.6357	1,109.62	91.1405	1,109.62	89.3575	1,109.62	91.1306	1,109.62	87.3534	1,109.62	90.5852	1,109.62	84.9094	1,109.62	89.3914	1,109.62	82.3673	1,109.62	87.4166	1,109.62	80.1066	1,109.62	84.461	1,109.62	78.8739	1,109.62	80.6802	1,109.62	79.1374	1,109.62	78.5368	1,109.62	79.7945	1,109.62	78.6419	1,109.62	79.6592	1,109.62	77.612	1,109.62	78.4207	1,109.62	75.8049	1,109.62	77.4828	1,109.62	75.3746	1,109.62	79.1261	1,109.62	74.6686	1,109.62	80.9052	1,109.62	72.2118	1,109.62	80.7537	1,109.62	73.0607	1,109.62	78.0719
1,148.44	89.5348	1,148.44	89.847	1,148.44	89.7756	1,148.44	90.2738	1,148.44	90.2631	1,148.44	90.1069	1,148.44	90.5203	1,148.44	89.0207	1,148.44	90.268	1,148.44	87.0943	1,148.44	89.3807	1,148.44	84.6539	1,148.44	87.7924	1,148.44	82.0943	1,148.44	85.3813	1,148.44	79.9305	1,148.44	81.8733	1,148.44	79.2059	1,148.44	77.8308	1,148.44	80.1688	1,148.44	77.5253	1,148.44	81.2656	1,148.44	78.3748	1,148.44	81.2603	1,148.44	76.0161	1,148.44	79.4378	1,148.44	67.907	1,148.44	75.9659	1,148.44	71.9246	1,148.44	76.8962	1,148.44	75.9975	1,148.44	79.9167	1,148.44	74.5353	1,148.44	80.0325	1,148.44	68.5093	1,148.44	76.1938
1,189.45	90.0038	1,189.45	89.5784	1,189.45	90.2638	1,189.45	89.1501	1,189.45	90.2678	1,189.45	88.5028	1,189.45	89.9798	1,189.45	87.202	1,189.45	89.2157	1,189.45	85.1485	1,189.45	87.8087	1,189.45	82.6457	1,189.45	85.8102	1,189.45	80.0368	1,189.45	83.3977	1,189.45	77.3135	1,189.45	80.5458	1,189.45	74.9974	1,189.45	77.1695	1,189.45	76.0938	1,189.45	74.1698	1,189.45	78.9316	1,189.45	72.6859	1,189.45	80.4421	1,189.45	72.0402	1,189.45	80.1393	1,189.45	69.5249	1,189.45	78.1926	1,189.45	61.8782	1,189.45	76.4129	1,189.45	71.2113	1,189.45	76.9301	1,189.45	72.9537	1,189.45	76.2589	1,189.45	65.0314	1,189.45	70.288
1,231.2	89.6525	1,231.2	89.9935	1,231.2	88.7547	1,231.2	89.5878	1,231.2	87.974	1,231.2	88.4272	1,231.2	87.5474	1,231.2	86.4011	1,231.2	86.814	1,231.2	83.6404	1,231.2	85.3978	1,231.2	80.9472	1,231.2	83.5849	1,231.2	79.2302	1,231.2	81.8112	1,231.2	77.9616	1,231.2	80.0292	1,231.2	75.3972	1,231.2	78.346	1,231.2	71.4559	1,231.2	76.9409	1,231.2	75.126	1,231.2	74.4749	1,231.2	79.2211	1,231.2	71.9767	1,231.2	80.8231	1,231.2	71.2944	1,231.2	80.6666	1,231.2	60.3579	1,231.2	79.4398	1,231.2	70.6529	1,231.2	77.613	1,231.2	75.429	1,231.2	73.9056	1,231.2	72.4256	1,231.2	60.9727
1,274.41	88.1512	1,274.41	89.3066	1,274.41	86.9789	1,274.41	89.8648	1,274.41	86.9876	1,274.41	89.7637	1,274.41	87.5863	1,274.41	88.8608	1,274.41	87.5593	1,274.41	87.125	1,274.41	86.8185	1,274.41	84.7704	1,274.41	85.8691	1,274.41	82.4206	1,274.41	84.8229	1,274.41	81.2455	1,274.41	83.0492	1,274.41	80.8145	1,274.41	80.5877	1,274.41	79.586	1,274.41	79.4567	1,274.41	77.8304	1,274.41	78.5361	1,274.41	78.2755	1,274.41	74.7648	1,274.41	80.4965	1,274.41	69.555	1,274.41	82.1171	1,274.41	60.4245	1,274.41	82.5272	1,274.41	70.1743	1,274.41	81.264	1,274.41	76.6041	1,274.41	76.9048	1,274.41	75.5612	1,274.41	68.1481
1,319.82	87.1181	1,319.82	88.6062	1,319.82	86.6543	1,319.82	89.4539	1,319.82	87.9036	1,319.82	89.5113	1,319.82	88.8379	1,319.82	89.0464	1,319.82	88.6731	1,319.82	88.2298	1,319.82	87.8842	1,319.82	87.0577	1,319.82	87.1394	1,319.82	85.199	1,319.82	86.069	1,319.82	82.1	1,319.82	83.9785	1,319.82	77.9878	1,319.82	82.3525	1,319.82	77.1338	1,319.82	82.7836	1,319.82	79.0656	1,319.82	81.348	1,319.82	80.1149	1,319.82	76.1175	1,319.82	80.8698	1,319.82	77.1331	1,319.82	82.1715	1,319.82	76.4359	1,319.82	83.1666	1,319.82	41.067	1,319.82	82.4069	1,319.82	76.6152	1,319.82	78.1539	1,319.82	77.6983	1,319.82	71.6485
1,365.97	85.9447	1,365.97	86.9629	1,365.97	87.1565	1,365.97	88.3734	1,365.97	88.664	1,365.97	88.8399	1,365.97	89.1192	1,365.97	88.5574	1,365.97	88.6874	1,365.97	88.0286	1,365.97	88.0779	1,365.97	87.504	1,365.97	87.7232	1,365.97	86.7428	1,365.97	86.9811	1,365.97	85.2268	1,365.97	84.9907	1,365.97	82.5199	1,365.97	82.0399	1,365.97	78.7633	1,365.97	80.917	1,365.97	75.9382	1,365.97	80.5519	1,365.97	75.5378	1,365.97	78.423	1,365.97	76.736	1,365.97	75.8683	1,365.97	79.2145	1,365.97	70.9329	1,365.97	80.9201	1,365.97	71.5311	1,365.97	80.5258	1,365.97	76.8085	1,365.97	77.3431	1,365.97	76.0511	1,365.97	73.0748
1,414.31	87.304	1,414.31	87.1605	1,414.31	88.9344	1,414.31	88.2042	1,414.31	90.222	1,414.31	88.7078	1,414.31	90.5002	1,414.31	88.3233	1,414.31	90.0747	1,414.31	87.4763	1,414.31	89.5722	1,414.31	86.6965	1,414.31	89.0511	1,414.31	86.1038	1,414.31	87.8265	1,414.31	85.3613	1,414.31	85.2215	1,414.31	84.1326	1,414.31	81.7793	1,414.31	82.2744	1,414.31	81.1025	1,414.31	79.4304	1,414.31	80.2783	1,414.31	74.228	1,414.31	75.0854	1,414.31	70.4688	1,414.31	73.3093	1,414.31	77.5864	1,414.31	72.4681	1,414.31	80.7365	1,414.31	67.4686	1,414.31	80.7113	1,414.31	75.963	1,414.31	77.9077	1,414.31	76.2733	1,414.31	74.3263
1,464.11	88.0536	1,464.11	87.5081	1,464.11	89.3368	1,464.11	88.3761	1,464.11	90.0259	1,464.11	88.8997	1,464.11	90.0425	1,464.11	88.2902	1,464.11	89.741	1,464.11	86.9462	1,464.11	89.3609	1,464.11	85.7292	1,464.11	88.8187	1,464.11	85.0523	1,464.11	87.743	1,464.11	84.3927	1,464.11	85.4792	1,464.11	83.7345	1,464.11	81.7596	1,464.11	83.6612	1,464.11	79.814	1,464.11	83.5032	1,464.11	78.9355	1,464.11	82.0656	1,464.11	74.4958	1,464.11	78.715	1,464.11	76.3702	1,464.11	74.8929	1,464.11	76.299	1,464.11	77.1726	1,464.11	62.6588	1,464.11	79.0539	1,464.11	72.6097	1,464.11	77.0018	1,464.11	72.9414	1,464.11	69.4571
1,515.38	86.8144	1,515.38	86.5043	1,515.38	88.0521	1,515.38	87.5217	1,515.38	88.7185	1,515.38	88.6204	1,515.38	88.4295	1,515.38	88.8118	1,515.38	87.7971	1,515.38	87.7877	1,515.38	87.4647	1,515.38	85.7817	1,515.38	87.359	1,515.38	83.6785	1,515.38	86.5895	1,515.38	81.9362	1,515.38	84.0945	1,515.38	80.1478	1,515.38	79.2168	1,515.38	79.6369	1,515.38	78.0738	1,515.38	80.772	1,515.38	80.0078	1,515.38	81.3361	1,515.38	79.1403	1,515.38	80.6128	1,515.38	78.7313	1,515.38	79.4134	1,515.38	76.7885	1,515.38	78.8193	1,515.38	63.5926	1,515.38	77.3875	1,515.38	70.2525	1,515.38	72.8648	1,515.38	71.3011	1,515.38	65.5181
1,568.85	83.9247	1,568.85	84.0311	1,568.85	85.1863	1,568.85	85.0183	1,568.85	86.0619	1,568.85	86.8793	1,568.85	85.7112	1,568.85	88.3366	1,568.85	85.3885	1,568.85	88.1636	1,568.85	85.9017	1,568.85	86.0726	1,568.85	86.3296	1,568.85	82.3016	1,568.85	85.8542	1,568.85	78.5205	1,568.85	83.9174	1,568.85	76.9396	1,568.85	79.3289	1,568.85	76.1479	1,568.85	73.2296	1,568.85	75.7676	1,568.85	77.8654	1,568.85	76.632	1,568.85	79.215	1,568.85	78.2967	1,568.85	77.5135	1,568.85	79.787	1,568.85	74.0952	1,568.85	80.0002	1,568.85	67.8543	1,568.85	77.489	1,568.85	53.4867	1,568.85	70.0325	1,568.85	67.5723	1,568.85	67.6048
1,624.51	82.4363	1,624.51	81.4281	1,624.51	83.7933	1,624.51	82.9929	1,624.51	83.3524	1,624.51	84.5295	1,624.51	82.5568	1,624.51	85.9226	1,624.51	83.2594	1,624.51	86.9978	1,624.51	84.2794	1,624.51	86.775	1,624.51	84.5781	1,624.51	84.6294	1,624.51	83.9869	1,624.51	80.1196	1,624.51	82.4188	1,624.51	74.8072	1,624.51	79.2397	1,624.51	76.1586	1,624.51	73.6622	1,624.51	77.57	1,624.51	72.8836	1,624.51	77.0995	1,624.51	75.5899	1,624.51	77.5139	1,624.51	76.3268	1,624.51	79.7362	1,624.51	75.3904	1,624.51	80.5246	1,624.51	71.6382	1,624.51	78.0078	1,624.51	59.1965	1,624.51	69.4841	1,624.51	64.1224	1,624.51	64.2153
1,681.64	85.3764	1,681.64	83.8765	1,681.64	85.2173	1,681.64	84.73	1,681.64	84.1429	1,681.64	86.9484	1,681.64	85.1308	1,681.64	87.6749	1,681.64	86.7126	1,681.64	87.7561	1,681.64	87.3018	1,681.64	87.5832	1,681.64	86.8333	1,681.64	86.059	1,681.64	85.4226	1,681.64	82.1533	1,681.64	83.019	1,681.64	75.7177	1,681.64	78.5039	1,681.64	75.808	1,681.64	72.6766	1,681.64	78.2079	1,681.64	76.1832	1,681.64	77.8935	1,681.64	76.6221	1,681.64	77.7569	1,681.64	77.635	1,681.64	80.1529	1,681.64	78.8918	1,681.64	81.3682	1,681.64	75.0516	1,681.64	79.3089	1,681.64	64.6482	1,681.64	71.0184	1,681.64	72.2407	1,681.64	68.2792
1,740.97	87.802	1,740.97	87.3871	1,740.97	87.4469	1,740.97	86.9349	1,740.97	87.7131	1,740.97	88.243	1,740.97	88.7728	1,740.97	88.8148	1,740.97	89.4128	1,740.97	87.7448	1,740.97	89.0505	1,740.97	86.4548	1,740.97	87.8774	1,740.97	85.2682	1,740.97	86.3332	1,740.97	82.8367	1,740.97	84.3404	1,740.97	78.2098	1,740.97	80.8041	1,740.97	71.7225	1,740.97	73.6294	1,740.97	72.0681	1,740.97	69.4424	1,740.97	72.5891	1,740.97	75.3108	1,740.97	73.5454	1,740.97	78.3653	1,740.97	77.8341	1,740.97	79.1281	1,740.97	80.1199	1,740.97	76.1274	1,740.97	78.5809	1,740.97	63.1942	1,740.97	70.0905	1,740.97	70.3025	1,740.97	68.917
1,802.49	89.5475	1,802.49	88.7653	1,802.49	89.2592	1,802.49	87.2796	1,802.49	89.2127	1,802.49	88.5031	1,802.49	90.0503	1,802.49	90.1524	1,802.49	90.3303	1,802.49	89.6305	1,802.49	89.5934	1,802.49	87.7	1,802.49	88.2287	1,802.49	85.7418	1,802.49	86.4659	1,802.49	83.51	1,802.49	84.3668	1,802.49	80.0248	1,802.49	81.6855	1,802.49	75.5384	1,802.49	78.1099	1,802.49	73.9603	1,802.49	69.291	1,802.49	75.4723	1,802.49	71.4647	1,802.49	77.5094	1,802.49	77.9766	1,802.49	79.5423	1,802.49	76.9526	1,802.49	79.4456	1,802.49	74.3592	1,802.49	74.4605	1,802.49	72.4471	1,802.49	58.6886	1,802.49	69.4021	1,802.49	71.4025
1,866.21	90.3379	1,866.21	90.9125	1,866.21	90.0063	1,866.21	89.4446	1,866.21	90.6389	1,866.21	87.8776	1,866.21	91.3229	1,866.21	89.1058	1,866.21	91.5282	1,866.21	88.7074	1,866.21	90.7785	1,866.21	86.3365	1,866.21	89.2632	1,866.21	83.9316	1,866.21	87.399	1,866.21	81.9493	1,866.21	84.8049	1,866.21	79.5288	1,866.21	81.6054	1,866.21	76.4852	1,866.21	80.0561	1,866.21	73.8579	1,866.21	75.6551	1,866.21	75.1875	1,866.21	69.8966	1,866.21	78.6193	1,866.21	78.5773	1,866.21	80.7581	1,866.21	77.0553	1,866.21	80.1626	1,866.21	72.8602	1,866.21	74.019	1,866.21	74.1115	1,866.21	67.461	1,866.21	73.3084	1,866.21	74.3418
1,932.13	90.271	1,932.13	90.4851	1,932.13	90.9582	1,932.13	90.5598	1,932.13	91.7142	1,932.13	89.0296	1,932.13	92.6774	1,932.13	87.9532	1,932.13	92.8155	1,932.13	87.429	1,932.13	91.9354	1,932.13	85.2665	1,932.13	90.5653	1,932.13	81.5965	1,932.13	88.5985	1,932.13	78.3911	1,932.13	85.3329	1,932.13	76.8788	1,932.13	81.0568	1,932.13	74.7703	1,932.13	79.953	1,932.13	68.5606	1,932.13	76.7183	1,932.13	68.7958	1,932.13	71.0442	1,932.13	76.632	1,932.13	77.8147	1,932.13	80.1924	1,932.13	77.351	1,932.13	79.7704	1,932.13	75.2656	1,932.13	73.3617	1,932.13	72.1143	1,932.13	67.8064	1,932.13	71.0377	1,932.13	72.7932
2,000.24	90.5792	2,000.24	90.0164	2,000.24	91.0687	2,000.24	89.37	2,000.24	92.1436	2,000.24	88.2032	2,000.24	92.6333	2,000.24	86.9992	2,000.24	91.8799	2,000.24	85.5631	2,000.24	90.7587	2,000.24	82.5549	2,000.24	89.1924	2,000.24	78.6824	2,000.24	86.5284	2,000.24	76.0961	2,000.24	83.1499	2,000.24	74.4166	2,000.24	81.98	2,000.24	71.5265	2,000.24	82.3968	2,000.24	67.3916	2,000.24	78.6239	2,000.24	69.2903	2,000.24	69.2616	2,000.24	74.3135	2,000.24	72.7859	2,000.24	77.0244	2,000.24	74.5413	2,000.24	75.8243	2,000.24	76.1421	2,000.24	66.4706	2,000.24	71.7128	2,000.24	67.3451	2,000.24	72.4854	2,000.24	72.723
2,070.56	91.3578	2,070.56	90.9307	2,070.56	91.4588	2,070.56	89.7851	2,070.56	91.8093	2,070.56	88.2895	2,070.56	91.6068	2,070.56	86.5718	2,070.56	90.8599	2,070.56	84.6649	2,070.56	89.7368	2,070.56	81.3527	2,070.56	87.5714	2,070.56	75.8718	2,070.56	83.6742	2,070.56	70.4692	2,070.56	78.1134	2,070.56	68.6607	2,070.56	78.2467	2,070.56	69.561	2,070.56	80.0299	2,070.56	67.5832	2,070.56	76.5963	2,070.56	61.8834	2,070.56	72.9645	2,070.56	71.0317	2,070.56	68.9974	2,070.56	74.8224	2,070.56	69.3159	2,070.56	74.7614	2,070.56	71.5725	2,070.56	67.8498	2,070.56	68.1358	2,070.56	65.6289	2,070.56	70.8587	2,070.56	69.1215
2,143.8	90.5661	2,143.8	90.7887	2,143.8	90.3917	2,143.8	89.8341	2,143.8	90.7456	2,143.8	87.7174	2,143.8	90.7941	2,143.8	85.6477	2,143.8	90.1454	2,143.8	83.1985	2,143.8	88.9242	2,143.8	80.1447	2,143.8	86.1761	2,143.8	77.3716	2,143.8	80.7065	2,143.8	74.8603	2,143.8	73.2831	2,143.8	71.5016	2,143.8	78.1232	2,143.8	69.4124	2,143.8	79.6784	2,143.8	68.6831	2,143.8	72.6478	2,143.8	64.5701	2,143.8	72.9154	2,143.8	67.1667	2,143.8	72.0899	2,143.8	72.2591	2,143.8	60.1363	2,143.8	73.574	2,143.8	65.3127	2,143.8	66.7055	2,143.8	63.4762	2,143.8	63.2417	2,143.8	68.1573	2,143.8	65.0008
2,219.24	89.2375	2,219.24	89.5432	2,219.24	89.4438	2,219.24	89.3152	2,219.24	90.0044	2,219.24	87.3326	2,219.24	90.0477	2,219.24	84.7672	2,219.24	89.4083	2,219.24	82.3947	2,219.24	88.1191	2,219.24	79.2645	2,219.24	84.5347	2,219.24	76.4759	2,219.24	76.0396	2,219.24	74.5616	2,219.24	64.9779	2,219.24	71.8689	2,219.24	78.4024	2,219.24	67.7225	2,219.24	80.8277	2,219.24	64.874	2,219.24	75.1384	2,219.24	63.7495	2,219.24	70.0878	2,219.24	65.0155	2,219.24	72.2167	2,219.24	68.0564	2,219.24	50.8639	2,219.24	69.2876	2,219.24	66.9341	2,219.24	64.6043	2,219.24	59.9868	2,219.24	63.0333	2,219.24	62.6859	2,219.24	56.6224
2,297.61	89.744	2,297.61	88.9501	2,297.61	89.9755	2,297.61	88.3112	2,297.61	90.2876	2,297.61	86.6722	2,297.61	90.3304	2,297.61	83.4213	2,297.61	89.7757	2,297.61	80.1427	2,297.61	88.244	2,297.61	75.9698	2,297.61	83.7438	2,297.61	72.4293	2,297.61	74.3056	2,297.61	72.0033	2,297.61	72.3801	2,297.61	70.6196	2,297.61	77.9767	2,297.61	65.0781	2,297.61	80.8589	2,297.61	58.0278	2,297.61	75.2402	2,297.61	59.6265	2,297.61	71.7854	2,297.61	61.6775	2,297.61	73.2086	2,297.61	59.6718	2,297.61	40.9221	2,297.61	59.5691	2,297.61	65.6324	2,297.61	62.1872	2,297.61	59.8708	2,297.61	62.6748	2,297.61	63.1761	2,297.61	55.2374
2,378.17	90.6374	2,378.17	90.3996	2,378.17	89.9553	2,378.17	88.6677	2,378.17	90.0164	2,378.17	86.7312	2,378.17	90.1594	2,378.17	83.6776	2,378.17	89.3262	2,378.17	78.2603	2,378.17	87.2413	2,378.17	70.7662	2,378.17	82.4725	2,378.17	62.1847	2,378.17	75.709	2,378.17	64.1961	2,378.17	74.861	2,378.17	64.693	2,378.17	79.8899	2,378.17	58.8154	2,378.17	82.2435	2,378.17	56.5048	2,378.17	76.2532	2,378.17	53.6957	2,378.17	70.8668	2,378.17	53.8795	2,378.17	72.7514	2,378.17	58.6664	2,378.17	54.4247	2,378.17	58.9829	2,378.17	65.3297	2,378.17	58.8771	2,378.17	64.1558	2,378.17	63.1234	2,378.17	64.8655	2,378.17	53.0072
2,462.4	90.4992	2,462.4	91.2978	2,462.4	90.0756	2,462.4	90.3441	2,462.4	90.3785	2,462.4	87.4093	2,462.4	90.402	2,462.4	84.8472	2,462.4	89.2896	2,462.4	79.9629	2,462.4	87.949	2,462.4	69.6932	2,462.4	83.6398	2,462.4	70.4829	2,462.4	74.4061	2,462.4	70.1287	2,462.4	78.4916	2,462.4	66.0208	2,462.4	82.8342	2,462.4	65.5831	2,462.4	83.3528	2,462.4	64.5384	2,462.4	76.2569	2,462.4	64.3935	2,462.4	74.437	2,462.4	69.0396	2,462.4	76.7315	2,462.4	70.6197	2,462.4	64.7065	2,462.4	68.9278	2,462.4	70.1004	2,462.4	65.2545	2,462.4	69.3774	2,462.4	69.8853	2,462.4	67.1079	2,462.4	58.4057
2,548.83	91.291	2,548.83	91.4068	2,548.83	91.0321	2,548.83	91.3292	2,548.83	90.7804	2,548.83	89.1281	2,548.83	90.4977	2,548.83	86.449	2,548.83	90.2379	2,548.83	83.5678	2,548.83	89.2222	2,548.83	78.7063	2,548.83	82.8839	2,548.83	78.0256	2,548.83	76.7228	2,548.83	77.0618	2,548.83	84.7809	2,548.83	73.5392	2,548.83	85.7416	2,548.83	70.5414	2,548.83	85.154	2,548.83	69.1358	2,548.83	78.3745	2,548.83	66.8969	2,548.83	75.4306	2,548.83	74.728	2,548.83	79.7729	2,548.83	75.2478	2,548.83	67.4784	2,548.83	72.3813	2,548.83	72.61	2,548.83	69.4623	2,548.83	69.9361	2,548.83	73.3836	2,548.83	69.521	2,548.83	63.1635
2,638.92	92.1411	2,638.92	92.1383	2,638.92	91.5014	2,638.92	91.1744	2,638.92	90.8563	2,638.92	89.3447	2,638.92	91.3478	2,638.92	87.5603	2,638.92	91.5698	2,638.92	84.8413	2,638.92	89.8641	2,638.92	81.2771	2,638.92	81.8312	2,638.92	81.2739	2,638.92	83.5125	2,638.92	80.6634	2,638.92	87.5512	2,638.92	77.6646	2,638.92	86.7502	2,638.92	72.7738	2,638.92	87.1948	2,638.92	69.7381	2,638.92	81.9554	2,638.92	67.8866	2,638.92	76.7762	2,638.92	75.5236	2,638.92	81.0287	2,638.92	75.2052	2,638.92	64.2155	2,638.92	70.2716	2,638.92	75.6202	2,638.92	68.9183	2,638.92	72.9149	2,638.92	74.3465	2,638.92	72.2923	2,638.92	67.9087
2,731.93	91.834	2,731.93	91.9601	2,731.93	91.0521	2,731.93	91.1276	2,731.93	90.0495	2,731.93	88.7496	2,731.93	91.174	2,731.93	88.2102	2,731.93	91.2829	2,731.93	86.2038	2,731.93	89.4597	2,731.93	82.0146	2,731.93	81.4525	2,731.93	80.5132	2,731.93	84.5523	2,731.93	80.0474	2,731.93	87.6793	2,731.93	77.3371	2,731.93	86.783	2,731.93	71.579	2,731.93	88.064	2,731.93	63.3962	2,731.93	82.9048	2,731.93	66.5235	2,731.93	78.3838	2,731.93	74.4914	2,731.93	82.0094	2,731.93	74.3545	2,731.93	67.6005	2,731.93	67.7626	2,731.93	75.0787	2,731.93	63.6691	2,731.93	72.6717	2,731.93	71.6617	2,731.93	71.754	2,731.93	68.1191
2,828.61	89.6769	2,828.61	89.3215	2,828.61	88.3554	2,828.61	88.4446	2,828.61	87.0363	2,828.61	86.0464	2,828.61	89.0233	2,828.61	86.0969	2,828.61	89.4997	2,828.61	85.231	2,828.61	87.7452	2,828.61	81.0181	2,828.61	80.6346	2,828.61	77.4152	2,828.61	84.1268	2,828.61	76.4881	2,828.61	86.5247	2,828.61	73.623	2,828.61	85.2873	2,828.61	67.4026	2,828.61	87.2639	2,828.61	58.1293	2,828.61	82.3257	2,828.61	66.1808	2,828.61	77.8523	2,828.61	72.7444	2,828.61	80.4783	2,828.61	71.5944	2,828.61	63.3299	2,828.61	61.49	2,828.61	74.3586	2,828.61	63.2707	2,828.61	72.0995	2,828.61	67.9942	2,828.61	70.1593	2,828.61	66.488
2,928.22	87.4008	2,928.22	87.2771	2,928.22	85.0897	2,928.22	84.8591	2,928.22	84.5851	2,928.22	82.2592	2,928.22	87.4005	2,928.22	83.251	2,928.22	87.6872	2,928.22	82.0178	2,928.22	86.5467	2,928.22	76.4258	2,928.22	81.3632	2,928.22	66.7705	2,928.22	81.0532	2,928.22	68.9941	2,928.22	83.35	2,928.22	68.9765	2,928.22	82.7964	2,928.22	63.3686	2,928.22	85.3061	2,928.22	61.4442	2,928.22	80.016	2,928.22	59.0659	2,928.22	77.235	2,928.22	67.939	2,928.22	78.1624	2,928.22	67.4073	2,928.22	66.5808	2,928.22	48.9619	2,928.22	70.5625	2,928.22	58.968	2,928.22	69.8411	2,928.22	66.1734	2,928.22	68.0053	2,928.22	62.9594
3,031.49	86.7121	3,031.49	87.7109	3,031.49	84.9195	3,031.49	85.516	3,031.49	85.2455	3,031.49	81.0329	3,031.49	87.6935	3,031.49	82.5817	3,031.49	88.6484	3,031.49	80.8598	3,031.49	88.077	3,031.49	69.906	3,031.49	82.8134	3,031.49	66.0426	3,031.49	78.1984	3,031.49	69.0133	3,031.49	82.6444	3,031.49	67.219	3,031.49	81.4374	3,031.49	55.3663	3,031.49	84.2381	3,031.49	61.699	3,031.49	77.8847	3,031.49	43.1451	3,031.49	77.6598	3,031.49	66.4277	3,031.49	78.0801	3,031.49	63.7574	3,031.49	69.4961	3,031.49	46.7913	3,031.49	68.9854	3,031.49	64.9304	3,031.49	71.8705	3,031.49	66.2428	3,031.49	66.7562	3,031.49	68.1392
3,138.43	91.4401	3,138.43	91.84	3,138.43	90.0134	3,138.43	89.9228	3,138.43	89.3176	3,138.43	86.1739	3,138.43	92.4437	3,138.43	87.4213	3,138.43	93.3356	3,138.43	85.836	3,138.43	92.7999	3,138.43	73.9046	3,138.43	88.0448	3,138.43	75.925	3,138.43	80.3539	3,138.43	77.3327	3,138.43	86.3183	3,138.43	75.829	3,138.43	85.6279	3,138.43	70.4467	3,138.43	89.6033	3,138.43	59.2107	3,138.43	83.1716	3,138.43	61.8939	3,138.43	82.6357	3,138.43	74.8834	3,138.43	83.615	3,138.43	72.8261	3,138.43	74.9698	3,138.43	63.6401	3,138.43	75.6897	3,138.43	65.3364	3,138.43	78.0227	3,138.43	71.115	3,138.43	72.9554	3,138.43	71.5563
3,249.02	91.9717	3,249.02	91.705	3,249.02	90.2637	3,249.02	88.6963	3,249.02	88.6151	3,249.02	86.3187	3,249.02	92.7126	3,249.02	87.6623	3,249.02	94.0154	3,249.02	85.8092	3,249.02	94.1188	3,249.02	72.5743	3,249.02	90.1153	3,249.02	76.2015	3,249.02	77.8457	3,249.02	77.3095	3,249.02	86.2538	3,249.02	77.6043	3,249.02	85.1682	3,249.02	74.1654	3,249.02	90.6407	3,249.02	64.507	3,249.02	84.704	3,249.02	65.1837	3,249.02	83.1954	3,249.02	75.4933	3,249.02	84.1064	3,249.02	73.1079	3,249.02	76.7474	3,249.02	68.617	3,249.02	76.5567	3,249.02	68.4127	3,249.02	78.4607	3,249.02	73.1795	3,249.02	72.8999	3,249.02	72.3844
3,363.28	90.1593	3,363.28	89.5404	3,363.28	87.0938	3,363.28	85.2953	3,363.28	84.5446	3,363.28	84.0476	3,363.28	89.9055	3,363.28	86.4008	3,363.28	91.4432	3,363.28	83.9411	3,363.28	91.9564	3,363.28	71.2429	3,363.28	88.5332	3,363.28	76.7544	3,363.28	66.9571	3,363.28	77.0891	3,363.28	83.3286	3,363.28	76.5543	3,363.28	84.0972	3,363.28	73.8428	3,363.28	88.8279	3,363.28	64.706	3,363.28	83.1805	3,363.28	65.9996	3,363.28	81.2017	3,363.28	72.9644	3,363.28	81.5298	3,363.28	73.0205	3,363.28	75.6133	3,363.28	66.7031	3,363.28	71.9473	3,363.28	67.9798	3,363.28	76.0928	3,363.28	70.1786	3,363.28	70.1378	3,363.28	71.4591
3,481.93	88.8667	3,481.93	88.2082	3,481.93	84.0327	3,481.93	81.8876	3,481.93	83.2154	3,481.93	80.718	3,481.93	89.3552	3,481.93	84.8762	3,481.93	90.8374	3,481.93	82.1932	3,481.93	91.7792	3,481.93	66.2159	3,481.93	89.0132	3,481.93	75.262	3,481.93	70.3362	3,481.93	73.2659	3,481.93	84.8293	3,481.93	74.1815	3,481.93	82.775	3,481.93	73.6703	3,481.93	86.3538	3,481.93	66.6283	3,481.93	80.7098	3,481.93	62.7588	3,481.93	81.6223	3,481.93	70.8593	3,481.93	80.8613	3,481.93	71.4751	3,481.93	75.456	3,481.93	69.7275	3,481.93	70.5212	3,481.93	68.5761	3,481.93	76.8257	3,481.93	69.7632	3,481.93	69.6229	3,481.93	71.6734
3,604.98	90.1952	3,604.98	90.0025	3,604.98	85.0151	3,604.98	83.0082	3,604.98	84.7296	3,604.98	81.7692	3,604.98	90.4986	3,604.98	84.8262	3,604.98	92.4075	3,604.98	81.7418	3,604.98	94.129	3,604.98	75.1567	3,604.98	91.7717	3,604.98	79.361	3,604.98	74.7273	3,604.98	74.9478	3,604.98	86.9656	3,604.98	75.6941	3,604.98	84.3263	3,604.98	76.0887	3,604.98	86.1918	3,604.98	71.784	3,604.98	80.1662	3,604.98	68.6049	3,604.98	83.1111	3,604.98	73.2215	3,604.98	82.088	3,604.98	73.4573	3,604.98	77.1172	3,604.98	73.4687	3,604.98	72.3375	3,604.98	71.696	3,604.98	78.3128	3,604.98	72.4371	3,604.98	70.9972	3,604.98	73.1947
3,732.42	89.7145	3,732.42	88.3982	3,732.42	85.2712	3,732.42	78.3409	3,732.42	81.4952	3,732.42	81.8712	3,732.42	89.4716	3,732.42	83.8818	3,732.42	92.5308	3,732.42	79.2277	3,732.42	94.7172	3,732.42	79.5381	3,732.42	92.6594	3,732.42	79.9914	3,732.42	79.5053	3,732.42	72.1238	3,732.42	87.9559	3,732.42	75.998	3,732.42	85.9918	3,732.42	75.8175	3,732.42	84.8792	3,732.42	73.535	3,732.42	79.1685	3,732.42	69.7859	3,732.42	82.3626	3,732.42	71.6072	3,732.42	81.1098	3,732.42	72.7078	3,732.42	76.5513	3,732.42	73.9781	3,732.42	71.416	3,732.42	72.7926	3,732.42	78.5551	3,732.42	72.799	3,732.42	70.8881	3,732.42	73.5289
3,863.53	88.7757	3,863.53	87.7622	3,863.53	82.77	3,863.53	77.4311	3,863.53	76.7774	3,863.53	78.073	3,863.53	87.1362	3,863.53	83.3718	3,863.53	90.2039	3,863.53	83.1839	3,863.53	91.7789	3,863.53	81.6619	3,863.53	90.0071	3,863.53	78.1318	3,863.53	79.0669	3,863.53	68.7555	3,863.53	83.2156	3,863.53	71.9283	3,863.53	82.7291	3,863.53	70.2608	3,863.53	78.2741	3,863.53	69.331	3,863.53	72.7831	3,863.53	64.87	3,863.53	75.474	3,863.53	70.2428	3,863.53	74.3299	3,863.53	69.4933	3,863.53	70.8392	3,863.53	70.7804	3,863.53	68.6944	3,863.53	68.6871	3,863.53	72.9368	3,863.53	69.4178	3,863.53	66.6156	3,863.53	67.5996
3,999.76	90.1316	3,999.76	89.63	3,999.76	82.9227	3,999.76	80.2326	3,999.76	78.3428	3,999.76	81.8594	3,999.76	87.4571	3,999.76	87.0161	3,999.76	89.0459	3,999.76	86.2245	3,999.76	90.5993	3,999.76	81.0538	3,999.76	89.3722	3,999.76	76.3079	3,999.76	75.0434	3,999.76	67.3665	3,999.76	83.6374	3,999.76	70.7729	3,999.76	81.8895	3,999.76	71.9416	3,999.76	79.0178	3,999.76	69.5504	3,999.76	74.0368	3,999.76	68.1808	3,999.76	78.9952	3,999.76	68.2276	3,999.76	78.8491	3,999.76	70.0933	3,999.76	73.8586	3,999.76	72.4521	3,999.76	71.3304	3,999.76	71.7613	3,999.76	75.0085	3,999.76	72.9601	3,999.76	70.7192	3,999.76	71.3937
4,141.11	90.2977	4,141.11	88.7138	4,141.11	84.9758	4,141.11	61.3403	4,141.11	77.322	4,141.11	86.2579	4,141.11	87.2321	4,141.11	88.0258	4,141.11	89.4537	4,141.11	84.345	4,141.11	92.925	4,141.11	76.1185	4,141.11	91.9325	4,141.11	71.0483	4,141.11	72.6378	4,141.11	68.5432	4,141.11	87.9004	4,141.11	74.9723	4,141.11	86.5562	4,141.11	73.7088	4,141.11	86.5453	4,141.11	73.4476	4,141.11	80.4213	4,141.11	72.886	4,141.11	81.6016	4,141.11	72.7535	4,141.11	81.4816	4,141.11	72.3155	4,141.11	77.4323	4,141.11	74.1286	4,141.11	74.1125	4,141.11	73.7502	4,141.11	77.9441	4,141.11	75.392	4,141.11	74.6183	4,141.11	73.6122
4,286.87	90.6369	4,286.87	88.8954	4,286.87	85.9736	4,286.87	78.3364	4,286.87	80.2288	4,286.87	84.0715	4,286.87	86.014	4,286.87	87.33	4,286.87	89.3157	4,286.87	85.3327	4,286.87	92.1115	4,286.87	79.5006	4,286.87	90.2229	4,286.87	62.0243	4,286.87	68.1889	4,286.87	74.822	4,286.87	86.0502	4,286.87	77.3162	4,286.87	86.4646	4,286.87	71.9815	4,286.87	86.6532	4,286.87	71.0773	4,286.87	79.9901	4,286.87	71.6258	4,286.87	77.3145	4,286.87	71.5685	4,286.87	78.507	4,286.87	71.1695	4,286.87	75.8966	4,286.87	69.7509	4,286.87	70.9996	4,286.87	70.5418	4,286.87	74.732	4,286.87	73.3097	4,286.87	72.1762	4,286.87	70.6524
4,438.48	90.4469	4,438.48	89.249	4,438.48	85.9973	4,438.48	79.4266	4,438.48	82.3946	4,438.48	84.3614	4,438.48	85.7426	4,438.48	88.692	4,438.48	86.9454	4,438.48	86.1451	4,438.48	87.886	4,438.48	71.9394	4,438.48	85.6492	4,438.48	76.4499	4,438.48	64.6793	4,438.48	75.9901	4,438.48	82.7429	4,438.48	73.8571	4,438.48	83.5104	4,438.48	70.4069	4,438.48	82.8684	4,438.48	67.2533	4,438.48	78.0406	4,438.48	67.9707	4,438.48	75.7628	4,438.48	68.7418	4,438.48	77.3294	4,438.48	71.3262	4,438.48	71.3927	4,438.48	66.1003	4,438.48	66.1411	4,438.48	64.6839	4,438.48	71.3444	4,438.48	66.2545	4,438.48	68.3523	4,438.48	66.6385
4,594.48	91.0992	4,594.48	89.8385	4,594.48	86.1111	4,594.48	78.214	4,594.48	82.1707	4,594.48	84.7881	4,594.48	85.3151	4,594.48	89.0453	4,594.48	84.4421	4,594.48	86.1256	4,594.48	85.761	4,594.48	74.605	4,594.48	85.7475	4,594.48	78.2141	4,594.48	63.3432	4,594.48	71.2615	4,594.48	84.8251	4,594.48	73.5693	4,594.48	85.8175	4,594.48	74.3321	4,594.48	84.3909	4,594.48	60.8748	4,594.48	77.5773	4,594.48	60.9107	4,594.48	80.6922	4,594.48	68.7817	4,594.48	80.0515	4,594.48	70.529	4,594.48	74.7678	4,594.48	70.7967	4,594.48	69.8773	4,594.48	69.6777	4,594.48	74.1023	4,594.48	69.9966	4,594.48	70.0373	4,594.48	70.2466
4,757.08	91.9933	4,757.08	89.5043	4,757.08	88.2613	4,757.08	74.6369	4,757.08	82.1209	4,757.08	87.7065	4,757.08	82.2973	4,757.08	90.1785	4,757.08	79.4388	4,757.08	85.2288	4,757.08	86.7374	4,757.08	70.8646	4,757.08	88.2917	4,757.08	79.1817	4,757.08	72.444	4,757.08	67.9542	4,757.08	85.2158	4,757.08	75.2813	4,757.08	84.9866	4,757.08	74.6064	4,757.08	83.0681	4,757.08	53.4499	4,757.08	74.4624	4,757.08	65.3316	4,757.08	81.1597	4,757.08	72.3579	4,757.08	80.6867	4,757.08	71.9394	4,757.08	76.849	4,757.08	70.4681	4,757.08	69.4098	4,757.08	69.8019	4,757.08	75.7538	4,757.08	69.9424	4,757.08	70.7301	4,757.08	71.3475
4,924.8	91.2473	4,924.8	87.4981	4,924.8	89.5178	4,924.8	82.6246	4,924.8	86.3385	4,924.8	88.066	4,924.8	83.4016	4,924.8	87.734	4,924.8	81.0121	4,924.8	78.8522	4,924.8	87.5647	4,924.8	79.9807	4,924.8	88.2712	4,924.8	80.7577	4,924.8	76.5581	4,924.8	69.0958	4,924.8	81.4886	4,924.8	75.9534	4,924.8	81.3869	4,924.8	74.2027	4,924.8	80.0216	4,924.8	59.7789	4,924.8	70.7578	4,924.8	61.6328	4,924.8	78.4738	4,924.8	70.913	4,924.8	77.0129	4,924.8	70.0288	4,924.8	76.0495	4,924.8	70.7105	4,924.8	65.6254	4,924.8	64.576	4,924.8	74.0276	4,924.8	68.2515	4,924.8	67.6255	4,924.8	69.4599
5,098.39	90.3118	5,098.39	87.1962	5,098.39	89.1487	5,098.39	83.6692	5,098.39	86.481	5,098.39	86.7171	5,098.39	83.7291	5,098.39	85.8492	5,098.39	77.1886	5,098.39	78.1454	5,098.39	80.3652	5,098.39	79.9921	5,098.39	83.0441	5,098.39	78.6104	5,098.39	74.2661	5,098.39	62.6218	5,098.39	74.2074	5,098.39	73.5373	5,098.39	75.0157	5,098.39	70.7425	5,098.39	72.9787	5,098.39	53.3482	5,098.39	57.8803	5,098.39	63.0418	5,098.39	74.9729	5,098.39	67.5721	5,098.39	74.1649	5,098.39	66.3456	5,098.39	73.8087	5,098.39	67.1809	5,098.39	63.3639	5,098.39	63.0262	5,098.39	71.4223	5,098.39	63.8393	5,098.39	64.0248	5,098.39	64.7392
5,277.83	89.717	5,277.83	86.3575	5,277.83	88.6257	5,277.83	83.0386	5,277.83	86.0383	5,277.83	86.8046	5,277.83	82.2436	5,277.83	85.6697	5,277.83	73.2096	5,277.83	77.8517	5,277.83	76.6854	5,277.83	76.2556	5,277.83	80.1017	5,277.83	73.8672	5,277.83	69.7111	5,277.83	67.7479	5,277.83	73.7572	5,277.83	73.2784	5,277.83	75.5285	5,277.83	66.1637	5,277.83	76.4058	5,277.83	63.9625	5,277.83	66.5128	5,277.83	64.0182	5,277.83	74.3388	5,277.83	68.3279	5,277.83	72.8097	5,277.83	63.7249	5,277.83	74.1382	5,277.83	62.2881	5,277.83	59.7046	5,277.83	62.0322	5,277.83	71.2246	5,277.83	60.6331	5,277.83	58.267	5,277.83	65.8786
5,463.87	89.8108	5,463.87	85.4913	5,463.87	88.9442	5,463.87	84.6345	5,463.87	85.6382	5,463.87	87.8104	5,463.87	79.8476	5,463.87	85.5327	5,463.87	80.4309	5,463.87	71.7388	5,463.87	80.15	5,463.87	78.6455	5,463.87	77.1833	5,463.87	75.9197	5,463.87	61.7937	5,463.87	74.724	5,463.87	72.5887	5,463.87	75.8421	5,463.87	78.1172	5,463.87	68.9376	5,463.87	80.113	5,463.87	63.4742	5,463.87	73.0617	5,463.87	67.2107	5,463.87	75.3623	5,463.87	69.5247	5,463.87	71.4688	5,463.87	64.4618	5,463.87	74.2982	5,463.87	61.7207	5,463.87	60.3599	5,463.87	60.506	5,463.87	72.1583	5,463.87	56.4	5,463.87	61.8804	5,463.87	65.3475
5,656.49	88.022	5,656.49	83.3057	5,656.49	88.7303	5,656.49	86.328	5,656.49	86.3058	5,656.49	87.5799	5,656.49	76.3071	5,656.49	82.403	5,656.49	83.2642	5,656.49	71.8821	5,656.49	83.0227	5,656.49	80.0487	5,656.49	71.5485	5,656.49	77.1861	5,656.49	71.2172	5,656.49	76.5466	5,656.49	70.2815	5,656.49	73.5378	5,656.49	77.7161	5,656.49	61.6642	5,656.49	81.2956	5,656.49	65.9457	5,656.49	75.3176	5,656.49	65.8813	5,656.49	72.9411	5,656.49	66.416	5,656.49	68.2393	5,656.49	59.6204	5,656.49	72.5126	5,656.49	53.25	5,656.49	60.7817	5,656.49	62.9195	5,656.49	71.9069	5,656.49	57.8337	5,656.49	65.5854	5,656.49	62.6945
5,856.45	86.475	5,856.45	83.4485	5,856.45	87.5163	5,856.45	86.1771	5,856.45	85.2461	5,856.45	86.781	5,856.45	75.716	5,856.45	80.9507	5,856.45	80.4978	5,856.45	74.4739	5,856.45	78.9288	5,856.45	81.8841	5,856.45	74.2232	5,856.45	80.2404	5,856.45	75.9285	5,856.45	75.9553	5,856.45	66.0078	5,856.45	71.486	5,856.45	76.1482	5,856.45	65.6071	5,856.45	79.9199	5,856.45	65.2208	5,856.45	74.2277	5,856.45	65.9352	5,856.45	71.0246	5,856.45	64.289	5,856.45	66.8155	5,856.45	55.8992	5,856.45	70.2246	5,856.45	51.6496	5,856.45	63.2778	5,856.45	58.8611	5,856.45	66.7903	5,856.45	57.276	5,856.45	64.4419	5,856.45	54.7237
6,062.99	86.3484	6,062.99	84.0751	6,062.99	87.1097	6,062.99	86.5902	6,062.99	84.2475	6,062.99	86.0173	6,062.99	76.0092	6,062.99	77.3709	6,062.99	80.9079	6,062.99	79.0512	6,062.99	79.3029	6,062.99	83.2893	6,062.99	79.5978	6,062.99	78.5363	6,062.99	76.1442	6,062.99	68.3889	6,062.99	63.0092	6,062.99	65.3422	6,062.99	67.3377	6,062.99	60.4962	6,062.99	77.5513	6,062.99	62.9184	6,062.99	73.9028	6,062.99	62.7029	6,062.99	71.9646	6,062.99	64.6641	6,062.99	66.9674	6,062.99	57.2123	6,062.99	70.8145	6,062.99	47.59	6,062.99	62.8717	6,062.99	59.108	6,062.99	68.5301	6,062.99	58.7952	6,062.99	64.701	6,062.99	56.3079
6,276.86	86.7424	6,276.86	84.8469	6,276.86	87.3758	6,276.86	86.7355	6,276.86	83.3842	6,276.86	84.7694	6,276.86	76.7083	6,276.86	71.4326	6,276.86	84.5297	6,276.86	81.6002	6,276.86	83.6428	6,276.86	83.3902	6,276.86	83.4383	6,276.86	76.0638	6,276.86	79.4714	6,276.86	67.1021	6,276.86	70.6529	6,276.86	56.2304	6,276.86	68.3364	6,276.86	58.3571	6,276.86	77.6091	6,276.86	63.5511	6,276.86	76.4626	6,276.86	63.7378	6,276.86	73.8436	6,276.86	66.2979	6,276.86	69.7989	6,276.86	53.9685	6,276.86	72.659	6,276.86	63.0031	6,276.86	63.7355	6,276.86	62.5123	6,276.86	71.2593	6,276.86	63.9972	6,276.86	65.8477	6,276.86	61.34
6,498.05	85.3711	6,498.05	84.6236	6,498.05	86.4277	6,498.05	86.6076	6,498.05	82.1849	6,498.05	83.2209	6,498.05	74.6346	6,498.05	73.6099	6,498.05	84.4056	6,498.05	81.612	6,498.05	83.2779	6,498.05	80.8621	6,498.05	85.984	6,498.05	68.8051	6,498.05	83.1685	6,498.05	69.6564	6,498.05	72.2158	6,498.05	54.0868	6,498.05	73.6729	6,498.05	63.9402	6,498.05	79.4372	6,498.05	63.9211	6,498.05	79.0091	6,498.05	61.8306	6,498.05	74.7328	6,498.05	66.5452	6,498.05	72.3919	6,498.05	49.7966	6,498.05	73.6496	6,498.05	66.8907	6,498.05	66.5706	6,498.05	65.1424	6,498.05	71.9462	6,498.05	66.1401	6,498.05	65.0385	6,498.05	63.6087
6,727.29	85.6504	6,727.29	85.4789	6,727.29	86.6217	6,727.29	86.4825	6,727.29	83.0812	6,727.29	81.4589	6,727.29	66.7982	6,727.29	78.2788	6,727.29	81.2915	6,727.29	81.7195	6,727.29	82.8253	6,727.29	78.3927	6,727.29	87.1063	6,727.29	68.9306	6,727.29	83.5637	6,727.29	73.5638	6,727.29	74.7245	6,727.29	57.4965	6,727.29	76.8208	6,727.29	67.8589	6,727.29	80.8661	6,727.29	67.057	6,727.29	79.6174	6,727.29	63.657	6,727.29	75.5233	6,727.29	67.4421	6,727.29	74.7666	6,727.29	54.0551	6,727.29	73.6083	6,727.29	68.2314	6,727.29	66.7526	6,727.29	67.2355	6,727.29	73.1282	6,727.29	68.0732	6,727.29	66.1473	6,727.29	66.2997
6,964.6	86.0693	6,964.6	86.1986	6,964.6	86.3605	6,964.6	86.1291	6,964.6	82.89	6,964.6	80.5459	6,964.6	72.7459	6,964.6	80.4497	6,964.6	80.7133	6,964.6	80.5633	6,964.6	82.7104	6,964.6	73.4566	6,964.6	86.8829	6,964.6	71.1906	6,964.6	84.202	6,964.6	73.2028	6,964.6	73.8296	6,964.6	63.7669	6,964.6	79.4132	6,964.6	68.2099	6,964.6	78.7524	6,964.6	69.4576	6,964.6	78.5141	6,964.6	64.6631	6,964.6	74.0726	6,964.6	68.4298	6,964.6	75.5652	6,964.6	48.8792	6,964.6	72.3425	6,964.6	67.2188	6,964.6	66.4409	6,964.6	66.6517	6,964.6	73.1617	6,964.6	66.7758	6,964.6	66.6321	6,964.6	67.2309
7,209.96	85.8775	7,209.96	85.9984	7,209.96	85.0113	7,209.96	84.4261	7,209.96	80.773	7,209.96	80.3758	7,209.96	73.401	7,209.96	81.8054	7,209.96	78.4208	7,209.96	77.3825	7,209.96	80.1954	7,209.96	72.4506	7,209.96	85.796	7,209.96	75.6598	7,209.96	83.9503	7,209.96	71.2333	7,209.96	70.8539	7,209.96	67.5279	7,209.96	79.6587	7,209.96	67.7891	7,209.96	73.4177	7,209.96	69.8007	7,209.96	76.0341	7,209.96	62.3515	7,209.96	72.7004	7,209.96	67.0168	7,209.96	75.7353	7,209.96	53.7713	7,209.96	69.162	7,209.96	64.5618	7,209.96	66.3487	7,209.96	64.8848	7,209.96	70.9481	7,209.96	63.4025	7,209.96	64.3345	7,209.96	66.6717
7,464.11	85.8283	7,464.11	84.2291	7,464.11	84.9643	7,464.11	81.692	7,464.11	79.8964	7,464.11	80.9827	7,464.11	68.6915	7,464.11	79.8621	7,464.11	73.7378	7,464.11	68.7301	7,464.11	77.1078	7,464.11	71.7218	7,464.11	84.4313	7,464.11	73.8687	7,464.11	83.0174	7,464.11	65.8095	7,464.11	67.1364	7,464.11	65.7524	7,464.11	78.8915	7,464.11	61.9624	7,464.11	55.8784	7,464.11	68.1161	7,464.11	72.388	7,464.11	61.0758	7,464.11	68.3307	7,464.11	64.9685	7,464.11	71.7848	7,464.11	54.2895	7,464.11	62.9082	7,464.11	61.7932	7,464.11	63.3139	7,464.11	55.5434	7,464.11	64.6446	7,464.11	54.6168	7,464.11	59.2805	7,464.11	60.9725
7,727.78	84.8756	7,727.78	82.4602	7,727.78	84.2994	7,727.78	80.9949	7,727.78	79.8977	7,727.78	81.3711	7,727.78	73.1185	7,727.78	77.8971	7,727.78	70.8359	7,727.78	70.6612	7,727.78	77.3523	7,727.78	74.109	7,727.78	83.5994	7,727.78	72.4292	7,727.78	80.9254	7,727.78	58.5901	7,727.78	68.283	7,727.78	64.9589	7,727.78	76.3733	7,727.78	58.6817	7,727.78	63.9461	7,727.78	65.9779	7,727.78	72.4032	7,727.78	61.9938	7,727.78	56.6352	7,727.78	56.6623	7,727.78	65.2624	7,727.78	53.2452	7,727.78	48.6887	7,727.78	57.7292	7,727.78	56.4298	7,727.78	53.4225	7,727.78	57.8065	7,727.78	48.0245	7,727.78	47.1169	7,727.78	54.2841
8,000.24	84.6773	8,000.24	83.1969	8,000.24	83.9497	8,000.24	82.0195	8,000.24	80.7073	8,000.24	79.5993	8,000.24	76.0745	8,000.24	74.1466	8,000.24	73.476	8,000.24	73.4516	8,000.24	79.7289	8,000.24	70.9501	8,000.24	83.4622	8,000.24	57.0379	8,000.24	78.5887	8,000.24	60.8997	8,000.24	69.7541	8,000.24	58.1544	8,000.24	73.4391	8,000.24	52.9739	8,000.24	64.2743	8,000.24	58.7568	8,000.24	70.3144	8,000.24	60.7671	8,000.24	59.8079	8,000.24	48.9203	8,000.24	59.8517	8,000.24	52.8862	8,000.24	59.0611	8,000.24	59.2134	8,000.24	51.3597	8,000.24	56.1471	8,000.24	59.2638	8,000.24	56.8285	8,000.24	55.4474	8,000.24	52.6034
8,282.23	85.5582	8,282.23	84.9731	8,282.23	84.5918	8,282.23	82.8587	8,282.23	82.6364	8,282.23	78.7565	8,282.23	80.3913	8,282.23	75.066	8,282.23	79.3124	8,282.23	70.9207	8,282.23	81.8627	8,282.23	63.1301	8,282.23	83.4207	8,282.23	63.6644	8,282.23	78.4152	8,282.23	65.2293	8,282.23	70.456	8,282.23	57.8831	8,282.23	73.5328	8,282.23	48.0031	8,282.23	67.6731	8,282.23	61.8047	8,282.23	66.9235	8,282.23	61.8643	8,282.23	62.2731	8,282.23	54.817	8,282.23	64.0634	8,282.23	52.0423	8,282.23	58.0242	8,282.23	61.0896	8,282.23	53.6389	8,282.23	58.0484	8,282.23	60.1011	8,282.23	56.678	8,282.23	55.0869	8,282.23	57.59
8,574.46	86.6637	8,574.46	85.4073	8,574.46	85.8123	8,574.46	82.162	8,574.46	83.5737	8,574.46	79.6788	8,574.46	81.3792	8,574.46	76.1739	8,574.46	80.4312	8,574.46	59.8981	8,574.46	82.4666	8,574.46	69.7658	8,574.46	84.2022	8,574.46	71.516	8,574.46	79.6974	8,574.46	69.5627	8,574.46	70.4874	8,574.46	59.0752	8,574.46	74.9011	8,574.46	57.4479	8,574.46	55.6043	8,574.46	65.8911	8,574.46	67.5847	8,574.46	60.2056	8,574.46	58.8311	8,574.46	59.4973	8,574.46	65.2866	8,574.46	37.7971	8,574.46	48.9826	8,574.46	60.8229	8,574.46	52.6119	8,574.46	48.83	8,574.46	54.4751	8,574.46	54.975	8,574.46	51.1739	8,574.46	56.5864
8,876.22	86.8275	8,876.22	84.3245	8,876.22	86.6551	8,876.22	81.2817	8,876.22	84.9394	8,876.22	79.1149	8,876.22	83.2844	8,876.22	68.3648	8,876.22	81.7213	8,876.22	68.7915	8,876.22	81.8936	8,876.22	70.812	8,876.22	81.949	8,876.22	73.2568	8,876.22	74.9776	8,876.22	69.7146	8,876.22	69.3104	8,876.22	55.5509	8,876.22	70.4727	8,876.22	62.9744	8,876.22	67.0186	8,876.22	64.3055	8,876.22	69.1247	8,876.22	58.336	8,876.22	60.0103	8,876.22	53.7397	8,876.22	49.5898	8,876.22	54.0719	8,876.22	56.6559	8,876.22	56.9517	8,876.22	46.5614	8,876.22	60.3166	8,876.22	52.6229	8,876.22	49.4281	8,876.22	57.8321	8,876.22	53.0074
9,189.7	85.8053	9,189.7	83.3611	9,189.7	86.205	9,189.7	80.6387	9,189.7	85.2991	9,189.7	75.9027	9,189.7	84.1757	9,189.7	65.8875	9,189.7	82.2608	9,189.7	67.0249	9,189.7	81.3468	9,189.7	66.1615	9,189.7	81.2771	9,189.7	71.4116	9,189.7	74.3144	9,189.7	60.4881	9,189.7	71.3424	9,189.7	61.2375	9,189.7	66.8765	9,189.7	58.9258	9,189.7	69.2514	9,189.7	56.1981	9,189.7	68.8384	9,189.7	55.8071	9,189.7	62.6571	9,189.7	55.0276	9,189.7	59.4153	9,189.7	57.736	9,189.7	58.837	9,189.7	56.3185	9,189.7	53.8784	9,189.7	61.762	9,189.7	60.0385	9,189.7	53.3116	9,189.7	61.9675	9,189.7	53.5757
9,513.43	84.7218	9,513.43	83.1889	9,513.43	85.3768	9,513.43	81.4721	9,513.43	85.1061	9,513.43	76.5094	9,513.43	83.9103	9,513.43	73.1048	9,513.43	81.566	9,513.43	70.6683	9,513.43	80.8023	9,513.43	66.4954	9,513.43	81.3078	9,513.43	71.7641	9,513.43	76.9405	9,513.43	65.5251	9,513.43	71.9787	9,513.43	65.5144	9,513.43	69.9782	9,513.43	55.5713	9,513.43	61.7451	9,513.43	51.9899	9,513.43	63.0083	9,513.43	57.2441	9,513.43	62.4369	9,513.43	50.6965	9,513.43	61.7337	9,513.43	57.7465	9,513.43	57.879	9,513.43	54.1365	9,513.43	55.88	9,513.43	61.8981	9,513.43	60.8025	9,513.43	53.9132	9,513.43	61.8346	9,513.43	56.1288
9,848.88	84.9526	9,848.88	84.1471	9,848.88	85.1579	9,848.88	82.2138	9,848.88	84.3057	9,848.88	77.7482	9,848.88	82.5631	9,848.88	76.4325	9,848.88	80.5319	9,848.88	70.8648	9,848.88	79.5581	9,848.88	71.2404	9,848.88	80.1422	9,848.88	72.4783	9,848.88	78.0152	9,848.88	59.7409	9,848.88	72.7939	9,848.88	63.9804	9,848.88	71.8162	9,848.88	43.5317	9,848.88	65.4491	9,848.88	53.6871	9,848.88	52.7058	9,848.88	56.4257	9,848.88	59.5927	9,848.88	48.7786	9,848.88	62.1316	9,848.88	55.6752	9,848.88	48.8683	9,848.88	52.6074	9,848.88	57.4394	9,848.88	59.8968	9,848.88	56.0138	9,848.88	54.0587	9,848.88	61.623	9,848.88	52.2854
10,196.8	85.9271	10,196.8	85.8135	10,196.8	85.0378	10,196.8	83.4784	10,196.8	83.5211	10,196.8	79.9074	10,196.8	81.3502	10,196.8	78.006	10,196.8	79.1401	10,196.8	71.2097	10,196.8	76.4538	10,196.8	73.137	10,196.8	76.6247	10,196.8	67.6593	10,196.8	77.8249	10,196.8	65.55	10,196.8	74.3031	10,196.8	63.2801	10,196.8	70.7693	10,196.8	56.7848	10,196.8	65.629	10,196.8	52.1758	10,196.8	54.3728	10,196.8	57.0539	10,196.8	57.7566	10,196.8	39.7695	10,196.8	62.2203	10,196.8	54.3306	10,196.8	53.3249	10,196.8	53.0863	10,196.8	56.9945	10,196.8	57.8481	10,196.8	48.9354	10,196.8	43.1934	10,196.8	60.8964	10,196.8	56.2189
10,556.4	86.7566	10,556.4	86.3308	10,556.4	85.6815	10,556.4	83.9652	10,556.4	83.6805	10,556.4	81.4902	10,556.4	81.5236	10,556.4	78.6445	10,556.4	79.0399	10,556.4	74.0219	10,556.4	74.6502	10,556.4	73.3558	10,556.4	77.0393	10,556.4	67.7706	10,556.4	77.5683	10,556.4	64.9896	10,556.4	72.7286	10,556.4	60.0875	10,556.4	67.9371	10,556.4	56.1294	10,556.4	50.0068	10,556.4	43.1281	10,556.4	63.9478	10,556.4	52.7905	10,556.4	57.2127	10,556.4	42.4601	10,556.4	57.917	10,556.4	43.9919	10,556.4	53.2597	10,556.4	49.8166	10,556.4	53.4493	10,556.4	49.9623	10,556.4	44.7362	10,556.4	49.2069	10,556.4	60.0936	10,556.4	58.8288
10,928.5	87.4554	10,928.5	86.1694	10,928.5	87.0291	10,928.5	83.6984	10,928.5	84.9725	10,928.5	82.1253	10,928.5	82.2171	10,928.5	78.7985	10,928.5	78.9311	10,928.5	75.8281	10,928.5	74.2667	10,928.5	73.6461	10,928.5	76.0743	10,928.5	64.5152	10,928.5	76.1543	10,928.5	64.7226	10,928.5	72.5366	10,928.5	62.1217	10,928.5	65.8959	10,928.5	58.5083	10,928.5	57.8942	10,928.5	46.3459	10,928.5	65.3525	10,928.5	50.0471	10,928.5	56.8003	10,928.5	45.9749	10,928.5	57.9367	10,928.5	49.8517	10,928.5	48.8039	10,928.5	51.9189	10,928.5	53.3429	10,928.5	56.2631	10,928.5	47.6109	10,928.5	56.8761	10,928.5	59.0898	10,928.5	60.6894
11,313.7	88.0463	11,313.7	85.6893	11,313.7	88.573	11,313.7	83.7156	11,313.7	86.8199	11,313.7	82.2299	11,313.7	83.471	11,313.7	78.3387	11,313.7	78.485	11,313.7	76.9717	11,313.7	73.4524	11,313.7	71.074	11,313.7	73.9734	11,313.7	67.2829	11,313.7	73.6714	11,313.7	64.013	11,313.7	71.7544	11,313.7	64.469	11,313.7	65.8661	11,313.7	55.0941	11,313.7	66.9098	11,313.7	53.1865	11,313.7	65.4053	11,313.7	55.2051	11,313.7	57.2146	11,313.7	49.526	11,313.7	64.1018	11,313.7	57.9725	11,313.7	50.4368	11,313.7	56.0194	11,313.7	59.0905	11,313.7	61.5931	11,313.7	50.5728	11,313.7	61.1635	11,313.7	60.2503	11,313.7	62.1277
11,712.9	87.9394	11,712.9	85.2127	11,712.9	89.3293	11,712.9	83.3987	11,712.9	88.3408	11,712.9	81.2963	11,712.9	85.1836	11,712.9	78.4048	11,712.9	80.2325	11,712.9	76.5188	11,712.9	75.9282	11,712.9	69.1379	11,712.9	70.9422	11,712.9	68.1908	11,712.9	70.0458	11,712.9	61.8528	11,712.9	70.6668	11,712.9	63.9226	11,712.9	64.5666	11,712.9	59.5878	11,712.9	68.6999	11,712.9	54.9316	11,712.9	60.6394	11,712.9	57.926	11,712.9	51.3648	11,712.9	59.1386	11,712.9	64.2478	11,712.9	60.5486	11,712.9	58.5883	11,712.9	61.0793	11,712.9	59.547	11,712.9	62.5558	11,712.9	50.6188	11,712.9	61.3792	11,712.9	62.8028	11,712.9	62.8558
12,126	89.8631	12,126	87.1211	12,126	90.6308	12,126	83.5077	12,126	89.2412	12,126	80.1073	12,126	86.2624	12,126	78.0317	12,126	82.3131	12,126	75.6296	12,126	78.1934	12,126	69.2581	12,126	70.3939	12,126	65.4422	12,126	67.3832	12,126	62.8924	12,126	69.7711	12,126	64.5147	12,126	61.3203	12,126	64.0976	12,126	67.5419	12,126	55.2405	12,126	57.3208	12,126	59.7194	12,126	34.4451	12,126	63.1846	12,126	63.1146	12,126	61.7281	12,126	60.4666	12,126	63.1713	12,126	58.1218	12,126	63.5251	12,126	47.264	12,126	62.2932	12,126	65.1376	12,126	66.4052
12,553.7	92.3085	12,553.7	89.0503	12,553.7	92.3604	12,553.7	83.009	12,553.7	89.9797	12,553.7	77.9066	12,553.7	86.3763	12,553.7	76.1535	12,553.7	82.0815	12,553.7	73.5084	12,553.7	78.5238	12,553.7	68.0249	12,553.7	72.1156	12,553.7	65.0404	12,553.7	65.0901	12,553.7	61.9128	12,553.7	69.0583	12,553.7	65.1624	12,553.7	59.7959	12,553.7	63.9565	12,553.7	67.7605	12,553.7	57.4461	12,553.7	59.3635	12,553.7	59.8627	12,553.7	51.8438	12,553.7	64.0284	12,553.7	62.0774	12,553.7	61.874	12,553.7	57.4472	12,553.7	62.5168	12,553.7	55.2187	12,553.7	63.583	12,553.7	36.5804	12,553.7	62.288	12,553.7	64.995	12,553.7	68.2657
12,996.1	94.7662	12,996.1	91.2119	12,996.1	94.4492	12,996.1	84.1937	12,996.1	91.1806	12,996.1	77.0895	12,996.1	86.6438	12,996.1	74.1985	12,996.1	81.216	12,996.1	72.3603	12,996.1	77.7341	12,996.1	67.0158	12,996.1	74.9364	12,996.1	66.2685	12,996.1	62.1498	12,996.1	53.6398	12,996.1	69.627	12,996.1	65.5352	12,996.1	66.8255	12,996.1	61.4714	12,996.1	70.9868	12,996.1	59.845	12,996.1	63.091	12,996.1	59.6714	12,996.1	57.6128	12,996.1	61.6331	12,996.1	64.9477	12,996.1	62.5124	12,996.1	51.822	12,996.1	60.6783	12,996.1	56.5059	12,996.1	67.1994	12,996.1	57.4296	12,996.1	63.1395	12,996.1	65.3192	12,996.1	69.5694
13,454.6	95.117	13,454.6	91.6648	13,454.6	94.6996	13,454.6	84.981	13,454.6	91.3202	13,454.6	76.2891	13,454.6	86.2487	13,454.6	71.2825	13,454.6	77.9455	13,454.6	71.7121	13,454.6	74.6493	13,454.6	66.4913	13,454.6	76.4006	13,454.6	66.2828	13,454.6	64.5856	13,454.6	51.726	13,454.6	69.2094	13,454.6	63.763	13,454.6	67.5375	13,454.6	60.9931	13,454.6	73.2605	13,454.6	59.7345	13,454.6	66.9295	13,454.6	59.986	13,454.6	60.191	13,454.6	58.9503	13,454.6	65.5512	13,454.6	65.0415	13,454.6	51.8129	13,454.6	63.6671	13,454.6	59.5174	13,454.6	70.7036	13,454.6	61.0474	13,454.6	65.1497	13,454.6	66.2975	13,454.6	69.8188
13,928.5	93.2925	13,928.5	90.1632	13,928.5	92.5323	13,928.5	83.2541	13,928.5	88.8585	13,928.5	70.9151	13,928.5	83.5873	13,928.5	64.7148	13,928.5	73.275	13,928.5	69.2655	13,928.5	70.8396	13,928.5	64.2629	13,928.5	74.0444	13,928.5	63.4875	13,928.5	65.3088	13,928.5	55.2834	13,928.5	66.4933	13,928.5	59.3394	13,928.5	64.1252	13,928.5	59.0993	13,928.5	70.727	13,928.5	55.7994	13,928.5	65.7763	13,928.5	58.5227	13,928.5	55.6057	13,928.5	59.3695	13,928.5	60.0732	13,928.5	64.898	13,928.5	49.0751	13,928.5	62.8363	13,928.5	55.8052	13,928.5	70.498	13,928.5	59.8155	13,928.5	64.9416	13,928.5	65.816	13,928.5	67.432
14,419.9	91.1982	14,419.9	88.8902	14,419.9	89.6251	14,419.9	82.3582	14,419.9	85.4665	14,419.9	70.9882	14,419.9	79.4782	14,419.9	52.8214	14,419.9	67.903	14,419.9	63.4193	14,419.9	67.3138	14,419.9	60.7409	14,419.9	69.0982	14,419.9	56.8175	14,419.9	55.8048	14,419.9	57.3751	14,419.9	64.9029	14,419.9	52.5095	14,419.9	62.9425	14,419.9	50.4545	14,419.9	66.1778	14,419.9	56.1845	14,419.9	60.8971	14,419.9	54.057	14,419.9	48.5619	14,419.9	56.3066	14,419.9	47.7666	14,419.9	62.2206	14,419.9	54.3596	14,419.9	58.055	14,419.9	47.6647	14,419.9	68.5356	14,419.9	62.9955	14,419.9	65.8269	14,419.9	65.5153	14,419.9	65.465
14,928.2	90.8421	14,928.2	87.78	14,928.2	89.6136	14,928.2	80.3695	14,928.2	85.1553	14,928.2	69.9186	14,928.2	77.7374	14,928.2	60.1904	14,928.2	62.2341	14,928.2	55.493	14,928.2	60.3542	14,928.2	55.2288	14,928.2	65.7237	14,928.2	48.5028	14,928.2	56.252	14,928.2	59.549	14,928.2	64.9773	14,928.2	56.7921	14,928.2	63.3706	14,928.2	54.9496	14,928.2	67.6478	14,928.2	59.3866	14,928.2	62.3316	14,928.2	50.9064	14,928.2	54.5506	14,928.2	50.6694	14,928.2	59.165	14,928.2	59.292	14,928.2	55.4494	14,928.2	51.3236	14,928.2	52.0452	14,928.2	67.1321	14,928.2	63.0077	14,928.2	67.0612	14,928.2	62.9546	14,928.2	65.7619
15,454.8	90.6597	15,454.8	86.8967	15,454.8	89.9258	15,454.8	79.3905	15,454.8	85.4327	15,454.8	69.1247	15,454.8	77.6508	15,454.8	65.0714	15,454.8	59.1993	15,454.8	60.5176	15,454.8	57.5009	15,454.8	50.7763	15,454.8	65.262	15,454.8	57.2243	15,454.8	60.5326	15,454.8	61.1902	15,454.8	65.6057	15,454.8	58.1794	15,454.8	64.9803	15,454.8	58.2688	15,454.8	68.5446	15,454.8	59.04	15,454.8	63.746	15,454.8	53.2666	15,454.8	57.3106	15,454.8	30.4123	15,454.8	62.9988	15,454.8	59.751	15,454.8	56.3329	15,454.8	56.4446	15,454.8	57.8933	15,454.8	67.2495	15,454.8	61.7263	15,454.8	66.5031	15,454.8	60.2908	15,454.8	64.2183
15,999.8	89.9963	15,999.8	85.7229	15,999.8	89.453	15,999.8	77.7495	15,999.8	85.0031	15,999.8	65.7075	15,999.8	78.2088	15,999.8	65.7891	15,999.8	64.288	15,999.8	63.9726	15,999.8	61.6957	15,999.8	46.0427	15,999.8	68.337	15,999.8	58.5016	15,999.8	62.6516	15,999.8	60.1575	15,999.8	63.296	15,999.8	58.3473	15,999.8	64.201	15,999.8	59.2233	15,999.8	69.3653	15,999.8	56.6441	15,999.8	64.342	15,999.8	55.5261	15,999.8	57.0381	15,999.8	52.5701	15,999.8	63.2778	15,999.8	60.4562	15,999.8	54.918	15,999.8	61.4504	15,999.8	59.56	15,999.8	67.6499	15,999.8	59.1097	15,999.8	64.1453	15,999.8	60.8267	15,999.8	59.9877
16,564.5	88.1435	16,564.5	83.7734	16,564.5	87.5873	16,564.5	75.2204	16,564.5	83.0283	16,564.5	63.154	16,564.5	75.7901	16,564.5	66.2328	16,564.5	65.3112	16,564.5	65.3139	16,564.5	60.8605	16,564.5	53.0785	16,564.5	69.8917	16,564.5	61.2504	16,564.5	65.1706	16,564.5	53.3024	16,564.5	61.1533	16,564.5	56.1148	16,564.5	58.5653	16,564.5	58.212	16,564.5	68.8143	16,564.5	54.0598	16,564.5	63.2731	16,564.5	55.5601	16,564.5	54.4216	16,564.5	56.8793	16,564.5	62.2766	16,564.5	60.1352	16,564.5	49.2491	16,564.5	61.7714	16,564.5	59.2335	16,564.5	65.9677	16,564.5	54.5005	16,564.5	59.7425	16,564.5	62.6831	16,564.5	54.4833
17,148.2	86.22	17,148.2	81.8758	17,148.2	85.1496	17,148.2	72.631	17,148.2	79.7392	17,148.2	64.3453	17,148.2	72.2292	17,148.2	64.2817	17,148.2	68.6131	17,148.2	65.2951	17,148.2	62.5055	17,148.2	60.3077	17,148.2	65.7123	17,148.2	59.5348	17,148.2	59.4043	17,148.2	50.7346	17,148.2	60.4486	17,148.2	55.1681	17,148.2	57.0561	17,148.2	55.4486	17,148.2	67.0122	17,148.2	50.9762	17,148.2	60.5759	17,148.2	54.7616	17,148.2	54.1177	17,148.2	56.2877	17,148.2	60.7349	17,148.2	57.8351	17,148.2	49.3008	17,148.2	60.5537	17,148.2	58.4209	17,148.2	64.2357	17,148.2	54.9652	17,148.2	54.1674	17,148.2	61.0819	17,148.2	52.3383
17,753.2	84.1643	17,753.2	79.5699	17,753.2	82.7632	17,753.2	69.7366	17,753.2	77.3241	17,753.2	63.6213	17,753.2	72.2131	17,753.2	62.5182	17,753.2	69.6057	17,753.2	63.8078	17,753.2	65.7846	17,753.2	59.1632	17,753.2	59.3488	17,753.2	56.5879	17,753.2	58.7017	17,753.2	51.2669	17,753.2	53.9971	17,753.2	52.1089	17,753.2	58.7764	17,753.2	48.7467	17,753.2	64.0201	17,753.2	49.2382	17,753.2	58.7208	17,753.2	52.2889	17,753.2	56.3224	17,753.2	48.3589	17,753.2	59.3677	17,753.2	55.0441	17,753.2	48.1693	17,753.2	57.3172	17,753.2	56.5565	17,753.2	62.469	17,753.2	57.3035	17,753.2	48.4478	17,753.2	59.2793	17,753.2	53.3529
18,379.4	80.8597	18,379.4	75.8819	18,379.4	79.8349	18,379.4	68.8804	18,379.4	75.7787	18,379.4	65.5177	18,379.4	71.5219	18,379.4	62.978	18,379.4	68.8108	18,379.4	58.8178	18,379.4	66.6663	18,379.4	53.0188	18,379.4	59.8816	18,379.4	56.4824	18,379.4	63.6792	18,379.4	54.1158	18,379.4	47.4678	18,379.4	46.6511	18,379.4	60.1794	18,379.4	40.5122	18,379.4	60.8369	18,379.4	49.74	18,379.4	56.715	18,379.4	46.7147	18,379.4	54.565	18,379.4	47.5611	18,379.4	58.6441	18,379.4	52.5592	18,379.4	41.7123	18,379.4	56.3927	18,379.4	50.2339	18,379.4	60.8	18,379.4	56.4387	18,379.4	45.6985	18,379.4	55.6036	18,379.4	56.3929
19,027.6	76.0084	19,027.6	71.6925	19,027.6	75.4229	19,027.6	67.0034	19,027.6	70.8824	19,027.6	64.8725	19,027.6	66.1321	19,027.6	60.7704	19,027.6	64.706	19,027.6	54.3756	19,027.6	64.8732	19,027.6	51.598	19,027.6	57.2179	19,027.6	52.3127	19,027.6	62.2739	19,027.6	49.9944	19,027.6	40.4774	19,027.6	41.3712	19,027.6	57.4438	19,027.6	41.8876	19,027.6	51.8799	19,027.6	46.3931	19,027.6	52.974	19,027.6	33.5773	19,027.6	46.7724	19,027.6	52.5576	19,027.6	50.868	19,027.6	45.8791	19,027.6	42.6487	19,027.6	55.5358	19,027.6	42.1872	19,027.6	55.9978	19,027.6	52.9951	19,027.6	46.8414	19,027.6	46.3779	19,027.6	57.3045
19,698.5	72.7501	19,698.5	66.6018	19,698.5	72.4314	19,698.5	61.2422	19,698.5	68.8083	19,698.5	61.3655	19,698.5	67.8873	19,698.5	51.061	19,698.5	64.9843	19,698.5	59.8353	19,698.5	64.6212	19,698.5	56.1474	19,698.5	54.6574	19,698.5	51.1349	19,698.5	59.9257	19,698.5	42.7353	19,698.5	45.6045	19,698.5	42.2265	19,698.5	52.5574	19,698.5	45.2845	19,698.5	57.3794	19,698.5	32.9895	19,698.5	55.8749	19,698.5	41.0316	19,698.5	36.258	19,698.5	52.0309	19,698.5	49.3545	19,698.5	45.9333	19,698.5	45.7945	19,698.5	56.6728	19,698.5	52.7046	19,698.5	57.7568	19,698.5	49.2903	19,698.5	45.8021	19,698.5	54.9081	19,698.5	57.8786
19,999.5	71.4571	19,999.5	62.4395	19,999.5	72.3335	19,999.5	57.0788	19,999.5	70.0679	19,999.5	59.9329	19,999.5	68.8496	19,999.5	43.7191	19,999.5	64.7692	19,999.5	60.0315	19,999.5	63.4878	19,999.5	54.9436	19,999.5	49.219	19,999.5	52.3763	19,999.5	58.4317	19,999.5	37.7007	19,999.5	50.5238	19,999.5	44.6326	19,999.5	52.2702	19,999.5	45.7848	19,999.5	60.1973	19,999.5	34.9582	19,999.5	56.769	19,999.5	42.4802	19,999.5	41.879	19,999.5	50.5134	19,999.5	53.2868	19,999.5	48.4777	19,999.5	47.5809	19,999.5	55.7197	19,999.5	53.5428	19,999.5	58.0979	19,999.5	49.1511	19,999.5	45.368	19,999.5	55.4789	19,999.5	57.7691
