"Vertical Reflections"					
"Floor Reflection"		"Ceiling Reflection"		"Total Vertical Reflection"	
"Frequency [Hz]"	"Sound Pessure Level [dB]  / [2.83V 1m] "	"Frequency [Hz]"	"Sound Pessure Level [dB]  / [2.83V 1m] "	"Frequency [Hz]"	"Sound Pessure Level [dB]  / [2.83V 1m] "
20.5078	44.4282	20.5078	42.6957	20.5078	43.6478
21.2402	49.9386	21.2402	48.71	21.2402	49.3676
21.9727	49.7203	21.9727	48.561	21.9727	49.1792
22.7051	49.6986	22.7051	48.3803	22.7051	49.0893
23.4375	50.6833	23.4375	49.4646	23.4375	50.1166
24.1699	51.6522	24.1699	50.4365	24.1699	51.0867
25.6348	52.4788	25.6348	51.3448	25.6348	51.9487
26.3672	53.0192	26.3672	51.8427	26.3672	52.4706
27.0996	52.7504	27.0996	51.6193	27.0996	52.2216
27.832	53.8849	27.832	52.8411	27.832	53.3942
29.2969	54.517	29.2969	53.3175	29.2969	53.9585
30.0293	54.885	30.0293	53.7317	30.0293	54.3465
31.4941	56.5686	31.4941	55.3995	31.4941	56.0232
32.2266	57.1115	32.2266	55.8339	32.2266	56.5195
33.6914	58.067	33.6914	56.9016	33.6914	57.5233
34.4238	58.3752	34.4238	57.174	34.4238	57.816
35.8887	59.2071	35.8887	58.0953	35.8887	58.6867
37.3535	59.669	37.3535	58.5303	37.3535	59.1368
38.8184	60.4152	38.8184	59.2474	38.8184	59.8704
39.5508	60.4077	39.5508	59.2075	39.5508	59.8489
41.0156	61.9572	41.0156	61.1557	41.0156	61.5749
42.4805	62.8784	42.4805	61.5687	42.4805	62.2727
43.9453	63.2641	43.9453	62.0719	43.9453	62.7088
45.4102	63.7896	45.4102	62.6202	45.4102	63.2442
47.6074	64.711	47.6074	63.5636	47.6074	64.1751
49.0723	65.2844	49.0723	64.1188	49.0723	64.7406
50.5371	65.8162	50.5371	64.6467	50.5371	65.2707
52.7344	66.5733	52.7344	65.388	52.7344	66.0209
54.1992	67.1811	54.1992	66.0107	54.1992	66.6352
56.3965	67.86	56.3965	66.6711	56.3965	67.3061
58.5938	68.9599	58.5938	67.7612	58.5938	68.4018
60.0586	69.5085	60.0586	68.293	60.0586	68.9431
62.2559	69.9669	62.2559	68.7685	62.2559	69.4089
64.4531	70.672	64.4531	69.4473	64.4531	70.1027
66.6504	71.3829	66.6504	70.1458	66.6504	70.8083
69.5801	72.3289	69.5801	71.0733	69.5801	71.7463
71.7773	72.9523	71.7773	71.6859	71.7773	72.3651
73.9746	73.5687	73.9746	72.3064	73.9746	72.9833
76.9043	74.4199	76.9043	73.1171	76.9043	73.8172
79.834	75.2772	79.834	73.9663	79.834	74.671
82.7637	76.1085	82.7637	74.784	82.7637	75.4965
85.6934	76.9478	85.6934	75.636	85.6934	76.3412
88.623	77.5374	88.623	76.2391	88.623	76.9366
91.5527	78.371	91.5527	77.0367	91.5527	77.7549
94.4824	79.153	94.4824	77.7702	94.4824	78.5164
98.1445	80.1406	98.1445	78.7727	98.1445	79.5103
101.807	81.0895	101.807	79.6936	101.807	80.4474
105.469	82.0779	105.469	80.653	105.469	81.4236
109.131	83.0595	109.131	81.599	109.131	82.3904
112.793	84.033	112.793	82.5564	112.793	83.3572
116.455	84.9884	116.455	83.4751	116.455	84.2973
120.85	86.3039	120.85	84.7895	120.85	85.6124
125.244	87.4594	125.244	85.8981	125.244	86.7485
129.639	88.5587	129.639	86.9442	129.639	87.826
134.033	89.6666	134.033	88.0179	134.033	88.92
138.428	90.581	138.428	88.8942	138.428	89.819
143.555	91.6139	143.555	89.8122	143.555	90.8058
148.682	92.5114	148.682	90.6151	148.682	91.6659
153.809	93.1316	153.809	91.1971	153.809	92.2712
159.668	93.8222	159.668	91.797	159.668	92.9266
164.795	94.104	164.795	92.1225	164.795	93.2253
170.654	94.1646	170.654	92.1502	170.654	93.2732
176.514	93.8814	176.514	91.7937	176.514	92.9618
183.105	93.503	183.105	91.2607	183.105	92.525
189.697	93.2169	189.697	91.0459	189.697	92.2657
196.289	92.846	196.289	90.6356	196.289	91.8799
202.881	92.4851	202.881	90.1083	202.881	91.4573
210.205	92.0718	210.205	89.6944	210.205	91.0438
217.529	91.6022	217.529	89.2259	217.529	90.5746
225.586	91.0454	225.586	88.4466	225.586	89.9375
232.91	91.0862	232.91	88.4	232.91	89.9476
241.699	90.5605	241.699	87.6961	241.699	89.3603
249.756	90.6829	249.756	87.3843	249.756	89.3395
258.545	90.5408	258.545	87.5824	258.545	89.3088
268.066	90.1754	268.066	86.815	268.066	88.8124
277.588	90.2757	277.588	87.2346	277.588	89.0161
287.109	90.1122	287.109	87.162	287.109	88.8829
297.363	90.3057	297.363	87.1715	297.363	89.0154
307.617	90.1057	307.617	87.1655	307.617	88.8798
318.604	89.9297	318.604	86.5699	318.604	88.5669
329.59	89.8896	329.59	86.7886	329.59	88.6102
341.309	89.3159	341.309	85.4572	341.309	87.8017
353.76	89.9621	353.76	86.2976	353.76	88.5054
366.211	90.1258	366.211	86.7742	366.211	88.7656
378.662	90.8	378.662	88.1593	378.662	89.6773
392.578	90.1928	392.578	88.3167	392.578	89.3552
405.762	90.3522	405.762	88.0316	405.762	89.345
420.41	91.2641	420.41	89.114	420.41	90.3208
435.059	91.1102	435.059	89.1667	435.059	90.2463
450.439	91.2613	450.439	89.648	450.439	90.5291
466.553	90.9567	466.553	89.3616	466.553	90.2319
482.666	90.8373	482.666	89.4047	482.666	90.1798
500.244	91.292	500.244	89.2424	500.244	90.387
517.822	90.7081	517.822	89.3464	517.822	90.0804
536.133	90.7092	536.133	89.3079	536.133	90.0648
554.443	91.2523	554.443	89.2586	554.443	90.3689
574.219	91.7701	574.219	89.095	574.219	90.6354
594.727	91.1324	594.727	89.2185	594.727	90.2801
615.234	90.7313	615.234	89.0885	615.234	89.9871
637.207	91.8263	637.207	88.6467	637.207	90.5212
659.912	90.869	659.912	88.3272	659.912	89.7814
683.35	90.8261	683.35	89.1791	683.35	90.0802
706.787	91.2696	706.787	88.6641	706.787	90.1594
731.689	90.5223	731.689	88.9952	731.689	89.8255
758.057	90.5431	758.057	89.0684	758.057	89.868
784.424	89.9196	784.424	88.9837	784.424	89.4768
812.256	90.0992	812.256	88.3586	812.256	89.3156
840.82	90.5199	840.82	88.1057	840.82	89.4784
870.85	90.2945	870.85	88.5862	870.85	89.5238
901.611	90.4029	901.611	88.6631	901.611	89.6195
933.105	89.5977	933.105	87.3789	933.105	88.6284
966.064	88.9261	966.064	85.8286	966.064	87.6478
999.756	87.5781	999.756	85.1431	999.756	86.5291
1,034.91	88.2584	1,034.91	85.8832	1,034.91	87.2312
1,071.53	90.488	1,071.53	86.2827	1,071.53	88.8756
1,109.62	91.0203	1,109.62	87.5736	1,109.62	89.6303
1,148.44	90.3521	1,148.44	87.2763	1,148.44	89.081
1,189.45	89.8434	1,189.45	85.3831	1,189.45	88.1623
1,231.2	87.4712	1,231.2	84.2173	1,231.2	86.1421
1,274.41	87.3864	1,274.41	87.2292	1,274.41	87.3085
1,319.82	88.4902	1,319.82	88.1866	1,319.82	88.3411
1,365.97	88.8286	1,365.97	88.0512	1,365.97	88.4573
1,414.31	90.2692	1,414.31	87.5495	1,414.31	89.1189
1,464.11	89.9387	1,464.11	87.1142	1,464.11	88.7521
1,515.38	88.3318	1,515.38	87.6345	1,515.38	87.9972
1,568.85	85.7293	1,568.85	87.6388	1,568.85	86.7881
1,624.51	83.0704	1,624.51	86.5893	1,624.51	85.1769
1,681.64	85.4596	1,681.64	87.672	1,681.64	86.7052
1,740.97	88.6884	1,740.97	87.7771	1,740.97	88.2566
1,802.49	89.8899	1,802.49	89.2823	1,802.49	89.5967
1,866.21	91.1797	1,866.21	88.21	1,866.21	89.9439
1,932.13	92.4292	1,932.13	87.0291	1,932.13	90.5194
2,000.24	92.2303	2,000.24	85.4041	2,000.24	90.0395
2,070.56	91.4441	2,070.56	84.6904	2,070.56	89.2659
2,143.8	90.5716	2,143.8	83.5496	2,143.8	88.3477
2,219.24	89.8298	2,219.24	82.6929	2,219.24	87.5871
2,297.61	90.1385	2,297.61	80.8246	2,297.61	87.6091
2,378.17	89.849	2,378.17	80.1723	2,378.17	87.283
2,462.4	90.0534	2,462.4	81.3963	2,462.4	87.5978
2,548.83	90.511	2,548.83	83.9393	2,548.83	88.365
2,638.92	91.2681	2,638.92	85.2689	2,638.92	89.2312
2,731.93	90.8701	2,731.93	86.1578	2,731.93	89.124
2,828.61	88.6435	2,828.61	84.609	2,828.61	87.0788
2,928.22	86.7643	2,928.22	81.4035	2,928.22	84.8633
3,031.49	87.4171	3,031.49	80.1826	3,031.49	85.1588
3,138.43	92.0099	3,138.43	85.0523	3,138.43	89.7968
3,249.02	92.3175	3,249.02	85.1536	3,249.02	90.0704
3,363.28	89.4734	3,363.28	83.6656	3,363.28	87.4756
3,481.93	88.8165	3,481.93	82.016	3,481.93	86.6301
3,604.98	90.2251	3,604.98	82.0947	3,604.98	87.8361
3,732.42	89.7274	3,732.42	81.4412	3,732.42	87.318
3,863.53	87.3047	3,863.53	82.8038	3,863.53	85.613
3,999.76	86.7756	3,999.76	85.4396	3,999.76	86.1588
4,141.11	86.8856	4,141.11	84.995	4,141.11	86.0424
4,286.87	86.561	4,286.87	85.1023	4,286.87	85.8926
4,438.48	85.4145	4,438.48	85.9003	4,438.48	85.6642
4,594.48	84.1663	4,594.48	86.1676	4,594.48	85.2813
4,757.08	81.4671	4,757.08	86.6511	4,757.08	84.7906
4,924.8	84.1245	4,924.8	84.0926	4,924.8	84.1086
5,098.39	83.8803	5,098.39	82.6291	5,098.39	83.2996
5,277.83	82.9388	5,277.83	81.9696	5,277.83	82.4812
5,463.87	82.8124	5,463.87	81.7185	5,463.87	82.2998
5,656.49	83.5661	5,656.49	79.8596	5,656.49	82.0968
5,856.45	82.0781	5,856.45	80.0974	5,856.45	81.1997
6,062.99	81.5541	6,062.99	80.6475	6,062.99	81.1244
6,276.86	82.6215	6,276.86	80.9892	6,276.86	81.8816
6,498.05	81.9519	6,498.05	79.8507	6,498.05	81.0272
6,727.29	80.578	6,727.29	79.7761	6,727.29	80.1955
6,964.6	80.4297	6,964.6	79.1544	6,964.6	79.8387
7,209.96	78.4691	7,209.96	78.7286	7,209.96	78.6008
7,464.11	76.3242	7,464.11	75.9917	7,464.11	76.1611
7,727.78	76.3782	7,727.78	75.186	7,727.78	75.8229
8,000.24	77.7924	8,000.24	73.051	8,000.24	76.0389
8,282.23	81.007	8,282.23	71.9056	8,282.23	78.5005
8,574.46	82.0005	8,574.46	72.3796	8,574.46	79.44
8,876.22	83.5122	8,876.22	69.4595	8,876.22	80.6695
9,189.7	84.086	9,189.7	66.3855	9,189.7	81.1488
9,513.43	83.7629	9,513.43	70.8595	9,513.43	80.9696
9,848.88	82.7336	9,848.88	73.6479	9,848.88	80.2288
10,196.8	81.6974	10,196.8	75.0959	10,196.8	79.5461
10,556.4	81.8143	10,556.4	76.0239	10,556.4	79.8201
10,928.5	82.7031	10,928.5	76.6039	10,928.5	80.6463
11,313.7	84.1149	11,313.7	76.3953	11,313.7	81.7829
11,712.9	85.7126	11,712.9	76.1038	11,712.9	83.1533
12,126	86.791	12,126	75.5848	12,126	84.0979
12,553.7	87.2454	12,553.7	73.681	12,553.7	84.4222
12,996.1	88.0309	12,996.1	72.0901	12,996.1	85.1299
13,454.6	87.8749	13,454.6	70.3777	13,454.6	84.9412
13,928.5	85.3085	13,928.5	66.713	13,928.5	82.3578
14,419.9	81.7312	14,419.9	60.7616	14,419.9	78.7555
14,928.2	81.1261	14,928.2	57.6152	14,928.2	78.1351
15,454.8	81.3397	15,454.8	61.7229	15,454.8	78.3766
15,999.8	81.0872	15,999.8	63.2419	15,999.8	78.1477
16,564.5	79.0699	16,564.5	64.1513	16,564.5	76.1973
17,148.2	75.9529	17,148.2	63.7647	17,148.2	73.1974
17,753.2	74.2477	17,753.2	62.2303	17,753.2	71.5021
18,379.4	72.9838	18,379.4	59.923	18,379.4	70.183
19,027.6	68.0871	19,027.6	57.3036	19,027.6	65.4251
19,698.5	67.5074	19,698.5	56.9964	19,698.5	64.867
19,999.5	68.4155	19,999.5	56.5094	19,999.5	65.6765
