"SPL Horizontal"
"On-Axis"		"10°"		"-10°"		"20°"		"-20°"		"30°"		"-30°"		"40°"		"-40°"		"50°"		"-50°"		"60°"		"-60°"		"70°"		"-70°"		"80°"		"-80°"		"90°"		"-90°"		"100°"		"-100°"		"110°"		"-110°"		"120°"		"-120°"		"130°"		"-130°"		"140°"		"-140°"		"150°"		"-150°"		"160°"		"-160°"		"170°"		"-170°"		"180°"
"Frequency / Hz"	"Sound Pressure Level / dB (re 20 µPa/V)  [2.83  V @ 1. m]"	"Frequency / Hz"	"Sound Pressure Level / dB (re 20 µPa/V)  [2.83  V @ 1. m]"	"Frequency / Hz"	"Sound Pressure Level / dB (re 20 µPa/V)  [2.83  V @ 1. m]"	"Frequency / Hz"	"Sound Pressure Level / dB (re 20 µPa/V)  [2.83  V @ 1. m]"	"Frequency / Hz"	"Sound Pressure Level / dB (re 20 µPa/V)  [2.83  V @ 1. m]"	"Frequency / Hz"	"Sound Pressure Level / dB (re 20 µPa/V)  [2.83  V @ 1. m]"	"Frequency / Hz"	"Sound Pressure Level / dB (re 20 µPa/V)  [2.83  V @ 1. m]"	"Frequency / Hz"	"Sound Pressure Level / dB (re 20 µPa/V)  [2.83  V @ 1. m]"	"Frequency / Hz"	"Sound Pressure Level / dB (re 20 µPa/V)  [2.83  V @ 1. m]"	"Frequency / Hz"	"Sound Pressure Level / dB (re 20 µPa/V)  [2.83  V @ 1. m]"	"Frequency / Hz"	"Sound Pressure Level / dB (re 20 µPa/V)  [2.83  V @ 1. m]"	"Frequency / Hz"	"Sound Pressure Level / dB (re 20 µPa/V)  [2.83  V @ 1. m]"	"Frequency / Hz"	"Sound Pressure Level / dB (re 20 µPa/V)  [2.83  V @ 1. m]"	"Frequency / Hz"	"Sound Pressure Level / dB (re 20 µPa/V)  [2.83  V @ 1. m]"	"Frequency / Hz"	"Sound Pressure Level / dB (re 20 µPa/V)  [2.83  V @ 1. m]"	"Frequency / Hz"	"Sound Pressure Level / dB (re 20 µPa/V)  [2.83  V @ 1. m]"	"Frequency / Hz"	"Sound Pressure Level / dB (re 20 µPa/V)  [2.83  V @ 1. m]"	"Frequency / Hz"	"Sound Pressure Level / dB (re 20 µPa/V)  [2.83  V @ 1. m]"	"Frequency / Hz"	"Sound Pressure Level / dB (re 20 µPa/V)  [2.83  V @ 1. m]"	"Frequency / Hz"	"Sound Pressure Level / dB (re 20 µPa/V)  [2.83  V @ 1. m]"	"Frequency / Hz"	"Sound Pressure Level / dB (re 20 µPa/V)  [2.83  V @ 1. m]"	"Frequency / Hz"	"Sound Pressure Level / dB (re 20 µPa/V)  [2.83  V @ 1. m]"	"Frequency / Hz"	"Sound Pressure Level / dB (re 20 µPa/V)  [2.83  V @ 1. m]"	"Frequency / Hz"	"Sound Pressure Level / dB (re 20 µPa/V)  [2.83  V @ 1. m]"	"Frequency / Hz"	"Sound Pressure Level / dB (re 20 µPa/V)  [2.83  V @ 1. m]"	"Frequency / Hz"	"Sound Pressure Level / dB (re 20 µPa/V)  [2.83  V @ 1. m]"	"Frequency / Hz"	"Sound Pressure Level / dB (re 20 µPa/V)  [2.83  V @ 1. m]"	"Frequency / Hz"	"Sound Pressure Level / dB (re 20 µPa/V)  [2.83  V @ 1. m]"	"Frequency / Hz"	"Sound Pressure Level / dB (re 20 µPa/V)  [2.83  V @ 1. m]"	"Frequency / Hz"	"Sound Pressure Level / dB (re 20 µPa/V)  [2.83  V @ 1. m]"	"Frequency / Hz"	"Sound Pressure Level / dB (re 20 µPa/V)  [2.83  V @ 1. m]"	"Frequency / Hz"	"Sound Pressure Level / dB (re 20 µPa/V)  [2.83  V @ 1. m]"	"Frequency / Hz"	"Sound Pressure Level / dB (re 20 µPa/V)  [2.83  V @ 1. m]"	"Frequency / Hz"	"Sound Pressure Level / dB (re 20 µPa/V)  [2.83  V @ 1. m]"	"Frequency / Hz"	"Sound Pressure Level / dB (re 20 µPa/V)  [2.83  V @ 1. m]"	"Frequency / Hz"	"Sound Pressure Level / dB (re 20 µPa/V)  [2.83  V @ 1. m]"
20.5078	55.8934	20.5078	55.8599	20.5078	55.6991	20.5078	55.62	20.5078	55.2714	20.5078	55.2243	20.5078	54.6283	20.5078	54.7897	20.5078	53.8516	20.5078	54.5481	20.5078	53.1735	20.5078	54.8158	20.5078	53.0368	20.5078	55.7652	20.5078	53.8225	20.5078	57.2342	20.5078	55.3787	20.5078	58.906	20.5078	57.2327	20.5078	60.5448	20.5078	59.0533	20.5078	62.0333	20.5078	60.7051	20.5078	63.3241	20.5078	62.1507	20.5078	64.4012	20.5078	63.3868	20.5078	65.2603	20.5078	64.4181	20.5078	65.9008	20.5078	65.248	20.5078	66.3234	20.5078	65.8771	20.5078	66.5296	20.5078	66.3028	20.5078	66.5217
21.9727	59.9607	21.9727	59.9813	21.9727	59.8362	21.9727	59.9052	21.9727	59.6237	21.9727	59.7633	21.9727	59.3688	21.9727	59.6163	21.9727	59.1574	21.9727	59.5602	21.9727	59.1157	21.9727	59.7146	21.9727	59.3749	21.9727	60.1767	21.9727	59.9964	21.9727	60.9614	21.9727	60.9266	21.9727	61.9888	21.9727	62.0373	21.9727	63.1341	21.9727	63.2007	21.9727	64.2837	21.9727	64.3268	21.9727	65.3577	21.9727	65.3617	21.9727	66.307	21.9727	66.2751	21.9727	67.1027	21.9727	67.0485	21.9727	67.7285	21.9727	67.6688	21.9727	68.1751	21.9727	68.1255	21.9727	68.4379	21.9727	68.41	21.9727	68.5156
23.4375	62.0611	23.4375	62.0129	23.4375	62.0063	23.4375	61.8721	23.4375	61.855	23.4375	61.6695	23.4375	61.6338	23.4375	61.4637	23.4375	61.3961	23.4375	61.3462	23.4375	61.2293	23.4375	61.4299	23.4375	61.2484	23.4375	61.8061	23.4375	61.5565	23.4375	62.4892	23.4375	62.1865	23.4375	63.4055	23.4375	63.0762	23.4375	64.4394	23.4375	64.1093	23.4375	65.4851	23.4375	65.1723	23.4375	66.4671	23.4375	66.1823	23.4375	67.3381	23.4375	67.0878	23.4375	68.0693	23.4375	67.8589	23.4375	68.6435	23.4375	68.4782	23.4375	69.0503	23.4375	68.9359	23.4375	69.2839	23.4375	69.2252	23.4375	69.3421
24.9023	65.8971	24.9023	65.8975	24.9023	65.8408	24.9023	65.8478	24.9023	65.7345	24.9023	65.7647	24.9023	65.5962	24.9023	65.6778	24.9023	65.4585	24.9023	65.6304	24.9023	65.3696	24.9023	65.6754	24.9023	65.3877	24.9023	65.8648	24.9023	65.5675	24.9023	66.2313	24.9023	65.9385	24.9023	66.7721	24.9023	66.4909	24.9023	67.4481	24.9023	67.1794	24.9023	68.1982	24.9023	67.9411	24.9023	68.9584	24.9023	68.7144	24.9023	69.6731	24.9023	69.4479	24.9023	70.2997	24.9023	70.1021	24.9023	70.8073	24.9023	70.6475	24.9023	71.1743	24.9023	71.0618	24.9023	71.3873	24.9023	71.3291	24.9023	71.4392
26.3672	67.8542	26.3672	67.8266	26.3672	67.8226	26.3672	67.7438	26.3672	67.7367	26.3672	67.6193	26.3672	67.6109	26.3672	67.4782	26.3672	67.4709	26.3672	67.3594	26.3672	67.3556	26.3672	67.3139	26.3672	67.3157	26.3672	67.3971	26.3672	67.4059	26.3672	67.6522	26.3672	67.6681	26.3672	68.091	26.3672	68.1131	26.3672	68.6868	26.3672	68.7133	26.3672	69.3839	26.3672	69.4127	26.3672	70.1167	26.3672	70.1461	26.3672	70.825	26.3672	70.8534	26.3672	71.4608	26.3672	71.4865	26.3672	71.9886	26.3672	72.01	26.3672	72.3834	26.3672	72.3987	26.3672	72.6283	26.3672	72.6364	26.3672	72.7138
27.832	69.5352	27.832	69.5154	27.832	69.5075	27.832	69.4517	27.832	69.4373	27.832	69.3566	27.832	69.3384	27.832	69.2529	27.832	69.2354	27.832	69.1741	27.832	69.1633	27.832	69.1627	27.832	69.1655	27.832	69.2634	27.832	69.2852	27.832	69.5097	27.832	69.5516	27.832	69.9101	27.832	69.9678	27.832	70.442	27.832	70.5074	27.832	71.0593	27.832	71.1237	27.832	71.7061	27.832	71.7634	27.832	72.3302	27.832	72.3772	27.832	72.8891	27.832	72.9253	27.832	73.3517	27.832	73.3778	27.832	73.6967	27.832	73.7135	27.832	73.9102	27.832	73.9185	27.832	73.9849
29.2969	72.2986	29.2969	72.2897	29.2969	72.2829	29.2969	72.2591	29.2969	72.2464	29.2969	72.2173	29.2969	72.2004	29.2969	72.1822	29.2969	72.1634	29.2969	72.1786	29.2969	72.1606	29.2969	72.236	29.2969	72.2212	29.2969	72.3833	29.2969	72.373	29.2969	72.6406	29.2969	72.6348	29.2969	73.0122	29.2969	73.0091	29.2969	73.483	29.2969	73.4799	29.2969	74.0216	29.2969	74.016	29.2969	74.5879	29.2969	74.5786	29.2969	75.1406	29.2969	75.128	29.2969	75.6426	29.2969	75.6282	29.2969	76.0632	29.2969	76.0494	29.2969	76.3789	29.2969	76.368	29.2969	76.5733	29.2969	76.5674	29.2969	76.6371
30.7617	74.3097	30.7617	74.3031	30.7617	74.3022	30.7617	74.2854	30.7617	74.2838	30.7617	74.266	30.7617	74.2642	30.7617	74.2605	30.7617	74.2595	30.7617	74.2897	30.7617	74.2911	30.7617	74.3778	30.7617	74.3835	30.7617	74.5477	30.7617	74.559	30.7617	74.8147	30.7617	74.8315	30.7617	75.1812	30.7617	75.2015	30.7617	75.634	30.7617	75.654	30.7617	76.1462	30.7617	76.1618	30.7617	76.6828	30.7617	76.6909	30.7617	77.2068	30.7617	77.2066	30.7617	77.6835	30.7617	77.6764	30.7617	78.0836	30.7617	78.0729	30.7617	78.3842	30.7617	78.3739	30.7617	78.5692	30.7617	78.563	30.7617	78.6295
32.2266	76.6321	32.2266	76.6335	32.2266	76.6289	32.2266	76.6355	32.2266	76.6266	32.2266	76.645	32.2266	76.6325	32.2266	76.6732	32.2266	76.6584	32.2266	76.7348	32.2266	76.7195	32.2266	76.8464	32.2266	76.8324	32.2266	77.0227	32.2266	77.0118	32.2266	77.2734	32.2266	77.2662	32.2266	77.5992	32.2266	77.5949	32.2266	77.9899	32.2266	77.9868	32.2266	78.4256	32.2266	78.4219	32.2266	78.8798	32.2266	78.8742	32.2266	79.3235	32.2266	79.3157	32.2266	79.7285	32.2266	79.7194	32.2266	80.0702	32.2266	80.0613	32.2266	80.3284	32.2266	80.3213	32.2266	80.4883	32.2266	80.4844	32.2266	80.5413
33.6914	78.6895	33.6914	78.6919	33.6914	78.692	33.6914	78.701	33.6914	78.7016	33.6914	78.7217	33.6914	78.7234	33.6914	78.7622	33.6914	78.7659	33.6914	78.8329	33.6914	78.8398	33.6914	78.9453	33.6914	78.9564	33.6914	79.1097	33.6914	79.1255	33.6914	79.3325	33.6914	79.353	33.6914	79.6141	33.6914	79.6386	33.6914	79.9475	33.6914	79.9746	33.6914	80.318	33.6914	80.3462	33.6914	80.7057	33.6914	80.7335	33.6914	81.0874	33.6914	81.1132	33.6914	81.4395	33.6914	81.4621	33.6914	81.7401	33.6914	81.7582	33.6914	81.9703	33.6914	81.983	33.6914	82.1159	33.6914	82.1224	33.6914	82.1676
35.1562	80.2431	35.1562	80.2421	35.1562	80.2505	35.1562	80.2491	35.1562	80.2656	35.1562	80.2679	35.1562	80.2921	35.1562	80.3051	35.1562	80.3362	35.1562	80.3686	35.1562	80.4059	35.1562	80.4673	35.1562	80.5099	35.1562	80.6094	35.1562	80.6563	35.1562	80.8005	35.1562	80.8503	35.1562	81.0415	35.1562	81.093	35.1562	81.3275	35.1562	81.3792	35.1562	81.6477	35.1562	81.6979	35.1562	81.9857	35.1562	82.0328	35.1562	82.3221	35.1562	82.3644	35.1562	82.6356	35.1562	82.6715	35.1562	82.9058	35.1562	82.934	35.1562	83.1147	35.1562	83.134	35.1562	83.248	35.1562	83.2579	35.1562	83.2968
36.6211	81.2513	36.6211	81.2534	36.6211	81.2583	36.6211	81.2657	36.6211	81.2754	36.6211	81.2914	36.6211	81.3054	36.6211	81.3353	36.6211	81.3532	36.6211	81.4037	36.6211	81.425	36.6211	81.5034	36.6211	81.5275	36.6211	81.6406	36.6211	81.6669	36.6211	81.8197	36.6211	81.8474	36.6211	82.0414	36.6211	82.0695	36.6211	82.3017	36.6211	82.3293	36.6211	82.5916	36.6211	82.6177	36.6211	82.8972	36.6211	82.921	36.6211	83.2015	36.6211	83.2222	36.6211	83.4854	36.6211	83.5025	36.6211	83.7304	36.6211	83.7434	36.6211	83.9195	36.6211	83.9283	36.6211	84.0395	36.6211	84.0439	36.6211	84.0819
38.0859	82.0077	38.0859	82.0091	38.0859	82.018	38.0859	82.023	38.0859	82.0405	38.0859	82.0519	38.0859	82.0778	38.0859	82.0996	38.0859	82.1332	38.0859	82.171	38.0859	82.2116	38.0859	82.2714	38.0859	82.3178	38.0859	82.4055	38.0859	82.4563	38.0859	82.5765	38.0859	82.6298	38.0859	82.7845	38.0859	82.8386	38.0859	83.0258	38.0859	83.0788	38.0859	83.2924	38.0859	83.3428	38.0859	83.5721	38.0859	83.6186	38.0859	83.8501	38.0859	83.8915	38.0859	84.1097	38.0859	84.1449	38.0859	84.3342	38.0859	84.362	38.0859	84.5085	38.0859	84.5278	38.0859	84.6204	38.0859	84.6303	38.0859	84.662
39.5508	82.4887	39.5508	82.4909	39.5508	82.5037	39.5508	82.511	39.5508	82.5361	39.5508	82.5508	39.5508	82.5874	39.5508	82.613	39.5508	82.6597	39.5508	82.7008	39.5508	82.7557	39.5508	82.8175	39.5508	82.8783	39.5508	82.9656	39.5508	83.0295	39.5508	83.1463	39.5508	83.2104	39.5508	83.3581	39.5508	83.4198	39.5508	83.5965	39.5508	83.6536	39.5508	83.8538	39.5508	83.9047	39.5508	84.1191	39.5508	84.1629	39.5508	84.3791	39.5508	84.4157	39.5508	84.6196	39.5508	84.6488	39.5508	84.826	39.5508	84.8479	39.5508	84.9853	39.5508	84.9999	39.5508	85.0869	39.5508	85.0942	39.5508	85.1239
41.0156	83.3306	41.0156	83.3373	41.0156	83.3406	41.0156	83.3615	41.0156	83.3672	41.0156	83.4044	41.0156	83.4109	41.0156	83.4678	41.0156	83.473	41.0156	83.5535	41.0156	83.5551	41.0156	83.6633	41.0156	83.6591	41.0156	83.7984	41.0156	83.7868	41.0156	83.9588	41.0156	83.939	41.0156	84.1432	41.0156	84.1155	41.0156	84.3478	41.0156	84.3137	41.0156	84.5668	41.0156	84.5284	41.0156	84.7914	41.0156	84.7517	41.0156	85.0111	41.0156	84.9729	41.0156	85.2138	41.0156	85.1798	41.0156	85.3869	41.0156	85.3593	41.0156	85.5188	41.0156	85.4994	41.0156	85.6	41.0156	85.59	41.0156	85.6244
42.4805	83.7005	42.4805	83.711	42.4805	83.7075	42.4805	83.7395	42.4805	83.7321	42.4805	83.7864	42.4805	83.7743	42.4805	83.8525	42.4805	83.8349	42.4805	83.9386	42.4805	83.9146	42.4805	84.0454	42.4805	84.0142	42.4805	84.1731	42.4805	84.1348	42.4805	84.3216	42.4805	84.2764	42.4805	84.4892	42.4805	84.4385	42.4805	84.6731	42.4805	84.6188	42.4805	84.8682	42.4805	84.8127	42.4805	85.0674	42.4805	85.0137	42.4805	85.262	42.4805	85.2127	42.4805	85.4414	42.4805	85.3992	42.4805	85.5948	42.4805	85.5615	42.4805	85.7117	42.4805	85.6887	42.4805	85.7833	42.4805	85.7716	42.4805	85.8039
43.9453	83.9797	43.9453	83.9963	43.9453	83.9805	43.9453	84.0302	43.9453	83.9989	43.9453	84.0816	43.9453	84.0349	43.9453	84.1503	43.9453	84.0889	43.9453	84.2365	43.9453	84.1612	43.9453	84.3401	43.9453	84.2521	43.9453	84.4607	43.9453	84.362	43.9453	84.5979	43.9453	84.4906	43.9453	84.7499	43.9453	84.6373	43.9453	84.9142	43.9453	84.7998	43.9453	85.0866	43.9453	84.9745	43.9453	85.2614	43.9453	85.1557	43.9453	85.4309	43.9453	85.3358	43.9453	85.5863	43.9453	85.5054	43.9453	85.7181	43.9453	85.6544	43.9453	85.8169	43.9453	85.773	43.9453	85.875	43.9453	85.8526	43.9453	85.8874
45.4102	84.3615	45.4102	84.3799	45.4102	84.3599	45.4102	84.415	45.4102	84.3753	45.4102	84.4664	45.4102	84.4076	45.4102	84.5338	45.4102	84.4567	45.4102	84.6165	45.4102	84.5225	45.4102	84.7141	45.4102	84.6049	45.4102	84.8255	45.4102	84.7038	45.4102	84.95	45.4102	84.8188	45.4102	85.0857	45.4102	84.9489	45.4102	85.2304	45.4102	85.0923	45.4102	85.3805	45.4102	85.2458	45.4102	85.531	45.4102	85.4047	45.4102	85.6758	45.4102	85.5626	45.4102	85.8075	45.4102	85.7115	45.4102	85.9181	45.4102	85.8429	45.4102	85.9999	45.4102	85.9482	45.4102	86.0465	45.4102	86.0201	45.4102	86.0536
46.875	84.7024	46.875	84.7225	46.875	84.6981	46.875	84.7578	46.875	84.7096	46.875	84.808	46.875	84.7369	46.875	84.8721	46.875	84.7798	46.875	84.9493	46.875	84.8382	46.875	85.0388	46.875	84.9117	46.875	85.1394	46.875	84.9999	46.875	85.2501	46.875	85.1022	46.875	85.3693	46.875	85.2178	46.875	85.4951	46.875	85.3447	46.875	85.6244	46.875	85.4803	46.875	85.7534	46.875	85.6202	46.875	85.8769	46.875	85.759	46.875	85.9889	46.875	85.89	46.875	86.0825	46.875	86.0057	46.875	86.1513	46.875	86.0988	46.875	86.1896	46.875	86.1629	46.875	86.1938
48.3398	84.966	48.3398	84.9853	48.3398	84.9618	48.3398	85.0191	48.3398	84.9728	48.3398	85.0667	48.3398	84.9986	48.3398	85.1271	48.3398	85.0391	48.3398	85.1992	48.3398	85.0935	48.3398	85.2817	48.3398	85.1612	48.3398	85.3732	48.3398	85.2414	48.3398	85.4725	48.3398	85.3334	48.3398	85.5781	48.3398	85.436	48.3398	85.6883	48.3398	85.5477	48.3398	85.8007	48.3398	85.666	48.3398	85.9122	48.3398	85.7877	48.3398	86.0188	48.3398	85.9084	48.3398	86.1152	48.3398	86.0223	48.3398	86.1959	48.3398	86.1235	48.3398	86.255	48.3398	86.2053	48.3398	86.2875	48.3398	86.2622	48.3398	86.2902
51.2695	85.6182	51.2695	85.6373	51.2695	85.6149	51.2695	85.6717	51.2695	85.6273	51.2695	85.7204	51.2695	85.6551	51.2695	85.7823	51.2695	85.6973	51.2695	85.8556	51.2695	85.7528	51.2695	85.9386	51.2695	85.8204	51.2695	86.0297	51.2695	85.8985	51.2695	86.1269	51.2695	85.9859	51.2695	86.2285	51.2695	86.0814	51.2695	86.3326	51.2695	86.1835	51.2695	86.4369	51.2695	86.2905	51.2695	86.5385	51.2695	86.3999	51.2695	86.634	51.2695	86.5083	51.2695	86.719	51.2695	86.6112	51.2695	86.7886	51.2695	86.7033	51.2695	86.8381	51.2695	86.779	51.2695	86.8634	51.2695	86.8331	51.2695	86.8619
52.7344	85.7942	52.7344	85.8137	52.7344	85.7915	52.7344	85.8493	52.7344	85.8054	52.7344	85.9003	52.7344	85.8354	52.7344	85.9649	52.7344	85.8803	52.7344	86.0413	52.7344	85.9386	52.7344	86.1274	52.7344	86.0088	52.7344	86.2208	52.7344	86.089	52.7344	86.3193	52.7344	86.1776	52.7344	86.4206	52.7344	86.2729	52.7344	86.5225	52.7344	86.3734	52.7344	86.6228	52.7344	86.4773	52.7344	86.7188	52.7344	86.5821	52.7344	86.8075	52.7344	86.6848	52.7344	86.8854	52.7344	86.7814	52.7344	86.9487	52.7344	86.8672	52.7344	86.9933	52.7344	86.9374	52.7344	87.0159	52.7344	86.9875	52.7344	87.0141
54.1992	86.015	54.1992	86.0355	54.1992	86.0114	54.1992	86.0723	54.1992	86.0245	54.1992	86.1243	54.1992	86.0537	54.1992	86.1898	54.1992	86.0978	54.1992	86.2667	54.1992	86.1552	54.1992	86.3523	54.1992	86.224	54.1992	86.4442	54.1992	86.3022	54.1992	86.5397	54.1992	86.388	54.1992	86.6365	54.1992	86.4794	54.1992	86.7321	54.1992	86.5748	54.1992	86.8246	54.1992	86.6724	54.1992	86.9117	54.1992	86.7701	54.1992	86.991	54.1992	86.8651	54.1992	87.0598	54.1992	86.954	54.1992	87.115	54.1992	87.0329	54.1992	87.1535	54.1992	87.0975	54.1992	87.1722	54.1992	87.1439	54.1992	87.1692
55.6641	86.3195	55.6641	86.3367	55.6641	86.3187	55.6641	86.3699	55.6641	86.3342	55.6641	86.4179	55.6641	86.365	55.6641	86.479	55.6641	86.4098	55.6641	86.5508	55.6641	86.4666	55.6641	86.6309	55.6641	86.5334	55.6641	86.7165	55.6641	86.608	55.6641	86.805	55.6641	86.6883	55.6641	86.8939	55.6641	86.7725	55.6641	86.9813	55.6641	86.8589	55.6641	87.0651	55.6641	86.946	55.6641	87.1435	55.6641	87.0323	55.6641	87.2148	55.6641	87.1155	55.6641	87.2766	55.6641	87.1931	55.6641	87.3266	55.6641	87.2618	55.6641	87.3618	55.6641	87.3177	55.6641	87.3798	55.6641	87.3575	55.6641	87.3785
58.5938	86.78	58.5938	86.7907	58.5938	86.7855	58.5938	86.8174	58.5938	86.807	58.5938	86.8587	58.5938	86.8432	58.5938	86.9128	58.5938	86.8925	58.5938	86.9772	58.5938	86.9525	58.5938	87.0491	58.5938	87.0205	58.5938	87.1256	58.5938	87.0939	58.5938	87.2039	58.5938	87.1699	58.5938	87.2814	58.5938	87.2463	58.5938	87.356	58.5938	87.321	58.5938	87.4262	58.5938	87.3927	58.5938	87.4905	58.5938	87.4598	58.5938	87.5478	58.5938	87.5213	58.5938	87.5971	58.5938	87.5755	58.5938	87.637	58.5938	87.6208	58.5938	87.6662	58.5938	87.6555	58.5938	87.6834	58.5938	87.6781	58.5938	87.6875
60.0586	86.9549	60.0586	86.9622	60.0586	86.9633	60.0586	86.9849	60.0586	86.9868	60.0586	87.0218	60.0586	87.0243	60.0586	87.0711	60.0586	87.0737	60.0586	87.1304	60.0586	87.1327	60.0586	87.1968	60.0586	87.1985	60.0586	87.2673	60.0586	87.2681	60.0586	87.339	60.0586	87.3389	60.0586	87.4095	60.0586	87.4085	60.0586	87.4765	60.0586	87.475	60.0586	87.5385	60.0586	87.5369	60.0586	87.5945	60.0586	87.5932	60.0586	87.6437	60.0586	87.6431	60.0586	87.6855	60.0586	87.6856	60.0586	87.7193	60.0586	87.72	60.0586	87.7443	60.0586	87.7452	60.0586	87.76	60.0586	87.7605	60.0586	87.7655
62.9883	87.2802	62.9883	87.2837	62.9883	87.2915	62.9883	87.302	62.9883	87.3172	62.9883	87.3341	62.9883	87.3556	62.9883	87.3781	62.9883	87.4048	62.9883	87.4317	62.9883	87.462	62.9883	87.4919	62.9883	87.5244	62.9883	87.5554	62.9883	87.5888	62.9883	87.6192	62.9883	87.6524	62.9883	87.6804	62.9883	87.7126	62.9883	87.7368	62.9883	87.7675	62.9883	87.787	62.9883	87.8156	62.9883	87.8301	62.9883	87.8564	62.9883	87.8661	62.9883	87.8897	62.9883	87.8952	62.9883	87.9155	62.9883	87.918	62.9883	87.9343	62.9883	87.9349	62.9883	87.9465	62.9883	87.9463	62.9883	87.9523	62.9883	87.9522
64.4531	87.4151	64.4531	87.4163	64.4531	87.4284	64.4531	87.432	64.4531	87.4555	64.4531	87.4613	64.4531	87.495	64.4531	87.5023	64.4531	87.5446	64.4531	87.5526	64.4531	87.6018	64.4531	87.6093	64.4531	87.6635	64.4531	87.6693	64.4531	87.7265	64.4531	87.7292	64.4531	87.7878	64.4531	87.7863	64.4531	87.8447	64.4531	87.8384	64.4531	87.8953	64.4531	87.8839	64.4531	87.938	64.4531	87.9222	64.4531	87.9724	64.4531	87.9534	64.4531	87.9985	64.4531	87.9782	64.4531	88.0168	64.4531	87.9974	64.4531	88.0282	64.4531	88.0122	64.4531	88.0337	64.4531	88.0231	64.4531	88.0342	64.4531	88.0305
67.3828	87.7134	67.3828	87.7071	67.3828	87.7326	67.3828	87.714	67.3828	87.7639	67.3828	87.7333	67.3828	87.8057	67.3828	87.7638	67.3828	87.8556	67.3828	87.8031	67.3828	87.9111	67.3828	87.8486	67.3828	87.9689	67.3828	87.8972	67.3828	88.026	67.3828	87.9458	67.3828	88.0792	67.3828	87.9918	67.3828	88.1258	67.3828	88.0328	67.3828	88.1639	67.3828	88.0676	67.3828	88.1923	67.3828	88.0958	67.3828	88.2108	67.3828	88.1178	67.3828	88.2201	67.3828	88.135	67.3828	88.2215	67.3828	88.1489	67.3828	88.2168	67.3828	88.1611	67.3828	88.2079	67.3828	88.1729	67.3828	88.1968	67.3828	88.1848
68.8477	87.9013	68.8477	87.8933	68.8477	87.9215	68.8477	87.8976	68.8477	87.9529	68.8477	87.9136	68.8477	87.9939	68.8477	87.94	68.8477	88.0424	68.8477	87.9747	68.8477	88.0955	68.8477	88.0151	68.8477	88.1504	68.8477	88.0582	68.8477	88.2036	68.8477	88.1011	68.8477	88.2522	68.8477	88.141	68.8477	88.2935	68.8477	88.1759	68.8477	88.3254	68.8477	88.2045	68.8477	88.3471	68.8477	88.2267	68.8477	88.3584	68.8477	88.2432	68.8477	88.3602	68.8477	88.2554	68.8477	88.3544	68.8477	88.2653	68.8477	88.3431	68.8477	88.275	68.8477	88.3286	68.8477	88.2858	68.8477	88.3133	68.8477	88.2986
71.7773	88.1761	71.7773	88.1621	71.7773	88.2	71.7773	88.1582	71.7773	88.2329	71.7773	88.1638	71.7773	88.2732	71.7773	88.1779	71.7773	88.3187	71.7773	88.1986	71.7773	88.3669	71.7773	88.2236	71.7773	88.4147	71.7773	88.2501	71.7773	88.4587	71.7773	88.2755	71.7773	88.4958	71.7773	88.2974	71.7773	88.5233	71.7773	88.3141	71.7773	88.5392	71.7773	88.3248	71.7773	88.5424	71.7773	88.3298	71.7773	88.5333	71.7773	88.3305	71.7773	88.5133	71.7773	88.3293	71.7773	88.4851	71.7773	88.3292	71.7773	88.4521	71.7773	88.3331	71.7773	88.4181	71.7773	88.3434	71.7773	88.3869	71.7773	88.3614
74.707	88.4469	74.707	88.4347	74.707	88.4699	74.707	88.4331	74.707	88.5027	74.707	88.4414	74.707	88.5439	74.707	88.4579	74.707	88.5912	74.707	88.4805	74.707	88.6416	74.707	88.5062	74.707	88.6917	74.707	88.532	74.707	88.7378	74.707	88.5548	74.707	88.7759	74.707	88.5717	74.707	88.8026	74.707	88.5811	74.707	88.8155	74.707	88.5822	74.707	88.8131	74.707	88.5759	74.707	88.7957	74.707	88.5646	74.707	88.7654	74.707	88.5519	74.707	88.7255	74.707	88.5421	74.707	88.6806	74.707	88.5392	74.707	88.6359	74.707	88.5465	74.707	88.5963	74.707	88.5657
77.6367	88.6127	77.6367	88.6111	77.6367	88.625	77.6367	88.6199	77.6367	88.6475	77.6367	88.6381	77.6367	88.6789	77.6367	88.6639	77.6367	88.7173	77.6367	88.6947	77.6367	88.76	77.6367	88.7275	77.6367	88.8036	77.6367	88.7589	77.6367	88.8444	77.6367	88.7853	77.6367	88.8787	77.6367	88.8037	77.6367	88.9029	77.6367	88.8119	77.6367	88.9145	77.6367	88.809	77.6367	88.9119	77.6367	88.7957	77.6367	88.8955	77.6367	88.7745	77.6367	88.8673	77.6367	88.7494	77.6367	88.8309	77.6367	88.7254	77.6367	88.7914	77.6367	88.7075	77.6367	88.7541	77.6367	88.6999	77.6367	88.7241	77.6367	88.7054
79.1016	88.6638	79.1016	88.6659	79.1016	88.672	79.1016	88.678	79.1016	88.6902	79.1016	88.699	79.1016	88.7172	79.1016	88.7271	79.1016	88.7511	79.1016	88.7597	79.1016	88.7894	79.1016	88.7938	79.1016	88.8288	79.1016	88.8259	79.1016	88.8657	79.1016	88.8523	79.1016	88.8965	79.1016	88.8701	79.1016	88.9178	79.1016	88.8768	79.1016	88.927	79.1016	88.8716	79.1016	88.9228	79.1016	88.8552	79.1016	88.9056	79.1016	88.8301	79.1016	88.8776	79.1016	88.8002	79.1016	88.8426	79.1016	88.7707	79.1016	88.8055	79.1016	88.7469	79.1016	88.7717	79.1016	88.7333	79.1016	88.7463	79.1016	88.7329
82.0312	88.7457	82.0312	88.7465	82.0312	88.7542	82.0312	88.7564	82.0312	88.7718	82.0312	88.7745	82.0312	88.7972	82.0312	88.7989	82.0312	88.8287	82.0312	88.8273	82.0312	88.8637	82.0312	88.8566	82.0312	88.8991	82.0312	88.8834	82.0312	88.9313	82.0312	88.904	82.0312	88.9566	82.0312	88.9154	82.0312	88.9715	82.0312	88.9151	82.0312	88.9735	82.0312	88.9024	82.0312	88.9613	82.0312	88.8781	82.0312	88.9355	82.0312	88.845	82.0312	88.8987	82.0312	88.8075	82.0312	88.8549	82.0312	88.7713	82.0312	88.81	82.0312	88.7423	82.0312	88.7698	82.0312	88.7257	82.0312	88.7399	82.0312	88.7246
84.9609	88.8279	84.9609	88.833	84.9609	88.8318	84.9609	88.8466	84.9609	88.8445	84.9609	88.8676	84.9609	88.8652	84.9609	88.8944	84.9609	88.8926	84.9609	88.9246	84.9609	88.9244	84.9609	88.9553	84.9609	88.9577	84.9609	88.983	84.9609	88.989	84.9609	89.0042	84.9609	89.0144	84.9609	89.0156	84.9609	89.0302	84.9609	89.0148	84.9609	89.0336	84.9609	89.0008	84.9609	89.0232	84.9609	88.9745	84.9609	88.9992	84.9609	88.9387	84.9609	88.9641	84.9609	88.8979	84.9609	88.9221	84.9609	88.858	84.9609	88.879	84.9609	88.8253	84.9609	88.8408	84.9609	88.8051	84.9609	88.8134	84.9609	88.8008
87.8906	88.8046	87.8906	88.8144	87.8906	88.8018	87.8906	88.8307	87.8906	88.806	87.8906	88.8525	87.8906	88.8169	87.8906	88.8784	87.8906	88.8335	87.8906	88.9064	87.8906	88.8541	87.8906	88.9337	87.8906	88.8764	87.8906	88.9572	87.8906	88.8971	87.8906	88.9734	87.8906	88.9128	87.8906	88.9789	87.8906	88.9201	87.8906	88.9713	87.8906	88.9162	87.8906	88.9494	87.8906	88.8996	87.8906	88.9138	87.8906	88.8706	87.8906	88.8674	87.8906	88.8317	87.8906	88.815	87.8906	88.7871	87.8906	88.7631	87.8906	88.7429	87.8906	88.7185	87.8906	88.7057	87.8906	88.6878	87.8906	88.6815	87.8906	88.675
90.8203	88.7817	90.8203	88.7906	90.8203	88.7785	90.8203	88.8045	90.8203	88.7807	90.8203	88.8229	90.8203	88.7882	90.8203	88.8445	90.8203	88.8	90.8203	88.8676	90.8203	88.8147	90.8203	88.8896	90.8203	88.8302	90.8203	88.9075	90.8203	88.8435	90.8203	88.9179	90.8203	88.8514	90.8203	88.9176	90.8203	88.8507	90.8203	88.9041	90.8203	88.8388	90.8203	88.8761	90.8203	88.8145	90.8203	88.8343	90.8203	88.7782	90.8203	88.7815	90.8203	88.7327	90.8203	88.7228	90.8203	88.6827	90.8203	88.6648	90.8203	88.6343	90.8203	88.615	90.8203	88.5946	90.8203	88.5799	90.8203	88.5697	90.8203	88.5643
95.2148	88.6857	95.2148	88.6979	95.2148	88.6776	95.2148	88.7136	95.2148	88.6739	95.2148	88.7323	95.2148	88.6748	95.2148	88.753	95.2148	88.68	95.2148	88.7741	95.2148	88.6885	95.2148	88.7937	95.2148	88.6987	95.2148	88.809	95.2148	88.7081	95.2148	88.8169	95.2148	88.7134	95.2148	88.8141	95.2148	88.7115	95.2148	88.7982	95.2148	88.6996	95.2148	88.7678	95.2148	88.6761	95.2148	88.7236	95.2148	88.6411	95.2148	88.6684	95.2148	88.5971	95.2148	88.607	95.2148	88.5486	95.2148	88.5463	95.2148	88.5018	95.2148	88.4935	95.2148	88.4637	95.2148	88.4557	95.2148	88.4407	95.2148	88.4375
98.1445	88.5873	98.1445	88.6021	98.1445	88.5751	98.1445	88.6193	98.1445	88.5655	98.1445	88.6385	98.1445	88.5588	98.1445	88.6592	98.1445	88.5549	98.1445	88.6803	98.1445	88.5532	98.1445	88.6997	98.1445	88.5525	98.1445	88.7149	98.1445	88.5509	98.1445	88.7225	98.1445	88.5459	98.1445	88.7191	98.1445	88.5348	98.1445	88.7018	98.1445	88.5153	98.1445	88.6689	98.1445	88.4863	98.1445	88.6207	98.1445	88.4482	98.1445	88.5597	98.1445	88.4036	98.1445	88.4908	98.1445	88.3574	98.1445	88.421	98.1445	88.3156	98.1445	88.3578	98.1445	88.2849	98.1445	88.3087	98.1445	88.2714	98.1445	88.279
101.074	88.4467	101.074	88.4594	101.074	88.4338	101.074	88.4719	101.074	88.4206	101.074	88.4846	101.074	88.4073	101.074	88.4975	101.074	88.3939	101.074	88.5099	101.074	88.3803	101.074	88.5207	101.074	88.3656	101.074	88.5275	101.074	88.3485	101.074	88.5272	101.074	88.3272	101.074	88.5164	101.074	88.2998	101.074	88.492	101.074	88.2649	101.074	88.4519	101.074	88.2221	101.074	88.396	101.074	88.1727	101.074	88.3266	101.074	88.1197	101.074	88.2485	101.074	88.0681	101.074	88.1688	101.074	88.0242	101.074	88.0957	101.074	87.9946	101.074	88.0371	101.074	87.9851	101.074	87.9991
105.469	88.571	105.469	88.5665	105.469	88.5704	105.469	88.5569	105.469	88.5649	105.469	88.5425	105.469	88.5551	105.469	88.5238	105.469	88.5414	105.469	88.5009	105.469	88.5237	105.469	88.4734	105.469	88.5014	105.469	88.4404	105.469	88.473	105.469	88.4001	105.469	88.4363	105.469	88.3502	105.469	88.389	105.469	88.289	105.469	88.3293	105.469	88.2158	105.469	88.2565	105.469	88.1318	105.469	88.1718	105.469	88.0408	105.469	88.0787	105.469	87.9492	105.469	87.9831	105.469	87.8652	105.469	87.8931	105.469	87.7981	105.469	87.818	105.469	87.7561	105.469	87.7665	105.469	87.745
108.398	88.8551	108.398	88.8512	108.398	88.8533	108.398	88.8415	108.398	88.8457	108.398	88.8267	108.398	88.833	108.398	88.8073	108.398	88.8154	108.398	88.7835	108.398	88.7931	108.398	88.7552	108.398	88.7654	108.398	88.721	108.398	88.731	108.398	88.6792	108.398	88.6878	108.398	88.6275	108.398	88.6337	108.398	88.5639	108.398	88.5669	108.398	88.4877	108.398	88.4869	108.398	88.3998	108.398	88.3954	108.398	88.3041	108.398	88.2967	108.398	88.2067	108.398	88.1977	108.398	88.116	108.398	88.1071	108.398	88.0415	108.398	88.0343	108.398	87.9917	108.398	87.9878	108.398	87.973
112.793	88.7121	112.793	88.7186	112.793	88.7017	112.793	88.7208	112.793	88.6881	112.793	88.7188	112.793	88.672	112.793	88.7124	112.793	88.6541	112.793	88.7013	112.793	88.6347	112.793	88.6848	112.793	88.6129	112.793	88.6612	112.793	88.587	112.793	88.6284	112.793	88.5545	112.793	88.584	112.793	88.5125	112.793	88.5262	112.793	88.4584	112.793	88.4542	112.793	88.3912	112.793	88.3694	112.793	88.312	112.793	88.2757	112.793	88.2246	112.793	88.1792	112.793	88.1357	112.793	88.0885	112.793	88.0538	112.793	88.0126	112.793	87.9883	112.793	87.9603	112.793	87.9478	112.793	87.9378
117.188	88.5644	117.188	88.5781	117.188	88.5474	117.188	88.589	117.188	88.5271	117.188	88.5977	117.188	88.5039	117.188	88.6045	117.188	88.4782	117.188	88.6092	117.188	88.4505	117.188	88.6105	117.188	88.4206	117.188	88.6058	117.188	88.3874	117.188	88.5913	117.188	88.3491	117.188	88.5632	117.188	88.3036	117.188	88.5176	117.188	88.2491	117.188	88.4527	117.188	88.1847	117.188	88.3686	117.188	88.1117	117.188	88.2688	117.188	88.0336	117.188	88.1601	117.188	87.957	117.188	88.0518	117.188	87.8902	117.188	87.9548	117.188	87.8424	117.188	87.8795	117.188	87.8219	117.188	87.8339
120.117	88.5422	120.117	88.5421	120.117	88.5394	120.117	88.5397	120.117	88.5329	120.117	88.5364	120.117	88.5229	120.117	88.5332	120.117	88.5094	120.117	88.5304	120.117	88.4921	120.117	88.5271	120.117	88.4704	120.117	88.5209	120.117	88.4426	120.117	88.5081	120.117	88.4067	120.117	88.484	120.117	88.36	120.117	88.4444	120.117	88.3008	120.117	88.386	120.117	88.2282	120.117	88.3083	120.117	88.1438	120.117	88.2137	120.117	88.0519	120.117	88.1085	120.117	87.96	120.117	88.0022	120.117	87.878	120.117	87.9063	120.117	87.8166	120.117	87.8327	120.117	87.7856	120.117	87.7907
124.512	88.3929	124.512	88.3639	124.512	88.4234	124.512	88.3378	124.512	88.4545	124.512	88.3173	124.512	88.4862	124.512	88.3048	124.512	88.5187	124.512	88.3023	124.512	88.5516	124.512	88.3099	124.512	88.5836	124.512	88.3258	124.512	88.6118	124.512	88.3459	124.512	88.6324	124.512	88.3646	124.512	88.6413	124.512	88.3761	124.512	88.6345	124.512	88.3758	124.512	88.6097	124.512	88.3617	124.512	88.5668	124.512	88.3349	124.512	88.5087	124.512	88.3	124.512	88.4407	124.512	88.264	124.512	88.3705	124.512	88.2353	124.512	88.3067	124.512	88.2216	124.512	88.2575	124.512	88.2283
128.906	88.1492	128.906	88.1225	128.906	88.178	128.906	88.0979	128.906	88.2098	128.906	88.077	128.906	88.2466	128.906	88.0622	128.906	88.2901	128.906	88.0559	128.906	88.341	128.906	88.0595	128.906	88.3979	128.906	88.0731	128.906	88.4576	128.906	88.0943	128.906	88.5144	128.906	88.1193	128.906	88.562	128.906	88.1434	128.906	88.5937	128.906	88.1621	128.906	88.6045	128.906	88.173	128.906	88.5916	128.906	88.1761	128.906	88.5554	128.906	88.1743	128.906	88.4996	128.906	88.1733	128.906	88.4311	128.906	88.1797	128.906	88.3587	128.906	88.1998	128.906	88.2915	128.906	88.2371
133.301	87.7107	133.301	87.7248	133.301	87.7017	133.301	87.7431	133.301	87.7009	133.301	87.7669	133.301	87.7129	133.301	87.7985	133.301	87.7427	133.301	87.84	133.301	87.7938	133.301	87.8923	133.301	87.8671	133.301	87.9542	133.301	87.9594	133.301	88.0219	133.301	88.0639	133.301	88.0901	133.301	88.1711	133.301	88.1529	133.301	88.2708	133.301	88.2055	133.301	88.3539	133.301	88.2453	133.301	88.4138	133.301	88.2724	133.301	88.4477	133.301	88.2896	133.301	88.4564	133.301	88.3018	133.301	88.4445	133.301	88.3145	133.301	88.4188	133.301	88.3322	133.301	88.3873	133.301	88.3569
139.16	86.9736	139.16	86.9999	139.16	86.9464	139.16	87.0276	139.16	86.9208	139.16	87.0626	139.16	86.9031	139.16	87.1126	139.16	86.9023	139.16	87.1851	139.16	86.9277	139.16	87.2842	139.16	86.9862	139.16	87.4088	139.16	87.0798	139.16	87.5525	139.16	87.2043	139.16	87.7044	139.16	87.3507	139.16	87.8518	139.16	87.5067	139.16	87.983	139.16	87.6596	139.16	88.0892	139.16	87.799	139.16	88.1663	139.16	87.918	139.16	88.2144	139.16	88.0138	139.16	88.2373	139.16	88.0871	139.16	88.2406	139.16	88.1413	139.16	88.2302	139.16	88.1809	139.16	88.2099
143.555	86.4366	143.555	86.4332	143.555	86.4272	143.555	86.4212	143.555	86.4074	143.555	86.411	143.555	86.3862	143.555	86.4174	143.555	86.3768	143.555	86.456	143.555	86.3943	143.555	86.5388	143.555	86.4514	143.555	86.6706	143.555	86.555	143.555	86.8464	143.555	86.7032	143.555	87.0528	143.555	86.8865	143.555	87.2714	143.555	87.0895	143.555	87.4835	143.555	87.2959	143.555	87.6736	143.555	87.4909	143.555	87.8313	143.555	87.664	143.555	87.952	143.555	87.809	143.555	88.0357	143.555	87.9239	143.555	88.0855	143.555	88.0091	143.555	88.1054	143.555	88.0668	143.555	88.0987
147.949	86.1604	147.949	86.1393	147.949	86.1453	147.949	86.0863	147.949	86.0986	147.949	86.0141	147.949	86.0331	147.949	85.9431	147.949	85.9687	147.949	85.8987	147.949	85.9295	147.949	85.9059	147.949	85.9391	147.949	85.9827	147.949	86.0143	147.949	86.1341	147.949	86.1601	147.949	86.3496	147.949	86.3672	147.949	86.6074	147.949	86.6156	147.949	86.8806	147.949	86.8807	147.949	87.1444	147.949	87.139	147.949	87.3799	147.949	87.3721	147.949	87.5757	147.949	87.5682	147.949	87.727	147.949	87.7213	147.949	87.8331	147.949	87.8297	147.949	87.8955	147.949	87.894	147.949	87.9156
153.809	86.9427	153.809	86.9122	153.809	86.9016	153.809	86.8142	153.809	86.7916	153.809	86.66	153.809	86.6223	153.809	86.4688	153.809	86.4115	153.809	86.2683	153.809	86.1861	153.809	86.0928	153.809	85.9811	153.809	85.9782	153.809	85.8357	153.809	85.9533	153.809	85.784	153.809	86.03	153.809	85.8439	153.809	86.1992	153.809	86.0098	153.809	86.4341	153.809	86.2551	153.809	86.7001	153.809	86.5419	153.809	86.9642	153.809	86.8331	153.809	87.2007	153.809	87.099	153.809	87.393	153.809	87.3199	153.809	87.5314	153.809	87.4848	153.809	87.6114	153.809	87.5889	153.809	87.631
159.668	87.8266	159.668	87.7733	159.668	87.7971	159.668	87.6396	159.668	87.6868	159.668	87.4329	159.668	87.5022	159.668	87.167	159.668	87.2552	159.668	86.8641	159.668	86.9651	159.668	86.556	159.668	86.6595	159.668	86.2832	159.668	86.3746	159.668	86.0886	159.668	86.1513	159.668	86.0063	159.668	86.0266	159.668	86.0495	159.668	86.0217	159.668	86.2046	159.668	86.134	159.668	86.4367	159.668	86.3373	159.668	86.7024	159.668	86.592	159.668	86.9617	159.668	86.8567	159.668	87.184	159.668	87.0968	159.668	87.3492	159.668	87.2877	159.668	87.4456	159.668	87.4139	159.668	87.4675
165.527	88.4875	165.527	88.4472	165.527	88.4445	165.527	88.3241	165.527	88.3196	165.527	88.1211	165.527	88.1167	165.527	87.8446	165.527	87.843	165.527	87.5058	165.527	87.5104	165.527	87.1233	165.527	87.1377	165.527	86.7249	165.527	86.7525	165.527	86.3486	165.527	86.3908	165.527	86.0386	165.527	86.0936	165.527	85.836	165.527	85.8979	165.527	85.7642	165.527	85.8243	165.527	85.8189	165.527	85.8688	165.527	85.9682	165.527	86.0036	165.527	86.1658	165.527	86.1872	165.527	86.3656	165.527	86.3767	165.527	86.5314	165.527	86.5364	165.527	86.6395	165.527	86.6413	165.527	86.6773
171.387	88.6442	171.387	88.6122	171.387	88.6068	171.387	88.5123	171.387	88.4998	171.387	88.3476	171.387	88.325	171.387	88.123	171.387	88.0865	171.387	87.8468	171.387	87.7919	171.387	87.5314	171.387	87.4538	171.387	87.1953	171.387	87.0907	171.387	86.8632	171.387	86.7281	171.387	86.5639	171.387	86.3972	171.387	86.3263	171.387	86.1304	171.387	86.1712	171.387	85.9534	171.387	86.1049	171.387	85.8771	171.387	86.1163	171.387	85.8929	171.387	86.1801	171.387	85.9764	171.387	86.2641	171.387	86.0948	171.387	86.3377	171.387	86.216	171.387	86.3774	171.387	86.3137	171.387	86.3702
177.246	88.3014	177.246	88.2434	177.246	88.2876	177.246	88.1134	177.246	88.2043	177.246	87.9132	177.246	88.056	177.246	87.6479	177.246	87.8497	177.246	87.3265	177.246	87.5954	177.246	86.9643	177.246	87.3072	177.246	86.5843	177.246	87.0035	177.246	86.2182	177.246	86.7073	177.246	85.9037	177.246	86.4444	177.246	85.6772	177.246	86.24	177.246	85.5631	177.246	86.1122	177.246	85.5643	177.246	86.0661	177.246	85.6612	177.246	86.0909	177.246	85.8187	177.246	86.1627	177.246	85.9971	177.246	86.2515	177.246	86.1612	177.246	86.3276	177.246	86.2856	177.246	86.3675	177.246	86.3556
183.105	88.2278	183.105	88.2189	183.105	88.1587	183.105	88.1328	183.105	88.0127	183.105	87.9717	183.105	87.7929	183.105	87.7398	183.105	87.5059	183.105	87.4445	183.105	87.163	183.105	87.0977	183.105	86.782	183.105	86.7182	183.105	86.3895	183.105	86.333	183.105	86.0202	183.105	85.9772	183.105	85.7135	183.105	85.6892	183.105	85.5055	183.105	85.5022	183.105	85.4167	183.105	85.4326	183.105	85.4439	183.105	85.4731	183.105	85.5599	183.105	85.5949	183.105	85.7233	183.105	85.7572	183.105	85.8905	183.105	85.918	183.105	86.0251	183.105	86.0429	183.105	86.1019	183.105	86.108
188.965	88.5083	188.965	88.4716	188.965	88.4613	188.965	88.3528	188.965	88.3293	188.965	88.1543	188.965	88.112	188.965	87.8801	188.965	87.8106	188.965	87.5368	188.965	87.4292	188.965	87.1363	188.965	86.9775	188.965	86.6978	188.965	86.4744	188.965	86.2503	188.965	85.9515	188.965	85.8326	188.965	85.4556	188.965	85.4883	188.965	85.0453	188.965	85.2549	188.965	84.7768	188.965	85.1505	188.965	84.6826	188.965	85.1658	188.965	84.7535	188.965	85.2674	188.965	84.941	188.965	85.4087	188.965	85.1777	188.965	85.5425	188.965	85.4001	188.965	85.6289	188.965	85.5624	188.965	85.64
196.289	88.9994	196.289	88.9711	196.289	88.9587	196.289	88.8737	196.289	88.8486	196.289	88.7066	196.289	88.6681	196.289	88.4692	196.289	88.4155	196.289	88.1614	196.289	88.09	196.289	87.7856	196.289	87.6934	196.289	87.3487	196.289	87.2338	196.289	86.8661	196.289	86.7299	196.289	86.3651	196.289	86.2146	196.289	85.8863	196.289	85.7349	196.289	85.4787	196.289	85.3425	196.289	85.1853	196.289	85.0774	196.289	85.0247	196.289	84.9498	196.289	84.9815	196.289	84.9364	196.289	85.0151	196.289	84.992	196.289	85.0778	196.289	85.0685	196.289	85.1312	196.289	85.1286	196.289	85.1512
203.613	88.7265	203.613	88.6789	203.613	88.6968	203.613	88.5536	203.613	88.5912	203.613	88.352	203.613	88.4118	203.613	88.0773	203.613	88.1611	203.613	87.7356	203.613	87.8417	203.613	87.3365	203.613	87.4573	203.613	86.8952	203.613	87.0145	203.613	86.4339	203.613	86.5268	203.613	85.9831	203.613	86.0185	203.613	85.5797	203.613	85.5293	203.613	85.2623	203.613	85.1123	203.613	85.0602	203.613	84.8212	203.613	84.9819	203.613	84.6881	203.613	85.0078	203.613	84.7052	203.613	85.094	203.613	84.8268	203.613	85.1871	203.613	84.9898	203.613	85.2404	203.613	85.136	203.613	85.2254
210.938	88.3102	210.938	88.2716	210.938	88.274	210.938	88.1569	210.938	88.1646	210.938	87.9652	210.938	87.9836	210.938	87.697	210.938	87.7331	210.938	87.3548	210.938	87.4161	210.938	86.9445	210.938	87.0387	210.938	86.4784	210.938	86.6116	210.938	85.9783	210.938	86.1537	210.938	85.4797	210.938	85.6946	210.938	85.0308	210.938	85.2748	210.938	84.6851	210.938	84.9406	210.938	84.4841	210.938	84.7299	210.938	84.4388	210.938	84.6559	210.938	84.5228	210.938	84.6983	210.938	84.6825	210.938	84.8107	210.938	84.8558	210.938	84.9373	210.938	84.9896	210.938	85.0286	210.938	85.0504
218.262	88.2227	218.262	88.2166	218.262	88.1678	218.262	88.1474	218.262	88.0529	218.262	88.0112	218.262	87.8774	218.262	87.8034	218.262	87.6404	218.262	87.5194	218.262	87.3412	218.262	87.1565	218.262	86.9806	218.262	86.7154	218.262	86.5623	218.262	86.2042	218.262	86.095	218.262	85.6433	218.262	85.5963	218.262	85.0708	218.262	85.0956	218.262	84.5444	218.262	84.6366	218.262	84.1325	218.262	84.2714	218.262	83.889	218.262	84.0436	218.262	83.8245	218.262	83.9653	218.262	83.8962	218.262	84.0052	218.262	84.0295	218.262	84.1007	218.262	84.1498	218.262	84.1843	218.262	84.2068
225.586	88.1249	225.586	88.1425	225.586	88.0349	225.586	88.089	225.586	87.8728	225.586	87.9658	225.586	87.6402	225.586	87.7747	225.586	87.3409	225.586	87.5174	225.586	86.9807	225.586	87.1967	225.586	86.5689	225.586	86.8181	225.586	86.1205	225.586	86.3929	225.586	85.6588	225.586	85.9412	225.586	85.2178	225.586	85.4946	225.586	84.8395	225.586	85.0942	225.586	84.5646	225.586	84.7828	225.586	84.4183	225.586	84.5906	225.586	84.3978	225.586	84.5224	225.586	84.4718	225.586	84.5538	225.586	84.5917	225.586	84.6403	225.586	84.707	225.586	84.7317	225.586	84.7784	225.586	84.7859
232.91	88.3006	232.91	88.2999	232.91	88.2241	232.91	88.2263	232.91	88.0656	232.91	88.0832	232.91	87.8207	232.91	87.8721	232.91	87.485	232.91	87.5926	232.91	87.0545	232.91	87.2427	232.91	86.5269	232.91	86.8216	232.91	85.9048	232.91	86.3332	232.91	85.203	232.91	85.7931	232.91	84.4596	232.91	85.2346	232.91	83.749	232.91	84.7122	232.91	83.1803	232.91	84.2923	232.91	82.8614	232.91	84.0285	232.91	82.8329	232.91	83.9308	232.91	83.0353	232.91	83.9564	232.91	83.3504	232.91	84.0308	232.91	83.6667	232.91	84.0797	232.91	83.9108	232.91	84.0489
241.699	87.8971	241.699	87.8001	241.699	87.9339	241.699	87.6453	241.699	87.907	241.699	87.4352	241.699	87.8118	241.699	87.1724	241.699	87.6411	241.699	86.8595	241.699	87.3857	241.699	86.4993	241.699	87.0354	241.699	86.0965	241.699	86.5808	241.699	85.6607	241.699	86.018	241.699	85.2096	241.699	85.3539	241.699	84.771	241.699	84.6155	241.699	84.3792	241.699	83.8596	241.699	84.0641	241.699	83.1774	241.699	83.8382	241.699	82.6785	241.699	83.6898	241.699	82.4421	241.699	83.5882	241.699	82.466	241.699	83.4928	241.699	82.6663	241.699	83.365	241.699	82.932	241.699	83.1782
250.488	87.105	250.488	86.9965	250.488	87.1484	250.488	86.8217	250.488	87.1296	250.488	86.5811	250.488	87.0518	250.488	86.2777	250.488	86.9173	250.488	85.9172	250.488	86.7256	250.488	85.5085	250.488	86.4729	250.488	85.0639	250.488	86.1522	250.488	84.5992	250.488	85.7567	250.488	84.1335	250.488	85.2854	250.488	83.6912	250.488	84.7501	250.488	83.3041	250.488	84.1847	250.488	83.0102	250.488	83.6482	250.488	82.8397	250.488	83.2151	250.488	82.7949	250.488	82.9442	250.488	82.8401	250.488	82.8436	250.488	82.9177	250.488	82.864	250.488	82.9739	250.488	82.9301	250.488	82.978
259.277	88.5628	259.277	88.5001	259.277	88.5258	259.277	88.3343	259.277	88.3932	259.277	88.0626	259.277	88.1691	259.277	87.682	259.277	87.857	259.277	87.1885	259.277	87.4591	259.277	86.5786	259.277	86.9779	259.277	85.8542	259.277	86.4186	259.277	85.0347	259.277	85.7936	259.277	84.1748	259.277	85.1284	259.277	83.3788	259.277	84.4679	259.277	82.7866	259.277	83.8787	259.277	82.5077	259.277	83.4387	259.277	82.5448	259.277	83.2071	259.277	82.7961	259.277	83.1886	259.277	83.1288	259.277	83.3232	259.277	83.4348	259.277	83.5147	259.277	83.6449	259.277	83.6703	259.277	83.7242
268.066	88.1488	268.066	88.15	268.066	88.0968	268.066	88.0987	268.066	87.996	268.066	87.9932	268.066	87.8489	268.066	87.8294	268.066	87.6577	268.066	87.5997	268.066	87.4221	268.066	87.2913	268.066	87.1375	268.066	86.8867	268.066	86.7947	268.066	86.3678	268.066	86.3819	268.066	85.722	268.066	85.8888	268.066	84.9548	268.066	85.3135	268.066	84.1059	268.066	84.6703	268.066	83.2664	268.066	83.9984	268.066	82.5759	268.066	83.3661	268.066	82.1632	268.066	82.8591	268.066	82.0513	268.066	82.5406	268.066	82.1343	268.066	82.4053	268.066	82.2655	268.066	82.3751	268.066	82.3495
276.855	86.4535	276.855	86.4723	276.855	86.3575	276.855	86.4154	276.855	86.196	276.855	86.2972	276.855	85.991	276.855	86.1405	276.855	85.77	276.855	85.9699	276.855	85.559	276.855	85.802	276.855	85.3736	276.855	85.6376	276.855	85.2152	276.855	85.4623	276.855	85.0715	276.855	85.2527	276.855	84.9236	276.855	84.9875	276.855	84.752	276.855	84.6561	276.855	84.5411	276.855	84.2637	276.855	84.2799	276.855	83.8317	276.855	83.9645	276.855	83.3949	276.855	83.6031	276.855	82.9976	276.855	83.2227	276.855	82.6868	276.855	82.871	276.855	82.5035	276.855	82.6055	276.855	82.475
287.109	88.9387	287.109	88.861	287.109	88.8683	287.109	88.6399	287.109	88.6427	287.109	88.2768	287.109	88.2542	287.109	87.7724	287.109	87.6983	287.109	87.134	287.109	86.98	287.109	86.3867	287.109	86.1253	287.109	85.5909	287.109	85.1995	287.109	84.8589	287.109	84.3307	287.109	84.3468	287.109	83.7095	287.109	84.1889	287.109	83.5133	287.109	84.4024	287.109	83.7755	287.109	84.8729	287.109	84.3573	287.109	85.4421	287.109	85.0633	287.109	85.9882	287.109	85.7429	287.109	86.4438	287.109	86.309	287.109	86.78	287.109	86.7211	287.109	86.9855	287.109	86.9673	287.109	87.0516
297.363	89.1155	297.363	89.0419	297.363	89.1012	297.363	88.8815	297.363	88.9906	297.363	88.6286	297.363	88.7672	297.363	88.2704	297.363	88.4074	297.363	87.788	297.363	87.8828	297.363	87.1594	297.363	87.1655	297.363	86.3673	297.363	86.2367	297.363	85.417	297.363	85.1008	297.363	84.3706	297.363	83.8142	297.363	83.3941	297.363	82.5427	297.363	82.7579	297.363	81.6165	297.363	82.6761	297.363	81.4	297.363	83.0911	297.363	81.9161	297.363	83.7416	297.363	82.8092	297.363	84.3865	297.363	83.7222	297.363	84.8847	297.363	84.4649	297.363	85.1664	297.363	84.9639	297.363	85.1976
307.617	89.1939	307.617	89.1264	307.617	89.2099	307.617	88.9947	307.617	89.1781	307.617	88.7796	307.617	89.091	307.617	88.4571	307.617	88.9276	307.617	87.9998	307.617	88.6536	307.617	87.3795	307.617	88.2253	307.617	86.5699	307.617	87.5983	307.617	85.5544	307.617	86.7382	307.617	84.3449	307.617	85.6377	307.617	83.0299	307.617	84.3458	307.617	81.8502	307.617	83.017	307.617	81.1882	307.617	81.9518	307.617	81.2533	307.617	81.4865	307.617	81.8122	307.617	81.6782	307.617	82.4795	307.617	82.2349	307.617	83.0192	307.617	82.8203	307.617	83.3412	307.617	83.2393	307.617	83.4175
319.336	88.4258	319.336	88.4245	319.336	88.3933	319.336	88.3874	319.336	88.3231	319.336	88.3038	319.336	88.2074	319.336	88.1517	319.336	88.0343	319.336	87.897	319.336	87.787	319.336	87.4964	319.336	87.441	319.336	86.9039	319.336	86.9601	319.336	86.0817	319.336	86.2973	319.336	85.0152	319.336	85.4043	319.336	83.7424	319.336	84.2593	319.336	82.4106	319.336	82.9311	319.336	81.3471	319.336	81.6888	319.336	80.972	319.336	81.0194	319.336	81.3852	319.336	81.2127	319.336	82.2117	319.336	81.9677	319.336	83.0114	319.336	82.7971	319.336	83.5294	319.336	83.4058	319.336	83.6653
329.59	88.2111	329.59	88.2263	329.59	88.1379	329.59	88.1818	329.59	88.0114	329.59	88.0776	329.59	87.8371	329.59	87.9096	329.59	87.6164	329.59	87.664	329.59	87.3429	329.59	87.3131	329.59	86.9999	329.59	86.8181	329.59	86.5608	329.59	86.1385	329.59	85.9937	329.59	85.2475	329.59	85.2721	329.59	84.1563	329.59	84.3941	329.59	82.9525	329.59	83.4136	329.59	81.8474	329.59	82.4753	329.59	81.1564	329.59	81.8098	329.59	81.0847	329.59	81.6059	329.59	81.5004	329.59	81.8289	329.59	82.0695	329.59	82.2404	329.59	82.5161	329.59	82.5849	329.59	82.6981
341.309	88.5001	341.309	88.4811	341.309	88.4332	341.309	88.3802	341.309	88.287	341.309	88.2084	341.309	88.0765	341.309	87.9768	341.309	87.8161	341.309	87.6893	341.309	87.5089	341.309	87.3356	341.309	87.1389	341.309	86.8862	341.309	86.6697	341.309	86.2937	341.309	86.0511	341.309	85.5034	341.309	85.2348	341.309	84.482	341.309	84.2046	341.309	83.2774	341.309	83.0353	341.309	82.1233	341.309	81.9724	341.309	81.4645	341.309	81.4028	341.309	81.5758	341.309	81.5184	341.309	82.1782	341.309	82.0748	341.309	82.8136	341.309	82.696	341.309	83.2266	341.309	83.1503	341.309	83.3392
353.027	88.5514	353.027	88.5473	353.027	88.5116	353.027	88.5031	353.027	88.4226	353.027	88.4183	353.027	88.2766	353.027	88.2835	353.027	88.0602	353.027	88.0765	353.027	87.7505	353.027	87.7606	353.027	87.3166	353.027	87.2856	353.027	86.7247	353.027	86.5955	353.027	85.945	353.027	85.643	353.027	84.9552	353.027	84.4192	353.027	83.7514	353.027	83.0024	353.027	82.3899	353.027	81.6276	353.027	81.0938	353.027	80.6979	353.027	80.3254	353.027	80.537	353.027	80.434	353.027	81.0322	353.027	81.1502	353.027	81.7604	353.027	81.9387	353.027	82.354	353.027	82.4691	353.027	82.6139
366.211	87.8842	366.211	87.7394	366.211	87.9407	366.211	87.5276	366.211	87.9151	366.211	87.2938	366.211	87.8305	366.211	87.0816	366.211	87.7074	366.211	86.9032	366.211	87.5452	366.211	86.7274	366.211	87.3148	366.211	86.4942	366.211	86.9641	366.211	86.1322	366.211	86.4316	366.211	85.565	366.211	85.6581	366.211	84.7234	366.211	84.5957	366.211	83.5896	366.211	83.2329	366.211	82.3022	366.211	81.6772	366.211	81.2836	366.211	80.3421	366.211	81.0377	366.211	79.925	366.211	81.5064	366.211	80.5532	366.211	82.1582	366.211	81.5362	366.211	82.599	366.211	82.306	366.211	82.6665
379.395	88.046	379.395	88.0053	379.395	87.9801	379.395	87.8651	379.395	87.8104	379.395	87.6396	379.395	87.5542	379.395	87.3478	379.395	87.245	379.395	87.0061	379.395	86.9243	379.395	86.6116	379.395	86.621	379.395	86.1287	379.395	86.3213	379.395	85.4945	379.395	85.9535	379.395	84.6417	379.395	85.4046	379.395	83.5234	379.395	84.559	379.395	82.1324	379.395	83.3435	379.395	80.5532	379.395	81.8035	379.395	79.1277	379.395	80.272	379.395	78.5604	379.395	79.457	379.395	79.1542	379.395	79.7242	379.395	80.213	379.395	80.5029	379.395	81.0327	379.395	81.1426	379.395	81.3508
392.578	87.4	392.578	87.3736	392.578	87.3913	392.578	87.3076	392.578	87.3596	392.578	87.2063	392.578	87.3164	392.578	87.0775	392.578	87.2629	392.578	86.9196	392.578	87.1804	392.578	86.7097	392.578	87.0273	392.578	86.3994	392.578	86.7454	392.578	85.9218	392.578	86.2716	392.578	85.2055	392.578	85.5461	392.578	84.1941	392.578	84.5137	392.578	82.8774	392.578	83.1269	392.578	81.3566	392.578	81.3773	392.578	79.9448	392.578	79.4238	392.578	79.1308	392.578	77.8805	392.578	79.1138	392.578	77.6209	392.578	79.521	392.578	78.4272	392.578	79.861	392.578	79.3326	392.578	79.8373
405.762	87.205	405.762	87.2611	405.762	87.0641	405.762	87.2458	405.762	86.8392	405.762	87.1823	405.762	86.5533	405.762	87.0969	405.762	86.2597	405.762	87.0058	405.762	86.0294	405.762	86.897	405.762	85.9022	405.762	86.7214	405.762	85.8348	405.762	86.3969	405.762	85.7094	405.762	85.8227	405.762	85.3989	405.762	84.8949	405.762	84.8246	405.762	83.5366	405.762	83.9818	405.762	81.7839	405.762	82.9568	405.762	80.0005	405.762	81.9544	405.762	78.9989	405.762	81.267	405.762	79.1756	405.762	81.0547	405.762	79.9072	405.762	81.1413	405.762	80.5965	405.762	81.2041	405.762	81.0408
420.41	87.8541	420.41	87.6859	420.41	87.8771	420.41	87.3929	420.41	87.7625	420.41	87.0289	420.41	87.5364	420.41	86.6751	420.41	87.2353	420.41	86.4058	420.41	86.8935	420.41	86.2331	420.41	86.524	420.41	86.0765	420.41	86.0997	420.41	85.8001	420.41	85.5522	420.41	85.2805	420.41	84.7918	420.41	84.4479	420.41	83.7271	420.41	83.2863	420.41	82.2716	420.41	81.8293	420.41	80.363	420.41	80.2261	420.41	78.1374	420.41	78.9273	420.41	76.5148	420.41	78.5797	420.41	76.8465	420.41	79.1224	420.41	78.3064	420.41	79.7798	420.41	79.4911	420.41	79.9789
435.059	88.2218	435.059	88.0636	435.059	88.1774	435.059	87.71	435.059	87.9586	435.059	87.1949	435.059	87.633	435.059	86.5706	435.059	87.2956	435.059	85.9023	435.059	87.0301	435.059	85.2674	435.059	86.8591	435.059	84.7459	435.059	86.7255	435.059	84.3751	435.059	86.5204	435.059	84.0812	435.059	86.1248	435.059	83.6776	435.059	85.4361	435.059	82.952	435.059	84.3786	435.059	81.7786	435.059	82.9136	435.059	80.2575	435.059	81.085	435.059	78.9198	435.059	79.1865	435.059	78.5162	435.059	78.0016	435.059	78.9546	435.059	78.1366	435.059	79.4381	435.059	78.9177	435.059	79.4578
451.172	87.8365	451.172	87.8417	451.172	87.7096	451.172	87.7562	451.172	87.4569	451.172	87.6145	451.172	87.1199	451.172	87.4456	451.172	86.7803	451.172	87.2731	451.172	86.5262	451.172	87.1018	451.172	86.4052	451.172	86.8892	451.172	86.3978	451.172	86.5414	451.172	86.4211	451.172	85.9545	451.172	86.3525	451.172	85.0828	451.172	86.0621	451.172	83.9902	451.172	85.4486	451.172	82.837	451.172	84.479	451.172	81.7814	451.172	83.2352	451.172	80.9167	451.172	81.9501	451.172	80.3579	451.172	80.9517	451.172	80.2074	451.172	80.4512	451.172	80.3126	451.172	80.3593	451.172	80.3852
465.82	88.2724	465.82	88.0749	465.82	88.2475	465.82	87.6805	465.82	87.9994	465.82	87.1556	465.82	87.5419	465.82	86.6071	465.82	86.912	465.82	86.157	465.82	86.1911	465.82	85.8995	465.82	85.5084	465.82	85.8476	465.82	84.9777	465.82	85.8854	465.82	84.5902	465.82	85.7893	465.82	84.1991	465.82	85.3254	465.82	83.6344	465.82	84.3405	465.82	82.8281	465.82	82.8379	465.82	81.8995	465.82	81.1319	465.82	81.1819	465.82	79.9966	465.82	81.0299	465.82	80.025	465.82	81.4148	465.82	80.7783	465.82	81.9359	465.82	81.5817	465.82	82.222	465.82	82.1045
483.398	89.0428	483.398	88.8743	483.398	89.0128	483.398	88.4933	483.398	88.7862	483.398	87.8855	483.398	88.364	483.398	87.0657	483.398	87.7715	483.398	86.1098	483.398	87.0747	483.398	85.1651	483.398	86.3678	483.398	84.3923	483.398	85.7257	483.398	83.8609	483.398	85.1562	483.398	83.5245	483.398	84.5987	483.398	83.2688	483.398	83.9584	483.398	82.9263	483.398	83.1295	483.398	82.3083	483.398	82.0247	483.398	81.3488	483.398	80.6844	483.398	80.3602	483.398	79.4883	483.398	80.0155	483.398	79.0874	483.398	80.4024	483.398	79.5692	483.398	80.8249	483.398	80.3169	483.398	80.8108
499.512	88.0239	499.512	87.9921	499.512	87.9106	499.512	87.8568	499.512	87.6523	499.512	87.6567	499.512	87.2952	499.512	87.3831	499.512	86.9001	499.512	86.9877	499.512	86.5058	499.512	86.4384	499.512	86.1182	499.512	85.7576	499.512	85.7259	499.512	84.9958	499.512	85.3098	499.512	84.1588	499.512	84.8231	499.512	83.171	499.512	84.169	499.512	81.9384	499.512	83.231	499.512	80.4955	499.512	81.9666	499.512	79.1822	499.512	80.5526	499.512	78.5883	499.512	79.4924	499.512	78.8774	499.512	79.2581	499.512	79.5362	499.512	79.6411	499.512	80.0678	499.512	80.0864	499.512	80.2625
517.09	88.2903	517.09	88.1819	517.09	88.1525	517.09	87.8505	517.09	87.7459	517.09	87.3259	517.09	87.0875	517.09	86.6925	517.09	86.2831	517.09	86.1217	517.09	85.5467	517.09	85.7837	517.09	85.1085	517.09	85.6833	517.09	85.0127	517.09	85.6528	517.09	85.0595	517.09	85.4915	517.09	84.9856	517.09	85.0302	517.09	84.6092	517.09	84.1121	517.09	83.8396	517.09	82.619	517.09	82.6678	517.09	80.6554	517.09	81.2504	517.09	78.9397	517.09	80.0715	517.09	78.4745	517.09	79.6807	517.09	78.965	517.09	79.8921	517.09	79.5699	517.09	80.0869	517.09	79.9758
536.133	89.7077	536.133	89.577	536.133	89.6072	536.133	89.2156	536.133	89.2883	536.133	88.6374	536.133	88.777	536.133	87.8687	536.133	88.1111	536.133	86.9572	536.133	87.323	536.133	86.0005	536.133	86.4256	536.133	85.1438	536.133	85.4495	536.133	84.4662	536.133	84.5012	536.133	83.8583	536.133	83.681	536.133	83.11	536.133	82.868	536.133	82.1201	536.133	81.7476	536.133	81.0184	536.133	80.1396	536.133	80.1782	536.133	78.4629	536.133	80.063	536.133	78.0682	536.133	80.7761	536.133	79.3791	536.133	81.838	536.133	81.0701	536.133	82.6462	536.133	82.3037	536.133	82.8416
555.176	89.0789	555.176	88.9681	555.176	88.977	555.176	88.6581	555.176	88.68	555.176	88.2061	555.176	88.2078	555.176	87.6707	555.176	87.5927	555.176	87.0719	555.176	86.9213	555.176	86.4313	555.176	86.3456	555.176	85.8133	555.176	86.0027	555.176	85.2463	555.176	85.8662	555.176	84.64	555.176	85.7079	555.176	83.8469	555.176	85.2366	555.176	82.7286	555.176	84.2425	555.176	81.1566	555.176	82.6641	555.176	79.1903	555.176	80.6665	555.176	77.6414	555.176	78.8729	555.176	77.6799	555.176	78.3381	555.176	78.7047	555.176	79.0371	555.176	79.61	555.176	79.8058	555.176	80.0165
574.219	89.2907	574.219	89.1348	574.219	89.2255	574.219	88.7735	574.219	88.9306	574.219	88.2251	574.219	88.4241	574.219	87.5568	574.219	87.7528	574.219	86.9132	574.219	86.9961	574.219	86.4131	574.219	86.2832	574.219	86.0485	574.219	85.732	574.219	85.7856	574.219	85.2877	574.219	85.5595	574.219	84.7472	574.219	85.096	574.219	83.9838	574.219	84.0317	574.219	82.9919	574.219	82.2232	574.219	81.7555	574.219	80.0921	574.219	80.4294	574.219	79.2062	574.219	79.829	574.219	80.575	574.219	80.5522	574.219	82.4724	574.219	81.8435	574.219	83.5852	574.219	82.9984	574.219	83.6875
594.727	89.1379	594.727	89.076	594.727	89.0151	594.727	88.7746	594.727	88.7079	594.727	88.161	594.727	88.1499	594.727	87.1827	594.727	87.2504	594.727	85.8788	594.727	85.9953	594.727	84.5941	594.727	84.5993	594.727	84.0482	594.727	83.6346	594.727	84.3331	594.727	83.5712	594.727	84.6013	594.727	83.9295	594.727	84.2867	594.727	83.8801	594.727	83.3248	594.727	83.0552	594.727	81.8147	594.727	81.5768	594.727	79.9778	594.727	79.9173	594.727	78.6207	594.727	78.8585	594.727	78.7378	594.727	79.3322	594.727	79.8254	594.727	80.7325	594.727	80.9516	594.727	81.6516	594.727	81.6649
615.234	89.6625	615.234	89.4337	615.234	89.5715	615.234	88.9588	615.234	89.1245	615.234	88.3053	615.234	88.3531	615.234	87.5078	615.234	87.3564	615.234	86.5845	615.234	86.2679	615.234	85.5528	615.234	85.1979	615.234	84.4456	615.234	84.1935	615.234	83.4442	615.234	83.3494	615.234	82.8568	615.234	82.936	615.234	82.5575	615.234	82.9186	615.234	81.9047	615.234	82.5623	615.234	80.2977	615.234	81.0071	615.234	77.3512	615.234	77.6302	615.234	74.3587	615.234	73.4191	615.234	76.1884	615.234	75.1303	615.234	79.1116	615.234	78.5773	615.234	80.7402	615.234	80.5568	615.234	81.2205
637.207	90.4103	637.207	90.3062	637.207	90.2794	637.207	89.9677	637.207	89.9089	637.207	89.37	637.207	89.2926	637.207	88.4503	637.207	88.4358	637.207	87.1832	637.207	87.3907	637.207	85.7905	637.207	86.2766	637.207	84.8367	637.207	85.2864	637.207	84.6252	637.207	84.664	637.207	84.7324	637.207	84.441	637.207	84.6001	637.207	84.1794	637.207	83.7119	637.207	83.2647	637.207	81.4929	637.207	81.1921	637.207	77.8615	637.207	77.6292	637.207	76.4876	637.207	74.6461	637.207	79.1441	637.207	77.2967	637.207	81.3544	637.207	80.2901	637.207	82.4538	637.207	81.9289	637.207	82.6023
659.18	89.9694	659.18	89.9383	659.18	89.8183	659.18	89.6697	659.18	89.5423	659.18	89.1382	659.18	89.1443	659.18	88.3878	659.18	88.5214	659.18	87.505	659.18	87.5052	659.18	86.4467	659.18	85.993	659.18	85.0544	659.18	84.1738	659.18	83.5453	659.18	82.7572	659.18	82.7827	659.18	82.3083	659.18	82.8725	659.18	82.3011	659.18	82.822	659.18	81.9455	659.18	82.0053	659.18	80.6868	659.18	80.0482	659.18	78.0012	659.18	76.1228	659.18	73.0053	659.18	69.002	659.18	65.7597	659.18	71.9356	659.18	71.4738	659.18	76.293	659.18	75.8292	659.18	77.306
682.617	90.7779	682.617	90.6821	682.617	90.6223	682.617	90.3048	682.617	90.2664	682.617	89.6812	682.617	89.707	682.617	88.8299	682.617	88.8653	682.617	87.6837	682.617	87.6622	682.617	86.2906	682.617	86.2378	682.617	85.1394	682.617	85.1379	682.617	84.7298	682.617	84.78	682.617	84.7122	682.617	84.7975	682.617	84.6001	682.617	84.7199	682.617	84.1681	682.617	84.3049	682.617	82.8533	682.617	83.1511	682.617	79.637	682.617	80.5468	682.617	73.5356	682.617	75.1851	682.617	74.5922	682.617	69.7562	682.617	79.4168	682.617	76.9609	682.617	81.7006	682.617	80.8137	682.617	82.1718
707.52	89.6742	707.52	89.6851	707.52	89.4341	707.52	89.5021	707.52	89.041	707.52	89.1141	707.52	88.6156	707.52	88.4027	707.52	88.1259	707.52	87.33	707.52	87.3626	707.52	86.0166	707.52	86.0984	707.52	84.5696	707.52	84.3982	707.52	83.232	707.52	82.9739	707.52	82.5598	707.52	82.467	707.52	82.462	707.52	82.4297	707.52	82.2241	707.52	82.1901	707.52	81.3382	707.52	81.16	707.52	79.4015	707.52	78.8548	707.52	76.2993	707.52	75.6282	707.52	74.012	707.52	74.9665	707.52	75.1509	707.52	76.9977	707.52	76.9982	707.52	78.1872	707.52	78.1097
732.422	90.1501	732.422	90.0482	732.422	90.1207	732.422	89.7131	732.422	90.004	732.422	89.091	732.422	89.7566	732.422	88.2244	732.422	89.2495	732.422	87.1318	732.422	88.286	732.422	85.7182	732.422	86.8104	732.422	84.1012	732.422	85.1889	732.422	82.9334	732.422	83.9597	732.422	82.5758	732.422	83.3995	732.422	82.669	732.422	83.4175	732.422	82.6108	732.422	83.1331	732.422	81.49	732.422	81.6578	732.422	78.3883	732.422	78.6694	732.422	72.7265	732.422	74.2716	732.422	73.8131	732.422	73.0773	732.422	79.0215	732.422	77.2452	732.422	81.4031	732.422	80.2501	732.422	81.6526
757.324	89.6708	757.324	89.5981	757.324	89.6157	757.324	89.3884	757.324	89.4381	757.324	89.0401	757.324	89.1078	757.324	88.4793	757.324	88.5729	757.324	87.5182	757.324	87.7631	757.324	85.9579	757.324	86.5901	757.324	83.8609	757.324	85.0658	757.324	82.1658	757.324	83.54	757.324	82.0806	757.324	82.8683	757.324	82.6678	757.324	83.4432	757.324	82.8103	757.324	84.1255	757.324	82.1768	757.324	83.8348	757.324	80.2857	757.324	82.0411	757.324	76.0582	757.324	77.7781	757.324	69.2488	757.324	67.7003	757.324	73.7444	757.324	71.6643	757.324	77.2463	757.324	76.4489	757.324	77.865
785.156	91.2329	785.156	91.0264	785.156	91.3412	785.156	90.7127	785.156	91.4289	785.156	90.3948	785.156	91.4291	785.156	90.1301	785.156	91.0489	785.156	89.6908	785.156	90.017	785.156	88.636	785.156	88.349	785.156	86.7942	785.156	86.2339	785.156	84.8345	785.156	83.4706	785.156	83.9862	785.156	80.5481	785.156	84.6763	785.156	81.5646	785.156	86.1151	785.156	84.0843	785.156	86.6849	785.156	84.7128	785.156	85.1479	785.156	82.6217	785.156	80.8288	785.156	76.0802	785.156	72.1272	785.156	56.5986	785.156	65.8182	785.156	72.783	785.156	74.3419	785.156	75.8211	785.156	76.3636
811.523	91.089	811.523	90.8523	811.523	90.9875	811.523	90.5353	811.523	90.5282	811.523	90.1304	811.523	89.9543	811.523	89.2921	811.523	89.4878	811.523	88.0242	811.523	89.1129	811.523	86.8733	811.523	88.5026	811.523	85.8863	811.523	87.1253	811.523	84.2606	811.523	84.4502	811.523	81.3615	811.523	80.594	811.523	79.1302	811.523	77.5626	811.523	80.1793	811.523	75.9953	811.523	80.7721	811.523	75.0669	811.523	79.8922	811.523	75.4989	811.523	78.3065	811.523	76.4291	811.523	75.5632	811.523	76.5578	811.523	70.5761	811.523	76.825	811.523	73.3547	811.523	77.9794	811.523	77.3416
840.82	88.6703	840.82	88.5944	840.82	88.5733	840.82	88.1745	840.82	88.3614	840.82	87.423	840.82	87.9324	840.82	86.8013	840.82	87.1096	840.82	86.4545	840.82	85.8414	840.82	85.814	840.82	84.2143	840.82	84.6019	840.82	82.7405	840.82	82.8679	840.82	81.8024	840.82	80.4203	840.82	80.1513	840.82	78.0935	840.82	77.5052	840.82	79.5203	840.82	79.6967	840.82	82.3557	840.82	83.1501	840.82	83.7263	840.82	84.2443	840.82	82.4943	840.82	83.7209	840.82	77.9757	840.82	82.2224	840.82	69.148	840.82	79.124	840.82	54.4273	840.82	73.2876	840.82	64.4668
870.117	89.5905	870.117	89.7066	870.117	89.2055	870.117	89.3311	870.117	88.7958	870.117	88.5808	870.117	88.3368	870.117	87.683	870.117	87.6786	870.117	86.5199	870.117	86.7975	870.117	85.074	870.117	85.819	870.117	84.206	870.117	84.6792	870.117	83.8597	870.117	83.0617	870.117	82.397	870.117	80.9788	870.117	79.8934	870.117	79.005	870.117	78.0953	870.117	78.097	870.117	77.845	870.117	77.8093	870.117	78.7862	870.117	76.0767	870.117	80.022	870.117	73.1902	870.117	81.3282	870.117	73.3199	870.117	82.164	870.117	77.6626	870.117	82.3751	870.117	81.0338	870.117	82.242
900.879	88.816	900.879	88.518	900.879	89.0081	900.879	88.3879	900.879	88.7931	900.879	88.3529	900.879	88.1451	900.879	87.827	900.879	87.6388	900.879	86.776	900.879	87.5453	900.879	85.935	900.879	87.0008	900.879	85.0027	900.879	85.4284	900.879	82.7136	900.879	83.7946	900.879	80.176	900.879	84.1664	900.879	81.616	900.879	85.1133	900.879	83.3324	900.879	84.763	900.879	83.4928	900.879	83.1292	900.879	82.0987	900.879	80.9788	900.879	80.2881	900.879	78.3925	900.879	79.1889	900.879	73.2747	900.879	78.256	900.879	74.8195	900.879	79.2203	900.879	78.0143	900.879	79.326
933.105	88.8214	933.105	88.7177	933.105	88.692	933.105	88.1803	933.105	88.3406	933.105	87.4151	933.105	87.8641	933.105	86.9504	933.105	87.5509	933.105	86.393	933.105	87.1995	933.105	85.1261	933.105	86.4367	933.105	83.5401	933.105	85.0378	933.105	81.5147	933.105	82.4987	933.105	77.218	933.105	80.4608	933.105	71.6295	933.105	81.4254	933.105	76.5176	933.105	82.4096	933.105	78.008	933.105	82.0715	933.105	75.7962	933.105	80.1887	933.105	69.4026	933.105	76.2443	933.105	70.1456	933.105	72.3926	933.105	79.0696	933.105	76.4822	933.105	81.1118	933.105	79.4854	933.105	80.7409
965.332	88.6479	965.332	87.8268	965.332	88.8261	965.332	87.0176	965.332	88.3105	965.332	86.7276	965.332	87.2353	965.332	86.0906	965.332	85.7994	965.332	84.7653	965.332	84.8692	965.332	84.0633	965.332	84.8425	965.332	83.5249	965.332	84.3619	965.332	81.3015	965.332	83.1281	965.332	75.6749	965.332	81.9039	965.332	74.332	965.332	81.2176	965.332	79.9625	965.332	82.0815	965.332	81.7727	965.332	83.4119	965.332	81.659	965.332	83.7338	965.332	80.1877	965.332	82.9224	965.332	77.6808	965.332	81.5738	965.332	73.8674	965.332	79.2823	965.332	72.6415	965.332	73.9955	965.332	72.6556
1,000.49	90.4025	1,000.49	90.4611	1,000.49	89.9414	1,000.49	89.9632	1,000.49	89.2615	1,000.49	88.9987	1,000.49	88.4521	1,000.49	88.0732	1,000.49	87.4497	1,000.49	87.2145	1,000.49	86.007	1,000.49	85.6657	1,000.49	84.4124	1,000.49	83.9418	1,000.49	83.4235	1,000.49	82.6942	1,000.49	82.384	1,000.49	80.912	1,000.49	80.6876	1,000.49	77.9443	1,000.49	79.6891	1,000.49	75.124	1,000.49	79.8388	1,000.49	75.8942	1,000.49	80.6939	1,000.49	76.4998	1,000.49	81.0916	1,000.49	73.0476	1,000.49	79.1352	1,000.49	47.6824	1,000.49	73.7766	1,000.49	69.8626	1,000.49	65.7937	1,000.49	73.7365	1,000.49	74.1538	1,000.49	75.8492
1,035.64	89.9405	1,035.64	89.3223	1,035.64	89.7945	1,035.64	88.2622	1,035.64	88.7442	1,035.64	87.3468	1,035.64	87.2969	1,035.64	86.6385	1,035.64	86.161	1,035.64	85.5582	1,035.64	85.2978	1,035.64	84.5098	1,035.64	85.0343	1,035.64	83.9232	1,035.64	84.901	1,035.64	83.6213	1,035.64	83.5855	1,035.64	82.4791	1,035.64	81.1359	1,035.64	77.9503	1,035.64	79.1687	1,035.64	68.9193	1,035.64	79.6124	1,035.64	75.0406	1,035.64	80.6354	1,035.64	78.0903	1,035.64	80.4906	1,035.64	77.7135	1,035.64	78.3534	1,035.64	75.444	1,035.64	74.7791	1,035.64	74.682	1,035.64	74.3449	1,035.64	75.9868	1,035.64	77.902	1,035.64	78.9197
1,072.27	87.9804	1,072.27	88.0027	1,072.27	88.4498	1,072.27	87.7278	1,072.27	88.7292	1,072.27	86.4823	1,072.27	87.6157	1,072.27	84.9025	1,072.27	85.4469	1,072.27	84.1307	1,072.27	83.8698	1,072.27	83.4302	1,072.27	83.4514	1,072.27	82.4155	1,072.27	83.5427	1,072.27	80.7417	1,072.27	83.0765	1,072.27	78.4146	1,072.27	80.9557	1,072.27	77.0422	1,072.27	76.8086	1,072.27	74.3413	1,072.27	77.9527	1,072.27	71.9691	1,072.27	80.9569	1,072.27	73.6432	1,072.27	81.5347	1,072.27	75.3625	1,072.27	80.409	1,072.27	71.3666	1,072.27	77.3049	1,072.27	61.5167	1,072.27	75.9101	1,072.27	70.3927	1,072.27	77.057	1,072.27	76.1586
1,108.89	89.3499	1,108.89	88.8992	1,108.89	89.5155	1,108.89	88.4097	1,108.89	89.0423	1,108.89	87.2357	1,108.89	88.1424	1,108.89	85.4265	1,108.89	86.8729	1,108.89	84.0697	1,108.89	84.9048	1,108.89	82.8955	1,108.89	82.6491	1,108.89	81.8701	1,108.89	81.4791	1,108.89	82.0393	1,108.89	80.8929	1,108.89	82.0016	1,108.89	79.1252	1,108.89	80.661	1,108.89	76.4629	1,108.89	79.0349	1,108.89	73.4188	1,108.89	77.7192	1,108.89	74.1013	1,108.89	77.3985	1,108.89	75.8794	1,108.89	75.9998	1,108.89	73.4321	1,108.89	71.2288	1,108.89	67.3467	1,108.89	66.0277	1,108.89	65.974	1,108.89	68.5774	1,108.89	72.644	1,108.89	70.5539
1,148.44	88.0676	1,148.44	88.411	1,148.44	87.1031	1,148.44	87.7981	1,148.44	86.4203	1,148.44	86.9234	1,148.44	86.021	1,148.44	85.7781	1,148.44	85.3198	1,148.44	84.5248	1,148.44	84.0723	1,148.44	83.8686	1,148.44	82.3532	1,148.44	82.5343	1,148.44	80.8175	1,148.44	80.0313	1,148.44	79.2734	1,148.44	78.4406	1,148.44	79.2419	1,148.44	76.5436	1,148.44	78.3256	1,148.44	74.2592	1,148.44	69.1861	1,148.44	74.4869	1,148.44	65.5922	1,148.44	75.5085	1,148.44	70.6576	1,148.44	75.4386	1,148.44	72.5835	1,148.44	73.0746	1,148.44	70.8284	1,148.44	73.6081	1,148.44	67.7375	1,148.44	71.6893	1,148.44	71.0269	1,148.44	73.0586
1,189.45	89.197	1,189.45	88.1527	1,189.45	89.7549	1,189.45	87.2307	1,189.45	89.0484	1,189.45	86.16	1,189.45	87.273	1,189.45	84.9794	1,189.45	85.5081	1,189.45	83.3757	1,189.45	84.1411	1,189.45	80.7021	1,189.45	82.5713	1,189.45	78.7718	1,189.45	81.7139	1,189.45	78.7868	1,189.45	81.4253	1,189.45	79.8339	1,189.45	79.8539	1,189.45	81.387	1,189.45	74.8672	1,189.45	79.1278	1,189.45	74.0375	1,189.45	74.5085	1,189.45	75.3816	1,189.45	76.9648	1,189.45	75.0798	1,189.45	75.6643	1,189.45	74.4917	1,189.45	63.782	1,189.45	69.5193	1,189.45	63.9329	1,189.45	69.0794	1,189.45	69.4425	1,189.45	76.9283	1,189.45	75.9191
1,230.47	90.3815	1,230.47	89.8993	1,230.47	90.1655	1,230.47	89.1006	1,230.47	89.9736	1,230.47	88.3891	1,230.47	89.5963	1,230.47	87.1705	1,230.47	88.5819	1,230.47	85.721	1,230.47	87.621	1,230.47	84.0866	1,230.47	86.384	1,230.47	82.0088	1,230.47	84.6608	1,230.47	80.2491	1,230.47	83.3518	1,230.47	80.45	1,230.47	81.4846	1,230.47	80.0262	1,230.47	78.98	1,230.47	76.9582	1,230.47	75.3316	1,230.47	76.876	1,230.47	71.4902	1,230.47	78.6531	1,230.47	74.085	1,230.47	78.8203	1,230.47	72.3506	1,230.47	75.9325	1,230.47	69.5043	1,230.47	66.8567	1,230.47	56.8837	1,230.47	72.6332	1,230.47	65.0351	1,230.47	73.2204
1,274.41	91.0434	1,274.41	90.5363	1,274.41	90.8131	1,274.41	89.4659	1,274.41	90.0891	1,274.41	87.9526	1,274.41	88.7435	1,274.41	86.437	1,274.41	87.2381	1,274.41	85.2736	1,274.41	86.6095	1,274.41	84.8631	1,274.41	85.0254	1,274.41	85.1272	1,274.41	85.0129	1,274.41	84.714	1,274.41	86.0024	1,274.41	83.0252	1,274.41	83.8097	1,274.41	80.2523	1,274.41	80.2485	1,274.41	76.9677	1,274.41	77.0952	1,274.41	74.9855	1,274.41	76.9366	1,274.41	77.364	1,274.41	80.1926	1,274.41	79.266	1,274.41	80.8252	1,274.41	79.6301	1,274.41	77.1514	1,274.41	78.9314	1,274.41	74.546	1,274.41	74.4712	1,274.41	74.9354	1,274.41	73.825
1,319.82	91.654	1,319.82	91.3817	1,319.82	91.9278	1,319.82	91.102	1,319.82	91.4737	1,319.82	90.3545	1,319.82	90.3574	1,319.82	89.1127	1,319.82	89.1419	1,319.82	87.6814	1,319.82	87.1553	1,319.82	85.8721	1,319.82	86.0757	1,319.82	84.23	1,319.82	85.0603	1,319.82	83.881	1,319.82	82.7671	1,319.82	82.2015	1,319.82	82.7078	1,319.82	82.3497	1,319.82	81.2453	1,319.82	81.9323	1,319.82	80.1348	1,319.82	78.4533	1,319.82	77.6863	1,319.82	75.0748	1,319.82	70.042	1,319.82	78.0401	1,319.82	71.3232	1,319.82	71.1882	1,319.82	70.7368	1,319.82	72.3674	1,319.82	73.3256	1,319.82	78.2033	1,319.82	76.5057	1,319.82	76.7791
1,366.7	91.7684	1,366.7	91.9778	1,366.7	91.5776	1,366.7	91.4498	1,366.7	91.1315	1,366.7	90.6569	1,366.7	89.9604	1,366.7	89.7406	1,366.7	88.4176	1,366.7	87.9771	1,366.7	87.2449	1,366.7	85.9158	1,366.7	86.1935	1,366.7	84.0192	1,366.7	84.3848	1,366.7	82.6649	1,366.7	82.3813	1,366.7	81.063	1,366.7	82.8055	1,366.7	79.5245	1,366.7	80.9648	1,366.7	77.3882	1,366.7	78.1855	1,366.7	76.9627	1,366.7	78.6544	1,366.7	77.5127	1,366.7	80.5986	1,366.7	81.1517	1,366.7	80.9619	1,366.7	78.6826	1,366.7	78.3707	1,366.7	74.0152	1,366.7	72.1546	1,366.7	78.6919	1,366.7	75.7615	1,366.7	78.5787
1,413.57	90.9936	1,413.57	91.6091	1,413.57	91.2665	1,413.57	91.9601	1,413.57	91.3129	1,413.57	90.8749	1,413.57	90.4942	1,413.57	89.1822	1,413.57	89.148	1,413.57	88.272	1,413.57	86.6824	1,413.57	86.342	1,413.57	84.2266	1,413.57	85.2939	1,413.57	83.1129	1,413.57	84.5023	1,413.57	81.2395	1,413.57	82.2231	1,413.57	80.6615	1,413.57	78.287	1,413.57	80.2841	1,413.57	76.7983	1,413.57	80.6097	1,413.57	76.8276	1,413.57	78.5571	1,413.57	80.0099	1,413.57	79.3751	1,413.57	81.5231	1,413.57	82.6194	1,413.57	80.7758	1,413.57	79.144	1,413.57	66.3774	1,413.57	73.9738	1,413.57	76.5179	1,413.57	68.1035	1,413.57	79.1745
1,463.38	91.4375	1,463.38	91.1064	1,463.38	90.9931	1,463.38	89.6573	1,463.38	89.535	1,463.38	88.716	1,463.38	88.2703	1,463.38	88.6725	1,463.38	88.3203	1,463.38	87.337	1,463.38	87.8862	1,463.38	85.0209	1,463.38	86.853	1,463.38	84.0473	1,463.38	83.4972	1,463.38	82.0474	1,463.38	82.2865	1,463.38	81.7502	1,463.38	81.7388	1,463.38	81.3538	1,463.38	80.9578	1,463.38	78.4424	1,463.38	79.4565	1,463.38	75.8749	1,463.38	77.7132	1,463.38	72.5924	1,463.38	76.8334	1,463.38	78.031	1,463.38	75.3162	1,463.38	73.6935	1,463.38	71.4913	1,463.38	73.978	1,463.38	67.911	1,463.38	73.0229	1,463.38	63.8737	1,463.38	70.0483
1,516.11	89.9337	1,516.11	90.107	1,516.11	89.3561	1,516.11	89.7344	1,516.11	88.9713	1,516.11	89.2414	1,516.11	88.2119	1,516.11	88.8028	1,516.11	87.2186	1,516.11	86.3455	1,516.11	85.4703	1,516.11	85.8265	1,516.11	83.5998	1,516.11	85.0937	1,516.11	83.997	1,516.11	83.4044	1,516.11	81.6905	1,516.11	81.9601	1,516.11	80.6757	1,516.11	79.6346	1,516.11	81.2171	1,516.11	79.4186	1,516.11	80.9005	1,516.11	78.5204	1,516.11	77.0401	1,516.11	79.4904	1,516.11	78.647	1,516.11	80.7749	1,516.11	78.4035	1,516.11	81.4101	1,516.11	77.4464	1,516.11	68.8031	1,516.11	71.4703	1,516.11	74.5876	1,516.11	75.5086	1,516.11	76.7475
1,568.85	89.0099	1,568.85	89.7327	1,568.85	89.4636	1,568.85	88.7643	1,568.85	88.6855	1,568.85	87.3794	1,568.85	86.9389	1,568.85	87.1712	1,568.85	86.3982	1,568.85	84.3652	1,568.85	85.3148	1,568.85	83.6735	1,568.85	82.425	1,568.85	82.7079	1,568.85	78.6375	1,568.85	80.8808	1,568.85	79.01	1,568.85	81.8359	1,568.85	78.7017	1,568.85	77.5008	1,568.85	77.6258	1,568.85	74.1177	1,568.85	79.3248	1,568.85	73.4383	1,568.85	75.8887	1,568.85	73.0679	1,568.85	75.821	1,568.85	78.1889	1,568.85	77.5923	1,568.85	79.0486	1,568.85	78.5594	1,568.85	78.894	1,568.85	73.0307	1,568.85	71.0686	1,568.85	66.4975	1,568.85	65.1847
1,624.51	89.5521	1,624.51	89.245	1,624.51	89.5284	1,624.51	88.3379	1,624.51	88.9168	1,624.51	87.1041	1,624.51	87.8105	1,624.51	86.3944	1,624.51	86.2105	1,624.51	84.8647	1,624.51	84.9418	1,624.51	83.53	1,624.51	83.85	1,624.51	81.9387	1,624.51	82.827	1,624.51	81.8277	1,624.51	80.1572	1,624.51	79.9395	1,624.51	79.6025	1,624.51	78.0432	1,624.51	80.9169	1,624.51	75.4251	1,624.51	78.1141	1,624.51	74.7658	1,624.51	76.0561	1,624.51	74.0475	1,624.51	75.0069	1,624.51	76.5741	1,624.51	77.4418	1,624.51	79.8108	1,624.51	78.002	1,624.51	73.8217	1,624.51	72.6804	1,624.51	73.2762	1,624.51	68.7782	1,624.51	75.4181
1,681.64	90.1933	1,681.64	89.8872	1,681.64	90.2402	1,681.64	89.2464	1,681.64	89.2622	1,681.64	87.8543	1,681.64	88.3897	1,681.64	86.2543	1,681.64	87.2844	1,681.64	84.8941	1,681.64	86.335	1,681.64	83.5463	1,681.64	84.8143	1,681.64	81.9066	1,681.64	83.4808	1,681.64	78.4612	1,681.64	82.4567	1,681.64	78.9199	1,681.64	81.143	1,681.64	78.1546	1,681.64	78.0941	1,681.64	77.7183	1,681.64	77.7412	1,681.64	74.1411	1,681.64	77.7451	1,681.64	73.0955	1,681.64	75.122	1,681.64	75.6444	1,681.64	78.0721	1,681.64	72.8609	1,681.64	78.0852	1,681.64	70.5981	1,681.64	75.2564	1,681.64	65.7452	1,681.64	73.9217	1,681.64	62.9708
1,741.7	90.5462	1,741.7	89.9776	1,741.7	89.8203	1,741.7	88.9649	1,741.7	89.3807	1,741.7	87.5577	1,741.7	88.0736	1,741.7	85.8971	1,741.7	86.6353	1,741.7	84.6966	1,741.7	85.4658	1,741.7	83.8683	1,741.7	84.8983	1,741.7	81.8632	1,741.7	83.1776	1,741.7	80.6085	1,741.7	81.4593	1,741.7	78.8288	1,741.7	79.921	1,741.7	78.6778	1,741.7	79.0556	1,741.7	75.4871	1,741.7	78.5478	1,741.7	76.9323	1,741.7	76.7163	1,741.7	74.6434	1,741.7	75.6764	1,741.7	74.5189	1,741.7	76.1295	1,741.7	78.8814	1,741.7	78.624	1,741.7	75.3919	1,741.7	74.2809	1,741.7	72.416	1,741.7	64.1942	1,741.7	74.6891
1,803.22	89.5666	1,803.22	89.7215	1,803.22	89.64	1,803.22	89.0138	1,803.22	88.8932	1,803.22	88.0995	1,803.22	87.9956	1,803.22	87.0234	1,803.22	86.5469	1,803.22	84.995	1,803.22	85.4133	1,803.22	84.0988	1,803.22	83.9463	1,803.22	83.2876	1,803.22	82.6325	1,803.22	81.6565	1,803.22	80.4387	1,803.22	79.7534	1,803.22	80.8402	1,803.22	77.8343	1,803.22	80.329	1,803.22	76.0433	1,803.22	76.2748	1,803.22	73.545	1,803.22	76.5544	1,803.22	71.5008	1,803.22	73.6582	1,803.22	75.2785	1,803.22	74.1906	1,803.22	77.1958	1,803.22	77.234	1,803.22	71.5454	1,803.22	73.999	1,803.22	67.8023	1,803.22	67.7562	1,803.22	63.9648
1,866.21	88.6915	1,866.21	88.2655	1,866.21	88.5435	1,866.21	87.9465	1,866.21	87.8661	1,866.21	87.1683	1,866.21	87.2652	1,866.21	85.9938	1,866.21	86.182	1,866.21	85.0583	1,866.21	84.6959	1,866.21	83.9137	1,866.21	83.6109	1,866.21	83.1362	1,866.21	82.5201	1,866.21	80.0706	1,866.21	81.1877	1,866.21	79.3098	1,866.21	78.3732	1,866.21	79.3568	1,866.21	77.297	1,866.21	78.537	1,866.21	75.5637	1,866.21	77.9227	1,866.21	75.1113	1,866.21	76.4914	1,866.21	75.0579	1,866.21	71.5439	1,866.21	73.6726	1,866.21	75.1466	1,866.21	75.0384	1,866.21	75.7023	1,866.21	73.4252	1,866.21	72.4121	1,866.21	70.6436	1,866.21	75.5232
1,932.13	86.8626	1,932.13	86.5663	1,932.13	86.5028	1,932.13	86.3474	1,932.13	86.8191	1,932.13	86.3055	1,932.13	86.5519	1,932.13	85.9271	1,932.13	85.8816	1,932.13	84.7319	1,932.13	84.4721	1,932.13	83.7204	1,932.13	83.0378	1,932.13	82.6888	1,932.13	82.1615	1,932.13	81.8268	1,932.13	79.8499	1,932.13	79.423	1,932.13	77.6363	1,932.13	80.0851	1,932.13	77.9633	1,932.13	76.5807	1,932.13	76.4317	1,932.13	76.9344	1,932.13	74.5513	1,932.13	75.361	1,932.13	73.6392	1,932.13	71.2438	1,932.13	68.5789	1,932.13	72.5973	1,932.13	75.8511	1,932.13	70.8114	1,932.13	74.8661	1,932.13	67.0257	1,932.13	68.6024	1,932.13	65.4512
1,999.51	87.4145	1,999.51	87.5355	1,999.51	87.6763	1,999.51	86.6387	1,999.51	86.9698	1,999.51	85.8273	1,999.51	86.3996	1,999.51	85.3254	1,999.51	86.0355	1,999.51	84.2264	1,999.51	85.0941	1,999.51	82.7123	1,999.51	83.3803	1,999.51	81.623	1,999.51	81.832	1,999.51	80.7306	1,999.51	80.4495	1,999.51	78.5689	1,999.51	80.3385	1,999.51	76.6572	1,999.51	79.1447	1,999.51	75.5763	1,999.51	75.8222	1,999.51	73.0032	1,999.51	75.4333	1,999.51	75.8435	1,999.51	75.3767	1,999.51	73.5409	1,999.51	72.2858	1,999.51	76.3164	1,999.51	71.2989	1,999.51	71.5675	1,999.51	68.9502	1,999.51	63.9074	1,999.51	65.7887	1,999.51	70.4448
2,069.82	88.229	2,069.82	87.4371	2,069.82	87.9002	2,069.82	87.1692	2,069.82	87.6388	2,069.82	86.5498	2,069.82	87.3328	2,069.82	85.3364	2,069.82	86.426	2,069.82	84.3816	2,069.82	86.0288	2,069.82	82.2958	2,069.82	84.3179	2,069.82	80.6182	2,069.82	83.4138	2,069.82	77.6708	2,069.82	81.7896	2,069.82	75.4264	2,069.82	76.6982	2,069.82	77.041	2,069.82	77.1345	2,069.82	75.4074	2,069.82	77.0773	2,069.82	74.6192	2,069.82	72.5226	2,069.82	73.6484	2,069.82	77.4825	2,069.82	71.144	2,069.82	73.4947	2,069.82	69.704	2,069.82	71.4347	2,069.82	70.9208	2,069.82	73.2691	2,069.82	70.3119	2,069.82	69.4869	2,069.82	69.4416
2,143.07	88.423	2,143.07	88.5601	2,143.07	88.2918	2,143.07	87.7762	2,143.07	87.9254	2,143.07	86.8362	2,143.07	87.4296	2,143.07	86.2561	2,143.07	87.0632	2,143.07	84.8602	2,143.07	85.8803	2,143.07	83.5115	2,143.07	84.8142	2,143.07	81.2764	2,143.07	82.0843	2,143.07	81.8882	2,143.07	81.43	2,143.07	78.8197	2,143.07	80.5541	2,143.07	75.6351	2,143.07	76.9811	2,143.07	75.2478	2,143.07	77.805	2,143.07	71.2944	2,143.07	76.3429	2,143.07	73.1487	2,143.07	74.5073	2,143.07	71.4495	2,143.07	73.4816	2,143.07	73.0594	2,143.07	76.8866	2,143.07	71.8657	2,143.07	73.1192	2,143.07	64.8753	2,143.07	67.5471	2,143.07	62.938
2,219.24	88.0387	2,219.24	87.6417	2,219.24	88.1609	2,219.24	87.5513	2,219.24	87.8035	2,219.24	87.229	2,219.24	86.7695	2,219.24	86.5233	2,219.24	85.6966	2,219.24	86.2691	2,219.24	85.4262	2,219.24	84.6285	2,219.24	84.2034	2,219.24	82.6103	2,219.24	82.5503	2,219.24	80.318	2,219.24	80.4522	2,219.24	78.2878	2,219.24	78.8693	2,219.24	77.2581	2,219.24	77.9497	2,219.24	75.3341	2,219.24	74.9819	2,219.24	73.3907	2,219.24	72.3291	2,219.24	73.5206	2,219.24	75.6222	2,219.24	73.0314	2,219.24	69.9185	2,219.24	76.058	2,219.24	70.153	2,219.24	73.0298	2,219.24	70.866	2,219.24	69.9497	2,219.24	67.4947	2,219.24	73.555
2,296.88	87.1961	2,296.88	87.2828	2,296.88	86.9282	2,296.88	87.2736	2,296.88	86.9468	2,296.88	87.0309	2,296.88	86.5002	2,296.88	86.2754	2,296.88	85.5408	2,296.88	84.9685	2,296.88	84.3025	2,296.88	84.058	2,296.88	82.5169	2,296.88	82.0877	2,296.88	79.9131	2,296.88	80.9454	2,296.88	78.773	2,296.88	78.925	2,296.88	76.2442	2,296.88	77.5045	2,296.88	72.4259	2,296.88	77.6421	2,296.88	75.858	2,296.88	76.1372	2,296.88	72.1765	2,296.88	74.4408	2,296.88	72.8568	2,296.88	70.5271	2,296.88	73.3572	2,296.88	69.5933	2,296.88	72.8539	2,296.88	72.3863	2,296.88	71.4582	2,296.88	71.2831	2,296.88	66.2306	2,296.88	65.0068
2,378.91	86.8585	2,378.91	86.8146	2,378.91	87.0693	2,378.91	86.4484	2,378.91	86.6932	2,378.91	86.1307	2,378.91	86.8204	2,378.91	84.7346	2,378.91	85.5387	2,378.91	83.4279	2,378.91	83.9951	2,378.91	82.4274	2,378.91	83.3832	2,378.91	80.0832	2,378.91	81.7185	2,378.91	79.5712	2,378.91	78.8947	2,378.91	78.2988	2,378.91	79.4486	2,378.91	74.802	2,378.91	77.2806	2,378.91	73.7238	2,378.91	73.278	2,378.91	69.1331	2,378.91	72.1817	2,378.91	73.5034	2,378.91	71.9066	2,378.91	71.9502	2,378.91	71.2132	2,378.91	74.2894	2,378.91	72.3191	2,378.91	70.2979	2,378.91	72.0699	2,378.91	57.7401	2,378.91	64.6446	2,378.91	70.1732
2,462.4	88.2374	2,462.4	88.1125	2,462.4	88.2579	2,462.4	88.4731	2,462.4	88.5959	2,462.4	87.8711	2,462.4	88.325	2,462.4	86.5701	2,462.4	87.9264	2,462.4	84.1649	2,462.4	85.8379	2,462.4	81.7893	2,462.4	83.8388	2,462.4	80.4535	2,462.4	81.6998	2,462.4	77.0707	2,462.4	81.1293	2,462.4	75.7365	2,462.4	76.7521	2,462.4	74.9434	2,462.4	76.0174	2,462.4	73.7001	2,462.4	76.2561	2,462.4	74.1304	2,462.4	72.7257	2,462.4	72.6809	2,462.4	74.0744	2,462.4	71.6863	2,462.4	73.8985	2,462.4	71.6847	2,462.4	67.5696	2,462.4	71.9653	2,462.4	71.8964	2,462.4	65.9468	2,462.4	68.6259	2,462.4	72.2051
2,548.83	89.4796	2,548.83	89.2441	2,548.83	89.3921	2,548.83	88.631	2,548.83	89.182	2,548.83	88.569	2,548.83	89.1416	2,548.83	88.0891	2,548.83	88.2182	2,548.83	86.6404	2,548.83	87.407	2,548.83	85.1399	2,548.83	85.9833	2,548.83	82.9563	2,548.83	84.1995	2,548.83	81.2897	2,548.83	80.5273	2,548.83	79.3526	2,548.83	80.1615	2,548.83	76.007	2,548.83	77.7053	2,548.83	74.4122	2,548.83	75.5152	2,548.83	73.2446	2,548.83	76.4957	2,548.83	69.8061	2,548.83	72.4685	2,548.83	73.1195	2,548.83	75.4994	2,548.83	70.5253	2,548.83	72.5339	2,548.83	71.2054	2,548.83	72.2484	2,548.83	70.5213	2,548.83	64.1508	2,548.83	68.7407
2,639.65	88.3039	2,639.65	89.067	2,639.65	88.7987	2,639.65	89.5717	2,639.65	88.9666	2,639.65	89.7663	2,639.65	88.4257	2,639.65	88.7678	2,639.65	88.349	2,639.65	87.7243	2,639.65	86.6078	2,639.65	85.0598	2,639.65	83.5129	2,639.65	83.2622	2,639.65	81.0043	2,639.65	80.7376	2,639.65	80.7953	2,639.65	77.7761	2,639.65	75.0429	2,639.65	77.1877	2,639.65	76.3267	2,639.65	73.9185	2,639.65	72.3646	2,639.65	77.0491	2,639.65	72.72	2,639.65	72.217	2,639.65	69.6986	2,639.65	74.0717	2,639.65	67.114	2,639.65	73.8629	2,639.65	68.2417	2,639.65	72.6555	2,639.65	71.5112	2,639.65	70.4407	2,639.65	63.4196	2,639.65	65.8329
2,731.93	87.6695	2,731.93	87.4202	2,731.93	87.3531	2,731.93	86.8958	2,731.93	87.0188	2,731.93	87.3663	2,731.93	87.5834	2,731.93	87.0891	2,731.93	86.306	2,731.93	85.7854	2,731.93	85.4029	2,731.93	83.6955	2,731.93	83.827	2,731.93	82.0505	2,731.93	82.1253	2,731.93	80.1774	2,731.93	76.6977	2,731.93	78.3462	2,731.93	77.5552	2,731.93	75.2904	2,731.93	74.1163	2,731.93	75.1824	2,731.93	72.4053	2,731.93	73.3803	2,731.93	73.3628	2,731.93	69.9048	2,731.93	69.1157	2,731.93	71.6025	2,731.93	74.1469	2,731.93	67.5072	2,731.93	69.4104	2,731.93	71.541	2,731.93	71.8528	2,731.93	59.8929	2,731.93	63.7863	2,731.93	66.7179
2,828.61	86.9202	2,828.61	87.5082	2,828.61	87.35	2,828.61	88.307	2,828.61	88.0513	2,828.61	87.7212	2,828.61	87.7945	2,828.61	86.6839	2,828.61	87.0958	2,828.61	85.0771	2,828.61	85.7419	2,828.61	82.5593	2,828.61	82.9335	2,828.61	80.5825	2,828.61	79.9739	2,828.61	77.8083	2,828.61	80.4223	2,828.61	74.8477	2,828.61	76.1193	2,828.61	74.4378	2,828.61	76.1974	2,828.61	68.857	2,828.61	72.7581	2,828.61	73.5775	2,828.61	72.1256	2,828.61	69.7193	2,828.61	71.8821	2,828.61	71.126	2,828.61	69.4053	2,828.61	72.3512	2,828.61	67.346	2,828.61	68.9185	2,828.61	70.317	2,828.61	47.8111	2,828.61	64.126	2,828.61	69.0997
2,928.22	87.6666	2,928.22	88.1271	2,928.22	88.0191	2,928.22	88.5964	2,928.22	88.3105	2,928.22	88.6957	2,928.22	88.3434	2,928.22	86.8778	2,928.22	87.2119	2,928.22	85.7627	2,928.22	85.5463	2,928.22	83.9346	2,928.22	84.409	2,928.22	80.6879	2,928.22	81.9211	2,928.22	79.711	2,928.22	78.0253	2,928.22	77.1213	2,928.22	77.766	2,928.22	75.3576	2,928.22	74.6171	2,928.22	74.3666	2,928.22	72.9901	2,928.22	73.0204	2,928.22	73.0291	2,928.22	69.707	2,928.22	70.2674	2,928.22	69.9583	2,928.22	73.6664	2,928.22	68.2074	2,928.22	72.2216	2,928.22	72.5675	2,928.22	71.7078	2,928.22	36.0233	2,928.22	67.4174	2,928.22	69.0158
3,030.76	88.6719	3,030.76	88.7482	3,030.76	88.794	3,030.76	89.607	3,030.76	89.475	3,030.76	88.9791	3,030.76	89.4824	3,030.76	88.5921	3,030.76	87.9117	3,030.76	86.2468	3,030.76	85.9986	3,030.76	84.188	3,030.76	83.9786	3,030.76	82.3998	3,030.76	81.6047	3,030.76	80.0615	3,030.76	80.0108	3,030.76	77.8684	3,030.76	76.7608	3,030.76	75.2038	3,030.76	75.6088	3,030.76	73.8259	3,030.76	74.1513	3,030.76	74.5896	3,030.76	70.7946	3,030.76	72.5314	3,030.76	72.4155	3,030.76	71.6498	3,030.76	69.3136	3,030.76	74.4156	3,030.76	71.2463	3,030.76	71.3651	3,030.76	71.4569	3,030.76	67.2875	3,030.76	66.0193	3,030.76	67.6473
3,137.7	87.9068	3,137.7	89.1879	3,137.7	88.7439	3,137.7	89.7154	3,137.7	88.427	3,137.7	89.6248	3,137.7	88.01	3,137.7	88.1636	3,137.7	87.7778	3,137.7	87.0685	3,137.7	85.7079	3,137.7	84.9062	3,137.7	83.6817	3,137.7	82.7587	3,137.7	81.3393	3,137.7	80.7895	3,137.7	77.597	3,137.7	78.4754	3,137.7	77.762	3,137.7	76.4617	3,137.7	75.44	3,137.7	76.0017	3,137.7	72.6265	3,137.7	72.341	3,137.7	68.9222	3,137.7	73.518	3,137.7	69.9377	3,137.7	69.3694	3,137.7	70.0684	3,137.7	72.3023	3,137.7	73.8748	3,137.7	73.877	3,137.7	71.9642	3,137.7	66.9804	3,137.7	67.4287	3,137.7	69.5673
3,249.02	88.3263	3,249.02	88.1517	3,249.02	88.4366	3,249.02	89.0611	3,249.02	89.2092	3,249.02	88.9819	3,249.02	89.0494	3,249.02	88.3531	3,249.02	87.1212	3,249.02	86.4894	3,249.02	86.0108	3,249.02	85.0486	3,249.02	84.1335	3,249.02	83.0042	3,249.02	81.6834	3,249.02	80.6737	3,249.02	80.4575	3,249.02	78.5721	3,249.02	78.1169	3,249.02	76.1274	3,249.02	76.1542	3,249.02	75.6578	3,249.02	73.754	3,249.02	74.3006	3,249.02	71.3046	3,249.02	72.5345	3,249.02	72.5832	3,249.02	73.555	3,249.02	69.3717	3,249.02	75.303	3,249.02	73.0256	3,249.02	73.6967	3,249.02	74.1374	3,249.02	71.0492	3,249.02	66.4099	3,249.02	68.373
3,363.28	88.8598	3,363.28	89.2145	3,363.28	88.9645	3,363.28	89.3253	3,363.28	88.7285	3,363.28	88.7453	3,363.28	88.3277	3,363.28	87.3778	3,363.28	87.7402	3,363.28	85.9771	3,363.28	85.2601	3,363.28	84.3514	3,363.28	84.0474	3,363.28	81.6504	3,363.28	81.516	3,363.28	80.4508	3,363.28	78.6859	3,363.28	76.468	3,363.28	76.2646	3,363.28	76.4132	3,363.28	75.7001	3,363.28	72.5786	3,363.28	73.1618	3,363.28	72.1893	3,363.28	69.8162	3,363.28	71.129	3,363.28	69.9668	3,363.28	69.375	3,363.28	70.3512	3,363.28	73.968	3,363.28	74.5639	3,363.28	74.4733	3,363.28	74.4773	3,363.28	66.6172	3,363.28	68.4368	3,363.28	69.3255
3,481.93	88.8266	3,481.93	89.5164	3,481.93	89.5025	3,481.93	89.6143	3,481.93	89.1024	3,481.93	89.1812	3,481.93	88.5485	3,481.93	88.1408	3,481.93	87.3557	3,481.93	86.6062	3,481.93	86.4998	3,481.93	84.4063	3,481.93	83.8764	3,481.93	82.5293	3,481.93	82.737	3,481.93	80.3858	3,481.93	79.6538	3,481.93	76.3709	3,481.93	78.2608	3,481.93	74.9395	3,481.93	74.3931	3,481.93	74.8055	3,481.93	70.7986	3,481.93	72.9314	3,481.93	71.3605	3,481.93	71.2683	3,481.93	70.1812	3,481.93	69.917	3,481.93	65.5157	3,481.93	75.0959	3,481.93	73.1989	3,481.93	73.8801	3,481.93	73.6623	3,481.93	68.9826	3,481.93	69.3236	3,481.93	63.1126
3,604.98	89.7715	3,604.98	89.5175	3,604.98	89.7237	3,604.98	89.5831	3,604.98	89.4636	3,604.98	89.1216	3,604.98	88.8668	3,604.98	88.2205	3,604.98	87.3322	3,604.98	86.8984	3,604.98	86.5336	3,604.98	84.6731	3,604.98	84.4641	3,604.98	82.5291	3,604.98	82.605	3,604.98	79.7616	3,604.98	80.4546	3,604.98	77.4497	3,604.98	77.1587	3,604.98	75.4198	3,604.98	75.5114	3,604.98	72.9601	3,604.98	72.8311	3,604.98	71.4079	3,604.98	69.8847	3,604.98	69.049	3,604.98	69.8818	3,604.98	65.6283	3,604.98	69.4277	3,604.98	74.8626	3,604.98	75.0889	3,604.98	74.9717	3,604.98	74.5382	3,604.98	66.4845	3,604.98	68.5342	3,604.98	68.9996
3,732.42	89.7221	3,732.42	89.8104	3,732.42	89.8309	3,732.42	89.5105	3,732.42	89.2551	3,732.42	88.8902	3,732.42	88.6624	3,732.42	87.4291	3,732.42	87.5372	3,732.42	86.5394	3,732.42	86.1357	3,732.42	84.4001	3,732.42	84.7737	3,732.42	82.7276	3,732.42	82.5392	3,732.42	80.4198	3,732.42	79.0866	3,732.42	77.4264	3,732.42	76.8282	3,732.42	77.3561	3,732.42	74.9011	3,732.42	72.379	3,732.42	72.7634	3,732.42	70.8758	3,732.42	71.5889	3,732.42	71.0001	3,732.42	69.4759	3,732.42	65.3898	3,732.42	68.6502	3,732.42	74.4743	3,732.42	74.7858	3,732.42	75.2199	3,732.42	74.4105	3,732.42	67.7987	3,732.42	69.4326	3,732.42	69.7344
3,864.26	89.0342	3,864.26	89.3234	3,864.26	89.2429	3,864.26	88.9836	3,864.26	88.7436	3,864.26	88.2215	3,864.26	87.9703	3,864.26	87.1663	3,864.26	87.1554	3,864.26	86.1773	3,864.26	86.1225	3,864.26	85.0593	3,864.26	84.735	3,864.26	82.835	3,864.26	82.4906	3,864.26	80.5922	3,864.26	80.4739	3,864.26	78.0793	3,864.26	78.6832	3,864.26	74.5429	3,864.26	74.8819	3,864.26	75.5703	3,864.26	72.1881	3,864.26	72.8262	3,864.26	70.2976	3,864.26	67.1398	3,864.26	69.417	3,864.26	66.1129	3,864.26	58.6732	3,864.26	74.5846	3,864.26	73.7738	3,864.26	75.0122	3,864.26	73.614	3,864.26	71.9709	3,864.26	70.7565	3,864.26	67.8174
4,000.49	88.9858	4,000.49	88.5785	4,000.49	88.2582	4,000.49	88.2157	4,000.49	87.6623	4,000.49	87.7836	4,000.49	86.7333	4,000.49	88.0138	4,000.49	86.9858	4,000.49	87.3748	4,000.49	86.0007	4,000.49	85.9338	4,000.49	84.2722	4,000.49	83.4967	4,000.49	81.9377	4,000.49	80.9861	4,000.49	79.8495	4,000.49	78.0359	4,000.49	77.4243	4,000.49	75.2284	4,000.49	73.3225	4,000.49	74.2187	4,000.49	72.7245	4,000.49	71.076	4,000.49	69.7815	4,000.49	73.3232	4,000.49	69.9438	4,000.49	58.0238	4,000.49	61.9553	4,000.49	71.4685	4,000.49	69.793	4,000.49	73.1331	4,000.49	72.2494	4,000.49	66.7894	4,000.49	68.0304	4,000.49	64.5533
4,141.11	89.2471	4,141.11	88.7454	4,141.11	88.9035	4,141.11	88.4844	4,141.11	88.1697	4,141.11	88.4485	4,141.11	88.1544	4,141.11	88.3772	4,141.11	87.9896	4,141.11	87.7186	4,141.11	87.7022	4,141.11	85.9003	4,141.11	85.6468	4,141.11	83.7132	4,141.11	83.4285	4,141.11	80.2155	4,141.11	80.474	4,141.11	77.8702	4,141.11	76.6279	4,141.11	76.1283	4,141.11	74.2336	4,141.11	73.5955	4,141.11	73.1177	4,141.11	70.441	4,141.11	71.4805	4,141.11	72.1541	4,141.11	71.2329	4,141.11	69.3413	4,141.11	68.2819	4,141.11	70.3503	4,141.11	70.5459	4,141.11	70.183	4,141.11	72.9868	4,141.11	72.2534	4,141.11	69.3441	4,141.11	65.4079
4,287.6	89.9797	4,287.6	89.5232	4,287.6	89.7714	4,287.6	89.1394	4,287.6	88.9596	4,287.6	89.5096	4,287.6	89.0556	4,287.6	89.4442	4,287.6	88.9482	4,287.6	88.7578	4,287.6	88.0208	4,287.6	87.2134	4,287.6	86.4425	4,287.6	84.4221	4,287.6	83.8357	4,287.6	81.6154	4,287.6	80.8729	4,287.6	77.8087	4,287.6	77.408	4,287.6	76.3697	4,287.6	76.1798	4,287.6	75.0182	4,287.6	73.1812	4,287.6	72.0904	4,287.6	70.3186	4,287.6	70.8932	4,287.6	72.4103	4,287.6	70.6305	4,287.6	67.1896	4,287.6	73.389	4,287.6	71.9904	4,287.6	72.7412	4,287.6	73.6365	4,287.6	71.7248	4,287.6	71.087	4,287.6	67.6783
4,438.48	89.7421	4,438.48	89.3603	4,438.48	89.3309	4,438.48	88.8876	4,438.48	88.5752	4,438.48	89.374	4,438.48	88.7197	4,438.48	89.7792	4,438.48	88.8911	4,438.48	88.8238	4,438.48	87.7015	4,438.48	86.9795	4,438.48	86.2469	4,438.48	84.6052	4,438.48	83.4351	4,438.48	81.7735	4,438.48	80.6862	4,438.48	79.1669	4,438.48	77.9876	4,438.48	77.0768	4,438.48	74.7798	4,438.48	74.4494	4,438.48	71.6117	4,438.48	72.7374	4,438.48	71.2846	4,438.48	73.2855	4,438.48	69.3201	4,438.48	71.4934	4,438.48	70.3081	4,438.48	73.1127	4,438.48	72.9002	4,438.48	74.8953	4,438.48	73.158	4,438.48	67.1516	4,438.48	71.7543	4,438.48	69.2474
4,595.21	89.6008	4,595.21	89.0305	4,595.21	89.3356	4,595.21	88.732	4,595.21	88.7344	4,595.21	89.1186	4,595.21	88.897	4,595.21	89.2892	4,595.21	88.9057	4,595.21	88.1398	4,595.21	87.7591	4,595.21	85.5532	4,595.21	85.6446	4,595.21	83.5528	4,595.21	83.0573	4,595.21	80.7767	4,595.21	80.5071	4,595.21	77.3749	4,595.21	77.2977	4,595.21	74.7707	4,595.21	75.1947	4,595.21	71.6029	4,595.21	72.7635	4,595.21	71.3431	4,595.21	71.4548	4,595.21	71.0875	4,595.21	71.9291	4,595.21	70.879	4,595.21	71.6981	4,595.21	71.643	4,595.21	71.9655	4,595.21	72.1579	4,595.21	74.7655	4,595.21	71.1566	4,595.21	68.0651	4,595.21	64.1186
4,756.35	90.0914	4,756.35	89.4745	4,756.35	89.8615	4,756.35	88.9238	4,756.35	89.1022	4,756.35	89.1854	4,756.35	89.1068	4,756.35	89.3354	4,756.35	88.967	4,756.35	87.8952	4,756.35	87.7162	4,756.35	86.1036	4,756.35	85.8973	4,756.35	83.9594	4,756.35	83.157	4,756.35	80.4991	4,756.35	81.1901	4,756.35	78.332	4,756.35	78.0599	4,756.35	74.7368	4,756.35	75.4429	4,756.35	73.5472	4,756.35	73.0402	4,756.35	69.6646	4,756.35	70.8742	4,756.35	69.0289	4,756.35	70.7699	4,756.35	72.3342	4,756.35	69.727	4,756.35	72.6195	4,756.35	72.2313	4,756.35	71.4223	4,756.35	74.1692	4,756.35	71.7596	4,756.35	71.1055	4,756.35	64.4757
4,924.8	90.2587	4,924.8	89.8371	4,924.8	89.8642	4,924.8	89.2819	4,924.8	89.064	4,924.8	89.3875	4,924.8	89.1185	4,924.8	89.1347	4,924.8	88.8399	4,924.8	87.6007	4,924.8	87.5607	4,924.8	85.3954	4,924.8	85.4679	4,924.8	82.622	4,924.8	83.4471	4,924.8	79.6983	4,924.8	80.6099	4,924.8	76.3192	4,924.8	77.9802	4,924.8	74.4702	4,924.8	74.2909	4,924.8	72.0292	4,924.8	73.0446	4,924.8	68.8045	4,924.8	71.5001	4,924.8	71.0211	4,924.8	68.3562	4,924.8	69.9402	4,924.8	69.6794	4,924.8	71.8656	4,924.8	71.4011	4,924.8	73.0976	4,924.8	74.2386	4,924.8	66.2206	4,924.8	70.6181	4,924.8	63.2198
5,097.66	89.6138	5,097.66	89.1396	5,097.66	89.3387	5,097.66	88.5921	5,097.66	88.6676	5,097.66	88.762	5,097.66	88.4967	5,097.66	88.5414	5,097.66	87.8589	5,097.66	87.1145	5,097.66	86.6511	5,097.66	85.3614	5,097.66	84.9945	5,097.66	83.1996	5,097.66	82.7892	5,097.66	80.0729	5,097.66	80.0606	5,097.66	78.109	5,097.66	77.0925	5,097.66	75.1417	5,097.66	73.9515	5,097.66	71.2013	5,097.66	71.1779	5,097.66	70.8025	5,097.66	68.9331	5,097.66	69.7732	5,097.66	69.107	5,097.66	69.35	5,097.66	71.1744	5,097.66	70.9922	5,097.66	71.7943	5,097.66	72.4741	5,097.66	73.3585	5,097.66	70.2449	5,097.66	69.4581	5,097.66	63.29
5,277.83	89.317	5,277.83	88.933	5,277.83	89.1132	5,277.83	88.2573	5,277.83	88.3223	5,277.83	88.2205	5,277.83	87.8922	5,277.83	87.3107	5,277.83	87.4135	5,277.83	85.938	5,277.83	86.1774	5,277.83	84.1641	5,277.83	84.2262	5,277.83	81.9846	5,277.83	81.9942	5,277.83	78.7151	5,277.83	78.9863	5,277.83	76.5732	5,277.83	76.1327	5,277.83	74.6749	5,277.83	73.2092	5,277.83	71.0202	5,277.83	69.9804	5,277.83	69.835	5,277.83	70.0607	5,277.83	64.8621	5,277.83	64.0476	5,277.83	68.2617	5,277.83	69.042	5,277.83	70.7119	5,277.83	70.4095	5,277.83	72.4099	5,277.83	71.9921	5,277.83	66.7214	5,277.83	68.4741	5,277.83	62.2575
5,463.87	89.5135	5,463.87	89.3436	5,463.87	89.1424	5,463.87	89.0427	5,463.87	89.0834	5,463.87	88.6452	5,463.87	88.3249	5,463.87	88.3535	5,463.87	87.8317	5,463.87	87.0641	5,463.87	86.5598	5,463.87	85.405	5,463.87	85.2105	5,463.87	82.9888	5,463.87	82.8713	5,463.87	80.4348	5,463.87	79.3695	5,463.87	77.5112	5,463.87	76.4993	5,463.87	73.9435	5,463.87	73.9579	5,463.87	70.7936	5,463.87	71.986	5,463.87	68.3022	5,463.87	69.682	5,463.87	65.9921	5,463.87	66.988	5,463.87	68.4473	5,463.87	65.0276	5,463.87	70.6924	5,463.87	70.0358	5,463.87	71.9785	5,463.87	71.7531	5,463.87	69.0367	5,463.87	67.8198	5,463.87	61.4386
5,657.23	89.2348	5,657.23	89.2837	5,657.23	89.1614	5,657.23	88.708	5,657.23	88.8648	5,657.23	88.3052	5,657.23	88.2444	5,657.23	87.8015	5,657.23	87.8664	5,657.23	86.921	5,657.23	87.0045	5,657.23	85.3474	5,657.23	85.5047	5,657.23	83.3174	5,657.23	83.1097	5,657.23	80.7943	5,657.23	80.317	5,657.23	78.2271	5,657.23	77.1246	5,657.23	76.2491	5,657.23	74.249	5,657.23	72.5948	5,657.23	71.592	5,657.23	71.4816	5,657.23	70.745	5,657.23	68.0253	5,657.23	65.6154	5,657.23	68.6789	5,657.23	65.8789	5,657.23	70.5575	5,657.23	68.6948	5,657.23	71.9172	5,657.23	71.1177	5,657.23	70.5894	5,657.23	66.5163	5,657.23	59.4632
5,856.45	89.0019	5,856.45	89.0583	5,856.45	89.3081	5,856.45	88.9018	5,856.45	89.0408	5,856.45	88.1461	5,856.45	87.8123	5,856.45	88.0663	5,856.45	87.3045	5,856.45	87.6886	5,856.45	86.8477	5,856.45	86.4626	5,856.45	85.6858	5,856.45	84.0165	5,856.45	83.1111	5,856.45	80.9195	5,856.45	80.3245	5,856.45	77.1645	5,856.45	77.3847	5,856.45	73.5447	5,856.45	74.6262	5,856.45	70.2208	5,856.45	71.8211	5,856.45	68.1426	5,856.45	70.4802	5,856.45	67.2069	5,856.45	67.4142	5,856.45	67.2365	5,856.45	67.5233	5,856.45	69.2932	5,856.45	68.814	5,856.45	72.0731	5,856.45	71.1446	5,856.45	67.7888	5,856.45	67.5215	5,856.45	56.3781
6,062.99	89.4869	6,062.99	89.7593	6,062.99	89.9377	6,062.99	89.695	6,062.99	89.8027	6,062.99	88.3926	6,062.99	88.1739	6,062.99	88.2261	6,062.99	87.6905	6,062.99	87.539	6,062.99	87.2903	6,062.99	86.0808	6,062.99	85.9055	6,062.99	83.1017	6,062.99	83.0999	6,062.99	80.0927	6,062.99	79.8372	6,062.99	77.3654	6,062.99	76.9786	6,062.99	74.6292	6,062.99	73.8476	6,062.99	71.4776	6,062.99	71.1356	6,062.99	69.5103	6,062.99	68.616	6,062.99	67.3994	6,062.99	62.961	6,062.99	68.096	6,062.99	65.9438	6,062.99	69.9251	6,062.99	68.0556	6,062.99	72.2344	6,062.99	71.7842	6,062.99	64.6861	6,062.99	66.3594	6,062.99	61.1462
6,276.86	89.0379	6,276.86	89.5347	6,276.86	89.6519	6,276.86	89.3613	6,276.86	89.5999	6,276.86	88.3259	6,276.86	88.1846	6,276.86	88.2234	6,276.86	87.8934	6,276.86	87.5656	6,276.86	87.1942	6,276.86	85.8232	6,276.86	85.5888	6,276.86	83.1073	6,276.86	82.7388	6,276.86	79.8464	6,276.86	79.6225	6,276.86	76.5836	6,276.86	76.2304	6,276.86	73.3204	6,276.86	73.1934	6,276.86	71.2148	6,276.86	70.7214	6,276.86	68.5289	6,276.86	70.1156	6,276.86	65.9338	6,276.86	63.615	6,276.86	65.2622	6,276.86	65.6819	6,276.86	69.1257	6,276.86	67.5808	6,276.86	71.1133	6,276.86	70.545	6,276.86	65.2276	6,276.86	63.3197	6,276.86	58.0539
6,498.05	89.3228	6,498.05	89.8524	6,498.05	89.8436	6,498.05	89.5221	6,498.05	89.3956	6,498.05	88.503	6,498.05	87.96	6,498.05	88.3002	6,498.05	87.7464	6,498.05	87.3633	6,498.05	86.493	6,498.05	85.2401	6,498.05	84.7099	6,498.05	82.2592	6,498.05	82.1901	6,498.05	79.3354	6,498.05	78.3662	6,498.05	76.4115	6,498.05	75.9646	6,498.05	72.9274	6,498.05	72.2193	6,498.05	71.3483	6,498.05	69.6756	6,498.05	68.3172	6,498.05	68.048	6,498.05	64.6633	6,498.05	62.5765	6,498.05	66.5612	6,498.05	64.4741	6,498.05	67.2608	6,498.05	65.6344	6,498.05	69.9396	6,498.05	68.4894	6,498.05	66.9582	6,498.05	64.4355	6,498.05	54.7694
6,726.56	89.4437	6,726.56	89.7778	6,726.56	89.974	6,726.56	89.3339	6,726.56	89.818	6,726.56	88.4853	6,726.56	88.5784	6,726.56	88.1183	6,726.56	88.2343	6,726.56	87.0279	6,726.56	86.9329	6,726.56	84.9373	6,726.56	85.1776	6,726.56	82.5001	6,726.56	82.6512	6,726.56	79.0506	6,726.56	79.4823	6,726.56	76.3721	6,726.56	76.2356	6,726.56	72.7233	6,726.56	73.113	6,726.56	70.22	6,726.56	71.1398	6,726.56	67.2501	6,726.56	69.5842	6,726.56	66.5324	6,726.56	63.279	6,726.56	65.9179	6,726.56	63.2693	6,726.56	66.3429	6,726.56	66.1166	6,726.56	69.6142	6,726.56	68.6984	6,726.56	64.9362	6,726.56	62.4974	6,726.56	54.9658
6,963.87	88.8807	6,963.87	89.0928	6,963.87	89.129	6,963.87	89.0547	6,963.87	88.9697	6,963.87	88.31	6,963.87	88.2566	6,963.87	87.7691	6,963.87	87.5199	6,963.87	86.3363	6,963.87	86.2694	6,963.87	84.2879	6,963.87	84.3777	6,963.87	81.7802	6,963.87	81.7838	6,963.87	78.7054	6,963.87	78.6784	6,963.87	75.9328	6,963.87	75.9273	6,963.87	72.156	6,963.87	72.069	6,963.87	70.0348	6,963.87	70.1208	6,963.87	67.3539	6,963.87	68.905	6,963.87	63.8358	6,963.87	64.4192	6,963.87	65.0801	6,963.87	63.7767	6,963.87	65.866	6,963.87	62.2336	6,963.87	68.9712	6,963.87	68.4734	6,963.87	64.9218	6,963.87	64.0659	6,963.87	56.0234
7,209.96	89.7201	7,209.96	89.8426	7,209.96	89.7056	7,209.96	89.5421	7,209.96	89.4116	7,209.96	88.917	7,209.96	88.4386	7,209.96	87.8401	7,209.96	87.5758	7,209.96	86.3215	7,209.96	86.0864	7,209.96	84.0643	7,209.96	84.5553	7,209.96	80.8981	7,209.96	81.7202	7,209.96	77.8574	7,209.96	78.4454	7,209.96	74.3461	7,209.96	75.2588	7,209.96	69.96	7,209.96	72.5107	7,209.96	67.8586	7,209.96	70.265	7,209.96	64.1036	7,209.96	67.2056	7,209.96	66.6782	7,209.96	61.9862	7,209.96	63.927	7,209.96	64.9092	7,209.96	64.4595	7,209.96	62.9266	7,209.96	68.0576	7,209.96	68.5039	7,209.96	60.1574	7,209.96	62.7474	7,209.96	57.1028
7,464.84	89.747	7,464.84	89.2095	7,464.84	89.4756	7,464.84	89.0237	7,464.84	89.3344	7,464.84	88.4932	7,464.84	88.7676	7,464.84	87.1507	7,464.84	87.7194	7,464.84	85.4447	7,464.84	86.188	7,464.84	83.8575	7,464.84	84.9872	7,464.84	81.2413	7,464.84	82.4042	7,464.84	78.5606	7,464.84	79.084	7,464.84	75.8131	7,464.84	75.3789	7,464.84	72.3619	7,464.84	72.3149	7,464.84	70.1063	7,464.84	69.4893	7,464.84	65.8232	7,464.84	66.3112	7,464.84	62.4043	7,464.84	61.0222	7,464.84	65.3528	7,464.84	66.2705	7,464.84	67.467	7,464.84	61.8363	7,464.84	67.58	7,464.84	69.006	7,464.84	63.0541	7,464.84	63.4008	7,464.84	57.5537
7,727.05	89.6774	7,727.05	89.2064	7,727.05	89.0836	7,727.05	89.1367	7,727.05	89.298	7,727.05	88.5433	7,727.05	88.3831	7,727.05	87.2955	7,727.05	87.1987	7,727.05	86.0937	7,727.05	85.9682	7,727.05	84.4232	7,727.05	84.5866	7,727.05	82.0838	7,727.05	81.9701	7,727.05	77.9483	7,727.05	77.7094	7,727.05	74.674	7,727.05	74.7519	7,727.05	69.9431	7,727.05	70.824	7,727.05	65.802	7,727.05	68.6166	7,727.05	64.4689	7,727.05	64.8055	7,727.05	61.8816	7,727.05	64.1374	7,727.05	63.4943	7,727.05	61.4239	7,727.05	63.8659	7,727.05	62.9533	7,727.05	66.0742	7,727.05	68.1402	7,727.05	55.5411	7,727.05	58.9802	7,727.05	54.0255
7,999.51	90.158	7,999.51	89.5084	7,999.51	89.5091	7,999.51	89.4623	7,999.51	89.6377	7,999.51	88.6933	7,999.51	88.8465	7,999.51	87.368	7,999.51	87.473	7,999.51	85.6503	7,999.51	86.2829	7,999.51	83.4474	7,999.51	84.3901	7,999.51	79.8885	7,999.51	80.8751	7,999.51	75.9133	7,999.51	77.3209	7,999.51	72.3646	7,999.51	74.0245	7,999.51	69.261	7,999.51	70.4099	7,999.51	66.8375	7,999.51	68.7425	7,999.51	63.8215	7,999.51	65.8402	7,999.51	61.9467	7,999.51	64.2069	7,999.51	65.2683	7,999.51	62.2691	7,999.51	61.1349	7,999.51	60.0295	7,999.51	61.2342	7,999.51	63.6025	7,999.51	51.6239	7,999.51	60.0141	7,999.51	54.0159
8,282.23	90.0634	8,282.23	89.2076	8,282.23	89.4597	8,282.23	88.9792	8,282.23	89.3243	8,282.23	88.1788	8,282.23	88.4583	8,282.23	86.5223	8,282.23	87.1725	8,282.23	85.2402	8,282.23	85.9566	8,282.23	82.7729	8,282.23	83.727	8,282.23	78.6732	8,282.23	80.2878	8,282.23	76.4991	8,282.23	76.3953	8,282.23	72.1873	8,282.23	73.4351	8,282.23	71.0658	8,282.23	70.873	8,282.23	66.7844	8,282.23	67.3762	8,282.23	61.9157	8,282.23	63.6871	8,282.23	63.8579	8,282.23	60.727	8,282.23	59.8628	8,282.23	61.0494	8,282.23	64.2457	8,282.23	57.8705	8,282.23	62.6733	8,282.23	64.5666	8,282.23	55.9336	8,282.23	58.2708	8,282.23	54.8034
8,573.73	90.181	8,573.73	89.4304	8,573.73	89.5983	8,573.73	89.1666	8,573.73	89.4431	8,573.73	88.0955	8,573.73	88.3099	8,573.73	86.9205	8,573.73	87.1428	8,573.73	84.9432	8,573.73	85.5955	8,573.73	82.2823	8,573.73	83.4421	8,573.73	79.1079	8,573.73	80.2944	8,573.73	75.2341	8,573.73	76.6992	8,573.73	72.8897	8,573.73	73.542	8,573.73	68.0136	8,573.73	69.7711	8,573.73	66.1629	8,573.73	66.8773	8,573.73	63.2451	8,573.73	65.4925	8,573.73	62.0009	8,573.73	64.048	8,573.73	61.4282	8,573.73	58.469	8,573.73	57.048	8,573.73	57.3284	8,573.73	60.7378	8,573.73	57.3249	8,573.73	50.7246	8,573.73	56.1856	8,573.73	56.3995
8,876.95	90.0318	8,876.95	89.4423	8,876.95	89.4521	8,876.95	88.8391	8,876.95	89.2006	8,876.95	87.7557	8,876.95	87.707	8,876.95	86.4181	8,876.95	86.4442	8,876.95	84.1987	8,876.95	84.5971	8,876.95	81.3116	8,876.95	82.0438	8,876.95	78.014	8,876.95	79.3212	8,876.95	74.7755	8,876.95	75.2961	8,876.95	71.1753	8,876.95	71.9602	8,876.95	67.2975	8,876.95	69.1714	8,876.95	63.1046	8,876.95	65.6084	8,876.95	61.8219	8,876.95	63.8633	8,876.95	61.009	8,876.95	63.4602	8,876.95	56.2008	8,876.95	60.0261	8,876.95	62.9166	8,876.95	57.2315	8,876.95	60.8593	8,876.95	63.838	8,876.95	53.4087	8,876.95	54.2515	8,876.95	51.2417
9,188.96	90.1586	9,188.96	89.736	9,188.96	89.7187	9,188.96	88.8482	9,188.96	89.0686	9,188.96	87.7762	9,188.96	87.6351	9,188.96	86.056	9,188.96	86.0454	9,188.96	83.1557	9,188.96	83.5641	9,188.96	80.2072	9,188.96	81.0311	9,188.96	76.6112	9,188.96	77.5434	9,188.96	73.0829	9,188.96	74.2001	9,188.96	69.3451	9,188.96	70.5578	9,188.96	66.569	9,188.96	67.5746	9,188.96	63.6988	9,188.96	65.2251	9,188.96	62.0623	9,188.96	62.1348	9,188.96	62.5289	9,188.96	61.6178	9,188.96	55.6606	9,188.96	56.7273	9,188.96	59.366	9,188.96	56.7797	9,188.96	56.9188	9,188.96	60.0765	9,188.96	54.9943	9,188.96	52.0559	9,188.96	53.1647
9,514.16	90.2557	9,514.16	89.9143	9,514.16	90.0103	9,514.16	88.8432	9,514.16	89.022	9,514.16	87.6852	9,514.16	87.6145	9,514.16	85.8214	9,514.16	85.8218	9,514.16	82.9545	9,514.16	83.1112	9,514.16	80.1097	9,514.16	80.8012	9,514.16	75.5787	9,514.16	77.1161	9,514.16	72.7192	9,514.16	72.2379	9,514.16	68.4946	9,514.16	69.0137	9,514.16	64.1439	9,514.16	65.1274	9,514.16	60.6282	9,514.16	62.3945	9,514.16	60.6856	9,514.16	60.5987	9,514.16	59.443	9,514.16	59.0583	9,514.16	59.6396	9,514.16	53.1694	9,514.16	44.5003	9,514.16	46.9396	9,514.16	55.8568	9,514.16	53.2159	9,514.16	49.1528	9,514.16	55.632	9,514.16	49.3788
9,849.61	90.698	9,849.61	90.3667	9,849.61	90.471	9,849.61	89.2143	9,849.61	89.3062	9,849.61	87.9353	9,849.61	87.8404	9,849.61	86.044	9,849.61	85.8807	9,849.61	82.9231	9,849.61	83.0702	9,849.61	79.4463	9,849.61	80.2158	9,849.61	74.3036	9,849.61	76.3194	9,849.61	70.0259	9,849.61	71.8775	9,849.61	68.0397	9,849.61	68.3038	9,849.61	61.8768	9,849.61	65.3532	9,849.61	59.804	9,849.61	61.8167	9,849.61	59.8533	9,849.61	61.5643	9,849.61	56.8568	9,849.61	55.8249	9,849.61	58.7171	9,849.61	54.9967	9,849.61	48.3756	9,849.61	47.5677	9,849.61	55.4024	9,849.61	50.6045	9,849.61	51.1901	9,849.61	47.9278	9,849.61	56.6218
10,196.8	91.0395	10,196.8	90.7673	10,196.8	90.798	10,196.8	89.3811	10,196.8	89.6053	10,196.8	88.0438	10,196.8	88.0351	10,196.8	85.7791	10,196.8	85.5991	10,196.8	82.1475	10,196.8	82.5343	10,196.8	78.6186	10,196.8	79.6649	10,196.8	73.1675	10,196.8	75.6866	10,196.8	68.331	10,196.8	71.1712	10,196.8	66.8732	10,196.8	68.2767	10,196.8	59.2162	10,196.8	63.9419	10,196.8	60.7939	10,196.8	61.4866	10,196.8	57.6383	10,196.8	62.6514	10,196.8	56.382	10,196.8	57.5044	10,196.8	56.1884	10,196.8	54.6973	10,196.8	49.5236	10,196.8	45.1511	10,196.8	49.5624	10,196.8	54.3031	10,196.8	48.6135	10,196.8	50.4497	10,196.8	48.9006
10,555.7	91.0856	10,555.7	90.8547	10,555.7	90.8068	10,555.7	89.3739	10,555.7	89.5945	10,555.7	87.8912	10,555.7	87.9159	10,555.7	85.0295	10,555.7	85.2139	10,555.7	81.0892	10,555.7	82.0473	10,555.7	76.7233	10,555.7	78.103	10,555.7	70.9761	10,555.7	73.35	10,555.7	68.2259	10,555.7	69.622	10,555.7	65.7538	10,555.7	67.4505	10,555.7	61.4193	10,555.7	64.73	10,555.7	60.0819	10,555.7	61.264	10,555.7	60.2451	10,555.7	61.8527	10,555.7	53.266	10,555.7	55.581	10,555.7	56.2905	10,555.7	57.3024	10,555.7	44.466	10,555.7	47.7977	10,555.7	49.8826	10,555.7	46.1057	10,555.7	52.4361	10,555.7	58.5806	10,555.7	51.2987
10,927.7	91.0651	10,927.7	90.6601	10,927.7	90.821	10,927.7	89.2274	10,927.7	89.3231	10,927.7	87.0717	10,927.7	87.312	10,927.7	84.0497	10,927.7	84.3599	10,927.7	79.514	10,927.7	81.1429	10,927.7	74.2081	10,927.7	76.9719	10,927.7	70.3434	10,927.7	74.5177	10,927.7	67.1619	10,927.7	69.9696	10,927.7	65.5468	10,927.7	68.2885	10,927.7	61.0353	10,927.7	62.8806	10,927.7	60.8879	10,927.7	60.8014	10,927.7	57.9515	10,927.7	60.9493	10,927.7	51.1695	10,927.7	56.0382	10,927.7	50.362	10,927.7	57.9564	10,927.7	50.6222	10,927.7	50.5694	10,927.7	46.1572	10,927.7	48.4137	10,927.7	58.5469	10,927.7	58.3611	10,927.7	40.4655
11,313	90.8673	11,313	90.2803	11,313	90.5392	11,313	88.6236	11,313	89.0648	11,313	86.3205	11,313	86.6201	11,313	83.1041	11,313	83.3591	11,313	77.7199	11,313	78.9563	11,313	73.5505	11,313	76.0706	11,313	71.1999	11,313	73.8045	11,313	65.9693	11,313	69.9837	11,313	65.2625	11,313	67.0027	11,313	57.523	11,313	63.6126	11,313	58.429	11,313	61.9496	11,313	51.4273	11,313	58.5173	11,313	49.8717	11,313	53.4657	11,313	50.037	11,313	54.9139	11,313	50.5266	11,313	39.9034	11,313	45.3072	11,313	50.1241	11,313	51.8219	11,313	48.8515	11,313	51.4203
11,712.9	90.4343	11,712.9	89.7569	11,712.9	90.1209	11,712.9	88.0573	11,712.9	88.6256	11,712.9	85.6966	11,712.9	86.3485	11,712.9	82.3947	11,712.9	83.2116	11,712.9	76.8704	11,712.9	79.1448	11,712.9	75.3221	11,712.9	78.2038	11,712.9	72.1582	11,712.9	75.6776	11,712.9	69.368	11,712.9	71.9569	11,712.9	66.3792	11,712.9	69.9675	11,712.9	63.4375	11,712.9	64.4762	11,712.9	62.0356	11,712.9	63.464	11,712.9	57.5313	11,712.9	63.2073	11,712.9	56.7647	11,712.9	60.2438	11,712.9	52.5297	11,712.9	56.9921	11,712.9	47.8517	11,712.9	52.4979	11,712.9	51.8032	11,712.9	57.3524	11,712.9	57.7715	11,712.9	58.4694	11,712.9	33.2028
12,126	89.9401	12,126	88.9435	12,126	89.5122	12,126	87.8	12,126	88.1251	12,126	83.7647	12,126	84.989	12,126	81.8798	12,126	83.0634	12,126	77.9379	12,126	80.1314	12,126	77.4002	12,126	79.9254	12,126	75.545	12,126	77.91	12,126	73.5621	12,126	75.5999	12,126	71.0441	12,126	72.3563	12,126	67.1887	12,126	68.4131	12,126	64.0044	12,126	66.772	12,126	60.7767	12,126	63.7432	12,126	57.9621	12,126	58.7066	12,126	54.4028	12,126	60.4007	12,126	40.8133	12,126	56.7791	12,126	51.8303	12,126	54.309	12,126	56.3524	12,126	58.5696	12,126	46.9018
12,553.7	89.4042	12,553.7	88.4365	12,553.7	88.7619	12,553.7	86.6589	12,553.7	87.7702	12,553.7	83.6202	12,553.7	85.0332	12,553.7	81.849	12,553.7	82.9917	12,553.7	79.7553	12,553.7	81.7608	12,553.7	79.583	12,553.7	81.6034	12,553.7	78.2518	12,553.7	80.2015	12,553.7	76.0993	12,553.7	77.029	12,553.7	71.9978	12,553.7	73.759	12,553.7	68.7957	12,553.7	69.6534	12,553.7	66.2282	12,553.7	68.1698	12,553.7	61.3544	12,553.7	66.373	12,553.7	61.2331	12,553.7	59.8444	12,553.7	31.4358	12,553.7	62.3643	12,553.7	53.5479	12,553.7	60.2573	12,553.7	52.8923	12,553.7	61.2053	12,553.7	59.9371	12,553.7	59.6039	12,553.7	37.0509
12,996.1	88.9115	12,996.1	87.8433	12,996.1	88.251	12,996.1	86.1479	12,996.1	87.1528	12,996.1	84.1852	12,996.1	85.2802	12,996.1	81.9422	12,996.1	84.1185	12,996.1	82.1095	12,996.1	83.9182	12,996.1	81.5735	12,996.1	83.1437	12,996.1	80.0645	12,996.1	81.9321	12,996.1	76.7964	12,996.1	78.089	12,996.1	72.716	12,996.1	73.793	12,996.1	69.2746	12,996.1	70.8919	12,996.1	65.9829	12,996.1	68.2991	12,996.1	62.0497	12,996.1	65.5896	12,996.1	59.5737	12,996.1	62.7339	12,996.1	49.306	12,996.1	62.8502	12,996.1	50.4494	12,996.1	61.2106	12,996.1	50.1751	12,996.1	61.2877	12,996.1	60.6404	12,996.1	60.7597	12,996.1	43.2545
13,454.6	88.6633	13,454.6	87.237	13,454.6	88.1321	13,454.6	86.3583	13,454.6	87.1328	13,454.6	84.7504	13,454.6	85.793	13,454.6	83.9222	13,454.6	85.3868	13,454.6	83.9372	13,454.6	84.7538	13,454.6	83.7976	13,454.6	84.9102	13,454.6	81.1766	13,454.6	82.7869	13,454.6	77.19	13,454.6	78.4119	13,454.6	73.9494	13,454.6	74.3459	13,454.6	68.936	13,454.6	71.6778	13,454.6	66.5102	13,454.6	68.3485	13,454.6	62.4874	13,454.6	64.4747	13,454.6	60.0222	13,454.6	57.4303	13,454.6	46.8046	13,454.6	62.9266	13,454.6	51.4868	13,454.6	61.673	13,454.6	41.0485	13,454.6	62.81	13,454.6	58.9321	13,454.6	58.4508	13,454.6	51.8711
13,929.2	88.5938	13,929.2	87.9795	13,929.2	88.2125	13,929.2	86.5722	13,929.2	87.8763	13,929.2	85.8716	13,929.2	87.2644	13,929.2	86.0741	13,929.2	87.0575	13,929.2	85.1835	13,929.2	86.1491	13,929.2	85.1544	13,929.2	86.2857	13,929.2	82.3533	13,929.2	83.756	13,929.2	78.1855	13,929.2	79.1047	13,929.2	75.0877	13,929.2	76.2098	13,929.2	69.6332	13,929.2	72.2866	13,929.2	66.9139	13,929.2	68.3585	13,929.2	63.352	13,929.2	64.2083	13,929.2	63.5663	13,929.2	57.6846	13,929.2	49.6452	13,929.2	63.3932	13,929.2	53.9253	13,929.2	63.8556	13,929.2	54.613	13,929.2	63.2973	13,929.2	53.0381	13,929.2	57.2542	13,929.2	47.9917
14,419.9	89.3285	14,419.9	88.6205	14,419.9	89.4724	14,419.9	88.1739	14,419.9	89.1013	14,419.9	87.168	14,419.9	88.6513	14,419.9	87.7876	14,419.9	88.5419	14,419.9	87.1793	14,419.9	88.1947	14,419.9	86.2489	14,419.9	87.0626	14,419.9	84.0401	14,419.9	85.2077	14,419.9	80.2356	14,419.9	80.8554	14,419.9	76.0583	14,419.9	77.3252	14,419.9	71.6601	14,419.9	72.7185	14,419.9	69.5815	14,419.9	69.9559	14,419.9	64.6674	14,419.9	65.5182	14,419.9	64.1247	14,419.9	60.8072	14,419.9	53.0579	14,419.9	63.2042	14,419.9	53.512	14,419.9	65.0145	14,419.9	58.8565	14,419.9	61.93	14,419.9	53.6339	14,419.9	62.3254	14,419.9	54.831
14,928.2	91.1636	14,928.2	90.5703	14,928.2	91.1057	14,928.2	89.9243	14,928.2	91.0604	14,928.2	89.6516	14,928.2	90.8337	14,928.2	89.7611	14,928.2	90.2555	14,928.2	88.5316	14,928.2	89.9379	14,928.2	87.3953	14,928.2	88.3376	14,928.2	84.9883	14,928.2	86.4908	14,928.2	80.8989	14,928.2	81.0413	14,928.2	75.7871	14,928.2	77.6807	14,928.2	71.5985	14,928.2	73.6565	14,928.2	69.4773	14,928.2	70.3492	14,928.2	65.5548	14,928.2	65.5946	14,928.2	65.6796	14,928.2	63.0265	14,928.2	54.3262	14,928.2	62.4568	14,928.2	52.3994	14,928.2	65.803	14,928.2	58.5947	14,928.2	56.7089	14,928.2	49.5951	14,928.2	61.7848	14,928.2	55.2688
15,455.6	92.8376	15,455.6	92.2037	15,455.6	92.8879	15,455.6	91.9605	15,455.6	92.5776	15,455.6	91.0859	15,455.6	91.8312	15,455.6	90.8069	15,455.6	91.3915	15,455.6	89.2021	15,455.6	90.6387	15,455.6	87.4809	15,455.6	88.9547	15,455.6	84.1757	15,455.6	85.8082	15,455.6	79.795	15,455.6	81.521	15,455.6	75.0746	15,455.6	77.5524	15,455.6	71.3721	15,455.6	73.5626	15,455.6	66.1722	15,455.6	70.3567	15,455.6	63.7166	15,455.6	65.1435	15,455.6	65.4319	15,455.6	64.9263	15,455.6	53.8321	15,455.6	59.0828	15,455.6	50.8347	15,455.6	63.6362	15,455.6	58.4844	15,455.6	57.2637	15,455.6	59.65	15,455.6	61.4379	15,455.6	59.2141
16,000.5	92.7154	16,000.5	92.0734	16,000.5	92.3708	16,000.5	91.591	16,000.5	91.9532	16,000.5	90.1637	16,000.5	90.6917	16,000.5	89.5734	16,000.5	90.1104	16,000.5	87.0649	16,000.5	88.7112	16,000.5	85.1912	16,000.5	86.9036	16,000.5	80.9705	16,000.5	83.9731	16,000.5	76.7332	16,000.5	79.5552	16,000.5	72.7611	16,000.5	75.1014	16,000.5	68.2865	16,000.5	71.6934	16,000.5	64.5159	16,000.5	67.4547	16,000.5	59.7126	16,000.5	62.5825	16,000.5	65.3688	16,000.5	62.6819	16,000.5	31.0022	16,000.5	56.6787	16,000.5	52.0032	16,000.5	60.0206	16,000.5	39.7753	16,000.5	45.5556	16,000.5	60.1794	16,000.5	61.3286	16,000.5	53.737
16,564.5	90.8534	16,564.5	90.2322	16,564.5	90.3809	16,564.5	89.558	16,564.5	89.5092	16,564.5	87.5088	16,564.5	87.9892	16,564.5	86.3236	16,564.5	86.8902	16,564.5	82.7447	16,564.5	84.8994	16,564.5	80.2255	16,564.5	82.744	16,564.5	76.4225	16,564.5	80.1703	16,564.5	71.4994	16,564.5	75.0237	16,564.5	69.001	16,564.5	70.802	16,564.5	63.0004	16,564.5	67.0839	16,564.5	58.1036	16,564.5	63.2914	16,564.5	57.9849	16,564.5	57.45	16,564.5	60.1268	16,564.5	58.8174	16,564.5	39.9201	16,564.5	52.6331	16,564.5	51.6823	16,564.5	56.4321	16,564.5	36.0078	16,564.5	49.9748	16,564.5	58.0997	16,564.5	57.574	16,564.5	40.937
17,148.9	88.9165	17,148.9	88.2213	17,148.9	88.1323	17,148.9	87.3829	17,148.9	87.0013	17,148.9	84.4789	17,148.9	84.8915	17,148.9	81.91	17,148.9	83.3434	17,148.9	78.1231	17,148.9	80.6656	17,148.9	74.1729	17,148.9	78.4151	17,148.9	71.2585	17,148.9	75.5501	17,148.9	66.2747	17,148.9	70.8366	17,148.9	62.7681	17,148.9	66.0537	17,148.9	56.9593	17,148.9	62.4539	17,148.9	50.3643	17,148.9	58.6675	17,148.9	52.9392	17,148.9	49.9928	17,148.9	55.1035	17,148.9	52.1523	17,148.9	41.7184	17,148.9	47.7311	17,148.9	48.9166	17,148.9	50.3443	17,148.9	47.9054	17,148.9	43.545	17,148.9	54.392	17,148.9	52.9207	17,148.9	23.4878
17,752.4	87.2222	17,752.4	86.6594	17,752.4	86.3497	17,752.4	85.3075	17,752.4	84.9373	17,752.4	82.0248	17,752.4	82.3889	17,752.4	78.1026	17,752.4	80.2868	17,752.4	72.4722	17,752.4	77.2728	17,752.4	69.2402	17,752.4	75.383	17,752.4	66.5501	17,752.4	71.8332	17,752.4	62.034	17,752.4	66.4796	17,752.4	60.5629	17,752.4	61.2559	17,752.4	52.0488	17,752.4	58.4276	17,752.4	51.8242	17,752.4	54.6805	17,752.4	48.0772	17,752.4	46.7935	17,752.4	48.5854	17,752.4	46.9553	17,752.4	38.6861	17,752.4	44.6101	17,752.4	45.8296	17,752.4	42.8071	17,752.4	49.8738	17,752.4	36.875	17,752.4	46.4137	17,752.4	49.081	17,752.4	37.0751
18,379.4	86.0503	18,379.4	85.3741	18,379.4	85.2182	18,379.4	83.9721	18,379.4	83.5435	18,379.4	79.5962	18,379.4	80.7767	18,379.4	74.1023	18,379.4	77.9239	18,379.4	67.1644	18,379.4	75.2479	18,379.4	66.6194	18,379.4	72.8617	18,379.4	63.9414	18,379.4	68.9272	18,379.4	60.9845	18,379.4	64.4754	18,379.4	58.4417	18,379.4	59.3465	18,379.4	49.7211	18,379.4	56.9926	18,379.4	50.0753	18,379.4	51.1254	18,379.4	43.1482	18,379.4	33.6846	18,379.4	44.469	18,379.4	38.2905	18,379.4	37.3283	18,379.4	40.4014	18,379.4	45.3601	18,379.4	43.7281	18,379.4	44.0737	18,379.4	45.264	18,379.4	47.4556	18,379.4	45.8297	18,379.4	29.3471
19,026.9	84.914	19,026.9	84.4638	19,026.9	84.166	19,026.9	82.8409	19,026.9	82.6535	19,026.9	77.9336	19,026.9	80.0473	19,026.9	67.5424	19,026.9	76.2708	19,026.9	60.6894	19,026.9	73.8553	19,026.9	65.4264	19,026.9	72.0675	19,026.9	66.7593	19,026.9	70.4208	19,026.9	63.1893	19,026.9	65.8405	19,026.9	60.1992	19,026.9	60.3561	19,026.9	52.5462	19,026.9	56.5645	19,026.9	51.0961	19,026.9	52.4751	19,026.9	47.254	19,026.9	48.9007	19,026.9	48.6911	19,026.9	52.9824	19,026.9	34.9088	19,026.9	34.315	19,026.9	40.5303	19,026.9	39.4567	19,026.9	46.2181	19,026.9	48.5234	19,026.9	45.1189	19,026.9	41.3796	19,026.9	36.2588
19,697.8	83.7799	19,697.8	83.1694	19,697.8	83.1514	19,697.8	81.8347	19,697.8	82.245	19,697.8	76.8835	19,697.8	79.6183	19,697.8	71.0794	19,697.8	76.1002	19,697.8	64.0547	19,697.8	73.296	19,697.8	65.1619	19,697.8	73.43	19,697.8	67.4443	19,697.8	71.2648	19,697.8	64.841	19,697.8	67.2159	19,697.8	60.9366	19,697.8	61.6094	19,697.8	56.7547	19,697.8	57.1923	19,697.8	52.4377	19,697.8	52.7971	19,697.8	45.2124	19,697.8	48.3903	19,697.8	42.8004	19,697.8	51.681	19,697.8	36.9991	19,697.8	39.4907	19,697.8	43.312	19,697.8	42.8599	19,697.8	32.7145	19,697.8	49.3285	19,697.8	45.0668	19,697.8	28.8949	19,697.8	18.8212
19,999.5	83.3154	19,999.5	82.9185	19,999.5	82.6526	19,999.5	81.6952	19,999.5	82.5613	19,999.5	77.4773	19,999.5	79.281	19,999.5	74.0964	19,999.5	75.7484	19,999.5	66.0148	19,999.5	72.7969	19,999.5	62.9528	19,999.5	73.8255	19,999.5	67.2522	19,999.5	71.3583	19,999.5	64.3951	19,999.5	68.3931	19,999.5	60.8007	19,999.5	61.5676	19,999.5	59.6915	19,999.5	53.9543	19,999.5	58.8872	19,999.5	45.2676	19,999.5	55.2363	19,999.5	51.7403	19,999.5	50.206	19,999.5	36.9114	19,999.5	49.1526	19,999.5	41.8734	19,999.5	47.4623	19,999.5	54.1121	19,999.5	44.4722	19,999.5	42.7087	19,999.5	46.1535	19,999.5	55.1621	19,999.5	50.8571
