"SPL Vertical"
"On-Axis"		"10°"		"-10°"		"20°"		"-20°"		"30°"		"-30°"		"40°"		"-40°"		"50°"		"-50°"		"60°"		"-60°"		"70°"		"-70°"		"80°"		"-80°"		"90°"		"-90°"		"100°"		"-100°"		"110°"		"-110°"		"120°"		"-120°"		"130°"		"-130°"		"140°"		"-140°"		"150°"		"-150°"		"160°"		"-160°"		"170°"		"-170°"		"180°"
"Frequency / Hz"	"Sound Pressure Level / dB (re 20 µPa/V)  [2.83  V @ 1. m]"	"Frequency / Hz"	"Sound Pressure Level / dB (re 20 µPa/V)  [2.83  V @ 1. m]"	"Frequency / Hz"	"Sound Pressure Level / dB (re 20 µPa/V)  [2.83  V @ 1. m]"	"Frequency / Hz"	"Sound Pressure Level / dB (re 20 µPa/V)  [2.83  V @ 1. m]"	"Frequency / Hz"	"Sound Pressure Level / dB (re 20 µPa/V)  [2.83  V @ 1. m]"	"Frequency / Hz"	"Sound Pressure Level / dB (re 20 µPa/V)  [2.83  V @ 1. m]"	"Frequency / Hz"	"Sound Pressure Level / dB (re 20 µPa/V)  [2.83  V @ 1. m]"	"Frequency / Hz"	"Sound Pressure Level / dB (re 20 µPa/V)  [2.83  V @ 1. m]"	"Frequency / Hz"	"Sound Pressure Level / dB (re 20 µPa/V)  [2.83  V @ 1. m]"	"Frequency / Hz"	"Sound Pressure Level / dB (re 20 µPa/V)  [2.83  V @ 1. m]"	"Frequency / Hz"	"Sound Pressure Level / dB (re 20 µPa/V)  [2.83  V @ 1. m]"	"Frequency / Hz"	"Sound Pressure Level / dB (re 20 µPa/V)  [2.83  V @ 1. m]"	"Frequency / Hz"	"Sound Pressure Level / dB (re 20 µPa/V)  [2.83  V @ 1. m]"	"Frequency / Hz"	"Sound Pressure Level / dB (re 20 µPa/V)  [2.83  V @ 1. m]"	"Frequency / Hz"	"Sound Pressure Level / dB (re 20 µPa/V)  [2.83  V @ 1. m]"	"Frequency / Hz"	"Sound Pressure Level / dB (re 20 µPa/V)  [2.83  V @ 1. m]"	"Frequency / Hz"	"Sound Pressure Level / dB (re 20 µPa/V)  [2.83  V @ 1. m]"	"Frequency / Hz"	"Sound Pressure Level / dB (re 20 µPa/V)  [2.83  V @ 1. m]"	"Frequency / Hz"	"Sound Pressure Level / dB (re 20 µPa/V)  [2.83  V @ 1. m]"	"Frequency / Hz"	"Sound Pressure Level / dB (re 20 µPa/V)  [2.83  V @ 1. m]"	"Frequency / Hz"	"Sound Pressure Level / dB (re 20 µPa/V)  [2.83  V @ 1. m]"	"Frequency / Hz"	"Sound Pressure Level / dB (re 20 µPa/V)  [2.83  V @ 1. m]"	"Frequency / Hz"	"Sound Pressure Level / dB (re 20 µPa/V)  [2.83  V @ 1. m]"	"Frequency / Hz"	"Sound Pressure Level / dB (re 20 µPa/V)  [2.83  V @ 1. m]"	"Frequency / Hz"	"Sound Pressure Level / dB (re 20 µPa/V)  [2.83  V @ 1. m]"	"Frequency / Hz"	"Sound Pressure Level / dB (re 20 µPa/V)  [2.83  V @ 1. m]"	"Frequency / Hz"	"Sound Pressure Level / dB (re 20 µPa/V)  [2.83  V @ 1. m]"	"Frequency / Hz"	"Sound Pressure Level / dB (re 20 µPa/V)  [2.83  V @ 1. m]"	"Frequency / Hz"	"Sound Pressure Level / dB (re 20 µPa/V)  [2.83  V @ 1. m]"	"Frequency / Hz"	"Sound Pressure Level / dB (re 20 µPa/V)  [2.83  V @ 1. m]"	"Frequency / Hz"	"Sound Pressure Level / dB (re 20 µPa/V)  [2.83  V @ 1. m]"	"Frequency / Hz"	"Sound Pressure Level / dB (re 20 µPa/V)  [2.83  V @ 1. m]"	"Frequency / Hz"	"Sound Pressure Level / dB (re 20 µPa/V)  [2.83  V @ 1. m]"	"Frequency / Hz"	"Sound Pressure Level / dB (re 20 µPa/V)  [2.83  V @ 1. m]"	"Frequency / Hz"	"Sound Pressure Level / dB (re 20 µPa/V)  [2.83  V @ 1. m]"	"Frequency / Hz"	"Sound Pressure Level / dB (re 20 µPa/V)  [2.83  V @ 1. m]"
20.5078	55.8934	20.5078	56.2589	20.5078	55.2568	20.5078	56.3659	20.5078	54.447	20.5078	56.2455	20.5078	53.9386	20.5078	55.9264	20.5078	54.6976	20.5078	55.4376	20.5078	56.9474	20.5078	54.8224	20.5078	59.723	20.5078	54.1688	20.5078	62.3181	20.5078	53.6562	20.5078	64.518	20.5078	53.5711	20.5078	66.2908	20.5078	54.1693	20.5078	67.6498	20.5078	55.4337	20.5078	68.6169	20.5078	57.0979	20.5078	69.2152	20.5078	58.8937	20.5078	69.4689	20.5078	60.664	20.5078	69.404	20.5078	62.3375	20.5078	69.048	20.5078	63.883	20.5078	68.4298	20.5078	65.2832	20.5078	67.5786	20.5078	66.5217
21.9727	59.9607	21.9727	60.1658	21.9727	59.6551	21.9727	60.2425	21.9727	59.3638	21.9727	60.1977	21.9727	59.3601	21.9727	60.0516	21.9727	60.0232	21.9727	59.8323	21.9727	61.4816	21.9727	59.5782	21.9727	63.4202	21.9727	59.3432	21.9727	65.4243	21.9727	59.2023	21.9727	67.2407	21.9727	59.2478	21.9727	68.7589	21.9727	59.5663	21.9727	69.9404	21.9727	60.2015	21.9727	70.7779	21.9727	61.1295	21.9727	71.2794	21.9727	62.274	21.9727	71.4612	21.9727	63.5426	21.9727	71.346	21.9727	64.8551	21.9727	70.9615	21.9727	66.1507	21.9727	70.3391	21.9727	67.3835	21.9727	69.5123	21.9727	68.5156
23.4375	62.0611	23.4375	62.2352	23.4375	61.802	23.4375	62.2932	23.4375	61.5608	23.4375	62.235	23.4375	61.5653	23.4375	62.0724	23.4375	62.1298	23.4375	61.8232	23.4375	63.3949	23.4375	61.5126	23.4375	65.1385	23.4375	61.1782	23.4375	66.9987	23.4375	60.8781	23.4375	68.7186	23.4375	60.6972	23.4375	70.1697	23.4375	60.7414	23.4375	71.2989	23.4375	61.1054	23.4375	72.0895	23.4375	61.8248	23.4375	72.5431	23.4375	62.8537	23.4375	72.6722	23.4375	64.0928	23.4375	72.4968	23.4375	65.4368	23.4375	72.0433	23.4375	66.7997	23.4375	71.3428	23.4375	68.1179	23.4375	70.43	23.4375	69.3421
24.9023	65.8971	24.9023	65.9206	24.9023	65.8471	24.9023	65.886	24.9023	65.8429	24.9023	65.7844	24.9023	66.0112	24.9023	65.619	24.9023	66.5078	24.9023	65.4003	24.9023	67.4225	24.9023	65.1449	24.9023	68.6871	24.9023	64.8776	24.9023	70.1126	24.9023	64.6355	24.9023	71.5033	24.9023	64.4707	24.9023	72.7205	24.9023	64.4496	24.9023	73.6847	24.9023	64.6421	24.9023	74.3571	24.9023	65.0978	24.9023	74.7247	24.9023	65.8237	24.9023	74.7915	24.9023	66.7789	24.9023	74.573	24.9023	67.8921	24.9023	74.0941	24.9023	69.0854	24.9023	73.3864	24.9023	70.2878	24.9023	72.4875	24.9023	71.4392
26.3672	67.8542	26.3672	67.828	26.3672	67.8448	26.3672	67.7486	26.3672	67.8438	26.3672	67.6129	26.3672	67.9343	26.3672	67.4258	26.3672	68.2382	26.3672	67.1976	26.3672	68.868	26.3672	66.944	26.3672	69.842	26.3672	66.6883	26.3672	71.049	26.3672	66.4641	26.3672	72.3134	26.3672	66.3177	26.3672	73.4787	26.3672	66.306	26.3672	74.4403	26.3672	66.4876	26.3672	75.1409	26.3672	66.9042	26.3672	75.5556	26.3672	67.5628	26.3672	75.6816	26.3672	68.4307	26.3672	75.5304	26.3672	69.4476	26.3672	75.1246	26.3672	70.5435	26.3672	74.4944	26.3672	71.652	26.3672	73.6769	26.3672	72.7138
27.832	69.5352	27.832	69.4835	27.832	69.5643	27.832	69.3914	27.832	69.612	27.832	69.2546	27.832	69.7516	27.832	69.0771	27.832	70.0846	27.832	68.8681	27.832	70.7016	27.832	68.642	27.832	71.6163	27.832	68.4194	27.832	72.7372	27.832	68.2291	27.832	73.913	27.832	68.109	27.832	75.0009	27.832	68.1047	27.832	75.8992	27.832	68.2637	27.832	76.5484	27.832	68.6226	27.832	76.9207	27.832	69.1946	27.832	77.011	27.832	69.9628	27.832	76.8301	27.832	70.8844	27.832	76.401	27.832	71.9023	27.832	75.7561	27.832	72.9555	27.832	74.9354	27.832	73.9849
29.2969	72.2986	29.2969	72.182	29.2969	72.4176	29.2969	72.0508	29.2969	72.5724	29.2969	71.8992	29.2969	72.8159	29.2969	71.7292	29.2969	73.2142	29.2969	71.5481	29.2969	73.8215	29.2969	71.3685	29.2969	74.6428	29.2969	71.2084	29.2969	75.6164	29.2969	71.0921	29.2969	76.6352	29.2969	71.0502	29.2969	77.5872	29.2969	71.1174	29.2969	78.3835	29.2969	71.3275	29.2969	78.966	29.2969	71.7053	29.2969	79.3039	29.2969	72.2586	29.2969	79.3883	29.2969	72.9734	29.2969	79.226	29.2969	73.8168	29.2969	78.8369	29.2969	74.7429	29.2969	78.2502	29.2969	75.7004	29.2969	77.5027	29.2969	76.6371
30.7617	74.3097	30.7617	74.2102	30.7617	74.4209	30.7617	74.1073	30.7617	74.5727	30.7617	73.9953	30.7617	74.8104	30.7617	73.8751	30.7617	75.1934	30.7617	73.7525	30.7617	75.7762	30.7617	73.6377	30.7617	76.576	30.7617	73.5452	30.7617	77.5469	30.7617	73.4933	30.7617	78.5884	30.7617	73.5046	30.7617	79.5819	30.7617	73.6034	30.7617	80.4243	30.7617	73.814	30.7617	81.0439	30.7617	74.1553	30.7617	81.4008	30.7617	74.6373	30.7617	81.4828	30.7617	75.2572	30.7617	81.2996	30.7617	75.9991	30.7617	80.8783	30.7617	76.8349	30.7617	80.2593	30.7617	77.7269	30.7617	79.4917	30.7617	78.6295
32.2266	76.6321	32.2266	76.4828	32.2266	76.8074	32.2266	76.346	32.2266	77.0314	32.2266	76.2157	32.2266	77.3371	32.2266	76.0913	32.2266	77.7635	32.2266	75.9766	32.2266	78.3434	32.2266	75.8796	32.2266	79.0829	32.2266	75.8113	32.2266	79.9454	32.2266	75.7863	32.2266	80.8547	32.2266	75.822	32.2266	81.7165	32.2266	75.9369	32.2266	82.4435	32.2266	76.1491	32.2266	82.9704	32.2266	76.4727	32.2266	83.2589	32.2266	76.9157	32.2266	83.2961	32.2266	77.4768	32.2266	83.0907	32.2266	78.1451	32.2266	82.6691	32.2266	78.8998	32.2266	82.0711	32.2266	79.7113	32.2266	81.3446	32.2266	80.5413
33.6914	78.6895	33.6914	78.524	33.6914	78.8847	33.6914	78.3781	33.6914	79.1269	33.6914	78.2466	33.6914	79.4398	33.6914	78.129	33.6914	79.8513	33.6914	78.0282	33.6914	80.3848	33.6914	77.9501	33.6914	81.0447	33.6914	77.9032	33.6914	81.8041	33.6914	77.8984	33.6914	82.6032	33.6914	77.9483	33.6914	83.3634	33.6914	78.0667	33.6914	84.0068	33.6914	78.2666	33.6914	84.472	33.6914	78.5591	33.6914	84.7209	33.6914	78.9509	33.6914	84.7393	33.6914	79.443	33.6914	84.535	33.6914	80.0294	33.6914	84.1332	33.6914	80.6956	33.6914	83.573	33.6914	81.419	33.6914	82.9013	33.6914	82.1676
35.1562	80.2431	35.1562	80.0625	35.1562	80.4544	35.1562	79.9047	35.1562	80.709	35.1562	79.766	35.1562	81.0244	35.1562	79.6458	35.1562	81.4213	35.1562	79.5461	35.1562	81.9173	35.1562	79.4715	35.1562	82.5168	35.1562	79.4284	35.1562	83.1995	35.1562	79.4252	35.1562	83.9171	35.1562	79.4716	35.1562	84.6016	35.1562	79.5786	35.1562	85.1815	35.1562	79.7567	35.1562	85.5974	35.1562	80.0155	35.1562	85.8108	35.1562	80.3623	35.1562	85.8061	35.1562	80.7999	35.1562	85.5902	35.1562	81.3258	35.1562	85.1884	35.1562	81.9307	35.1562	84.6402	35.1562	82.5969	35.1562	83.9931	35.1562	83.2968
36.6211	81.2513	36.6211	81.0589	36.6211	81.4758	36.6211	80.8925	36.6211	81.7419	36.6211	80.7492	36.6211	82.0629	36.6211	80.6283	36.6211	82.4544	36.6211	80.5315	36.6211	82.9296	36.6211	80.4624	36.6211	83.4916	36.6211	80.4261	36.6211	84.1236	36.6211	80.4293	36.6211	84.7845	36.6211	80.48	36.6211	85.4141	36.6211	80.587	36.6211	85.9473	36.6211	80.7591	36.6211	86.3278	36.6211	81.0047	36.6211	86.5178	36.6211	81.3301	36.6211	86.5016	36.6211	81.7387	36.6211	86.2851	36.6211	82.2294	36.6211	85.893	36.6211	82.795	36.6211	85.3638	36.6211	83.4207	36.6211	84.7441	36.6211	84.0819
38.0859	82.0077	38.0859	81.7976	38.0859	82.2517	38.0859	81.617	38.0859	82.5365	38.0859	81.4637	38.0859	82.8714	38.0859	81.3374	38.0859	83.2676	38.0859	81.2395	38.0859	83.7341	38.0859	81.1728	38.0859	84.2717	38.0859	81.1415	38.0859	84.865	38.0859	81.1511	38.0859	85.478	38.0859	81.208	38.0859	86.0576	38.0859	81.3193	38.0859	86.5447	38.0859	81.4922	38.0859	86.8874	38.0859	81.7332	38.0859	87.0497	38.0859	82.0476	38.0859	87.0167	38.0859	82.4381	38.0859	86.7944	38.0859	82.9042	38.0859	86.4069	38.0859	83.44	38.0859	85.8921	38.0859	84.0331	38.0859	85.2952	38.0859	84.662
39.5508	82.4887	39.5508	82.2598	39.5508	82.7559	39.5508	82.0667	39.5508	83.0658	39.5508	81.9079	39.5508	83.424	39.5508	81.7836	39.5508	83.8371	39.5508	81.6945	39.5508	84.3096	39.5508	81.6427	39.5508	84.8391	39.5508	81.6309	39.5508	85.4099	39.5508	81.6627	39.5508	85.9898	39.5508	81.7421	39.5508	86.5319	39.5508	81.8738	39.5508	86.9834	39.5508	82.0622	39.5508	87.2968	39.5508	82.3117	39.5508	87.4391	39.5508	82.6259	39.5508	87.3962	39.5508	83.0068	39.5508	87.174	39.5508	83.4543	39.5508	86.796	39.5508	83.9642	39.5508	86.2992	39.5508	84.5269	39.5508	85.7273	39.5508	85.1239
41.0156	83.3306	41.0156	83.1093	41.0156	83.5878	41.0156	82.9228	41.0156	83.8834	41.0156	82.7704	41.0156	84.2206	41.0156	82.6524	41.0156	84.6034	41.0156	82.5695	41.0156	85.0345	41.0156	82.5228	41.0156	85.5112	41.0156	82.514	41.0156	86.0203	41.0156	82.5454	41.0156	86.5346	41.0156	82.6195	41.0156	87.0135	41.0156	82.7395	41.0156	87.4099	41.0156	82.9088	41.0156	87.6805	41.0156	83.1306	41.0156	87.7944	41.0156	83.4081	41.0156	87.7387	41.0156	83.7436	41.0156	87.5196	41.0156	84.1377	41.0156	87.1605	41.0156	84.5884	41.0156	86.6973	41.0156	85.0887	41.0156	86.1718	41.0156	85.6244
42.4805	83.7005	42.4805	83.4669	42.4805	83.9698	42.4805	83.2691	42.4805	84.2753	42.4805	83.1074	42.4805	84.6181	42.4805	82.9824	42.4805	84.9995	42.4805	82.8949	42.4805	85.4197	42.4805	82.8455	42.4805	85.875	42.4805	82.8355	42.4805	86.3533	42.4805	82.8661	42.4805	86.8304	42.4805	82.9388	42.4805	87.2702	42.4805	83.0556	42.4805	87.6302	42.4805	83.2188	42.4805	87.87	42.4805	83.4309	42.4805	87.9605	42.4805	83.6944	42.4805	87.8893	42.4805	84.0119	42.4805	87.6625	42.4805	84.3848	42.4805	87.303	42.4805	84.8124	42.4805	86.8464	42.4805	85.2896	42.4805	86.3335	42.4805	85.8039
43.9453	83.9797	43.9453	83.7418	43.9453	84.2523	43.9453	83.5395	43.9453	84.559	43.9453	83.3735	43.9453	84.8992	43.9453	83.2444	43.9453	85.2727	43.9453	83.1531	43.9453	85.6782	43.9453	83.1	43.9453	86.1111	43.9453	83.0859	43.9453	86.5601	43.9453	83.1117	43.9453	87.0031	43.9453	83.1784	43.9453	87.4073	43.9453	83.2875	43.9453	87.7336	43.9453	83.4407	43.9453	87.9447	43.9453	83.6402	43.9453	88.0133	43.9453	83.8884	43.9453	87.9281	43.9453	84.1875	43.9453	87.6955	43.9453	84.5394	43.9453	87.3386	43.9453	84.9438	43.9453	86.8921	43.9453	85.3967	43.9453	86.3958	43.9453	85.8874
45.4102	84.3615	45.4102	84.1166	45.4102	84.6399	45.4102	83.907	45.4102	84.9499	45.4102	83.7342	45.4102	85.2895	45.4102	83.5992	45.4102	85.6567	45.4102	83.5027	45.4102	86.0487	45.4102	83.4452	45.4102	86.4601	45.4102	83.4269	45.4102	86.8797	45.4102	83.4484	45.4102	87.2873	45.4102	83.5098	45.4102	87.6532	45.4102	83.6121	45.4102	87.9419	45.4102	83.7562	45.4102	88.1194	45.4102	83.9435	45.4102	88.1609	45.4102	84.176	45.4102	88.0567	45.4102	84.4557	45.4102	87.8143	45.4102	84.7846	45.4102	87.457	45.4102	85.1632	45.4102	87.0191	45.4102	85.5891	45.4102	86.5394	45.4102	86.0536
46.875	84.7024	46.875	84.4534	46.875	84.9833	46.875	84.2386	46.875	85.2933	46.875	84.0598	46.875	85.6297	46.875	83.9184	46.875	85.9893	46.875	83.8152	46.875	86.3685	46.875	83.7508	46.875	86.7612	46.875	83.7254	46.875	87.1562	46.875	83.739	46.875	87.5346	46.875	83.7919	46.875	87.8689	46.875	83.8843	46.875	88.1268	46.875	84.0171	46.875	88.2767	46.875	84.1912	46.875	88.296	46.875	84.4086	46.875	88.1762	46.875	84.6714	46.875	87.9252	46.875	84.9817	46.875	87.5664	46.875	85.3409	46.875	87.1336	46.875	85.7473	46.875	86.6646	46.875	86.1938
48.3398	84.966	48.3398	84.7125	48.3398	85.2503	48.3398	84.4926	48.3398	85.5616	48.3398	84.3086	48.3398	85.896	48.3398	84.1621	48.3398	86.2489	48.3398	84.0541	48.3398	86.6154	48.3398	83.9849	48.3398	86.9883	48.3398	83.9547	48.3398	87.3568	48.3398	83.9633	48.3398	87.7035	48.3398	84.0106	48.3398	88.0039	48.3398	84.0967	48.3398	88.229	48.3398	84.2219	48.3398	88.351	48.3398	84.387	48.3398	88.3497	48.3398	84.5934	48.3398	88.218	48.3398	84.8429	48.3398	87.9642	48.3398	85.1376	48.3398	87.6112	48.3398	85.4786	48.3398	87.1913	48.3398	85.8649	48.3398	86.7403	48.3398	86.2902
51.2695	85.6182	51.2695	85.3594	51.2695	85.9069	51.2695	85.1349	51.2695	86.2201	51.2695	84.948	51.2695	86.5519	51.2695	84.801	51.2695	86.896	51.2695	84.6949	51.2695	87.2459	51.2695	84.6301	51.2695	87.5948	51.2695	84.6063	51.2695	87.9337	51.2695	84.6226	51.2695	88.2492	51.2695	84.6778	51.2695	88.5209	51.2695	84.7711	51.2695	88.7229	51.2695	84.9014	51.2695	88.8282	51.2695	85.0685	51.2695	88.8168	51.2695	85.2725	51.2695	88.6816	51.2695	85.514	51.2695	88.4323	51.2695	85.794	51.2695	88.093	51.2695	86.1131	51.2695	87.6966	51.2695	86.4705	51.2695	87.2769	51.2695	86.8619
52.7344	85.7942	52.7344	85.5336	52.7344	86.0852	52.7344	85.3083	52.7344	86.4006	52.7344	85.122	52.7344	86.7335	52.7344	84.977	52.7344	87.0766	52.7344	84.8744	52.7344	87.4228	52.7344	84.8144	52.7344	87.7643	52.7344	84.7962	52.7344	88.0922	52.7344	84.8183	52.7344	88.3936	52.7344	84.8792	52.7344	88.6497	52.7344	84.9771	52.7344	88.8368	52.7344	85.1105	52.7344	88.9302	52.7344	85.2784	52.7344	88.9114	52.7344	85.4806	52.7344	88.7743	52.7344	85.7172	52.7344	88.5287	52.7344	85.9889	52.7344	88.1985	52.7344	86.2964	52.7344	87.8155	52.7344	86.6393	52.7344	87.412	52.7344	87.0141
54.1992	86.015	54.1992	85.7514	54.1992	86.3083	54.1992	85.523	54.1992	86.6246	54.1992	85.3337	54.1992	86.9563	54.1992	85.1864	54.1992	87.2956	54.1992	85.0822	54.1992	87.6345	54.1992	85.0212	54.1992	87.9651	54.1992	85.0025	54.1992	88.2785	54.1992	85.0244	54.1992	88.5628	54.1992	85.085	54.1992	88.8009	54.1992	85.1822	54.1992	88.9711	54.1992	85.3143	54.1992	89.051	54.1992	85.4799	54.1992	89.0234	54.1992	85.6784	54.1992	88.8833	54.1992	85.9097	54.1992	88.6404	54.1992	86.1746	54.1992	88.3176	54.1992	86.4735	54.1992	87.9454	54.1992	86.8061	54.1992	87.5544	54.1992	87.1692
55.6641	86.3195	55.6641	86.0556	55.6641	86.6119	55.6641	85.8259	55.6641	86.9255	55.6641	85.6349	55.6641	87.2524	55.6641	85.4854	55.6641	87.5842	55.6641	85.379	55.6641	87.9124	55.6641	85.3157	55.6641	88.2289	55.6641	85.2948	55.6641	88.5248	55.6641	85.3145	55.6641	88.789	55.6641	85.3727	55.6641	89.006	55.6641	85.4671	55.6641	89.1561	55.6641	85.5958	55.6641	89.2189	55.6641	85.7571	55.6641	89.1792	55.6641	85.9499	55.6641	89.0334	55.6641	86.1738	55.6641	88.7919	55.6641	86.4289	55.6641	88.4774	55.6641	86.7154	55.6641	88.119	55.6641	87.0328	55.6641	87.7453	55.6641	87.3785
58.5938	86.78	58.5938	86.5151	58.5938	87.0726	58.5938	86.2845	58.5938	87.3848	58.5938	86.0933	58.5938	87.7077	58.5938	85.9447	58.5938	88.0314	58.5938	85.8402	58.5938	88.3467	58.5938	85.78	58.5938	88.6441	58.5938	85.7626	58.5938	88.9144	58.5938	85.7858	58.5938	89.1469	58.5938	85.8465	58.5938	89.3279	58.5938	85.9417	58.5938	89.441	58.5938	86.0681	58.5938	89.4698	58.5938	86.223	58.5938	89.4035	58.5938	86.4044	58.5938	89.2417	58.5938	86.6108	58.5938	88.9972	58.5938	86.8419	58.5938	88.6933	58.5938	87.0982	58.5938	88.358	58.5938	87.3801	58.5938	88.0167	58.5938	87.6875
60.0586	86.9549	60.0586	86.6852	60.0586	87.252	60.0586	86.4499	60.0586	87.5678	60.0586	86.2543	60.0586	87.8928	60.0586	86.1017	60.0586	88.2167	60.0586	85.994	60.0586	88.5289	60.0586	85.931	60.0586	88.8196	60.0586	85.9114	60.0586	89.0789	60.0586	85.9326	60.0586	89.2959	60.0586	85.9914	60.0586	89.458	60.0586	86.0842	60.0586	89.5505	60.0586	86.2074	60.0586	89.5592	60.0586	86.358	60.0586	89.4756	60.0586	86.5335	60.0586	89.3012	60.0586	86.7325	60.0586	89.0501	60.0586	86.9546	60.0586	88.7457	60.0586	87.2002	60.0586	88.4154	60.0586	87.4703	60.0586	88.0832	60.0586	87.7655
62.9883	87.2802	62.9883	87.0037	62.9883	87.5828	62.9883	86.7614	62.9883	87.9021	62.9883	86.5592	62.9883	88.2275	62.9883	86.4013	62.9883	88.5474	62.9883	86.2895	62.9883	88.8505	62.9883	86.224	62.9883	89.1259	62.9883	86.2032	62.9883	89.3633	62.9883	86.2241	62.9883	89.5527	62.9883	86.283	62.9883	89.683	62.9883	86.3753	62.9883	89.7428	62.9883	86.4967	62.9883	89.7214	62.9883	86.6434	62.9883	89.614	62.9883	86.812	62.9883	89.4248	62.9883	87.0004	62.9883	89.1692	62.9883	87.2077	62.9883	88.8709	62.9883	87.4343	62.9883	88.5558	62.9883	87.6818	62.9883	88.2452	62.9883	87.9522
64.4531	87.4151	64.4531	87.1362	64.4531	87.7196	64.4531	86.8912	64.4531	88.0397	64.4531	86.6866	64.4531	88.3644	64.4531	86.5265	64.4531	88.6818	64.4531	86.4132	64.4531	88.98	64.4531	86.3469	64.4531	89.2479	64.4531	86.3258	64.4531	89.4751	64.4531	86.347	64.4531	89.6518	64.4531	86.4061	64.4531	89.768	64.4531	86.4986	64.4531	89.8133	64.4531	86.6196	64.4531	89.779	64.4531	86.7649	64.4531	89.6618	64.4531	86.9308	64.4531	89.4672	64.4531	87.1149	64.4531	89.2113	64.4531	87.3159	64.4531	88.9177	64.4531	87.5342	64.4531	88.6111	64.4531	87.7717	64.4531	88.3116	64.4531	88.0305
67.3828	87.7134	67.3828	87.4272	67.3828	88.0229	67.3828	87.1736	67.3828	88.3451	67.3828	86.9596	67.3828	88.6683	67.3828	86.7904	67.3828	88.98	67.3828	86.6687	67.3828	89.2678	67.3828	86.5953	67.3828	89.5203	67.3828	86.5685	67.3828	89.7268	67.3828	86.5853	67.3828	89.8782	67.3828	86.6412	67.3828	89.9658	67.3828	86.7309	67.3828	89.9818	67.3828	86.849	67.3828	89.9204	67.3828	86.9905	67.3828	89.7816	67.3828	87.151	67.3828	89.5734	67.3828	87.3274	67.3828	89.3132	67.3828	87.518	67.3828	89.0242	67.3828	87.723	67.3828	88.7298	67.3828	87.9443	67.3828	88.4472	67.3828	88.1848
68.8477	87.9013	68.8477	87.6138	68.8477	88.211	68.8477	87.3577	68.8477	88.5319	68.8477	87.1405	68.8477	88.8521	68.8477	86.9677	68.8477	89.159	68.8477	86.8425	68.8477	89.4402	68.8477	86.7655	68.8477	89.6838	68.8477	86.7357	68.8477	89.8794	68.8477	86.7497	68.8477	90.0178	68.8477	86.8032	68.8477	90.0909	68.8477	86.8908	68.8477	90.092	68.8477	87.0067	68.8477	90.0171	68.8477	87.1457	68.8477	89.8676	68.8477	87.303	68.8477	89.6532	68.8477	87.475	68.8477	89.392	68.8477	87.6598	68.8477	89.1072	68.8477	87.8572	68.8477	88.8212	68.8477	88.069	68.8477	88.5493	68.8477	88.2986
71.7773	88.1761	71.7773	87.8831	71.7773	88.4883	71.7773	87.6193	71.7773	88.8082	71.7773	87.393	71.7773	89.1234	71.7773	87.2104	71.7773	89.4207	71.7773	87.0751	71.7773	89.6873	71.7773	86.9886	71.7773	89.9109	71.7773	86.9499	71.7773	90.0809	71.7773	86.9558	71.7773	90.1886	71.7773	87.0016	71.7773	90.2273	71.7773	87.0816	71.7773	90.1926	71.7773	87.1892	71.7773	90.0839	71.7773	87.3186	71.7773	89.9061	71.7773	87.4642	71.7773	89.6719	71.7773	87.6219	71.7773	89.4013	71.7773	87.7893	71.7773	89.1181	71.7773	87.9663	71.7773	88.8432	71.7773	88.1555	71.7773	88.5897	71.7773	88.3614
74.707	88.4469	74.707	88.1532	74.707	88.7604	74.707	87.8893	74.707	89.082	74.707	87.6631	74.707	89.3986	74.707	87.4808	74.707	89.6962	74.707	87.3458	74.707	89.9601	74.707	87.2594	74.707	90.1764	74.707	87.2203	74.707	90.333	74.707	87.2253	74.707	90.4212	74.707	87.2695	74.707	90.436	74.707	87.3468	74.707	90.3765	74.707	87.451	74.707	90.2458	74.707	87.5758	74.707	90.0526	74.707	87.7158	74.707	89.8118	74.707	87.8669	74.707	89.5442	74.707	88.0267	74.707	89.2722	74.707	88.1948	74.707	89.0136	74.707	88.3731	74.707	88.7778	74.707	88.5657
77.6367	88.6127	77.6367	88.319	77.6367	88.9257	77.6367	88.0551	77.6367	89.2458	77.6367	87.8293	77.6367	89.5597	77.6367	87.6481	77.6367	89.8526	77.6367	87.5151	77.6367	90.1097	77.6367	87.4316	77.6367	90.3164	77.6367	87.3961	77.6367	90.4605	77.6367	87.4052	77.6367	90.5333	77.6367	87.4535	77.6367	90.5305	77.6367	87.5346	77.6367	90.4532	77.6367	87.6416	77.6367	90.3072	77.6367	87.7678	77.6367	90.1043	77.6367	87.9072	77.6367	89.8621	77.6367	88.0552	77.6367	89.6024	77.6367	88.2087	77.6367	89.3463	77.6367	88.3668	77.6367	89.1089	77.6367	88.531	77.6367	88.896	77.6367	88.7054
79.1016	88.6638	79.1016	88.3688	79.1016	88.9775	79.1016	88.1033	79.1016	89.2977	79.1016	87.8761	79.1016	89.6106	79.1016	87.6935	79.1016	89.9016	79.1016	87.5597	79.1016	90.1553	79.1016	87.4759	79.1016	90.3573	79.1016	87.4408	79.1016	90.4949	79.1016	87.4508	79.1016	90.5594	79.1016	87.5005	79.1016	90.5471	79.1016	87.5833	79.1016	90.4596	79.1016	87.6919	79.1016	90.3044	79.1016	87.8192	79.1016	90.0948	79.1016	87.959	79.1016	89.8498	79.1016	88.106	79.1016	89.592	79.1016	88.2569	79.1016	89.3423	79.1016	88.4104	79.1016	89.1146	79.1016	88.5676	79.1016	88.9128	79.1016	88.7329
82.0312	88.7457	82.0312	88.4471	82.0312	89.0619	82.0312	88.1774	82.0312	89.3831	82.0312	87.9458	82.0312	89.6952	82.0312	87.7593	82.0312	89.9831	82.0312	87.6222	82.0312	90.2313	82.0312	87.536	82.0312	90.4247	82.0312	87.4995	82.0312	90.5505	82.0312	87.5089	82.0312	90.5998	82.0312	87.5583	82.0312	90.5692	82.0312	87.6406	82.0312	90.4617	82.0312	87.7481	82.0312	90.2868	82.0312	87.8731	82.0312	90.0603	82.0312	88.0087	82.0312	89.8038	82.0312	88.1491	82.0312	89.5416	82.0312	88.2908	82.0312	89.295	82.0312	88.4322	82.0312	89.0768	82.0312	88.5752	82.0312	88.8887	82.0312	88.7246
84.9609	88.8279	84.9609	88.5266	84.9609	89.146	84.9609	88.2538	84.9609	89.4677	84.9609	88.0194	84.9609	89.7787	84.9609	87.831	84.9609	90.0635	84.9609	87.6936	84.9609	90.3065	84.9609	87.6088	84.9609	90.4924	84.9609	87.5754	84.9609	90.6085	84.9609	87.5895	84.9609	90.6458	84.9609	87.6448	84.9609	90.6016	84.9609	87.7333	84.9609	90.4803	84.9609	87.8468	84.9609	90.2937	84.9609	87.9767	84.9609	90.0603	84.9609	88.1153	84.9609	89.8039	84.9609	88.2565	84.9609	89.5495	84.9609	88.3959	84.9609	89.3173	84.9609	88.5316	84.9609	89.1172	84.9609	88.6649	84.9609	88.948	84.9609	88.8008
87.8906	88.8046	87.8906	88.4978	87.8906	89.1266	87.8906	88.2183	87.8906	89.4503	87.8906	87.9769	87.8906	89.7609	87.8906	87.7815	87.8906	90.043	87.8906	87.6378	87.8906	90.2807	87.8906	87.548	87.8906	90.4583	87.8906	87.5111	87.8906	90.5627	87.8906	87.523	87.8906	90.5847	87.8906	87.5772	87.8906	90.5217	87.8906	87.6654	87.8906	90.379	87.8906	87.7784	87.8906	90.1703	87.8906	87.9071	87.8906	89.9169	87.8906	88.043	87.8906	89.6457	87.8906	88.1791	87.8906	89.384	87.8906	88.3106	87.8906	89.1529	87.8906	88.4354	87.8906	88.9615	87.8906	88.5549	87.8906	88.8061	87.8906	88.675
90.8203	88.7817	90.8203	88.4719	90.8203	89.1049	90.8203	88.1879	90.8203	89.4278	90.8203	87.9407	90.8203	89.7358	90.8203	87.7391	90.8203	90.0133	90.8203	87.5891	90.8203	90.2446	90.8203	87.4934	90.8203	90.4141	90.8203	87.4515	90.8203	90.5083	90.8203	87.4594	90.8203	90.5182	90.8203	87.5105	90.8203	90.4415	90.8203	87.5962	90.8203	90.2842	90.8203	87.7069	90.8203	90.0614	90.8203	87.8331	90.8203	89.7963	90.8203	87.9658	90.8203	89.5172	90.8203	88.0976	90.8203	89.2522	90.8203	88.2234	90.8203	89.0223	90.8203	88.3412	90.8203	88.8356	90.8203	88.4527	90.8203	88.6872	90.8203	88.5643
95.2148	88.6857	95.2148	88.3703	95.2148	89.0119	95.2148	88.0789	95.2148	89.3351	95.2148	87.8235	95.2148	89.6405	95.2148	87.6139	95.2148	89.913	95.2148	87.4575	95.2148	90.137	95.2148	87.3579	95.2148	90.2972	95.2148	87.3151	95.2148	90.3802	95.2148	87.3251	95.2148	90.3768	95.2148	87.3811	95.2148	90.2851	95.2148	87.4734	95.2148	90.1121	95.2148	87.5916	95.2148	89.8749	95.2148	87.7249	95.2148	89.5998	95.2148	87.8631	95.2148	89.3179	95.2148	87.9979	95.2148	89.0586	95.2148	88.1233	95.2148	88.8419	95.2148	88.2366	95.2148	88.673	95.2148	88.3392	95.2148	88.5434	95.2148	88.4375
98.1445	88.5873	98.1445	88.2671	98.1445	88.916	98.1445	87.9691	98.1445	89.2388	98.1445	87.7063	98.1445	89.5409	98.1445	87.4896	98.1445	89.8074	98.1445	87.3272	98.1445	90.0229	98.1445	87.2235	98.1445	90.1725	98.1445	87.1788	98.1445	90.2431	98.1445	87.1893	98.1445	90.226	98.1445	87.2474	98.1445	90.1196	98.1445	87.3431	98.1445	89.932	98.1445	87.4648	98.1445	89.6817	98.1445	87.6008	98.1445	89.3967	98.1445	87.7402	98.1445	89.1099	98.1445	87.8739	98.1445	88.8519	98.1445	87.9954	98.1445	88.6426	98.1445	88.1015	98.1445	88.4856	98.1445	88.1937	98.1445	88.3704	98.1445	88.279
101.074	88.4467	101.074	88.1159	101.074	88.7816	101.074	87.8038	101.074	89.106	101.074	87.5243	101.074	89.4055	101.074	87.2899	101.074	89.6656	101.074	87.1105	101.074	89.8713	101.074	86.992	101.074	90.0085	101.074	86.9357	101.074	90.0646	101.074	86.9383	101.074	90.0311	101.074	86.9921	101.074	89.9069	101.074	87.0862	101.074	89.7007	101.074	87.2081	101.074	89.4323	101.074	87.3449	101.074	89.1308	101.074	87.4845	101.074	88.8309	101.074	87.6169	101.074	88.5643	101.074	87.735	101.074	88.3511	101.074	87.8358	101.074	88.1949	101.074	87.9212	101.074	88.084	101.074	87.9991
105.469	88.571	105.469	88.2337	105.469	88.9022	105.469	87.9052	105.469	89.2129	105.469	87.6005	105.469	89.4893	105.469	87.334	105.469	89.7179	105.469	87.1181	105.469	89.8851	105.469	86.9616	105.469	89.9782	105.469	86.8689	105.469	89.9865	105.469	86.8386	105.469	89.9038	105.469	86.8645	105.469	89.7317	105.469	86.9359	105.469	89.482	105.469	87.0397	105.469	89.1777	105.469	87.1618	105.469	88.851	105.469	87.2889	105.469	88.5378	105.469	87.4097	105.469	88.269	105.469	87.5165	105.469	88.0617	105.469	87.6058	105.469	87.9159	105.469	87.6793	105.469	87.8173	105.469	87.745
108.398	88.8551	108.398	88.5167	108.398	89.1851	108.398	88.1849	108.398	89.492	108.398	87.875	108.398	89.7618	108.398	87.6017	108.398	89.9809	108.398	87.3775	108.398	90.1361	108.398	87.212	108.398	90.2149	108.398	87.1101	108.398	90.2073	108.398	87.0716	108.398	90.1085	108.398	87.0908	108.398	89.9212	108.398	87.1578	108.398	89.6588	108.398	87.2598	108.398	89.3459	108.398	87.3826	108.398	89.0161	108.398	87.5124	108.398	88.7059	108.398	87.6372	108.398	88.4461	108.398	87.7478	108.398	88.2521	108.398	87.8394	108.398	88.1211	108.398	87.9122	108.398	88.0357	108.398	87.973
112.793	88.7121	112.793	88.3641	112.793	89.054	112.793	88.025	112.793	89.3753	112.793	87.7101	112.793	89.6617	112.793	87.4341	112.793	89.8997	112.793	87.2098	112.793	90.0753	112.793	87.0466	112.793	90.1753	112.793	86.9497	112.793	90.1882	112.793	86.9187	112.793	90.107	112.793	86.948	112.793	89.9327	112.793	87.0273	112.793	89.6772	112.793	87.1432	112.793	89.3646	112.793	87.2807	112.793	89.0295	112.793	87.4253	112.793	88.7107	112.793	87.5639	112.793	88.4409	112.793	87.687	112.793	88.2377	112.793	87.7889	112.793	88.0989	112.793	87.8701	112.793	88.0069	112.793	87.9378
117.188	88.5644	117.188	88.212	117.188	88.9086	117.188	87.8674	117.188	89.2295	117.188	87.5471	117.188	89.5125	117.188	87.2671	117.188	89.7436	117.188	87.0414	117.188	89.9089	117.188	86.8806	117.188	89.9953	117.188	86.7903	117.188	89.9918	117.188	86.77	117.188	89.8928	117.188	86.8133	117.188	89.7015	117.188	86.9087	117.188	89.4326	117.188	87.0412	117.188	89.1132	117.188	87.194	117.188	88.7803	117.188	87.3507	117.188	88.4735	117.188	87.4968	117.188	88.2247	117.188	87.6212	117.188	88.0488	117.188	87.7177	117.188	87.94	117.188	87.786	117.188	87.8773	117.188	87.8339
120.117	88.5422	120.117	88.1729	120.117	88.9018	120.117	87.81	120.117	89.2361	120.117	87.4704	120.117	89.5305	120.117	87.1712	120.117	89.7707	120.117	86.9276	120.117	89.9425	120.117	86.7519	120.117	90.0325	120.117	86.6512	120.117	90.0301	120.117	86.6261	120.117	89.9301	120.117	86.6706	120.117	89.7365	120.117	86.7724	120.117	89.4647	120.117	86.9151	120.117	89.1424	120.117	87.0805	120.117	88.806	120.117	87.2503	120.117	88.4939	120.117	87.4089	120.117	88.2366	120.117	87.5448	120.117	88.0487	120.117	87.6518	120.117	87.9255	120.117	87.7309	120.117	87.8479	120.117	87.7907
124.512	88.3929	124.512	88.0201	124.512	88.7622	124.512	87.6602	124.512	89.1121	124.512	87.3307	124.512	89.4279	124.512	87.0487	124.512	89.6956	124.512	86.8293	124.512	89.901	124.512	86.684	124.512	90.0307	124.512	86.6188	124.512	90.0738	124.512	86.6331	124.512	90.0238	124.512	86.7197	124.512	89.883	124.512	86.8658	124.512	89.6651	124.512	87.0545	124.512	89.3956	124.512	87.2672	124.512	89.1097	124.512	87.4852	124.512	88.8446	124.512	87.6921	124.512	88.6291	124.512	87.8751	124.512	88.4744	124.512	88.0257	124.512	88.3715	124.512	88.1419	124.512	88.2979	124.512	88.2283
128.906	88.1492	128.906	87.7525	128.906	88.5428	128.906	87.3696	128.906	88.9181	128.906	87.0185	128.906	89.2611	128.906	86.7181	128.906	89.558	128.906	86.4857	128.906	89.7952	128.906	86.3351	128.906	89.9588	128.906	86.2742	128.906	90.0365	128.906	86.3034	128.906	90.0202	128.906	86.4151	128.906	89.9098	128.906	86.5948	128.906	89.7164	128.906	86.8229	128.906	89.4635	128.906	87.0777	128.906	89.1855	128.906	87.338	128.906	88.9201	128.906	87.5849	128.906	88.698	128.906	87.8038	128.906	88.5322	128.906	87.9858	128.906	88.4153	128.906	88.1284	128.906	88.3255	128.906	88.2371
133.301	87.7107	133.301	87.2967	133.301	88.1268	133.301	86.9015	133.301	88.5304	133.301	86.5439	133.301	88.9084	133.301	86.2434	133.301	89.2482	133.301	86.0183	133.301	89.5362	133.301	85.8833	133.301	89.7582	133.301	85.8465	133.301	89.8999	133.301	85.9079	133.301	89.9501	133.301	86.0592	133.301	89.9048	133.301	86.2848	133.301	89.7706	133.301	86.5639	133.301	89.5678	133.301	86.8736	133.301	89.3285	133.301	87.1911	133.301	89.0898	133.301	87.4963	133.301	88.8825	133.301	87.7729	133.301	88.7195	133.301	88.0103	133.301	88.5926	133.301	88.204	133.301	88.4799	133.301	88.3569
139.16	86.9736	139.16	86.5244	139.16	87.4217	139.16	86.0906	139.16	87.8572	139.16	85.6931	139.16	88.2713	139.16	85.357	139.16	88.6554	139.16	85.1078	139.16	88.9992	139.16	84.9672	139.16	89.2889	139.16	84.9482	139.16	89.5078	139.16	85.0518	139.16	89.6399	139.16	85.2663	139.16	89.674	139.16	85.5702	139.16	89.6097	139.16	85.9358	139.16	89.4606	139.16	86.3341	139.16	89.2551	139.16	86.7376	139.16	89.0307	139.16	87.1226	139.16	88.822	139.16	87.4709	139.16	88.6473	139.16	87.7703	139.16	88.5021	139.16	88.0157	139.16	88.365	139.16	88.2099
143.555	86.4366	143.555	85.974	143.555	86.8894	143.555	85.514	143.555	87.327	143.555	85.077	143.555	87.7478	143.555	84.6913	143.555	88.1504	143.555	84.3893	143.555	88.5293	143.555	84.2029	143.555	88.872	143.555	84.1557	143.555	89.1593	143.555	84.2563	143.555	89.3689	143.555	84.4961	143.555	89.4815	143.555	84.8508	143.555	89.4884	143.555	85.2867	143.555	89.3963	143.555	85.7675	143.555	89.2294	143.555	86.2587	143.555	89.0245	143.555	86.7313	143.555	88.8188	143.555	87.1627	143.555	88.6336	143.555	87.5378	143.555	88.4668	143.555	87.8493	143.555	88.2974	143.555	88.0987
147.949	86.1604	147.949	85.7363	147.949	86.5514	147.949	85.2846	147.949	86.9144	147.949	84.8225	147.949	87.2622	147.949	84.3782	147.949	87.6101	147.949	83.9897	147.949	87.9677	147.949	83.7003	147.949	88.3317	147.949	83.5505	147.949	88.6826	147.949	83.5683	147.949	88.9886	147.949	83.7597	147.949	89.2153	147.949	84.1064	147.949	89.3365	147.949	84.5716	147.949	89.3427	147.949	85.1096	147.949	89.2447	147.949	85.6756	147.949	89.0717	147.949	86.2311	147.949	88.8604	147.949	86.747	147.949	88.6397	147.949	87.2039	147.949	88.418	147.949	87.5929	147.949	88.1839	147.949	87.9156
153.809	86.9427	153.809	86.5792	153.809	87.2215	153.809	86.1388	153.809	87.4201	153.809	85.6399	153.809	87.557	153.809	85.1113	153.809	87.6636	153.809	84.5912	153.809	87.7796	153.809	84.1262	153.809	87.9394	153.809	83.7674	153.809	88.1559	153.809	83.5621	153.809	88.4107	153.809	83.543	153.809	88.6601	153.809	83.7173	153.809	88.8546	153.809	84.0639	153.809	88.9576	153.809	84.5401	153.809	88.9565	153.809	85.094	153.809	88.8623	153.809	85.6756	153.809	88.6996	153.809	86.2438	153.809	88.4915	153.809	86.7689	153.809	88.2483	153.809	87.2334	153.809	87.9656	153.809	87.631
159.668	87.8266	159.668	87.4951	159.668	88.0557	159.668	87.0742	159.668	88.1789	159.668	86.584	159.668	88.2048	159.668	86.0509	159.668	88.1582	159.668	85.5069	159.668	88.081	159.668	84.9896	159.668	88.0261	159.668	84.5411	159.668	88.0402	159.668	84.2048	159.668	88.1399	159.668	84.0197	159.668	88.3001	159.668	84.0115	159.668	88.4673	159.668	84.1845	159.668	88.5877	159.668	84.518	159.668	88.6299	159.668	84.9717	159.668	88.5894	159.668	85.496	159.668	88.4786	159.668	86.0423	159.668	88.3113	159.668	86.5705	159.668	88.0915	159.668	87.0513	159.668	87.8131	159.668	87.4675
165.527	88.4875	165.527	88.1412	165.527	88.7252	165.527	87.7018	165.527	88.8442	165.527	87.1893	165.527	88.8431	165.527	86.6278	165.527	88.7326	165.527	86.0456	165.527	88.5402	165.527	85.4758	165.527	88.3124	165.527	84.9557	165.527	88.1082	165.527	84.5253	165.527	87.9784	165.527	84.2225	165.527	87.9388	165.527	84.0763	165.527	87.9591	165.527	84.0985	165.527	87.9825	165.527	84.2796	165.527	87.9593	165.527	84.5905	165.527	87.8681	165.527	84.9898	165.527	87.7145	165.527	85.4331	165.527	87.5146	165.527	85.8806	165.527	87.2777	165.527	86.3016	165.527	87.0013	165.527	86.6773
171.387	88.6442	171.387	88.3018	171.387	88.8904	171.387	87.8814	171.387	89.0263	171.387	87.4037	171.387	89.0446	171.387	86.8907	171.387	88.9488	171.387	86.3651	171.387	88.7566	171.387	85.851	171.387	88.5032	171.387	85.3736	171.387	88.2391	171.387	84.9602	171.387	88.0175	171.387	84.639	171.387	87.8732	171.387	84.4356	171.387	87.8027	171.387	84.3678	171.387	87.7676	171.387	84.4385	171.387	87.7184	171.387	84.6334	171.387	87.6197	171.387	84.9235	171.387	87.4599	171.387	85.2729	171.387	87.2452	171.387	85.6468	171.387	86.9872	171.387	86.0183	171.387	86.6943	171.387	86.3702
177.246	88.3014	177.246	87.9387	177.246	88.5663	177.246	87.5003	177.246	88.7174	177.246	87.0128	177.246	88.747	177.246	86.505	177.246	88.6588	177.246	86.0062	177.246	88.4708	177.246	85.5441	177.246	88.2174	177.246	85.1426	177.246	87.947	177.246	84.8212	177.246	87.7112	177.246	84.5942	177.246	87.5454	177.246	84.4711	177.246	87.452	177.246	84.4567	177.246	87.4029	177.246	84.5495	177.246	87.3601	177.246	84.7401	177.246	87.2953	177.246	85.0105	177.246	87.195	177.246	85.3353	177.246	87.0543	177.246	85.6856	177.246	86.8694	177.246	86.0334	177.246	86.6366	177.246	86.3556
183.105	88.2278	183.105	87.8621	183.105	88.4859	183.105	87.4118	183.105	88.6202	183.105	86.9042	183.105	88.6228	183.105	86.3701	183.105	88.4974	183.105	85.8419	183.105	88.263	183.105	85.3517	183.105	87.9569	183.105	84.9289	183.105	87.6343	183.105	84.5973	183.105	87.3561	183.105	84.3733	183.105	87.1663	183.105	84.2644	183.105	87.0692	183.105	84.2694	183.105	87.031	183.105	84.3792	183.105	87.0052	183.105	84.5779	183.105	86.9578	183.105	84.8447	183.105	86.874	183.105	85.1553	183.105	86.7495	183.105	85.4847	183.105	86.5818	183.105	85.8089	183.105	86.3679	183.105	86.108
188.965	88.5083	188.965	88.1376	188.965	88.7526	188.965	87.6641	188.965	88.8526	188.965	87.1166	188.965	88.7985	188.965	86.5275	188.965	88.5922	188.965	85.9322	188.965	88.2528	188.965	85.3673	188.965	87.8224	188.965	84.868	188.965	87.3687	188.965	84.4645	188.965	86.9729	188.965	84.178	188.965	86.697	188.965	84.0185	188.965	86.5482	188.965	83.9838	188.965	86.4805	188.965	84.0617	188.965	86.4344	188.965	84.2332	188.965	86.3736	188.965	84.4755	188.965	86.289	188.965	84.7632	188.965	86.1809	188.965	85.0699	188.965	86.0437	188.965	85.3697	188.965	85.8659	188.965	85.64
196.289	88.9994	196.289	88.6142	196.289	89.2654	196.289	88.1338	196.289	89.3917	196.289	87.5842	196.289	89.3627	196.289	86.992	196.289	89.1713	196.289	86.3841	196.289	88.8226	196.289	85.7883	196.289	88.3407	196.289	85.2332	196.289	87.776	196.289	84.7493	196.289	87.2103	196.289	84.3664	196.289	86.7416	196.289	84.1086	196.289	86.4377	196.289	83.9868	196.289	86.2886	196.289	83.9925	196.289	86.2167	196.289	84.0999	196.289	86.1379	196.289	84.2742	196.289	86.0074	196.289	84.4831	196.289	85.8233	196.289	84.7042	196.289	85.6063	196.289	84.9273	196.289	85.3783	196.289	85.1512
203.613	88.7265	203.613	88.2915	203.613	89.0405	203.613	87.7665	203.613	89.2088	203.613	87.1867	203.613	89.2137	203.613	86.5894	203.613	89.0467	203.613	86.0109	203.613	88.7113	203.613	85.4826	203.613	88.2277	203.613	85.0274	203.613	87.64	203.613	84.6593	203.613	87.0197	203.613	84.3849	203.613	86.4562	203.613	84.2064	203.613	86.0239	203.613	84.1238	203.613	85.7468	203.613	84.1346	203.613	85.5976	203.613	84.2307	203.613	85.5294	203.613	84.3957	203.613	85.5011	203.613	84.6055	203.613	85.4801	203.613	84.8314	203.613	85.4389	203.613	85.0455	203.613	85.3573	203.613	85.2254
210.938	88.3102	210.938	87.863	210.938	88.6437	210.938	87.3337	210.938	88.8361	210.938	86.7574	210.938	88.867	210.938	86.1701	210.938	88.7244	210.938	85.6069	210.938	88.4088	210.938	85.098	210.938	87.9394	210.938	84.6665	210.938	87.3621	210.938	84.3265	210.938	86.7559	210.938	84.0836	210.938	86.2208	210.938	83.9377	210.938	85.8353	210.938	83.8853	210.938	85.6115	210.938	83.9202	210.938	85.5005	210.938	84.0324	210.938	85.4423	210.938	84.2064	210.938	85.3992	210.938	84.4205	210.938	85.3527	210.938	84.6489	210.938	85.2884	210.938	84.8659	210.938	85.1912	210.938	85.0504
218.262	88.2227	218.262	87.7636	218.262	88.5717	218.262	87.2244	218.262	88.784	218.262	86.6377	218.262	88.8379	218.262	86.0375	218.262	88.7181	218.262	85.4582	218.262	88.419	218.262	84.9323	218.262	87.9499	218.262	84.4878	218.262	87.3435	218.262	84.1446	218.262	86.6655	218.262	83.9111	218.262	86.0114	218.262	83.7834	218.262	85.4732	218.262	83.7464	218.262	85.0873	218.262	83.7771	218.262	84.8215	218.262	83.8501	218.262	84.6223	218.262	83.9419	218.262	84.463	218.262	84.0333	218.262	84.3457	218.262	84.1114	218.262	84.2738	218.262	84.169	218.262	84.2351	218.262	84.2068
225.586	88.1249	225.586	87.6423	225.586	88.4792	225.586	87.0679	225.586	88.6763	225.586	86.4437	225.586	88.6963	225.586	85.815	225.586	88.5301	225.586	85.2262	225.586	88.1834	225.586	84.7162	225.586	87.682	225.586	84.3132	225.586	87.0791	225.586	84.0313	225.586	86.459	225.586	83.8701	225.586	85.9228	225.586	83.8173	225.586	85.5456	225.586	83.852	225.586	85.334	225.586	83.9496	225.586	85.2325	225.586	84.0854	225.586	85.1744	225.586	84.2383	225.586	85.119	225.586	84.3925	225.586	85.0532	225.586	84.538	225.586	84.9759	225.586	84.6697	225.586	84.8874	225.586	84.7859
232.91	88.3006	232.91	87.7596	232.91	88.7006	232.91	87.1151	232.91	88.9289	232.91	86.4109	232.91	88.963	232.91	85.6956	232.91	88.7896	232.91	85.0193	232.91	88.4076	232.91	84.4282	232.91	87.8331	232.91	83.9573	232.91	87.1091	232.91	83.6248	232.91	86.3163	232.91	83.4296	232.91	85.5719	232.91	83.3545	232.91	84.9888	232.91	83.3715	232.91	84.6104	232.91	83.4492	232.91	84.3965	232.91	83.5583	232.91	84.2807	232.91	83.6758	232.91	84.2171	232.91	83.7876	232.91	84.1798	232.91	83.8878	232.91	84.1483	232.91	83.9751	232.91	84.1068	232.91	84.0489
241.699	87.8971	241.699	87.3707	241.699	88.2993	241.699	86.7495	241.699	88.549	241.699	86.0643	241.699	88.6213	241.699	85.3482	241.699	88.4965	241.699	84.6394	241.699	88.1644	241.699	83.984	241.699	87.631	241.699	83.4363	241.699	86.9302	241.699	83.0503	241.699	86.1409	241.699	82.8596	241.699	85.3875	241.699	82.8575	241.699	84.7874	241.699	82.9932	241.699	84.3615	241.699	83.1916	241.699	84.0264	241.699	83.3788	241.699	83.6975	241.699	83.5011	241.699	83.3736	241.699	83.5316	241.699	83.1242	241.699	83.4697	241.699	83.0142	241.699	83.3379	241.699	83.0485	241.699	83.1782
250.488	87.105	250.488	86.5073	250.488	87.5822	250.488	85.8272	250.488	87.9085	250.488	85.1074	250.488	88.0618	250.488	84.3897	250.488	88.0289	250.488	83.7094	250.488	87.8041	250.488	83.0927	250.488	87.3901	250.488	82.5617	250.488	86.8037	250.488	82.1438	250.488	86.0925	250.488	81.8766	250.488	85.3541	250.488	81.7972	250.488	84.7207	250.488	81.9131	250.488	84.2764	250.488	82.1809	250.488	83.9814	250.488	82.5154	250.488	83.7246	250.488	82.8227	250.488	83.4419	250.488	83.0318	250.488	83.163	250.488	83.1106	250.488	82.9698	250.488	83.073	250.488	82.916	250.488	82.978
259.277	88.5628	259.277	88.0315	259.277	88.8697	259.277	87.3097	259.277	88.9298	259.277	86.4431	259.277	88.7328	259.277	85.4896	259.277	88.285	259.277	84.5176	259.277	87.6176	259.277	83.599	259.277	86.8017	259.277	82.7979	259.277	85.961	259.277	82.1595	259.277	85.2539	259.277	81.708	259.277	84.7937	259.277	81.4525	259.277	84.5679	259.277	81.3951	259.277	84.4692	259.277	81.528	259.277	84.4003	259.277	81.824	259.277	84.3244	259.277	82.2298	259.277	84.2427	259.277	82.6763	259.277	84.1569	259.277	83.0986	259.277	84.0556	259.277	83.4531	259.277	83.9187	259.277	83.7242
268.066	88.1488	268.066	87.5521	268.066	88.5919	268.066	86.8453	268.066	88.843	268.066	86.0754	268.066	88.8718	268.066	85.2884	268.066	88.6579	268.066	84.5251	268.066	88.193	268.066	83.8157	268.066	87.4856	268.066	83.1793	268.066	86.5769	268.066	82.6295	268.066	85.5748	268.066	82.1827	268.066	84.6848	268.066	81.8625	268.066	84.1315	268.066	81.6904	268.066	83.9457	268.066	81.6666	268.066	83.9176	268.066	81.757	268.066	83.8202	268.066	81.9022	268.066	83.5664	268.066	82.0451	268.066	83.2002	268.066	82.1556	268.066	82.826	268.066	82.2425	268.066	82.5332	268.066	82.3495
276.855	86.4535	276.855	85.7597	276.855	87.0129	276.855	84.9957	276.855	87.389	276.855	84.2347	276.855	87.5489	276.855	83.5443	276.855	87.4728	276.855	82.9652	276.855	87.1521	276.855	82.499	276.855	86.5924	276.855	82.1157	276.855	85.8303	276.855	81.7806	276.855	84.9674	276.855	81.4818	276.855	84.1901	276.855	81.2459	276.855	83.6907	276.855	81.1286	276.855	83.5016	276.855	81.1757	276.855	83.4729	276.855	81.3776	276.855	83.4371	276.855	81.6634	276.855	83.3177	276.855	81.9442	276.855	83.1183	276.855	82.1651	276.855	82.8809	276.855	82.3271	276.855	82.656	276.855	82.475
287.109	88.9387	287.109	88.092	287.109	89.4864	287.109	86.9761	287.109	89.7187	287.109	85.6448	287.109	89.6286	287.109	84.1949	287.109	89.2177	287.109	82.7875	287.109	88.5013	287.109	81.6352	287.109	87.5208	287.109	80.9098	287.109	86.374	287.109	80.6249	287.109	85.265	287.109	80.6524	287.109	84.5243	287.109	80.8544	287.109	84.4508	287.109	81.1739	287.109	85.0215	287.109	81.6379	287.109	85.9143	287.109	82.3041	287.109	86.8008	287.109	83.1861	287.109	87.479	287.109	84.2158	287.109	87.8538	287.109	85.2753	287.109	87.896	287.109	86.2497	287.109	87.6169	287.109	87.0516
297.363	89.1155	297.363	88.472	297.363	89.5216	297.363	87.6158	297.363	89.671	297.363	86.5804	297.363	89.5477	297.363	85.4169	297.363	89.1385	297.363	84.2078	297.363	88.4362	297.363	83.0812	297.363	87.4504	297.363	82.1971	297.363	86.2351	297.363	81.6732	297.363	84.9443	297.363	81.4961	297.363	83.8844	297.363	81.5326	297.363	83.3961	297.363	81.6396	297.363	83.5295	297.363	81.754	297.363	84.0297	297.363	81.9195	297.363	84.6478	297.363	82.2516	297.363	85.2319	297.363	82.8368	297.363	85.6593	297.363	83.6314	297.363	85.8239	297.363	84.4766	297.363	85.6685	297.363	85.1976
307.617	89.1939	307.617	88.5539	307.617	89.6007	307.617	87.7043	307.617	89.7556	307.617	86.6771	307.617	89.6449	307.617	85.5183	307.617	89.2624	307.617	84.296	307.617	88.6103	307.617	83.1094	307.617	87.6981	307.617	82.089	307.617	86.5454	307.617	81.3695	307.617	85.2102	307.617	81.0266	307.617	83.8824	307.617	81.0225	307.617	82.973	307.617	81.2293	307.617	82.8416	307.617	81.5089	307.617	83.2897	307.617	81.7754	307.617	83.8258	307.617	82.0133	307.617	84.1664	307.617	82.2626	307.617	84.2542	307.617	82.5775	307.617	84.1231	307.617	82.9762	307.617	83.8246	307.617	83.4175
319.336	88.4258	319.336	87.793	319.336	88.8269	319.336	86.9643	319.336	88.969	319.336	85.9844	319.336	88.8341	319.336	84.9102	319.336	88.4133	319.336	83.8162	319.336	87.7086	319.336	82.7994	319.336	86.7394	319.336	81.9726	319.336	85.5673	319.336	81.4303	319.336	84.3435	319.336	81.1969	319.336	83.3385	319.336	81.206	319.336	82.8186	319.336	81.3449	319.336	82.8042	319.336	81.5225	319.336	83.0917	319.336	81.7106	319.336	83.4798	319.336	81.9423	319.336	83.8388	319.336	82.2716	319.336	84.0773	319.336	82.7125	319.336	84.1352	319.336	83.2094	319.336	83.992	319.336	83.6653
329.59	88.2111	329.59	87.489	329.59	88.7129	329.59	86.5871	329.59	88.9576	329.59	85.5503	329.59	88.914	329.59	84.4349	329.59	88.5609	329.59	83.3211	329.59	87.8894	329.59	82.3233	329.59	86.9082	329.59	81.5757	329.59	85.6622	329.59	81.1713	329.59	84.2866	329.59	81.0898	329.59	83.0834	329.59	81.2048	329.59	82.4268	329.59	81.3685	329.59	82.3872	329.59	81.483	329.59	82.6809	329.59	81.5247	329.59	83.0422	329.59	81.5401	329.59	83.3358	329.59	81.6207	329.59	83.4749	329.59	81.8485	329.59	83.4038	329.59	82.2334	329.59	83.1239	329.59	82.6981
341.309	88.5001	341.309	87.7227	341.309	89.0452	341.309	86.7592	341.309	89.3141	341.309	85.656	341.309	89.2688	341.309	84.4628	341.309	88.8811	341.309	83.243	341.309	88.1334	341.309	82.0917	341.309	87.0221	341.309	81.1517	341.309	85.5819	341.309	80.5881	341.309	83.9847	341.309	80.4894	341.309	82.718	341.309	80.7763	341.309	82.3679	341.309	81.2504	341.309	82.7817	341.309	81.7222	341.309	83.326	341.309	82.0837	341.309	83.7005	341.309	82.318	341.309	83.9091	341.309	82.4841	341.309	83.9893	341.309	82.6791	341.309	83.9214	341.309	82.9708	341.309	83.6894	341.309	83.3392
353.027	88.5514	353.027	87.6781	353.027	89.1958	353.027	86.6236	353.027	89.569	353.027	85.4352	353.027	89.6395	353.027	84.1556	353.027	89.3866	353.027	82.8286	353.027	88.792	353.027	81.5136	353.027	87.8256	353.027	80.3127	353.027	86.439	353.027	79.3876	353.027	84.6149	353.027	78.9156	353.027	82.6006	353.027	78.9574	353.027	81.3121	353.027	79.378	353.027	81.5227	353.027	79.95	353.027	82.4387	353.027	80.4976	353.027	83.1951	353.027	80.9496	353.027	83.592	353.027	81.3255	353.027	83.6671	353.027	81.6959	353.027	83.4804	353.027	82.1242	353.027	83.0991	353.027	82.6139
366.211	87.8842	366.211	87.1311	366.211	88.47	366.211	86.2423	366.211	88.8528	366.211	85.2456	366.211	88.9956	366.211	84.1682	366.211	88.8635	366.211	83.0447	366.211	88.4251	366.211	81.9322	366.211	87.6444	366.211	80.9293	366.211	86.4682	366.211	80.1811	366.211	84.8344	366.211	79.8251	366.211	82.8015	366.211	79.881	366.211	80.9663	366.211	80.2112	366.211	80.4991	366.211	80.6192	366.211	81.2877	366.211	80.9673	366.211	82.2208	366.211	81.2207	366.211	82.8713	366.211	81.4394	366.211	83.2288	366.211	81.7312	366.211	83.304	366.211	82.1601	366.211	83.0958	366.211	82.6665
379.395	88.046	379.395	87.4211	379.395	88.4199	379.395	86.5558	379.395	88.5406	379.395	85.4733	379.395	88.4136	379.395	84.2191	379.395	88.0517	379.395	82.8786	379.395	87.4675	379.395	81.5981	379.395	86.6618	379.395	80.5882	379.395	85.6185	379.395	80.0548	379.395	84.3333	379.395	80.0529	379.395	82.895	379.395	80.4283	379.395	81.5626	379.395	80.9398	379.395	80.6345	379.395	81.3926	379.395	80.1604	379.395	81.6789	379.395	80.0354	379.395	81.7686	379.395	80.221	379.395	81.698	379.395	80.6139	379.395	81.5545	379.395	81.0008	379.395	81.4307	379.395	81.2414	379.395	81.3508
392.578	87.4	392.578	86.6836	392.578	87.8726	392.578	85.7591	392.578	88.0778	392.578	84.6682	392.578	88.007	392.578	83.4546	392.578	87.661	392.578	82.172	392.578	87.0384	392.578	80.914	392.578	86.1285	392.578	79.863	392.578	84.9265	392.578	79.2806	392.578	83.4997	392.578	79.3158	392.578	82.1015	392.578	79.8057	392.578	81.1193	392.578	80.4161	392.578	80.6113	392.578	80.8871	392.578	80.2313	392.578	81.0944	392.578	79.829	392.578	81.0148	392.578	79.5991	392.578	80.7043	392.578	79.6429	392.578	80.2973	392.578	79.7721	392.578	79.9731	392.578	79.8219	392.578	79.8373
405.762	87.205	405.762	86.6329	405.762	87.5122	405.762	85.823	405.762	87.5407	405.762	84.8113	405.762	87.2925	405.762	83.6361	405.762	86.7863	405.762	82.3312	405.762	86.0534	405.762	80.9271	405.762	85.1269	405.762	79.4864	405.762	84.0316	405.762	78.2081	405.762	82.7933	405.762	77.5378	405.762	81.5117	405.762	77.8741	405.762	80.4933	405.762	78.961	405.762	80.1512	405.762	80.1814	405.762	80.4183	405.762	81.1451	405.762	80.7481	405.762	81.7208	405.762	80.805	405.762	81.9082	405.762	80.6624	405.762	81.7755	405.762	80.5806	405.762	81.4391	405.762	80.7169	405.762	81.0408
420.41	87.8541	420.41	87.0166	420.41	88.3959	420.41	85.9386	420.41	88.5977	420.41	84.6863	420.41	88.4279	420.41	83.3317	420.41	87.8712	420.41	81.9296	420.41	86.9237	420.41	80.485	420.41	85.5776	420.41	78.9593	420.41	83.8147	420.41	77.3959	420.41	81.7017	420.41	76.2305	420.41	79.8177	420.41	76.2959	420.41	79.4669	420.41	77.5643	420.41	80.5497	420.41	79.0628	420.41	81.6413	420.41	80.1771	420.41	82.1202	420.41	80.7456	420.41	81.966	420.41	80.8041	420.41	81.3801	420.41	80.5131	420.41	80.6784	420.41	80.1441	420.41	80.1604	420.41	79.9789
435.059	88.2218	435.059	87.5654	435.059	88.5845	435.059	86.6521	435.059	88.6297	435.059	85.5249	435.059	88.3558	435.059	84.225	435.059	87.7901	435.059	82.7797	435.059	86.9729	435.059	81.1883	435.059	85.9096	435.059	79.4185	435.059	84.5143	435.059	77.4555	435.059	82.5867	435.059	75.5497	435.059	79.9235	435.059	74.7167	435.059	77.1552	435.059	75.8049	435.059	77.0657	435.059	77.7317	435.059	78.9494	435.059	79.3814	435.059	80.175	435.059	80.4205	435.059	80.4012	435.059	80.8173	435.059	79.9823	435.059	80.6442	435.059	79.4162	435.059	80.0816	435.059	79.1721	435.059	79.4578
451.172	87.8365	451.172	87.2573	451.172	88.1632	451.172	86.4498	451.172	88.2252	451.172	85.4426	451.172	88.0288	451.172	84.2693	451.172	87.5867	451.172	82.9702	451.172	86.8848	451.172	81.5824	451.172	85.8489	451.172	80.1167	451.172	84.3294	451.172	78.5484	451.172	82.1167	451.172	76.8894	451.172	79.1545	451.172	75.4604	451.172	76.6086	451.172	75.1674	451.172	76.626	451.172	76.404	451.172	77.6269	451.172	78.1645	451.172	78.1499	451.172	79.6038	451.172	78.4069	451.172	80.4833	451.172	78.7599	451.172	80.828	451.172	79.2712	451.172	80.7511	451.172	79.8524	451.172	80.3852
465.82	88.2724	465.82	87.7314	465.82	88.3116	465.82	86.7333	465.82	87.8654	465.82	85.3884	465.82	87.0225	465.82	83.8743	465.82	85.9635	465.82	82.392	465.82	84.9465	465.82	81.0524	465.82	84.1824	465.82	79.7916	465.82	83.6234	465.82	78.4144	465.82	82.8965	465.82	76.7057	465.82	81.4512	465.82	74.6967	465.82	78.7983	465.82	73.5924	465.82	75.7223	465.82	75.1138	465.82	76.2749	465.82	77.7057	465.82	78.515	465.82	79.8346	465.82	79.7787	465.82	81.265	465.82	80.3917	465.82	82.0643	465.82	80.9396	465.82	82.3148	465.82	81.5734	465.82	82.1045
483.398	89.0428	483.398	87.979	483.398	89.5572	483.398	86.4036	483.398	89.5035	483.398	84.4158	483.398	88.8679	483.398	82.2475	483.398	87.6371	483.398	80.2928	483.398	85.7979	483.398	78.9132	483.398	83.4059	483.398	78.1032	483.398	80.949	483.398	77.5377	483.398	79.8064	483.398	76.9315	483.398	80.2633	483.398	76.2964	483.398	80.5912	483.398	76.0243	483.398	79.9046	483.398	76.5321	483.398	78.8481	483.398	77.6545	483.398	78.939	483.398	78.8823	483.398	79.7555	483.398	79.8771	483.398	80.2279	483.398	80.5198	483.398	80.4173	483.398	80.8122	483.398	80.6229	483.398	80.8108
499.512	88.0239	499.512	86.9531	499.512	88.7082	499.512	85.5161	499.512	88.9677	499.512	83.7165	499.512	88.7726	499.512	81.5807	499.512	88.1265	499.512	79.2497	499.512	87.0498	499.512	77.089	499.512	85.5061	499.512	75.5229	499.512	83.3276	499.512	74.4827	499.512	80.3354	499.512	73.4431	499.512	77.3861	499.512	72.0231	499.512	77.1866	499.512	70.7763	499.512	78.3809	499.512	72.0938	499.512	78.8646	499.512	75.4339	499.512	78.717	499.512	78.3046	499.512	78.4318	499.512	80.1273	499.512	78.3305	499.512	80.9524	499.512	78.612	499.512	80.9232	499.512	79.3408	499.512	80.2625
517.09	88.2903	517.09	87.1213	517.09	88.9445	517.09	85.5144	517.09	89.0573	517.09	83.5723	517.09	88.6712	517.09	81.4154	517.09	87.8827	517.09	79.2116	517.09	86.7743	517.09	77.2468	517.09	85.3281	517.09	75.9344	517.09	83.3692	517.09	75.4592	517.09	80.5682	517.09	75.3827	517.09	76.9796	517.09	75.0917	517.09	76.1253	517.09	74.5056	517.09	78.7912	517.09	74.4505	517.09	80.5832	517.09	75.6846	517.09	81.0972	517.09	77.4482	517.09	80.9359	517.09	78.8652	517.09	80.5992	517.09	79.6804	517.09	80.2651	517.09	79.9652	517.09	80.0292	517.09	79.9758
536.133	89.7077	536.133	88.6002	536.133	90.1731	536.133	86.8776	536.133	90.0217	536.133	84.6564	536.133	89.3008	536.133	82.1699	536.133	88.0749	536.133	79.719	536.133	86.4726	536.133	77.5184	536.133	84.7478	536.133	75.6532	536.133	83.169	536.133	74.2739	536.133	81.6147	536.133	73.6694	536.133	79.4048	536.133	73.6849	536.133	76.3364	536.133	73.5341	536.133	75.7517	536.133	72.8574	536.133	77.6888	536.133	72.9444	536.133	78.7488	536.133	75.4101	536.133	79.4393	536.133	78.5184	536.133	80.6037	536.133	80.8621	536.133	81.8795	536.133	82.265	536.133	82.6936	536.133	82.8416
555.176	89.0789	555.176	87.6901	555.176	89.834	555.176	85.7692	555.176	89.9166	555.176	83.505	555.176	89.3195	555.176	81.1488	555.176	88.0523	555.176	78.9243	555.176	86.1398	555.176	76.9644	555.176	83.6485	555.176	75.4046	555.176	80.9191	555.176	74.4278	555.176	79.0567	555.176	73.9227	555.176	78.6447	555.176	73.3944	555.176	78.5392	555.176	72.5952	555.176	78.82	555.176	72.1478	555.176	79.9263	555.176	73.0904	555.176	80.6333	555.176	75.0353	555.176	80.4747	555.176	76.9402	555.176	80.2063	555.176	78.3878	555.176	80.2942	555.176	79.3788	555.176	80.3244	555.176	80.0165
574.219	89.2907	574.219	88.077	574.219	89.9928	574.219	86.3378	574.219	90.1751	574.219	84.0544	574.219	89.8262	574.219	81.2813	574.219	88.934	574.219	78.287	574.219	87.456	574.219	75.5834	574.219	85.3247	574.219	73.4288	574.219	82.5438	574.219	71.4912	574.219	79.4401	574.219	70.0632	574.219	77.3101	574.219	70.6724	574.219	77.554	574.219	72.3748	574.219	78.9581	574.219	73.5012	574.219	80.2793	574.219	74.0614	574.219	81.3642	574.219	75.2653	574.219	82.2776	574.219	77.9514	574.219	82.9961	574.219	80.7943	574.219	83.526	574.219	82.7488	574.219	83.8352	574.219	83.6875
594.727	89.1379	594.727	87.899	594.727	89.9323	594.727	86.1263	594.727	90.323	594.727	83.7034	594.727	90.3082	594.727	80.5628	594.727	89.844	594.727	76.8259	594.727	88.8221	594.727	72.9503	594.727	87.0634	594.727	69.5044	594.727	84.3097	594.727	66.8125	594.727	80.0947	594.727	66.6434	594.727	74.0666	594.727	69.1176	594.727	72.5424	594.727	71.0487	594.727	76.1505	594.727	71.7215	594.727	78.7292	594.727	71.8501	594.727	79.8872	594.727	73.3957	594.727	79.9243	594.727	76.8195	594.727	79.6737	594.727	79.841	594.727	79.9742	594.727	81.4568	594.727	80.8976	594.727	81.6649
615.234	89.6625	615.234	87.9427	615.234	90.7515	615.234	85.8401	615.234	91.0575	615.234	83.5793	615.234	90.5578	615.234	81.1822	615.234	89.3661	615.234	78.4458	615.234	87.7087	615.234	75.1497	615.234	85.8561	615.234	71.3365	615.234	83.9632	615.234	67.4831	615.234	81.8404	615.234	64.0128	615.234	79.0905	615.234	60.3516	615.234	76.1448	615.234	59.8094	615.234	75.1035	615.234	66.233	615.234	75.5625	615.234	71.1242	615.234	76.0094	615.234	74.185	615.234	76.9928	615.234	76.3529	615.234	79.1422	615.234	78.3166	615.234	81.021	615.234	80.0386	615.234	81.6599	615.234	81.2205
637.207	90.4103	637.207	89.2366	637.207	90.8352	637.207	87.2665	637.207	90.6382	637.207	84.5584	637.207	90.0319	637.207	81.3279	637.207	89.2225	637.207	77.8602	637.207	88.2078	637.207	74.2934	637.207	86.7404	637.207	70.7111	637.207	84.4837	637.207	67.5292	637.207	81.1186	637.207	65.315	637.207	78.2039	637.207	62.6841	637.207	79.0525	637.207	59.139	637.207	79.0123	637.207	64.9088	637.207	76.4752	637.207	69.7974	637.207	74.9731	637.207	71.3753	637.207	78.1491	637.207	71.6878	637.207	80.8874	637.207	76.1687	637.207	82.2816	637.207	80.5257	637.207	82.9355	637.207	82.6023
659.18	89.9694	659.18	88.421	659.18	91.0253	659.18	86.4487	659.18	91.4435	659.18	83.9678	659.18	91.0785	659.18	80.7654	659.18	89.805	659.18	76.687	659.18	87.573	659.18	72.0828	659.18	84.7873	659.18	68.4603	659.18	82.4818	659.18	66.7856	659.18	80.4726	659.18	65.6139	659.18	77.7382	659.18	65.041	659.18	77.6835	659.18	66.4416	659.18	80.7425	659.18	67.9079	659.18	82.4252	659.18	68.9972	659.18	83.1289	659.18	71.134	659.18	83.6544	659.18	73.4938	659.18	83.2059	659.18	74.3298	659.18	81.936	659.18	74.7392	659.18	80.0876	659.18	77.306
682.617	90.7779	682.617	89.109	682.617	91.7547	682.617	86.92	682.617	91.903	682.617	84.3697	682.617	91.1924	682.617	81.5928	682.617	89.7088	682.617	78.6243	682.617	87.6448	682.617	75.3092	682.617	85.298	682.617	71.2954	682.617	82.7355	682.617	65.8125	682.617	79.0216	682.617	56.54	682.617	72.6018	682.617	50.2166	682.617	76.6922	682.617	58.6742	682.617	80.9277	682.617	63.6638	682.617	82.106	682.617	69.247	682.617	82.6075	682.617	73.1691	682.617	82.8937	682.617	75.42	682.617	83.1508	682.617	77.3142	682.617	83.851	682.617	79.7348	682.617	83.7135	682.617	82.1718
707.52	89.6742	707.52	88.7806	707.52	90.2112	707.52	86.9426	707.52	90.7845	707.52	83.8387	707.52	91.1017	707.52	79.5726	707.52	90.4228	707.52	74.4828	707.52	88.333	707.52	69.13	707.52	85.307	707.52	66.7818	707.52	82.6055	707.52	67.4137	707.52	80.161	707.52	65.8856	707.52	75.7586	707.52	59.9953	707.52	71.0533	707.52	62.1151	707.52	77.6891	707.52	65.6641	707.52	81.988	707.52	67.5859	707.52	82.9825	707.52	67.4355	707.52	81.6079	707.52	72.0523	707.52	80.5891	707.52	76.5593	707.52	79.241	707.52	78.0491	707.52	78.071	707.52	78.1097
732.422	90.1501	732.422	88.8374	732.422	90.7873	732.422	86.6722	732.422	90.9445	732.422	83.518	732.422	90.701	732.422	79.422	732.422	89.9272	732.422	74.9008	732.422	88.3742	732.422	70.4603	732.422	85.8786	732.422	65.5499	732.422	82.9335	732.422	64.2273	732.422	80.8169	732.422	67.1907	732.422	77.8449	732.422	66.6818	732.422	71.6482	732.422	61.9713	732.422	79.9045	732.422	63.0928	732.422	82.9455	732.422	67.8658	732.422	83.2789	732.422	64.5831	732.422	83.0379	732.422	66.3734	732.422	81.0856	732.422	76.4597	732.422	80.492	732.422	80.4188	732.422	81.2969	732.422	81.6526
757.324	89.6708	757.324	86.9442	757.324	91.3045	757.324	83.8208	757.324	91.6764	757.324	81.0236	757.324	91.0154	757.324	77.9208	757.324	89.8563	757.324	72.8448	757.324	88.3219	757.324	63.5468	757.324	86.1075	757.324	66.6516	757.324	84.3533	757.324	72.5462	757.324	83.0476	757.324	76.1091	757.324	79.2942	757.324	77.3933	757.324	74.7775	757.324	75.6363	757.324	78.7907	757.324	69.1065	757.324	80.7636	757.324	70.9524	757.324	82.4817	757.324	75.2324	757.324	83.8391	757.324	73.0606	757.324	85.108	757.324	62.4343	757.324	84.9523	757.324	74.2116	757.324	81.9557	757.324	77.865
785.156	91.2329	785.156	84.0481	785.156	93.1551	785.156	75.6151	785.156	91.4416	785.156	82.2694	785.156	87.9495	785.156	82.4039	785.156	89.887	785.156	81.7481	785.156	91.4084	785.156	83.0225	785.156	88.7828	785.156	83.9005	785.156	83.5745	785.156	83.6416	785.156	82.2345	785.156	83.4186	785.156	79.2428	785.156	83.8138	785.156	78.3703	785.156	83.2959	785.156	84.4181	785.156	79.431	785.156	85.7346	785.156	64.3914	785.156	82.7847	785.156	78.6634	785.156	84.3229	785.156	81.1867	785.156	85.8031	785.156	77.4039	785.156	84.6282	785.156	56.3003	785.156	81.4705	785.156	76.3636
811.523	91.089	811.523	89.1278	811.523	90.0762	811.523	81.9067	811.523	89.6666	811.523	64.7478	811.523	91.6604	811.523	75.2541	811.523	92.7301	811.523	66.9603	811.523	91.4336	811.523	72.1597	811.523	87.8679	811.523	78.7208	811.523	82.9068	811.523	80.5762	811.523	82.265	811.523	81.8175	811.523	85.3519	811.523	82.4208	811.523	84.7706	811.523	82.253	811.523	80.6575	811.523	84.7501	811.523	71.0791	811.523	86.0064	811.523	84.8498	811.523	80.9525	811.523	88.1671	811.523	74.7	811.523	85.6083	811.523	83.408	811.523	74.1532	811.523	80.4463	811.523	77.9881	811.523	77.3416
840.82	88.6703	840.82	82.6361	840.82	92.3547	840.82	81.4369	840.82	92.6453	840.82	81.9662	840.82	90.1395	840.82	80.3625	840.82	88.1814	840.82	81.8018	840.82	89.3995	840.82	83.5036	840.82	89.4346	840.82	82.9077	840.82	86.9859	840.82	80.764	840.82	83.4858	840.82	77.0242	840.82	81.392	840.82	69.9923	840.82	78.0265	840.82	70.2237	840.82	72.7767	840.82	76.2835	840.82	79.5378	840.82	77.2272	840.82	83.2954	840.82	72.1328	840.82	82.1933	840.82	71.4137	840.82	81.3943	840.82	78.5056	840.82	81.1244	840.82	77.2544	840.82	72.9085	840.82	64.4668
870.117	89.5905	870.117	87.6362	870.117	90.4718	870.117	83.3594	870.117	92.0884	870.117	78.6461	870.117	92.6242	870.117	77.7482	870.117	91.562	870.117	75.6532	870.117	89.0144	870.117	65.6774	870.117	85.8329	870.117	73.9031	870.117	82.9064	870.117	79.1344	870.117	78.1034	870.117	79.6821	870.117	77.7596	870.117	75.7696	870.117	74.1835	870.117	65.0844	870.117	77.8303	870.117	61.8806	870.117	81.6385	870.117	65.1337	870.117	84.7807	870.117	73.1401	870.117	84.5661	870.117	77.6384	870.117	79.57	870.117	71.3069	870.117	72.7727	870.117	80.1197	870.117	75.2374	870.117	82.242
900.879	88.816	900.879	86.0496	900.879	90.9298	900.879	81.9441	900.879	92.1393	900.879	77.0171	900.879	92.0746	900.879	78.72	900.879	91.1263	900.879	79.2939	900.879	89.5702	900.879	79.8362	900.879	86.2953	900.879	83.2039	900.879	81.4655	900.879	85.6992	900.879	78.6524	900.879	86.974	900.879	80.216	900.879	88.1299	900.879	84.0111	900.879	88.5069	900.879	87.3344	900.879	86.0989	900.879	88.5293	900.879	81.703	900.879	85.5884	900.879	82.8828	900.879	67.6559	900.879	80.4687	900.879	80.2628	900.879	69.1274	900.879	81.5542	900.879	68.0797	900.879	84.356	900.879	79.326
933.105	88.8214	933.105	85.8014	933.105	91.7308	933.105	83.0071	933.105	92.6353	933.105	82.2737	933.105	90.466	933.105	83.7768	933.105	87.086	933.105	83.9315	933.105	88.39	933.105	81.8889	933.105	90.7332	933.105	78.3412	933.105	89.275	933.105	79.8194	933.105	85.6985	933.105	83.9243	933.105	86.576	933.105	85.1628	933.105	86.2605	933.105	80.5632	933.105	83.0047	933.105	76.5166	933.105	70.1758	933.105	82.047	933.105	84.7855	933.105	78.0947	933.105	84.6776	933.105	73.7869	933.105	78.3045	933.105	79.2697	933.105	75.1739	933.105	76.3542	933.105	77.1626	933.105	80.7409
965.332	88.6479	965.332	86.3545	965.332	91.4434	965.332	84.3201	965.332	92.8794	965.332	82.9566	965.332	91.7647	965.332	83.243	965.332	88.9802	965.332	81.5159	965.332	87.7599	965.332	74.0961	965.332	87.8718	965.332	69.1508	965.332	87.1791	965.332	77.6313	965.332	84.4787	965.332	79.9978	965.332	82.1678	965.332	80.8027	965.332	80.0659	965.332	81.9081	965.332	75.3012	965.332	85.2229	965.332	83.2321	965.332	85.1356	965.332	83.2485	965.332	77.694	965.332	74.2807	965.332	77.536	965.332	64.1698	965.332	74.4799	965.332	74.3096	965.332	66.1616	965.332	77.6437	965.332	72.6556
1,000.49	90.4025	1,000.49	86.6863	1,000.49	91.4226	1,000.49	81.2297	1,000.49	91.4319	1,000.49	80.9396	1,000.49	92.109	1,000.49	82.0791	1,000.49	91.463	1,000.49	82.8741	1,000.49	88.2041	1,000.49	84.1199	1,000.49	84.255	1,000.49	84.5455	1,000.49	80.9204	1,000.49	83.2337	1,000.49	75.1972	1,000.49	81.0224	1,000.49	69.0748	1,000.49	78.8178	1,000.49	71.5079	1,000.49	72.749	1,000.49	70.6079	1,000.49	67.8574	1,000.49	67.3351	1,000.49	74.2239	1,000.49	59.9221	1,000.49	74.842	1,000.49	71.6831	1,000.49	67.743	1,000.49	79.4528	1,000.49	75.4651	1,000.49	79.8246	1,000.49	77.6223	1,000.49	76.4394	1,000.49	75.8492
1,035.64	89.9405	1,035.64	86.9109	1,035.64	91.5811	1,035.64	84.086	1,035.64	91.5274	1,035.64	83.9259	1,035.64	90.6963	1,035.64	84.975	1,035.64	90.5464	1,035.64	85.1513	1,035.64	89.237	1,035.64	83.7594	1,035.64	84.9007	1,035.64	80.2601	1,035.64	78.1307	1,035.64	75.6166	1,035.64	64.9117	1,035.64	72.8934	1,035.64	63.8112	1,035.64	74.3475	1,035.64	75.2172	1,035.64	78.8642	1,035.64	76.0777	1,035.64	79.5311	1,035.64	78.5185	1,035.64	79.2007	1,035.64	81.8783	1,035.64	79.4551	1,035.64	81.8863	1,035.64	75.0177	1,035.64	76.5957	1,035.64	70.7757	1,035.64	78.1665	1,035.64	72.5813	1,035.64	82.0225	1,035.64	78.9197
1,072.27	87.9804	1,072.27	84.831	1,072.27	91.5985	1,072.27	85.7861	1,072.27	92.4634	1,072.27	87.3451	1,072.27	90.9501	1,072.27	86.3776	1,072.27	90.2485	1,072.27	83.5719	1,072.27	90.1295	1,072.27	79.4629	1,072.27	87.748	1,072.27	73.5623	1,072.27	80.3294	1,072.27	69.5598	1,072.27	65.6574	1,072.27	69.814	1,072.27	72.5664	1,072.27	74.3069	1,072.27	78.2941	1,072.27	77.8568	1,072.27	79.2079	1,072.27	78.8522	1,072.27	53.687	1,072.27	79.4514	1,072.27	78.3633	1,072.27	77.8733	1,072.27	79.4163	1,072.27	76.2336	1,072.27	78.8291	1,072.27	77.4132	1,072.27	79.2698	1,072.27	74.7268	1,072.27	78.7152	1,072.27	76.1586
1,108.89	89.3499	1,108.89	87.2346	1,108.89	89.5954	1,108.89	83.9227	1,108.89	90.3027	1,108.89	82.617	1,108.89	92.0662	1,108.89	84.456	1,108.89	90.6513	1,108.89	86.4535	1,108.89	84.8187	1,108.89	87.376	1,108.89	80.0603	1,108.89	87.1737	1,108.89	83.0141	1,108.89	85.6412	1,108.89	84.1334	1,108.89	82.85	1,108.89	82.1147	1,108.89	79.8708	1,108.89	75.4281	1,108.89	77.6436	1,108.89	70.4511	1,108.89	77.4265	1,108.89	76.4388	1,108.89	75.8862	1,108.89	76.7044	1,108.89	75.6819	1,108.89	77.7221	1,108.89	72.9	1,108.89	77.1244	1,108.89	74.3236	1,108.89	77.2486	1,108.89	75.3402	1,108.89	73.6196	1,108.89	70.5539
1,148.44	88.0676	1,148.44	87.1912	1,148.44	87.8148	1,148.44	84.8492	1,148.44	89.451	1,148.44	83.2074	1,148.44	90.6667	1,148.44	84.3971	1,148.44	89.6351	1,148.44	85.4204	1,148.44	87.1407	1,148.44	84.8193	1,148.44	84.6609	1,148.44	84.0649	1,148.44	83.4599	1,148.44	82.5538	1,148.44	82.3449	1,148.44	81.4673	1,148.44	79.9107	1,148.44	81.1818	1,148.44	78.2498	1,148.44	76.6639	1,148.44	72.2985	1,148.44	78.1146	1,148.44	71.2454	1,148.44	77.6166	1,148.44	78.1834	1,148.44	75.3447	1,148.44	77.0137	1,148.44	75.6698	1,148.44	75.8802	1,148.44	69.2945	1,148.44	74.0786	1,148.44	67.5808	1,148.44	74.2648	1,148.44	73.0586
1,189.45	89.197	1,189.45	87.2156	1,189.45	89.0691	1,189.45	85.4798	1,189.45	88.4786	1,189.45	85.9163	1,189.45	89.5178	1,189.45	87.4346	1,189.45	89.3749	1,189.45	87.8173	1,189.45	85.202	1,189.45	86.2314	1,189.45	78.5	1,189.45	81.5212	1,189.45	80.3732	1,189.45	72.6603	1,189.45	81.1339	1,189.45	71.486	1,189.45	75.8809	1,189.45	76.541	1,189.45	71.0644	1,189.45	81.3353	1,189.45	75.3301	1,189.45	82.3822	1,189.45	80.7594	1,189.45	82.1128	1,189.45	76.135	1,189.45	77.9537	1,189.45	74.1854	1,189.45	70.5831	1,189.45	77.586	1,189.45	73.3144	1,189.45	71.983	1,189.45	74.6002	1,189.45	67.8585	1,189.45	75.9191
1,230.47	90.3815	1,230.47	88.2194	1,230.47	91.2517	1,230.47	86.1412	1,230.47	90.8561	1,230.47	86.2601	1,230.47	88.9075	1,230.47	86.9666	1,230.47	86.9098	1,230.47	85.9854	1,230.47	88.1671	1,230.47	85.3965	1,230.47	88.4295	1,230.47	85.2635	1,230.47	85.4013	1,230.47	84.5407	1,230.47	82.7544	1,230.47	83.292	1,230.47	78.5466	1,230.47	79.6345	1,230.47	75.2963	1,230.47	76.093	1,230.47	77.0926	1,230.47	76.7832	1,230.47	76.5182	1,230.47	76.672	1,230.47	75.3452	1,230.47	76.4724	1,230.47	72.6856	1,230.47	70.0379	1,230.47	78.518	1,230.47	76.381	1,230.47	78.1241	1,230.47	73.5645	1,230.47	74.5765	1,230.47	73.2204
1,274.41	91.0434	1,274.41	89.741	1,274.41	91.3532	1,274.41	86.5275	1,274.41	91.7219	1,274.41	84.2619	1,274.41	89.7501	1,274.41	85.5651	1,274.41	86.8179	1,274.41	86.2372	1,274.41	85.4762	1,274.41	85.9921	1,274.41	84.8131	1,274.41	83.8475	1,274.41	84.6521	1,274.41	76.2297	1,274.41	83.761	1,274.41	60.1617	1,274.41	82.1201	1,274.41	71.6996	1,274.41	78.6039	1,274.41	76.742	1,274.41	56.8983	1,274.41	74.3281	1,274.41	75.0718	1,274.41	75.9429	1,274.41	78.5216	1,274.41	81.9907	1,274.41	75.0852	1,274.41	75.1076	1,274.41	72.0786	1,274.41	75.9239	1,274.41	73.1382	1,274.41	71.6834	1,274.41	78.949	1,274.41	73.825
1,319.82	91.654	1,319.82	88.4691	1,319.82	93.8292	1,319.82	88.1815	1,319.82	92.4529	1,319.82	88.2524	1,319.82	89.8776	1,319.82	86.5609	1,319.82	87.8788	1,319.82	82.9531	1,319.82	85.4953	1,319.82	81.591	1,319.82	81.5964	1,319.82	83.5314	1,319.82	77.489	1,319.82	84.6059	1,319.82	72.7202	1,319.82	83.2523	1,319.82	68.4251	1,319.82	82.7967	1,319.82	79.8006	1,319.82	80.2229	1,319.82	83.5821	1,319.82	79.6186	1,319.82	76.572	1,319.82	81.6453	1,319.82	68.425	1,319.82	75.1422	1,319.82	74.786	1,319.82	74.3453	1,319.82	82.0917	1,319.82	71.3326	1,319.82	78.9981	1,319.82	76.0322	1,319.82	65.2649	1,319.82	76.7791
1,366.7	91.7684	1,366.7	90.1863	1,366.7	93.508	1,366.7	88.3131	1,366.7	93.5917	1,366.7	86.5996	1,366.7	90.6173	1,366.7	85.3881	1,366.7	87.6453	1,366.7	85.7114	1,366.7	88.4555	1,366.7	87.4559	1,366.7	86.6458	1,366.7	88.009	1,366.7	80.0632	1,366.7	87.0047	1,366.7	64.5016	1,366.7	85.8644	1,366.7	66.2399	1,366.7	84.0427	1,366.7	71.1931	1,366.7	81.2781	1,366.7	79.6822	1,366.7	81.9324	1,366.7	82.1504	1,366.7	82.6955	1,366.7	80.3066	1,366.7	80.6284	1,366.7	71.5535	1,366.7	80.6854	1,366.7	77.4983	1,366.7	71.7941	1,366.7	71.1973	1,366.7	63.0171	1,366.7	78.3659	1,366.7	78.5787
1,413.57	90.9936	1,413.57	89.1582	1,413.57	93.781	1,413.57	87.9684	1,413.57	93.4477	1,413.57	84.3323	1,413.57	89.8625	1,413.57	84.4768	1,413.57	86.5789	1,413.57	87.6014	1,413.57	86.0346	1,413.57	87.4457	1,413.57	85.4426	1,413.57	86.9451	1,413.57	77.4329	1,413.57	85.9096	1,413.57	67.7617	1,413.57	83.9474	1,413.57	68.6792	1,413.57	82.409	1,413.57	78.525	1,413.57	72.7385	1,413.57	78.675	1,413.57	77.1059	1,413.57	64.0847	1,413.57	75.7004	1,413.57	64.2381	1,413.57	74.7208	1,413.57	68.2032	1,413.57	72.4306	1,413.57	78.1004	1,413.57	74.6184	1,413.57	80.2486	1,413.57	76.8353	1,413.57	72.9073	1,413.57	79.1745
1,463.38	91.4375	1,463.38	89.2994	1,463.38	92.3056	1,463.38	84.789	1,463.38	93.431	1,463.38	84.1599	1,463.38	90.8901	1,463.38	85.7336	1,463.38	83.3416	1,463.38	85.5836	1,463.38	83.0147	1,463.38	79.9129	1,463.38	88.4111	1,463.38	78.2472	1,463.38	87.8785	1,463.38	83.3397	1,463.38	80.3865	1,463.38	81.1594	1,463.38	77.5252	1,463.38	77.2326	1,463.38	78.0768	1,463.38	76.5795	1,463.38	75.8122	1,463.38	77.7678	1,463.38	74.8586	1,463.38	81.717	1,463.38	77.5616	1,463.38	79.1413	1,463.38	69.8423	1,463.38	73.7472	1,463.38	71.9502	1,463.38	76.7932	1,463.38	78.41	1,463.38	72.0633	1,463.38	78.9275	1,463.38	70.0483
1,516.11	89.9337	1,516.11	86.0113	1,516.11	92.7813	1,516.11	84.3069	1,516.11	91.3462	1,516.11	82.3824	1,516.11	87.3672	1,516.11	82.3202	1,516.11	82.9082	1,516.11	83.1691	1,516.11	73.6214	1,516.11	83.2475	1,516.11	82.1104	1,516.11	83.66	1,516.11	86.7846	1,516.11	85.5949	1,516.11	81.6913	1,516.11	86.3914	1,516.11	82.2046	1,516.11	87.1939	1,516.11	86.0332	1,516.11	87.5167	1,516.11	83.5143	1,516.11	82.865	1,516.11	80.8413	1,516.11	76.6688	1,516.11	72.8051	1,516.11	78.1568	1,516.11	72.0803	1,516.11	69.4966	1,516.11	74.2737	1,516.11	70.2078	1,516.11	76.0094	1,516.11	75.281	1,516.11	67.3717	1,516.11	76.7475
1,568.85	89.0099	1,568.85	84.5038	1,568.85	92.0179	1,568.85	81.6319	1,568.85	90.2629	1,568.85	76.1398	1,568.85	84.9102	1,568.85	80.5004	1,568.85	83.1667	1,568.85	86.3234	1,568.85	82.4867	1,568.85	81.7761	1,568.85	79.2809	1,568.85	72.5449	1,568.85	71.3963	1,568.85	75.0412	1,568.85	84.0613	1,568.85	75.4091	1,568.85	81.6341	1,568.85	80.1428	1,568.85	61.1791	1,568.85	80.4956	1,568.85	64.2973	1,568.85	83.8307	1,568.85	77.9374	1,568.85	80.675	1,568.85	77.1848	1,568.85	80.7387	1,568.85	73.278	1,568.85	74.2121	1,568.85	67.9601	1,568.85	72.8296	1,568.85	74.673	1,568.85	66.3505	1,568.85	77.3555	1,568.85	65.1847
1,624.51	89.5521	1,624.51	84.2308	1,624.51	91.2008	1,624.51	78.57	1,624.51	88.7553	1,624.51	77.5749	1,624.51	84.1976	1,624.51	80.6182	1,624.51	81.021	1,624.51	83.3417	1,624.51	76.8325	1,624.51	82.7874	1,624.51	80.8092	1,624.51	81.8162	1,624.51	82.9147	1,624.51	81.6728	1,624.51	82.107	1,624.51	81.475	1,624.51	83.2851	1,624.51	80.1967	1,624.51	59.8354	1,624.51	76.8435	1,624.51	70.9104	1,624.51	74.0396	1,624.51	65.5246	1,624.51	73.6164	1,624.51	66.9948	1,624.51	74.1917	1,624.51	50.8889	1,624.51	70.5481	1,624.51	64.7933	1,624.51	68.8248	1,624.51	74.2924	1,624.51	65.2299	1,624.51	75.8417	1,624.51	75.4181
1,681.64	90.1933	1,681.64	84.0246	1,681.64	92.383	1,681.64	73.7997	1,681.64	89.446	1,681.64	74.6641	1,681.64	80.545	1,681.64	81.1287	1,681.64	79.4432	1,681.64	82.0992	1,681.64	74.7622	1,681.64	82.8346	1,681.64	81.4708	1,681.64	82.1955	1,681.64	85.0098	1,681.64	78.1583	1,681.64	85.0276	1,681.64	77.1048	1,681.64	81.5401	1,681.64	75.1296	1,681.64	77.1643	1,681.64	76.2699	1,681.64	62.8037	1,681.64	77.216	1,681.64	69.3684	1,681.64	74.0714	1,681.64	69.5844	1,681.64	75.4899	1,681.64	70.438	1,681.64	70.8068	1,681.64	69.876	1,681.64	69.5415	1,681.64	73.5804	1,681.64	71.9376	1,681.64	75.4707	1,681.64	62.9708
1,741.7	90.5462	1,741.7	82.4736	1,741.7	92.3766	1,741.7	65.505	1,741.7	88.5796	1,741.7	75.0621	1,741.7	79.9046	1,741.7	79.9726	1,741.7	77.6912	1,741.7	82.2805	1,741.7	75.6263	1,741.7	83.7719	1,741.7	82.8689	1,741.7	82.8988	1,741.7	86.3775	1,741.7	81.0572	1,741.7	79.8255	1,741.7	76.5993	1,741.7	78.9105	1,741.7	67.425	1,741.7	72.6322	1,741.7	75.2631	1,741.7	67.4508	1,741.7	70.6405	1,741.7	70.6153	1,741.7	75.974	1,741.7	66.5825	1,741.7	76.4053	1,741.7	69.1171	1,741.7	73.8012	1,741.7	68.7393	1,741.7	72.8455	1,741.7	72.6223	1,741.7	61.2581	1,741.7	78.2493	1,741.7	74.6891
1,803.22	89.5666	1,803.22	82.5888	1,803.22	91.5854	1,803.22	66.461	1,803.22	88.9986	1,803.22	74.3949	1,803.22	78.5559	1,803.22	80.6933	1,803.22	74.0271	1,803.22	83.8235	1,803.22	66.4787	1,803.22	83.962	1,803.22	83.4125	1,803.22	83.0256	1,803.22	84.5312	1,803.22	81.42	1,803.22	85.9086	1,803.22	81.9943	1,803.22	79.6478	1,803.22	81.4459	1,803.22	77.2928	1,803.22	74.3696	1,803.22	66.5812	1,803.22	75.1925	1,803.22	65.8998	1,803.22	72.45	1,803.22	67.1307	1,803.22	73.257	1,803.22	63.2967	1,803.22	73.6482	1,803.22	62.5781	1,803.22	63.0311	1,803.22	70.9106	1,803.22	56.9571	1,803.22	74.8057	1,803.22	63.9648
1,866.21	88.6915	1,866.21	80.6061	1,866.21	90.4709	1,866.21	70.8124	1,866.21	87.4949	1,866.21	75.739	1,866.21	78.169	1,866.21	82.191	1,866.21	72.8296	1,866.21	82.8317	1,866.21	72.8388	1,866.21	82.1136	1,866.21	81.1671	1,866.21	80.9264	1,866.21	86.3124	1,866.21	79.8994	1,866.21	82.053	1,866.21	76.1893	1,866.21	74.8152	1,866.21	75.2925	1,866.21	75.1038	1,866.21	75.9456	1,866.21	71.771	1,866.21	73.6447	1,866.21	56.9752	1,866.21	75.0584	1,866.21	68.4731	1,866.21	72.4095	1,866.21	66.0214	1,866.21	60.5098	1,866.21	62.939	1,866.21	65.9409	1,866.21	69.5654	1,866.21	61.167	1,866.21	76.2049	1,866.21	75.5232
1,932.13	86.8626	1,932.13	79.3926	1,932.13	89.3476	1,932.13	75.7559	1,932.13	85.6768	1,932.13	78.8282	1,932.13	79.3468	1,932.13	80.7347	1,932.13	73.0532	1,932.13	82.5997	1,932.13	76.377	1,932.13	83.1325	1,932.13	82.3531	1,932.13	81.6633	1,932.13	83.3658	1,932.13	77.4949	1,932.13	84.6197	1,932.13	76.3092	1,932.13	80.9713	1,932.13	72.9115	1,932.13	74.4803	1,932.13	68.9034	1,932.13	73.9764	1,932.13	65.363	1,932.13	72.7098	1,932.13	73.2212	1,932.13	68.9085	1,932.13	70.9074	1,932.13	65.1146	1,932.13	54.3194	1,932.13	67.5453	1,932.13	61.7529	1,932.13	70.6227	1,932.13	63.3187	1,932.13	74.4168	1,932.13	65.4512
1,999.51	87.4145	1,999.51	80.6437	1,999.51	89.3824	1,999.51	78.2833	1,999.51	86.4572	1,999.51	79.2031	1,999.51	78.7266	1,999.51	83.2112	1,999.51	75.584	1,999.51	85.4853	1,999.51	81.1474	1,999.51	84.063	1,999.51	84.5126	1,999.51	83.09	1,999.51	87.0248	1,999.51	82.1116	1,999.51	81.7693	1,999.51	80.225	1,999.51	74.7771	1,999.51	78.8991	1,999.51	78.5235	1,999.51	76.6555	1,999.51	75.4186	1,999.51	74.7059	1,999.51	74.5907	1,999.51	74.735	1,999.51	65.9924	1,999.51	74.6624	1,999.51	50.2661	1,999.51	73.4408	1,999.51	63.883	1,999.51	63.858	1,999.51	67.8364	1,999.51	69.5574	1,999.51	73.9486	1,999.51	70.4448
2,069.82	88.229	2,069.82	80.5743	2,069.82	89.7899	2,069.82	79.9064	2,069.82	84.0142	2,069.82	78.9011	2,069.82	79.1262	2,069.82	82.5632	2,069.82	75.9616	2,069.82	84.5099	2,069.82	82.0638	2,069.82	85.1491	2,069.82	86.6653	2,069.82	82.2814	2,069.82	85.7986	2,069.82	80.6103	2,069.82	85.5083	2,069.82	77.7441	2,069.82	78.2643	2,069.82	73.5126	2,069.82	64.628	2,069.82	72.1073	2,069.82	76.3401	2,069.82	70.3194	2,069.82	75.6919	2,069.82	73.434	2,069.82	69.7211	2,069.82	72.3979	2,069.82	62.6149	2,069.82	68.5383	2,069.82	50.7847	2,069.82	63.4276	2,069.82	68.1042	2,069.82	59.651	2,069.82	69.9464	2,069.82	69.4416
2,143.07	88.423	2,143.07	84.4601	2,143.07	89.9823	2,143.07	82.9909	2,143.07	85.8101	2,143.07	81.9318	2,143.07	78.0785	2,143.07	84.0604	2,143.07	77.3212	2,143.07	85.6081	2,143.07	83.2304	2,143.07	84.3282	2,143.07	85.7054	2,143.07	82.2331	2,143.07	88.3801	2,143.07	77.4855	2,143.07	84.2751	2,143.07	76.6175	2,143.07	77.1895	2,143.07	71.7872	2,143.07	67.9485	2,143.07	73.2783	2,143.07	72.0855	2,143.07	72.3918	2,143.07	74.7082	2,143.07	74.8122	2,143.07	71.5193	2,143.07	74.4861	2,143.07	56.2929	2,143.07	63.1773	2,143.07	58.9901	2,143.07	61.8151	2,143.07	69.4198	2,143.07	61.035	2,143.07	71.1231	2,143.07	62.938
2,219.24	88.0387	2,219.24	84.4498	2,219.24	89.0464	2,219.24	83.3568	2,219.24	86.2563	2,219.24	80.2671	2,219.24	78.0111	2,219.24	84.0718	2,219.24	79.502	2,219.24	86.2634	2,219.24	82.3501	2,219.24	85.3749	2,219.24	86.6581	2,219.24	81.6148	2,219.24	85.3125	2,219.24	81.5057	2,219.24	84.7006	2,219.24	80.0396	2,219.24	79.4836	2,219.24	76.1399	2,219.24	70.2283	2,219.24	67.4416	2,219.24	68.1842	2,219.24	70.9891	2,219.24	72.3341	2,219.24	68.4172	2,219.24	67.2439	2,219.24	72.7006	2,219.24	66.6124	2,219.24	70.5943	2,219.24	62.6541	2,219.24	62.5959	2,219.24	64.3869	2,219.24	60.8625	2,219.24	72.8575	2,219.24	73.555
2,296.88	87.1961	2,296.88	84.8554	2,296.88	87.4882	2,296.88	83.3469	2,296.88	85.5981	2,296.88	82.8506	2,296.88	80.0259	2,296.88	85.5255	2,296.88	78.3648	2,296.88	85.7231	2,296.88	84.3834	2,296.88	84.3395	2,296.88	82.9645	2,296.88	82.8175	2,296.88	85.0717	2,296.88	77.299	2,296.88	80.1878	2,296.88	71.0127	2,296.88	76.3753	2,296.88	71.8991	2,296.88	68.5772	2,296.88	73.8723	2,296.88	67.1085	2,296.88	69.0602	2,296.88	71.0622	2,296.88	66.8619	2,296.88	70.4064	2,296.88	71.0675	2,296.88	67.4188	2,296.88	68.6925	2,296.88	57.9138	2,296.88	65.4628	2,296.88	68.631	2,296.88	49.6871	2,296.88	72.8858	2,296.88	65.0068
2,378.91	86.8585	2,378.91	84.5347	2,378.91	86.2359	2,378.91	83.6262	2,378.91	84.5454	2,378.91	83.3674	2,378.91	81.6282	2,378.91	84.8227	2,378.91	79.7867	2,378.91	84.9272	2,378.91	84.4838	2,378.91	84.63	2,378.91	84.207	2,378.91	79.6826	2,378.91	82.7371	2,378.91	78.1848	2,378.91	83.4746	2,378.91	80.1636	2,378.91	79.8586	2,378.91	71.9065	2,378.91	75.6184	2,378.91	68.293	2,378.91	68.0428	2,378.91	71.0697	2,378.91	72.5332	2,378.91	64.9073	2,378.91	69.3708	2,378.91	64.9906	2,378.91	66.7457	2,378.91	65.4522	2,378.91	58.8787	2,378.91	65.2554	2,378.91	70.4852	2,378.91	65.3295	2,378.91	70.7447	2,378.91	70.1732
2,462.4	88.2374	2,462.4	85.0098	2,462.4	86.5716	2,462.4	82.5135	2,462.4	82.6582	2,462.4	84.0792	2,462.4	80.6236	2,462.4	86.3899	2,462.4	80.1889	2,462.4	85.2248	2,462.4	85.1302	2,462.4	81.7451	2,462.4	83.5546	2,462.4	80.1522	2,462.4	83.496	2,462.4	77.8506	2,462.4	77.4521	2,462.4	74.644	2,462.4	73.8467	2,462.4	74.8297	2,462.4	70.4363	2,462.4	70.6801	2,462.4	71.2253	2,462.4	65.0285	2,462.4	72.2998	2,462.4	60.7831	2,462.4	68.7365	2,462.4	69.5069	2,462.4	72.3673	2,462.4	63.5952	2,462.4	60.2054	2,462.4	59.0092	2,462.4	68.1299	2,462.4	64.6093	2,462.4	73.3598	2,462.4	72.2051
2,548.83	89.4796	2,548.83	86.1799	2,548.83	88.3244	2,548.83	85.8051	2,548.83	84.3814	2,548.83	85.7551	2,548.83	81.7041	2,548.83	87.0816	2,548.83	82.04	2,548.83	84.6947	2,548.83	84.3758	2,548.83	82.1742	2,548.83	84.3081	2,548.83	80.9139	2,548.83	84.007	2,548.83	77.1416	2,548.83	82.6341	2,548.83	80.6065	2,548.83	76.5831	2,548.83	71.1609	2,548.83	72.5629	2,548.83	73.245	2,548.83	63.874	2,548.83	68.3116	2,548.83	71.1969	2,548.83	66.4998	2,548.83	68.8924	2,548.83	60.9676	2,548.83	70.6509	2,548.83	65.4497	2,548.83	60.9103	2,548.83	45.0756	2,548.83	72.3159	2,548.83	60.385	2,548.83	71.6906	2,548.83	68.7407
2,639.65	88.3039	2,639.65	86.1379	2,639.65	88.0368	2,639.65	85.7283	2,639.65	86.8508	2,639.65	85.6858	2,639.65	82.8189	2,639.65	86.7868	2,639.65	82.4179	2,639.65	85.7801	2,639.65	85.8421	2,639.65	82.0982	2,639.65	84.3984	2,639.65	82.0805	2,639.65	82.8625	2,639.65	79.9026	2,639.65	81.1379	2,639.65	77.5963	2,639.65	78.3521	2,639.65	75.8271	2,639.65	68.4954	2,639.65	72.4078	2,639.65	63.8655	2,639.65	69.8831	2,639.65	72.0551	2,639.65	67.9649	2,639.65	70.0681	2,639.65	71.8447	2,639.65	67.9786	2,639.65	54.0233	2,639.65	63.4768	2,639.65	64.3751	2,639.65	70.2363	2,639.65	56.9659	2,639.65	71.5317	2,639.65	65.8329
2,731.93	87.6695	2,731.93	85.7181	2,731.93	86.7571	2,731.93	85.3513	2,731.93	85.8915	2,731.93	86.2254	2,731.93	84.7421	2,731.93	86.0174	2,731.93	83.0511	2,731.93	86.0883	2,731.93	85.3168	2,731.93	83.6142	2,731.93	82.9211	2,731.93	82.8784	2,731.93	83.2347	2,731.93	75.5528	2,731.93	81.9216	2,731.93	78.8344	2,731.93	65.402	2,731.93	69.6778	2,731.93	71.9462	2,731.93	75.1503	2,731.93	63.2862	2,731.93	69.5759	2,731.93	69.3817	2,731.93	68.9302	2,731.93	69.1258	2,731.93	68.1194	2,731.93	67.1882	2,731.93	55.1234	2,731.93	61.8007	2,731.93	59.6387	2,731.93	70.219	2,731.93	64.3931	2,731.93	70.4304	2,731.93	66.7179
2,828.61	86.9202	2,828.61	85.8397	2,828.61	86.3236	2,828.61	85.3975	2,828.61	84.7725	2,828.61	85.949	2,828.61	85.4365	2,828.61	86.6354	2,828.61	83.2844	2,828.61	86.4728	2,828.61	84.3003	2,828.61	84.2336	2,828.61	83.5695	2,828.61	80.7497	2,828.61	83.2799	2,828.61	80.9828	2,828.61	82.5071	2,828.61	78.3512	2,828.61	74.4607	2,828.61	72.4832	2,828.61	66.5333	2,828.61	70.1105	2,828.61	66.4365	2,828.61	68.2138	2,828.61	70.9879	2,828.61	64.9185	2,828.61	69.7275	2,828.61	67.8751	2,828.61	68.646	2,828.61	59.5873	2,828.61	60.2404	2,828.61	64.3093	2,828.61	70.2641	2,828.61	64.5144	2,828.61	69.7544	2,828.61	69.0997
2,928.22	87.6666	2,928.22	87.3731	2,928.22	86.5564	2,928.22	85.5554	2,928.22	84.2909	2,928.22	86.2294	2,928.22	85.9398	2,928.22	87.5633	2,928.22	84.3915	2,928.22	86.4044	2,928.22	85.3289	2,928.22	82.9852	2,928.22	82.909	2,928.22	81.7397	2,928.22	83.3647	2,928.22	76.9906	2,928.22	79.7238	2,928.22	77.4714	2,928.22	74.2751	2,928.22	71.4492	2,928.22	42.7363	2,928.22	73.8342	2,928.22	68.9862	2,928.22	67.3685	2,928.22	68.5166	2,928.22	65.9126	2,928.22	72.1994	2,928.22	63.7767	2,928.22	71.2367	2,928.22	63.0696	2,928.22	62.3028	2,928.22	56.2302	2,928.22	68.593	2,928.22	65.3979	2,928.22	68.5301	2,928.22	69.0158
3,030.76	88.6719	3,030.76	88.3245	3,030.76	86.8385	3,030.76	87.0932	3,030.76	84.618	3,030.76	87.087	3,030.76	85.8461	3,030.76	87.0657	3,030.76	86.903	3,030.76	85.0133	3,030.76	84.2922	3,030.76	83.1918	3,030.76	84.9613	3,030.76	79.8335	3,030.76	82.7403	3,030.76	80.8575	3,030.76	81.3789	3,030.76	76.1382	3,030.76	72.1347	3,030.76	76.9288	3,030.76	64.7215	3,030.76	60.0984	3,030.76	70.8707	3,030.76	67.1408	3,030.76	69.4266	3,030.76	69.1714	3,030.76	70.0032	3,030.76	54.0296	3,030.76	69.0732	3,030.76	54.3633	3,030.76	61.4764	3,030.76	54.8519	3,030.76	66.3802	3,030.76	67.9214	3,030.76	70.5843	3,030.76	67.6473
3,137.7	87.9068	3,137.7	87.7793	3,137.7	86.8115	3,137.7	86.5857	3,137.7	85.6581	3,137.7	88.2364	3,137.7	85.0318	3,137.7	87.1238	3,137.7	86.5112	3,137.7	85.1905	3,137.7	83.7321	3,137.7	83.0223	3,137.7	84.8416	3,137.7	80.9102	3,137.7	80.6267	3,137.7	77.3367	3,137.7	82.8382	3,137.7	78.4353	3,137.7	76.6006	3,137.7	70.8825	3,137.7	72.5524	3,137.7	73.364	3,137.7	71.8541	3,137.7	69.4564	3,137.7	69.6612	3,137.7	69.0208	3,137.7	66.5479	3,137.7	59.1195	3,137.7	68.8194	3,137.7	60.5769	3,137.7	65.7244	3,137.7	62.6967	3,137.7	65.5098	3,137.7	66.1815	3,137.7	68.8898	3,137.7	69.5673
3,249.02	88.3263	3,249.02	87.5574	3,249.02	86.7349	3,249.02	87.0175	3,249.02	85.918	3,249.02	88.3624	3,249.02	87.1376	3,249.02	87.0968	3,249.02	86.1998	3,249.02	85.4294	3,249.02	85.8996	3,249.02	83.625	3,249.02	84.3586	3,249.02	80.093	3,249.02	81.1854	3,249.02	81.2325	3,249.02	82.9307	3,249.02	71.8401	3,249.02	79.7974	3,249.02	76.6429	3,249.02	64.8357	3,249.02	69.5076	3,249.02	73.3794	3,249.02	69.5276	3,249.02	65.3898	3,249.02	68.1163	3,249.02	63.7029	3,249.02	65.0982	3,249.02	69.1212	3,249.02	63.5935	3,249.02	63.3213	3,249.02	62.4719	3,249.02	66.6947	3,249.02	50.7421	3,249.02	72.0777	3,249.02	68.373
3,363.28	88.8598	3,363.28	87.1991	3,363.28	86.2722	3,363.28	86.5772	3,363.28	85.7843	3,363.28	87.8798	3,363.28	87.412	3,363.28	87.7513	3,363.28	86.6619	3,363.28	84.7518	3,363.28	81.7938	3,363.28	83.4586	3,363.28	84.7689	3,363.28	79.6884	3,363.28	85.526	3,363.28	79.4103	3,363.28	84.0802	3,363.28	78.4204	3,363.28	78.162	3,363.28	75.4542	3,363.28	70.5092	3,363.28	63.5309	3,363.28	68.8352	3,363.28	70.722	3,363.28	66.2844	3,363.28	68.0541	3,363.28	68.8961	3,363.28	64.3054	3,363.28	68.6504	3,363.28	65.1054	3,363.28	64.9267	3,363.28	58.3923	3,363.28	68.2818	3,363.28	61.6248	3,363.28	71.3972	3,363.28	69.3255
3,481.93	88.8266	3,481.93	88.2342	3,481.93	87.4187	3,481.93	87.6905	3,481.93	85.8258	3,481.93	87.8766	3,481.93	87.7836	3,481.93	87.1257	3,481.93	86.7949	3,481.93	85.9914	3,481.93	82.3504	3,481.93	83.3064	3,481.93	86.1118	3,481.93	81.8019	3,481.93	85.8238	3,481.93	78.5734	3,481.93	84.3065	3,481.93	73.9602	3,481.93	78.534	3,481.93	71.6661	3,481.93	69.188	3,481.93	71.204	3,481.93	69.2017	3,481.93	68.705	3,481.93	68.3044	3,481.93	68.0297	3,481.93	65.3695	3,481.93	63.1567	3,481.93	67.6442	3,481.93	64.2773	3,481.93	64.6727	3,481.93	46.3603	3,481.93	67.1583	3,481.93	47.3997	3,481.93	73.1612	3,481.93	63.1126
3,604.98	89.7715	3,604.98	88.0224	3,604.98	87.5412	3,604.98	88.3397	3,604.98	86.4141	3,604.98	88.4737	3,604.98	88.2075	3,604.98	86.6084	3,604.98	87.2833	3,604.98	85.7995	3,604.98	83.09	3,604.98	84.2578	3,604.98	85.9056	3,604.98	80.5548	3,604.98	86.0851	3,604.98	81.0704	3,604.98	83.8624	3,604.98	77.0298	3,604.98	75.992	3,604.98	76.0462	3,604.98	66.3333	3,604.98	68.6078	3,604.98	72.1913	3,604.98	67.269	3,604.98	68.6711	3,604.98	69.2085	3,604.98	66.5634	3,604.98	68.5829	3,604.98	68.6494	3,604.98	66.7265	3,604.98	65.2688	3,604.98	63.3873	3,604.98	66.8518	3,604.98	66.8224	3,604.98	73.1436	3,604.98	68.9996
3,732.42	89.7221	3,732.42	87.4462	3,732.42	88.5811	3,732.42	88.1738	3,732.42	84.8591	3,732.42	88.2598	3,732.42	87.9609	3,732.42	87.2671	3,732.42	87.8642	3,732.42	87.0124	3,732.42	81.7463	3,732.42	84.0023	3,732.42	85.0049	3,732.42	80.6793	3,732.42	85.9212	3,732.42	77.7783	3,732.42	82.8356	3,732.42	77.5021	3,732.42	76.3769	3,732.42	71.4152	3,732.42	62.0977	3,732.42	67.1539	3,732.42	71.1427	3,732.42	66.395	3,732.42	70.0001	3,732.42	47.229	3,732.42	68.5331	3,732.42	68.2783	3,732.42	67.6255	3,732.42	67.1732	3,732.42	66.4918	3,732.42	65.4286	3,732.42	67.2682	3,732.42	64.7048	3,732.42	72.2173	3,732.42	69.7344
3,864.26	89.0342	3,864.26	88.0426	3,864.26	89.7208	3,864.26	88.2906	3,864.26	86.1388	3,864.26	88.5885	3,864.26	88.0478	3,864.26	87.7929	3,864.26	87.1325	3,864.26	86.238	3,864.26	83.7634	3,864.26	84.2233	3,864.26	82.7223	3,864.26	81.6003	3,864.26	83.2313	3,864.26	79.4947	3,864.26	81.1231	3,864.26	70.8094	3,864.26	72.9006	3,864.26	74.8811	3,864.26	61.0274	3,864.26	72.1953	3,864.26	70.4838	3,864.26	67.8281	3,864.26	71.6699	3,864.26	71.3409	3,864.26	64.5818	3,864.26	57.1804	3,864.26	68.4467	3,864.26	55.622	3,864.26	67.491	3,864.26	62.1783	3,864.26	68.4917	3,864.26	69.1811	3,864.26	72.3084	3,864.26	67.8174
4,000.49	88.9858	4,000.49	88.1198	4,000.49	89.0407	4,000.49	89.173	4,000.49	87.053	4,000.49	88.2276	4,000.49	88.7468	4,000.49	88.3529	4,000.49	87.5623	4,000.49	85.9006	4,000.49	82.9841	4,000.49	83.8037	4,000.49	82.1432	4,000.49	80.8462	4,000.49	81.549	4,000.49	80.6397	4,000.49	79.3585	4,000.49	75.5526	4,000.49	75.6647	4,000.49	77.1666	4,000.49	64.238	4,000.49	63.118	4,000.49	69.8303	4,000.49	68.3516	4,000.49	72.943	4,000.49	68.9019	4,000.49	61.3705	4,000.49	66.2754	4,000.49	66.2721	4,000.49	64.5806	4,000.49	65.6197	4,000.49	51.1544	4,000.49	67.3023	4,000.49	68.9822	4,000.49	71.299	4,000.49	64.5533
4,141.11	89.2471	4,141.11	88.718	4,141.11	89.822	4,141.11	89.8782	4,141.11	86.9816	4,141.11	88.9541	4,141.11	88.8613	4,141.11	88.2777	4,141.11	86.9833	4,141.11	86.8432	4,141.11	83.2507	4,141.11	83.2127	4,141.11	82.4437	4,141.11	81.3009	4,141.11	80.1808	4,141.11	78.0337	4,141.11	78.5455	4,141.11	78.5886	4,141.11	78.6894	4,141.11	72.987	4,141.11	67.7989	4,141.11	69.4507	4,141.11	69.0203	4,141.11	60.4295	4,141.11	69.7089	4,141.11	70.1597	4,141.11	62.9378	4,141.11	56.1317	4,141.11	64.8768	4,141.11	47.8938	4,141.11	67.364	4,141.11	62.1384	4,141.11	65.837	4,141.11	66.909	4,141.11	68.5291	4,141.11	65.4079
4,287.6	89.9797	4,287.6	89.6257	4,287.6	90.4538	4,287.6	89.6763	4,287.6	87.9545	4,287.6	89.0432	4,287.6	89.0861	4,287.6	87.9887	4,287.6	88.2412	4,287.6	85.4564	4,287.6	82.8028	4,287.6	83.5447	4,287.6	84.3749	4,287.6	81.9026	4,287.6	79.567	4,287.6	78.9771	4,287.6	80.8199	4,287.6	75.8996	4,287.6	79.3293	4,287.6	69.7932	4,287.6	67.6593	4,287.6	70.9772	4,287.6	67.5295	4,287.6	59.8451	4,287.6	70.6282	4,287.6	64.7307	4,287.6	63.3274	4,287.6	70.5921	4,287.6	68.108	4,287.6	66.2655	4,287.6	69.4042	4,287.6	63.019	4,287.6	63.9407	4,287.6	53.98	4,287.6	68.9362	4,287.6	67.6783
4,438.48	89.7421	4,438.48	89.621	4,438.48	90.4944	4,438.48	90.265	4,438.48	89.0676	4,438.48	88.8223	4,438.48	88.3022	4,438.48	88.2682	4,438.48	88.1283	4,438.48	85.8412	4,438.48	83.3835	4,438.48	83.3508	4,438.48	82.9989	4,438.48	82.7832	4,438.48	80.6725	4,438.48	78.9425	4,438.48	83.9445	4,438.48	75.8818	4,438.48	75.8855	4,438.48	71.785	4,438.48	64.2296	4,438.48	71.2232	4,438.48	61.9444	4,438.48	54.6805	4,438.48	67.1981	4,438.48	69.4332	4,438.48	62.5482	4,438.48	51.3268	4,438.48	63.0787	4,438.48	52.9421	4,438.48	67.4452	4,438.48	53.973	4,438.48	62.6024	4,438.48	63.9183	4,438.48	69.2823	4,438.48	69.2474
4,595.21	89.6008	4,595.21	89.2353	4,595.21	90.4925	4,595.21	89.9354	4,595.21	89.3209	4,595.21	88.8752	4,595.21	88.573	4,595.21	87.7002	4,595.21	87.6832	4,595.21	86.3247	4,595.21	83.4546	4,595.21	83.8873	4,595.21	80.4488	4,595.21	81.7908	4,595.21	84.506	4,595.21	78.9416	4,595.21	85.9514	4,595.21	77.0925	4,595.21	77.1244	4,595.21	73.9849	4,595.21	53.7529	4,595.21	71.2137	4,595.21	55.4908	4,595.21	61.3031	4,595.21	64.6394	4,595.21	67.8047	4,595.21	66.7982	4,595.21	52.6776	4,595.21	66.4052	4,595.21	65.029	4,595.21	67.2281	4,595.21	62.068	4,595.21	61.7929	4,595.21	65.1334	4,595.21	69.5014	4,595.21	64.1186
4,756.35	90.0914	4,756.35	89.8635	4,756.35	89.6723	4,756.35	90.6176	4,756.35	89.892	4,756.35	88.784	4,756.35	88.3865	4,756.35	87.8236	4,756.35	87.6951	4,756.35	86.6802	4,756.35	83.9753	4,756.35	84.3294	4,756.35	82.4081	4,756.35	82.3024	4,756.35	84.6289	4,756.35	79.2472	4,756.35	84.1217	4,756.35	75.8773	4,756.35	77.8008	4,756.35	70.5028	4,756.35	69.64	4,756.35	72.1687	4,756.35	62.1658	4,756.35	52.348	4,756.35	63.4373	4,756.35	67.4733	4,756.35	67.496	4,756.35	65.4617	4,756.35	63.2663	4,756.35	63.1305	4,756.35	67.6779	4,756.35	49.5627	4,756.35	60.3425	4,756.35	52.1609	4,756.35	68.8326	4,756.35	64.4757
4,924.8	90.2587	4,924.8	89.6136	4,924.8	90.2681	4,924.8	90.4894	4,924.8	88.6512	4,924.8	88.2636	4,924.8	88.5106	4,924.8	87.1146	4,924.8	87.5684	4,924.8	86.4482	4,924.8	84.4167	4,924.8	82.7033	4,924.8	83.9924	4,924.8	82.168	4,924.8	85.0657	4,924.8	78.1613	4,924.8	81.3343	4,924.8	76.2662	4,924.8	72.4344	4,924.8	71.7771	4,924.8	70.218	4,924.8	69.8465	4,924.8	64.7474	4,924.8	63.7864	4,924.8	62.6075	4,924.8	69.8799	4,924.8	60.3213	4,924.8	55.3071	4,924.8	57.7985	4,924.8	55.7531	4,924.8	67.7034	4,924.8	61.2522	4,924.8	58.4783	4,924.8	58.5808	4,924.8	61.9731	4,924.8	63.2198
5,097.66	89.6138	5,097.66	89.7981	5,097.66	90.2403	5,097.66	89.785	5,097.66	90.0984	5,097.66	87.9614	5,097.66	87.4819	5,097.66	87.6974	5,097.66	88.1053	5,097.66	86.6151	5,097.66	84.1023	5,097.66	83.7928	5,097.66	81.3083	5,097.66	82.3838	5,097.66	82.6451	5,097.66	78.1253	5,097.66	80.5531	5,097.66	77.4511	5,097.66	79.6147	5,097.66	71.4475	5,097.66	68.2856	5,097.66	71.5627	5,097.66	64.5154	5,097.66	60.8772	5,097.66	63.9266	5,097.66	62.0254	5,097.66	59.0141	5,097.66	64.6241	5,097.66	59.0458	5,097.66	61.8111	5,097.66	65.6858	5,097.66	54.7815	5,097.66	58.9215	5,097.66	50.2261	5,097.66	67.6482	5,097.66	63.29
5,277.83	89.317	5,277.83	89.8047	5,277.83	89.7129	5,277.83	89.6506	5,277.83	89.6054	5,277.83	87.7123	5,277.83	88.0368	5,277.83	87.6571	5,277.83	87.2133	5,277.83	86.2292	5,277.83	85.1539	5,277.83	84.547	5,277.83	79.7821	5,277.83	82.2289	5,277.83	80.524	5,277.83	78.6293	5,277.83	81.6479	5,277.83	73.1515	5,277.83	81.2699	5,277.83	69.9608	5,277.83	64.9462	5,277.83	68.3951	5,277.83	68.3525	5,277.83	60.0208	5,277.83	65.6628	5,277.83	64.9605	5,277.83	60.783	5,277.83	62.9259	5,277.83	49.9679	5,277.83	60.5057	5,277.83	64.9401	5,277.83	62.5921	5,277.83	53.4993	5,277.83	64.3541	5,277.83	63.8132	5,277.83	62.2575
5,463.87	89.5135	5,463.87	89.9864	5,463.87	89.8368	5,463.87	88.6808	5,463.87	88.8934	5,463.87	87.5836	5,463.87	88.4132	5,463.87	88.0455	5,463.87	86.9262	5,463.87	86.5286	5,463.87	86.6394	5,463.87	83.4751	5,463.87	80.6185	5,463.87	81.0962	5,463.87	82.7416	5,463.87	77.7666	5,463.87	81.6773	5,463.87	75.0189	5,463.87	78.6938	5,463.87	68.9063	5,463.87	63.8921	5,463.87	69.7171	5,463.87	68.719	5,463.87	64.4392	5,463.87	64.2567	5,463.87	58.2891	5,463.87	58.0867	5,463.87	67.5177	5,463.87	54.6641	5,463.87	69.3261	5,463.87	66.2225	5,463.87	50.1578	5,463.87	54.4835	5,463.87	58.9473	5,463.87	62.6106	5,463.87	61.4386
5,657.23	89.2348	5,657.23	88.9217	5,657.23	89.9653	5,657.23	88.0538	5,657.23	88.5572	5,657.23	87.957	5,657.23	86.6587	5,657.23	87.8528	5,657.23	85.9699	5,657.23	86.7346	5,657.23	85.5157	5,657.23	83.3223	5,657.23	78.8439	5,657.23	81.6698	5,657.23	81.0482	5,657.23	77.5321	5,657.23	79.6867	5,657.23	74.8312	5,657.23	75.7275	5,657.23	70.2321	5,657.23	54.9256	5,657.23	70.5659	5,657.23	61.3275	5,657.23	62.3413	5,657.23	63.682	5,657.23	65.279	5,657.23	59.7878	5,657.23	68.7724	5,657.23	59.6974	5,657.23	65.5206	5,657.23	63.4031	5,657.23	56.456	5,657.23	58.3758	5,657.23	59.5966	5,657.23	64.4651	5,657.23	59.4632
5,856.45	89.0019	5,856.45	88.7581	5,856.45	89.4403	5,856.45	88.1868	5,856.45	88.3426	5,856.45	86.8278	5,856.45	87.0128	5,856.45	86.8248	5,856.45	86.1448	5,856.45	85.5597	5,856.45	86.582	5,856.45	82.8385	5,856.45	78.101	5,856.45	81.4783	5,856.45	80.7496	5,856.45	76.5137	5,856.45	78.4741	5,856.45	73.6385	5,856.45	78.1761	5,856.45	67.3362	5,856.45	60.6323	5,856.45	67.7498	5,856.45	63.1491	5,856.45	61.8203	5,856.45	64.6298	5,856.45	59.0282	5,856.45	58.877	5,856.45	62.7095	5,856.45	62.6738	5,856.45	63.2895	5,856.45	62.1546	5,856.45	58.7353	5,856.45	51.0759	5,856.45	55.4093	5,856.45	61.8004	5,856.45	56.3781
6,062.99	89.4869	6,062.99	89.0056	6,062.99	88.519	6,062.99	88.6956	6,062.99	88.1082	6,062.99	86.8212	6,062.99	87.9623	6,062.99	86.5612	6,062.99	86.083	6,062.99	85.6431	6,062.99	86.5376	6,062.99	82.4557	6,062.99	78.4451	6,062.99	79.4247	6,062.99	80.1892	6,062.99	73.8427	6,062.99	80.2932	6,062.99	72.668	6,062.99	79.4642	6,062.99	64.5919	6,062.99	66.4847	6,062.99	68.0901	6,062.99	51.3627	6,062.99	65.4391	6,062.99	61.4782	6,062.99	61.1827	6,062.99	59.0787	6,062.99	63.8062	6,062.99	62.3209	6,062.99	69.9216	6,062.99	59.1333	6,062.99	57.2925	6,062.99	59.654	6,062.99	57.2423	6,062.99	60.2672	6,062.99	61.1462
6,276.86	89.0379	6,276.86	88.6222	6,276.86	89.2009	6,276.86	88.5989	6,276.86	88.2627	6,276.86	86.3952	6,276.86	87.5298	6,276.86	87.1847	6,276.86	85.948	6,276.86	84.6789	6,276.86	85.4437	6,276.86	81.9994	6,276.86	78.6518	6,276.86	79.0109	6,276.86	80.0657	6,276.86	75.4857	6,276.86	79.9422	6,276.86	71.689	6,276.86	77.4809	6,276.86	64.9907	6,276.86	58.0344	6,276.86	65.6743	6,276.86	60.5079	6,276.86	62.2819	6,276.86	51.1964	6,276.86	62.0173	6,276.86	54.7995	6,276.86	58.3143	6,276.86	63.9744	6,276.86	67.9473	6,276.86	59.7751	6,276.86	56.7112	6,276.86	56.3606	6,276.86	49.6661	6,276.86	62.2526	6,276.86	58.0539
6,498.05	89.3228	6,498.05	88.8948	6,498.05	88.5643	6,498.05	87.9683	6,498.05	88.1514	6,498.05	87.2427	6,498.05	87.2563	6,498.05	86.7634	6,498.05	85.8243	6,498.05	85.3912	6,498.05	85.1881	6,498.05	79.7511	6,498.05	80.2886	6,498.05	77.9319	6,498.05	80.6687	6,498.05	72.477	6,498.05	79.9151	6,498.05	69.0501	6,498.05	69.3642	6,498.05	66.1688	6,498.05	58.9681	6,498.05	64.5012	6,498.05	58.1509	6,498.05	57.5156	6,498.05	63.0218	6,498.05	59.2592	6,498.05	57.5997	6,498.05	64.3735	6,498.05	62.6266	6,498.05	47.928	6,498.05	57.8216	6,498.05	53.2192	6,498.05	54.4666	6,498.05	50.1079	6,498.05	62.3326	6,498.05	54.7694
6,726.56	89.4437	6,726.56	88.7821	6,726.56	88.74	6,726.56	88.2528	6,726.56	88.0616	6,726.56	86.9699	6,726.56	87.233	6,726.56	86.5208	6,726.56	86.0517	6,726.56	84.1055	6,726.56	84.3288	6,726.56	80.0323	6,726.56	81.0904	6,726.56	77.1388	6,726.56	79.2917	6,726.56	74.1077	6,726.56	74.868	6,726.56	70.7722	6,726.56	73.0288	6,726.56	64.209	6,726.56	65.409	6,726.56	64.6161	6,726.56	49.6882	6,726.56	58.5127	6,726.56	48.8243	6,726.56	50.68	6,726.56	60.3164	6,726.56	64.5771	6,726.56	62.6363	6,726.56	65.8957	6,726.56	57.4597	6,726.56	51.1265	6,726.56	60.268	6,726.56	54.2488	6,726.56	59.3848	6,726.56	54.9658
6,963.87	88.8807	6,963.87	89.1768	6,963.87	89.0308	6,963.87	87.9673	6,963.87	88.2394	6,963.87	86.609	6,963.87	86.9238	6,963.87	86.4866	6,963.87	86.2356	6,963.87	83.3416	6,963.87	84.0369	6,963.87	79.4637	6,963.87	80.6792	6,963.87	76.612	6,963.87	75.2375	6,963.87	73.5137	6,963.87	71.8438	6,963.87	65.5819	6,963.87	77.2555	6,963.87	65.0504	6,963.87	66.2891	6,963.87	65.179	6,963.87	55.2176	6,963.87	62.4965	6,963.87	56.0273	6,963.87	56.2785	6,963.87	44.1763	6,963.87	64.1948	6,963.87	63.5335	6,963.87	66.1987	6,963.87	61.7718	6,963.87	56.8999	6,963.87	57.7992	6,963.87	55.1548	6,963.87	58.5611	6,963.87	56.0234
7,209.96	89.7201	7,209.96	89.0589	7,209.96	89.0317	7,209.96	87.7244	7,209.96	88.2418	7,209.96	87.0204	7,209.96	87.4763	7,209.96	85.3649	7,209.96	85.6226	7,209.96	82.7456	7,209.96	83.3851	7,209.96	79.3659	7,209.96	80.7564	7,209.96	77.5526	7,209.96	72.9094	7,209.96	72.1277	7,209.96	76.9158	7,209.96	71.8983	7,209.96	74.7445	7,209.96	57.6885	7,209.96	65.7272	7,209.96	57.3078	7,209.96	52.756	7,209.96	64.8247	7,209.96	57.7537	7,209.96	60.6011	7,209.96	61.6101	7,209.96	66.2876	7,209.96	63.9933	7,209.96	56.205	7,209.96	58.4569	7,209.96	53.1037	7,209.96	60.187	7,209.96	58.7977	7,209.96	60.3963	7,209.96	57.1028
7,464.84	89.747	7,464.84	88.9878	7,464.84	89.2683	7,464.84	88.4173	7,464.84	87.8763	7,464.84	86.4473	7,464.84	87.4258	7,464.84	84.8021	7,464.84	85.251	7,464.84	82.3908	7,464.84	83.9768	7,464.84	78.9217	7,464.84	79.8636	7,464.84	74.7085	7,464.84	73.2145	7,464.84	70.3125	7,464.84	78.9241	7,464.84	64.9671	7,464.84	73.3435	7,464.84	65.3199	7,464.84	58.1889	7,464.84	62.2806	7,464.84	53.8896	7,464.84	67.1767	7,464.84	57.7341	7,464.84	62.7038	7,464.84	48.585	7,464.84	56.9468	7,464.84	63.7629	7,464.84	64.8913	7,464.84	59.5538	7,464.84	58.2324	7,464.84	54.9895	7,464.84	61.5013	7,464.84	61.4334	7,464.84	57.5537
7,727.05	89.6774	7,727.05	89.1385	7,727.05	88.845	7,727.05	88.6812	7,727.05	88.3223	7,727.05	85.6721	7,727.05	87.0874	7,727.05	84.7316	7,727.05	84.3345	7,727.05	82.4368	7,727.05	81.8911	7,727.05	77.9509	7,727.05	80.9491	7,727.05	75.2752	7,727.05	73.1178	7,727.05	70.3696	7,727.05	76.4238	7,727.05	68.693	7,727.05	71.5992	7,727.05	56.2603	7,727.05	54.802	7,727.05	53.2265	7,727.05	48.4759	7,727.05	63.4458	7,727.05	54.0983	7,727.05	61.0906	7,727.05	57.5101	7,727.05	48.2797	7,727.05	63.5563	7,727.05	62.56	7,727.05	59.5871	7,727.05	61.6854	7,727.05	52.4091	7,727.05	59.392	7,727.05	59.0741	7,727.05	54.0255
7,999.51	90.158	7,999.51	89.5686	7,999.51	89.3717	7,999.51	88.3585	7,999.51	88.1599	7,999.51	85.718	7,999.51	87.2923	7,999.51	84.6896	7,999.51	84.2432	7,999.51	81.8832	7,999.51	82.6775	7,999.51	78.2356	7,999.51	79.9719	7,999.51	74.7738	7,999.51	75.7416	7,999.51	69.9935	7,999.51	71.3827	7,999.51	62.011	7,999.51	74.3209	7,999.51	63.184	7,999.51	63.7824	7,999.51	54.6261	7,999.51	49.1946	7,999.51	55.0819	7,999.51	50.3395	7,999.51	62.6341	7,999.51	39.1299	7,999.51	66.1515	7,999.51	61.4798	7,999.51	61.4081	7,999.51	53.9129	7,999.51	56.1938	7,999.51	55.1893	7,999.51	51.4704	7,999.51	55.0375	7,999.51	54.0159
8,282.23	90.0634	8,282.23	89.5701	8,282.23	89.5401	8,282.23	88.7039	8,282.23	88.7082	8,282.23	85.6082	8,282.23	86.8522	8,282.23	84.2399	8,282.23	84.2179	8,282.23	81.8302	8,282.23	80.7395	8,282.23	77.1911	8,282.23	79.1324	8,282.23	72.2473	8,282.23	71.1915	8,282.23	68.9903	8,282.23	67.3881	8,282.23	64.545	8,282.23	70.3429	8,282.23	54.7926	8,282.23	65.2402	8,282.23	60.9047	8,282.23	54.713	8,282.23	65.475	8,282.23	51.7365	8,282.23	66.6536	8,282.23	52.6272	8,282.23	50.1846	8,282.23	56.9564	8,282.23	60.1528	8,282.23	56.4419	8,282.23	58.8443	8,282.23	55.1281	8,282.23	47.1826	8,282.23	55.056	8,282.23	54.8034
8,573.73	90.181	8,573.73	89.9644	8,573.73	89.7467	8,573.73	88.5935	8,573.73	88.6419	8,573.73	85.609	8,573.73	86.4726	8,573.73	84.1845	8,573.73	83.1761	8,573.73	80.6693	8,573.73	80.4305	8,573.73	76.3286	8,573.73	76.8962	8,573.73	71.2357	8,573.73	67.5265	8,573.73	67.991	8,573.73	73.0682	8,573.73	60.9831	8,573.73	69.0869	8,573.73	63.3709	8,573.73	58.892	8,573.73	53.8012	8,573.73	52.9951	8,573.73	47.8221	8,573.73	45.9874	8,573.73	64.6818	8,573.73	44.2835	8,573.73	64.2	8,573.73	55.5478	8,573.73	57.3337	8,573.73	53.434	8,573.73	57.8985	8,573.73	54.8224	8,573.73	54.1787	8,573.73	53.2057	8,573.73	56.3995
8,876.95	90.0318	8,876.95	90.1508	8,876.95	89.6814	8,876.95	88.6816	8,876.95	88.6031	8,876.95	85.6821	8,876.95	86.0229	8,876.95	83.9409	8,876.95	82.6084	8,876.95	80.59	8,876.95	79.3445	8,876.95	76.377	8,876.95	75.9634	8,876.95	71.5455	8,876.95	68.0662	8,876.95	68.6283	8,876.95	66.4994	8,876.95	63.4778	8,876.95	66.3091	8,876.95	57.3046	8,876.95	60.9225	8,876.95	61.6244	8,876.95	50.1257	8,876.95	63.7239	8,876.95	52.3476	8,876.95	67.5098	8,876.95	51.5205	8,876.95	62.2644	8,876.95	57.4268	8,876.95	62.2947	8,876.95	54.2244	8,876.95	60.0903	8,876.95	51.8557	8,876.95	50.0335	8,876.95	50.5334	8,876.95	51.2417
9,188.96	90.1586	9,188.96	90.1502	9,188.96	89.7103	9,188.96	88.6734	9,188.96	88.4674	9,188.96	85.7882	9,188.96	85.5208	9,188.96	84.2286	9,188.96	81.7165	9,188.96	80.5203	9,188.96	78.2048	9,188.96	76.6829	9,188.96	74.6639	9,188.96	71.9828	9,188.96	65.5813	9,188.96	68.8169	9,188.96	63.5874	9,188.96	61.2007	9,188.96	66.1141	9,188.96	58.103	9,188.96	62.2186	9,188.96	62.9847	9,188.96	41.4217	9,188.96	57.7752	9,188.96	50.9133	9,188.96	67.6166	9,188.96	52.7997	9,188.96	57.7212	9,188.96	48.6257	9,188.96	52.4445	9,188.96	52.8413	9,188.96	52.5232	9,188.96	48.8874	9,188.96	61.7574	9,188.96	53.9961	9,188.96	53.1647
9,514.16	90.2557	9,514.16	90.3795	9,514.16	89.9147	9,514.16	89.1213	9,514.16	88.7227	9,514.16	85.7775	9,514.16	85.0985	9,514.16	84.099	9,514.16	81.5419	9,514.16	79.4512	9,514.16	77.9322	9,514.16	76.0752	9,514.16	72.5071	9,514.16	70.4233	9,514.16	62.0708	9,514.16	66.2771	9,514.16	65.2329	9,514.16	64.1978	9,514.16	67.5724	9,514.16	61.1493	9,514.16	60.4952	9,514.16	48.0592	9,514.16	32.4046	9,514.16	46.8638	9,514.16	42.6615	9,514.16	66.736	9,514.16	45.5946	9,514.16	62.2312	9,514.16	43.9792	9,514.16	62.3623	9,514.16	44.7965	9,514.16	57.0782	9,514.16	49.6437	9,514.16	61.5354	9,514.16	50.5572	9,514.16	49.3788
9,849.61	90.698	9,849.61	90.6793	9,849.61	90.2227	9,849.61	89.2174	9,849.61	88.6261	9,849.61	85.7358	9,849.61	85.4024	9,849.61	83.3994	9,849.61	81.2144	9,849.61	78.6466	9,849.61	76.5236	9,849.61	73.4512	9,849.61	71.034	9,849.61	65.6103	9,849.61	62.5516	9,849.61	65.5299	9,849.61	60.8158	9,849.61	62.9585	9,849.61	59.781	9,849.61	57.1359	9,849.61	52.3457	9,849.61	57.3144	9,849.61	51.9056	9,849.61	62.5605	9,849.61	50.3883	9,849.61	66.3601	9,849.61	39.0637	9,849.61	62.5606	9,849.61	46.4431	9,849.61	54.786	9,849.61	42.4479	9,849.61	61.9898	9,849.61	47.8729	9,849.61	61.4632	9,849.61	44.9618	9,849.61	56.6218
10,196.8	91.0395	10,196.8	90.9739	10,196.8	90.5417	10,196.8	89.2311	10,196.8	88.8772	10,196.8	85.5962	10,196.8	84.9155	10,196.8	82.5476	10,196.8	80.7341	10,196.8	77.2537	10,196.8	76.1403	10,196.8	71.3709	10,196.8	72.194	10,196.8	66.2341	10,196.8	64.9577	10,196.8	66.6714	10,196.8	66.5546	10,196.8	61.9074	10,196.8	67.4609	10,196.8	60.7995	10,196.8	52.5555	10,196.8	60.6783	10,196.8	50.9713	10,196.8	56.8551	10,196.8	41.5876	10,196.8	67.2343	10,196.8	53.1738	10,196.8	63.8966	10,196.8	46.67	10,196.8	59.2295	10,196.8	43.5941	10,196.8	58.3533	10,196.8	50.0583	10,196.8	63.0538	10,196.8	48.306	10,196.8	48.9006
10,555.7	91.0856	10,555.7	90.9493	10,555.7	90.6444	10,555.7	89.1739	10,555.7	88.757	10,555.7	84.9075	10,555.7	84.6979	10,555.7	81.6344	10,555.7	79.7855	10,555.7	76.0678	10,555.7	75.3739	10,555.7	72.5646	10,555.7	73.2164	10,555.7	69.3848	10,555.7	69.5589	10,555.7	67.3242	10,555.7	68.6775	10,555.7	65.1193	10,555.7	67.8955	10,555.7	58.9199	10,555.7	58.547	10,555.7	54.1767	10,555.7	50.7677	10,555.7	60.6179	10,555.7	44.4851	10,555.7	64.506	10,555.7	54.5823	10,555.7	58.1185	10,555.7	45.1626	10,555.7	56.5512	10,555.7	46.7571	10,555.7	61.1251	10,555.7	47.1329	10,555.7	63.5798	10,555.7	45.2855	10,555.7	51.2987
10,927.7	91.0651	10,927.7	90.9989	10,927.7	90.4837	10,927.7	89.0766	10,927.7	88.5852	10,927.7	83.9843	10,927.7	84.2828	10,927.7	81.2682	10,927.7	79.891	10,927.7	75.6973	10,927.7	76.1537	10,927.7	75.833	10,927.7	75.0985	10,927.7	72.2109	10,927.7	74.1852	10,927.7	70.0334	10,927.7	68.2643	10,927.7	66.7624	10,927.7	69.8021	10,927.7	60.2802	10,927.7	59.406	10,927.7	62.2472	10,927.7	44.4549	10,927.7	56.3544	10,927.7	52.4056	10,927.7	67.1915	10,927.7	56.449	10,927.7	62.8443	10,927.7	49.3452	10,927.7	63.2103	10,927.7	49.7774	10,927.7	60.5088	10,927.7	50.7341	10,927.7	62.8649	10,927.7	50.9784	10,927.7	40.4655
11,313	90.8673	11,313	90.6441	11,313	90.0096	11,313	88.6264	11,313	87.8448	11,313	83.437	11,313	84.2465	11,313	80.7341	11,313	79.7029	11,313	76.9175	11,313	76.6192	11,313	77.5702	11,313	75.8229	11,313	74.2664	11,313	75.0814	11,313	72.1258	11,313	64.3293	11,313	67.1964	11,313	70.5946	11,313	64.9348	11,313	60.9454	11,313	52.0164	11,313	40.1772	11,313	60.4293	11,313	53.3878	11,313	67.9257	11,313	51.1598	11,313	67.2943	11,313	45.2873	11,313	62.9538	11,313	44.3888	11,313	65.5878	11,313	51.428	11,313	54.271	11,313	50.7081	11,313	51.4203
11,712.9	90.4343	11,712.9	89.7535	11,712.9	89.416	11,712.9	87.6849	11,712.9	87.189	11,712.9	82.9591	11,712.9	83.3048	11,712.9	80.0071	11,712.9	79.2827	11,712.9	78.0559	11,712.9	77.6324	11,712.9	78.9011	11,712.9	77.8534	11,712.9	76.036	11,712.9	76.0816	11,712.9	72.5013	11,712.9	69.7936	11,712.9	68.3782	11,712.9	69.8234	11,712.9	65.0242	11,712.9	58.6125	11,712.9	48.9651	11,712.9	46.46	11,712.9	60.6682	11,712.9	34.1043	11,712.9	39.0578	11,712.9	51.1815	11,712.9	62.1157	11,712.9	49.8847	11,712.9	60.6961	11,712.9	46.4638	11,712.9	55.7328	11,712.9	56.6219	11,712.9	61.2232	11,712.9	56.4684	11,712.9	33.2028
12,126	89.9401	12,126	89.381	12,126	88.7581	12,126	86.8317	12,126	86.7614	12,126	82.7089	12,126	82.1229	12,126	79.6902	12,126	80.0912	12,126	78.4543	12,126	79.3535	12,126	80.2708	12,126	77.6486	12,126	76.588	12,126	77.33	12,126	71.8027	12,126	66.835	12,126	66.9795	12,126	69.8772	12,126	64.3161	12,126	59.5402	12,126	51.0561	12,126	51.4106	12,126	56.0909	12,126	53.49	12,126	66.7641	12,126	46.6219	12,126	67.0966	12,126	52.5374	12,126	62.3843	12,126	44.5183	12,126	65.0787	12,126	52.6787	12,126	55.7155	12,126	56.8237	12,126	46.9018
12,553.7	89.4042	12,553.7	88.5108	12,553.7	87.6919	12,553.7	85.6902	12,553.7	85.7293	12,553.7	82.318	12,553.7	82.389	12,553.7	80.2223	12,553.7	80.4327	12,553.7	79.774	12,553.7	80.7102	12,553.7	81.2688	12,553.7	78.0499	12,553.7	76.3874	12,553.7	78.3875	12,553.7	71.3257	12,553.7	68.2387	12,553.7	66.9004	12,553.7	69.5064	12,553.7	64.7863	12,553.7	61.3835	12,553.7	55.5011	12,553.7	53.9193	12,553.7	47.6424	12,553.7	47.8026	12,553.7	52.2193	12,553.7	52.507	12,553.7	61.8771	12,553.7	54.385	12,553.7	60.5339	12,553.7	45.6288	12,553.7	62.9473	12,553.7	55.0075	12,553.7	41.0678	12,553.7	59.4799	12,553.7	37.0509
12,996.1	88.9115	12,996.1	87.4824	12,996.1	86.8956	12,996.1	85.6428	12,996.1	85.1391	12,996.1	82.0036	12,996.1	84.1436	12,996.1	81.1979	12,996.1	82.2149	12,996.1	81.5545	12,996.1	81.9215	12,996.1	82.0719	12,996.1	79.123	12,996.1	75.6332	12,996.1	78.7897	12,996.1	72.3551	12,996.1	63.1275	12,996.1	67.6046	12,996.1	67.5351	12,996.1	64.3267	12,996.1	55.5882	12,996.1	52.6338	12,996.1	54.827	12,996.1	61.1819	12,996.1	47.0236	12,996.1	58.2677	12,996.1	55.0923	12,996.1	58.1096	12,996.1	54.4706	12,996.1	54.6053	12,996.1	47.878	12,996.1	61.5448	12,996.1	50.9139	12,996.1	51.2321	12,996.1	60.0301	12,996.1	43.2545
13,454.6	88.6633	13,454.6	86.6142	13,454.6	86.8663	13,454.6	85.4335	13,454.6	85.7113	13,454.6	83.0852	13,454.6	85.0529	13,454.6	81.9265	13,454.6	83.6256	13,454.6	83.1029	13,454.6	82.5758	13,454.6	82.4003	13,454.6	80.6908	13,454.6	76.5458	13,454.6	78.555	13,454.6	73.9359	13,454.6	73.9509	13,454.6	68.4259	13,454.6	70.3513	13,454.6	64.2245	13,454.6	56.4828	13,454.6	48.258	13,454.6	55.4008	13,454.6	60.9491	13,454.6	37.0208	13,454.6	62.76	13,454.6	53.4293	13,454.6	60.7748	13,454.6	49.4665	13,454.6	48.7126	13,454.6	50.5265	13,454.6	58.8371	13,454.6	48.282	13,454.6	51.7209	13,454.6	60.2847	13,454.6	51.8711
13,929.2	88.5938	13,929.2	86.627	13,929.2	87.0813	13,929.2	85.8626	13,929.2	86.0215	13,929.2	84.1733	13,929.2	85.5604	13,929.2	83.5102	13,929.2	85.0413	13,929.2	83.858	13,929.2	83.825	13,929.2	83.3125	13,929.2	81.1229	13,929.2	78.3839	13,929.2	78.2546	13,929.2	74.4093	13,929.2	71.8576	13,929.2	69.413	13,929.2	63.9988	13,929.2	65.5946	13,929.2	51.6108	13,929.2	51.4833	13,929.2	45.585	13,929.2	60.1804	13,929.2	47.1716	13,929.2	62.4839	13,929.2	50.3735	13,929.2	60.3252	13,929.2	48.4501	13,929.2	58.6173	13,929.2	52.7897	13,929.2	60.4671	13,929.2	54.0363	13,929.2	50.6579	13,929.2	60.0876	13,929.2	47.9917
14,419.9	89.3285	14,419.9	88.6147	14,419.9	88.6746	14,419.9	86.809	14,419.9	88.3255	14,419.9	86.0101	14,419.9	87.3289	14,419.9	86.6934	14,419.9	86.8118	14,419.9	84.4512	14,419.9	85.5404	14,419.9	85.1702	14,419.9	82.8634	14,419.9	79.6255	14,419.9	81.3032	14,419.9	74.0062	14,419.9	71.8832	14,419.9	69.3014	14,419.9	67.4241	14,419.9	65.6752	14,419.9	59.7906	14,419.9	58.0744	14,419.9	44.8252	14,419.9	61.7823	14,419.9	54.0632	14,419.9	59.4743	14,419.9	48.6434	14,419.9	58.5285	14,419.9	56.076	14,419.9	65.0572	14,419.9	57.8473	14,419.9	62.7253	14,419.9	59.9869	14,419.9	59.2647	14,419.9	58.5702	14,419.9	54.831
14,928.2	91.1636	14,928.2	90.7922	14,928.2	91.3766	14,928.2	89.2376	14,928.2	90.8701	14,928.2	88.3776	14,928.2	90.1851	14,928.2	89.1805	14,928.2	89.0754	14,928.2	86.2356	14,928.2	86.8698	14,928.2	86.7549	14,928.2	84.6658	14,928.2	80.4563	14,928.2	80.7733	14,928.2	75.7814	14,928.2	74.186	14,928.2	70.7847	14,928.2	63.4736	14,928.2	66.3736	14,928.2	63.2323	14,928.2	62.7436	14,928.2	54.2898	14,928.2	59.6708	14,928.2	58.2929	14,928.2	63.125	14,928.2	53.6392	14,928.2	62.9257	14,928.2	57.8936	14,928.2	65.984	14,928.2	60.7471	14,928.2	62.9664	14,928.2	62.669	14,928.2	58.7421	14,928.2	61.167	14,928.2	55.2688
15,455.6	92.8376	15,455.6	92.5217	15,455.6	93.2979	15,455.6	91.2177	15,455.6	92.3617	15,455.6	90.7606	15,455.6	91.638	15,455.6	90.3847	15,455.6	90.0981	15,455.6	87.6837	15,455.6	87.4352	15,455.6	87.4069	15,455.6	84.6999	15,455.6	80.6055	15,455.6	81.3784	15,455.6	75.8357	15,455.6	74.5251	15,455.6	71.638	15,455.6	64.4393	15,455.6	65.0242	15,455.6	60.3681	15,455.6	63.0783	15,455.6	54.652	15,455.6	58.7972	15,455.6	54.3948	15,455.6	62.0047	15,455.6	49.4829	15,455.6	62.396	15,455.6	57.3591	15,455.6	68.8704	15,455.6	57.991	15,455.6	66.9874	15,455.6	62.6748	15,455.6	60.6524	15,455.6	62.9026	15,455.6	59.2141
16,000.5	92.7154	16,000.5	92.1583	16,000.5	92.8236	16,000.5	90.7748	16,000.5	91.7588	16,000.5	90.6185	16,000.5	90.6501	16,000.5	89.5801	16,000.5	88.6253	16,000.5	86.3641	16,000.5	85.6092	16,000.5	85.775	16,000.5	83.1364	16,000.5	78.6644	16,000.5	79.1006	16,000.5	73.4178	16,000.5	73.1266	16,000.5	69.8703	16,000.5	60.6384	16,000.5	63.1959	16,000.5	52.9188	16,000.5	63.623	16,000.5	59.5132	16,000.5	57.997	16,000.5	57.9074	16,000.5	60.1729	16,000.5	31.1245	16,000.5	63.4191	16,000.5	53.1178	16,000.5	67.4293	16,000.5	54.409	16,000.5	65.8588	16,000.5	56.3947	16,000.5	60.5907	16,000.5	58.0791	16,000.5	53.737
16,564.5	90.8534	16,564.5	90.3674	16,564.5	90.5811	16,564.5	88.9819	16,564.5	89.8155	16,564.5	88.2502	16,564.5	87.9441	16,564.5	86.8126	16,564.5	85.4044	16,564.5	83.2108	16,564.5	82.5389	16,564.5	81.7845	16,564.5	79.4905	16,564.5	74.8835	16,564.5	74.5756	16,564.5	68.7495	16,564.5	69.8295	16,564.5	64.9819	16,564.5	60.0318	16,564.5	59.5244	16,564.5	56.1253	16,564.5	49.5157	16,564.5	53.7018	16,564.5	57.7151	16,564.5	52.5304	16,564.5	44.6938	16,564.5	48.3163	16,564.5	56.3932	16,564.5	53.0744	16,564.5	66.4425	16,564.5	51.3883	16,564.5	62.6501	16,564.5	44.4415	16,564.5	58.4563	16,564.5	49.8028	16,564.5	40.937
17,148.9	88.9165	17,148.9	88.4744	17,148.9	88.1601	17,148.9	86.8718	17,148.9	87.2551	17,148.9	85.4672	17,148.9	85.0571	17,148.9	83.6577	17,148.9	81.8746	17,148.9	79.0675	17,148.9	79.0962	17,148.9	77.4301	17,148.9	75.0317	17,148.9	69.6779	17,148.9	71.0939	17,148.9	63.1661	17,148.9	65.2672	17,148.9	60.1191	17,148.9	54.1934	17,148.9	55.9542	17,148.9	55.1923	17,148.9	45.9171	17,148.9	51.2343	17,148.9	51.4333	17,148.9	45.717	17,148.9	51.278	17,148.9	44.3551	17,148.9	54.1811	17,148.9	48.0087	17,148.9	64.3945	17,148.9	45.1282	17,148.9	58.6165	17,148.9	30.2832	17,148.9	53.4185	17,148.9	40.4767	17,148.9	23.4878
17,752.4	87.2222	17,752.4	86.8321	17,752.4	86.4844	17,752.4	84.9475	17,752.4	84.8128	17,752.4	82.6559	17,752.4	82.487	17,752.4	80.5801	17,752.4	79.1359	17,752.4	75.1959	17,752.4	75.3734	17,752.4	72.8495	17,752.4	71.1153	17,752.4	65.591	17,752.4	67.1341	17,752.4	58.9801	17,752.4	62.3281	17,752.4	56.2041	17,752.4	39.0479	17,752.4	47.8153	17,752.4	52.2666	17,752.4	47.2627	17,752.4	44.6773	17,752.4	53.0572	17,752.4	37.7722	17,752.4	49.1282	17,752.4	35.5343	17,752.4	53.0287	17,752.4	21.0997	17,752.4	63.0506	17,752.4	35.3111	17,752.4	51.9887	17,752.4	35.5717	17,752.4	39.6635	17,752.4	36.114	17,752.4	37.0751
18,379.4	86.0503	18,379.4	85.5004	18,379.4	84.978	18,379.4	83.4225	18,379.4	82.8606	18,379.4	79.6913	18,379.4	79.6842	18,379.4	77.3181	18,379.4	76.7838	18,379.4	71.8081	18,379.4	73.4218	18,379.4	68.2646	18,379.4	68.0777	18,379.4	62.6584	18,379.4	65.92	18,379.4	55.1736	18,379.4	64.6517	18,379.4	51.1018	18,379.4	47.1819	18,379.4	47.7426	18,379.4	50.1097	18,379.4	49.9679	18,379.4	42.475	18,379.4	53.6596	18,379.4	31.0478	18,379.4	48.2688	18,379.4	30.1655	18,379.4	48.8029	18,379.4	40.8332	18,379.4	61.6108	18,379.4	34.8753	18,379.4	53.0804	18,379.4	38.2872	18,379.4	50.1124	18,379.4	31.7215	18,379.4	29.3471
19,026.9	84.914	19,026.9	84.1398	19,026.9	83.6392	19,026.9	81.8192	19,026.9	81.3577	19,026.9	77.5201	19,026.9	77.6855	19,026.9	74.2053	19,026.9	74.2682	19,026.9	66.6881	19,026.9	73.1482	19,026.9	63.8182	19,026.9	69.0025	19,026.9	58.1857	19,026.9	66.3828	19,026.9	50.9533	19,026.9	60.6841	19,026.9	46.1318	19,026.9	44.9014	19,026.9	45.4492	19,026.9	51.1931	19,026.9	45.4229	19,026.9	46.3336	19,026.9	47.3997	19,026.9	39.4219	19,026.9	44.8026	19,026.9	39.8744	19,026.9	40.371	19,026.9	36.3988	19,026.9	60.457	19,026.9	37.301	19,026.9	55.0995	19,026.9	31.852	19,026.9	50.4817	19,026.9	32.0997	19,026.9	36.2588
19,697.8	83.7799	19,697.8	82.6767	19,697.8	82.1236	19,697.8	79.5227	19,697.8	79.6818	19,697.8	73.3779	19,697.8	76.6771	19,697.8	67.8844	19,697.8	74.4748	19,697.8	49.99	19,697.8	73.3906	19,697.8	59.5115	19,697.8	69.8264	19,697.8	57.7986	19,697.8	67.041	19,697.8	55.4889	19,697.8	63.1113	19,697.8	47.4105	19,697.8	47.949	19,697.8	42.9016	19,697.8	48.6917	19,697.8	36.1075	19,697.8	42.0068	19,697.8	51.7624	19,697.8	39.7824	19,697.8	44.6026	19,697.8	43.0111	19,697.8	35.6852	19,697.8	38.2331	19,697.8	58.4359	19,697.8	37.4073	19,697.8	54.5921	19,697.8	34.642	19,697.8	48.2192	19,697.8	41.9134	19,697.8	18.8212
19,999.5	83.3154	19,999.5	81.8711	19,999.5	81.4456	19,999.5	78.2728	19,999.5	79.4299	19,999.5	70.6036	19,999.5	75.9861	19,999.5	61.8753	19,999.5	74.4393	19,999.5	59.9872	19,999.5	73.5308	19,999.5	65.1665	19,999.5	70.7503	19,999.5	63.7372	19,999.5	66.3424	19,999.5	61.8914	19,999.5	61.6226	19,999.5	50.7393	19,999.5	46.1931	19,999.5	41.8992	19,999.5	44.6819	19,999.5	40.3088	19,999.5	47.8083	19,999.5	52.3311	19,999.5	41.6078	19,999.5	42.9572	19,999.5	45.4793	19,999.5	53.1674	19,999.5	39.9227	19,999.5	47.2317	19,999.5	33.8298	19,999.5	55.3606	19,999.5	36.8156	19,999.5	39.6325	19,999.5	42.2728	19,999.5	50.8571
