"SPL Vertical"
"On-Axis"		"10°"		"-10°"		"20°"		"-20°"		"30°"		"-30°"		"40°"		"-40°"		"50°"		"-50°"		"60°"		"-60°"		"70°"		"-70°"		"80°"		"-80°"		"90°"		"-90°"		"100°"		"-100°"		"110°"		"-110°"		"120°"		"-120°"		"130°"		"-130°"		"140°"		"-140°"		"150°"		"-150°"		"160°"		"-160°"		"170°"		"-170°"		"180°"
"Frequency / Hz"	"Sound Pressure Level / dB (re 20 µPa/V)  [2.83  V @ 1. m]"	"Frequency / Hz"	"Sound Pressure Level / dB (re 20 µPa/V)  [2.83  V @ 1. m]"	"Frequency / Hz"	"Sound Pressure Level / dB (re 20 µPa/V)  [2.83  V @ 1. m]"	"Frequency / Hz"	"Sound Pressure Level / dB (re 20 µPa/V)  [2.83  V @ 1. m]"	"Frequency / Hz"	"Sound Pressure Level / dB (re 20 µPa/V)  [2.83  V @ 1. m]"	"Frequency / Hz"	"Sound Pressure Level / dB (re 20 µPa/V)  [2.83  V @ 1. m]"	"Frequency / Hz"	"Sound Pressure Level / dB (re 20 µPa/V)  [2.83  V @ 1. m]"	"Frequency / Hz"	"Sound Pressure Level / dB (re 20 µPa/V)  [2.83  V @ 1. m]"	"Frequency / Hz"	"Sound Pressure Level / dB (re 20 µPa/V)  [2.83  V @ 1. m]"	"Frequency / Hz"	"Sound Pressure Level / dB (re 20 µPa/V)  [2.83  V @ 1. m]"	"Frequency / Hz"	"Sound Pressure Level / dB (re 20 µPa/V)  [2.83  V @ 1. m]"	"Frequency / Hz"	"Sound Pressure Level / dB (re 20 µPa/V)  [2.83  V @ 1. m]"	"Frequency / Hz"	"Sound Pressure Level / dB (re 20 µPa/V)  [2.83  V @ 1. m]"	"Frequency / Hz"	"Sound Pressure Level / dB (re 20 µPa/V)  [2.83  V @ 1. m]"	"Frequency / Hz"	"Sound Pressure Level / dB (re 20 µPa/V)  [2.83  V @ 1. m]"	"Frequency / Hz"	"Sound Pressure Level / dB (re 20 µPa/V)  [2.83  V @ 1. m]"	"Frequency / Hz"	"Sound Pressure Level / dB (re 20 µPa/V)  [2.83  V @ 1. m]"	"Frequency / Hz"	"Sound Pressure Level / dB (re 20 µPa/V)  [2.83  V @ 1. m]"	"Frequency / Hz"	"Sound Pressure Level / dB (re 20 µPa/V)  [2.83  V @ 1. m]"	"Frequency / Hz"	"Sound Pressure Level / dB (re 20 µPa/V)  [2.83  V @ 1. m]"	"Frequency / Hz"	"Sound Pressure Level / dB (re 20 µPa/V)  [2.83  V @ 1. m]"	"Frequency / Hz"	"Sound Pressure Level / dB (re 20 µPa/V)  [2.83  V @ 1. m]"	"Frequency / Hz"	"Sound Pressure Level / dB (re 20 µPa/V)  [2.83  V @ 1. m]"	"Frequency / Hz"	"Sound Pressure Level / dB (re 20 µPa/V)  [2.83  V @ 1. m]"	"Frequency / Hz"	"Sound Pressure Level / dB (re 20 µPa/V)  [2.83  V @ 1. m]"	"Frequency / Hz"	"Sound Pressure Level / dB (re 20 µPa/V)  [2.83  V @ 1. m]"	"Frequency / Hz"	"Sound Pressure Level / dB (re 20 µPa/V)  [2.83  V @ 1. m]"	"Frequency / Hz"	"Sound Pressure Level / dB (re 20 µPa/V)  [2.83  V @ 1. m]"	"Frequency / Hz"	"Sound Pressure Level / dB (re 20 µPa/V)  [2.83  V @ 1. m]"	"Frequency / Hz"	"Sound Pressure Level / dB (re 20 µPa/V)  [2.83  V @ 1. m]"	"Frequency / Hz"	"Sound Pressure Level / dB (re 20 µPa/V)  [2.83  V @ 1. m]"	"Frequency / Hz"	"Sound Pressure Level / dB (re 20 µPa/V)  [2.83  V @ 1. m]"	"Frequency / Hz"	"Sound Pressure Level / dB (re 20 µPa/V)  [2.83  V @ 1. m]"	"Frequency / Hz"	"Sound Pressure Level / dB (re 20 µPa/V)  [2.83  V @ 1. m]"	"Frequency / Hz"	"Sound Pressure Level / dB (re 20 µPa/V)  [2.83  V @ 1. m]"	"Frequency / Hz"	"Sound Pressure Level / dB (re 20 µPa/V)  [2.83  V @ 1. m]"
20.5078	61.73	20.5078	61.6577	20.5078	61.7317	20.5078	61.5072	20.5078	61.6755	20.5078	61.2834	20.5078	61.5782	20.5078	61.0153	20.5078	61.4636	20.5078	60.7712	20.5078	61.369	20.5078	60.6654	20.5078	61.3504	20.5078	60.8334	20.5078	61.4764	20.5078	61.3593	20.5078	61.8054	20.5078	62.2097	20.5078	62.3556	20.5078	63.2556	20.5078	63.0914	20.5078	64.3519	20.5078	63.9404	20.5078	65.3885	20.5078	64.8231	20.5078	66.2978	20.5078	65.6725	20.5078	67.0424	20.5078	66.4399	20.5078	67.604	20.5078	67.0917	20.5078	67.9748	20.5078	67.6042	20.5078	68.1546	20.5078	67.9604	20.5078	68.1473
21.9727	62.2153	21.9727	62.2207	21.9727	62.1389	21.9727	62.1422	21.9727	62.0002	21.9727	61.9661	21.9727	61.803	21.9727	61.6811	21.9727	61.5464	21.9727	61.2819	21.9727	61.2272	21.9727	60.7742	21.9727	60.8443	21.9727	60.1812	21.9727	60.4028	21.9727	59.5527	21.9727	59.9186	21.9727	58.9725	21.9727	59.4225	21.9727	58.5504	21.9727	58.963	21.9727	58.3817	21.9727	58.603	21.9727	58.4882	21.9727	58.4055	21.9727	58.7975	21.9727	58.4072	21.9727	59.1869	21.9727	58.5959	21.9727	59.5418	21.9727	58.9115	21.9727	59.7841	21.9727	59.2694	21.9727	59.8741	21.9727	59.5877	21.9727	59.8029
23.4375	57.994	23.4375	57.8965	23.4375	58.0872	23.4375	57.7873	23.4375	58.178	23.4375	57.6572	23.4375	58.2622	23.4375	57.499	23.4375	58.3312	23.4375	57.3123	23.4375	58.3763	23.4375	57.1065	23.4375	58.3914	23.4375	56.9027	23.4375	58.3762	23.4375	56.7331	23.4375	58.3365	23.4375	56.6359	23.4375	58.2835	23.4375	56.6456	23.4375	58.2321	23.4375	56.7794	23.4375	58.1984	23.4375	57.0279	23.4375	58.1966	23.4375	57.3553	23.4375	58.2346	23.4375	57.7111	23.4375	58.3106	23.4375	58.0438	23.4375	58.4105	23.4375	58.3125	23.4375	58.509	23.4375	58.4925	23.4375	58.5746	23.4375	58.5767
24.9023	57.2836	24.9023	57.1491	24.9023	57.4989	24.9023	57.0977	24.9023	57.7897	24.9023	57.1311	24.9023	58.1473	24.9023	57.2513	24.9023	58.5593	24.9023	57.4606	24.9023	59.0115	24.9023	57.7599	24.9023	59.4898	24.9023	58.1462	24.9023	59.9807	24.9023	58.6104	24.9023	60.472	24.9023	59.1371	24.9023	60.9521	24.9023	59.7051	24.9023	61.4096	24.9023	60.2902	24.9023	61.8331	24.9023	60.8667	24.9023	62.2119	24.9023	61.4106	24.9023	62.5358	24.9023	61.9007	24.9023	62.7959	24.9023	62.3201	24.9023	62.9844	24.9023	62.6568	24.9023	63.0945	24.9023	62.9037	24.9023	63.1206	24.9023	63.058
26.3672	52.2461	26.3672	51.7265	26.3672	52.9328	26.3672	51.4096	26.3672	53.7525	26.3672	51.3327	26.3672	54.6715	26.3672	51.5275	26.3672	55.6561	26.3672	52.0067	26.3672	56.6739	26.3672	52.7507	26.3672	57.6952	26.3672	53.7077	26.3672	58.6938	26.3672	54.8078	26.3672	59.6469	26.3672	55.9809	26.3672	60.5351	26.3672	57.1675	26.3672	61.3417	26.3672	58.3217	26.3672	62.0522	26.3672	59.4099	26.3672	62.6545	26.3672	60.4071	26.3672	63.1382	26.3672	61.2951	26.3672	63.4946	26.3672	62.0602	26.3672	63.7169	26.3672	62.6927	26.3672	63.8	26.3672	63.1858	26.3672	63.7402	26.3672	63.5355
27.832	51.4552	27.832	50.8959	27.832	52.5001	27.832	50.9055	27.832	53.8813	27.832	51.4686	27.832	55.4403	27.832	52.4829	27.832	57.0501	27.832	53.8032	27.832	58.6265	27.832	55.2891	27.832	60.1204	27.832	56.832	27.832	61.5057	27.832	58.3596	27.832	62.7692	27.832	59.8274	27.832	63.9042	27.832	61.2091	27.832	64.9066	27.832	62.4883	27.832	65.7734	27.832	63.6531	27.832	66.5015	27.832	64.6942	27.832	67.0879	27.832	65.6031	27.832	67.5292	27.832	66.3724	27.832	67.8224	27.832	66.9959	27.832	67.9647	27.832	67.469	27.832	67.9539	27.832	67.7888
29.2969	62.1701	29.2969	62.208	29.2969	62.1576	29.2969	62.2546	29.2969	62.2091	29.2969	62.3136	29.2969	62.3796	29.2969	62.4055	29.2969	62.723	29.2969	62.5615	29.2969	63.2671	29.2969	62.817	29.2969	63.9961	29.2969	63.2016	29.2969	64.857	29.2969	63.7282	29.2969	65.7813	29.2969	64.3874	29.2969	66.705	29.2969	65.1488	29.2969	67.5787	29.2969	65.9696	29.2969	68.3674	29.2969	66.804	29.2969	69.0474	29.2969	67.6105	29.2969	69.603	29.2969	68.355	29.2969	70.024	29.2969	69.011	29.2969	70.304	29.2969	69.5587	29.2969	70.4395	29.2969	69.984	29.2969	70.4298	29.2969	70.2766
30.7617	67.0522	30.7617	67.0744	30.7617	67.0357	30.7617	67.0861	30.7617	67.0538	30.7617	67.0841	30.7617	67.1455	30.7617	67.0771	30.7617	67.3511	30.7617	67.0847	30.7617	67.699	30.7617	67.1351	30.7617	68.1936	30.7617	67.2615	30.7617	68.8112	30.7617	67.4948	30.7617	69.5081	30.7617	67.8546	30.7617	70.2336	30.7617	68.3411	30.7617	70.9405	30.7617	68.9338	30.7617	71.5901	30.7617	69.5967	30.7617	72.1532	30.7617	70.2872	30.7617	72.6084	30.7617	70.9641	30.7617	72.9411	30.7617	71.5918	30.7617	73.1421	30.7617	72.1416	30.7617	73.2064	30.7617	72.5918	30.7617	73.1334	30.7617	72.9261
32.2266	72.3102	32.2266	72.3617	32.2266	72.2434	32.2266	72.3871	32.2266	72.1797	32.2266	72.3826	32.2266	72.1437	32.2266	72.3509	32.2266	72.1642	32.2266	72.3017	32.2266	72.2694	32.2266	72.2512	32.2266	72.4788	32.2266	72.2216	32.2266	72.7969	32.2266	72.2393	32.2266	73.2097	32.2266	72.3306	32.2266	73.6877	32.2266	72.5157	32.2266	74.1929	32.2266	72.8023	32.2266	74.6863	32.2266	73.1818	32.2266	75.1329	32.2266	73.6305	32.2266	75.5041	32.2266	74.1149	32.2266	75.7787	32.2266	74.5984	32.2266	75.9426	32.2266	75.0462	32.2266	75.988	32.2266	75.4291	32.2266	75.9136	32.2266	75.7238
33.6914	75.8193	33.6914	75.8304	33.6914	75.7997	33.6914	75.8247	33.6914	75.7854	33.6914	75.799	33.6914	75.7942	33.6914	75.7558	33.6914	75.8465	33.6914	75.7032	33.6914	75.962	33.6914	75.6553	33.6914	76.1549	33.6914	75.6309	33.6914	76.4292	33.6914	75.6524	33.6914	76.7766	33.6914	75.7416	33.6914	77.1768	33.6914	75.9151	33.6914	77.6015	33.6914	76.1786	33.6914	78.0193	33.6914	76.5244	33.6914	78.3998	33.6914	76.9321	33.6914	78.7171	33.6914	77.3726	33.6914	78.9506	33.6914	77.8139	33.6914	79.0862	33.6914	78.225	33.6914	79.1157	33.6914	78.5793	33.6914	79.0374	33.6914	78.8553
35.1562	79.1246	35.1562	79.1189	35.1562	79.1243	35.1562	79.1017	35.1562	79.1277	35.1562	79.0713	35.1562	79.1478	35.1562	79.0303	35.1562	79.1998	35.1562	78.9854	35.1562	79.2988	35.1562	78.9474	35.1562	79.4564	35.1562	78.9304	35.1562	79.6776	35.1562	78.9506	35.1562	79.9581	35.1562	79.0242	35.1562	80.2841	35.1562	79.1637	35.1562	80.634	35.1562	79.3744	35.1562	80.982	35.1562	79.6528	35.1562	81.3019	35.1562	79.9855	35.1562	81.5694	35.1562	80.3515	35.1562	81.7652	35.1562	80.7255	35.1562	81.8751	35.1562	81.0812	35.1562	81.8914	35.1562	81.394	35.1562	81.8125	35.1562	81.6432
36.6211	82.1748	36.6211	82.1803	36.6211	82.1666	36.6211	82.1784	36.6211	82.1638	36.6211	82.1674	36.6211	82.1771	36.6211	82.1491	36.6211	82.2193	36.6211	82.1283	36.6211	82.3028	36.6211	82.113	36.6211	82.438	36.6211	82.1136	36.6211	82.6297	36.6211	82.1425	36.6211	82.8753	36.6211	82.212	36.6211	83.1639	36.6211	82.3327	36.6211	83.4774	36.6211	82.5101	36.6211	83.7931	36.6211	82.7431	36.6211	84.0871	36.6211	83.0228	36.6211	84.3366	36.6211	83.3333	36.6211	84.5229	36.6211	83.6538	36.6211	84.6319	36.6211	83.9612	36.6211	84.656	36.6211	84.2329	36.6211	84.5934	36.6211	84.4489
38.0859	84.8158	38.0859	84.825	38.0859	84.7979	38.0859	84.8207	38.0859	84.7788	38.0859	84.8015	38.0859	84.7688	38.0859	84.7686	38.0859	84.78	38.0859	84.7265	38.0859	84.8251	38.0859	84.6824	38.0859	84.9154	38.0859	84.6467	38.0859	85.0575	38.0859	84.6319	38.0859	85.2516	38.0859	84.6515	38.0859	85.4897	38.0859	84.7183	38.0859	85.7564	38.0859	84.8409	38.0859	86.031	38.0859	85.0218	38.0859	86.2904	38.0859	85.2552	38.0859	86.5122	38.0859	85.5275	38.0859	86.677	38.0859	85.8184	38.0859	86.7706	38.0859	86.105	38.0859	86.7846	38.0859	86.3635	38.0859	86.7172	38.0859	86.5732
39.5508	86.7402	39.5508	86.7467	39.5508	86.7262	39.5508	86.7414	39.5508	86.7121	39.5508	86.7227	39.5508	86.7081	39.5508	86.6923	39.5508	86.7262	39.5508	86.6548	39.5508	86.7787	39.5508	86.6179	39.5508	86.8763	39.5508	86.5919	39.5508	87.0252	39.5508	86.5892	39.5508	87.2251	39.5508	86.6228	39.5508	87.4679	39.5508	86.7041	39.5508	87.7384	39.5508	86.8406	39.5508	88.0161	39.5508	87.0334	39.5508	88.2784	39.5508	87.2756	39.5508	88.5032	39.5508	87.5528	39.5508	88.6716	39.5508	87.8452	39.5508	88.7696	39.5508	88.13	39.5508	88.7888	39.5508	88.3846	39.5508	88.7271	39.5508	88.5889
41.0156	88.7676	41.0156	88.7749	41.0156	88.7523	41.0156	88.7699	41.0156	88.7359	41.0156	88.7512	41.0156	88.7282	41.0156	88.7202	41.0156	88.7408	41.0156	88.6812	41.0156	88.7856	41.0156	88.641	41.0156	88.8731	41.0156	88.6093	41.0156	89.0098	41.0156	88.5975	41.0156	89.1957	41.0156	88.6184	41.0156	89.4236	41.0156	88.6836	41.0156	89.6791	41.0156	88.8014	41.0156	89.9424	41.0156	88.9743	41.0156	90.1917	41.0156	89.1974	41.0156	90.4051	41.0156	89.4579	41.0156	90.5641	41.0156	89.737	41.0156	90.6546	41.0156	90.0126	41.0156	90.6683	41.0156	90.2618	41.0156	90.6032	41.0156	90.4641
42.4805	90.0918	42.4805	90.0967	42.4805	90.093	42.4805	90.1031	42.4805	90.1068	42.4805	90.1093	42.4805	90.1414	42.4805	90.1157	42.4805	90.2061	42.4805	90.1253	42.4805	90.3091	42.4805	90.1436	42.4805	90.4564	42.4805	90.1778	42.4805	90.6498	42.4805	90.2365	42.4805	90.8854	42.4805	90.3281	42.4805	91.1532	42.4805	90.4598	42.4805	91.4382	42.4805	90.6348	42.4805	91.722	42.4805	90.8518	42.4805	91.9849	42.4805	91.1032	42.4805	92.2082	42.4805	91.3763	42.4805	92.376	42.4805	91.6544	42.4805	92.4764	42.4805	91.9187	42.4805	92.5028	42.4805	92.1506	42.4805	92.4538	42.4805	92.3334
43.9453	92.4775	43.9453	92.4768	43.9453	92.4765	43.9453	92.4712	43.9453	92.4789	43.9453	92.4594	43.9453	92.4911	43.9453	92.4418	43.9453	92.5208	43.9453	92.4211	43.9453	92.5756	43.9453	92.4018	43.9453	92.6623	43.9453	92.3905	43.9453	92.7848	43.9453	92.3953	43.9453	92.9431	43.9453	92.425	43.9453	93.132	43.9453	92.4879	43.9453	93.3409	43.9453	92.59	43.9453	93.5552	43.9453	92.7335	43.9453	93.7574	43.9453	92.9154	43.9453	93.9302	43.9453	93.1268	43.9453	94.0578	43.9453	93.354	43.9453	94.1283	43.9453	93.58	43.9453	94.1348	43.9453	93.7867	43.9453	94.0761	43.9453	93.9568
45.4102	93.7417	45.4102	93.7453	45.4102	93.7346	45.4102	93.7425	45.4102	93.7291	45.4102	93.7318	45.4102	93.732	45.4102	93.7142	45.4102	93.7513	45.4102	93.6923	45.4102	93.7952	45.4102	93.6706	45.4102	93.8708	45.4102	93.6555	45.4102	93.9826	45.4102	93.655	45.4102	94.131	45.4102	93.6775	45.4102	94.3109	45.4102	93.7314	45.4102	94.5121	45.4102	93.8228	45.4102	94.7198	45.4102	93.9545	45.4102	94.917	45.4102	94.1238	45.4102	95.086	45.4102	94.3229	45.4102	95.2114	45.4102	94.5387	45.4102	95.2812	45.4102	94.7549	45.4102	95.2885	45.4102	94.9534	45.4102	95.2324	45.4102	95.1173
46.875	94.9372	46.875	94.938	46.875	94.9349	46.875	94.9342	46.875	94.9355	46.875	94.9248	46.875	94.9454	46.875	94.9105	46.875	94.9715	46.875	94.8937	46.875	95.0212	46.875	94.8788	46.875	95.1007	46.875	94.8717	46.875	95.2138	46.875	94.8798	46.875	95.3604	46.875	94.9107	46.875	95.5358	46.875	94.972	46.875	95.7305	46.875	95.0689	46.875	95.931	46.875	95.2033	46.875	96.1213	46.875	95.3723	46.875	96.2852	46.875	95.568	46.875	96.4078	46.875	95.7777	46.875	96.4777	46.875	95.9858	46.875	96.4881	46.875	96.1753	46.875	96.4377	46.875	96.3304
48.3398	96.0324	48.3398	96.0329	48.3398	96.0314	48.3398	96.0304	48.3398	96.034	48.3398	96.0242	48.3398	96.0453	48.3398	96.0148	48.3398	96.0714	48.3398	96.0044	48.3398	96.1185	48.3398	95.9967	48.3398	96.1922	48.3398	95.9967	48.3398	96.2958	48.3398	96.0106	48.3398	96.4296	48.3398	96.045	48.3398	96.5897	48.3398	96.1059	48.3398	96.7678	48.3398	96.1978	48.3398	96.9521	48.3398	96.3221	48.3398	97.128	48.3398	96.4764	48.3398	97.2807	48.3398	96.6538	48.3398	97.3962	48.3398	96.8432	48.3398	97.4638	48.3398	97.0306	48.3398	97.4771	48.3398	97.201	48.3398	97.4345	48.3398	97.3396
51.2695	97.6212	51.2695	97.6197	51.2695	97.6213	51.2695	97.6146	51.2695	97.6231	51.2695	97.6053	51.2695	97.6309	51.2695	97.5921	51.2695	97.6493	51.2695	97.5767	51.2695	97.6835	51.2695	97.5622	51.2695	97.7378	51.2695	97.5524	51.2695	97.8154	51.2695	97.5525	51.2695	97.9167	51.2695	97.5677	51.2695	98.0394	51.2695	97.6034	51.2695	98.1773	51.2695	97.664	51.2695	98.3208	51.2695	97.7519	51.2695	98.4583	51.2695	97.8666	51.2695	98.5769	51.2695	98.0038	51.2695	98.6646	51.2695	98.1557	51.2695	98.7121	51.2695	98.3111	51.2695	98.7135	51.2695	98.4569	51.2695	98.6681	51.2695	98.5798
52.7344	98.3229	52.7344	98.3163	52.7344	98.3276	52.7344	98.3064	52.7344	98.3326	52.7344	98.2929	52.7344	98.3411	52.7344	98.2765	52.7344	98.357	52.7344	98.2586	52.7344	98.3846	52.7344	98.2417	52.7344	98.4276	52.7344	98.2291	52.7344	98.4892	52.7344	98.2247	52.7344	98.5703	52.7344	98.2329	52.7344	98.6693	52.7344	98.2583	52.7344	98.7815	52.7344	98.3049	52.7344	98.8991	52.7344	98.375	52.7344	99.0122	52.7344	98.4691	52.7344	99.1094	52.7344	98.584	52.7344	99.1802	52.7344	98.7134	52.7344	99.2161	52.7344	98.848	52.7344	99.2121	52.7344	98.9763	52.7344	99.1676	52.7344	99.0864
54.1992	99.039	54.1992	99.0367	54.1992	99.0382	54.1992	99.03	54.1992	99.0365	54.1992	99.0183	54.1992	99.0369	54.1992	99.0023	54.1992	99.0431	54.1992	98.983	54.1992	99.0592	54.1992	98.9626	54.1992	99.0888	54.1992	98.9438	54.1992	99.135	54.1992	98.9303	54.1992	99.1989	54.1992	98.9264	54.1992	99.2793	54.1992	98.9365	54.1992	99.3723	54.1992	98.9648	54.1992	99.4711	54.1992	99.0143	54.1992	99.5666	54.1992	99.0861	54.1992	99.6488	54.1992	99.1784	54.1992	99.708	54.1992	99.2862	54.1992	99.7362	54.1992	99.4014	54.1992	99.7292	54.1992	99.5137	54.1992	99.6865	54.1992	99.6121
55.6641	99.52	55.6641	99.5195	55.6641	99.5175	55.6641	99.5144	55.6641	99.5141	55.6641	99.5043	55.6641	99.5129	55.6641	99.4893	55.6641	99.5174	55.6641	99.4708	55.6641	99.5311	55.6641	99.4505	55.6641	99.5575	55.6641	99.4313	55.6641	99.5992	55.6641	99.4168	55.6641	99.6571	55.6641	99.4109	55.6641	99.7303	55.6641	99.418	55.6641	99.8152	55.6641	99.442	55.6641	99.9056	55.6641	99.4859	55.6641	99.9934	55.6641	99.5507	55.6641	100.069	55.6641	99.6349	55.6641	100.124	55.6641	99.7338	55.6641	100.15	55.6641	99.84	55.6641	100.144	55.6641	99.9439	55.6641	100.104	55.6641	100.035
58.5938	100.217	58.5938	100.21	58.5938	100.224	58.5938	100.201	58.5938	100.231	58.5938	100.191	58.5938	100.24	58.5938	100.18	58.5938	100.253	58.5938	100.168	58.5938	100.272	58.5938	100.157	58.5938	100.299	58.5938	100.149	58.5938	100.336	58.5938	100.145	58.5938	100.383	58.5938	100.149	58.5938	100.44	58.5938	100.162	58.5938	100.506	58.5938	100.188	58.5938	100.575	58.5938	100.229	58.5938	100.642	58.5938	100.284	58.5938	100.7	58.5938	100.353	58.5938	100.742	58.5938	100.432	58.5938	100.762	58.5938	100.517	58.5938	100.756	58.5938	100.599	58.5938	100.725	58.5938	100.671
60.0586	100.548	60.0586	100.542	60.0586	100.554	60.0586	100.535	60.0586	100.561	60.0586	100.528	60.0586	100.569	60.0586	100.519	60.0586	100.58	60.0586	100.51	60.0586	100.596	60.0586	100.501	60.0586	100.619	60.0586	100.494	60.0586	100.65	60.0586	100.49	60.0586	100.689	60.0586	100.491	60.0586	100.737	60.0586	100.499	60.0586	100.791	60.0586	100.518	60.0586	100.849	60.0586	100.548	60.0586	100.904	60.0586	100.591	60.0586	100.952	60.0586	100.647	60.0586	100.986	60.0586	100.713	60.0586	101.001	60.0586	100.784	60.0586	100.994	60.0586	100.854	60.0586	100.965	60.0586	100.917
62.9883	101.189	62.9883	101.181	62.9883	101.198	62.9883	101.173	62.9883	101.209	62.9883	101.165	62.9883	101.221	62.9883	101.158	62.9883	101.236	62.9883	101.15	62.9883	101.254	62.9883	101.143	62.9883	101.276	62.9883	101.138	62.9883	101.303	62.9883	101.136	62.9883	101.334	62.9883	101.138	62.9883	101.37	62.9883	101.145	62.9883	101.409	62.9883	101.159	62.9883	101.449	62.9883	101.182	62.9883	101.486	62.9883	101.214	62.9883	101.517	62.9883	101.256	62.9883	101.537	62.9883	101.305	62.9883	101.543	62.9883	101.359	62.9883	101.532	62.9883	101.414	62.9883	101.505	62.9883	101.465
64.4531	101.46	64.4531	101.449	64.4531	101.473	64.4531	101.439	64.4531	101.488	64.4531	101.431	64.4531	101.504	64.4531	101.424	64.4531	101.522	64.4531	101.419	64.4531	101.543	64.4531	101.416	64.4531	101.566	64.4531	101.415	64.4531	101.592	64.4531	101.417	64.4531	101.621	64.4531	101.422	64.4531	101.653	64.4531	101.432	64.4531	101.686	64.4531	101.448	64.4531	101.72	64.4531	101.471	64.4531	101.75	64.4531	101.501	64.4531	101.776	64.4531	101.538	64.4531	101.791	64.4531	101.582	64.4531	101.795	64.4531	101.63	64.4531	101.784	64.4531	101.679	64.4531	101.759	64.4531	101.723
67.3828	101.899	67.3828	101.884	67.3828	101.917	67.3828	101.872	67.3828	101.936	67.3828	101.864	67.3828	101.958	67.3828	101.859	67.3828	101.981	67.3828	101.858	67.3828	102.004	67.3828	101.86	67.3828	102.028	67.3828	101.865	67.3828	102.052	67.3828	101.873	67.3828	102.075	67.3828	101.884	67.3828	102.099	67.3828	101.899	67.3828	102.123	67.3828	101.916	67.3828	102.145	67.3828	101.937	67.3828	102.164	67.3828	101.963	67.3828	102.179	67.3828	101.992	67.3828	102.188	67.3828	102.026	67.3828	102.187	67.3828	102.062	67.3828	102.178	67.3828	102.097	67.3828	102.158	67.3828	102.131
68.8477	102.106	68.8477	102.089	68.8477	102.126	68.8477	102.077	68.8477	102.148	68.8477	102.068	68.8477	102.172	68.8477	102.064	68.8477	102.196	68.8477	102.064	68.8477	102.22	68.8477	102.067	68.8477	102.244	68.8477	102.074	68.8477	102.266	68.8477	102.083	68.8477	102.286	68.8477	102.095	68.8477	102.305	68.8477	102.108	68.8477	102.322	68.8477	102.124	68.8477	102.337	68.8477	102.142	68.8477	102.348	68.8477	102.163	68.8477	102.356	68.8477	102.186	68.8477	102.358	68.8477	102.213	68.8477	102.353	68.8477	102.241	68.8477	102.341	68.8477	102.27	68.8477	102.323	68.8477	102.298
71.7773	102.57	71.7773	102.551	71.7773	102.593	71.7773	102.537	71.7773	102.619	71.7773	102.529	71.7773	102.646	71.7773	102.526	71.7773	102.674	71.7773	102.529	71.7773	102.7	71.7773	102.535	71.7773	102.723	71.7773	102.545	71.7773	102.743	71.7773	102.558	71.7773	102.759	71.7773	102.572	71.7773	102.772	71.7773	102.586	71.7773	102.78	71.7773	102.601	71.7773	102.784	71.7773	102.616	71.7773	102.785	71.7773	102.631	71.7773	102.783	71.7773	102.646	71.7773	102.777	71.7773	102.663	71.7773	102.767	71.7773	102.681	71.7773	102.754	71.7773	102.7	71.7773	102.737	71.7773	102.719
74.707	102.92	74.707	102.898	74.707	102.946	74.707	102.883	74.707	102.975	74.707	102.874	74.707	103.006	74.707	102.871	74.707	103.037	74.707	102.874	74.707	103.065	74.707	102.883	74.707	103.09	74.707	102.895	74.707	103.11	74.707	102.909	74.707	103.124	74.707	102.925	74.707	103.132	74.707	102.94	74.707	103.134	74.707	102.955	74.707	103.131	74.707	102.968	74.707	103.124	74.707	102.979	74.707	103.113	74.707	102.99	74.707	103.1	74.707	103.001	74.707	103.086	74.707	103.012	74.707	103.07	74.707	103.025	74.707	103.054	74.707	103.039
77.6367	103.202	77.6367	103.178	77.6367	103.231	77.6367	103.162	77.6367	103.264	77.6367	103.154	77.6367	103.299	77.6367	103.153	77.6367	103.334	77.6367	103.159	77.6367	103.367	77.6367	103.172	77.6367	103.394	77.6367	103.189	77.6367	103.416	77.6367	103.209	77.6367	103.43	77.6367	103.229	77.6367	103.437	77.6367	103.249	77.6367	103.437	77.6367	103.267	77.6367	103.43	77.6367	103.281	77.6367	103.419	77.6367	103.293	77.6367	103.404	77.6367	103.302	77.6367	103.388	77.6367	103.309	77.6367	103.372	77.6367	103.315	77.6367	103.356	77.6367	103.323	77.6367	103.343	77.6367	103.332
79.1016	103.345	79.1016	103.322	79.1016	103.375	79.1016	103.305	79.1016	103.409	79.1016	103.297	79.1016	103.445	79.1016	103.298	79.1016	103.481	79.1016	103.305	79.1016	103.515	79.1016	103.319	79.1016	103.543	79.1016	103.338	79.1016	103.565	79.1016	103.359	79.1016	103.578	79.1016	103.381	79.1016	103.584	79.1016	103.401	79.1016	103.582	79.1016	103.419	79.1016	103.572	79.1016	103.433	79.1016	103.558	79.1016	103.443	79.1016	103.541	79.1016	103.45	79.1016	103.523	79.1016	103.454	79.1016	103.505	79.1016	103.457	79.1016	103.49	79.1016	103.462	79.1016	103.477	79.1016	103.468
82.0312	103.568	82.0312	103.543	82.0312	103.6	82.0312	103.525	82.0312	103.636	82.0312	103.517	82.0312	103.675	82.0312	103.517	82.0312	103.713	82.0312	103.525	82.0312	103.748	82.0312	103.541	82.0312	103.777	82.0312	103.56	82.0312	103.798	82.0312	103.583	82.0312	103.81	82.0312	103.605	82.0312	103.812	82.0312	103.626	82.0312	103.805	82.0312	103.643	82.0312	103.79	82.0312	103.655	82.0312	103.769	82.0312	103.661	82.0312	103.745	82.0312	103.663	82.0312	103.721	82.0312	103.662	82.0312	103.699	82.0312	103.66	82.0312	103.681	82.0312	103.659	82.0312	103.668	82.0312	103.661
84.9609	103.711	84.9609	103.684	84.9609	103.747	84.9609	103.666	84.9609	103.788	84.9609	103.659	84.9609	103.833	84.9609	103.662	84.9609	103.879	84.9609	103.674	84.9609	103.921	84.9609	103.694	84.9609	103.957	84.9609	103.72	84.9609	103.983	84.9609	103.748	84.9609	104	84.9609	103.777	84.9609	104.004	84.9609	103.803	84.9609	103.998	84.9609	103.825	84.9609	103.982	84.9609	103.841	84.9609	103.959	84.9609	103.85	84.9609	103.933	84.9609	103.854	84.9609	103.907	84.9609	103.853	84.9609	103.883	84.9609	103.85	84.9609	103.865	84.9609	103.847	84.9609	103.853	84.9609	103.848
87.8906	103.888	87.8906	103.855	87.8906	103.929	87.8906	103.831	87.8906	103.974	87.8906	103.819	87.8906	104.022	87.8906	103.816	87.8906	104.067	87.8906	103.824	87.8906	104.108	87.8906	103.84	87.8906	104.14	87.8906	103.863	87.8906	104.161	87.8906	103.888	87.8906	104.169	87.8906	103.914	87.8906	104.165	87.8906	103.938	87.8906	104.149	87.8906	103.958	87.8906	104.124	87.8906	103.971	87.8906	104.092	87.8906	103.977	87.8906	104.057	87.8906	103.977	87.8906	104.023	87.8906	103.972	87.8906	103.994	87.8906	103.964	87.8906	103.973	87.8906	103.958	87.8906	103.96	87.8906	103.956
90.8203	104.011	90.8203	103.979	90.8203	104.05	90.8203	103.956	90.8203	104.094	90.8203	103.943	90.8203	104.139	90.8203	103.941	90.8203	104.183	90.8203	103.949	90.8203	104.222	90.8203	103.964	90.8203	104.253	90.8203	103.986	90.8203	104.273	90.8203	104.01	90.8203	104.28	90.8203	104.035	90.8203	104.274	90.8203	104.057	90.8203	104.256	90.8203	104.074	90.8203	104.227	90.8203	104.084	90.8203	104.191	90.8203	104.087	90.8203	104.153	90.8203	104.083	90.8203	104.116	90.8203	104.074	90.8203	104.085	90.8203	104.063	90.8203	104.062	90.8203	104.053	90.8203	104.05	90.8203	104.048
95.2148	104.083	95.2148	104.047	95.2148	104.127	95.2148	104.021	95.2148	104.177	95.2148	104.006	95.2148	104.228	95.2148	104.004	95.2148	104.276	95.2148	104.012	95.2148	104.318	95.2148	104.03	95.2148	104.351	95.2148	104.056	95.2148	104.37	95.2148	104.085	95.2148	104.375	95.2148	104.114	95.2148	104.365	95.2148	104.141	95.2148	104.341	95.2148	104.161	95.2148	104.305	95.2148	104.173	95.2148	104.262	95.2148	104.176	95.2148	104.217	95.2148	104.169	95.2148	104.175	95.2148	104.156	95.2148	104.141	95.2148	104.139	95.2148	104.118	95.2148	104.122	95.2148	104.108	95.2148	104.11
98.1445	104.171	98.1445	104.134	98.1445	104.216	98.1445	104.107	98.1445	104.266	98.1445	104.091	98.1445	104.318	98.1445	104.088	98.1445	104.367	98.1445	104.096	98.1445	104.41	98.1445	104.113	98.1445	104.442	98.1445	104.137	98.1445	104.461	98.1445	104.165	98.1445	104.464	98.1445	104.193	98.1445	104.452	98.1445	104.217	98.1445	104.424	98.1445	104.235	98.1445	104.384	98.1445	104.244	98.1445	104.337	98.1445	104.243	98.1445	104.286	98.1445	104.233	98.1445	104.239	98.1445	104.216	98.1445	104.201	98.1445	104.196	98.1445	104.175	98.1445	104.177	98.1445	104.163	98.1445	104.165
101.074	104.167	101.074	104.129	101.074	104.212	101.074	104.102	101.074	104.262	101.074	104.087	101.074	104.314	101.074	104.083	101.074	104.362	101.074	104.09	101.074	104.404	101.074	104.107	101.074	104.436	101.074	104.131	101.074	104.454	101.074	104.16	101.074	104.458	101.074	104.188	101.074	104.445	101.074	104.214	101.074	104.417	101.074	104.233	101.074	104.377	101.074	104.243	101.074	104.329	101.074	104.243	101.074	104.279	101.074	104.234	101.074	104.232	101.074	104.217	101.074	104.194	101.074	104.197	101.074	104.17	101.074	104.177	101.074	104.16	101.074	104.163
105.469	104.059	105.469	104.02	105.469	104.106	105.469	103.989	105.469	104.155	105.469	103.968	105.469	104.206	105.469	103.959	105.469	104.253	105.469	103.962	105.469	104.293	105.469	103.974	105.469	104.322	105.469	103.994	105.469	104.338	105.469	104.02	105.469	104.336	105.469	104.046	105.469	104.318	105.469	104.069	105.469	104.282	105.469	104.085	105.469	104.233	105.469	104.092	105.469	104.175	105.469	104.088	105.469	104.113	105.469	104.073	105.469	104.057	105.469	104.049	105.469	104.011	105.469	104.021	105.469	103.982	105.469	103.995	105.469	103.97	105.469	103.976
108.398	104.113	108.398	104.082	108.398	104.153	108.398	104.061	108.398	104.199	108.398	104.051	108.398	104.247	108.398	104.053	108.398	104.294	108.398	104.066	108.398	104.335	108.398	104.087	108.398	104.366	108.398	104.115	108.398	104.384	108.398	104.145	108.398	104.385	108.398	104.173	108.398	104.368	108.398	104.196	108.398	104.333	108.398	104.208	108.398	104.283	108.398	104.209	108.398	104.223	108.398	104.195	108.398	104.16	108.398	104.169	108.398	104.102	108.398	104.134	108.398	104.056	108.398	104.095	108.398	104.027	108.398	104.058	108.398	104.019	108.398	104.031
112.793	104.183	112.793	104.142	112.793	104.232	112.793	104.111	112.793	104.285	112.793	104.092	112.793	104.339	112.793	104.085	112.793	104.39	112.793	104.089	112.793	104.433	112.793	104.104	112.793	104.463	112.793	104.127	112.793	104.478	112.793	104.154	112.793	104.475	112.793	104.182	112.793	104.452	112.793	104.206	112.793	104.411	112.793	104.222	112.793	104.355	112.793	104.227	112.793	104.29	112.793	104.22	112.793	104.223	112.793	104.201	112.793	104.162	112.793	104.173	112.793	104.114	112.793	104.14	112.793	104.084	112.793	104.108	112.793	104.075	112.793	104.084
117.188	104.098	117.188	104.052	117.188	104.149	117.188	104.015	117.188	104.203	117.188	103.99	117.188	104.256	117.188	103.976	117.188	104.303	117.188	103.974	117.188	104.339	117.188	103.982	117.188	104.361	117.188	103.999	117.188	104.365	117.188	104.021	117.188	104.35	117.188	104.045	117.188	104.313	117.188	104.064	117.188	104.259	117.188	104.076	117.188	104.191	117.188	104.078	117.188	104.114	117.188	104.066	117.188	104.038	117.188	104.042	117.188	103.971	117.188	104.007	117.188	103.92	117.188	103.967	117.188	103.89	117.188	103.928	117.188	103.884	117.188	103.898
120.117	104.071	120.117	104.029	120.117	104.119	120.117	103.996	120.117	104.17	120.117	103.973	120.117	104.219	120.117	103.961	120.117	104.262	120.117	103.96	120.117	104.294	120.117	103.969	120.117	104.312	120.117	103.985	120.117	104.312	120.117	104.005	120.117	104.293	120.117	104.025	120.117	104.254	120.117	104.04	120.117	104.197	120.117	104.047	120.117	104.127	120.117	104.043	120.117	104.049	120.117	104.027	120.117	103.973	120.117	103.998	120.117	103.906	120.117	103.959	120.117	103.857	120.117	103.916	120.117	103.829	120.117	103.874	120.117	103.825	120.117	103.841
124.512	104.117	124.512	104.077	124.512	104.162	124.512	104.046	124.512	104.21	124.512	104.025	124.512	104.256	124.512	104.015	124.512	104.295	124.512	104.015	124.512	104.323	124.512	104.024	124.512	104.336	124.512	104.038	124.512	104.331	124.512	104.054	124.512	104.305	124.512	104.068	124.512	104.257	124.512	104.075	124.512	104.19	124.512	104.071	124.512	104.109	124.512	104.055	124.512	104.019	124.512	104.024	124.512	103.93	124.512	103.98	124.512	103.852	124.512	103.927	124.512	103.794	124.512	103.87	124.512	103.761	124.512	103.817	124.512	103.756	124.512	103.776
128.906	104.025	128.906	103.982	128.906	104.073	128.906	103.948	128.906	104.124	128.906	103.923	128.906	104.173	128.906	103.911	128.906	104.217	128.906	103.909	128.906	104.25	128.906	103.918	128.906	104.27	128.906	103.934	128.906	104.272	128.906	103.954	128.906	104.254	128.906	103.973	128.906	104.215	128.906	103.987	128.906	104.155	128.906	103.99	128.906	104.079	128.906	103.981	128.906	103.993	128.906	103.957	128.906	103.906	128.906	103.92	128.906	103.828	128.906	103.872	128.906	103.768	128.906	103.821	128.906	103.731	128.906	103.773	128.906	103.721	128.906	103.737
133.301	103.885	133.301	103.841	133.301	103.936	133.301	103.806	133.301	103.99	133.301	103.783	133.301	104.043	133.301	103.773	133.301	104.092	133.301	103.776	133.301	104.131	133.301	103.791	133.301	104.157	133.301	103.815	133.301	104.165	133.301	103.844	133.301	104.152	133.301	103.873	133.301	104.117	133.301	103.897	133.301	104.062	133.301	103.91	133.301	103.99	133.301	103.909	133.301	103.908	133.301	103.892	133.301	103.825	133.301	103.859	133.301	103.75	133.301	103.814	133.301	103.693	133.301	103.763	133.301	103.661	133.301	103.713	133.301	103.656	133.301	103.675
139.16	103.758	139.16	103.716	139.16	103.807	139.16	103.682	139.16	103.86	139.16	103.66	139.16	103.912	139.16	103.65	139.16	103.96	139.16	103.654	139.16	103.999	139.16	103.67	139.16	104.026	139.16	103.695	139.16	104.035	139.16	103.726	139.16	104.024	139.16	103.756	139.16	103.991	139.16	103.782	139.16	103.937	139.16	103.796	139.16	103.866	139.16	103.796	139.16	103.785	139.16	103.779	139.16	103.703	139.16	103.746	139.16	103.629	139.16	103.699	139.16	103.572	139.16	103.647	139.16	103.541	139.16	103.596	139.16	103.536	139.16	103.556
143.555	103.723	143.555	103.675	143.555	103.776	143.555	103.634	143.555	103.831	143.555	103.604	143.555	103.883	143.555	103.585	143.555	103.929	143.555	103.578	143.555	103.964	143.555	103.582	143.555	103.983	143.555	103.594	143.555	103.983	143.555	103.613	143.555	103.96	143.555	103.632	143.555	103.915	143.555	103.647	143.555	103.848	143.555	103.654	143.555	103.765	143.555	103.648	143.555	103.673	143.555	103.628	143.555	103.58	143.555	103.593	143.555	103.499	143.555	103.547	143.555	103.436	143.555	103.496	143.555	103.4	143.555	103.447	143.555	103.392	143.555	103.409
147.949	103.693	147.949	103.642	147.949	103.745	147.949	103.597	147.949	103.797	147.949	103.559	147.949	103.844	147.949	103.53	147.949	103.883	147.949	103.51	147.949	103.909	147.949	103.5	147.949	103.917	147.949	103.497	147.949	103.905	147.949	103.5	147.949	103.869	147.949	103.504	147.949	103.811	147.949	103.506	147.949	103.731	147.949	103.501	147.949	103.636	147.949	103.486	147.949	103.531	147.949	103.458	147.949	103.428	147.949	103.418	147.949	103.337	147.949	103.368	147.949	103.268	147.949	103.315	147.949	103.226	147.949	103.265	147.949	103.213	147.949	103.229
153.809	103.516	153.809	103.465	153.809	103.567	153.809	103.417	153.809	103.615	153.809	103.374	153.809	103.657	153.809	103.339	153.809	103.69	153.809	103.314	153.809	103.711	153.809	103.299	153.809	103.716	153.809	103.294	153.809	103.704	153.809	103.298	153.809	103.671	153.809	103.306	153.809	103.617	153.809	103.314	153.809	103.544	153.809	103.317	153.809	103.457	153.809	103.312	153.809	103.361	153.809	103.295	153.809	103.268	153.809	103.265	153.809	103.186	153.809	103.224	153.809	103.124	153.809	103.177	153.809	103.088	153.809	103.132	153.809	103.08	153.809	103.097
159.668	103.455	159.668	103.411	159.668	103.501	159.668	103.371	159.668	103.546	159.668	103.337	159.668	103.587	159.668	103.311	159.668	103.621	159.668	103.294	159.668	103.644	159.668	103.285	159.668	103.651	159.668	103.284	159.668	103.64	159.668	103.286	159.668	103.606	159.668	103.288	159.668	103.549	159.668	103.285	159.668	103.47	159.668	103.273	159.668	103.375	159.668	103.248	159.668	103.27	159.668	103.211	159.668	103.166	159.668	103.163	159.668	103.075	159.668	103.107	159.668	103.004	159.668	103.049	159.668	102.961	159.668	102.998	159.668	102.947	159.668	102.961
165.527	103.516	165.527	103.479	165.527	103.555	165.527	103.446	165.527	103.594	165.527	103.421	165.527	103.63	165.527	103.404	165.527	103.661	165.527	103.399	165.527	103.682	165.527	103.403	165.527	103.691	165.527	103.415	165.527	103.682	165.527	103.431	165.527	103.654	165.527	103.445	165.527	103.603	165.527	103.452	165.527	103.53	165.527	103.445	165.527	103.44	165.527	103.421	165.527	103.339	165.527	103.378	165.527	103.238	165.527	103.32	165.527	103.149	165.527	103.25	165.527	103.08	165.527	103.176	165.527	103.041	165.527	103.11	165.527	103.035	165.527	103.06
171.387	103.353	171.387	103.311	171.387	103.394	171.387	103.27	171.387	103.432	171.387	103.235	171.387	103.464	171.387	103.207	171.387	103.489	171.387	103.19	171.387	103.505	171.387	103.185	171.387	103.507	171.387	103.191	171.387	103.495	171.387	103.205	171.387	103.463	171.387	103.222	171.387	103.412	171.387	103.236	171.387	103.343	171.387	103.24	171.387	103.258	171.387	103.229	171.387	103.166	171.387	103.202	171.387	103.076	171.387	103.158	171.387	102.997	171.387	103.102	171.387	102.94	171.387	103.04	171.387	102.909	171.387	102.981	171.387	102.908	171.387	102.934
177.246	103.212	177.246	103.162	177.246	103.261	177.246	103.114	177.246	103.306	177.246	103.072	177.246	103.347	177.246	103.038	177.246	103.38	177.246	103.016	177.246	103.403	177.246	103.008	177.246	103.411	177.246	103.013	177.246	103.402	177.246	103.028	177.246	103.372	177.246	103.049	177.246	103.319	177.246	103.067	177.246	103.245	177.246	103.077	177.246	103.153	177.246	103.073	177.246	103.052	177.246	103.051	177.246	102.953	177.246	103.011	177.246	102.867	177.246	102.957	177.246	102.803	177.246	102.895	177.246	102.768	177.246	102.836	177.246	102.765	177.246	102.79
183.105	103.058	183.105	103.013	183.105	103.1	183.105	102.967	183.105	103.138	183.105	102.923	183.105	103.171	183.105	102.883	183.105	103.198	183.105	102.851	183.105	103.216	183.105	102.828	183.105	103.223	183.105	102.816	183.105	103.215	183.105	102.814	183.105	103.187	183.105	102.817	183.105	103.138	183.105	102.821	183.105	103.069	183.105	102.821	183.105	102.981	183.105	102.812	183.105	102.884	183.105	102.79	183.105	102.785	183.105	102.755	183.105	102.696	183.105	102.709	183.105	102.627	183.105	102.66	183.105	102.583	183.105	102.614	183.105	102.568	183.105	102.58
188.965	103.007	188.965	102.969	188.965	103.036	188.965	102.925	188.965	103.056	188.965	102.878	188.965	103.067	188.965	102.831	188.965	103.069	188.965	102.787	188.965	103.062	188.965	102.75	188.965	103.045	188.965	102.722	188.965	103.018	188.965	102.701	188.965	102.977	188.965	102.687	188.965	102.922	188.965	102.674	188.965	102.852	188.965	102.66	188.965	102.77	188.965	102.639	188.965	102.68	188.965	102.608	188.965	102.591	188.965	102.568	188.965	102.51	188.965	102.52	188.965	102.446	188.965	102.471	188.965	102.404	188.965	102.427	188.965	102.388	188.965	102.397
196.289	103.064	196.289	103.024	196.289	103.095	196.289	102.979	196.289	103.117	196.289	102.93	196.289	103.128	196.289	102.88	196.289	103.125	196.289	102.833	196.289	103.108	196.289	102.79	196.289	103.074	196.289	102.753	196.289	103.021	196.289	102.721	196.289	102.948	196.289	102.692	196.289	102.857	196.289	102.664	196.289	102.751	196.289	102.633	196.289	102.637	196.289	102.595	196.289	102.524	196.289	102.549	196.289	102.422	196.289	102.495	196.289	102.34	196.289	102.436	196.289	102.284	196.289	102.375	196.289	102.255	196.289	102.32	196.289	102.254	196.289	102.277
203.613	103.001	203.613	102.967	203.613	103.024	203.613	102.925	203.613	103.037	203.613	102.874	203.613	103.04	203.613	102.819	203.613	103.032	203.613	102.762	203.613	103.013	203.613	102.708	203.613	102.98	203.613	102.658	203.613	102.93	203.613	102.615	203.613	102.86	203.613	102.578	203.613	102.769	203.613	102.545	203.613	102.661	203.613	102.513	203.613	102.541	203.613	102.478	203.613	102.42	203.613	102.436	203.613	102.31	203.613	102.387	203.613	102.222	203.613	102.332	203.613	102.164	203.613	102.273	203.613	102.137	203.613	102.216	203.613	102.141	203.613	102.17
210.938	102.944	210.938	102.89	210.938	102.99	210.938	102.829	210.938	103.025	210.938	102.765	210.938	103.047	210.938	102.702	210.938	103.055	210.938	102.643	210.938	103.048	210.938	102.591	210.938	103.021	210.938	102.548	210.938	102.974	210.938	102.512	210.938	102.903	210.938	102.48	210.938	102.808	210.938	102.449	210.938	102.692	210.938	102.414	210.938	102.56	210.938	102.374	210.938	102.424	210.938	102.326	210.938	102.296	210.938	102.271	210.938	102.187	210.938	102.213	210.938	102.108	210.938	102.155	210.938	102.063	210.938	102.104	210.938	102.051	210.938	102.067
218.262	102.757	218.262	102.707	218.262	102.799	218.262	102.652	218.262	102.834	218.262	102.596	218.262	102.858	218.262	102.544	218.262	102.872	218.262	102.499	218.262	102.874	218.262	102.464	218.262	102.86	218.262	102.441	218.262	102.828	218.262	102.427	218.262	102.775	218.262	102.419	218.262	102.7	218.262	102.409	218.262	102.606	218.262	102.392	218.262	102.498	218.262	102.365	218.262	102.386	218.262	102.326	218.262	102.28	218.262	102.277	218.262	102.19	218.262	102.222	218.262	102.124	218.262	102.168	218.262	102.085	218.262	102.121	218.262	102.074	218.262	102.087
225.586	102.78	225.586	102.74	225.586	102.808	225.586	102.689	225.586	102.822	225.586	102.632	225.586	102.825	225.586	102.575	225.586	102.816	225.586	102.523	225.586	102.797	225.586	102.482	225.586	102.766	225.586	102.451	225.586	102.719	225.586	102.429	225.586	102.652	225.586	102.411	225.586	102.565	225.586	102.391	225.586	102.459	225.586	102.363	225.586	102.34	225.586	102.323	225.586	102.22	225.586	102.271	225.586	102.112	225.586	102.209	225.586	102.027	225.586	102.143	225.586	101.972	225.586	102.079	225.586	101.948	225.586	102.022	225.586	101.952	225.586	101.978
232.91	102.709	232.91	102.682	232.91	102.716	232.91	102.638	232.91	102.706	232.91	102.583	232.91	102.681	232.91	102.525	232.91	102.647	232.91	102.471	232.91	102.606	232.91	102.429	232.91	102.56	232.91	102.399	232.91	102.506	232.91	102.379	232.91	102.438	232.91	102.362	232.91	102.353	232.91	102.339	232.91	102.248	232.91	102.3	232.91	102.127	232.91	102.242	232.91	101.999	232.91	102.163	232.91	101.879	232.91	102.069	232.91	101.781	232.91	101.968	232.91	101.714	232.91	101.871	232.91	101.684	232.91	101.788	232.91	101.689	232.91	101.725
241.699	102.722	241.699	102.694	241.699	102.732	241.699	102.648	241.699	102.724	241.699	102.591	241.699	102.7	241.699	102.53	241.699	102.663	241.699	102.47	241.699	102.618	241.699	102.418	241.699	102.564	241.699	102.377	241.699	102.5	241.699	102.346	241.699	102.423	241.699	102.319	241.699	102.327	241.699	102.288	241.699	102.211	241.699	102.245	241.699	102.077	241.699	102.182	241.699	101.933	241.699	102.097	241.699	101.794	241.699	101.992	241.699	101.674	241.699	101.877	241.699	101.587	241.699	101.762	241.699	101.542	241.699	101.66	241.699	101.542	241.699	101.583
250.488	102.762	250.488	102.721	250.488	102.778	250.488	102.657	250.488	102.768	250.488	102.577	250.488	102.734	250.488	102.489	250.488	102.68	250.488	102.4	250.488	102.612	250.488	102.317	250.488	102.531	250.488	102.243	250.488	102.438	250.488	102.178	250.488	102.335	250.488	102.117	250.488	102.218	250.488	102.054	250.488	102.088	250.488	101.984	250.488	101.948	250.488	101.902	250.488	101.807	250.488	101.81	250.488	101.673	250.488	101.713	250.488	101.558	250.488	101.616	250.488	101.471	250.488	101.53	250.488	101.419	250.488	101.462	250.488	101.401	250.488	101.417
259.277	103.037	259.277	103.016	259.277	103.033	259.277	102.977	259.277	103.004	259.277	102.926	259.277	102.952	259.277	102.872	259.277	102.884	259.277	102.824	259.277	102.803	259.277	102.784	259.277	102.713	259.277	102.752	259.277	102.616	259.277	102.721	259.277	102.507	259.277	102.68	259.277	102.384	259.277	102.616	259.277	102.244	259.277	102.518	259.277	102.091	259.277	102.382	259.277	101.932	259.277	102.215	259.277	101.778	259.277	102.028	259.277	101.643	259.277	101.844	259.277	101.539	259.277	101.681	259.277	101.473	259.277	101.556	259.277	101.452	259.277	101.479
268.066	102.796	268.066	102.755	268.066	102.809	268.066	102.69	268.066	102.796	268.066	102.606	268.066	102.76	268.066	102.511	268.066	102.708	268.066	102.415	268.066	102.645	268.066	102.326	268.066	102.573	268.066	102.251	268.066	102.493	268.066	102.19	268.066	102.402	268.066	102.138	268.066	102.296	268.066	102.086	268.066	102.172	268.066	102.025	268.066	102.033	268.066	101.947	268.066	101.885	268.066	101.85	268.066	101.74	268.066	101.741	268.066	101.609	268.066	101.628	268.066	101.505	268.066	101.527	268.066	101.433	268.066	101.45	268.066	101.4	268.066	101.406
276.855	102.659	276.855	102.634	276.855	102.661	276.855	102.589	276.855	102.642	276.855	102.527	276.855	102.604	276.855	102.453	276.855	102.555	276.855	102.371	276.855	102.498	276.855	102.282	276.855	102.435	276.855	102.187	276.855	102.365	276.855	102.085	276.855	102.28	276.855	101.975	276.855	102.174	276.855	101.857	276.855	102.04	276.855	101.73	276.855	101.882	276.855	101.595	276.855	101.706	276.855	101.457	276.855	101.529	276.855	101.322	276.855	101.365	276.855	101.202	276.855	101.227	276.855	101.108	276.855	101.123	276.855	101.05	276.855	101.058	276.855	101.033
287.109	103.057	287.109	103.027	287.109	103.047	287.109	102.958	287.109	102.997	287.109	102.859	287.109	102.91	287.109	102.738	287.109	102.794	287.109	102.608	287.109	102.66	287.109	102.48	287.109	102.518	287.109	102.363	287.109	102.379	287.109	102.258	287.109	102.252	287.109	102.163	287.109	102.139	287.109	102.071	287.109	102.038	287.109	101.973	287.109	101.944	287.109	101.865	287.109	101.848	287.109	101.747	287.109	101.745	287.109	101.626	287.109	101.638	287.109	101.514	287.109	101.533	287.109	101.423	287.109	101.442	287.109	101.367	287.109	101.379	287.109	101.352
297.363	103.055	297.363	103.055	297.363	103.008	297.363	103.008	297.363	102.921	297.363	102.923	297.363	102.805	297.363	102.811	297.363	102.672	297.363	102.689	297.363	102.527	297.363	102.571	297.363	102.371	297.363	102.464	297.363	102.199	297.363	102.366	297.363	102.007	297.363	102.27	297.363	101.797	297.363	102.163	297.363	101.589	297.363	102.037	297.363	101.408	297.363	101.893	297.363	101.279	297.363	101.74	297.363	101.212	297.363	101.594	297.363	101.195	297.363	101.471	297.363	101.209	297.363	101.38	297.363	101.233	297.363	101.32	297.363	101.258	297.363	101.283
307.617	102.834	307.617	102.771	307.617	102.854	307.617	102.674	307.617	102.83	307.617	102.553	307.617	102.765	307.617	102.423	307.617	102.67	307.617	102.3	307.617	102.558	307.617	102.2	307.617	102.444	307.617	102.133	307.617	102.332	307.617	102.101	307.617	102.217	307.617	102.095	307.617	102.085	307.617	102.093	307.617	101.925	307.617	102.07	307.617	101.732	307.617	102.006	307.617	101.523	307.617	101.894	307.617	101.326	307.617	101.744	307.617	101.175	307.617	101.575	307.617	101.088	307.617	101.414	307.617	101.067	307.617	101.276	307.617	101.098	307.617	101.17
319.336	102.984	319.336	102.949	319.336	102.972	319.336	102.875	319.336	102.914	319.336	102.771	319.336	102.814	319.336	102.651	319.336	102.68	319.336	102.531	319.336	102.527	319.336	102.426	319.336	102.367	319.336	102.344	319.336	102.211	319.336	102.288	319.336	102.064	319.336	102.246	319.336	101.926	319.336	102.199	319.336	101.792	319.336	102.127	319.336	101.657	319.336	102.014	319.336	101.519	319.336	101.857	319.336	101.382	319.336	101.669	319.336	101.257	319.336	101.473	319.336	101.156	319.336	101.298	319.336	101.09	319.336	101.167	319.336	101.066	319.336	101.09
329.59	102.871	329.59	102.83	329.59	102.865	329.59	102.747	329.59	102.812	329.59	102.631	329.59	102.713	329.59	102.491	329.59	102.578	329.59	102.342	329.59	102.419	329.59	102.198	329.59	102.247	329.59	102.072	329.59	102.072	329.59	101.972	329.59	101.897	329.59	101.896	329.59	101.723	329.59	101.833	329.59	101.549	329.59	101.761	329.59	101.376	329.59	101.662	329.59	101.211	329.59	101.527	329.59	101.06	329.59	101.358	329.59	100.933	329.59	101.175	329.59	100.837	329.59	101.004	329.59	100.778	329.59	100.87	329.59	100.759	329.59	100.788
341.309	103.036	341.309	102.984	341.309	103.028	341.309	102.877	341.309	102.962	341.309	102.728	341.309	102.843	341.309	102.554	341.309	102.683	341.309	102.378	341.309	102.492	341.309	102.22	341.309	102.281	341.309	102.094	341.309	102.059	341.309	101.999	341.309	101.832	341.309	101.924	341.309	101.607	341.309	101.851	341.309	101.392	341.309	101.757	341.309	101.195	341.309	101.629	341.309	101.027	341.309	101.466	341.309	100.896	341.309	101.28	341.309	100.802	341.309	101.094	341.309	100.743	341.309	100.932	341.309	100.713	341.309	100.813	341.309	100.712	341.309	100.742
353.027	103.171	353.027	103.095	353.027	103.168	353.027	102.95	353.027	103.084	353.027	102.753	353.027	102.921	353.027	102.523	353.027	102.693	353.027	102.287	353.027	102.423	353.027	102.073	353.027	102.139	353.027	101.906	353.027	101.871	353.027	101.799	353.027	101.645	353.027	101.744	353.027	101.47	353.027	101.712	353.027	101.34	353.027	101.664	353.027	101.238	353.027	101.569	353.027	101.143	353.027	101.413	353.027	101.038	353.027	101.211	353.027	100.922	353.027	100.996	353.027	100.806	353.027	100.809	353.027	100.707	353.027	100.683	353.027	100.643	353.027	100.63
366.211	103.339	366.211	103.334	366.211	103.297	366.211	103.283	366.211	103.211	366.211	103.182	366.211	103.081	366.211	103.031	366.211	102.907	366.211	102.833	366.211	102.691	366.211	102.596	366.211	102.436	366.211	102.334	366.211	102.143	366.211	102.065	366.211	101.819	366.211	101.808	366.211	101.472	366.211	101.572	366.211	101.123	366.211	101.352	366.211	100.795	366.211	101.131	366.211	100.511	366.211	100.89	366.211	100.281	366.211	100.621	366.211	100.101	366.211	100.338	366.211	99.9587	366.211	100.077	366.211	99.8489	366.211	99.8834	366.211	99.7824	366.211	99.7856
379.395	103.436	379.395	103.374	379.395	103.429	379.395	103.252	379.395	103.349	379.395	103.087	379.395	103.198	379.395	102.9	379.395	102.985	379.395	102.713	379.395	102.722	379.395	102.545	379.395	102.422	379.395	102.406	379.395	102.098	379.395	102.292	379.395	101.759	379.395	102.185	379.395	101.421	379.395	102.062	379.395	101.107	379.395	101.905	379.395	100.845	379.395	101.712	379.395	100.656	379.395	101.493	379.395	100.545	379.395	101.269	379.395	100.501	379.395	101.061	379.395	100.504	379.395	100.886	379.395	100.535	379.395	100.752	379.395	100.585	379.395	100.655
392.578	103.174	392.578	103.077	392.578	103.206	392.578	102.927	392.578	103.168	392.578	102.739	392.578	103.06	392.578	102.535	392.578	102.89	392.578	102.336	392.578	102.677	392.578	102.163	392.578	102.442	392.578	102.03	392.578	102.201	392.578	101.941	392.578	101.956	392.578	101.883	392.578	101.701	392.578	101.835	392.578	101.431	392.578	101.767	392.578	101.152	392.578	101.656	392.578	100.886	392.578	101.49	392.578	100.662	392.578	101.277	392.578	100.507	392.578	101.045	392.578	100.428	392.578	100.829	392.578	100.416	392.578	100.655	392.578	100.453	392.578	100.532
405.762	103.148	405.762	103.12	405.762	103.097	405.762	103.014	405.762	102.97	405.762	102.836	405.762	102.78	405.762	102.597	405.762	102.547	405.762	102.318	405.762	102.3	405.762	102.033	405.762	102.058	405.762	101.784	405.762	101.831	405.762	101.604	405.762	101.611	405.762	101.501	405.762	101.388	405.762	101.448	405.762	101.151	405.762	101.393	405.762	100.903	405.762	101.287	405.762	100.656	405.762	101.1	405.762	100.424	405.762	100.838	405.762	100.222	405.762	100.536	405.762	100.06	405.762	100.254	405.762	99.9478	405.762	100.041	405.762	99.897	405.762	99.9229
420.41	103.604	420.41	103.542	420.41	103.567	420.41	103.381	420.41	103.435	420.41	103.128	420.41	103.216	420.41	102.798	420.41	102.924	420.41	102.423	420.41	102.575	420.41	102.057	420.41	102.19	420.41	101.763	420.41	101.788	420.41	101.599	420.41	101.393	420.41	101.581	420.41	101.031	420.41	101.667	420.41	100.726	420.41	101.773	420.41	100.487	420.41	101.805	420.41	100.308	420.41	101.695	420.41	100.165	420.41	101.422	420.41	100.039	420.41	101.02	420.41	99.9252	420.41	100.571	420.41	99.8399	420.41	100.178	420.41	99.822	420.41	99.9229
435.059	103.171	435.059	103.057	435.059	103.187	435.059	102.848	435.059	103.104	435.059	102.561	435.059	102.935	435.059	102.221	435.059	102.697	435.059	101.865	435.059	102.416	435.059	101.536	435.059	102.119	435.059	101.278	435.059	101.828	435.059	101.122	435.059	101.552	435.059	101.081	435.059	101.294	435.059	101.14	435.059	101.057	435.059	101.255	435.059	100.85	435.059	101.367	435.059	100.678	435.059	101.413	435.059	100.542	435.059	101.354	435.059	100.434	435.059	101.182	435.059	100.352	435.059	100.933	435.059	100.31	435.059	100.668	435.059	100.336	435.059	100.455
451.172	103.866	451.172	103.704	451.172	103.897	451.172	103.415	451.172	103.791	451.172	103.008	451.172	103.547	451.172	102.504	451.172	103.175	451.172	101.939	451.172	102.701	451.172	101.372	451.172	102.168	451.172	100.869	451.172	101.632	451.172	100.49	451.172	101.15	451.172	100.275	451.172	100.776	451.172	100.232	451.172	100.549	451.172	100.333	451.172	100.471	451.172	100.523	451.172	100.507	451.172	100.732	451.172	100.602	451.172	100.904	451.172	100.708	451.172	101.008	451.172	100.798	451.172	101.041	451.172	100.871	451.172	101.025	451.172	100.93	451.172	100.983
465.82	104.431	465.82	104.307	465.82	104.421	465.82	104.06	465.82	104.274	465.82	103.708	465.82	104	465.82	103.278	465.82	103.622	465.82	102.804	465.82	103.169	465.82	102.326	465.82	102.669	465.82	101.885	465.82	102.138	465.82	101.512	465.82	101.595	465.82	101.219	465.82	101.078	465.82	101.002	465.82	100.664	465.82	100.853	465.82	100.448	465.82	100.764	465.82	100.469	465.82	100.728	465.82	100.658	465.82	100.735	465.82	100.886	465.82	100.775	465.82	101.049	465.82	100.837	465.82	101.108	465.82	100.917	465.82	101.08	465.82	101.004
483.398	104.475	483.398	104.276	483.398	104.562	483.398	103.967	483.398	104.529	483.398	103.547	483.398	104.362	483.398	103.025	483.398	104.055	483.398	102.435	483.398	103.618	483.398	101.842	483.398	103.076	483.398	101.332	483.398	102.465	483.398	100.979	483.398	101.825	483.398	100.798	483.398	101.204	483.398	100.745	483.398	100.68	483.398	100.748	483.398	100.352	483.398	100.749	483.398	100.283	483.398	100.721	483.398	100.431	483.398	100.671	483.398	100.672	483.398	100.632	483.398	100.879	483.398	100.646	483.398	100.978	483.398	100.728	483.398	100.957	483.398	100.852
499.512	104.085	499.512	103.99	499.512	104.07	499.512	103.786	499.512	103.951	499.512	103.468	499.512	103.737	499.512	103.029	499.512	103.443	499.512	102.463	499.512	103.08	499.512	101.786	499.512	102.649	499.512	101.068	499.512	102.14	499.512	100.439	499.512	101.543	499.512	100.054	499.512	100.873	499.512	99.9766	499.512	100.199	499.512	100.127	499.512	99.6601	499.512	100.352	499.512	99.4212	499.512	100.519	499.512	99.5442	499.512	100.578	499.512	99.9072	499.512	100.554	499.512	100.299	499.512	100.52	499.512	100.563	499.512	100.54	499.512	100.651	499.512	100.611
517.09	104.518	517.09	104.308	517.09	104.643	517.09	104.023	517.09	104.665	517.09	103.669	517.09	104.565	517.09	103.254	517.09	104.329	517.09	102.791	517.09	103.952	517.09	102.301	517.09	103.441	517.09	101.81	517.09	102.808	517.09	101.344	517.09	102.074	517.09	100.936	517.09	101.284	517.09	100.637	517.09	100.543	517.09	100.496	517.09	100.01	517.09	100.507	517.09	99.8131	517.09	100.574	517.09	99.926	517.09	100.599	517.09	100.188	517.09	100.56	517.09	100.434	517.09	100.508	517.09	100.576	517.09	100.504	517.09	100.603	517.09	100.555
536.133	103.858	536.133	103.671	536.133	103.949	536.133	103.379	536.133	103.946	536.133	102.969	536.133	103.841	536.133	102.449	536.133	103.634	536.133	101.87	536.133	103.338	536.133	101.315	536.133	102.97	536.133	100.875	536.133	102.534	536.133	100.596	536.133	102.004	536.133	100.468	536.133	101.342	536.133	100.444	536.133	100.558	536.133	100.466	536.133	99.7891	536.133	100.479	536.133	99.3015	536.133	100.433	536.133	99.2855	536.133	100.304	536.133	99.6134	536.133	100.119	536.133	99.9809	536.133	99.9647	536.133	100.181	536.133	99.937	536.133	100.173	536.133	100.043
555.176	104.372	555.176	104.173	555.176	104.406	555.176	103.803	555.176	104.29	555.176	103.262	555.176	104.053	555.176	102.581	555.176	103.737	555.176	101.834	555.176	103.384	555.176	101.136	555.176	103.009	555.176	100.579	555.176	102.585	555.176	100.185	555.176	102.051	555.176	99.914	555.176	101.367	555.176	99.7305	555.176	100.575	555.176	99.6379	555.176	99.8263	555.176	99.6388	555.176	99.3319	555.176	99.6861	555.176	99.1976	555.176	99.7044	555.176	99.3301	555.176	99.6562	555.176	99.538	555.176	99.5796	555.176	99.6719	555.176	99.5533	555.176	99.6801	555.176	99.6079
574.219	104.483	574.219	104.305	574.219	104.553	574.219	104.003	574.219	104.515	574.219	103.558	574.219	104.363	574.219	102.975	574.219	104.101	574.219	102.306	574.219	103.755	574.219	101.647	574.219	103.352	574.219	101.109	574.219	102.885	574.219	100.755	574.219	102.305	574.219	100.528	574.219	101.556	574.219	100.29	574.219	100.635	574.219	99.9463	574.219	99.6445	574.219	99.503	574.219	98.8045	574.219	99.0308	574.219	98.3348	574.219	98.5906	574.219	98.2466	574.219	98.2095	574.219	98.3282	574.219	97.9316	574.219	98.3486	574.219	97.8459	574.219	98.2091	574.219	97.9811
594.727	104.284	594.727	104.061	594.727	104.431	594.727	103.768	594.727	104.471	594.727	103.399	594.727	104.366	594.727	102.957	594.727	104.102	594.727	102.467	594.727	103.707	594.727	101.961	594.727	103.24	594.727	101.464	594.727	102.73	594.727	101.05	594.727	102.149	594.727	100.839	594.727	101.426	594.727	100.857	594.727	100.519	594.727	100.939	594.727	99.4997	594.727	100.882	594.727	98.6208	594.727	100.595	594.727	98.197	594.727	100.126	594.727	98.2559	594.727	99.6119	594.727	98.4989	594.727	99.187	594.727	98.6743	594.727	98.9141	594.727	98.741	594.727	98.7862
615.234	104.098	615.234	103.88	615.234	104.17	615.234	103.494	615.234	104.126	615.234	102.942	615.234	103.994	615.234	102.271	615.234	103.799	615.234	101.582	615.234	103.564	615.234	101.012	615.234	103.295	615.234	100.691	615.234	102.951	615.234	100.659	615.234	102.438	615.234	100.805	615.234	101.666	615.234	100.953	615.234	100.618	615.234	100.982	615.234	99.4077	615.234	100.829	615.234	98.326	615.234	100.447	615.234	97.7431	615.234	99.8126	615.234	97.7465	615.234	99.0103	615.234	98.0108	615.234	98.28	615.234	98.1774	615.234	97.9056	615.234	98.1157	615.234	97.933
637.207	104.144	637.207	103.843	637.207	104.297	637.207	103.394	637.207	104.317	637.207	102.806	637.207	104.227	637.207	102.11	637.207	104.064	637.207	101.36	637.207	103.842	637.207	100.631	637.207	103.53	637.207	100.066	637.207	103.069	637.207	99.8598	637.207	102.432	637.207	100.031	637.207	101.62	637.207	100.31	637.207	100.59	637.207	100.443	637.207	99.2508	637.207	100.344	637.207	97.6798	637.207	99.9945	637.207	96.5049	637.207	99.3786	637.207	96.4413	637.207	98.529	637.207	96.9886	637.207	97.6276	637.207	97.3206	637.207	97.0388	637.207	97.2395	637.207	96.9945
659.18	103.956	659.18	103.724	659.18	104.081	659.18	103.335	659.18	104.131	659.18	102.743	659.18	104.124	659.18	101.95	659.18	104.088	659.18	101.062	659.18	104.063	659.18	100.236	659.18	104.047	659.18	99.5557	659.18	103.941	659.18	99.0901	659.18	103.58	659.18	99.0998	659.18	102.811	659.18	99.7663	659.18	101.54	659.18	100.71	659.18	99.7444	659.18	101.345	659.18	97.589	659.18	101.309	659.18	95.7211	659.18	100.485	659.18	95.0367	659.18	98.949	659.18	95.2932	659.18	97.0118	659.18	95.5109	659.18	95.4079	659.18	95.2802	659.18	94.9414
682.617	103.69	682.617	103.393	682.617	103.761	682.617	102.829	682.617	103.67	682.617	101.983	682.617	103.523	682.617	100.899	682.617	103.46	682.617	99.6952	682.617	103.588	682.617	98.5508	682.617	103.9	682.617	97.7769	682.617	104.234	682.617	97.823	682.617	104.325	682.617	98.7356	682.617	103.914	682.617	100.059	682.617	102.805	682.617	101.335	682.617	100.881	682.617	102.196	682.617	98.0873	682.617	102.356	682.617	94.5825	682.617	101.653	682.617	91.2757	682.617	100.037	682.617	89.7201	682.617	97.5316	682.617	89.6258	682.617	94.3373	682.617	89.9424	682.617	91.3486
707.52	104.545	707.52	104.436	707.52	104.247	707.52	103.933	707.52	103.564	707.52	103.117	707.52	102.611	707.52	102.124	707.52	101.832	707.52	100.977	707.52	102.022	707.52	99.4267	707.52	103.232	707.52	97.1578	707.52	104.56	707.52	94.8505	707.52	105.406	707.52	95.6029	707.52	105.669	707.52	98.5165	707.52	105.423	707.52	101.055	707.52	104.686	707.52	102.928	707.52	103.351	707.52	104.146	707.52	101.286	707.52	104.607	707.52	98.5862	707.52	104.197	707.52	95.953	707.52	102.885	707.52	94.7704	707.52	100.771	707.52	95.792	707.52	98.1758
732.422	104.875	732.422	104.756	732.422	104.802	732.422	104.601	732.422	104.377	732.422	104.522	732.422	103.468	732.422	104.5	732.422	102.003	732.422	104.301	732.422	100.095	732.422	103.512	732.422	98.6657	732.422	101.599	732.422	99.5347	732.422	97.7968	732.422	101.781	732.422	90.674	732.422	103.615	732.422	89.887	732.422	104.694	732.422	96.2132	732.422	105.116	732.422	99.8637	732.422	104.939	732.422	102.177	732.422	104.264	732.422	103.597	732.422	103.419	732.422	104.318	732.422	102.863	732.422	104.483	732.422	102.817	732.422	104.229	732.422	103.178	732.422	103.724
757.324	104.919	757.324	104.502	757.324	105.09	757.324	104.043	757.324	104.861	757.324	103.736	757.324	104.166	757.324	103.677	757.324	103.018	757.324	103.744	757.324	101.503	757.324	103.531	757.324	99.9676	757.324	102.482	757.324	99.238	757.324	100.062	757.324	99.6811	757.324	95.722	757.324	100.641	757.324	88.4779	757.324	101.586	757.324	89.8608	757.324	102.307	757.324	96.2877	757.324	102.71	757.324	99.8896	757.324	102.804	757.324	101.876	757.324	102.656	757.324	102.748	757.324	102.349	757.324	102.828	757.324	102.018	757.324	102.459	757.324	101.862	757.324	102.033
785.156	104.453	785.156	103.957	785.156	104.719	785.156	103.36	785.156	104.708	785.156	102.837	785.156	104.43	785.156	102.5	785.156	103.865	785.156	102.314	785.156	102.915	785.156	102.179	785.156	101.574	785.156	101.914	785.156	100.311	785.156	101.114	785.156	99.9176	785.156	99.3526	785.156	100.335	785.156	96.3453	785.156	100.868	785.156	92.9882	785.156	101.108	785.156	94.3981	785.156	100.944	785.156	97.712	785.156	100.507	785.156	100.031	785.156	100.054	785.156	101.424	785.156	99.6658	785.156	101.883	785.156	99.3664	785.156	101.428	785.156	99.5284	785.156	100.397
811.523	103.084	811.523	103.116	811.523	103.538	811.523	103.465	811.523	104.226	811.523	103.776	811.523	104.746	811.523	103.86	811.523	104.795	811.523	103.689	811.523	104.08	811.523	103.155	811.523	102.262	811.523	102.019	811.523	99.3409	811.523	100.362	811.523	96.9266	811.523	98.6777	811.523	97.354	811.523	97.1636	811.523	98.9092	811.523	96.13	811.523	99.9173	811.523	97.1276	811.523	100.072	811.523	99.1125	811.523	99.7347	811.523	100.206	811.523	99.8661	811.523	100.356	811.523	100.657	811.523	100.172	811.523	101.13	811.523	100.144	811.523	100.916	811.523	100.426
840.82	104.017	840.82	103.819	840.82	103.961	840.82	103.445	840.82	103.797	840.82	103.101	840.82	103.703	840.82	102.794	840.82	103.699	840.82	102.236	840.82	103.658	840.82	101.226	840.82	103.405	840.82	100.016	840.82	102.83	840.82	98.791	840.82	101.922	840.82	97.1129	840.82	100.931	840.82	94.5149	840.82	100.484	840.82	92.6324	840.82	100.671	840.82	94.8538	840.82	100.841	840.82	97.5931	840.82	100.666	840.82	99.322	840.82	100.117	840.82	100.197	840.82	99.4398	840.82	100.264	840.82	99.1396	840.82	99.7859	840.82	99.1832	840.82	99.3465
870.117	103.232	870.117	103.331	870.117	103.246	870.117	103.285	870.117	103.54	870.117	102.961	870.117	103.904	870.117	102.316	870.117	103.94	870.117	101.443	870.117	103.427	870.117	100.684	870.117	102.478	870.117	100.291	870.117	101.608	870.117	99.82	870.117	101.299	870.117	98.5291	870.117	101.269	870.117	95.9483	870.117	101.161	870.117	92.1813	870.117	100.842	870.117	91.3244	870.117	99.9559	870.117	94.7712	870.117	98.1947	870.117	97.4516	870.117	96.4801	870.117	98.8886	870.117	96.8288	870.117	99.4039	870.117	98.0504	870.117	99.3272	870.117	98.7124	870.117	99.0354
900.879	104.286	900.879	103.916	900.879	104.171	900.879	103.244	900.879	103.666	900.879	102.562	900.879	103.202	900.879	101.993	900.879	103.103	900.879	101.382	900.879	102.961	900.879	100.54	900.879	102.065	900.879	99.461	900.879	100.572	900.879	98.2522	900.879	99.9558	900.879	96.8645	900.879	100.607	900.879	94.911	900.879	101.159	900.879	92.4337	900.879	101.077	900.879	93.8279	900.879	100.926	900.879	97.497	900.879	100.678	900.879	99.584	900.879	99.6593	900.879	100.259	900.879	98.2139	900.879	99.966	900.879	97.4226	900.879	99.0395	900.879	97.3492	900.879	97.9517
933.105	103.891	933.105	103.295	933.105	104.213	933.105	102.57	933.105	104.162	933.105	101.85	933.105	103.731	933.105	101.211	933.105	103.031	933.105	100.75	933.105	102.29	933.105	100.757	933.105	101.652	933.105	101.283	933.105	101.031	933.105	101.501	933.105	100.537	933.105	100.353	933.105	100.779	933.105	97.3792	933.105	101.697	933.105	92.3523	933.105	102.141	933.105	87.0572	933.105	101.404	933.105	92.9613	933.105	99.6596	933.105	97.8766	933.105	97.8962	933.105	100.119	933.105	97.3237	933.105	100.406	933.105	97.6335	933.105	99.6589	933.105	98.1024	933.105	98.7512
965.332	104.172	965.332	103.663	965.332	104.325	965.332	102.864	965.332	104.358	965.332	102.12	965.332	104.471	965.332	101.653	965.332	104.473	965.332	101.422	965.332	103.755	965.332	101.376	965.332	101.841	965.332	101.313	965.332	99.2973	965.332	100.732	965.332	98.9177	965.332	99.1121	965.332	100.537	965.332	96.3369	965.332	101.418	965.332	91.9812	965.332	101.363	965.332	90.0031	965.332	101.159	965.332	96.1339	965.332	100.788	965.332	100.148	965.332	99.4923	965.332	101.662	965.332	97.9051	965.332	101.521	965.332	97.7993	965.332	100.589	965.332	98.4988	965.332	99.4519
1,000.49	104.177	1,000.49	103.418	1,000.49	104.657	1,000.49	102.419	1,000.49	104.736	1,000.49	101.294	1,000.49	104.382	1,000.49	100.508	1,000.49	103.857	1,000.49	100.537	1,000.49	103.248	1,000.49	101.128	1,000.49	102.087	1,000.49	101.836	1,000.49	100.082	1,000.49	102.292	1,000.49	98.1072	1,000.49	101.721	1,000.49	98.5676	1,000.49	99.0994	1,000.49	100.844	1,000.49	92.81	1,000.49	101.943	1,000.49	82.7974	1,000.49	101.454	1,000.49	93.0167	1,000.49	100.225	1,000.49	97.5401	1,000.49	98.9041	1,000.49	99.9601	1,000.49	97.6455	1,000.49	100.975	1,000.49	97.2918	1,000.49	100.788	1,000.49	98.2805	1,000.49	99.7227
1,035.64	103.349	1,035.64	102.874	1,035.64	103.588	1,035.64	102.171	1,035.64	103.913	1,035.64	101.484	1,035.64	104.507	1,035.64	100.811	1,035.64	104.894	1,035.64	100.18	1,035.64	104.27	1,035.64	100.429	1,035.64	102.337	1,035.64	101.566	1,035.64	99.409	1,035.64	102.356	1,035.64	96.7079	1,035.64	102.279	1,035.64	98.1766	1,035.64	101.232	1,035.64	100.947	1,035.64	98.3801	1,035.64	102.068	1,035.64	88.8624	1,035.64	101.902	1,035.64	92.3595	1,035.64	101.406	1,035.64	99.6508	1,035.64	100.665	1,035.64	101.987	1,035.64	99.2267	1,035.64	102.007	1,035.64	97.8738	1,035.64	100.694	1,035.64	97.8695	1,035.64	99.0128
1,072.27	102.468	1,072.27	101.327	1,072.27	103.453	1,072.27	100.483	1,072.27	103.952	1,072.27	99.8164	1,072.27	104.116	1,072.27	99.1756	1,072.27	104.104	1,072.27	99.4742	1,072.27	103.527	1,072.27	101.286	1,072.27	101.661	1,072.27	103.143	1,072.27	97.8641	1,072.27	103.742	1,072.27	95.2979	1,072.27	103.234	1,072.27	98.9011	1,072.27	102.109	1,072.27	101.614	1,072.27	99.7628	1,072.27	102.794	1,072.27	93.4867	1,072.27	103.295	1,072.27	87.559	1,072.27	103.123	1,072.27	99.0987	1,072.27	101.856	1,072.27	102.237	1,072.27	99.946	1,072.27	102.637	1,072.27	98.6912	1,072.27	101.691	1,072.27	98.8345	1,072.27	100.148
1,108.89	102.271	1,108.89	102.177	1,108.89	102.667	1,108.89	101.726	1,108.89	103.359	1,108.89	100.084	1,108.89	104.205	1,108.89	97.6203	1,108.89	104.93	1,108.89	96.0883	1,108.89	104.87	1,108.89	95.7264	1,108.89	103.672	1,108.89	98.3613	1,108.89	101.46	1,108.89	100.626	1,108.89	96.8348	1,108.89	101.46	1,108.89	87.9576	1,108.89	101.512	1,108.89	98.5763	1,108.89	99.9918	1,108.89	103.053	1,108.89	96.4857	1,108.89	104.615	1,108.89	92.5181	1,108.89	104.715	1,108.89	99.0063	1,108.89	103.891	1,108.89	103.725	1,108.89	102.403	1,108.89	105.199	1,108.89	101.414	1,108.89	104.837	1,108.89	102.115	1,108.89	103.63
1,148.44	103.507	1,148.44	103.767	1,148.44	102.679	1,148.44	102.987	1,148.44	102.444	1,148.44	101.415	1,148.44	103.706	1,148.44	100.536	1,148.44	105.535	1,148.44	99.9783	1,148.44	106.603	1,148.44	97.9228	1,148.44	106.521	1,148.44	94.1208	1,148.44	105.091	1,148.44	94.5236	1,148.44	101.223	1,148.44	99.3614	1,148.44	90.5308	1,148.44	102.188	1,148.44	93.3501	1,148.44	102.577	1,148.44	100.257	1,148.44	100.672	1,148.44	103.025	1,148.44	95.8578	1,148.44	104.316	1,148.44	94.0051	1,148.44	104.736	1,148.44	100.389	1,148.44	104.622	1,148.44	103.976	1,148.44	104.461	1,148.44	105.635	1,148.44	104.929	1,148.44	105.711
1,189.45	104.562	1,189.45	103.795	1,189.45	104.423	1,189.45	102.949	1,189.45	103.468	1,189.45	103.09	1,189.45	103.009	1,189.45	103.983	1,189.45	104.126	1,189.45	103.952	1,189.45	105.507	1,189.45	101.583	1,189.45	106.035	1,189.45	96.7054	1,189.45	105.607	1,189.45	90.1382	1,189.45	103.665	1,189.45	92.588	1,189.45	98.4444	1,189.45	97.3604	1,189.45	87.5169	1,189.45	99.8166	1,189.45	96.975	1,189.45	99.4972	1,189.45	101.286	1,189.45	95.8483	1,189.45	103.706	1,189.45	89.8779	1,189.45	104.189	1,189.45	94.0028	1,189.45	103.612	1,189.45	101.406	1,189.45	103.647	1,189.45	104.447	1,189.45	104.335	1,189.45	104.945
1,230.47	103.993	1,230.47	103.411	1,230.47	104.333	1,230.47	103.288	1,230.47	104.082	1,230.47	104.211	1,230.47	103.27	1,230.47	105.106	1,230.47	102.767	1,230.47	104.433	1,230.47	103.931	1,230.47	102.708	1,230.47	105.329	1,230.47	101.335	1,230.47	105.489	1,230.47	98.4546	1,230.47	103.799	1,230.47	95.4183	1,230.47	99.4057	1,230.47	98.4075	1,230.47	90.2807	1,230.47	99.9717	1,230.47	91.7105	1,230.47	99.2043	1,230.47	97.6553	1,230.47	95.1431	1,230.47	100.347	1,230.47	77.2156	1,230.47	101.914	1,230.47	96.3431	1,230.47	102.495	1,230.47	100.553	1,230.47	103.139	1,230.47	102.753	1,230.47	104.057	1,230.47	104.041
1,274.41	103.782	1,274.41	103.022	1,274.41	103.912	1,274.41	102.985	1,274.41	103.467	1,274.41	103.913	1,274.41	102.745	1,274.41	104.606	1,274.41	102.481	1,274.41	104.521	1,274.41	103.43	1,274.41	104.333	1,274.41	104.769	1,274.41	103.669	1,274.41	105.15	1,274.41	100.654	1,274.41	103.57	1,274.41	96.2358	1,274.41	100.497	1,274.41	98.796	1,274.41	94.9625	1,274.41	101.872	1,274.41	92.1462	1,274.41	101.694	1,274.41	97.0885	1,274.41	99.4824	1,274.41	100.258	1,274.41	93.6628	1,274.41	101.866	1,274.41	93.4615	1,274.41	102.054	1,274.41	100.776	1,274.41	102.145	1,274.41	102.842	1,274.41	102.576	1,274.41	103.011
1,319.82	102.208	1,319.82	102.627	1,319.82	102.926	1,319.82	103.613	1,319.82	103.475	1,319.82	104.386	1,319.82	102.594	1,319.82	104.937	1,319.82	100.419	1,319.82	105.313	1,319.82	100.763	1,319.82	104.817	1,319.82	103.344	1,319.82	102.697	1,319.82	104.772	1,319.82	99.6784	1,319.82	104.516	1,319.82	95.6417	1,319.82	101.16	1,319.82	94.5143	1,319.82	91.1936	1,319.82	100.672	1,319.82	92.5614	1,319.82	102.126	1,319.82	98.9491	1,319.82	99.9961	1,319.82	102.001	1,319.82	94.669	1,319.82	102.908	1,319.82	91.9232	1,319.82	102.489	1,319.82	99.5961	1,319.82	102.524	1,319.82	103.265	1,319.82	103.356	1,319.82	104.018
1,366.7	102.479	1,366.7	103.199	1,366.7	102.923	1,366.7	103.979	1,366.7	103.923	1,366.7	104.689	1,366.7	103.47	1,366.7	105.781	1,366.7	99.9165	1,366.7	106.773	1,366.7	96.89	1,366.7	106.785	1,366.7	102.357	1,366.7	106.457	1,366.7	105.544	1,366.7	106.089	1,366.7	106.379	1,366.7	103.062	1,366.7	105.575	1,366.7	93.0721	1,366.7	101.297	1,366.7	93.9091	1,366.7	92.9632	1,366.7	101.62	1,366.7	91.8611	1,366.7	103.196	1,366.7	99.9208	1,366.7	100.961	1,366.7	102.695	1,366.7	96.48	1,366.7	103.761	1,366.7	100.675	1,366.7	104.238	1,366.7	103.562	1,366.7	104.445	1,366.7	104.374
1,413.57	103.931	1,413.57	105.34	1,413.57	102.54	1,413.57	105.415	1,413.57	103.877	1,413.57	105.102	1,413.57	105.11	1,413.57	104.782	1,413.57	103.314	1,413.57	104.116	1,413.57	97.3713	1,413.57	104.815	1,413.57	95.446	1,413.57	106.827	1,413.57	103.032	1,413.57	106.242	1,413.57	105.969	1,413.57	103.108	1,413.57	106.511	1,413.57	100.161	1,413.57	104.251	1,413.57	91.8366	1,413.57	98.5107	1,413.57	95.0423	1,413.57	95.112	1,413.57	100.328	1,413.57	95.7885	1,413.57	101.839	1,413.57	98.7303	1,413.57	98.9842	1,413.57	101.713	1,413.57	94.3768	1,413.57	103.643	1,413.57	99.5431	1,413.57	104.599	1,413.57	103.465
1,463.38	105.567	1,463.38	105.576	1,463.38	105.139	1,463.38	105.306	1,463.38	104.521	1,463.38	104.882	1,463.38	104.253	1,463.38	103.114	1,463.38	104.294	1,463.38	99.3625	1,463.38	103.12	1,463.38	100.513	1,463.38	96.9932	1,463.38	104.283	1,463.38	95.3294	1,463.38	104.561	1,463.38	101.454	1,463.38	103.403	1,463.38	103.678	1,463.38	102.162	1,463.38	103.698	1,463.38	98.0193	1,463.38	101.209	1,463.38	90.4215	1,463.38	96.6449	1,463.38	97.21	1,463.38	85.3436	1,463.38	100.648	1,463.38	94.0525	1,463.38	99.3497	1,463.38	99.0863	1,463.38	94.944	1,463.38	100.894	1,463.38	90.0644	1,463.38	101.335	1,463.38	98.4374
1,516.11	105.511	1,516.11	105.801	1,516.11	104.646	1,516.11	105.252	1,516.11	104.101	1,516.11	104.239	1,516.11	104.074	1,516.11	102.422	1,516.11	104.616	1,516.11	100.243	1,516.11	104.689	1,516.11	99.0933	1,516.11	101.368	1,516.11	99.2117	1,516.11	88.384	1,516.11	100.248	1,516.11	94.7553	1,516.11	101.103	1,516.11	99.4261	1,516.11	100.028	1,516.11	101.376	1,516.11	93.5359	1,516.11	101.746	1,516.11	87.1871	1,516.11	97.747	1,516.11	95.3618	1,516.11	87.4337	1,516.11	99.7708	1,516.11	81.8887	1,516.11	100.181	1,516.11	96.4485	1,516.11	97.5009	1,516.11	100.496	1,516.11	89.798	1,516.11	99.6858	1,516.11	92.3109
1,568.85	105.723	1,568.85	105.776	1,568.85	104.596	1,568.85	104.728	1,568.85	104.097	1,568.85	104.204	1,568.85	104.398	1,568.85	102.998	1,568.85	104.656	1,568.85	101.838	1,568.85	104.598	1,568.85	100.603	1,568.85	103.548	1,568.85	92.2223	1,568.85	101.624	1,568.85	90.5749	1,568.85	95.6245	1,568.85	99.8327	1,568.85	93.8657	1,568.85	100.967	1,568.85	99.1827	1,568.85	98.6547	1,568.85	100.569	1,568.85	93.4624	1,568.85	101.058	1,568.85	89.857	1,568.85	94.5949	1,568.85	98.5742	1,568.85	89.5555	1,568.85	100.207	1,568.85	93.7974	1,568.85	100.389	1,568.85	96.3508	1,568.85	96.8288	1,568.85	95.7214	1,568.85	84.2722
1,624.51	105.371	1,624.51	104.707	1,624.51	105.429	1,624.51	105.649	1,624.51	104.401	1,624.51	105.374	1,624.51	103.632	1,624.51	103.643	1,624.51	104.191	1,624.51	104.66	1,624.51	104.564	1,624.51	104.903	1,624.51	104.196	1,624.51	101.801	1,624.51	103.398	1,624.51	97.0466	1,624.51	100.365	1,624.51	96.8457	1,624.51	96.2672	1,624.51	100.118	1,624.51	100.232	1,624.51	102.02	1,624.51	102.198	1,624.51	98.7795	1,624.51	101.235	1,624.51	90.3	1,624.51	98.6119	1,624.51	89.0753	1,624.51	93.3567	1,624.51	99.0735	1,624.51	76.0844	1,624.51	100.624	1,624.51	90.5486	1,624.51	98.7711	1,624.51	85.2811	1,624.51	92.5442
1,681.64	105.063	1,681.64	105.673	1,681.64	104.969	1,681.64	106.337	1,681.64	104.482	1,681.64	105.652	1,681.64	104.05	1,681.64	104.716	1,681.64	104.574	1,681.64	104.622	1,681.64	104.388	1,681.64	102.275	1,681.64	102.875	1,681.64	97.8024	1,681.64	100.726	1,681.64	96.1732	1,681.64	98.7252	1,681.64	97.2489	1,681.64	99.0103	1,681.64	98.8188	1,681.64	100.466	1,681.64	99.6006	1,681.64	100.767	1,681.64	100.082	1,681.64	100.52	1,681.64	94.2552	1,681.64	96.7898	1,681.64	84.6731	1,681.64	89.8683	1,681.64	95.0405	1,681.64	92.4091	1,681.64	99.0627	1,681.64	91.7368	1,681.64	98.8434	1,681.64	88.4249	1,681.64	93.5656
1,741.7	105.199	1,741.7	105.62	1,741.7	105.216	1,741.7	105.382	1,741.7	104.695	1,741.7	103.974	1,741.7	104.109	1,741.7	104.447	1,741.7	103.632	1,741.7	104.582	1,741.7	103.056	1,741.7	98.8501	1,741.7	103.93	1,741.7	97.8066	1,741.7	102.094	1,741.7	100.4	1,741.7	99.3841	1,741.7	94.7905	1,741.7	98.3709	1,741.7	99.0078	1,741.7	95.7289	1,741.7	98.9711	1,741.7	97.3145	1,741.7	94.7881	1,741.7	95.8812	1,741.7	94.5442	1,741.7	97.6799	1,741.7	91.4994	1,741.7	97.7249	1,741.7	93.4852	1,741.7	95.7266	1,741.7	93.0564	1,741.7	88.3789	1,741.7	96.0462	1,741.7	79.9706	1,741.7	94.5615
1,803.22	106.048	1,803.22	106.333	1,803.22	105.601	1,803.22	105.022	1,803.22	104.772	1,803.22	104.037	1,803.22	104.027	1,803.22	104.382	1,803.22	103.897	1,803.22	102.918	1,803.22	103.242	1,803.22	100.99	1,803.22	102.608	1,803.22	94.26	1,803.22	99.9877	1,803.22	92.4844	1,803.22	98.1524	1,803.22	98.6839	1,803.22	99.2708	1,803.22	97.4627	1,803.22	96.0842	1,803.22	90.8974	1,803.22	96.9131	1,803.22	94.5346	1,803.22	98.3304	1,803.22	93.9033	1,803.22	96.3608	1,803.22	91.4391	1,803.22	96.1965	1,803.22	95.4309	1,803.22	93.1722	1,803.22	95.6485	1,803.22	87.2004	1,803.22	95.2556	1,803.22	86.5284	1,803.22	93.6945
1,866.21	105.696	1,866.21	105.757	1,866.21	105.218	1,866.21	104.612	1,866.21	105.115	1,866.21	104.287	1,866.21	104.091	1,866.21	103.305	1,866.21	103.456	1,866.21	101.832	1,866.21	103.311	1,866.21	100.243	1,866.21	101.044	1,866.21	96.9077	1,866.21	99.4571	1,866.21	95.3676	1,866.21	95.345	1,866.21	91.1963	1,866.21	94.1408	1,866.21	94.428	1,866.21	95.2571	1,866.21	94.1174	1,866.21	97.4075	1,866.21	88.89	1,866.21	97.2663	1,866.21	92.9079	1,866.21	96.0054	1,866.21	89.2805	1,866.21	95.1957	1,866.21	95.4253	1,866.21	91.8462	1,866.21	96.2827	1,866.21	85.4496	1,866.21	93.3845	1,866.21	82.3298	1,866.21	91.3226
1,932.13	105.272	1,932.13	104.629	1,932.13	104.392	1,932.13	104.55	1,932.13	104.132	1,932.13	104.789	1,932.13	103.997	1,932.13	102.369	1,932.13	102.49	1,932.13	101.126	1,932.13	102.003	1,932.13	100.35	1,932.13	100.966	1,932.13	99.0352	1,932.13	100.641	1,932.13	96.6248	1,932.13	97.3491	1,932.13	91.9548	1,932.13	88.3216	1,932.13	88.3926	1,932.13	96.1583	1,932.13	89.6667	1,932.13	99.0396	1,932.13	86.9024	1,932.13	96.9216	1,932.13	91.2076	1,932.13	94.2821	1,932.13	90.7018	1,932.13	90.7181	1,932.13	93.732	1,932.13	80.6084	1,932.13	96.9465	1,932.13	87.9529	1,932.13	93.0542	1,932.13	80.3611	1,932.13	83.4476
1,999.51	105.209	1,999.51	104.535	1,999.51	104.779	1,999.51	104.817	1,999.51	103.472	1,999.51	103.563	1,999.51	103.287	1,999.51	100.557	1,999.51	102.296	1,999.51	100.009	1,999.51	100.96	1,999.51	98.8372	1,999.51	100.798	1,999.51	98.6563	1,999.51	99.6129	1,999.51	96.0178	1,999.51	97.3516	1,999.51	95.0508	1,999.51	92.7225	1,999.51	92.2759	1,999.51	96.5801	1,999.51	88.4903	1,999.51	98.634	1,999.51	88.8006	1,999.51	96.1071	1,999.51	92.2548	1,999.51	94.5741	1,999.51	91.4228	1,999.51	90.8618	1,999.51	89.465	1,999.51	85.0543	1,999.51	94.3133	1,999.51	92.1842	1,999.51	92.52	1,999.51	90.2262	1,999.51	87.0048
2,069.82	106.833	2,069.82	106.194	2,069.82	106.332	2,069.82	104.636	2,069.82	104.391	2,069.82	101.343	2,069.82	102.063	2,069.82	99.9197	2,069.82	101.829	2,069.82	99.937	2,069.82	102.253	2,069.82	97.5348	2,069.82	99.858	2,069.82	95.3683	2,069.82	97.837	2,069.82	91.6167	2,069.82	95.5084	2,069.82	94.4488	2,069.82	90.3531	2,069.82	94.3652	2,069.82	94.406	2,069.82	80.6107	2,069.82	97.7951	2,069.82	86.9481	2,069.82	95.7229	2,069.82	91.8064	2,069.82	96.5927	2,069.82	92.8576	2,069.82	94.8134	2,069.82	87.1703	2,069.82	92.3033	2,069.82	89.9676	2,069.82	96.2237	2,069.82	90.9	2,069.82	94.407	2,069.82	90.134
2,143.07	107.376	2,143.07	107.117	2,143.07	107.382	2,143.07	104.731	2,143.07	106.356	2,143.07	101.145	2,143.07	103.643	2,143.07	100.623	2,143.07	102.454	2,143.07	99.0895	2,143.07	102.087	2,143.07	96.6717	2,143.07	100.335	2,143.07	90.4119	2,143.07	99.3004	2,143.07	91.6501	2,143.07	96.0109	2,143.07	98.1937	2,143.07	93.8625	2,143.07	97.851	2,143.07	96.6904	2,143.07	92.7857	2,143.07	95.4496	2,143.07	91.0048	2,143.07	91.945	2,143.07	95.4208	2,143.07	98.3982	2,143.07	96.1986	2,143.07	97.8442	2,143.07	91.9787	2,143.07	95.8812	2,143.07	77.3903	2,143.07	98.2131	2,143.07	89.4138	2,143.07	95.3904	2,143.07	89.1702
2,219.24	106.845	2,219.24	106.378	2,219.24	106.937	2,219.24	104.768	2,219.24	106.932	2,219.24	102.51	2,219.24	105.796	2,219.24	99.6742	2,219.24	103.585	2,219.24	98.7268	2,219.24	101.796	2,219.24	99.6005	2,219.24	99.8964	2,219.24	97.3626	2,219.24	99.9112	2,219.24	86.3981	2,219.24	97.7462	2,219.24	95.3227	2,219.24	93.4006	2,219.24	98.6625	2,219.24	96.5233	2,219.24	96.3478	2,219.24	94.4353	2,219.24	91.791	2,219.24	86.0036	2,219.24	97.6987	2,219.24	99.1356	2,219.24	98.1258	2,219.24	99.8342	2,219.24	95.2001	2,219.24	98.7493	2,219.24	89.1947	2,219.24	99.0879	2,219.24	82.2716	2,219.24	94.9031	2,219.24	85.182
2,296.88	107.009	2,296.88	106.385	2,296.88	106.62	2,296.88	104.847	2,296.88	106.444	2,296.88	102.288	2,296.88	105.643	2,296.88	99.0981	2,296.88	103.926	2,296.88	98.2897	2,296.88	101.607	2,296.88	101.076	2,296.88	99.2811	2,296.88	99.2854	2,296.88	99.0391	2,296.88	91.89	2,296.88	96.987	2,296.88	96.2244	2,296.88	95.8605	2,296.88	99.8937	2,296.88	98.9598	2,296.88	98.8906	2,296.88	94.9887	2,296.88	95.1421	2,296.88	83.2551	2,296.88	99.4795	2,296.88	99.1062	2,296.88	100.784	2,296.88	101.057	2,296.88	97.1384	2,296.88	100.357	2,296.88	92.5871	2,296.88	98.9062	2,296.88	90.6336	2,296.88	95.2934	2,296.88	88.9709
2,378.91	107.39	2,378.91	106.651	2,378.91	106.806	2,378.91	104.57	2,378.91	105.761	2,378.91	101.867	2,378.91	104.755	2,378.91	98.9979	2,378.91	103.935	2,378.91	98.5167	2,378.91	102.032	2,378.91	101.922	2,378.91	97.0631	2,378.91	100.596	2,378.91	96.7606	2,378.91	86.431	2,378.91	98.2853	2,378.91	93.6099	2,378.91	95.9077	2,378.91	99.4942	2,378.91	99.6877	2,378.91	98.9196	2,378.91	95.9831	2,378.91	94.7914	2,378.91	82.9959	2,378.91	100.207	2,378.91	100.507	2,378.91	101.888	2,378.91	102.393	2,378.91	99.1432	2,378.91	101.082	2,378.91	94.9991	2,378.91	100.603	2,378.91	95.1489	2,378.91	98.5173	2,378.91	95.3625
2,462.4	105.662	2,462.4	105.839	2,462.4	105.516	2,462.4	104.827	2,462.4	105.698	2,462.4	102.737	2,462.4	105.424	2,462.4	100.514	2,462.4	105.18	2,462.4	99.4431	2,462.4	102.724	2,462.4	101.347	2,462.4	96.6383	2,462.4	99.6364	2,462.4	96.4331	2,462.4	96.6728	2,462.4	98.7905	2,462.4	92.3587	2,462.4	94.7026	2,462.4	101.024	2,462.4	99.0041	2,462.4	99.3877	2,462.4	99.2167	2,462.4	94.9963	2,462.4	88.9793	2,462.4	100.34	2,462.4	102.198	2,462.4	102.876	2,462.4	103.124	2,462.4	101.451	2,462.4	101.92	2,462.4	99.4568	2,462.4	101.003	2,462.4	99.304	2,462.4	97.8964	2,462.4	97.9059
2,548.83	103.67	2,548.83	103.806	2,548.83	104.2	2,548.83	103.96	2,548.83	104.123	2,548.83	104.412	2,548.83	105.073	2,548.83	102.232	2,548.83	105.166	2,548.83	98.9328	2,548.83	102.7	2,548.83	98.9229	2,548.83	99.3625	2,548.83	102.011	2,548.83	95.158	2,548.83	93.9919	2,548.83	95.2306	2,548.83	84.1658	2,548.83	94.779	2,548.83	100.681	2,548.83	99.7479	2,548.83	99.8806	2,548.83	101.181	2,548.83	96.3133	2,548.83	86.396	2,548.83	100.521	2,548.83	103.023	2,548.83	103.005	2,548.83	103.66	2,548.83	102.808	2,548.83	101.707	2,548.83	101.623	2,548.83	100.202	2,548.83	101.324	2,548.83	98.2984	2,548.83	100.743
2,639.65	103.092	2,639.65	102.552	2,639.65	103.778	2,639.65	103.319	2,639.65	103.641	2,639.65	104.754	2,639.65	104.203	2,639.65	102.332	2,639.65	104.687	2,639.65	92.7492	2,639.65	102.528	2,639.65	97.6379	2,639.65	99.3948	2,639.65	99.7518	2,639.65	84.0014	2,639.65	97.0371	2,639.65	96.6641	2,639.65	91.4132	2,639.65	90.8217	2,639.65	98.4608	2,639.65	98.8022	2,639.65	100.684	2,639.65	101.381	2,639.65	98.0082	2,639.65	92.1334	2,639.65	101.361	2,639.65	103.801	2,639.65	102.742	2,639.65	103	2,639.65	102.312	2,639.65	101.637	2,639.65	102.4	2,639.65	100.695	2,639.65	103.233	2,639.65	100.838	2,639.65	102.805
2,731.93	103.29	2,731.93	102.349	2,731.93	103.978	2,731.93	103.135	2,731.93	104.48	2,731.93	103.285	2,731.93	103.612	2,731.93	101.812	2,731.93	104.336	2,731.93	96.3763	2,731.93	102.466	2,731.93	94.7363	2,731.93	99.6672	2,731.93	99.2821	2,731.93	86.3072	2,731.93	95.1277	2,731.93	94.5213	2,731.93	92.4662	2,731.93	86.3239	2,731.93	98.8323	2,731.93	95.5506	2,731.93	99.3786	2,731.93	101.521	2,731.93	97.4868	2,731.93	96.3052	2,731.93	102.001	2,731.93	104.285	2,731.93	103.252	2,731.93	103.482	2,731.93	101.789	2,731.93	100.811	2,731.93	103.123	2,731.93	100.551	2,731.93	103.969	2,731.93	102.904	2,731.93	102.853
2,828.61	104.836	2,828.61	102.935	2,828.61	105.005	2,828.61	102.597	2,828.61	103.884	2,828.61	102.393	2,828.61	103.27	2,828.61	103.123	2,828.61	101.381	2,828.61	99.0947	2,828.61	102.098	2,828.61	91.9855	2,828.61	98.6367	2,828.61	98.5659	2,828.61	82.7706	2,828.61	98.8101	2,828.61	95.2979	2,828.61	92.3087	2,828.61	85.7467	2,828.61	100.157	2,828.61	95.6887	2,828.61	100.421	2,828.61	101.804	2,828.61	99.4124	2,828.61	96.6626	2,828.61	102.414	2,828.61	102.077	2,828.61	103.67	2,828.61	103.023	2,828.61	103.069	2,828.61	99.3705	2,828.61	103.338	2,828.61	102.025	2,828.61	104.461	2,828.61	104.676	2,828.61	105.424
2,928.22	106.103	2,928.22	104.807	2,928.22	106.437	2,928.22	102.332	2,928.22	104.485	2,928.22	102.183	2,928.22	102.801	2,928.22	102.426	2,928.22	100.969	2,928.22	97.7286	2,928.22	101.405	2,928.22	85.3849	2,928.22	98.3615	2,928.22	96.2417	2,928.22	87.9208	2,928.22	94.9757	2,928.22	98.5401	2,928.22	89.3957	2,928.22	88.9505	2,928.22	97.0386	2,928.22	97.74	2,928.22	99.1078	2,928.22	101.455	2,928.22	98.0442	2,928.22	97.6155	2,928.22	101.519	2,928.22	101.88	2,928.22	103.5	2,928.22	102.325	2,928.22	103.734	2,928.22	102.186	2,928.22	103.873	2,928.22	104.247	2,928.22	103.937	2,928.22	105.056	2,928.22	105.056
3,030.76	107.051	3,030.76	105.601	3,030.76	106.684	3,030.76	102.232	3,030.76	105.014	3,030.76	100.999	3,030.76	102.163	3,030.76	101.481	3,030.76	98.8593	3,030.76	99.0744	3,030.76	98.126	3,030.76	82.3724	3,030.76	98.4624	3,030.76	93.9381	3,030.76	81.9346	3,030.76	95.568	3,030.76	97.5502	3,030.76	93.114	3,030.76	91.8441	3,030.76	97.3032	3,030.76	97.9126	3,030.76	98.2024	3,030.76	102.753	3,030.76	98.3394	3,030.76	98.4247	3,030.76	102.249	3,030.76	101.136	3,030.76	104.521	3,030.76	101.858	3,030.76	104.048	3,030.76	102.386	3,030.76	103.952	3,030.76	103.994	3,030.76	105.265	3,030.76	105.024	3,030.76	105.503
3,137.7	107.898	3,137.7	106.487	3,137.7	107.28	3,137.7	103.159	3,137.7	104.336	3,137.7	98.2331	3,137.7	101.631	3,137.7	99.314	3,137.7	99.2436	3,137.7	98.5028	3,137.7	96.561	3,137.7	86.0576	3,137.7	97.2876	3,137.7	93.9567	3,137.7	95.4122	3,137.7	95.1987	3,137.7	97.2423	3,137.7	94.6144	3,137.7	97.7167	3,137.7	97.7851	3,137.7	93.9911	3,137.7	99.2678	3,137.7	104.113	3,137.7	98.3785	3,137.7	97.5173	3,137.7	101.798	3,137.7	101.126	3,137.7	104.312	3,137.7	101.887	3,137.7	104.443	3,137.7	103.139	3,137.7	105.016	3,137.7	104.77	3,137.7	105.424	3,137.7	105.829	3,137.7	105.377
3,249.02	107.865	3,249.02	106.657	3,249.02	107.323	3,249.02	102.639	3,249.02	104.306	3,249.02	94.4419	3,249.02	101.635	3,249.02	97.1029	3,249.02	98.4396	3,249.02	97.7121	3,249.02	94.9421	3,249.02	93.0202	3,249.02	96.4174	3,249.02	88.9355	3,249.02	97.1319	3,249.02	95.2989	3,249.02	94.361	3,249.02	96.6329	3,249.02	100.735	3,249.02	97.0994	3,249.02	88.6328	3,249.02	100.181	3,249.02	104.106	3,249.02	100.614	3,249.02	98.0547	3,249.02	101.53	3,249.02	102.665	3,249.02	102.581	3,249.02	101.11	3,249.02	104.613	3,249.02	105.587	3,249.02	106.201	3,249.02	105.151	3,249.02	105.741	3,249.02	105.488	3,249.02	105.851
3,363.28	107.041	3,363.28	105.364	3,363.28	107.048	3,363.28	101.134	3,363.28	105.221	3,363.28	96.2245	3,363.28	102.595	3,363.28	92.4473	3,363.28	98.8784	3,363.28	98.6424	3,363.28	92.8536	3,363.28	94.0252	3,363.28	93.3728	3,363.28	80.7613	3,363.28	99.7299	3,363.28	97.6466	3,363.28	90.5321	3,363.28	99.4915	3,363.28	100.686	3,363.28	96.1468	3,363.28	87.783	3,363.28	101.783	3,363.28	103.385	3,363.28	101.267	3,363.28	98.8133	3,363.28	101.888	3,363.28	102.557	3,363.28	103.527	3,363.28	102.851	3,363.28	103.9	3,363.28	106.373	3,363.28	105.839	3,363.28	105.278	3,363.28	107.323	3,363.28	106.09	3,363.28	106.64
3,481.93	105.843	3,481.93	104.712	3,481.93	106.736	3,481.93	102.905	3,481.93	105.279	3,481.93	99.2247	3,481.93	103.822	3,481.93	93.6353	3,481.93	100.687	3,481.93	97.4829	3,481.93	94.7136	3,481.93	97.8917	3,481.93	92.4511	3,481.93	87.3866	3,481.93	99.7149	3,481.93	96.6107	3,481.93	92.8625	3,481.93	101.556	3,481.93	100.225	3,481.93	95.0139	3,481.93	87.9702	3,481.93	102.567	3,481.93	103.622	3,481.93	101.724	3,481.93	99.7434	3,481.93	102.766	3,481.93	104.165	3,481.93	104.762	3,481.93	104.262	3,481.93	103.246	3,481.93	104.982	3,481.93	105.751	3,481.93	104.376	3,481.93	108.748	3,481.93	106.52	3,481.93	108.484
3,604.98	105.25	3,604.98	105.18	3,604.98	106.413	3,604.98	103.769	3,604.98	106.742	3,604.98	102.743	3,604.98	103.818	3,604.98	95.484	3,604.98	103.072	3,604.98	95.0025	3,604.98	98.5589	3,604.98	100.625	3,604.98	98.6261	3,604.98	98.2523	3,604.98	101.249	3,604.98	99.0814	3,604.98	95.5313	3,604.98	102.274	3,604.98	97.5434	3,604.98	92.1971	3,604.98	90.3762	3,604.98	104.389	3,604.98	102.718	3,604.98	102.063	3,604.98	101.772	3,604.98	103.754	3,604.98	106.112	3,604.98	104.85	3,604.98	104.68	3,604.98	103.722	3,604.98	104.062	3,604.98	106.217	3,604.98	105.316	3,604.98	108.648	3,604.98	107.463	3,604.98	109.254
3,732.42	105.491	3,732.42	104.561	3,732.42	105.21	3,732.42	104.317	3,732.42	106.912	3,732.42	105.375	3,732.42	104.466	3,732.42	97.9338	3,732.42	102.358	3,732.42	97.0839	3,732.42	103.408	3,732.42	104.814	3,732.42	102.353	3,732.42	102.325	3,732.42	103.053	3,732.42	101.285	3,732.42	92.6866	3,732.42	104.359	3,732.42	94.0369	3,732.42	87.6219	3,732.42	95.6257	3,732.42	105.33	3,732.42	101.136	3,732.42	101.245	3,732.42	101.221	3,732.42	106.377	3,732.42	107.346	3,732.42	106.228	3,732.42	105.254	3,732.42	102.219	3,732.42	104.967	3,732.42	107.049	3,732.42	105.914	3,732.42	109.152	3,732.42	108.025	3,732.42	108.813
3,864.26	105.821	3,864.26	101.344	3,864.26	104.956	3,864.26	104.237	3,864.26	105.369	3,864.26	104.959	3,864.26	103.509	3,864.26	102.664	3,864.26	103.099	3,864.26	104.861	3,864.26	107.87	3,864.26	107.324	3,864.26	105.386	3,864.26	103.235	3,864.26	105.328	3,864.26	102.231	3,864.26	99.3709	3,864.26	105.551	3,864.26	104.387	3,864.26	96.4731	3,864.26	102.402	3,864.26	106.608	3,864.26	106.812	3,864.26	99.7827	3,864.26	98.7064	3,864.26	107.619	3,864.26	108.16	3,864.26	106.395	3,864.26	104.104	3,864.26	105.971	3,864.26	106.313	3,864.26	107.904	3,864.26	108.285	3,864.26	107.843	3,864.26	108.312	3,864.26	106.306
4,000.49	101.335	4,000.49	92.6784	4,000.49	98.421	4,000.49	101.449	4,000.49	96.8802	4,000.49	103.686	4,000.49	99.0436	4,000.49	105.879	4,000.49	104.109	4,000.49	104.799	4,000.49	108.961	4,000.49	107.496	4,000.49	106.299	4,000.49	101.741	4,000.49	104.492	4,000.49	104.168	4,000.49	100.792	4,000.49	103.415	4,000.49	102.544	4,000.49	99.8826	4,000.49	100.963	4,000.49	105.655	4,000.49	107.201	4,000.49	97.4512	4,000.49	98.891	4,000.49	107.189	4,000.49	106.917	4,000.49	104.603	4,000.49	103.282	4,000.49	107.795	4,000.49	105.914	4,000.49	108.404	4,000.49	109.325	4,000.49	105.021	4,000.49	107.58	4,000.49	105.755
4,141.11	99.5132	4,141.11	100.996	4,141.11	96.915	4,141.11	96.1807	4,141.11	94.0628	4,141.11	101.198	4,141.11	97.8262	4,141.11	104.539	4,141.11	103.319	4,141.11	103.075	4,141.11	107.562	4,141.11	105.189	4,141.11	105.119	4,141.11	100.614	4,141.11	103.696	4,141.11	102.676	4,141.11	100.097	4,141.11	98.1715	4,141.11	102.907	4,141.11	99.3506	4,141.11	98.4027	4,141.11	102.129	4,141.11	102.2	4,141.11	98.261	4,141.11	96.6841	4,141.11	105.108	4,141.11	104.763	4,141.11	102.956	4,141.11	103.119	4,141.11	107.593	4,141.11	105.899	4,141.11	105.533	4,141.11	108.588	4,141.11	105.709	4,141.11	105.264	4,141.11	107.201
4,287.6	101.356	4,287.6	100.578	4,287.6	99.9021	4,287.6	94.0615	4,287.6	99.5496	4,287.6	97.2437	4,287.6	98.3989	4,287.6	103.639	4,287.6	101.896	4,287.6	98.3279	4,287.6	105.535	4,287.6	101.85	4,287.6	100.556	4,287.6	95.7851	4,287.6	97.5409	4,287.6	96.8965	4,287.6	97.2354	4,287.6	96.8231	4,287.6	98.8388	4,287.6	97.7242	4,287.6	97.9877	4,287.6	98.2699	4,287.6	94.9315	4,287.6	99.6967	4,287.6	100.032	4,287.6	102.435	4,287.6	101.64	4,287.6	102.112	4,287.6	102.155	4,287.6	105.36	4,287.6	105.514	4,287.6	106.431	4,287.6	105.267	4,287.6	106.352	4,287.6	104.662	4,287.6	107.706
4,438.48	100.908	4,438.48	101.204	4,438.48	99.2674	4,438.48	99.4313	4,438.48	101.381	4,438.48	100.892	4,438.48	98.6766	4,438.48	101.468	4,438.48	98.9572	4,438.48	95.6029	4,438.48	102.275	4,438.48	99.12	4,438.48	96.5308	4,438.48	91.6364	4,438.48	96.0308	4,438.48	96.1439	4,438.48	95.0811	4,438.48	92.2688	4,438.48	91.6434	4,438.48	94.6212	4,438.48	93.1968	4,438.48	94.8772	4,438.48	96.1869	4,438.48	98.3717	4,438.48	100.699	4,438.48	99.9174	4,438.48	101.043	4,438.48	100.329	4,438.48	100.524	4,438.48	104.005	4,438.48	103.375	4,438.48	103.386	4,438.48	102.964	4,438.48	104.061	4,438.48	104.045	4,438.48	106.645
4,595.21	100.755	4,595.21	101.601	4,595.21	98.1805	4,595.21	101.206	4,595.21	100.243	4,595.21	96.9754	4,595.21	98.3533	4,595.21	99.0738	4,595.21	96.9338	4,595.21	92.442	4,595.21	98.5641	4,595.21	94.063	4,595.21	90.7258	4,595.21	90.9531	4,595.21	94.9656	4,595.21	91.2584	4,595.21	89.7261	4,595.21	92.3976	4,595.21	84.3064	4,595.21	93.4335	4,595.21	87.6314	4,595.21	95.4353	4,595.21	94.4026	4,595.21	97.664	4,595.21	97.7448	4,595.21	98.9244	4,595.21	97.4624	4,595.21	100.297	4,595.21	100.621	4,595.21	101.092	4,595.21	101.873	4,595.21	102.453	4,595.21	101.318	4,595.21	105.079	4,595.21	103.497	4,595.21	105.292
4,756.35	100.346	4,756.35	101.201	4,756.35	99.8972	4,756.35	100.698	4,756.35	101.338	4,756.35	95.4909	4,756.35	99.0926	4,756.35	97.8493	4,756.35	96.8492	4,756.35	92.5616	4,756.35	95.6454	4,756.35	92.0908	4,756.35	92.4551	4,756.35	90.8095	4,756.35	93.25	4,756.35	88.793	4,756.35	82.5181	4,756.35	91.8113	4,756.35	83.2233	4,756.35	91.9114	4,756.35	88.7025	4,756.35	94.1682	4,756.35	93.4708	4,756.35	97.3401	4,756.35	95.3649	4,756.35	99.0185	4,756.35	95.931	4,756.35	99.5453	4,756.35	100.624	4,756.35	100.707	4,756.35	100.741	4,756.35	102.295	4,756.35	98.3204	4,756.35	105.166	4,756.35	104.146	4,756.35	103.059
4,924.8	103.028	4,924.8	101.295	4,924.8	101.96	4,924.8	100.582	4,924.8	101.514	4,924.8	96.7418	4,924.8	99.6741	4,924.8	95.826	4,924.8	96.3017	4,924.8	93.4345	4,924.8	89.5426	4,924.8	86.0326	4,924.8	93.5172	4,924.8	93.1109	4,924.8	89.7651	4,924.8	84.6655	4,924.8	80.2813	4,924.8	91.4786	4,924.8	84.5219	4,924.8	91.1082	4,924.8	88.3779	4,924.8	94.6728	4,924.8	94.6104	4,924.8	97.4178	4,924.8	95.2576	4,924.8	98.3898	4,924.8	95.4791	4,924.8	100.62	4,924.8	100.069	4,924.8	99.1435	4,924.8	100.103	4,924.8	100.215	4,924.8	98.853	4,924.8	103.923	4,924.8	104.782	4,924.8	102.422
5,097.66	103.932	5,097.66	101.701	5,097.66	102.907	5,097.66	100.81	5,097.66	101.745	5,097.66	95.8236	5,097.66	99.3053	5,097.66	93.2233	5,097.66	96.4751	5,097.66	93.9626	5,097.66	86.4409	5,097.66	84.2397	5,097.66	93.6694	5,097.66	93.0288	5,097.66	88.0862	5,097.66	77.8023	5,097.66	77.2417	5,097.66	89.5645	5,097.66	86.7885	5,097.66	90.7019	5,097.66	87.2296	5,097.66	92.2621	5,097.66	93.6029	5,097.66	96.6815	5,097.66	97.0429	5,097.66	97.5624	5,097.66	94.3693	5,097.66	101.224	5,097.66	100.098	5,097.66	100.689	5,097.66	100.824	5,097.66	101.337	5,097.66	100.755	5,097.66	101.873	5,097.66	104.046	5,097.66	99.1055
5,277.83	104.81	5,277.83	103.656	5,277.83	105.028	5,277.83	100.258	5,277.83	100.634	5,277.83	96.8595	5,277.83	100.019	5,277.83	91.9105	5,277.83	95.5359	5,277.83	94.5449	5,277.83	93.0207	5,277.83	83.0993	5,277.83	93.6974	5,277.83	92.9744	5,277.83	89.712	5,277.83	83.3371	5,277.83	79.6817	5,277.83	87.4363	5,277.83	89.2034	5,277.83	90.2197	5,277.83	85.369	5,277.83	90.2977	5,277.83	94.3331	5,277.83	96.9233	5,277.83	95.7219	5,277.83	97.4654	5,277.83	93.4146	5,277.83	101.344	5,277.83	99.3506	5,277.83	101.346	5,277.83	102.699	5,277.83	102.841	5,277.83	101.685	5,277.83	102.693	5,277.83	103.693	5,277.83	100.305
5,463.87	104.211	5,463.87	103.888	5,463.87	105.496	5,463.87	99.2114	5,463.87	101.791	5,463.87	98.031	5,463.87	101.304	5,463.87	88.9806	5,463.87	97.1844	5,463.87	93.284	5,463.87	94.2751	5,463.87	80.5747	5,463.87	90.0098	5,463.87	90.1437	5,463.87	90.3129	5,463.87	68.748	5,463.87	82.4854	5,463.87	84.9979	5,463.87	91.0044	5,463.87	88.8131	5,463.87	83.1712	5,463.87	88.9918	5,463.87	93.1322	5,463.87	96.4315	5,463.87	93.0258	5,463.87	96.9063	5,463.87	93.5741	5,463.87	100.904	5,463.87	98.4744	5,463.87	102.68	5,463.87	102.612	5,463.87	103.317	5,463.87	104.642	5,463.87	101.436	5,463.87	103.647	5,463.87	104.459
5,657.23	103.461	5,657.23	105.652	5,657.23	106.25	5,657.23	98.7734	5,657.23	102.909	5,657.23	97.2433	5,657.23	101.35	5,657.23	86.2997	5,657.23	98.4972	5,657.23	93.3057	5,657.23	96.2948	5,657.23	79.9687	5,657.23	90.82	5,657.23	89.7166	5,657.23	89.0479	5,657.23	71.4052	5,657.23	86.2704	5,657.23	80.292	5,657.23	92.263	5,657.23	90.9108	5,657.23	61.8376	5,657.23	92.5764	5,657.23	95.6036	5,657.23	96.782	5,657.23	91.6359	5,657.23	97.3403	5,657.23	95.7989	5,657.23	101.652	5,657.23	97.4582	5,657.23	104.628	5,657.23	104.18	5,657.23	104.917	5,657.23	106.337	5,657.23	103.835	5,657.23	104.539	5,657.23	107.905
5,856.45	100.652	5,856.45	105.713	5,856.45	106.123	5,856.45	97.5835	5,856.45	103.589	5,856.45	97.7546	5,856.45	100.9	5,856.45	93.8169	5,856.45	100.082	5,856.45	94.5031	5,856.45	98.3693	5,856.45	88.7628	5,856.45	92.3438	5,856.45	90.3014	5,856.45	91.6706	5,856.45	73.9878	5,856.45	86.7737	5,856.45	77.7876	5,856.45	93.3128	5,856.45	92.5346	5,856.45	74.5933	5,856.45	94.4945	5,856.45	96.0289	5,856.45	96.3882	5,856.45	89.1422	5,856.45	97.7528	5,856.45	97.8565	5,856.45	102.039	5,856.45	98.1278	5,856.45	106.013	5,856.45	104.759	5,856.45	106.22	5,856.45	106.948	5,856.45	106.403	5,856.45	104.963	5,856.45	110.312
6,062.99	97.7205	6,062.99	104.911	6,062.99	105.615	6,062.99	98.8245	6,062.99	103.528	6,062.99	95.9901	6,062.99	99.1246	6,062.99	95.8493	6,062.99	101.229	6,062.99	93.1971	6,062.99	99.2664	6,062.99	90.0465	6,062.99	95.1324	6,062.99	89.005	6,062.99	89.8183	6,062.99	78.5735	6,062.99	90.4079	6,062.99	69.5034	6,062.99	89.8712	6,062.99	94.6699	6,062.99	80.433	6,062.99	95.5999	6,062.99	94.7787	6,062.99	94.3122	6,062.99	87.9926	6,062.99	97.9849	6,062.99	96.1955	6,062.99	102.133	6,062.99	99.5711	6,062.99	105.571	6,062.99	105.038	6,062.99	107.19	6,062.99	107.184	6,062.99	106.199	6,062.99	103.943	6,062.99	110.271
6,276.86	101.059	6,276.86	102.852	6,276.86	103.71	6,276.86	99.758	6,276.86	102.876	6,276.86	96.1477	6,276.86	100.288	6,276.86	96.7238	6,276.86	99.4857	6,276.86	88.987	6,276.86	97.2906	6,276.86	90.7374	6,276.86	94.0894	6,276.86	86.6135	6,276.86	90.5101	6,276.86	81.6535	6,276.86	91.6047	6,276.86	75.9097	6,276.86	81.9202	6,276.86	93.5977	6,276.86	87.2121	6,276.86	94.0356	6,276.86	92.1866	6,276.86	91.6894	6,276.86	85.2278	6,276.86	96.0539	6,276.86	94.1507	6,276.86	101.167	6,276.86	96.9051	6,276.86	104.492	6,276.86	104.493	6,276.86	107.076	6,276.86	106.728	6,276.86	105.572	6,276.86	103.977	6,276.86	109.498
6,498.05	104.405	6,498.05	102.17	6,498.05	104.374	6,498.05	100.204	6,498.05	104.092	6,498.05	96.6453	6,498.05	101.619	6,498.05	96.3817	6,498.05	97.9682	6,498.05	85.5243	6,498.05	96.2168	6,498.05	91.8263	6,498.05	93.6712	6,498.05	83.1129	6,498.05	89.4849	6,498.05	77.7504	6,498.05	89.628	6,498.05	80.2319	6,498.05	76.875	6,498.05	92.5351	6,498.05	91.795	6,498.05	93.6997	6,498.05	86.4732	6,498.05	88.8317	6,498.05	88.4161	6,498.05	95.8409	6,498.05	88.1916	6,498.05	99.9293	6,498.05	96.7537	6,498.05	102.82	6,498.05	104.117	6,498.05	105.825	6,498.05	106.81	6,498.05	106.807	6,498.05	105.929	6,498.05	108.949
6,726.56	106.612	6,726.56	102.232	6,726.56	106.202	6,726.56	101.097	6,726.56	103.953	6,726.56	98.3079	6,726.56	102.429	6,726.56	96.4915	6,726.56	98.4417	6,726.56	89.467	6,726.56	95.5101	6,726.56	90.4757	6,726.56	92.5533	6,726.56	79.9796	6,726.56	87.585	6,726.56	69.1163	6,726.56	83.3941	6,726.56	82.1697	6,726.56	84.595	6,726.56	90.1706	6,726.56	93.5302	6,726.56	92.5914	6,726.56	79.3824	6,726.56	85.3802	6,726.56	88.7187	6,726.56	93.9875	6,726.56	90.8679	6,726.56	99.5197	6,726.56	97.7214	6,726.56	102.394	6,726.56	103.637	6,726.56	106.012	6,726.56	106.648	6,726.56	106.568	6,726.56	107.527	6,726.56	108.648
6,963.87	106.827	6,963.87	103.863	6,963.87	105.659	6,963.87	102.372	6,963.87	102.655	6,963.87	98.9746	6,963.87	101.417	6,963.87	95.7662	6,963.87	98.5934	6,963.87	92.0023	6,963.87	93.2357	6,963.87	88.7385	6,963.87	92.0829	6,963.87	83.5181	6,963.87	79.8195	6,963.87	61.5072	6,963.87	81.5205	6,963.87	82.8712	6,963.87	88.1207	6,963.87	87.2042	6,963.87	92.706	6,963.87	92.0751	6,963.87	86.6676	6,963.87	80.8079	6,963.87	89.3353	6,963.87	91.199	6,963.87	92.901	6,963.87	99.8351	6,963.87	98.1576	6,963.87	102.258	6,963.87	102.418	6,963.87	105.801	6,963.87	106.418	6,963.87	108.205	6,963.87	107.041	6,963.87	108.415
7,209.96	105.535	7,209.96	103.923	7,209.96	104.632	7,209.96	100.928	7,209.96	103.329	7,209.96	98.5686	7,209.96	100.645	7,209.96	93.4442	7,209.96	98.7863	7,209.96	92.0379	7,209.96	90.9119	7,209.96	84.3343	7,209.96	91.3511	7,209.96	86.4279	7,209.96	66.8489	7,209.96	74.0546	7,209.96	85.1736	7,209.96	84.5793	7,209.96	86.5348	7,209.96	88.7743	7,209.96	91.7227	7,209.96	90.3541	7,209.96	82.7907	7,209.96	73.9804	7,209.96	90.4119	7,209.96	85.41	7,209.96	92.7555	7,209.96	99.7735	7,209.96	95.3701	7,209.96	101.907	7,209.96	102.465	7,209.96	106.361	7,209.96	104.342	7,209.96	107.101	7,209.96	106.281	7,209.96	106.909
7,464.84	104.369	7,464.84	103.146	7,464.84	104.953	7,464.84	98.3171	7,464.84	103.002	7,464.84	96.1223	7,464.84	98.5206	7,464.84	87.3935	7,464.84	96.0756	7,464.84	87.8003	7,464.84	89.4402	7,464.84	78.5748	7,464.84	83.7259	7,464.84	84.7342	7,464.84	83.7846	7,464.84	78.8591	7,464.84	83.232	7,464.84	85.5687	7,464.84	80.6027	7,464.84	89.625	7,464.84	79.5736	7,464.84	85.8239	7,464.84	84.1806	7,464.84	78.1689	7,464.84	80.5598	7,464.84	78.8544	7,464.84	88.8592	7,464.84	99.1153	7,464.84	95.8615	7,464.84	100.227	7,464.84	99.4395	7,464.84	105.841	7,464.84	100.799	7,464.84	105.251	7,464.84	105.297	7,464.84	105.563
7,727.05	104.774	7,727.05	102.811	7,727.05	105.243	7,727.05	97.8163	7,727.05	102.211	7,727.05	94.176	7,727.05	97.6645	7,727.05	78.7807	7,727.05	94.2639	7,727.05	85.407	7,727.05	86.8743	7,727.05	84.3824	7,727.05	79.8051	7,727.05	84.2132	7,727.05	86.977	7,727.05	81.2275	7,727.05	83.9732	7,727.05	81.302	7,727.05	77.8899	7,727.05	88.3064	7,727.05	83.6783	7,727.05	80.213	7,727.05	80.6217	7,727.05	78.3391	7,727.05	69.2506	7,727.05	84.5279	7,727.05	84.9797	7,727.05	97.3601	7,727.05	91.1657	7,727.05	98.5936	7,727.05	96.5055	7,727.05	104.906	7,727.05	100.197	7,727.05	105.554	7,727.05	103.326	7,727.05	104.893
7,999.51	105.147	7,999.51	101.689	7,999.51	105.625	7,999.51	95.5838	7,999.51	102.563	7,999.51	88.2144	7,999.51	97.1665	7,999.51	78.175	7,999.51	92.8903	7,999.51	84.8281	7,999.51	76.9117	7,999.51	89.9169	7,999.51	81.9607	7,999.51	85.2163	7,999.51	89.7298	7,999.51	85.6175	7,999.51	82.627	7,999.51	65.7413	7,999.51	83.4222	7,999.51	86.3425	7,999.51	85.2756	7,999.51	80.9649	7,999.51	77.3085	7,999.51	82.9384	7,999.51	75.5307	7,999.51	87.2801	7,999.51	79.3052	7,999.51	95.7924	7,999.51	91.1604	7,999.51	97.456	7,999.51	97.4102	7,999.51	103.105	7,999.51	100.125	7,999.51	105.316	7,999.51	103.006	7,999.51	103.105
8,282.23	104.091	8,282.23	100.027	8,282.23	104.748	8,282.23	95.0345	8,282.23	102.315	8,282.23	87.5797	8,282.23	96.8822	8,282.23	83.4401	8,282.23	91.5925	8,282.23	83.5493	8,282.23	76.9061	8,282.23	87.2151	8,282.23	82.7355	8,282.23	84.1561	8,282.23	85.7337	8,282.23	83.6118	8,282.23	83.8354	8,282.23	72.5644	8,282.23	86.3078	8,282.23	81.9213	8,282.23	86.4082	8,282.23	80.3439	8,282.23	80.3959	8,282.23	85.7857	8,282.23	74.9879	8,282.23	92.5943	8,282.23	69.8207	8,282.23	92.9658	8,282.23	89.8748	8,282.23	97.3128	8,282.23	96.651	8,282.23	102.466	8,282.23	97.4411	8,282.23	105.082	8,282.23	104.048	8,282.23	101.851
8,573.73	102.328	8,573.73	98.763	8,573.73	104.439	8,573.73	93.4264	8,573.73	102.901	8,573.73	89.8844	8,573.73	98.1008	8,573.73	87.5121	8,573.73	93.2332	8,573.73	88.1141	8,573.73	77.4977	8,573.73	82.316	8,573.73	80.9298	8,573.73	84.6861	8,573.73	84.465	8,573.73	74.5292	8,573.73	85.7123	8,573.73	79.5133	8,573.73	87.7551	8,573.73	81.8647	8,573.73	67.9622	8,573.73	81.0914	8,573.73	80.6292	8,573.73	81.877	8,573.73	86.4818	8,573.73	94.3238	8,573.73	51.7313	8,573.73	91.4105	8,573.73	89.6378	8,573.73	96.6011	8,573.73	95.9026	8,573.73	102.293	8,573.73	98.668	8,573.73	105.28	8,573.73	104.317	8,573.73	101.762
8,876.95	103.959	8,876.95	100.515	8,876.95	104.759	8,876.95	94.4485	8,876.95	103.892	8,876.95	82.7703	8,876.95	99.681	8,876.95	87.9598	8,876.95	95.3252	8,876.95	90.0375	8,876.95	81.6712	8,876.95	84.3636	8,876.95	77.1777	8,876.95	89.1115	8,876.95	85.394	8,876.95	80.2642	8,876.95	85.6771	8,876.95	83.8279	8,876.95	85.9225	8,876.95	86.342	8,876.95	83.25	8,876.95	79.766	8,876.95	80.0959	8,876.95	87.3101	8,876.95	82.1837	8,876.95	95.7811	8,876.95	80.8673	8,876.95	91.517	8,876.95	90.0671	8,876.95	96.903	8,876.95	94.8437	8,876.95	102.96	8,876.95	99.5666	8,876.95	105.435	8,876.95	104.567	8,876.95	102.708
9,188.96	105.896	9,188.96	102.244	9,188.96	104.303	9,188.96	97.0412	9,188.96	102.022	9,188.96	78.667	9,188.96	96.9829	9,188.96	81.0881	9,188.96	90.2423	9,188.96	86.5453	9,188.96	85.1398	9,188.96	86.972	9,188.96	85.9896	9,188.96	87.4378	9,188.96	86.5692	9,188.96	80.6147	9,188.96	81.4775	9,188.96	77.594	9,188.96	82.8141	9,188.96	84.3276	9,188.96	83.9467	9,188.96	84.4195	9,188.96	78.9558	9,188.96	83.8369	9,188.96	70.4231	9,188.96	95.639	9,188.96	82.1388	9,188.96	91.2315	9,188.96	87.2759	9,188.96	95.5401	9,188.96	95.8974	9,188.96	103.12	9,188.96	100.171	9,188.96	105.798	9,188.96	104.959	9,188.96	102.353
9,514.16	105.828	9,514.16	102.356	9,514.16	105.263	9,514.16	94.9733	9,514.16	103.305	9,514.16	72.5911	9,514.16	96.6466	9,514.16	83.6993	9,514.16	83.9974	9,514.16	84.4464	9,514.16	84.736	9,514.16	87.1768	9,514.16	88.833	9,514.16	80.9009	9,514.16	87.1346	9,514.16	81.343	9,514.16	87.047	9,514.16	77.5453	9,514.16	82.8191	9,514.16	77.7106	9,514.16	86.2931	9,514.16	84.6535	9,514.16	83.5937	9,514.16	76.3562	9,514.16	80.0373	9,514.16	94.6418	9,514.16	87.9161	9,514.16	92.1001	9,514.16	88.4594	9,514.16	95.2469	9,514.16	96.7318	9,514.16	102.894	9,514.16	99.0455	9,514.16	105.965	9,514.16	106.115	9,514.16	103.057
9,849.61	105.25	9,849.61	102.603	9,849.61	106.089	9,849.61	93.862	9,849.61	103.76	9,849.61	89.4651	9,849.61	98.4154	9,849.61	85.1545	9,849.61	88.2308	9,849.61	87.6233	9,849.61	83.146	9,849.61	85.7742	9,849.61	91.2186	9,849.61	80.9436	9,849.61	87.6757	9,849.61	85.5117	9,849.61	85.844	9,849.61	85.0842	9,849.61	81.4749	9,849.61	77.2431	9,849.61	81.2818	9,849.61	84.075	9,849.61	81.2532	9,849.61	70.173	9,849.61	79.5467	9,849.61	94.5555	9,849.61	88.6347	9,849.61	92.3872	9,849.61	83.6659	9,849.61	95.1936	9,849.61	94.9993	9,849.61	103.01	9,849.61	99.3458	9,849.61	106.804	9,849.61	106.355	9,849.61	103.804
10,196.8	105.191	10,196.8	103.027	10,196.8	106.192	10,196.8	98.7232	10,196.8	104.278	10,196.8	95.6396	10,196.8	100.714	10,196.8	89.8887	10,196.8	94.7768	10,196.8	83.1939	10,196.8	89.3807	10,196.8	70.6118	10,196.8	92.4334	10,196.8	83.4286	10,196.8	87.9147	10,196.8	85.6748	10,196.8	86.795	10,196.8	84.4259	10,196.8	85.1101	10,196.8	85.432	10,196.8	77.9402	10,196.8	80.6929	10,196.8	83.3637	10,196.8	77.4561	10,196.8	75.8111	10,196.8	93.8241	10,196.8	89.0407	10,196.8	90.808	10,196.8	87.4415	10,196.8	94.4721	10,196.8	95.2692	10,196.8	103.397	10,196.8	100.314	10,196.8	107.856	10,196.8	107.052	10,196.8	104.952
10,555.7	102.355	10,555.7	101.387	10,555.7	102.635	10,555.7	101.72	10,555.7	103.652	10,555.7	97.5275	10,555.7	101.89	10,555.7	90.3161	10,555.7	99.1632	10,555.7	87.8603	10,555.7	91.7676	10,555.7	76.3989	10,555.7	87.9586	10,555.7	87.6252	10,555.7	83.9994	10,555.7	80.7712	10,555.7	89.1574	10,555.7	72.8723	10,555.7	86.0047	10,555.7	84.444	10,555.7	90.6184	10,555.7	84.9951	10,555.7	86.8419	10,555.7	64.9008	10,555.7	76.112	10,555.7	92.6298	10,555.7	88.9829	10,555.7	92.309	10,555.7	90.5171	10,555.7	95.2239	10,555.7	96.2189	10,555.7	103.268	10,555.7	101.789	10,555.7	108.654	10,555.7	108.032	10,555.7	106.203
10,927.7	103.481	10,927.7	100.616	10,927.7	98.4663	10,927.7	100.562	10,927.7	100.082	10,927.7	95.3968	10,927.7	100.305	10,927.7	87.2679	10,927.7	99.2059	10,927.7	86.1863	10,927.7	87.702	10,927.7	87.5264	10,927.7	83.6261	10,927.7	86.3621	10,927.7	87.0514	10,927.7	82.9569	10,927.7	89.1968	10,927.7	83.6562	10,927.7	73.4111	10,927.7	78.3079	10,927.7	79.8132	10,927.7	91.2776	10,927.7	79.3199	10,927.7	82.0268	10,927.7	79.8605	10,927.7	86.7181	10,927.7	91.7004	10,927.7	91.7348	10,927.7	92.3753	10,927.7	96.7973	10,927.7	97.2907	10,927.7	104.568	10,927.7	103.953	10,927.7	109.754	10,927.7	108.776	10,927.7	108.105
11,313	105.549	11,313	102.171	11,313	103.478	11,313	97.8522	11,313	99.4034	11,313	93.2163	11,313	99.9111	11,313	87.5055	11,313	97.8677	11,313	88.0153	11,313	88.7182	11,313	80.0476	11,313	84.8437	11,313	90.1282	11,313	87.5939	11,313	84.6447	11,313	87.1997	11,313	85.7013	11,313	63.9911	11,313	78.6667	11,313	84.7932	11,313	87.9473	11,313	89.7403	11,313	86.6083	11,313	81.5134	11,313	84.3191	11,313	86.5437	11,313	87.7409	11,313	93.0519	11,313	97.5101	11,313	93.5924	11,313	105.203	11,313	104.116	11,313	110.744	11,313	109.557	11,313	109.894
11,712.9	105.741	11,712.9	100.095	11,712.9	104.388	11,712.9	96.7869	11,712.9	96.9194	11,712.9	94.0061	11,712.9	99.4182	11,712.9	90.447	11,712.9	94.7559	11,712.9	83.976	11,712.9	88.4111	11,712.9	84.8107	11,712.9	87.1357	11,712.9	87.192	11,712.9	85.9059	11,712.9	78.2319	11,712.9	83.0646	11,712.9	66.6182	11,712.9	74.4358	11,712.9	79.4063	11,712.9	87.2729	11,712.9	75.473	11,712.9	91.6592	11,712.9	84.4723	11,712.9	84.0923	11,712.9	84.9782	11,712.9	86.6111	11,712.9	93.0963	11,712.9	93.706	11,712.9	100.137	11,712.9	89.3113	11,712.9	107.446	11,712.9	106.71	11,712.9	112.513	11,712.9	110.486	11,712.9	112.07
12,126	107.406	12,126	96.805	12,126	104.972	12,126	95.8149	12,126	93.6255	12,126	95.4148	12,126	95.8621	12,126	91.0596	12,126	93.3277	12,126	85.3352	12,126	89.1877	12,126	86.4887	12,126	86.1971	12,126	79.4666	12,126	80.3572	12,126	84.0184	12,126	84.4848	12,126	77.5851	12,126	78.6786	12,126	82.775	12,126	74.9298	12,126	89.5314	12,126	88.8292	12,126	85.3166	12,126	81.2199	12,126	88.3868	12,126	93.1176	12,126	94.6222	12,126	82.7556	12,126	103.976	12,126	93.9527	12,126	109.059	12,126	106.297	12,126	114.522	12,126	111.665	12,126	114.338
12,553.7	107.12	12,553.7	95.0184	12,553.7	104.41	12,553.7	88.3812	12,553.7	92.412	12,553.7	92.6965	12,553.7	93.9932	12,553.7	90.3732	12,553.7	94.6773	12,553.7	83.5276	12,553.7	90.5218	12,553.7	80.2187	12,553.7	83.9428	12,553.7	84.8113	12,553.7	77.6529	12,553.7	71.438	12,553.7	86.0672	12,553.7	87.2013	12,553.7	83.3469	12,553.7	86.2687	12,553.7	91.9328	12,553.7	87.2676	12,553.7	92.9441	12,553.7	89.3184	12,553.7	90.6749	12,553.7	93.3597	12,553.7	91.4814	12,553.7	82.5377	12,553.7	94.0035	12,553.7	105.36	12,553.7	96.4597	12,553.7	109.491	12,553.7	109.843	12,553.7	116.103	12,553.7	115.068	12,553.7	118.194
12,996.1	105.778	12,996.1	96.2226	12,996.1	104.993	12,996.1	83.7289	12,996.1	88.1108	12,996.1	91.9608	12,996.1	96.2099	12,996.1	89.0067	12,996.1	95.4642	12,996.1	89.687	12,996.1	88.649	12,996.1	78.4826	12,996.1	77.2908	12,996.1	88.4711	12,996.1	81.8934	12,996.1	89.1947	12,996.1	87.4409	12,996.1	87.6711	12,996.1	82.6276	12,996.1	86.9188	12,996.1	94.776	12,996.1	91.1068	12,996.1	96.9188	12,996.1	98.3486	12,996.1	95.1029	12,996.1	91.1287	12,996.1	94.1159	12,996.1	100.784	12,996.1	83.2379	12,996.1	104.876	12,996.1	98.9708	12,996.1	111.272	12,996.1	111.398	12,996.1	116.563	12,996.1	116.777	12,996.1	120.284
13,454.6	105.845	13,454.6	95.3263	13,454.6	105.798	13,454.6	92.5021	13,454.6	89.0456	13,454.6	92.6942	13,454.6	95.7931	13,454.6	88.4783	13,454.6	92.2118	13,454.6	75.8742	13,454.6	87.1258	13,454.6	82.7988	13,454.6	65.6233	13,454.6	72.9253	13,454.6	73.6633	13,454.6	83.1746	13,454.6	77.3933	13,454.6	91.9191	13,454.6	81.0021	13,454.6	87.9178	13,454.6	87.1504	13,454.6	94.0889	13,454.6	93.0933	13,454.6	94.6087	13,454.6	93.2136	13,454.6	79.7082	13,454.6	96.3147	13,454.6	100.419	13,454.6	100.346	13,454.6	100.941	13,454.6	97.6617	13,454.6	108.062	13,454.6	102.538	13,454.6	113.926	13,454.6	113.04	13,454.6	117.192
13,929.2	107.369	13,929.2	93.8577	13,929.2	106.894	13,929.2	91.0463	13,929.2	88.4469	13,929.2	91.265	13,929.2	93.5358	13,929.2	83.1613	13,929.2	91.2749	13,929.2	83.5375	13,929.2	83.3094	13,929.2	80.4129	13,929.2	85.5499	13,929.2	81.9848	13,929.2	72.3242	13,929.2	81.8822	13,929.2	84.3354	13,929.2	86.4245	13,929.2	85.8714	13,929.2	91.391	13,929.2	83.4216	13,929.2	90.5912	13,929.2	88.9849	13,929.2	88.6747	13,929.2	86.9768	13,929.2	86.1001	13,929.2	93.6294	13,929.2	96.4068	13,929.2	98.5506	13,929.2	74.053	13,929.2	86.7599	13,929.2	102.286	13,929.2	103.674	13,929.2	110.014	13,929.2	109.271	13,929.2	112.97
14,419.9	108.045	14,419.9	94.6433	14,419.9	106.712	14,419.9	91.6573	14,419.9	92.0351	14,419.9	85.9061	14,419.9	93.3241	14,419.9	86.6952	14,419.9	90.0672	14,419.9	84.8359	14,419.9	82.9816	14,419.9	82.5769	14,419.9	83.213	14,419.9	52.7985	14,419.9	68.7403	14,419.9	79.4208	14,419.9	84.4409	14,419.9	88.9766	14,419.9	84.4624	14,419.9	88.6662	14,419.9	91.0533	14,419.9	85.7548	14,419.9	82.2796	14,419.9	81.1177	14,419.9	87.0207	14,419.9	93.6558	14,419.9	94.2646	14,419.9	91.2122	14,419.9	102.262	14,419.9	95.2914	14,419.9	91.3705	14,419.9	102.358	14,419.9	107.792	14,419.9	110.213	14,419.9	109.532	14,419.9	113.61
14,928.2	107.702	14,928.2	94.9816	14,928.2	107.843	14,928.2	95.6506	14,928.2	98.1813	14,928.2	85.7941	14,928.2	92.6543	14,928.2	83.5427	14,928.2	88.5489	14,928.2	86.0859	14,928.2	82.4634	14,928.2	76.4349	14,928.2	79.2428	14,928.2	73.04	14,928.2	82.4972	14,928.2	86.2176	14,928.2	77.6585	14,928.2	91.2073	14,928.2	79.1464	14,928.2	89.0194	14,928.2	84.1143	14,928.2	82.0183	14,928.2	79.2362	14,928.2	73.678	14,928.2	91.779	14,928.2	95.2269	14,928.2	94.9129	14,928.2	85.5701	14,928.2	103.818	14,928.2	95.6514	14,928.2	95.4532	14,928.2	103.274	14,928.2	110.294	14,928.2	111.596	14,928.2	112.205	14,928.2	115.321
15,455.6	106.769	15,455.6	90.9788	15,455.6	106.802	15,455.6	92.4262	15,455.6	92.8718	15,455.6	87.0748	15,455.6	89.7372	15,455.6	78.4783	15,455.6	87.3727	15,455.6	83.6348	15,455.6	79.3508	15,455.6	72.6309	15,455.6	87.5586	15,455.6	84.4888	15,455.6	78.7134	15,455.6	79.3923	15,455.6	73.6836	15,455.6	90.4561	15,455.6	73.0295	15,455.6	89.3191	15,455.6	82.7898	15,455.6	89.8298	15,455.6	88.9361	15,455.6	86.3181	15,455.6	92.7108	15,455.6	94.7755	15,455.6	89.1609	15,455.6	87.4147	15,455.6	103.551	15,455.6	98.7162	15,455.6	91.4243	15,455.6	105.126	15,455.6	113.224	15,455.6	111.73	15,455.6	113.426	15,455.6	117.038
16,000.5	102.408	16,000.5	94.4849	16,000.5	104.07	16,000.5	88.5592	16,000.5	87.1633	16,000.5	91.6184	16,000.5	92.236	16,000.5	86.2721	16,000.5	86.6145	16,000.5	84.9517	16,000.5	79.5069	16,000.5	82.5102	16,000.5	86.6634	16,000.5	88.3544	16,000.5	83.0707	16,000.5	81.2807	16,000.5	70.6815	16,000.5	90.4013	16,000.5	79.884	16,000.5	84.4275	16,000.5	93.3783	16,000.5	91.7913	16,000.5	96.3786	16,000.5	93.1922	16,000.5	91.7014	16,000.5	92.6121	16,000.5	92.6428	16,000.5	94.4721	16,000.5	103.312	16,000.5	105.36	16,000.5	96.37	16,000.5	105.911	16,000.5	114.771	16,000.5	111.914	16,000.5	115.167	16,000.5	118.485
16,564.5	102.421	16,564.5	100.655	16,564.5	102.43	16,564.5	98.7266	16,564.5	88.8155	16,564.5	90.8199	16,564.5	92.6858	16,564.5	89.1963	16,564.5	93.2211	16,564.5	83.4775	16,564.5	87.0562	16,564.5	85.029	16,564.5	74.3355	16,564.5	87.0858	16,564.5	81.4621	16,564.5	79.038	16,564.5	85.9028	16,564.5	82.1913	16,564.5	76.1443	16,564.5	77.907	16,564.5	89.3638	16,564.5	80.2772	16,564.5	94.4533	16,564.5	91.9552	16,564.5	73.4565	16,564.5	85.061	16,564.5	89.1692	16,564.5	96.5603	16,564.5	94.0155	16,564.5	106.011	16,564.5	85.9949	16,564.5	107.627	16,564.5	113.103	16,564.5	113.475	16,564.5	115.204	16,564.5	119.461
17,148.9	106.182	17,148.9	99.6175	17,148.9	103.096	17,148.9	94.9494	17,148.9	100.334	17,148.9	87.752	17,148.9	92.9991	17,148.9	83.889	17,148.9	89.488	17,148.9	82.2153	17,148.9	80.3093	17,148.9	88.2277	17,148.9	74.6731	17,148.9	77.3036	17,148.9	84.9026	17,148.9	77.7902	17,148.9	80.7031	17,148.9	80.79	17,148.9	81.2983	17,148.9	80.7214	17,148.9	82.3963	17,148.9	91.5827	17,148.9	89.0767	17,148.9	88.3458	17,148.9	65.7151	17,148.9	87.6306	17,148.9	88.5729	17,148.9	95.8894	17,148.9	93.4673	17,148.9	105.259	17,148.9	91.3142	17,148.9	105.945	17,148.9	110.033	17,148.9	112.442	17,148.9	113.166	17,148.9	117.655
17,752.4	104.28	17,752.4	100.514	17,752.4	104.155	17,752.4	95.4136	17,752.4	97.8416	17,752.4	91.0539	17,752.4	88.5716	17,752.4	82.4287	17,752.4	82.3556	17,752.4	85.8179	17,752.4	83.2915	17,752.4	90.4245	17,752.4	85.7192	17,752.4	82.9435	17,752.4	84.8955	17,752.4	84.1388	17,752.4	80.895	17,752.4	81.104	17,752.4	83.1469	17,752.4	80.1307	17,752.4	86.5614	17,752.4	91.0428	17,752.4	86.2202	17,752.4	80.681	17,752.4	84.4827	17,752.4	89.4679	17,752.4	89.2101	17,752.4	95.7385	17,752.4	91.9114	17,752.4	106.851	17,752.4	86.4277	17,752.4	107.549	17,752.4	110.643	17,752.4	113.074	17,752.4	114.225	17,752.4	119.203
18,379.4	102.14	18,379.4	97.8024	18,379.4	102.757	18,379.4	94.768	18,379.4	97.9423	18,379.4	89.2867	18,379.4	82.4135	18,379.4	81.2683	18,379.4	90.5841	18,379.4	90.3168	18,379.4	82.4511	18,379.4	80.1656	18,379.4	82.5521	18,379.4	79.6672	18,379.4	86.0324	18,379.4	88.492	18,379.4	80.6272	18,379.4	79.8473	18,379.4	68.2164	18,379.4	84.2788	18,379.4	79.257	18,379.4	70.2473	18,379.4	89.4014	18,379.4	79.2082	18,379.4	91.451	18,379.4	90.68	18,379.4	88.6656	18,379.4	97.4001	18,379.4	92.3662	18,379.4	104.967	18,379.4	93.3155	18,379.4	109.047	18,379.4	110.843	18,379.4	113.217	18,379.4	114.094	18,379.4	119.545
19,026.9	104.086	19,026.9	93.3774	19,026.9	102.222	19,026.9	91.519	19,026.9	92.8173	19,026.9	90.3483	19,026.9	91.9324	19,026.9	74.8993	19,026.9	90.5818	19,026.9	69.4539	19,026.9	70.8005	19,026.9	86.4377	19,026.9	87.0177	19,026.9	89.0863	19,026.9	80.8442	19,026.9	80.966	19,026.9	77.7877	19,026.9	78.8901	19,026.9	83.6396	19,026.9	75.031	19,026.9	89.7816	19,026.9	88.7301	19,026.9	93.0121	19,026.9	74.3513	19,026.9	87.2298	19,026.9	92.5056	19,026.9	87.7819	19,026.9	92.6314	19,026.9	93.2468	19,026.9	101.16	19,026.9	89.0859	19,026.9	106.689	19,026.9	109.499	19,026.9	113.412	19,026.9	112.42	19,026.9	118.749
19,697.8	98.9333	19,697.8	94.3523	19,697.8	97.9283	19,697.8	91.005	19,697.8	71.9835	19,697.8	90.166	19,697.8	88.1858	19,697.8	75.0183	19,697.8	85.9928	19,697.8	80.6804	19,697.8	76.9035	19,697.8	78.1736	19,697.8	80.5072	19,697.8	77.8969	19,697.8	76.395	19,697.8	68.1518	19,697.8	61.2358	19,697.8	76.3893	19,697.8	78.3808	19,697.8	84.1277	19,697.8	86.2443	19,697.8	88.5281	19,697.8	89.7425	19,697.8	75.1972	19,697.8	77.8692	19,697.8	89.7861	19,697.8	83.3931	19,697.8	87.5413	19,697.8	89.2985	19,697.8	104.289	19,697.8	92.6881	19,697.8	99.3429	19,697.8	101.544	19,697.8	109.486	19,697.8	106.037	19,697.8	112.992
19,999.5	97.167	19,999.5	95.0184	19,999.5	96.101	19,999.5	93.5551	19,999.5	81.1882	19,999.5	90.1699	19,999.5	84.9536	19,999.5	79.5998	19,999.5	87.1033	19,999.5	76.1974	19,999.5	69.6793	19,999.5	74.0323	19,999.5	75.7127	19,999.5	80.5155	19,999.5	76.6307	19,999.5	80.2764	19,999.5	67.3187	19,999.5	80.6933	19,999.5	81.0032	19,999.5	84.1008	19,999.5	82.1305	19,999.5	84.7609	19,999.5	86.112	19,999.5	67.2699	19,999.5	58.9667	19,999.5	89.431	19,999.5	78.6794	19,999.5	87.9864	19,999.5	82.0707	19,999.5	103.199	19,999.5	93.7117	19,999.5	95.904	19,999.5	88.4142	19,999.5	105.727	19,999.5	97.6964	19,999.5	106.32
