Freq[Hz]     dBSPL  Phase[Deg]
5.00000     31.393    -2.855
5.07273     31.403    -2.935
5.14651     31.412    -3.023
5.22137     31.418    -3.132
5.29732     31.423    -3.240
5.37437     31.428    -3.348
5.45254     31.433    -3.457
5.53185     31.436    -3.558
5.61231     31.435    -3.652
5.69394     31.434    -3.746
5.77676     31.434    -3.840
5.86079     31.433    -3.933
5.94604     31.432    -3.973
6.03252     31.432    -4.013
6.12027     31.431    -4.053
6.20929     31.430    -4.094
6.29961     31.438    -4.098
6.39124     31.447    -4.095
6.48420     31.456    -4.092
6.57851     31.466    -4.089
6.67420     31.488    -4.110
6.77128     31.512    -4.135
6.86977     31.536    -4.161
6.96969     31.561    -4.199
7.07107     31.593    -4.334
7.17392     31.626    -4.470
7.27827     31.659    -4.605
7.38413     31.688    -4.808
7.49154     31.713    -5.062
7.60050     31.739    -5.316
7.71105     31.761    -5.574
7.82321     31.769    -5.850
7.93701     31.777    -6.125
8.05245     31.785    -6.401
8.16958     31.784    -6.564
8.28841     31.782    -6.722
8.40896     31.781    -6.880
8.53128     31.800    -6.907
8.65537     31.821    -6.917
8.78126     31.842    -6.927
8.90899     31.912    -6.999
9.03857     31.986    -7.074
9.17004     32.065    -7.201
9.30342     32.183    -7.733
9.43874     32.301    -8.265
9.57603     32.413    -9.089
9.71532     32.515   -10.361
9.85663     32.618   -11.632
10.0000     32.595   -13.460
10.1455     32.538   -15.442
10.2930     32.419   -17.514
10.4427     32.128   -19.837
10.5946     31.837   -22.160
10.7487     31.330   -24.118
10.9051     30.780   -26.002
11.0637     30.091   -26.926
11.2246     29.254   -26.834
11.3879     28.411   -25.767
11.5535     27.542   -21.146
11.7216     26.687   -16.458
11.8921     26.653    -7.826
12.0650     26.619     0.806
12.2405     27.438     6.341
12.4186     28.367    11.478
12.5992     29.357    12.190
12.7825     30.360    11.922
12.9684     31.123     9.156
13.1570     31.828     5.808
13.3484     32.237     1.202
13.5426     32.598    -3.607
13.7395     32.629    -8.961
13.9394     32.607   -14.329
14.1421     32.281   -19.645
14.3478     31.838   -24.738
14.5565     31.142   -29.348
14.7683     30.206   -32.977
14.9831     29.086   -35.847
15.2010     27.577   -35.319
15.4221     25.990   -32.617
15.6464     24.359   -22.920
15.8740     23.635    -8.960
16.1049     23.638     8.403
16.3392     25.232    18.969
16.5768     26.890    25.966
16.8179     28.552    28.147
17.0626     29.869    27.055
17.3107     31.004    24.952
17.5625     31.931    21.956
17.8180     32.617    18.486
18.0771     33.194    14.938
18.3401     33.666    11.345
18.6068     34.024     7.757
18.8775     34.299     4.125
19.1521     34.492     0.449
19.4306     34.589    -3.256
19.7133     34.517    -6.798
20.0000     34.277    -9.683
20.2909     33.899   -11.393
20.5860     33.447   -11.364
20.8855     33.040    -9.027
21.1893     33.046    -4.298
21.4975     33.563    -0.040
21.8102     34.379     2.060
22.1274     35.248     1.545
22.4492     35.943    -1.091
22.7758     36.327    -4.701
23.1071     36.370    -7.891
23.4432     36.153    -9.183
23.7841     35.951    -7.225
24.1301     36.172    -2.976
24.4811     36.945     0.670
24.8372     38.009     1.533
25.1984     39.019    -0.490
25.5649     39.762    -4.244
25.9368     40.183    -8.297
26.3141     40.348   -11.412
26.6968     40.410   -12.834
27.0851     40.560   -12.630
27.4791     40.933   -11.733
27.8788     41.495   -11.288
28.2843     42.126   -11.678
28.6957     42.750   -12.687
29.1131     43.348   -14.022
29.5365     43.925   -15.572
29.9661     44.474   -17.321
30.4020     44.976   -19.142
30.8442     45.425   -20.678
31.2929     45.886   -21.738
31.7480     46.423   -22.506
32.2098     47.053   -23.467
32.6783     47.724   -25.115
33.1536     48.350   -27.278
33.6359     48.908   -29.521
34.1251     49.430   -31.481
34.6215     49.982   -33.213
35.1250     50.572   -35.038
35.6359     51.167   -37.173
36.1543     51.735   -39.449
36.6802     52.282   -41.643
37.2137     52.842   -43.729
37.7550     53.425   -45.896
38.3041     54.011   -48.279
38.8613     54.579   -50.759
39.4265     55.139   -53.215
40.0000     55.710   -55.707
40.5818     56.288   -58.398
41.1721     56.837   -61.294
41.7710     57.348   -64.196
42.3785     57.839   -66.931
42.9949     58.332   -69.547
43.6203     58.834   -72.115
44.2548     59.348   -74.628
44.8985     59.889   -77.170
45.5515     60.446   -79.940
46.2141     60.984   -82.954
46.8863     61.489   -85.941
47.5683     62.008   -88.790
48.2602     62.557   -91.871
48.9621     63.075   -95.323
49.6743     63.526   -98.726
50.3968     63.968  -101.776
51.1299     64.455  -104.776
51.8736     64.953  -108.047
52.6281     65.424  -111.442
53.3936     65.887  -114.821
54.1702     66.350  -118.302
54.9581     66.794  -121.911
55.7575     67.219  -125.561
56.5685     67.628  -129.281
57.3914     68.006  -133.056
58.2261     68.348  -136.755
59.0730     68.670  -140.295
59.9323     68.981  -143.632
60.8040     69.308  -146.779
61.6884     69.666  -149.949
62.5857     70.026  -153.270
63.4960     70.371  -156.629
64.4196     70.715  -159.995
65.3566     71.048  -163.470
66.3073     71.347  -166.902
67.2717     71.637  -170.057
68.2502     71.963  -173.109
69.2429     72.309  -176.284
70.2501     72.655  -179.538
71.2719     73.007   177.154
72.3086     73.365   173.715
73.3603     73.714   170.078
74.4274     74.030   166.355
75.5099     74.326   162.702
76.6083     74.608   159.081
77.7226     74.881   155.639
78.8531     75.186   152.293
80.0000     75.510   148.788
81.1636     75.840   145.145
82.3442     76.169   141.290
83.5419     76.477   137.236
84.7570     76.753   133.094
85.9899     77.008   128.961
87.2406     77.246   124.790
88.5096     77.477   120.601
89.7970     77.688   116.076
91.1031     77.781   111.492
92.4282     77.811   107.741
93.7726     77.906   104.518
95.1366     78.045   101.309
96.5204     78.209    98.294
97.9243     78.459    95.210
99.3486     78.728    91.614
100.794     78.974    87.700
102.260     79.187    83.773
103.747     79.411    79.667
105.256     79.579    75.425
106.787     79.729    71.400
108.340     79.907    67.420
109.916     80.095    63.175
111.515     80.250    58.591
113.137     80.341    54.126
114.783     80.423    49.701
116.452     80.477    45.387
118.146     80.523    41.202
119.865     80.578    37.092
121.608     80.637    32.909
123.377     80.679    28.642
125.171     80.698    24.360
126.992     80.698    20.193
128.839     80.702    16.115
130.713     80.708    11.959
132.615     80.682     7.671
134.543     80.616     3.625
136.500     80.578    -0.315
138.486     80.534    -3.847
140.500     80.521    -7.427
142.544     80.556   -11.817
144.617     80.469   -16.095
146.721     80.377   -19.435
148.855     80.390   -23.084
151.020     80.449   -27.609
153.217     80.291   -33.050
155.445     79.935   -36.517
157.706     79.781   -39.078
160.000     79.688   -42.029
162.327     79.640   -44.789
164.688     79.715   -47.300
167.084     79.910   -51.423
169.514     79.844   -57.098
171.980     79.580   -61.562
174.481     79.430   -64.468
177.019     79.387   -68.415
179.594     79.072   -72.939
182.206     78.659   -75.160
184.856     78.656   -76.642
187.545     78.714   -79.951
190.273     78.536   -83.682
193.041     78.442   -85.809
195.849     78.465   -88.975
198.697     78.355   -92.876
201.587     78.127   -95.446
204.520     78.089   -97.400
207.494     78.165   -99.685
210.512     78.347  -103.323
213.574     78.220  -108.475
216.681     77.932  -110.431
219.833     77.967  -112.453
223.030     78.066  -115.268
226.274     78.158  -119.329
229.565     78.071  -123.327
232.905     77.868  -127.284
236.292     77.529  -129.139
239.729     77.603  -130.000
243.216     77.804  -132.659
246.754     77.990  -136.447
250.343     77.885  -141.224
253.984     77.777  -144.060
257.678     77.630  -148.104
261.426     77.353  -150.421
265.229     77.348  -151.716
269.087     77.391  -154.945
273.001     77.299  -158.009
276.972     77.090  -159.970
281.000     77.061  -160.657
285.088     77.343  -162.113
289.234     77.684  -165.491
293.441     77.864  -170.909
297.709     77.591  -175.918
302.040     77.363  -179.018
306.433     77.047   178.770
310.890     76.895   175.858
315.412     76.762   174.895
320.000     76.803   172.874
324.655     76.889   170.795
329.377     77.068   167.879
334.168     77.104   163.636
339.028     77.097   158.750
343.959     76.636   155.136
348.962     76.516   153.104
354.038     76.443   151.448
359.188     76.565   148.199
364.412     76.461   144.297
369.713     76.241   141.295
375.090     76.258   139.019
380.546     76.182   135.616
386.081     76.164   132.551
391.697     76.030   129.226
397.394     75.963   125.629
403.175     75.745   122.316
409.039     75.620   119.426
414.989     75.501   116.800
421.025     75.415   113.626
427.149     75.225   110.490
433.362     75.074   107.959
439.665     74.897   104.990
446.060     74.680   101.980
452.548     74.453    99.746
459.131     74.262    97.655
465.809     74.121    95.861
472.584     73.989    94.228
479.458     73.908    92.693
486.432     73.836    91.298
493.507     73.822    89.882
500.686     73.794    88.306
507.968     73.794    87.007
515.357     73.852    85.845
522.853     73.960    84.682
530.458     74.098    83.420
538.174     74.254    82.078
546.002     74.425    80.689
553.943     74.608    79.188
562.001     74.793    77.598
570.175     74.977    75.908
578.469     75.153    74.059
586.883     75.313    72.104
595.419     75.455    70.071
604.080     75.581    67.941
612.866     75.689    65.738
621.780     75.777    63.491
630.824     75.845    61.226
640.000     75.893    59.016
649.309     75.923    56.883
658.753     75.939    54.807
668.335     75.942    52.771
678.056     75.936    50.870
687.919     75.926    49.079
697.925     75.917    47.400
708.077     75.913    45.860
718.376     75.920    44.410
728.825     75.943    43.031
739.426     75.983    41.688
750.181     76.044    40.343
761.093     76.125    38.954
772.163     76.224    37.503
783.394     76.337    35.930
794.789     76.462    34.178
806.349     76.589    32.285
818.078     76.713    30.213
829.977     76.828    27.968
842.050     76.927    25.562
854.298     77.006    23.017
866.724     77.059    20.402
879.330     77.083    17.673
892.120     77.076    14.908
905.097     77.037    12.149
918.262     76.966     9.440
931.618     76.864     6.824
945.169     76.735     4.341
958.917     76.583     2.030
972.864     76.414    -0.078
987.015     76.234    -1.962
1001.37     76.046    -3.631
1015.94     75.866    -5.062
1030.71     75.704    -6.261
1045.71     75.563    -7.290
1060.92     75.448    -8.188
1076.35     75.367    -8.986
1092.00     75.320    -9.750
1107.89     75.306   -10.540
1124.00     75.324   -11.399
1140.35     75.370   -12.369
1156.94     75.441   -13.500
1173.77     75.531   -14.813
1190.84     75.634   -16.332
1208.16     75.742   -18.071
1225.73     75.849   -20.060
1243.56     75.947   -22.294
1261.65     76.027   -24.732
1280.00     76.080   -27.335
1298.62     76.103   -30.053
1317.51     76.092   -32.851
1336.67     76.046   -35.663
1356.11     75.969   -38.395
1375.84     75.869   -41.017
1395.85     75.753   -43.496
1416.15     75.635   -45.805
1436.75     75.525   -47.981
1457.65     75.427   -50.102
1478.85     75.342   -52.237
1500.36     75.262   -54.419
1522.19     75.176   -56.683
1544.33     75.073   -58.989
1566.79     74.946   -61.245
1589.58     74.796   -63.326
1612.70     74.640   -65.094
1636.16     74.501   -66.500
1659.95     74.413   -67.582
1684.10     74.405   -68.512
1708.60     74.486   -69.565
1733.45     74.640   -71.004
1758.66     74.832   -73.024
1784.24     75.017   -75.629
1810.19     75.160   -78.664
1836.52     75.242   -81.946
1863.24     75.264   -85.203
1890.34     75.247   -88.236
1917.83     75.226   -90.968
1945.73     75.236   -93.474
1974.03     75.295   -95.982
2002.74     75.397   -98.715
2031.87     75.511  -101.818
2061.43     75.602  -105.272
2091.41     75.644  -108.938
2121.83     75.633  -112.586
2152.69     75.587  -115.987
2184.01     75.539  -119.131
2215.77     75.517  -122.129
2248.00     75.526  -125.176
2280.70     75.544  -128.439
2313.87     75.538  -131.943
2347.53     75.482  -135.527
2381.68     75.376  -138.939
2416.32     75.245  -142.040
2451.46     75.120  -144.843
2487.12     75.016  -147.511
2523.30     74.920  -150.196
2560.00     74.802  -152.866
2597.24     74.655  -155.297
2635.01     74.507  -157.296
2673.34     74.409  -158.917
2712.23     74.388  -160.524
2751.68     74.411  -162.519
2791.70     74.406  -164.944
2832.31     74.327  -167.445
2873.50     74.191  -169.579
2915.30     74.060  -171.224
2957.70     73.976  -172.693
3000.72     73.911  -174.338
3044.37     73.802  -176.086
3088.65     73.635  -177.501
3133.58     73.474  -178.305
3179.16     73.380  -178.808
3225.40     73.328  -179.513
3272.31     73.234   179.629
3319.91     73.079   179.227
3368.20     72.958   179.618
3417.19     72.953  -179.705
3466.89     73.015  -179.395
3517.32     73.048  -179.288
3568.48     73.061  -178.766
3620.39     73.151  -177.810
3673.05     73.339  -177.008
3726.47     73.560  -176.570
3780.67     73.800  -176.246
3835.67     74.093  -176.182
3891.46     74.394  -176.785
3948.06     74.609  -177.800
4005.49     74.752  -178.557
4063.75     74.914  -179.058
4122.86     75.085  -179.784
4182.82     75.198   179.412
4243.66     75.289   178.985
4305.39     75.426   178.646
4368.01     75.559   177.954
4431.55     75.625   177.258
4496.01     75.667   176.891
4561.40     75.709   176.656
4627.75     75.731   176.688
4695.06     75.800   177.088
4763.35     75.924   177.174
4832.64     75.972   176.960
4902.93     75.957   177.461
4974.24     76.038   178.601
5046.60     76.213   179.497
5120.00     76.410  -179.814
5194.47     76.660  -179.285
5270.03     76.948  -179.374
5346.68     77.189   179.846
5424.45     77.332   178.743
5503.35     77.389   177.751
5583.40     77.402   176.889
5664.61     77.358   176.092
5747.01     77.264   175.615
5830.60     77.161   175.367
5915.41     77.038   175.198
6001.45     76.875   175.006
6088.74     76.602   175.120
6177.30     76.301   176.378
6267.15     76.102   178.270
6358.31     75.989  -179.499
6450.80     76.044  -177.394
6544.62     76.156  -176.519
6639.82     76.148  -176.435
6736.40     76.017  -176.158
6834.38     75.884  -175.684
6933.79     75.673  -175.469
7034.64     75.410  -174.714
7136.96     75.150  -174.148
7240.77     74.790  -173.426
7346.09     74.367  -172.256
7452.94     73.954  -170.220
7561.35     73.604  -168.322
7671.33     73.199  -166.145
7782.91     72.815  -163.746
7896.12     72.444  -161.278
8010.97     71.987  -158.983
8127.49     71.516  -156.039
8245.71     70.979  -153.191
8365.65     70.411  -149.633
8487.33     69.940  -145.419
8610.78     69.595  -143.015
8736.03     69.009  -141.243
8863.09     68.235  -139.563
8992.01     67.544  -136.745
9122.80     66.892  -135.082
9255.50     66.343  -134.621
9390.12     65.636  -135.773
9526.70     64.927  -137.274
9665.27     64.499  -141.885
9805.86     63.843  -149.743
9948.49     63.451  -160.072
10093.2     63.411  -175.963
10240.0     63.039   165.869
10388.9     62.994   152.212
10540.1     63.373   141.609
10693.4     63.856   136.078
10848.9     64.733   135.224
11006.7     66.070   135.416
11166.8     67.526   135.745
11329.2     69.033   135.246
11494.0     70.366   133.512
11661.2     71.413   131.514
11830.8     72.159   130.299
12002.9     72.707   130.283
12177.5     73.252   131.909
12354.6     73.822   133.017
12534.3     74.149   134.076
12716.6     74.343   137.173
12901.6     74.765   141.377
13089.2     75.370   143.907
13279.6     75.718   145.085
13472.8     75.843   146.856
13668.8     75.930   149.108
13867.6     75.873   151.114
14069.3     75.572   154.071
14273.9     75.158   159.352
14481.5     74.985   167.079
14692.2     75.326   174.573
14905.9     75.775   178.540
15122.7     75.872  -179.050
15342.7     75.686  -176.544
15565.8     75.299  -173.087
15792.2     74.877  -168.735
16021.9     74.415  -163.820
16255.0     73.996  -158.376
16491.4     73.614  -153.491
16731.3     73.075  -149.469
16974.7     72.279  -145.162
17221.6     71.287  -139.807
17472.1     70.226  -133.234
17726.2     69.080  -125.621
17984.0     67.970  -116.796
18245.6     66.914  -107.847
18511.0     65.798   -98.871
18780.2     64.567   -90.168
19053.4     63.024   -81.111
19330.5     61.164   -70.119
19611.7     59.166   -56.655
19897.0     57.027   -39.902
20186.4     55.312   -18.609
20480.0     53.653    -1.053
20777.9     50.822    26.058
21080.1     49.824    69.077
21386.7     52.015   104.059
21697.8     54.405   125.117
22013.4     56.401   139.504
22333.6     57.976   148.691
22658.4     58.740   154.582
22988.0     58.802   161.632
23322.4     58.621   170.581
23661.6     58.582   179.683
24005.8     58.516  -174.122
24355.0     58.072  -170.157
24709.2     57.440  -170.051
25068.6     55.930  -175.626
25433.2     53.317   173.489
25803.2     49.922   155.539
26178.5     47.025   127.173
26559.3     45.895   102.795
26945.6     46.088   100.673
27337.5     48.079   114.832
27735.2     50.900   123.235
28138.6     52.478   125.965
28547.9     52.743   134.514
28963.1     53.081   146.405
29384.4     52.926   157.670
29811.8     52.141   175.338
30245.4     52.426  -163.067
30685.3     52.743  -147.939
31131.7     52.338  -132.420
31584.5     51.704  -115.411
32043.9     50.722   -97.911
32510.0     49.336   -75.042
32982.8     48.727   -46.672
33462.6     49.326   -21.832
33949.3     49.633    -4.343
34443.1     49.205    12.535
34944.1     48.706    29.969
35452.4     47.651    44.397
35968.0     45.651    62.067
36491.2     43.395    86.723
37022.0     41.834   117.277
37560.5     41.183   142.926
38106.8     40.045   163.542
38661.1     37.973  -173.698
39223.4     35.459  -147.847
39793.9     32.587  -116.781
