Freq[Hz]     dBSPL  Phase[Deg]
5.00000     37.826    21.473
5.07273     37.833    21.741
5.14651     37.838    22.007
5.22137     37.840    22.265
5.29732     37.842    22.526
5.37437     37.843    22.789
5.45254     37.845    23.055
5.53185     37.844    23.336
5.61231     37.839    23.634
5.69394     37.834    23.935
5.77676     37.831    24.238
5.86079     37.826    24.545
5.94604     37.820    24.921
6.03252     37.815    25.300
6.12027     37.809    25.681
6.20929     37.804    26.065
6.29961     37.806    26.498
6.39124     37.810    26.944
6.48420     37.814    27.393
6.57851     37.818    27.845
6.67420     37.835    28.287
6.77128     37.853    28.730
6.86977     37.872    29.175
6.96969     37.891    29.612
7.07107     37.917    29.967
7.17392     37.943    30.325
7.27827     37.970    30.686
7.38413     37.992    30.991
7.49154     38.010    31.253
7.60050     38.029    31.519
7.71105     38.045    31.785
7.82321     38.045    32.049
7.93701     38.045    32.316
8.05245     38.045    32.586
8.16958     38.036    32.986
8.28841     38.026    33.393
8.40896     38.016    33.805
8.53128     38.026    34.362
8.65537     38.037    34.942
8.78126     38.049    35.526
8.90899     38.110    36.063
9.03857     38.174    36.602
9.17004     38.243    37.094
9.30342     38.352    37.197
9.43874     38.459    37.304
9.57603     38.559    37.126
9.71532     38.649    36.514
9.85663     38.736    35.906
10.0000     38.717    34.755
10.1455     38.647    33.457
10.2930     38.508    32.076
10.4427     38.209    30.458
10.5946     37.902    28.844
10.7487     37.380    27.611
10.9051     36.817    26.458
11.0637     36.113    26.274
11.2246     35.262    27.118
11.3879     34.405    28.944
11.5535     33.519    34.338
11.7216     32.650    39.804
11.8921     32.599    49.231
12.0650     32.550    58.662
12.2405     33.351    65.013
12.4186     34.264    70.970
12.5992     35.235    72.518
12.7825     36.221    73.094
12.9684     36.965    71.185
13.1570     37.652    68.702
13.3484     38.041    64.977
13.5426     38.382    61.055
13.7395     38.392    56.604
13.9394     38.350    52.146
14.1421     38.002    47.756
14.3478     37.538    43.599
14.5565     36.819    39.938
14.7683     35.861    37.269
14.9831     34.717    35.370
15.2010     33.183    36.884
15.4221     31.572    40.581
15.6464     29.916    51.289
15.8740     29.167    66.271
16.1049     29.144    84.668
16.3392     30.711    96.283
16.5768     32.341   104.340
16.8179     33.975   107.595
17.0626     35.263   107.591
17.3107     36.369   106.588
17.5625     37.267   104.705
17.8180     37.922   102.364
18.0771     38.467    99.957
18.3401     38.908    97.519
18.6068     39.233    95.100
18.8775     39.475    92.652
19.1521     39.634    90.173
19.4306     39.696    87.679
19.7133     39.589    85.364
20.0000     39.312    83.721
20.2909     38.898    83.266
20.5860     38.408    84.565
20.8855     37.963    88.188
21.1893     37.931    94.218
21.4975     38.408    99.793
21.8102     39.184   103.223
22.1274     40.011   104.055
22.4492     40.663   102.782
22.7758     41.005   100.550
23.1071     41.005    98.754
23.4432     40.743    98.872
23.7841     40.496   102.257
24.1301     40.671   107.949
24.4811     41.398   113.054
24.8372     42.414   115.393
25.1984     43.375   114.863
25.5649     44.069   112.619
25.9368     44.441   110.093
26.3141     44.554   108.522
26.6968     44.565   108.662
27.0851     44.663   110.444
27.4791     44.982   112.938
27.8788     45.490   114.997
28.2843     46.066   116.241
28.6957     46.635   116.883
29.1131     47.176   117.217
29.5365     47.697   117.356
29.9661     48.188   117.314
30.4020     48.630   117.218
30.8442     49.019   117.427
31.2929     49.420   118.131
31.7480     49.895   119.147
32.2098     50.463   119.990
32.6783     51.071   120.165
33.1536     51.633   119.847
33.6359     52.127   119.468
34.1251     52.585   119.392
34.6215     53.070   119.566
35.1250     53.593   119.667
35.6359     54.121   119.481
36.1543     54.620   119.174
36.6802     55.098   118.971
37.2137     55.588   118.900
37.7550     56.101   118.768
38.3041     56.615   118.444
38.8613     57.111   118.045
39.4265     57.598   117.695
40.0000     58.097   117.330
40.5818     58.599   116.791
41.1721     59.074   116.071
41.7710     59.510   115.369
42.3785     59.925   114.860
42.9949     60.342   114.494
43.6203     60.767   114.202
44.2548     61.203   113.989
44.8985     61.664   113.775
45.5515     62.143   113.358
46.2141     62.601   112.725
46.8863     63.026   112.146
47.5683     63.465   111.732
48.2602     63.933   111.114
48.9621     64.369   110.154
49.6743     64.737   109.271
50.3968     65.097   108.771
51.1299     65.501   108.350
51.8736     65.915   107.688
52.6281     66.302   106.932
53.3936     66.681   106.224
54.1702     67.059   105.445
54.9581     67.419   104.570
55.7575     67.758   103.687
56.5685     68.081   102.765
57.3914     68.373   101.824
58.2261     68.629   100.990
59.0730     68.863   100.352
59.9323     69.088    99.951
60.8040     69.328    99.775
61.6884     69.598    99.613
62.5857     69.870    99.337
63.4960     70.128    99.059
64.4196     70.384    98.812
65.3566     70.628    98.495
66.3073     70.839    98.260
67.2717     71.041    98.342
68.2502     71.278    98.567
69.2429     71.535    98.710
70.2501     71.793    98.815
71.2719     72.056    98.909
72.3086     72.326    98.915
73.3603     72.586    98.767
74.4274     72.814    98.577
75.5099     73.022    98.502
76.6083     73.215    98.506
77.7226     73.399    98.734
78.8531     73.618    99.107
80.0000     73.853    99.369
81.1636     74.094    99.541
82.3442     74.337    99.552
83.5419     74.557    99.415
84.7570     74.745    99.241
85.9899     74.913    99.128
87.2406     75.065    99.031
88.5096     75.210    98.969
89.7970     75.334    98.627
91.1031     75.342    98.282
92.4282     75.287    98.827
93.7726     75.297    99.958
95.1366     75.351   101.161
96.5204     75.431   102.618
97.9243     75.597   104.067
99.3486     75.784   105.066
100.794     75.945   105.810
102.260     76.077   106.605
103.747     76.220   107.286
105.256     76.307   107.897
106.787     76.376   108.792
108.340     76.475   109.801
109.916     76.583   110.613
111.515     76.658   111.158
113.137     76.671   111.894
114.783     76.676   112.742
116.452     76.654   113.776
118.146     76.624   115.015
119.865     76.603   116.404
121.608     76.588   117.799
123.377     76.557   119.190
125.171     76.503   120.646
126.992     76.430   122.299
128.839     76.363   124.125
130.713     76.299   125.957
132.615     76.203   127.743
134.543     76.067   129.902
136.500     75.957   132.277
138.486     75.855   134.916
140.500     75.775   137.769
142.544     75.738   140.074
144.617     75.590   142.354
146.721     75.439   145.634
148.855     75.386   148.870
151.020     75.382   151.296
153.217     75.163   152.872
155.445     74.749   156.492
157.706     74.540   161.087
160.000     74.385   165.559
162.327     74.279   170.293
164.688     74.304   175.155
167.084     74.444   178.674
169.514     74.320  -179.088
171.980     73.998  -175.562
174.481     73.802  -170.595
177.019     73.713  -166.589
179.594     73.347  -162.886
182.206     72.881  -156.604
184.856     72.827  -149.501
187.545     72.841  -144.332
190.273     72.616  -139.308
193.041     72.477  -132.592
195.849     72.458  -126.826
198.697     72.302  -121.517
201.587     72.030  -114.786
204.520     71.950  -107.346
207.494     71.987  -100.142
210.512     72.125   -94.011
213.574     71.958   -89.298
216.681     71.637   -81.471
219.833     71.636   -73.429
223.030     71.696   -65.896
226.274     71.751   -59.507
229.565     71.630   -52.950
232.905     71.395   -46.246
236.292     71.026   -37.331
239.729     71.068   -27.137
243.216     71.238   -18.630
246.754     71.397   -11.140
250.343     71.263    -4.353
253.984     71.128     4.491
257.678     70.955    12.245
261.426     70.653    22.012
265.229     70.624    32.919
269.087     70.645    42.017
273.001     70.534    51.405
276.972     70.306    62.025
281.000     70.261    74.207
285.088     70.524    85.904
289.234     70.850    95.811
293.441     71.017   103.810
297.709     70.732   112.356
302.040     70.496   122.951
306.433     70.171   134.721
310.890     70.012   146.073
315.412     69.874   159.516
320.000     69.911   172.046
324.655     69.996  -175.334
329.377     70.175  -163.399
334.168     70.212  -152.381
339.028     70.209  -141.856
343.959     69.753  -129.911
348.962     69.638  -116.228
354.038     69.570  -102.012
359.188     69.700   -89.115
364.412     69.606   -76.603
369.713     69.394   -63.038
375.090     69.419   -48.590
380.546     69.352   -35.011
386.081     69.339   -20.939
391.697     69.211    -6.881
397.394     69.149     7.144
403.175     68.923    21.521
409.039     68.787    36.553
414.989     68.652    52.075
421.025     68.537    67.201
427.149     68.300    82.525
433.362     68.083    98.628
439.665     67.828   114.567
446.060     67.505   130.652
452.548     67.140   147.723
459.131     66.777   165.211
465.809     66.427  -176.704
472.584     66.042  -158.135
479.458     65.661  -139.080
486.432     65.243  -119.420
493.507     64.835   -99.247
500.686     64.371   -78.628
507.968     63.898   -57.066
515.357     63.457   -34.643
522.853     63.048   -11.446
530.458     62.666    12.448
538.174     62.313    37.030
546.002     62.001    62.286
553.943     61.731    88.115
562.001     61.499   114.463
570.175     61.304   141.234
578.469     61.138   168.282
586.883     60.993  -164.458
595.419     60.855  -137.023
604.080     60.713  -109.429
612.866     60.554   -81.668
621.780     60.364   -53.713
630.824     60.130   -25.518
640.000     59.840     2.981
649.309     59.482    31.867
658.753     59.045    61.244
668.335     58.516    91.253
678.056     57.887   122.076
687.919     57.154   153.965
697.925     56.319  -172.725
708.077     55.404  -137.499
718.376     54.471   -99.719
728.825     53.640   -58.746
739.426     53.091   -14.494
750.181     52.997    31.762
761.093     53.383    77.603
772.163     54.105   121.202
783.394     54.965   162.223
794.789     55.812  -158.810
806.349     56.558  -121.233
818.078     57.160   -84.502
829.977     57.597   -48.227
842.050     57.857   -12.134
854.298     57.929    23.967
866.724     57.798    60.212
879.330     57.444    96.697
892.120     56.834   133.484
905.097     55.916   170.605
918.262     54.605  -151.956
931.618     52.750  -114.325
945.169     50.058   -76.946
958.917     45.942   -41.915
972.864     40.719   -38.552
987.015     43.940  -112.737
1001.37     49.103   -79.555
1015.94     52.552   -39.049
1030.71     54.990     3.793
1045.71     56.811    48.171
1060.92     58.221    93.879
1076.35     59.337   140.863
1092.00     60.234  -170.889
1107.89     60.968  -121.378
1124.00     61.577   -70.621
1140.35     62.093   -18.654
1156.94     62.538    34.467
1173.77     62.929    88.673
1190.84     63.273   143.903
1208.16     63.576  -159.888
1225.73     63.836  -102.703
1243.56     64.057   -44.506
1261.65     64.241    14.766
1280.00     64.393    75.196
1298.62     64.526   136.852
1317.51     64.652  -160.239
1336.67     64.784   -96.112
1356.11     64.931   -30.857
1375.84     65.095    35.411
1395.85     65.271   102.609
1416.15     65.452   170.739
1436.75     65.637  -120.105
1457.65     65.833   -49.770
1478.85     66.059    21.868
1500.36     66.343    94.773
1522.19     66.705   168.658
1544.33     67.144  -116.984
1566.79     67.629   -42.687
1589.58     68.106    31.210
1612.70     68.509   104.648
1636.16     68.776   177.804
1659.95     68.856  -109.011
1684.10     68.705   -35.395
1708.60     68.297    39.126
1733.45     67.615   115.150
1758.66     66.672  -166.531
1784.24     65.518   -84.860
1810.19     64.271     1.286
1836.52     63.090    92.023
1863.24     62.071  -175.136
1890.34     61.100   -84.015
1917.83     59.862     3.655
1945.73     57.923    88.182
1974.03     54.787   169.534
2002.74     50.910  -127.517
2031.87     52.241   176.497
2061.43     56.274  -106.645
2091.41     58.885   -22.695
2121.83     60.214    64.364
2152.69     60.577   155.063
2184.01     60.251  -108.364
2215.77     59.657    -1.117
2248.00     59.427   120.045
2280.70     59.869  -119.079
2313.87     60.549    -9.021
2347.53     60.911    95.467
2381.68     60.707  -160.135
2416.32     59.981   -51.083
2451.46     59.093    69.094
2487.12     58.624  -157.730
2523.30     58.736   -28.918
2560.00     58.910    89.156
2597.24     58.646  -156.370
2635.01     57.838   -38.556
2673.34     56.840    91.465
2712.23     56.321  -123.133
2751.68     56.429    13.735
2791.70     56.515   137.317
2832.31     56.033  -102.960
2873.50     54.902    20.250
2915.30     53.546   157.376
2957.70     52.789   -47.158
3000.72     52.827    95.526
3044.37     52.909  -136.251
3088.65     52.486   -10.313
3133.58     51.606   123.199
3179.16     50.958   -79.602
3225.40     51.242    88.073
3272.31     51.875  -126.363
3319.91     51.906    12.395
3368.20     51.204   159.207
3417.19     50.850   -10.810
3466.89     51.900  -177.503
3517.32     53.246   -20.170
3568.48     53.963   138.066
3620.39     54.237   -49.359
3673.05     54.516   132.952
3726.47     54.776   -51.359
3780.67     54.816   125.603
3835.67     54.845   -43.194
3891.46     55.069   149.559
3948.06     55.200   -26.825
4005.49     55.085   163.563
4063.75     55.037     9.134
4122.86     55.025  -154.853
4182.82     54.629    35.140
4243.66     54.122  -111.146
4305.39     54.156   114.720
4368.01     54.171   -48.713
4431.55     53.639   153.663
4496.01     53.393    40.845
4561.40     53.646  -103.549
4627.75     53.319    96.446
4695.06     52.631   -28.550
4763.35     52.643  -137.795
4832.64     52.532    69.929
4902.93     51.384   -76.873
4974.24     49.842   165.180
5046.60     48.548    55.628
5120.00     46.593   -87.414
5194.47     43.512   129.140
5270.03     41.100    82.265
5346.68     41.037   -21.748
5424.45     41.447  -167.968
5503.35     42.190    51.196
5583.40     44.253    -9.863
5664.61     45.783  -147.814
5747.01     44.882    55.788
5830.60     44.453   146.865
5915.41     46.565   -29.682
6001.45     46.968   170.263
6088.74     48.573  -126.306
6177.30     49.208    75.343
6267.15     47.068   -95.421
6358.31     47.355    32.714
6450.80     46.825  -128.875
6544.62     48.059    -3.337
6639.82     48.992  -150.673
6736.40     47.493    10.317
6834.38     49.041  -165.685
6933.79     49.010    48.706
7034.64     49.549   149.956
7136.96     48.377    41.334
7240.77     46.832   154.343
7346.09     45.955    42.940
7452.94     45.474   168.713
7561.35     45.371    67.518
7671.33     45.901  -144.696
7782.91     45.665   121.320
7896.12     42.072   -18.582
8010.97     42.385  -127.974
8127.49     42.545   -82.790
8245.71     42.269   -72.520
8365.65     39.677  -111.820
8487.33     36.246    20.460
8610.78     35.940   -72.988
8736.03     39.169   107.252
8863.09     41.207   172.460
8992.01     43.190  -150.374
9122.80     44.429   -25.491
9255.50     45.596   -39.863
9390.12     45.532    99.116
9526.70     44.232    48.540
9665.27     43.346   -88.605
9805.86     44.682   151.955
9948.49     45.544   102.137
10093.2     45.822     9.293
10240.0     45.966   146.711
10388.9     45.818   100.891
10540.1     45.005   102.655
10693.4     43.945    95.001
10848.9     41.759   -84.095
11006.7     37.225    -2.950
11166.8     35.166   -24.659
11329.2     34.784   101.269
11494.0     35.512    23.685
11661.2     36.833   -83.359
11830.8     39.386   -80.063
12002.9     41.296   169.316
12177.5     42.153  -127.586
12354.6     42.231   132.614
12534.3     43.600   -77.086
12716.6     44.803    29.266
12901.6     43.370   -59.843
13089.2     41.158    47.518
13279.6     38.491   124.086
13472.8     34.196    34.887
13668.8     32.079   105.948
13867.6     34.529  -148.405
14069.3     36.118  -129.849
14273.9     35.555  -127.876
14481.5     33.025    58.607
14692.2     30.034     1.554
14905.9     31.829    75.088
15122.7     32.446  -120.374
15342.7     31.659  -162.629
15565.8     29.787    23.951
15792.2     30.399   168.333
16021.9     29.068   -65.497
16255.0     29.090   162.661
16491.4     29.961    -9.738
16731.3     32.283   129.703
16974.7     32.992    35.591
17221.6     34.286   133.986
17472.1     32.750   119.494
17726.2     28.703   133.742
17984.0     25.471    75.869
18245.6     23.391   -82.119
18511.0     23.518  -155.425
18780.2     24.816    88.682
19053.4     25.112  -126.045
19330.5     25.529   131.411
19611.7     24.457   -37.936
19897.0     25.300   -10.995
20186.4     27.661    -4.271
20480.0     27.949    13.564
20777.9     24.798     8.814
21080.1     21.900   -42.127
21386.7     19.860   -70.180
21697.8     23.034  -145.383
22013.4     24.738  -165.270
22333.6     26.679   161.902
22658.4     28.391    36.449
22988.0     28.273    40.554
23322.4     26.726   -59.814
23661.6     24.369   -28.320
24005.8     22.869   133.766
24355.0     21.788   -18.972
24709.2     22.067   -13.880
25068.6     23.090   -75.075
25433.2     20.536    85.722
25803.2     18.589  -170.237
26178.5     16.988     4.950
26559.3     17.890   158.959
26945.6     19.661   -65.369
27337.5     17.744   -59.838
27735.2     17.891   -85.882
28138.6     20.119  -160.995
28547.9     18.589   -17.885
28963.1     14.747    62.920
29384.4     11.543   128.265
29811.8      9.254   -62.712
30245.4      8.363  -161.370
30685.3      9.831    76.234
31131.7     10.346   115.877
31584.5     13.779  -161.533
32043.9     12.482   -60.264
32510.0     11.410   142.903
32982.8     12.596   -45.446
33462.6     11.989   102.039
33949.3      9.599   -55.123
34443.1      7.319  -168.301
34944.1      2.650    27.400
35452.4      3.748    66.650
35968.0      4.686   116.320
36491.2      4.060   -25.729
37022.0      2.970    72.961
37560.5      4.216   129.246
38106.8      6.557   163.757
38661.1      6.488  -143.784
39223.4      3.501  -100.141
39793.9      3.880   105.570
