Freq[Hz]     dBSPL  Phase[Deg]
5.00000     35.594    33.086
5.07273     35.601    33.516
5.14651     35.606    33.949
5.22137     35.608    34.388
5.29732     35.610    34.827
5.37437     35.611    35.266
5.45254     35.613    35.706
5.53185     35.612    36.170
5.61231     35.607    36.661
5.69394     35.602    37.152
5.77676     35.598    37.643
5.86079     35.593    38.135
5.94604     35.587    38.717
6.03252     35.582    39.298
6.12027     35.576    39.880
6.20929     35.571    40.462
6.29961     35.573    41.109
6.39124     35.577    41.771
6.48420     35.581    42.433
6.57851     35.585    43.095
6.67420     35.602    43.764
6.77128     35.620    44.434
6.86977     35.638    45.105
6.96969     35.657    45.766
7.07107     35.683    46.363
7.17392     35.709    46.960
7.27827     35.736    47.557
7.38413     35.758    48.107
7.49154     35.776    48.622
7.60050     35.795    49.136
7.71105     35.810    49.654
7.82321     35.810    50.183
7.93701     35.810    50.713
8.05245     35.810    51.242
8.16958     35.801    51.919
8.28841     35.791    52.602
8.40896     35.781    53.285
8.53128     35.790    54.131
8.65537     35.802    54.999
8.78126     35.813    55.866
8.90899     35.874    56.706
9.03857     35.938    57.543
9.17004     36.007    58.334
9.30342     36.115    58.751
9.43874     36.222    59.168
9.57603     36.323    59.307
9.71532     36.414    59.020
9.85663     36.505    58.733
10.0000     36.471    57.918
10.1455     36.401    56.955
10.2930     36.270    55.912
10.4427     35.966    54.644
10.5946     35.662    53.377
10.7487     35.141    52.504
10.9051     34.577    51.710
11.0637     33.873    51.893
11.2246     33.022    53.110
11.3879     32.164    55.310
11.5535     31.279    61.091
11.7216     30.409    66.939
11.8921     30.358    76.765
12.0650     30.308    86.592
12.2405     31.110    93.352
12.4186     32.021    99.717
12.5992     32.994   101.686
12.7825     33.979   102.681
12.9684     34.722   101.206
13.1570     35.408    99.154
13.3484     35.797    95.875
13.5426     36.137    92.397
13.7395     36.147    88.406
13.9394     36.105    84.406
14.1421     35.757    80.488
14.3478     35.292    76.804
14.5565     34.572    73.626
14.7683     33.614    71.447
14.9831     32.470    70.041
15.2010     30.936    72.062
15.4221     29.325    76.267
15.6464     27.668    87.495
15.8740     26.918   103.003
16.1049     26.894   121.929
16.3392     28.461   134.089
16.5768     30.090   142.695
16.8179     31.724   146.504
17.0626     33.011   147.068
17.3107     34.116   146.638
17.5625     35.013   145.334
17.8180     35.667   143.585
18.0771     36.212   141.777
18.3401     36.652   139.943
18.6068     36.977   138.141
18.8775     37.218   136.320
19.1521     37.377   134.475
19.4306     37.438   132.622
19.7133     37.330   130.960
20.0000     37.052   129.981
20.2909     36.636   130.197
20.5860     36.145   132.177
20.8855     35.701   136.488
21.1893     35.667   143.221
21.4975     36.143   149.508
21.8102     36.917   153.661
22.1274     37.744   155.226
22.4492     38.395   154.695
22.7758     38.736   153.216
23.1071     38.735   152.183
23.4432     38.472   153.076
23.7841     38.223   157.248
24.1301     38.398   163.739
24.4811     39.123   169.654
24.8372     40.137   172.815
25.1984     41.097   173.118
25.5649     41.790   171.720
25.9368     42.160   170.051
26.3141     42.273   169.351
26.6968     42.282   170.373
27.0851     42.378   173.050
27.4791     42.696   176.453
27.8788     43.203   179.435
28.2843     43.777  -178.386
28.6957     44.343  -176.795
29.1131     44.883  -175.498
29.5365     45.401  -174.384
29.9661     45.891  -173.436
30.4020     46.331  -172.529
30.8442     46.719  -171.299
31.2929     47.117  -169.560
31.7480     47.590  -167.496
32.2098     48.156  -165.590
32.6783     48.762  -164.334
33.1536     49.322  -163.557
33.6359     49.813  -162.827
34.1251     50.268  -161.775
34.6215     50.751  -160.457
35.1250     51.271  -159.198
35.6359     51.797  -158.206
36.1543     52.293  -157.320
36.6802     52.768  -156.312
37.2137     53.256  -155.155
37.7550     53.765  -154.042
38.3041     54.276  -153.101
38.8613     54.769  -152.220
39.4265     55.254  -151.269
40.0000     55.748  -150.315
40.5818     56.248  -149.516
41.1721     56.720  -148.878
41.7710     57.152  -148.205
42.3785     57.563  -147.316
42.9949     57.976  -146.264
43.6203     58.397  -145.121
44.2548     58.829  -143.875
44.8985     59.286  -142.610
45.5515     59.761  -141.527
46.2141     60.215  -140.639
46.8863     60.635  -139.676
47.5683     61.070  -138.524
48.2602     61.532  -137.553
48.9621     61.964  -136.903
49.6743     62.326  -136.152
50.3968     62.682  -134.995
51.1299     63.081  -133.735
51.8736     63.490  -132.692
52.6281     63.872  -131.719
53.3936     64.244  -130.673
54.1702     64.616  -129.674
54.9581     64.970  -128.745
55.7575     65.304  -127.797
56.5685     65.620  -126.862
57.3914     65.905  -125.921
58.2261     66.155  -124.846
59.0730     66.383  -123.547
59.9323     66.600  -121.983
60.8040     66.833  -120.168
61.6884     67.096  -118.309
62.5857     67.360  -116.537
63.4960     67.610  -114.735
64.4196     67.858  -112.875
65.3566     68.094  -111.054
66.3073     68.296  -109.122
67.2717     68.490  -106.841
68.2502     68.719  -104.387
69.2429     68.967  -101.983
70.2501     69.215   -99.585
71.2719     69.469   -97.166
72.3086     69.729   -94.801
73.3603     69.979   -92.558
74.4274     70.197   -90.324
75.5099     70.394   -87.940
76.6083     70.577   -85.443
77.7226     70.750   -82.686
78.8531     70.957   -79.749
80.0000     71.181   -76.887
81.1636     71.411   -74.080
82.3442     71.641   -71.397
83.5419     71.849   -68.824
84.7570     72.025   -66.250
85.9899     72.180   -63.577
87.2406     72.318   -60.850
88.5096     72.450   -58.048
89.7970     72.561   -55.487
91.1031     72.554   -52.889
92.4282     72.485   -49.360
93.7726     72.481   -45.204
95.1366     72.520   -40.933
96.5204     72.586   -36.367
97.9243     72.735   -31.766
99.3486     72.907   -27.572
100.794     73.053   -23.589
102.260     73.168   -19.511
103.747     73.294   -15.502
105.256     73.364   -11.518
106.787     73.417    -7.204
108.340     73.499    -2.729
109.916     73.589     1.596
111.515     73.647     5.702
113.137     73.642    10.046
114.783     73.629    14.551
116.452     73.588    19.292
118.146     73.539    24.288
119.865     73.501    29.484
121.608     73.465    34.737
123.377     73.416    40.038
125.171     73.343    45.456
126.992     73.251    51.124
128.839     73.165    57.019
130.713     73.081    62.974
132.615     72.966    68.938
134.543     72.810    75.498
136.500     72.682    82.407
138.486     72.559    88.731
140.500     72.461    95.988
142.544     72.405   103.413
144.617     72.238   109.961
146.721     72.067   117.441
148.855     71.997   125.589
151.020     71.976   132.856
153.217     71.740   139.201
155.445     71.308   147.514
157.706     71.081   156.729
160.000     70.911   166.529
162.327     70.791   176.514
164.688     70.799  -174.237
167.084     70.926  -165.625
169.514     70.790  -157.591
171.980     70.458  -148.351
174.481     70.249  -138.537
177.019     70.149  -129.767
179.594     69.775  -120.602
182.206     69.303  -108.159
184.856     69.245   -94.983
187.545     69.253   -84.615
190.273     69.027   -73.696
193.041     68.886   -61.176
195.849     68.866   -49.699
198.697     68.715   -37.984
201.587     68.449   -24.942
204.520     68.376   -11.286
207.494     68.421     2.036
210.512     68.574    14.978
213.574     68.421    26.403
216.681     68.112    40.048
219.833     68.130    54.599
223.030     68.214    69.332
226.274     68.295    82.817
229.565     68.202    96.365
232.905     67.996   109.952
236.292     67.659   125.641
239.729     67.738   143.298
243.216     67.949   159.157
246.754     68.150   173.886
250.343     68.063  -171.398
253.984     67.979  -154.741
257.678     67.861  -139.292
261.426     67.618  -121.141
265.229     67.651  -101.968
269.087     67.738   -84.729
273.001     67.693   -67.325
276.972     67.537   -48.819
281.000     67.567   -28.065
285.088     67.917    -7.105
289.234     68.330    11.930
293.441     68.586    28.924
297.709     68.395    46.324
302.040     68.254    65.629
306.433     68.033    86.793
310.890     67.986   108.223
315.412     67.962   131.597
320.000     68.118   153.903
324.655     68.324   176.142
329.377     68.628  -162.467
334.168     68.804  -140.473
339.028     68.942  -119.139
343.959     68.631   -96.555
348.962     68.667   -72.409
354.038     68.754   -47.913
359.188     69.047   -24.071
364.412     69.126     0.052
369.713     69.092    25.033
375.090     69.300    50.696
380.546     69.425    76.143
386.081     69.612   101.872
391.697     69.691   128.231
397.394     69.847   155.200
403.175     69.844  -178.584
409.039     69.941  -151.084
414.989     70.047  -122.473
421.025     70.182   -94.522
427.149     70.204   -66.648
433.362     70.254   -38.288
439.665     70.277    -8.624
446.060     70.239    20.869
452.548     70.168    51.014
459.131     70.108    82.115
465.809     70.065   114.338
472.584     69.992   146.654
479.458     69.926   179.039
486.432     69.821  -147.506
493.507     69.722  -113.087
500.686     69.555   -77.784
507.968     69.365   -42.024
515.357     69.187    -5.899
522.853     69.010    31.436
530.458     68.820    69.929
538.174     68.618   108.688
546.002     68.409   147.755
553.943     68.185  -171.955
562.001     67.945  -130.399
570.175     67.688   -87.567
578.469     67.416   -43.507
586.883     67.134     0.832
595.419     66.848    45.463
604.080     66.553    91.376
612.866     66.255   138.595
621.780     65.959  -172.853
630.824     65.673  -122.952
640.000     65.409   -72.701
649.309     65.174   -22.123
658.753     64.973    29.769
668.335     64.811    83.966
678.056     64.702   138.370
687.919     64.648  -166.058
697.925     64.651  -109.394
708.077     64.711   -52.744
718.376     64.823     4.852
728.825     64.983    63.333
739.426     65.183   122.650
750.181     65.414  -177.232
761.093     65.669  -116.333
772.163     65.934   -55.672
783.394     66.207     5.767
794.789     66.484    68.993
806.349     66.750   132.013
818.078     67.004  -164.154
829.977     67.241   -99.485
842.050     67.454   -33.956
854.298     67.641    32.462
866.724     67.793    98.812
879.330     67.914   167.111
892.120     67.996  -123.586
905.097     68.038   -53.228
918.262     68.039    18.243
931.618     67.999    90.893
945.169     67.923   164.793
958.917     67.816  -119.981
972.864     67.689   -43.358
987.015     67.559    34.721
1001.37     67.439   115.304
1015.94     67.361  -162.643
1030.71     67.350   -80.244
1045.71     67.423     4.400
1060.92     67.591    91.078
1076.35     67.844   177.502
1092.00     68.165   -95.480
1107.89     68.531    -6.971
1124.00     68.908    81.966
1140.35     69.268   171.359
1156.94     69.593   -97.719
1173.77     69.860    -6.165
1190.84     70.059    86.143
1208.16     70.183   179.335
1225.73     70.233   -85.469
1243.56     70.211    11.861
1261.65     70.122   110.455
1280.00     69.983  -149.584
1298.62     69.812   -48.181
1317.51     69.628    55.704
1336.67     69.456   162.063
1356.11     69.317   -90.196
1375.84     69.225    19.820
1395.85     69.185   131.972
1416.15     69.192  -114.885
1436.75     69.235    -0.824
1457.65     69.304   115.151
1478.85     69.393  -126.948
1500.36     69.503    -8.117
1522.19     69.639   112.651
1544.33     69.810  -124.701
1566.79     70.019    -0.284
1589.58     70.261   125.765
1612.70     70.516  -107.678
1636.16     70.763    20.321
1659.95     70.974   149.762
1684.10     71.124   -79.293
1708.60     71.192    53.272
1733.45     71.169  -173.387
1758.66     71.049   -37.148
1784.24     70.837   101.131
1810.19     70.545  -119.457
1836.52     70.181    23.095
1863.24     69.750   167.765
1890.34     69.247   -45.508
1917.83     68.649   103.239
1945.73     67.918  -105.931
1974.03     66.999    48.232
2002.74     65.855  -154.714
2031.87     64.476     6.183
2061.43     62.963   172.296
2091.41     61.641   -14.198
2121.83     61.039   165.451
2152.69     61.325   -15.286
2184.01     62.052   162.515
2215.77     62.711   -20.926
2248.00     63.052   154.958
2280.70     63.015   -28.336
2313.87     62.618   151.279
2347.53     61.919   -25.429
2381.68     61.005   160.982
2416.32     59.943    -8.412
2451.46     58.760  -173.741
2487.12     57.415    25.075
2523.30     55.862  -131.139
2560.00     54.208    79.246
2597.24     52.896   -63.946
2635.01     52.409   157.477
2673.34     52.542    18.842
2712.23     52.638  -120.552
2751.68     52.352   103.126
2791.70     51.840   -28.096
2832.31     51.613  -153.651
2873.50     51.966    83.264
2915.30     52.556   -40.224
2957.70     52.929  -162.361
3000.72     52.986    78.127
3044.37     52.934   -37.444
3088.65     52.994  -148.871
3133.58     53.074   101.160
3179.16     52.849    -6.299
3225.40     52.108  -108.903
3272.31     51.078   155.690
3319.91     50.526    68.995
3368.20     50.851   -14.682
3417.19     51.321  -100.446
3466.89     51.203   175.459
3517.32     50.485    99.324
3568.48     49.976    32.228
3620.39     50.557   -29.512
3673.05     51.771   -91.728
3726.47     52.739  -155.080
3780.67     53.184   143.691
3835.67     53.176    86.949
3891.46     52.911    37.217
3948.06     52.727    -6.025
4005.49     52.959   -44.733
4063.75     53.461   -80.191
4122.86     53.697  -114.936
4182.82     53.363  -146.163
4243.66     52.694  -168.796
4305.39     52.231   174.702
4368.01     52.005   161.723
4431.55     51.523   151.635
4496.01     50.657   146.898
4561.40     49.655   147.690
4627.75     48.259   152.098
4695.06     45.734   164.900
4763.35     42.944  -163.527
4832.64     42.805  -124.171
4902.93     42.673   -98.307
4974.24     38.409   -77.024
5046.60     26.033    34.988
5120.00     39.046   146.331
5194.47     43.593  -179.331
5270.03     43.790  -137.818
5346.68     40.999   -75.702
5424.45     39.935    19.656
5503.35     42.102   102.112
5583.40     41.440   174.054
5664.61     38.140   -93.758
5747.01     37.679    14.291
5830.60     38.341    94.484
5915.41     37.603   152.759
6001.45     37.938  -148.906
6088.74     38.066   -61.636
6177.30     37.927    63.130
6267.15     40.180  -160.226
6358.31     41.652   -30.126
6450.80     40.461   114.163
6544.62     40.998   -67.792
6639.82     45.630   101.169
6736.40     48.085  -102.048
6834.38     47.320    65.719
6933.79     45.631   -96.376
7034.64     46.723   113.258
7136.96     47.149   -45.171
7240.77     44.892   170.981
7346.09     44.082    56.691
7452.94     45.242   -70.900
7561.35     42.863   171.261
7671.33     43.222    76.706
7782.91     42.540   -35.799
7896.12     39.082  -110.170
8010.97     41.035  -177.728
8127.49     40.709   112.376
8245.71     41.143    59.011
8365.65     41.072     7.090
8487.33     40.282   -33.719
8610.78     37.434   -65.470
8736.03     34.907   -60.839
8863.09     36.926   -51.756
8992.01     39.600   -72.574
9122.80     31.923   -93.032
9255.50     33.174    -8.705
9390.12     35.282    -5.449
9526.70     33.674    38.130
9665.27     31.846    88.453
9805.86     25.037   173.956
9948.49     30.011   -56.432
10093.2     23.732    24.448
10240.0     30.100  -156.886
10388.9     34.015   -69.122
10540.1     28.110    39.353
10693.4     28.884  -124.558
10848.9     25.235   -13.186
11006.7     25.892  -124.173
11166.8     21.825   -49.369
11329.2     24.876   -12.705
11494.0     35.367   174.241
11661.2     37.659    -8.171
11830.8     34.565  -148.492
12002.9     36.686   110.763
12177.5     34.001   -20.426
12354.6     31.721   -81.840
12534.3     29.794   168.521
12716.6     31.195   -91.018
12901.6     35.785   175.655
13089.2     38.813   136.279
13279.6     37.884    87.236
13472.8     35.183    71.039
13668.8     31.399    58.639
13867.6     21.047   -50.938
14069.3     32.208   -84.871
14273.9     35.723   -52.807
14481.5     35.261    22.156
14692.2     33.640   127.077
14905.9     34.770  -113.475
15122.7     34.554     7.421
15342.7     32.012   134.812
15565.8     22.182   -49.074
15792.2     20.962  -159.088
16021.9     18.571    75.465
16255.0     24.727   -39.791
16491.4     24.709  -163.954
16731.3     24.939   127.367
16974.7     26.386    31.287
17221.6     23.892    12.392
17472.1     29.167   -58.615
17726.2     22.310   -95.293
17984.0     21.546  -110.095
18245.6     16.427    27.172
18511.0     19.165   -88.990
18780.2     16.391  -177.843
19053.4     13.955   168.669
19330.5     15.155   138.067
19611.7     11.653   140.820
19897.0     11.454  -113.691
20186.4     17.683    32.946
20480.0     25.241   161.678
20777.9     23.602   -30.076
21080.1     19.090  -124.078
21386.7     14.288   127.961
21697.8     20.007    80.414
22013.4     16.196    15.797
22333.6     16.901    26.128
22658.4     11.212   -59.881
22988.0     20.734   159.125
23322.4     23.537   152.188
23661.6     19.499  -145.515
24005.8     16.076   -61.427
24355.0     10.461   134.486
24709.2     16.754   -48.060
25068.6     20.395    58.105
25433.2     18.399   157.818
25803.2     12.924   -33.059
26178.5     15.691   129.642
26559.3     16.574    43.770
26945.6     17.898    49.825
27337.5     13.247    73.957
27735.2     14.045   106.068
28138.6     13.572   163.241
28547.9      6.748  -139.285
28963.1      9.587   156.724
29384.4     12.026  -166.194
29811.8      6.438     0.049
30245.4      3.436   174.712
30685.3      3.196   171.493
31131.7      8.672  -157.204
31584.5     12.527   -35.313
32043.9      4.124  -113.532
32510.0      0.811   103.857
32982.8     -5.833    60.358
33462.6      0.896     9.981
33949.3      3.176     8.361
34443.1      4.079  -179.303
34944.1     -4.290   -21.771
35452.4      5.997   -24.071
35968.0      9.606  -130.244
36491.2     -0.329   -40.726
37022.0      5.660   178.606
37560.5      2.983    90.653
38106.8     -0.850    23.983
38661.1      3.920    96.057
39223.4      4.133   102.079
39793.9     -0.597   154.293
