Freq[Hz]     dBSPL  Phase[Deg]
5.00000     29.862    -4.452
5.07273     29.874    -4.554
5.14651     29.884    -4.663
5.22137     29.890    -4.795
5.29732     29.897    -4.926
5.37437     29.903    -5.057
5.45254     29.910    -5.188
5.53185     29.913    -5.313
5.61231     29.914    -5.431
5.69394     29.915    -5.549
5.77676     29.916    -5.667
5.86079     29.917    -5.784
5.94604     29.918    -5.849
6.03252     29.919    -5.915
6.12027     29.920    -5.980
6.20929     29.921    -6.045
6.29961     29.930    -6.076
6.39124     29.941    -6.099
6.48420     29.952    -6.122
6.57851     29.962    -6.145
6.67420     29.987    -6.194
6.77128     30.013    -6.247
6.86977     30.040    -6.299
6.96969     30.067    -6.365
7.07107     30.102    -6.529
7.17392     30.136    -6.693
7.27827     30.171    -6.856
7.38413     30.202    -7.088
7.49154     30.230    -7.371
7.60050     30.258    -7.654
7.71105     30.283    -7.942
7.82321     30.293    -8.247
7.93701     30.303    -8.553
8.05245     30.314    -8.859
8.16958     30.316    -9.052
8.28841     30.317    -9.241
8.40896     30.319    -9.431
8.53128     30.340    -9.489
8.65537     30.364    -9.530
8.78126     30.388    -9.572
8.90899     30.461    -9.675
9.03857     30.538    -9.783
9.17004     30.621    -9.942
9.30342     30.742   -10.506
9.43874     30.864   -11.071
9.57603     30.979   -11.928
9.71532     31.085   -13.233
9.85663     31.191   -14.538
10.0000     31.172   -16.399
10.1455     31.119   -18.415
10.2930     31.004   -20.521
10.4427     30.718   -22.877
10.5946     30.431   -25.234
10.7487     29.928   -27.226
10.9051     29.382   -29.144
11.0637     28.697   -30.102
11.2246     27.865   -30.045
11.3879     27.026   -29.012
11.5535     26.162   -24.426
11.7216     25.312   -19.773
11.8921     25.282   -11.175
12.0650     25.253    -2.578
12.2405     26.077     2.923
12.4186     27.011     8.024
12.5992     28.007     8.702
12.7825     29.015     8.400
12.9684     29.783     5.599
13.1570     30.495     2.216
13.3484     30.909    -2.424
13.5426     31.275    -7.267
13.7395     31.312   -12.656
13.9394     31.297   -18.058
14.1421     30.977   -23.409
14.3478     30.540   -28.535
14.5565     29.850   -33.179
14.7683     28.921   -36.841
14.9831     27.807   -39.745
15.2010     26.304   -39.249
15.4221     24.725   -36.581
15.6464     23.100   -26.915
15.8740     22.384   -12.988
16.1049     22.394     4.343
16.3392     23.995    14.877
16.5768     25.660    21.843
16.8179     27.329    23.993
17.0626     28.654    22.870
17.3107     29.796    20.737
17.5625     30.731    17.711
17.8180     31.425    14.212
18.0771     32.010    10.635
18.3401     32.490     7.014
18.6068     32.856     3.397
18.8775     33.139    -0.262
19.1521     33.340    -3.965
19.4306     33.445    -7.696
19.7133     33.382   -11.264
20.0000     33.149   -14.174
20.2909     32.781   -15.909
20.5860     32.337   -15.904
20.8855     31.939   -13.591
21.1893     31.954    -8.885
21.4975     32.480    -4.648
21.8102     33.305    -2.570
22.1274     34.182    -3.106
22.4492     34.886    -5.762
22.7758     35.279    -9.391
23.1071     35.332   -12.600
23.4432     35.124   -13.910
23.7841     34.931   -11.969
24.1301     35.162    -7.737
24.4811     35.945    -4.107
24.8372     37.018    -3.259
25.1984     38.037    -5.296
25.5649     38.789    -9.063
25.9368     39.220   -13.129
26.3141     39.394   -16.255
26.6968     39.466   -17.688
27.0851     39.626   -17.495
27.4791     40.008   -16.607
27.8788     40.579   -16.171
28.2843     41.220   -16.569
28.6957     41.854   -17.585
29.1131     42.462   -18.926
29.5365     43.049   -20.481
29.9661     43.607   -22.235
30.4020     44.118   -24.060
30.8442     44.577   -25.599
31.2929     45.047   -26.662
31.7480     45.593   -27.431
32.2098     46.233   -28.393
32.6783     46.914   -30.041
33.1536     47.549   -32.203
33.6359     48.115   -34.445
34.1251     48.649   -36.403
34.6215     49.209   -38.133
35.1250     49.808   -39.954
35.6359     50.412   -42.085
36.1543     50.989   -44.356
36.6802     51.545   -46.545
37.2137     52.114   -48.625
37.7550     52.707   -50.785
38.3041     53.301   -53.161
38.8613     53.877   -55.634
39.4265     54.446   -58.081
40.0000     55.027   -60.565
40.5818     55.612   -63.246
41.1721     56.170   -66.133
41.7710     56.689   -69.025
42.3785     57.189   -71.749
42.9949     57.690   -74.353
43.6203     58.201   -76.910
44.2548     58.722   -79.412
44.8985     59.270   -81.941
45.5515     59.836   -84.699
46.2141     60.381   -87.700
46.8863     60.894   -90.674
47.5683     61.420   -93.510
48.2602     61.977   -96.577
48.9621     62.502  -100.015
49.6743     62.959  -103.404
50.3968     63.410  -106.440
51.1299     63.904  -109.425
51.8736     64.409  -112.682
52.6281     64.886  -116.063
53.3936     65.356  -119.427
54.1702     65.826  -122.893
54.9581     66.278  -126.488
55.7575     66.709  -130.122
56.5685     67.124  -133.828
57.3914     67.508  -137.587
58.2261     67.856  -141.272
59.0730     68.184  -144.798
59.9323     68.501  -148.120
60.8040     68.834  -151.253
61.6884     69.198  -154.408
62.5857     69.563  -157.715
63.4960     69.914  -161.059
64.4196     70.263  -164.412
65.3566     70.601  -167.873
66.3073     70.905  -171.292
67.2717     71.202  -174.433
68.2502     71.532  -177.472
69.2429     71.883   179.366
70.2501     72.234   176.123
71.2719     72.590   172.827
72.3086     72.954   169.400
73.3603     73.307   165.775
74.4274     73.628   162.063
75.5099     73.928   158.420
76.6083     74.214   154.810
77.7226     74.492   151.377
78.8531     74.802   148.041
80.0000     75.130   144.546
81.1636     75.464   140.910
82.3442     75.797   137.064
83.5419     76.109   133.018
84.7570     76.389   128.883
85.9899     76.648   124.757
87.2406     76.889   120.592
88.5096     77.125   116.408
89.7970     77.339   111.888
91.1031     77.435   107.309
92.4282     77.469   103.563
93.7726     77.568   100.344
95.1366     77.710    97.137
96.5204     77.879    94.124
97.9243     78.131    91.042
99.3486     78.404    87.447
100.794     78.652    83.534
102.260     78.869    79.607
103.747     79.097    75.500
105.256     79.268    71.257
106.787     79.421    67.230
108.340     79.602    63.248
109.916     79.793    58.999
111.515     79.950    54.411
113.137     80.045    49.942
114.783     80.129    45.510
116.452     80.187    41.191
118.146     80.235    36.999
119.865     80.293    32.881
121.608     80.355    28.689
123.377     80.400    24.414
125.171     80.422    20.121
126.992     80.425    15.944
128.839     80.432    11.855
130.713     80.441     7.687
132.615     80.417     3.385
134.543     80.355    -0.674
136.500     80.319    -4.629
138.486     80.278    -8.176
140.500     80.268   -11.772
142.544     80.305   -16.180
144.617     80.222   -20.475
146.721     80.132   -23.834
148.855     80.148   -27.503
151.020     80.210   -32.048
153.217     80.055   -37.511
155.445     79.702   -41.000
157.706     79.551   -43.583
160.000     79.461   -46.560
162.327     79.416   -49.346
164.688     79.494   -51.881
167.084     79.692   -56.031
169.514     79.630   -61.736
171.980     79.368   -66.229
174.481     79.222   -69.165
177.019     79.182   -73.141
179.594     78.870   -77.697
182.206     78.461   -79.952
184.856     78.462   -81.470
187.545     78.523   -84.812
190.273     78.349   -88.580
193.041     78.258   -90.744
195.849     78.285   -93.948
198.697     78.179   -97.890
201.587     77.955  -100.501
204.520     77.921  -102.498
207.494     78.001  -104.825
210.512     78.188  -108.509
213.574     78.065  -113.708
216.681     77.781  -115.708
219.833     77.821  -117.779
223.030     77.924  -120.645
226.274     78.021  -124.757
229.565     77.940  -128.808
232.905     77.742  -132.818
236.292     77.409  -134.727
239.729     77.488  -135.645
243.216     77.694  -138.362
246.754     77.887  -142.210
250.343     77.788  -147.050
253.984     77.686  -149.949
257.678     77.545  -154.057
261.426     77.276  -156.442
265.229     77.278  -157.807
269.087     77.328  -161.106
273.001     77.243  -164.241
276.972     77.041  -166.274
281.000     77.020  -167.038
285.088     77.311  -168.575
289.234     77.661  -172.035
293.441     77.849  -177.537
297.709     77.586   177.368
302.040     77.368   174.182
306.433     77.062   171.878
310.890     76.921   168.867
315.412     76.798   167.805
320.000     76.851   165.681
324.655     76.949   163.498
329.377     77.140   160.475
334.168     77.189   156.114
339.028     77.195   151.107
343.959     76.748   147.367
348.962     76.642   145.205
354.038     76.583   143.416
359.188     76.721   140.023
364.412     76.633   135.968
369.713     76.429   132.805
375.090     76.463   130.362
380.546     76.404   126.778
386.081     76.404   123.525
391.697     76.288   119.994
397.394     76.239   116.175
403.175     76.038   112.634
409.039     75.931   109.497
414.989     75.829   106.603
421.025     75.759   103.148
427.149     75.583    99.715
433.362     75.444    96.875
439.665     75.277    93.566
446.060     75.067    90.204
452.548     74.843    87.611
459.131     74.650    85.149
465.809     74.502    82.978
472.584     74.358    80.979
479.458     74.260    79.098
486.432     74.167    77.375
493.507     74.127    75.660
500.686     74.071    73.819
507.968     74.043    72.299
515.357     74.074    70.959
522.853     74.156    69.654
530.458     74.273    68.278
538.174     74.412    66.849
546.002     74.572    65.388
553.943     74.749    63.821
562.001     74.933    62.164
570.175     75.121    60.399
578.469     75.306    58.463
586.883     75.479    56.403
595.419     75.638    54.245
604.080     75.784    51.964
612.866     75.914    49.582
621.780     76.026    47.123
630.824     76.120    44.613
640.000     76.193    42.128
649.309     76.248    39.690
658.753     76.286    37.274
668.335     76.311    34.856
678.056     76.323    32.549
687.919     76.326    30.323
697.925     76.324    28.188
708.077     76.322    26.186
718.376     76.325    24.273
728.825     76.335    22.439
739.426     76.359    20.664
750.181     76.398    18.919
761.093     76.454    17.171
772.163     76.527    15.411
783.394     76.616    13.574
794.789     76.720    11.595
806.349     76.830     9.511
818.078     76.944     7.272
829.977     77.055     4.871
842.050     77.158     2.308
854.298     77.246    -0.403
866.724     77.314    -3.201
879.330     77.360    -6.144
892.120     77.378    -9.157
905.097     77.367   -12.201
918.262     77.325   -15.237
931.618     77.252   -18.221
945.169     77.151   -21.109
958.917     77.025   -23.859
972.864     76.877   -26.432
987.015     76.715   -28.794
1001.37     76.540   -30.948
1015.94     76.368   -32.852
1030.71     76.212   -34.494
1045.71     76.076   -35.939
1060.92     75.971   -37.227
1076.35     75.905   -38.391
1092.00     75.880   -39.519
1107.89     75.896   -40.702
1124.00     75.951   -41.998
1140.35     76.038   -43.468
1156.94     76.150   -45.176
1173.77     76.277   -47.131
1190.84     76.409   -49.345
1208.16     76.537   -51.809
1225.73     76.655   -54.536
1243.56     76.754   -57.499
1261.65     76.827   -60.631
1280.00     76.870   -63.884
1298.62     76.880   -67.206
1317.51     76.858   -70.574
1336.67     76.803   -73.932
1356.11     76.720   -77.196
1375.84     76.615   -80.357
1395.85     76.495   -83.386
1416.15     76.370   -86.251
1436.75     76.246   -88.971
1457.65     76.127   -91.597
1478.85     76.014   -94.159
1500.36     75.907   -96.656
1522.19     75.801   -99.102
1544.33     75.696  -101.466
1566.79     75.595  -103.696
1589.58     75.507  -105.744
1612.70     75.451  -107.588
1636.16     75.446  -109.305
1659.95     75.505  -111.040
1684.10     75.631  -112.990
1708.60     75.807  -115.350
1733.45     76.003  -118.217
1758.66     76.186  -121.640
1784.24     76.321  -125.486
1810.19     76.388  -129.528
1836.52     76.385  -133.579
1863.24     76.326  -137.379
1890.34     76.243  -140.772
1917.83     76.178  -143.749
1945.73     76.169  -146.468
1974.03     76.230  -149.228
2002.74     76.346  -152.290
2031.87     76.478  -155.796
2061.43     76.588  -159.709
2091.41     76.650  -163.877
2121.83     76.660  -168.081
2152.69     76.637  -172.108
2184.01     76.607  -175.980
2215.77     76.589  -179.805
2248.00     76.581   176.268
2280.70     76.558   172.143
2313.87     76.490   167.852
2347.53     76.356   163.603
2381.68     76.165   159.681
2416.32     75.948   156.243
2451.46     75.749   153.282
2487.12     75.597   150.603
2523.30     75.488   147.974
2560.00     75.400   145.294
2597.24     75.316   142.639
2635.01     75.241   140.091
2673.34     75.195   137.618
2712.23     75.180   135.047
2751.68     75.172   132.220
2791.70     75.133   129.209
2832.31     75.046   126.270
2873.50     74.936   123.637
2915.30     74.842   121.302
2957.70     74.781   119.021
3000.72     74.729   116.615
3044.37     74.646   114.176
3088.65     74.532   111.958
3133.58     74.417   110.103
3179.16     74.331   108.471
3225.40     74.261   106.906
3272.31     74.184   105.525
3319.91     74.121   104.568
3368.20     74.132   103.983
3417.19     74.238   103.339
3466.89     74.391   102.323
3517.32     74.540   101.086
3568.48     74.695    99.923
3620.39     74.896    98.779
3673.05     75.145    97.375
3726.47     75.404    95.627
3780.67     75.660    93.645
3835.67     75.916    91.433
3891.46     76.153    88.922
3948.06     76.347    86.267
4005.49     76.511    83.688
4063.75     76.678    81.107
4122.86     76.833    78.336
4182.82     76.938    75.470
4243.66     76.999    72.773
4305.39     77.051    70.283
4368.01     77.094    67.853
4431.55     77.112    65.556
4496.01     77.119    63.543
4561.40     77.142    61.791
4627.75     77.198    60.217
4695.06     77.302    58.594
4763.35     77.414    56.617
4832.64     77.453    54.582
4902.93     77.463    53.224
4974.24     77.583    52.393
5046.60     77.824    51.166
5120.00     78.092    49.275
5194.47     78.348    46.863
5270.03     78.553    43.925
5346.68     78.660    40.779
5424.45     78.692    37.821
5503.35     78.678    35.062
5583.40     78.617    32.603
5664.61     78.548    30.514
5747.01     78.475    28.529
5830.60     78.360    26.817
5915.41     78.256    25.671
6001.45     78.207    24.708
6088.74     78.168    23.796
6177.30     78.158    23.178
6267.15     78.212    22.585
6358.31     78.302    21.866
6450.80     78.442    20.988
6544.62     78.597    19.513
6639.82     78.665    17.710
6736.40     78.685    16.255
6834.38     78.725    14.805
6933.79     78.715    13.177
7034.64     78.651    11.834
7136.96     78.573    10.804
7240.77     78.494    10.144
7346.09     78.453     9.774
7452.94     78.452     9.539
7561.35     78.494     9.324
7671.33     78.565     9.082
7782.91     78.674     8.750
7896.12     78.780     8.140
8010.97     78.857     7.552
8127.49     78.936     6.923
8245.71     78.975     6.128
8365.65     78.974     5.481
8487.33     78.991     4.712
8610.78     78.955     3.362
8736.03     78.810     1.794
8863.09     78.556     0.384
8992.01     78.276    -0.703
9122.80     77.963    -2.016
9255.50     77.512    -3.233
9390.12     76.991    -3.276
9526.70     76.495    -2.170
9665.27     76.208     0.494
9805.86     76.229     3.140
9948.49     76.498     4.621
10093.2     76.715     4.692
10240.0     76.886     4.772
10388.9     77.009     4.749
10540.1     77.138     5.341
10693.4     77.358     5.852
10848.9     77.583     6.032
11006.7     77.833     6.274
11166.8     78.155     6.218
11329.2     78.520     5.546
11494.0     78.865     3.993
11661.2     79.118     1.936
11830.8     79.268    -0.486
12002.9     79.308    -2.927
12177.5     79.212    -5.250
12354.6     79.024    -6.863
12534.3     78.833    -7.651
12716.6     78.738    -8.115
12901.6     78.619    -8.982
13089.2     78.509    -8.960
13279.6     78.586    -9.256
13472.8     78.616   -10.878
13668.8     78.550   -12.746
13867.6     78.325   -15.098
14069.3     77.896   -16.607
14273.9     77.454   -16.902
14481.5     77.011   -16.399
14692.2     76.705   -15.035
14905.9     76.528   -14.169
15122.7     76.342   -14.190
15342.7     76.013   -14.450
15565.8     75.567   -14.101
15792.2     75.086   -12.467
16021.9     74.781    -9.894
16255.0     74.637    -7.943
16491.4     74.487    -6.967
16731.3     74.229    -6.192
16974.7     73.924    -5.229
17221.6     73.561    -3.996
17472.1     73.215    -2.497
17726.2     72.812    -1.016
17984.0     72.375     1.232
18245.6     72.012     3.878
18511.0     71.690     6.372
18780.2     71.309     8.733
19053.4     70.889    11.966
19330.5     70.586    15.973
19611.7     70.438    19.730
19897.0     70.376    23.024
20186.4     70.320    25.001
20480.0     69.982    25.585
20777.9     69.256    30.155
21080.1     69.118    37.306
21386.7     69.503    41.439
21697.8     69.686    43.379
22013.4     69.756    44.972
22333.6     69.773    46.076
22658.4     69.647    46.549
22988.0     69.334    47.546
23322.4     69.015    49.572
23661.6     68.737    51.569
24005.8     68.494    54.111
24355.0     68.372    56.114
24709.2     68.282    57.023
25068.6     68.013    56.251
25433.2     67.310    55.191
25803.2     66.305    56.941
26178.5     65.470    61.855
26559.3     65.066    67.824
26945.6     64.833    73.656
27337.5     65.013    79.816
27735.2     65.447    83.123
28138.6     65.743    84.557
28547.9     65.933    85.042
28963.1     65.963    84.581
29384.4     65.793    83.829
29811.8     65.486    82.039
30245.4     64.667    80.363
30685.3     63.561    81.078
31131.7     62.602    84.112
31584.5     61.670    86.737
32043.9     60.736    90.274
32510.0     59.985    92.886
32982.8     59.041    94.131
33462.6     57.948    95.998
33949.3     56.835    97.392
34443.1     55.469    98.090
34944.1     53.684   100.043
35452.4     51.882   105.066
35968.0     50.366   110.235
36491.2     48.700   114.369
37022.0     46.664   118.732
37560.5     44.477   123.755
38106.8     41.363   130.601
38661.1     37.934   148.143
39223.4     35.797   175.213
39793.9     35.891  -156.274
