Freq[Hz]     dBSPL  Phase[Deg]
5.00000     31.798    -0.065
5.07273     31.806    -0.108
5.14651     31.813    -0.157
5.22137     31.816    -0.225
5.29732     31.820    -0.292
5.37437     31.823    -0.360
5.45254     31.826    -0.428
5.53185     31.827    -0.488
5.61231     31.824    -0.538
5.69394     31.821    -0.589
5.77676     31.818    -0.640
5.86079     31.815    -0.690
5.94604     31.811    -0.685
6.03252     31.808    -0.680
6.12027     31.804    -0.675
6.20929     31.801    -0.670
6.29961     31.805    -0.628
6.39124     31.811    -0.577
6.48420     31.818    -0.526
6.57851     31.824    -0.476
6.67420     31.843    -0.448
6.77128     31.864    -0.424
6.86977     31.885    -0.400
6.96969     31.907    -0.388
7.07107     31.936    -0.472
7.17392     31.965    -0.556
7.27827     31.994    -0.640
7.38413     32.019    -0.790
7.49154     32.041    -0.990
7.60050     32.062    -1.191
7.71105     32.081    -1.395
7.82321     32.084    -1.615
7.93701     32.087    -1.836
8.05245     32.091    -2.056
8.16958     32.085    -2.162
8.28841     32.080    -2.263
8.40896     32.074    -2.365
8.53128     32.087    -2.333
8.65537     32.102    -2.285
8.78126     32.118    -2.236
8.90899     32.183    -2.248
9.03857     32.252    -2.263
9.17004     32.326    -2.330
9.30342     32.438    -2.800
9.43874     32.550    -3.270
9.57603     32.656    -4.033
9.71532     32.752    -5.242
9.85663     32.848    -6.450
10.0000     32.819    -8.214
10.1455     32.755   -10.133
10.2930     32.629   -12.141
10.4427     32.332   -14.399
10.5946     32.034   -16.657
10.7487     31.519   -18.548
10.9051     30.961   -20.367
11.0637     30.264   -21.224
11.2246     29.419   -21.066
11.3879     28.568   -19.932
11.5535     27.691   -15.243
11.7216     26.828   -10.488
11.8921     26.785    -1.788
12.0650     26.742     6.912
12.2405     27.552    12.516
12.4186     28.471    17.721
12.5992     29.451    18.503
12.7825     30.445    18.304
12.9684     31.197    15.606
13.1570     31.893    12.328
13.3484     32.291     7.792
13.5426     32.641     3.052
13.7395     32.661    -2.232
13.9394     32.629    -7.531
14.1421     32.291   -12.778
14.3478     31.836   -17.801
14.5565     31.129   -22.341
14.7683     30.181   -25.901
14.9831     29.048   -28.702
15.2010     27.526   -28.105
15.4221     25.927   -25.335
15.6464     24.282   -15.568
15.8740     23.546    -1.540
16.1049     23.534    15.891
16.3392     25.115    26.524
16.5768     26.758    33.588
16.8179     28.406    35.836
17.0626     29.707    34.809
17.3107     30.827    32.773
17.5625     31.739    29.841
17.8180     32.410    26.435
18.0771     32.970    22.950
18.3401     33.426    19.421
18.6068     33.768    15.894
18.8775     34.027    12.323
19.1521     34.202     8.708
19.4306     34.281     5.062
19.7133     34.192     1.579
20.0000     33.934    -1.249
20.2909     33.538    -2.904
20.5860     33.067    -2.819
20.8855     32.642    -0.428
21.1893     32.629     4.353
21.4975     33.127     8.662
21.8102     33.923    10.811
22.1274     34.772    10.344
22.4492     35.447     7.755
22.7758     35.811     4.191
23.1071     35.833     1.044
23.4432     35.595    -0.206
23.7841     35.372     1.792
24.1301     35.572     6.079
24.4811     36.324     9.761
24.8372     37.365    10.659
25.1984     38.353     8.668
25.5649     39.074     4.945
25.9368     39.472     0.920
26.3141     39.615    -2.168
26.6968     39.654    -3.566
27.0851     39.781    -3.340
27.4791     40.130    -2.424
27.8788     40.669    -1.962
28.2843     41.276    -2.337
28.6957     41.876    -3.333
29.1131     42.450    -4.659
29.5365     43.003    -6.201
29.9661     43.528    -7.945
30.4020     44.004    -9.764
30.8442     44.429   -11.300
31.2929     44.865   -12.364
31.7480     45.376   -13.138
32.2098     45.982   -14.106
32.6783     46.628   -15.766
33.1536     47.229   -17.943
33.6359     47.760   -20.203
34.1251     48.258   -22.183
34.6215     48.784   -23.938
35.1250     49.349   -25.789
35.6359     49.918   -27.952
36.1543     50.460   -30.260
36.6802     50.982   -32.488
37.2137     51.516   -34.612
37.7550     52.074   -36.819
38.3041     52.633   -39.246
38.8613     53.176   -41.772
39.4265     53.711   -44.278
40.0000     54.257   -46.822
40.5818     54.808   -49.569
41.1721     55.332   -52.524
41.7710     55.818   -55.488
42.3785     56.284   -58.287
42.9949     56.752   -60.970
43.6203     57.229   -63.609
44.2548     57.717   -66.196
44.8985     58.233   -68.814
45.5515     58.766   -71.664
46.2141     59.279   -74.760
46.8863     59.759   -77.832
47.5683     60.254   -80.770
48.2602     60.780   -83.942
48.9621     61.273   -87.487
49.6743     61.700   -90.987
50.3968     62.119   -94.137
51.1299     62.583   -97.239
51.8736     63.058  -100.615
52.6281     63.506  -104.118
53.3936     63.946  -107.607
54.1702     64.387  -111.201
54.9581     64.810  -114.925
55.7575     65.213  -118.693
56.5685     65.600  -122.534
57.3914     65.955  -126.431
58.2261     66.277  -130.257
59.0730     66.578  -133.925
59.9323     66.868  -137.392
60.8040     67.175  -140.672
61.6884     67.513  -143.977
62.5857     67.853  -147.434
63.4960     68.178  -150.933
64.4196     68.502  -154.441
65.3566     68.816  -158.059
66.3073     69.096  -161.637
67.2717     69.369  -164.940
68.2502     69.677  -168.143
69.2429     70.005  -171.470
70.2501     70.334  -174.879
71.2719     70.668  -178.343
72.3086     71.010   178.061
73.3603     71.342   174.264
74.4274     71.642   170.379
75.5099     71.922   166.562
76.6083     72.188   162.776
77.7226     72.445   159.166
78.8531     72.737   155.652
80.0000     73.045   151.976
81.1636     73.361   148.160
82.3442     73.676   144.131
83.5419     73.970   139.901
84.7570     74.232   135.582
85.9899     74.474   131.270
87.2406     74.699   126.918
88.5096     74.918   122.546
89.7970     75.117   117.837
91.1031     75.197   113.068
92.4282     75.217   109.130
93.7726     75.300   105.719
95.1366     75.428   102.319
96.5204     75.582    99.112
97.9243     75.821    95.835
99.3486     76.080    92.044
100.794     76.315    87.934
102.260     76.520    83.809
103.747     76.735    79.503
105.256     76.893    75.060
106.787     77.035    70.832
108.340     77.205    66.649
109.916     77.385    62.197
111.515     77.531    57.406
113.137     77.615    52.732
114.783     77.690    48.096
116.452     77.738    43.570
118.146     77.777    39.172
119.865     77.825    34.846
121.608     77.878    30.445
123.377     77.915    25.960
125.171     77.929    21.457
126.992     77.923    17.067
128.839     77.923    12.766
130.713     77.924     8.383
132.615     77.894     3.867
134.543     77.824    -0.413
136.500     77.782    -4.591
138.486     77.735    -8.339
140.500     77.719   -12.154
142.544     77.751   -16.800
144.617     77.662   -21.310
146.721     77.568   -24.882
148.855     77.579   -28.783
151.020     77.637   -33.557
153.217     77.477   -39.247
155.445     77.120   -42.961
157.706     76.966   -45.768
160.000     76.872   -48.985
162.327     76.825   -52.009
164.688     76.900   -54.762
167.084     77.096   -59.147
169.514     77.031   -65.103
171.980     76.768   -69.845
174.481     76.620   -73.010
177.019     76.579   -77.214
179.594     76.266   -82.015
182.206     75.856   -84.530
184.856     75.856   -86.306
187.545     75.917   -89.888
190.273     75.744   -93.911
193.041     75.653   -96.330
195.849     75.681   -99.786
198.697     75.577  -103.996
201.587     75.355  -106.875
204.520     75.322  -109.137
207.494     75.405  -111.729
210.512     75.593  -115.693
213.574     75.473  -121.172
216.681     75.193  -123.434
219.833     75.236  -125.782
223.030     75.343  -128.942
226.274     75.445  -133.347
229.565     75.367  -137.690
232.905     75.175  -141.993
236.292     74.846  -144.194
239.729     74.931  -145.421
243.216     75.143  -148.447
246.754     75.342  -152.604
250.343     75.249  -157.769
253.984     75.155  -160.996
257.678     75.022  -165.432
261.426     74.760  -168.162
265.229     74.770  -169.874
269.087     74.828  -173.523
273.001     74.752  -177.009
276.972     74.559  -179.397
281.000     74.548   179.466
285.088     74.849   177.535
289.234     75.209   173.676
293.441     75.408   167.771
297.709     75.155   162.269
302.040     74.949   158.669
306.433     74.654   155.928
310.890     74.525   152.454
315.412     74.416   150.921
320.000     74.480   148.317
324.655     74.591   145.645
329.377     74.794   142.123
334.168     74.856   137.210
339.028     74.875   131.638
343.959     74.440   127.317
348.962     74.346   124.560
354.038     74.298   122.157
359.188     74.446   118.110
364.412     74.368   113.354
369.713     74.173   109.468
375.090     74.212   106.275
380.546     74.158   101.888
386.081     74.159    97.801
391.697     74.039    93.376
397.394     73.984    88.598
403.175     73.770    84.092
409.039     73.642    79.921
414.989     73.511    75.921
421.025     73.402    71.322
427.149     73.174    66.711
433.362     72.971    62.665
439.665     72.719    58.053
446.060     72.404    53.381
452.548     72.053    49.488
459.131     71.706    45.724
465.809     71.372    42.283
472.584     71.016    39.124
479.458     70.679    36.238
486.432     70.316    33.690
493.507     69.981    31.396
500.686     69.611    29.283
507.968     69.268    27.846
515.357     68.999    26.944
522.853     68.801    26.434
530.458     68.672    26.175
538.174     68.619    26.085
546.002     68.644    26.091
553.943     68.742    26.054
562.001     68.904    25.899
570.175     69.122    25.525
578.469     69.381    24.805
586.883     69.662    23.724
595.419     69.954    22.295
604.080     70.252    20.503
612.866     70.547    18.369
621.780     70.833    15.913
630.824     71.103    13.166
640.000     71.349    10.218
649.309     71.568     7.108
658.753     71.764     3.804
668.335     71.937     0.263
678.056     72.080    -3.356
687.919     72.195    -7.098
697.925     72.281   -10.944
708.077     72.338   -14.803
718.376     72.366   -18.729
728.825     72.365   -22.706
739.426     72.336   -26.719
750.181     72.278   -30.754
761.093     72.191   -34.798
772.163     72.076   -38.770
783.394     71.933   -42.724
794.789     71.758   -46.708
806.349     71.556   -50.579
818.078     71.325   -54.382
829.977     71.063   -58.096
842.050     70.772   -61.694
854.298     70.453   -65.151
866.724     70.111   -68.385
879.330     69.739   -71.460
892.120     69.348   -74.289
905.097     68.941   -76.837
918.262     68.529   -79.076
931.618     68.122   -80.989
945.169     67.732   -82.584
958.917     67.371   -83.893
972.864     67.053   -84.982
987.015     66.785   -85.947
1001.37     66.562   -86.918
1015.94     66.390   -88.002
1030.71     66.259   -89.287
1045.71     66.150   -90.874
1060.92     66.045   -92.797
1076.35     65.929   -94.996
1092.00     65.786   -97.440
1107.89     65.603  -100.081
1124.00     65.373  -102.792
1140.35     65.097  -105.462
1156.94     64.776  -108.015
1173.77     64.422  -110.329
1190.84     64.053  -112.344
1208.16     63.687  -114.055
1225.73     63.341  -115.531
1243.56     63.028  -116.887
1261.65     62.755  -118.264
1280.00     62.510  -119.816
1298.62     62.271  -121.644
1317.51     62.006  -123.784
1336.67     61.685  -126.161
1356.11     61.286  -128.582
1375.84     60.791  -130.810
1395.85     60.201  -132.521
1416.15     59.549  -133.348
1436.75     58.890  -133.017
1457.65     58.306  -131.424
1478.85     57.888  -128.813
1500.36     57.699  -125.800
1522.19     57.729  -123.044
1544.33     57.919  -120.978
1566.79     58.205  -119.661
1589.58     58.558  -118.932
1612.70     58.983  -118.661
1636.16     59.515  -118.939
1659.95     60.167  -120.105
1684.10     60.913  -122.598
1708.60     61.688  -126.710
1733.45     62.406  -132.458
1758.66     63.006  -139.770
1784.24     63.427  -148.315
1810.19     63.628  -157.669
1836.52     63.590  -167.567
1863.24     63.298  -177.498
1890.34     62.757   173.052
1917.83     62.000   164.670
1945.73     61.105   157.975
1974.03     60.217   153.331
2002.74     59.543   150.496
2031.87     59.225   148.215
2061.43     59.233   144.910
2091.41     59.401   139.685
2121.83     59.564   132.614
2152.69     59.634   124.360
2184.01     59.606   115.394
2215.77     59.515   106.022
2248.00     59.399    96.289
2280.70     59.261    86.004
2313.87     59.059    74.974
2347.53     58.722    63.369
2381.68     58.188    51.827
2416.32     57.444    41.254
2451.46     56.583    32.823
2487.12     55.857    27.204
2523.30     55.575    23.386
2560.00     55.794    18.808
2597.24     56.225    11.828
2635.01     56.544     2.872
2673.34     56.613    -6.461
2712.23     56.514   -14.601
2751.68     56.488   -21.056
2791.70     56.746   -27.009
2832.31     57.220   -34.410
2873.50     57.624   -43.905
2915.30     57.714   -54.446
2957.70     57.439   -64.200
3000.72     56.993   -71.483
3044.37     56.732   -76.358
3088.65     56.829   -81.162
3133.58     57.026   -87.789
3179.16     56.973   -95.413
3225.40     56.647  -101.452
3272.31     56.464  -104.505
3319.91     56.829  -107.134
3368.20     57.475  -112.868
3417.19     57.853  -121.221
3466.89     57.821  -129.124
3517.32     57.737  -134.660
3568.48     57.969  -139.565
3620.39     58.291  -146.500
3673.05     58.259  -154.277
3726.47     57.978  -159.402
3780.67     58.075  -161.907
3835.67     58.619  -166.407
3891.46     58.915  -173.743
3948.06     58.752  -179.579
4005.49     58.772   178.102
4063.75     59.322   174.978
4122.86     59.783   169.081
4182.82     59.939   163.980
4243.66     60.297   160.370
4305.39     60.831   154.903
4368.01     61.032   148.547
4431.55     61.169   144.651
4496.01     61.746   140.509
4561.40     62.240   133.066
4627.75     62.265   125.925
4695.06     62.364   120.800
4763.35     62.601   114.022
4832.64     62.414   106.589
4902.93     62.141   101.894
4974.24     62.144    96.371
5046.60     61.679    89.412
5120.00     60.938    87.009
5194.47     60.872    85.821
5270.03     60.699    81.134
5346.68     60.083    78.533
5424.45     59.711    78.267
5503.35     59.522    78.282
5583.40     59.614    77.780
5664.61     59.506    75.628
5747.01     59.482    76.728
5830.60     60.173    74.211
5915.41     60.080    67.115
6001.45     59.544    64.455
6088.74     59.359    62.227
6177.30     59.060    59.789
6267.15     58.807    57.024
6358.31     58.348    55.344
6450.80     58.290    53.399
6544.62     57.723    49.828
6639.82     57.515    50.049
6736.40     57.277    45.409
6834.38     56.894    45.265
6933.79     57.084    39.220
7034.64     56.306    34.093
7136.96     56.082    28.221
7240.77     55.029    21.170
7346.09     54.243    14.572
7452.94     52.658    10.223
7561.35     52.321     4.413
7671.33     50.112    -3.121
7782.91     49.601    -3.519
7896.12     47.894    -7.559
8010.97     48.542    -4.782
8127.49     49.448   -12.225
8245.71     50.426   -28.432
8365.65     50.163   -38.658
8487.33     50.839   -50.222
8610.78     51.234   -59.113
8736.03     51.071   -70.477
8863.09     51.357   -71.207
8992.01     52.014   -77.360
9122.80     52.137   -84.354
9255.50     52.368   -83.364
9390.12     52.873   -89.020
9526.70     53.473   -91.952
9665.27     53.620   -97.070
9805.86     53.621  -103.518
9948.49     53.385  -106.937
10093.2     52.484  -108.735
10240.0     51.762  -108.312
10388.9     51.312  -101.245
10540.1     51.498   -94.190
10693.4     51.703   -93.635
10848.9     51.862   -89.378
11006.7     52.006   -86.769
11166.8     52.028   -84.135
11329.2     52.045   -81.717
11494.0     52.295   -79.465
11661.2     52.488   -79.906
11830.8     52.135   -81.821
12002.9     50.775   -81.943
12177.5     49.627   -75.360
12354.6     48.667   -67.096
12534.3     47.912   -59.145
12716.6     48.282   -45.171
12901.6     48.653   -41.684
13089.2     47.763   -40.822
13279.6     46.302   -34.509
13472.8     44.058   -16.949
13668.8     44.686    11.151
13867.6     46.731    24.490
14069.3     48.213    32.500
14273.9     49.756    37.784
14481.5     51.049    37.373
14692.2     51.835    33.255
14905.9     51.557    28.522
15122.7     50.835    24.897
15342.7     49.116    21.054
15565.8     46.029    25.170
15792.2     43.218    43.167
16021.9     42.205    66.958
16255.0     41.931    88.530
16491.4     42.496   110.867
16731.3     44.479   126.557
16974.7     46.214   133.821
17221.6     47.726   135.248
17472.1     48.230   131.460
17726.2     47.737   126.210
17984.0     46.052   124.921
18245.6     44.519   129.809
18511.0     42.962   130.507
18780.2     40.175   133.399
19053.4     36.959   137.344
19330.5     32.121   135.509
19611.7     21.274    67.423
19897.0     28.155   -26.674
20186.4     33.018   -31.548
20480.0     35.757   -16.630
20777.9     38.692   -12.420
21080.1     39.949    -5.405
21386.7     41.210     1.528
21697.8     42.083    10.446
22013.4     43.593    15.812
22333.6     44.259    14.575
22658.4     43.658    15.477
22988.0     42.770    22.106
23322.4     42.432    28.544
23661.6     41.681    28.821
24005.8     39.161    29.538
24355.0     36.193    42.112
24709.2     32.824    60.586
25068.6     30.102    94.204
25433.2     30.607   127.039
25803.2     31.850   142.970
26178.5     31.841   153.487
26559.3     29.990   163.088
26945.6     26.834  -168.442
27337.5     27.966  -128.954
27735.2     29.964  -117.617
28138.6     29.229  -102.537
28547.9     29.233   -84.391
28963.1     27.779   -69.434
29384.4     26.210   -41.723
29811.8     25.895    -4.967
30245.4     29.282    20.304
30685.3     30.738    27.747
31131.7     30.070    34.067
31584.5     29.140    46.902
32043.9     28.957    61.009
32510.0     28.387    67.951
32982.8     26.968    72.531
33462.6     25.203    74.048
33949.3     22.663    75.523
34443.1     20.008    68.666
34944.1     19.427    52.407
35452.4     18.400    29.809
35968.0     16.680    28.326
36491.2     18.140    36.738
37022.0     18.419    45.358
37560.5     15.820    47.138
38106.8     14.794    64.044
38661.1      8.515    73.962
39223.4      7.528   149.490
39793.9      7.712  -173.245
