Freq[Hz]     dBSPL  Phase[Deg]
5.00000     37.738    29.455
5.07273     37.745    29.833
5.14651     37.750    30.213
5.22137     37.752    30.596
5.29732     37.754    30.980
5.37437     37.755    31.363
5.45254     37.757    31.747
5.53185     37.756    32.154
5.61231     37.751    32.585
5.69394     37.746    33.017
5.77676     37.742    33.448
5.86079     37.737    33.881
5.94604     37.731    34.400
6.03252     37.726    34.918
6.12027     37.720    35.436
6.20929     37.715    35.955
6.29961     37.717    36.536
6.39124     37.721    37.131
6.48420     37.725    37.725
6.57851     37.728    38.320
6.67420     37.745    38.919
6.77128     37.763    39.518
6.86977     37.782    40.117
6.96969     37.801    40.707
7.07107     37.827    41.229
7.17392     37.853    41.751
7.27827     37.880    42.273
7.38413     37.901    42.746
7.49154     37.920    43.182
7.60050     37.938    43.618
7.71105     37.953    44.056
7.82321     37.953    44.503
7.93701     37.953    44.950
8.05245     37.953    45.397
8.16958     37.944    45.988
8.28841     37.934    46.585
8.40896     37.924    47.181
8.53128     37.934    47.938
8.65537     37.945    48.715
8.78126     37.957    49.492
8.90899     38.018    50.238
9.03857     38.081    50.982
9.17004     38.150    51.678
9.30342     38.258    51.997
9.43874     38.365    52.316
9.57603     38.466    52.356
9.71532     38.557    51.967
9.85663     38.647    51.578
10.0000     38.613    50.658
10.1455     38.544    49.590
10.2930     38.413    48.441
10.4427     38.109    47.064
10.5946     37.805    45.686
10.7487     37.284    44.701
10.9051     36.719    43.794
11.0637     36.016    43.862
11.2246     35.165    44.962
11.3879     34.307    47.044
11.5535     33.422    52.704
11.7216     32.551    58.431
11.8921     32.500    68.133
12.0650     32.450    77.834
12.2405     33.252    84.467
12.4186     34.163    90.703
12.5992     35.135    92.541
12.7825     36.120    93.403
12.9684     36.863    91.792
13.1570     37.550    89.604
13.3484     37.938    86.186
13.5426     38.278    82.567
13.7395     38.289    78.433
13.9394     38.247    74.289
14.1421     37.899    70.222
14.3478     37.434    66.390
14.5565     36.714    63.059
14.7683     35.755    60.727
14.9831     34.611    59.165
15.2010     33.077    61.028
15.4221     31.466    65.073
15.6464     29.808    76.138
15.8740     29.058    91.481
16.1049     29.034   110.240
16.3392     30.601   122.229
16.5768     32.231   130.662
16.8179     33.864   134.297
17.0626     35.151   134.682
17.3107     36.256   134.073
17.5625     37.152   132.586
17.8180     37.807   130.651
18.0771     38.352   128.655
18.3401     38.792   126.631
18.6068     39.116   124.635
18.8775     39.357   122.617
19.1521     39.515   120.573
19.4306     39.576   118.518
19.7133     39.468   116.651
20.0000     39.190   115.463
20.2909     38.775   115.469
20.5860     38.284   117.234
20.8855     37.839   121.329
21.1893     37.805   127.840
21.4975     38.281   133.904
21.8102     39.055   137.830
22.1274     39.881   139.164
22.4492     40.532   138.399
22.7758     40.872   136.683
23.1071     40.871   135.411
23.4432     40.608   136.059
23.7841     40.359   139.984
24.1301     40.533   146.224
24.4811     41.259   151.884
24.8372     42.273   154.786
25.1984     43.232   154.827
25.5649     43.924   153.163
25.9368     44.294   151.224
26.3141     44.407   150.250
26.6968     44.416   150.994
27.0851     44.512   153.390
27.4791     44.829   156.506
27.8788     45.336   159.198
28.2843     45.909   161.083
28.6957     46.476   162.375
29.1131     47.015   163.369
29.5365     47.533   164.176
29.9661     48.021   164.811
30.4020     48.462   165.403
30.8442     48.849   166.311
31.2929     49.247   167.724
31.7480     49.720   169.458
32.2098     50.285   171.029
32.6783     50.891   171.944
33.1536     51.450   172.376
33.6359     51.940   172.757
34.1251     52.395   173.454
34.6215     52.877   174.410
35.1250     53.398   175.304
35.6359     53.922   175.925
36.1543     54.418   176.435
36.6802     54.892   177.061
37.2137     55.380   177.830
37.7550     55.889   178.550
38.3041     56.399   179.092
38.8613     56.892   179.570
39.4265     57.375  -179.890
40.0000     57.869  -179.352
40.5818     58.369  -178.976
41.1721     58.839  -178.767
41.7710     59.271  -178.528
42.3785     59.681  -178.081
42.9949     60.093  -177.477
43.6203     60.514  -176.787
44.2548     60.944  -176.003
44.8985     61.402  -175.205
45.5515     61.875  -174.596
46.2141     62.328  -174.189
46.8863     62.747  -173.714
47.5683     63.181  -173.058
48.2602     63.643  -172.589
48.9621     64.073  -172.448
49.6743     64.435  -172.215
50.3968     64.790  -171.583
51.1299     65.187  -170.855
51.8736     65.595  -170.352
52.6281     65.976  -169.927
53.3936     66.348  -169.437
54.1702     66.718  -169.002
54.9581     67.071  -168.645
55.7575     67.403  -168.277
56.5685     67.718  -167.932
57.3914     68.002  -167.588
58.2261     68.251  -167.119
59.0730     68.477  -166.435
59.9323     68.692  -165.496
60.8040     68.924  -164.314
61.6884     69.186  -163.097
62.5857     69.448  -161.976
63.4960     69.696  -160.836
64.4196     69.942  -159.647
65.3566     70.177  -158.506
66.3073     70.377  -157.264
67.2717     70.570  -155.684
68.2502     70.797  -153.940
69.2429     71.043  -152.257
70.2501     71.289  -150.591
71.2719     71.540  -148.913
72.3086     71.800  -147.302
73.3603     72.047  -145.823
74.4274     72.263  -144.363
75.5099     72.457  -142.765
76.6083     72.638  -141.065
77.7226     72.809  -139.118
78.8531     73.014  -137.002
80.0000     73.235  -134.973
81.1636     73.462  -133.010
82.3442     73.690  -131.184
83.5419     73.895  -129.481
84.7570     74.068  -127.789
85.9899     74.221  -126.011
87.2406     74.356  -124.192
88.5096     74.485  -122.311
89.7970     74.593  -120.684
91.1031     74.583  -119.034
92.4282     74.510  -116.466
93.7726     74.502  -113.286
95.1366     74.538  -110.005
96.5204     74.601  -106.442
97.9243     74.747  -102.859
99.3486     74.914   -99.699
100.794     75.057   -96.763
102.260     75.168   -93.748
103.747     75.290   -90.818
105.256     75.356   -87.928
106.787     75.404   -84.723
108.340     75.481   -81.374
109.916     75.568   -78.191
111.515     75.621   -75.243
113.137     75.611   -72.075
114.783     75.592   -68.761
116.452     75.546   -65.229
118.146     75.493   -61.460
119.865     75.448   -57.507
121.608     75.407   -53.516
123.377     75.351   -49.495
125.171     75.272   -45.375
126.992     75.174   -41.023
128.839     75.081   -36.464
130.713     74.991   -31.864
132.615     74.869   -27.274
134.543     74.706   -22.136
136.500     74.570   -16.682
138.486     74.440   -11.680
140.500     74.334    -5.877
142.544     74.269    -0.038
144.617     74.093     5.057
146.721     73.915    11.083
148.855     73.835    17.647
151.020     73.804    23.330
153.217     73.558    28.090
155.445     73.116    34.820
157.706     72.879    42.452
160.000     72.698    50.537
162.327     72.566    58.807
164.688     72.563    66.474
167.084     72.678    73.372
169.514     72.528    79.561
171.980     72.182    86.956
174.481     71.960    95.057
177.019     71.846   102.114
179.594     71.458   109.434
182.206     70.969   119.901
184.856     70.894   131.101
187.545     70.887   139.624
190.273     70.642   148.567
193.041     70.484   159.110
195.849     70.446   168.610
198.697     70.275   178.216
201.587     69.988  -170.851
204.520     69.894  -159.305
207.494     69.918  -148.093
210.512     70.048  -137.394
213.574     69.871  -128.212
216.681     69.541  -116.680
219.833     69.534  -104.373
223.030     69.591   -92.019
226.274     69.646   -80.912
229.565     69.525   -69.744
232.905     69.293   -58.538
236.292     68.928   -45.230
239.729     68.977   -30.087
243.216     69.157   -16.744
246.754     69.327    -4.530
250.343     69.209     7.536
253.984     69.092    21.543
257.678     68.940    34.342
261.426     68.662    49.711
265.229     68.660    66.101
269.087     68.711    80.557
273.001     68.630    95.179
276.972     68.438   110.904
281.000     68.430   128.747
285.088     68.739   146.663
289.234     69.112   162.658
293.441     69.327   176.614
297.709     69.095  -169.022
302.040     68.913  -152.749
306.433     68.649  -134.745
310.890     68.556  -116.600
315.412     68.487   -96.508
320.000     68.597   -77.475
324.655     68.758   -58.503
329.377     69.016   -40.372
334.168     69.141   -21.890
339.028     69.229    -4.058
343.959     68.868    15.037
348.962     68.853    35.704
354.038     68.889    56.734
359.188     69.129    76.996
364.412     69.152    97.426
369.713     69.063   118.733
375.090     69.215   140.740
380.546     69.283   162.425
386.081     69.412  -175.587
391.697     69.432  -153.069
397.394     69.527  -130.037
403.175     69.465  -107.608
409.039     69.501   -83.988
414.989     69.547   -59.345
421.025     69.622   -35.325
427.149     69.586   -11.348
433.362     69.581    13.154
439.665     69.546    38.767
446.060     69.456    64.254
452.548     69.336    90.439
459.131     69.230   117.513
465.809     69.148   145.647
472.584     69.042   173.923
479.458     68.953  -157.685
486.432     68.834  -128.287
493.507     68.734   -97.990
500.686     68.580   -66.879
507.968     68.419   -35.284
515.357     68.289    -3.312
522.853     68.180    29.764
530.458     68.082    63.872
538.174     67.994    98.200
546.002     67.921   132.768
553.943     67.860   168.352
562.001     67.809  -155.042
570.175     67.766  -117.443
578.469     67.730   -78.941
586.883     67.699   -40.399
595.419     67.669    -1.828
604.080     67.638    37.603
612.866     67.601    77.892
621.780     67.555   119.044
630.824     67.493   161.070
640.000     67.415  -156.852
649.309     67.316  -114.699
658.753     67.192   -71.596
668.335     67.036   -26.649
678.056     66.852    18.502
687.919     66.636    64.774
697.925     66.393   112.237
708.077     66.133   160.109
718.376     65.860  -150.670
728.825     65.593  -100.024
739.426     65.355   -47.908
750.181     65.173     5.671
761.093     65.078    60.620
772.163     65.095   115.837
783.394     65.236   171.988
794.789     65.500  -130.288
806.349     65.860   -73.059
818.078     66.288   -15.571
829.977     66.748    42.119
842.050     67.210   100.012
854.298     67.646   158.183
866.724     68.030  -144.136
879.330     68.357   -85.112
892.120     68.612   -25.489
905.097     68.785    34.853
918.262     68.875    96.040
931.618     68.878   158.205
945.169     68.797  -138.514
958.917     68.639   -73.966
972.864     68.416    -7.996
987.015     68.152    59.550
1001.37     67.870   129.680
1015.94     67.627  -158.439
1030.71     67.475   -85.815
1045.71     67.454   -10.903
1060.92     67.592    65.895
1076.35     67.873   142.315
1092.00     68.258  -141.059
1107.89     68.700   -63.492
1124.00     69.143    14.122
1140.35     69.546    91.901
1156.94     69.887   170.886
1173.77     70.144  -109.603
1190.84     70.314   -29.377
1208.16     70.398    51.739
1225.73     70.407   134.762
1243.56     70.354  -140.181
1261.65     70.259   -53.870
1280.00     70.145    33.718
1298.62     70.034   122.548
1317.51     69.942  -146.587
1336.67     69.876   -53.804
1356.11     69.834    39.900
1375.84     69.805   135.337
1395.85     69.774  -127.496
1416.15     69.731   -29.420
1436.75     69.676    69.675
1457.65     69.619   170.783
1478.85     69.585   -86.034
1500.36     69.606    18.289
1522.19     69.709   124.468
1544.33     69.907  -127.777
1566.79     70.187   -18.749
1589.58     70.515    91.327
1612.70     70.844  -158.513
1636.16     71.135   -47.348
1659.95     71.356    64.959
1684.10     71.487   178.585
1708.60     71.519   -66.273
1733.45     71.456    49.698
1758.66     71.309   168.353
1784.24     71.094   -71.092
1810.19     70.830    50.500
1836.52     70.525   174.786
1863.24     70.180   -59.211
1890.34     69.777    68.400
1917.83     69.283  -162.421
1945.73     68.654   -31.592
1974.03     67.836   102.018
2002.74     66.789  -121.933
2031.87     65.500    17.410
2061.43     64.039   161.283
2091.41     62.658   -48.185
2121.83     61.834   108.564
2152.69     61.868   -93.926
2184.01     62.459    62.525
2215.77     63.101  -142.649
2248.00     63.489    11.007
2280.70     63.539   165.035
2313.87     63.270   -38.552
2347.53     62.758   120.957
2381.68     62.102   -77.090
2416.32     61.356    87.907
2451.46     60.494  -104.460
2487.12     59.402    65.837
2523.30     57.954  -120.240
2560.00     56.159    59.394
2597.24     54.413  -113.907
2635.01     53.455    79.374
2673.34     53.416   -87.004
2712.23     53.504   104.018
2751.68     53.106   -64.056
2791.70     52.184   131.879
2832.31     51.207   -25.610
2873.50     50.787  -178.199
2915.30     50.899    29.838
2957.70     51.051  -121.532
3000.72     51.076    88.589
3044.37     51.146   -59.298
3088.65     51.286   154.125
3133.58     51.180     7.030
3179.16     50.473  -138.403
3225.40     49.044    80.596
3272.31     47.137   -54.155
3319.91     45.228   178.187
3368.20     43.349    54.495
3417.19     40.862   -66.063
3466.89     37.537  -176.467
3517.32     34.011    87.040
3568.48     29.196    17.080
3620.39     34.397   -19.109
3673.05     42.406  -119.004
3726.47     46.430   127.502
3780.67     48.069    17.019
3835.67     48.247   -83.807
3891.46     48.366  -170.804
3948.06     49.657   107.584
4005.49     51.340    23.034
4063.75     52.463   -60.456
4122.86     52.952  -140.671
4182.82     53.036   144.171
4243.66     52.950    76.577
4305.39     53.034    14.485
4368.01     53.449   -44.140
4431.55     53.757  -101.432
4496.01     53.513  -155.166
4561.40     52.906   157.859
4627.75     52.354   116.768
4695.06     51.586    80.386
4763.35     50.312    51.336
4832.64     49.369    31.799
4902.93     49.008    15.342
4974.24     48.008     1.242
5046.60     46.150    -4.497
5120.00     43.566     4.402
5194.47     43.003    41.589
5270.03     47.451    64.187
5346.68     49.874    65.909
5424.45     49.584    76.997
5503.35     49.550   106.108
5583.40     50.857   136.076
5664.61     51.580   167.649
5747.01     52.329  -153.996
5830.60     53.208  -114.134
5915.41     53.465   -69.594
6001.45     53.074   -19.167
6088.74     52.051    40.301
6177.30     51.320   111.129
6267.15     50.346  -175.282
6358.31     48.377   -88.074
6450.80     47.777     8.344
6544.62     46.515   106.064
6639.82     45.994  -149.260
6736.40     42.384   -58.094
6834.38     34.782   105.112
6933.79     38.568  -119.422
7034.64     34.892    29.218
7136.96     36.402   172.986
7240.77     35.608   -15.114
7346.09     40.656   114.550
7452.94     33.869  -118.636
7561.35     34.313    77.221
7671.33     32.020   164.214
7782.91     29.768  -157.794
7896.12     28.236     4.811
8010.97     25.989  -133.579
8127.49     31.679   109.911
8245.71     28.497   -16.845
8365.65     36.105  -136.112
8487.33     32.766   112.598
8610.78     36.545    -3.094
8736.03     36.033   -68.815
8863.09     41.555  -179.196
8992.01     44.400    82.355
9122.80     42.772   -34.791
9255.50     41.323   -80.945
9390.12     43.660  -160.182
9526.70     42.343   138.889
9665.27     40.965    99.043
9805.86     38.249    55.952
9948.49     34.082    80.259
10093.2     38.971    91.515
10240.0     39.411    85.308
10388.9     41.183    86.115
10540.1     38.816   101.022
10693.4     34.570   113.062
10848.9     32.875   178.404
11006.7     28.659  -103.143
11166.8     33.728    -5.983
11329.2     36.295    41.212
11494.0     34.580   115.271
11661.2     32.715  -114.537
11830.8     35.129     6.784
12002.9     36.253   108.085
12177.5     34.911   -98.173
12354.6     35.819    22.608
12534.3     24.337  -120.281
12716.6     37.858    74.804
12901.6     37.009  -125.552
13089.2     36.094    38.954
13279.6     28.198   134.122
13472.8     25.539   -91.075
13668.8     32.924   146.879
13867.6     33.795     3.420
14069.3     30.667   -76.260
14273.9     33.046  -139.792
14481.5     35.665   152.526
14692.2     37.447    84.087
14905.9     34.741    40.815
15122.7     32.940    18.411
15342.7     27.262    34.989
15565.8     28.018    64.980
15792.2     27.210   103.769
16021.9     28.193   161.812
16255.0     28.041  -152.809
16491.4     19.931   -51.666
16731.3     23.175    79.011
16974.7     23.235  -124.072
17221.6     27.508    -6.687
17472.1     24.491   147.884
17726.2     26.768   -45.639
17984.0     24.142   129.205
18245.6     18.873   -33.780
18511.0     22.398  -111.272
18780.2     22.840   103.108
19053.4     20.445   -28.089
19330.5     15.948  -107.176
19611.7     13.744   142.099
19897.0     17.746     6.988
20186.4     22.823   -45.052
20480.0     23.238   -87.052
20777.9      9.389    89.039
21080.1     19.636    59.251
21386.7     21.707   118.811
21697.8     22.397  -177.078
22013.4     22.943   -64.591
22333.6     18.781    72.786
22658.4     21.766  -115.836
22988.0     17.253     7.511
23322.4      6.971    86.490
23661.6     19.310  -155.583
24005.8     16.966    69.193
24355.0     14.251   -39.227
24709.2     15.399   -34.723
25068.6     21.749   159.539
25433.2     20.542    -0.544
25803.2     14.851   -79.767
26178.5     11.750  -150.503
26559.3     17.160    86.988
26945.6     18.830    -5.459
27337.5     14.501    44.613
27735.2     22.500   178.593
28138.6     13.597   -85.176
28547.9     11.368   -81.577
28963.1     12.822    54.099
29384.4     10.421  -141.766
29811.8      9.233   -73.745
30245.4     14.135    29.243
30685.3     13.612   -17.826
31131.7      4.397    44.000
31584.5      2.177   161.266
32043.9      9.781   137.464
32510.0      5.478   -37.140
32982.8      2.436    65.101
33462.6      0.692  -103.107
33949.3     -2.796  -127.592
34443.1      2.945     5.961
34944.1      6.646    89.103
35452.4      5.314    -4.727
35968.0      7.364   -86.527
36491.2      4.605    86.937
37022.0      6.222    91.914
37560.5     -0.240  -128.295
38106.8      0.455   138.602
38661.1      0.784    20.145
39223.4     -4.464     2.453
39793.9      2.409   -96.345
