"SPL Vertical"
"On-Axis"		"10°"		"-10°"		"20°"		"-20°"		"30°"		"-30°"		"40°"		"-40°"		"50°"		"-50°"		"60°"		"-60°"		"70°"		"-70°"		"80°"		"-80°"		"90°"		"-90°"		"100°"		"-100°"		"110°"		"-110°"		"120°"		"-120°"		"130°"		"-130°"		"140°"		"-140°"		"150°"		"-150°"		"160°"		"-160°"		"170°"		"-170°"		"180°"
"Frequency / Hz"	"Sound Pressure Level / dB (re 20 µPa/V)  [2.83  V @ 1. m]"	"Frequency / Hz"	"Sound Pressure Level / dB (re 20 µPa/V)  [2.83  V @ 1. m]"	"Frequency / Hz"	"Sound Pressure Level / dB (re 20 µPa/V)  [2.83  V @ 1. m]"	"Frequency / Hz"	"Sound Pressure Level / dB (re 20 µPa/V)  [2.83  V @ 1. m]"	"Frequency / Hz"	"Sound Pressure Level / dB (re 20 µPa/V)  [2.83  V @ 1. m]"	"Frequency / Hz"	"Sound Pressure Level / dB (re 20 µPa/V)  [2.83  V @ 1. m]"	"Frequency / Hz"	"Sound Pressure Level / dB (re 20 µPa/V)  [2.83  V @ 1. m]"	"Frequency / Hz"	"Sound Pressure Level / dB (re 20 µPa/V)  [2.83  V @ 1. m]"	"Frequency / Hz"	"Sound Pressure Level / dB (re 20 µPa/V)  [2.83  V @ 1. m]"	"Frequency / Hz"	"Sound Pressure Level / dB (re 20 µPa/V)  [2.83  V @ 1. m]"	"Frequency / Hz"	"Sound Pressure Level / dB (re 20 µPa/V)  [2.83  V @ 1. m]"	"Frequency / Hz"	"Sound Pressure Level / dB (re 20 µPa/V)  [2.83  V @ 1. m]"	"Frequency / Hz"	"Sound Pressure Level / dB (re 20 µPa/V)  [2.83  V @ 1. m]"	"Frequency / Hz"	"Sound Pressure Level / dB (re 20 µPa/V)  [2.83  V @ 1. m]"	"Frequency / Hz"	"Sound Pressure Level / dB (re 20 µPa/V)  [2.83  V @ 1. m]"	"Frequency / Hz"	"Sound Pressure Level / dB (re 20 µPa/V)  [2.83  V @ 1. m]"	"Frequency / Hz"	"Sound Pressure Level / dB (re 20 µPa/V)  [2.83  V @ 1. m]"	"Frequency / Hz"	"Sound Pressure Level / dB (re 20 µPa/V)  [2.83  V @ 1. m]"	"Frequency / Hz"	"Sound Pressure Level / dB (re 20 µPa/V)  [2.83  V @ 1. m]"	"Frequency / Hz"	"Sound Pressure Level / dB (re 20 µPa/V)  [2.83  V @ 1. m]"	"Frequency / Hz"	"Sound Pressure Level / dB (re 20 µPa/V)  [2.83  V @ 1. m]"	"Frequency / Hz"	"Sound Pressure Level / dB (re 20 µPa/V)  [2.83  V @ 1. m]"	"Frequency / Hz"	"Sound Pressure Level / dB (re 20 µPa/V)  [2.83  V @ 1. m]"	"Frequency / Hz"	"Sound Pressure Level / dB (re 20 µPa/V)  [2.83  V @ 1. m]"	"Frequency / Hz"	"Sound Pressure Level / dB (re 20 µPa/V)  [2.83  V @ 1. m]"	"Frequency / Hz"	"Sound Pressure Level / dB (re 20 µPa/V)  [2.83  V @ 1. m]"	"Frequency / Hz"	"Sound Pressure Level / dB (re 20 µPa/V)  [2.83  V @ 1. m]"	"Frequency / Hz"	"Sound Pressure Level / dB (re 20 µPa/V)  [2.83  V @ 1. m]"	"Frequency / Hz"	"Sound Pressure Level / dB (re 20 µPa/V)  [2.83  V @ 1. m]"	"Frequency / Hz"	"Sound Pressure Level / dB (re 20 µPa/V)  [2.83  V @ 1. m]"	"Frequency / Hz"	"Sound Pressure Level / dB (re 20 µPa/V)  [2.83  V @ 1. m]"	"Frequency / Hz"	"Sound Pressure Level / dB (re 20 µPa/V)  [2.83  V @ 1. m]"	"Frequency / Hz"	"Sound Pressure Level / dB (re 20 µPa/V)  [2.83  V @ 1. m]"	"Frequency / Hz"	"Sound Pressure Level / dB (re 20 µPa/V)  [2.83  V @ 1. m]"	"Frequency / Hz"	"Sound Pressure Level / dB (re 20 µPa/V)  [2.83  V @ 1. m]"	"Frequency / Hz"	"Sound Pressure Level / dB (re 20 µPa/V)  [2.83  V @ 1. m]"
20.5078	49.3289	20.5078	49.3002	20.5078	49.3186	20.5078	49.2357	20.5078	49.2693	20.5078	49.1413	20.5078	49.1844	20.5078	49.0253	20.5078	49.0707	20.5078	48.897	20.5078	48.9375	20.5078	48.766	20.5078	48.7958	20.5078	48.6414	20.5078	48.6575	20.5078	48.5309	20.5078	48.5337	20.5078	48.4404	20.5078	48.4333	20.5078	48.3731	20.5078	48.3622	20.5078	48.3301	20.5078	48.3217	20.5078	48.3099	20.5078	48.3093	20.5078	48.309	20.5078	48.3183	20.5078	48.3224	20.5078	48.3403	20.5078	48.3443	20.5078	48.3661	20.5078	48.3682	20.5078	48.3878	20.5078	48.3884	20.5078	48.4	20.5078	48.4
21.9727	46.1159	21.9727	46.0821	21.9727	46.1028	21.9727	46.0035	21.9727	46.0437	21.9727	45.8849	21.9727	45.9426	21.9727	45.7333	21.9727	45.8059	21.9727	45.5574	21.9727	45.6427	21.9727	45.3667	21.9727	45.4635	21.9727	45.1712	21.9727	45.2796	21.9727	44.9808	21.9727	45.102	21.9727	44.8042	21.9727	44.9404	21.9727	44.6488	21.9727	44.8018	21.9727	44.5202	21.9727	44.6898	21.9727	44.4219	21.9727	44.6041	21.9727	44.3545	21.9727	44.541	21.9727	44.3167	21.9727	44.4946	21.9727	44.3044	21.9727	44.4581	21.9727	44.3122	21.9727	44.4258	21.9727	44.3336	21.9727	44.3941	21.9727	44.3625
23.4375	45.42	23.4375	45.4436	23.4375	45.3618	23.4375	45.434	23.4375	45.2705	23.4375	45.3945	23.4375	45.1502	23.4375	45.3305	23.4375	45.0076	23.4375	45.2482	23.4375	44.8513	23.4375	45.1544	23.4375	44.6913	23.4375	45.0555	23.4375	44.5377	23.4375	44.9573	23.4375	44.4005	23.4375	44.8644	23.4375	44.2878	23.4375	44.7803	23.4375	44.2054	23.4375	44.7066	23.4375	44.1556	23.4375	44.6437	23.4375	44.1377	23.4375	44.5905	23.4375	44.1474	23.4375	44.5449	23.4375	44.1785	23.4375	44.5039	23.4375	44.2234	23.4375	44.4641	23.4375	44.2751	23.4375	44.4227	23.4375	44.3276	23.4375	44.3773
24.9023	44.3223	24.9023	44.3227	24.9023	44.2942	24.9023	44.2965	24.9023	44.2394	24.9023	44.2472	24.9023	44.1613	24.9023	44.1794	24.9023	44.0653	24.9023	44.0989	24.9023	43.9585	24.9023	44.0118	24.9023	43.8486	24.9023	43.9241	24.9023	43.7435	24.9023	43.8411	24.9023	43.6505	24.9023	43.7671	24.9023	43.5752	24.9023	43.7051	24.9023	43.5212	24.9023	43.6567	24.9023	43.4895	24.9023	43.6221	24.9023	43.4786	24.9023	43.6003	24.9023	43.4843	24.9023	43.5887	24.9023	43.5013	24.9023	43.5842	24.9023	43.5234	24.9023	43.5828	24.9023	43.5454	24.9023	43.5808	24.9023	43.5632	24.9023	43.5749
26.3672	44.2788	26.3672	44.2741	26.3672	44.2556	26.3672	44.2439	26.3672	44.2046	26.3672	44.1929	26.3672	44.1288	26.3672	44.1272	26.3672	44.0334	26.3672	44.0537	26.3672	43.9261	26.3672	43.9791	26.3672	43.8153	26.3672	43.9097	26.3672	43.7101	26.3672	43.8503	26.3672	43.619	26.3672	43.8046	26.3672	43.549	26.3672	43.7744	26.3672	43.5051	26.3672	43.7598	26.3672	43.4895	26.3672	43.7589	26.3672	43.5009	26.3672	43.7682	26.3672	43.5351	26.3672	43.7827	26.3672	43.5852	26.3672	43.7967	26.3672	43.6427	26.3672	43.8042	26.3672	43.6992	26.3672	43.8003	26.3672	43.7471	26.3672	43.7816
27.832	43.4038	27.832	43.4476	27.832	43.3504	27.832	43.4825	27.832	43.2887	27.832	43.5111	27.832	43.2222	27.832	43.537	27.832	43.1565	27.832	43.564	27.832	43.0983	27.832	43.5955	27.832	43.0546	27.832	43.6342	27.832	43.0322	27.832	43.6815	27.832	43.036	27.832	43.7375	27.832	43.0694	27.832	43.8008	27.832	43.1329	27.832	43.8684	27.832	43.2244	27.832	43.9361	27.832	43.3391	27.832	43.9988	27.832	43.4694	27.832	44.0504	27.832	43.6065	27.832	44.0848	27.832	43.7404	27.832	44.0965	27.832	43.8616	27.832	44.0812	27.832	43.9622	27.832	44.0364
29.2969	41.587	29.2969	41.7261	29.2969	41.4486	29.2969	41.8639	29.2969	41.3157	29.2969	42	29.2969	41.1954	29.2969	42.1355	29.2969	41.0966	29.2969	42.2719	29.2969	41.0291	29.2969	42.4101	29.2969	41.002	29.2969	42.5503	29.2969	41.0224	29.2969	42.6918	29.2969	41.0946	29.2969	42.8322	29.2969	41.219	29.2969	42.9682	29.2969	41.3921	29.2969	43.0949	29.2969	41.6065	29.2969	43.2069	29.2969	41.8518	29.2969	43.2975	29.2969	42.1147	29.2969	43.3601	29.2969	42.3807	29.2969	43.3879	29.2969	42.6353	29.2969	43.3752	29.2969	42.8653	29.2969	43.3173	29.2969	43.0601	29.2969	43.212
30.7617	41.1009	30.7617	41.2928	30.7617	40.924	30.7617	41.4952	30.7617	40.7686	30.7617	41.706	30.7617	40.6438	30.7617	41.9236	30.7617	40.5604	30.7617	42.1466	30.7617	40.5292	30.7617	42.3732	30.7617	40.5595	30.7617	42.6006	30.7617	40.6569	30.7617	42.8252	30.7617	40.8221	30.7617	43.0425	30.7617	41.0502	30.7617	43.2471	30.7617	41.3317	30.7617	43.4331	30.7617	41.6528	30.7617	43.5941	30.7617	41.9973	30.7617	43.7233	30.7617	42.3481	30.7617	43.8142	30.7617	42.6883	30.7617	43.8602	30.7617	43.0027	30.7617	43.8557	30.7617	43.2786	30.7617	43.7965	30.7617	43.5065	30.7617	43.6801
32.2266	41.8097	32.2266	42.0207	32.2266	41.6252	32.2266	42.2525	32.2266	41.4746	32.2266	42.5009	32.2266	41.3673	32.2266	42.7622	32.2266	41.3133	32.2266	43.0327	32.2266	41.3226	32.2266	43.3086	32.2266	41.4024	32.2266	43.585	32.2266	41.5556	32.2266	43.8569	32.2266	41.7799	32.2266	44.1185	32.2266	42.0676	32.2266	44.3636	32.2266	42.4057	32.2266	44.5857	32.2266	42.7781	32.2266	44.7781	32.2266	43.167	32.2266	44.9341	32.2266	43.554	32.2266	45.0469	32.2266	43.9223	32.2266	45.1103	32.2266	44.2568	32.2266	45.1188	32.2266	44.5458	32.2266	45.068	32.2266	44.7805	32.2266	44.9553
33.6914	41.8576	33.6914	42.1292	33.6914	41.6361	33.6914	42.4402	33.6914	41.4763	33.6914	42.7811	33.6914	41.3906	33.6914	43.1432	33.6914	41.3896	33.6914	43.5185	33.6914	41.4811	33.6914	43.8991	33.6914	41.6673	33.6914	44.2773	33.6914	41.9438	33.6914	44.6455	33.6914	42.2997	33.6914	44.9964	33.6914	42.7191	33.6914	45.3228	33.6914	43.1821	33.6914	45.6172	33.6914	43.6676	33.6914	45.8725	33.6914	44.1548	33.6914	46.0816	33.6914	44.6241	33.6914	46.2375	33.6914	45.0586	33.6914	46.3337	33.6914	45.4441	33.6914	46.3646	33.6914	45.7696	33.6914	46.3255	33.6914	46.0276	33.6914	46.2134
35.1562	39.6863	35.1562	40.0992	35.1562	39.3619	35.1562	40.578	35.1562	39.1477	35.1562	41.1015	35.1562	39.0621	35.1562	41.651	35.1562	39.117	35.1562	42.2102	35.1562	39.3155	35.1562	42.7652	35.1562	39.6506	35.1562	43.3044	35.1562	40.106	35.1562	43.8181	35.1562	40.6582	35.1562	44.2974	35.1562	41.2791	35.1562	44.7345	35.1562	41.9392	35.1562	45.1221	35.1562	42.6097	35.1562	45.453	35.1562	43.2645	35.1562	45.7204	35.1562	43.881	35.1562	45.9175	35.1562	44.441	35.1562	46.0382	35.1562	44.9304	35.1562	46.0766	35.1562	45.3388	35.1562	46.0283	35.1562	45.6598	35.1562	45.8899
36.6211	36.059	36.6211	36.8139	36.6211	35.4944	36.6211	37.6932	36.6211	35.1833	36.6211	38.6388	36.6211	35.17	36.6211	39.6044	36.6211	35.4656	36.6211	40.5558	36.6211	36.0431	36.6211	41.4689	36.6211	36.8457	36.6211	42.3274	36.6211	37.8036	36.6211	43.12	36.6211	38.8483	36.6211	43.8391	36.6211	39.9211	36.6211	44.4791	36.6211	40.976	36.6211	45.0353	36.6211	41.9789	36.6211	45.5035	36.6211	42.9052	36.6211	45.8796	36.6211	43.738	36.6211	46.1592	36.6211	44.466	36.6211	46.3381	36.6211	45.0818	36.6211	46.4119	36.6211	45.5815	36.6211	46.3763	36.6211	45.9634	36.6211	46.2278
38.0859	35.7411	38.0859	36.7624	38.0859	34.989	38.0859	37.9348	38.0859	34.6218	38.0859	39.1635	38.0859	34.7106	38.0859	40.3822	38.0859	35.2469	38.0859	41.5489	38.0859	36.1463	38.0859	42.6393	38.0859	37.2886	38.0859	43.6402	38.0859	38.5578	38.0859	44.5452	38.0859	39.8634	38.0859	45.3516	38.0859	41.1421	38.0859	46.0585	38.0859	42.353	38.0859	46.6653	38.0859	43.4706	38.0859	47.1711	38.0859	44.4795	38.0859	47.5747	38.0859	45.3708	38.0859	47.8738	38.0859	46.1395	38.0859	48.0657	38.0859	46.7832	38.0859	48.1472	38.0859	47.3013	38.0859	48.1148	38.0859	47.6947	38.0859	47.965
39.5508	38.4314	39.5508	39.2968	39.5508	37.8222	39.5508	40.321	39.5508	37.5479	39.5508	41.4165	39.5508	37.6389	39.5508	42.518	39.5508	38.0695	39.5508	43.5823	39.5508	38.776	39.5508	44.5836	39.5508	39.6821	39.5508	45.5071	39.5508	40.7157	39.5508	46.345	39.5508	41.8144	39.5508	47.0934	39.5508	42.9274	39.5508	47.75	39.5508	44.0142	39.5508	48.3131	39.5508	45.0441	39.5508	48.7809	39.5508	45.9944	39.5508	49.1513	39.5508	46.8493	39.5508	49.4215	39.5508	47.5978	39.5508	49.5883	39.5508	48.2331	39.5508	49.648	39.5508	48.7513	39.5508	49.5971	39.5508	49.151	39.5508	49.4323
41.0156	40.1977	41.0156	40.9643	41.0156	39.6545	41.0156	41.8857	41.0156	39.3805	41.0156	42.8901	41.0156	39.3874	41.0156	43.9169	41.0156	39.6595	41.0156	44.9223	41.0156	40.1678	41.0156	45.8778	41.0156	40.8783	41.0156	46.7661	41.0156	41.7519	41.0156	47.5774	41.0156	42.743	41.0156	48.3059	41.0156	43.8009	41.0156	48.948	41.0156	44.8756	41.0156	49.5008	41.0156	45.9232	41.0156	49.9615	41.0156	46.9088	41.0156	50.3266	41.0156	47.8067	41.0156	50.592	41.0156	48.5993	41.0156	50.7533	41.0156	49.2756	41.0156	50.8052	41.0156	49.8293	41.0156	50.7429	41.0156	50.2579	41.0156	50.5617
42.4805	41.8934	42.4805	42.1537	42.4805	41.8459	42.4805	42.6912	42.4805	41.9218	42.4805	43.5001	42.4805	42.055	42.4805	44.5052	42.4805	42.2254	42.4805	45.6055	42.4805	42.4607	42.4805	46.7142	42.4805	42.8223	42.4805	47.7732	42.4805	43.3751	42.4805	48.7486	42.4805	44.147	42.4805	49.6233	42.4805	45.1075	42.4805	50.3889	42.4805	46.1819	42.4805	51.0418	42.4805	47.2856	42.4805	51.5801	42.4805	48.3493	42.4805	52.0026	42.4805	49.3258	42.4805	52.3076	42.4805	50.1875	42.4805	52.4929	42.4805	50.9197	42.4805	52.5557	42.4805	51.5165	42.4805	52.4929	42.4805	51.9764	42.4805	52.3009
43.9453	42.852	43.9453	43.2712	43.9453	42.7347	43.9453	44.0205	43.9453	42.8289	43.9453	45.0363	43.9453	43.0487	43.9453	46.2019	43.9453	43.3545	43.9453	47.4064	43.9453	43.7576	43.9453	48.5728	43.9453	44.2995	43.9453	49.6573	43.9453	45.0179	43.9453	50.6384	43.9453	45.9153	43.9453	51.507	43.9453	46.9502	43.9453	52.2604	43.9453	48.0543	43.9453	52.8984	43.9453	49.1585	43.9453	53.4212	43.9453	50.2079	43.9453	53.8289	43.9453	51.1654	43.9453	54.1207	43.9453	52.0087	43.9453	54.295	43.9453	52.7259	43.9453	54.3496	43.9453	53.3119	43.9453	54.2816	43.9453	53.7655	43.9453	54.0879
45.4102	49.1451	45.4102	49.3782	45.4102	49.0302	45.4102	49.7406	45.4102	49.0118	45.4102	50.2262	45.4102	49.0671	45.4102	50.8118	45.4102	49.1816	45.4102	51.4644	45.4102	49.3536	45.4102	52.1483	45.4102	49.5937	45.4102	52.8318	45.4102	49.9198	45.4102	53.4893	45.4102	50.3477	45.4102	54.1012	45.4102	50.881	45.4102	54.6534	45.4102	51.5057	45.4102	55.135	45.4102	52.1919	45.4102	55.5378	45.4102	52.9015	45.4102	55.8552	45.4102	53.5966	45.4102	56.0813	45.4102	54.2449	45.4102	56.2114	45.4102	54.8219	45.4102	56.2412	45.4102	55.3108	45.4102	56.1672	45.4102	55.7012	45.4102	55.9873
46.875	53.1823	46.875	53.2671	46.875	53.136	46.875	53.4033	46.875	53.1162	46.875	53.6016	46.875	53.1146	46.875	53.8674	46.875	53.129	46.875	54.1986	46.875	53.1647	46.875	54.5862	46.875	53.2343	46.875	55.0148	46.875	53.3562	46.875	55.4657	46.875	53.5503	46.875	55.9189	46.875	53.8313	46.875	56.3553	46.875	54.2019	46.875	56.7573	46.875	54.6503	46.875	57.1098	46.875	55.1512	46.875	57.3999	46.875	55.6723	46.875	57.6167	46.875	56.1807	46.875	57.7518	46.875	56.6478	46.875	57.7983	46.875	57.0512	46.875	57.7519	46.875	57.3754	46.875	57.6106
48.3398	54.8204	48.3398	54.7063	48.3398	54.9307	48.3398	54.6145	48.3398	55.0184	48.3398	54.5763	48.3398	55.0727	48.3398	54.6221	48.3398	55.0915	48.3398	54.7748	48.3398	55.0816	48.3398	55.0418	48.3398	55.0593	48.3398	55.4122	48.3398	55.0505	48.3398	55.8601	48.3398	55.088	48.3398	56.3513	48.3398	55.2053	48.3398	56.851	48.3398	55.4261	48.3398	57.328	48.3398	55.7549	48.3398	57.7573	48.3398	56.1735	48.3398	58.1193	48.3398	56.6468	48.3398	58.3995	48.3398	57.1326	48.3398	58.5871	48.3398	57.5916	48.3398	58.675	48.3398	57.9921	48.3398	58.6585	48.3398	58.3119	48.3398	58.5366
51.2695	57.3602	51.2695	57.3518	51.2695	57.4057	51.2695	57.4101	51.2695	57.4622	51.2695	57.5607	51.2695	57.5119	51.2695	57.8171	51.2695	57.5484	51.2695	58.1761	51.2695	57.5767	51.2695	58.6187	51.2695	57.6131	51.2695	59.1158	51.2695	57.6829	51.2695	59.6354	51.2695	57.8149	51.2695	60.1482	51.2695	58.0341	51.2695	60.6297	51.2695	58.3524	51.2695	61.0609	51.2695	58.7636	51.2695	61.4272	51.2695	59.2447	51.2695	61.7177	51.2695	59.762	51.2695	61.9242	51.2695	60.2797	51.2695	62.0404	51.2695	60.7656	51.2695	62.0621	51.2695	61.1945	51.2695	61.9868	51.2695	61.5481	51.2695	61.8145
52.7344	61.1015	52.7344	61.1558	52.7344	61.0766	52.7344	61.2509	52.7344	61.0698	52.7344	61.396	52.7344	61.0727	52.7344	61.5951	52.7344	61.0814	52.7344	61.8459	52.7344	61.0979	52.7344	62.1404	52.7344	61.1295	52.7344	62.4658	52.7344	61.1882	52.7344	62.807	52.7344	61.2881	52.7344	63.148	52.7344	61.4425	52.7344	63.4735	52.7344	61.6594	52.7344	63.7697	52.7344	61.9384	52.7344	64.0242	52.7344	62.2698	52.7344	64.2264	52.7344	62.6357	52.7344	64.3676	52.7344	63.0134	52.7344	64.4408	52.7344	63.3796	52.7344	64.4412	52.7344	63.7129	52.7344	64.3663	52.7344	63.9961	52.7344	64.2166
54.1992	64.4097	54.1992	64.3775	54.1992	64.4355	54.1992	64.3485	54.1992	64.4476	54.1992	64.3335	54.1992	64.4412	54.1992	64.3433	54.1992	64.4148	54.1992	64.3875	54.1992	64.371	54.1992	64.4729	54.1992	64.3167	54.1992	64.6019	54.1992	64.2635	54.1992	64.7716	54.1992	64.2274	54.1992	64.974	54.1992	64.2268	54.1992	65.1968	54.1992	64.2786	54.1992	65.425	54.1992	64.3939	54.1992	65.6425	54.1992	64.5734	54.1992	65.8334	54.1992	64.8064	54.1992	65.9834	54.1992	65.0725	54.1992	66.0806	54.1992	65.3465	54.1992	66.1161	54.1992	65.6032	54.1992	66.0846	54.1992	65.8213	54.1992	65.985
55.6641	65.302	55.6641	65.2064	55.6641	65.3914	55.6641	65.1198	55.6641	65.4635	55.6641	65.0597	55.6641	65.5113	55.6641	65.0445	55.6641	65.5328	55.6641	65.0896	55.6641	65.5311	55.6641	65.2047	55.6641	65.5149	55.6641	65.3906	55.6641	65.498	55.6641	65.6391	55.6641	65.4991	55.6641	65.9342	55.6641	65.5382	55.6641	66.2549	55.6641	65.6331	55.6641	66.5789	55.6641	65.7934	55.6641	66.8847	55.6641	66.0169	55.6641	67.1535	55.6641	66.2892	55.6641	67.3696	55.6641	66.5866	55.6641	67.521	55.6641	66.8821	55.6641	67.5991	55.6641	67.1496	55.6641	67.5992	55.6641	67.3676	55.6641	67.5207
58.5938	67.6	58.5938	67.5346	58.5938	67.674	58.5938	67.4918	58.5938	67.7447	58.5938	67.4868	58.5938	67.8041	58.5938	67.5327	58.5938	67.8487	58.5938	67.6387	58.5938	67.88	58.5938	67.8076	58.5938	67.9046	58.5938	68.0349	58.5938	67.9338	58.5938	68.3094	58.5938	67.9824	58.5938	68.6151	58.5938	68.0661	58.5938	68.9333	58.5938	68.1974	58.5938	69.2451	58.5938	68.3824	58.5938	69.5329	58.5938	68.6175	58.5938	69.7811	58.5938	68.8898	58.5938	69.9769	58.5938	69.1795	58.5938	70.1102	58.5938	69.4638	58.5938	70.1741	58.5938	69.7207	58.5938	70.1649	58.5938	69.9316	58.5938	70.0827
60.0586	69.0402	60.0586	68.9884	60.0586	69.0991	60.0586	68.9551	60.0586	69.156	60.0586	68.9526	60.0586	69.2049	60.0586	68.9921	60.0586	69.2435	60.0586	69.0817	60.0586	69.2736	60.0586	69.2246	60.0586	69.3011	60.0586	69.4184	60.0586	69.3356	60.0586	69.6546	60.0586	69.3888	60.0586	69.9205	60.0586	69.4729	60.0586	70.2002	60.0586	69.5973	60.0586	70.4772	60.0586	69.766	60.0586	70.7354	60.0586	69.9758	60.0586	70.9602	60.0586	70.2157	60.0586	71.1394	60.0586	70.4693	60.0586	71.2634	60.0586	70.7173	60.0586	71.3255	60.0586	70.941	60.0586	71.3223	60.0586	71.124	60.0586	71.2538
62.9883	71.7784	62.9883	71.7345	62.9883	71.8309	62.9883	71.7081	62.9883	71.8848	62.9883	71.7083	62.9883	71.9345	62.9883	71.7432	62.9883	71.9778	62.9883	71.8183	62.9883	72.015	62.9883	71.9355	62.9883	72.0497	62.9883	72.0926	62.9883	72.0882	62.9883	72.2832	62.9883	72.1383	62.9883	72.4976	62.9883	72.2086	62.9883	72.7236	62.9883	72.3064	62.9883	72.9483	62.9883	72.4353	62.9883	73.1587	62.9883	72.5942	62.9883	73.3428	62.9883	72.7765	62.9883	73.4903	62.9883	72.971	62.9883	73.5928	62.9883	73.1636	62.9883	73.6446	62.9883	73.3393	62.9883	73.643	62.9883	73.4846	62.9883	73.5883
64.4531	73.0972	64.4531	73.0521	64.4531	73.1514	64.4531	73.0238	64.4531	73.2079	64.4531	73.0204	64.4531	73.2618	64.4531	73.0493	64.4531	73.3107	64.4531	73.1154	64.4531	73.3545	64.4531	73.2208	64.4531	73.396	64.4531	73.3639	64.4531	73.4401	64.4531	73.5394	64.4531	73.4934	64.4531	73.7386	64.4531	73.5632	64.4531	73.9507	64.4531	73.6558	64.4531	74.1634	64.4531	73.7746	64.4531	74.3645	64.4531	73.9189	64.4531	74.5425	64.4531	74.0834	64.4531	74.6871	64.4531	74.2584	64.4531	74.7901	64.4531	74.4312	64.4531	74.8459	64.4531	74.5884	64.4531	74.8515	64.4531	74.7173	64.4531	74.8074
67.3828	75.5411	67.3828	75.4964	67.3828	75.5946	67.3828	75.4672	67.3828	75.6511	67.3828	75.46	67.3828	75.7063	67.3828	75.481	67.3828	75.7574	67.3828	75.5344	67.3828	75.8041	67.3828	75.622	67.3828	75.8477	67.3828	75.7427	67.3828	75.8918	67.3828	75.8923	67.3828	75.9413	67.3828	76.0637	67.3828	76.002	67.3828	76.2477	67.3828	76.079	67.3828	76.4338	67.3828	76.1757	67.3828	76.6112	67.3828	76.2924	67.3828	76.7693	67.3828	76.4256	67.3828	76.8989	67.3828	76.5681	67.3828	76.9926	67.3828	76.7098	67.3828	77.0451	67.3828	76.8393	67.3828	77.0538	67.3828	76.9457	67.3828	77.0195
68.8477	76.6917	68.8477	76.6499	68.8477	76.7421	68.8477	76.6229	68.8477	76.7958	68.8477	76.6167	68.8477	76.8486	68.8477	76.6367	68.8477	76.898	68.8477	76.6868	68.8477	76.9432	68.8477	76.7686	68.8477	76.9854	68.8477	76.8809	68.8477	77.0276	68.8477	77.0199	68.8477	77.0742	68.8477	77.1791	68.8477	77.1304	68.8477	77.3501	68.8477	77.201	68.8477	77.5232	68.8477	77.2892	68.8477	77.6883	68.8477	77.3956	68.8477	77.8355	68.8477	77.5173	68.8477	77.9561	68.8477	77.648	68.8477	78.0431	68.8477	77.7785	68.8477	78.0916	68.8477	77.8985	68.8477	78.0992	68.8477	77.9975	68.8477	78.0666
71.7773	78.8285	71.7773	78.7946	71.7773	78.8712	71.7773	78.7744	71.7773	78.9183	71.7773	78.7726	71.7773	78.9661	71.7773	78.7936	71.7773	79.0124	71.7773	78.8402	71.7773	79.0563	71.7773	78.9137	71.7773	79.0984	71.7773	79.013	71.7773	79.141	71.7773	79.1351	71.7773	79.1874	71.7773	79.2745	71.7773	79.2414	71.7773	79.4242	71.7773	79.3068	71.7773	79.5761	71.7773	79.3863	71.7773	79.7214	71.7773	79.4803	71.7773	79.8514	71.7773	79.5865	71.7773	79.9584	71.7773	79.6998	71.7773	80.0361	71.7773	79.8127	71.7773	80.08	71.7773	79.9163	71.7773	80.0881	71.7773	80.0016	71.7773	80.0608
74.707	80.5716	74.707	80.5435	74.707	80.6094	74.707	80.5289	74.707	80.6533	74.707	80.5316	74.707	80.7002	74.707	80.5546	74.707	80.7478	74.707	80.5999	74.707	80.795	74.707	80.6684	74.707	80.8418	74.707	80.7587	74.707	80.8894	74.707	80.8683	74.707	80.9398	74.707	80.9925	74.707	80.9956	74.707	81.1255	74.707	81.0596	74.707	81.2603	74.707	81.1334	74.707	81.3895	74.707	81.2175	74.707	81.5057	74.707	81.3099	74.707	81.6022	74.707	81.4068	74.707	81.6734	74.707	81.502	74.707	81.7153	74.707	81.5885	74.707	81.7261	74.707	81.6588	74.707	81.7064
77.6367	81.9457	77.6367	81.9201	77.6367	81.98	77.6367	81.9063	77.6367	82.0199	77.6367	81.9073	77.6367	82.063	77.6367	81.9256	77.6367	82.1072	77.6367	81.963	77.6367	82.1515	77.6367	82.02	77.6367	82.1957	77.6367	82.096	77.6367	82.2403	77.6367	82.1888	77.6367	82.287	77.6367	82.2948	77.6367	82.3375	77.6367	82.4091	77.6367	82.3939	77.6367	82.5258	77.6367	82.4576	77.6367	82.6386	77.6367	82.5288	77.6367	82.741	77.6367	82.6062	77.6367	82.827	77.6367	82.6866	77.6367	82.8916	77.6367	82.7652	77.6367	82.9311	77.6367	82.8361	77.6367	82.9439	77.6367	82.8931	77.6367	82.9304
79.1016	82.5246	79.1016	82.5011	79.1016	82.5569	79.1016	82.489	79.1016	82.5952	79.1016	82.491	79.1016	82.6373	79.1016	82.5095	79.1016	82.6812	79.1016	82.5459	79.1016	82.7259	79.1016	82.6008	79.1016	82.7712	79.1016	82.6735	79.1016	82.8174	79.1016	82.7619	79.1016	82.8656	79.1016	82.8628	79.1016	82.9174	79.1016	82.9716	79.1016	82.9741	79.1016	83.0828	79.1016	83.037	79.1016	83.1905	79.1016	83.1059	79.1016	83.2887	79.1016	83.1796	79.1016	83.3715	79.1016	83.2551	79.1016	83.4344	79.1016	83.3281	79.1016	83.4738	79.1016	83.3932	79.1016	83.4882	79.1016	83.4448	79.1016	83.4778
82.0312	83.4441	82.0312	83.4243	82.0312	83.473	82.0312	83.4158	82.0312	83.5088	82.0312	83.4204	82.0312	83.5495	82.0312	83.44	82.0312	83.5938	82.0312	83.4755	82.0312	83.6403	82.0312	83.5272	82.0312	83.6885	82.0312	83.5943	82.0312	83.7383	82.0312	83.6751	82.0312	83.7901	82.0312	83.7666	82.0312	83.8443	82.0312	83.865	82.0312	83.9018	82.0312	83.9656	82.0312	83.9627	82.0312	84.0634	82.0312	84.0269	82.0312	84.1529	82.0312	84.0931	82.0312	84.2294	82.0312	84.1589	82.0312	84.2887	82.0312	84.2208	82.0312	84.3276	82.0312	84.2746	82.0312	84.3448	82.0312	84.3158	82.0312	84.3402
84.9609	84.0876	84.9609	84.0706	84.9609	84.1139	84.9609	84.0645	84.9609	84.1478	84.9609	84.0707	84.9609	84.1878	84.9609	84.0903	84.9609	84.2326	84.9609	84.1239	84.9609	84.2809	84.9609	84.1716	84.9609	84.3318	84.9609	84.2325	84.9609	84.3848	84.9609	84.3051	84.9609	84.4393	84.9609	84.3869	84.9609	84.4953	84.9609	84.4747	84.9609	84.5526	84.9609	84.5646	84.9609	84.6108	84.9609	84.6523	84.9609	84.6695	84.9609	84.7334	84.9609	84.7275	84.9609	84.8036	84.9609	84.7828	84.9609	84.8595	84.9609	84.8331	84.9609	84.8983	84.9609	84.875	84.9609	84.9187	84.9609	84.9052	84.9609	84.9205
87.8906	84.5934	87.8906	84.5791	87.8906	84.6172	87.8906	84.5754	87.8906	84.6494	87.8906	84.5831	87.8906	84.6886	87.8906	84.6026	87.8906	84.7336	87.8906	84.6343	87.8906	84.783	87.8906	84.6777	87.8906	84.8355	87.8906	84.7321	87.8906	84.8901	87.8906	84.7958	87.8906	84.9455	87.8906	84.8669	87.8906	85.0009	87.8906	84.9428	87.8906	85.0555	87.8906	85.0204	87.8906	85.1086	87.8906	85.0963	87.8906	85.1596	87.8906	85.167	87.8906	85.2076	87.8906	85.2291	87.8906	85.2514	87.8906	85.2797	87.8906	85.2892	87.8906	85.3166	87.8906	85.319	87.8906	85.3387	87.8906	85.3386	87.8906	85.3457
90.8203	84.8647	90.8203	84.8529	90.8203	84.886	90.8203	84.8509	90.8203	84.9158	90.8203	84.8593	90.8203	84.9534	90.8203	84.8781	90.8203	84.9973	90.8203	84.907	90.8203	85.0464	90.8203	84.9456	90.8203	85.099	90.8203	84.993	90.8203	85.1537	90.8203	85.048	90.8203	85.2089	90.8203	85.109	90.8203	85.2631	90.8203	85.174	90.8203	85.3151	90.8203	85.2407	90.8203	85.3639	90.8203	85.3063	90.8203	85.4087	90.8203	85.3682	90.8203	85.4487	90.8203	85.4236	90.8203	85.4832	90.8203	85.47	90.8203	85.5109	90.8203	85.5058	90.8203	85.5309	90.8203	85.5297	90.8203	85.5415	90.8203	85.5414
95.2148	85.1203	95.2148	85.111	95.2148	85.1389	95.2148	85.1111	95.2148	85.1666	95.2148	85.1201	95.2148	85.2028	95.2148	85.1378	95.2148	85.2465	95.2148	85.1635	95.2148	85.2963	95.2148	85.1965	95.2148	85.3504	95.2148	85.2359	95.2148	85.4069	95.2148	85.2809	95.2148	85.4636	95.2148	85.3302	95.2148	85.5182	95.2148	85.3826	95.2148	85.5688	95.2148	85.4366	95.2148	85.6139	95.2148	85.4905	95.2148	85.6522	95.2148	85.5425	95.2148	85.6832	95.2148	85.5906	95.2148	85.7062	95.2148	85.6333	95.2148	85.7213	95.2148	85.6691	95.2148	85.7281	95.2148	85.6968	95.2148	85.7264	95.2148	85.716
98.1445	85.177	98.1445	85.1685	98.1445	85.1948	98.1445	85.1687	98.1445	85.2219	98.1445	85.1772	98.1445	85.2579	98.1445	85.193	98.1445	85.3019	98.1445	85.2155	98.1445	85.3526	98.1445	85.2438	98.1445	85.408	98.1445	85.277	98.1445	85.4659	98.1445	85.3145	98.1445	85.5234	98.1445	85.3554	98.1445	85.5782	98.1445	85.3989	98.1445	85.6276	98.1445	85.4442	98.1445	85.6698	98.1445	85.4902	98.1445	85.7033	98.1445	85.5358	98.1445	85.7275	98.1445	85.5797	98.1445	85.7422	98.1445	85.6207	98.1445	85.7477	98.1445	85.6575	98.1445	85.7445	98.1445	85.6891	98.1445	85.7333	98.1445	85.7146
101.074	85.2404	101.074	85.2329	101.074	85.2569	101.074	85.2335	101.074	85.2827	101.074	85.2413	101.074	85.3176	101.074	85.2553	101.074	85.3611	101.074	85.2744	101.074	85.4116	101.074	85.2978	101.074	85.4673	101.074	85.3247	101.074	85.5254	101.074	85.3545	101.074	85.5831	101.074	85.3868	101.074	85.6373	101.074	85.4214	101.074	85.6851	101.074	85.4579	101.074	85.7243	101.074	85.4959	101.074	85.7532	101.074	85.5349	101.074	85.771	101.074	85.5741	101.074	85.7779	101.074	85.6129	101.074	85.7746	101.074	85.6502	101.074	85.7623	101.074	85.685	101.074	85.7423	101.074	85.7161
105.469	85.0955	105.469	85.0882	105.469	85.1113	105.469	85.0881	105.469	85.1364	105.469	85.094	105.469	85.1711	105.469	85.1048	105.469	85.2149	105.469	85.1191	105.469	85.2666	105.469	85.1363	105.469	85.324	105.469	85.1557	105.469	85.3844	105.469	85.177	105.469	85.4442	105.469	85.2002	105.469	85.4997	105.469	85.2255	105.469	85.5475	105.469	85.2531	105.469	85.5845	105.469	85.2833	105.469	85.6089	105.469	85.3163	105.469	85.6197	105.469	85.3521	105.469	85.6173	105.469	85.3902	105.469	85.603	105.469	85.4301	105.469	85.5787	105.469	85.4706	105.469	85.547	105.469	85.5102
108.398	85.0995	108.398	85.0934	108.398	85.114	108.398	85.0943	108.398	85.1378	108.398	85.1006	108.398	85.1713	108.398	85.1107	108.398	85.2141	108.398	85.1231	108.398	85.2647	108.398	85.1367	108.398	85.3209	108.398	85.151	108.398	85.3794	108.398	85.1655	108.398	85.4367	108.398	85.1805	108.398	85.4888	108.398	85.1967	108.398	85.5321	108.398	85.2147	108.398	85.5636	108.398	85.2354	108.398	85.5816	108.398	85.2599	108.398	85.5851	108.398	85.2886	108.398	85.575	108.398	85.3218	108.398	85.5528	108.398	85.3591	108.398	85.5212	108.398	85.3996	108.398	85.4832	108.398	85.4417
112.793	85.1146	112.793	85.1037	112.793	85.1329	112.793	85.0987	112.793	85.1595	112.793	85.098	112.793	85.1949	112.793	85.0999	112.793	85.2384	112.793	85.1031	112.793	85.2887	112.793	85.1065	112.793	85.3432	112.793	85.1096	112.793	85.3989	112.793	85.1122	112.793	85.4519	112.793	85.115	112.793	85.4982	112.793	85.1191	112.793	85.5339	112.793	85.1257	112.793	85.5561	112.793	85.1365	112.793	85.5629	112.793	85.153	112.793	85.5537	112.793	85.1764	112.793	85.5295	112.793	85.2076	112.793	85.4927	112.793	85.2464	112.793	85.4467	112.793	85.292	112.793	85.3954	112.793	85.3426
117.188	85.0536	117.188	85.0421	117.188	85.0716	117.188	85.0357	117.188	85.0976	117.188	85.0324	117.188	85.1319	117.188	85.0304	117.188	85.1743	117.188	85.0284	117.188	85.2234	117.188	85.0252	117.188	85.2768	117.188	85.0206	117.188	85.3312	117.188	85.0148	117.188	85.3826	117.188	85.0087	117.188	85.4269	117.188	85.0038	117.188	85.46	117.188	85.0021	117.188	85.4785	117.188	85.0056	117.188	85.4803	117.188	85.0165	117.188	85.4649	117.188	85.0364	117.188	85.4333	117.188	85.0664	117.188	85.3881	117.188	85.1067	117.188	85.3333	117.188	85.1563	117.188	85.2733	117.188	85.2129
120.117	85.0109	120.117	84.9985	120.117	85.0293	120.117	84.9905	120.117	85.055	120.117	84.9849	120.117	85.0887	120.117	84.9801	120.117	85.1303	120.117	84.9747	120.117	85.1785	120.117	84.9679	120.117	85.2311	120.117	84.9592	120.117	85.2849	120.117	84.9493	120.117	85.3358	120.117	84.939	120.117	85.3796	120.117	84.9302	120.117	85.4119	120.117	84.9248	120.117	85.4293	120.117	84.9253	120.117	85.4294	120.117	84.9339	120.117	85.4114	120.117	84.9527	120.117	85.3764	120.117	84.9829	120.117	85.3271	120.117	85.0247	120.117	85.2676	120.117	85.0771	120.117	85.2027	120.117	85.1377
124.512	84.9213	124.512	84.9101	124.512	84.9385	124.512	84.9031	124.512	84.9632	124.512	84.8984	124.512	84.9964	124.512	84.894	124.512	85.0378	124.512	84.8886	124.512	85.0864	124.512	84.8809	124.512	85.14	124.512	84.8708	124.512	85.1952	124.512	84.8584	124.512	85.2478	124.512	84.845	124.512	85.2931	124.512	84.8321	124.512	85.3265	124.512	84.8223	124.512	85.344	124.512	84.8183	124.512	85.3432	124.512	84.8229	124.512	85.323	124.512	84.8385	124.512	85.2845	124.512	84.8669	124.512	85.2307	124.512	84.9087	124.512	85.166	124.512	84.9628	124.512	85.0961	124.512	85.0266
128.906	84.891	128.906	84.8808	128.906	84.9075	128.906	84.8749	128.906	84.9318	128.906	84.871	128.906	84.965	128.906	84.8669	128.906	85.0069	128.906	84.861	128.906	85.0564	128.906	84.8519	128.906	85.1109	128.906	84.8391	128.906	85.167	128.906	84.823	128.906	85.2202	128.906	84.8047	128.906	85.2655	128.906	84.7863	128.906	85.2982	128.906	84.7705	128.906	85.3141	128.906	84.7607	128.906	85.3104	128.906	84.7601	128.906	85.2862	128.906	84.7719	128.906	85.2427	128.906	84.798	128.906	85.1832	128.906	84.8395	128.906	85.1126	128.906	84.8952	128.906	85.0369	128.906	84.9625
133.301	84.8194	133.301	84.8086	133.301	84.8361	133.301	84.8017	133.301	84.8605	133.301	84.7962	133.301	84.8937	133.301	84.7901	133.301	84.9357	133.301	84.7814	133.301	84.9855	133.301	84.7689	133.301	85.0407	133.301	84.7523	133.301	85.0976	133.301	84.732	133.301	85.1517	133.301	84.7092	133.301	85.1978	133.301	84.6864	133.301	85.2307	133.301	84.6665	133.301	85.246	133.301	84.6531	133.301	85.2407	133.301	84.6501	133.301	85.2137	133.301	84.6607	133.301	85.1662	133.301	84.6873	133.301	85.1015	133.301	84.7309	133.301	85.0249	133.301	84.7904	133.301	84.9431	133.301	84.8628
139.16	84.7558	139.16	84.7466	139.16	84.771	139.16	84.7409	139.16	84.7941	139.16	84.7361	139.16	84.8263	139.16	84.7298	139.16	84.8677	139.16	84.72	139.16	84.9174	139.16	84.7052	139.16	84.9727	139.16	84.6848	139.16	85.03	139.16	84.6594	139.16	85.0843	139.16	84.6305	139.16	85.1302	139.16	84.6006	139.16	85.1622	139.16	84.5733	139.16	85.1756	139.16	84.5527	139.16	85.1672	139.16	84.5433	139.16	85.1358	139.16	84.5491	139.16	85.0827	139.16	84.5729	139.16	85.0116	139.16	84.616	139.16	84.9282	139.16	84.6774	139.16	84.8397	139.16	84.7538
143.555	84.7319	143.555	84.7244	143.555	84.7437	143.555	84.7188	143.555	84.7621	143.555	84.7124	143.555	84.7886	143.555	84.7028	143.555	84.8235	143.555	84.688	143.555	84.8663	143.555	84.6668	143.555	84.9148	143.555	84.6387	143.555	84.9656	143.555	84.6046	143.555	85.0139	143.555	84.5663	143.555	85.0544	143.555	84.5267	143.555	85.0814	143.555	84.4898	143.555	85.09	143.555	84.4602	143.555	85.077	143.555	84.4428	143.555	85.0408	143.555	84.4419	143.555	84.9829	143.555	84.4608	143.555	84.907	143.555	84.5009	143.555	84.8192	143.555	84.5614	143.555	84.7271	143.555	84.6387
147.949	84.5899	147.949	84.5818	147.949	84.6025	147.949	84.5758	147.949	84.6218	147.949	84.5693	147.949	84.6491	147.949	84.56	147.949	84.6849	147.949	84.546	147.949	84.7286	147.949	84.5259	147.949	84.7778	147.949	84.4993	147.949	84.8291	147.949	84.4666	147.949	84.8778	147.949	84.4295	147.949	84.9182	147.949	84.3907	147.949	84.9449	147.949	84.354	147.949	84.953	147.949	84.324	147.949	84.9389	147.949	84.3056	147.949	84.9017	147.949	84.3034	147.949	84.8425	147.949	84.3209	147.949	84.7655	147.949	84.3597	147.949	84.6768	147.949	84.4191	147.949	84.5842	147.949	84.4959
153.809	84.5276	153.809	84.5091	153.809	84.5489	153.809	84.4915	153.809	84.575	153.809	84.4724	153.809	84.607	153.809	84.4499	153.809	84.6455	153.809	84.4223	153.809	84.6898	153.809	84.3887	153.809	84.7381	153.809	84.3491	153.809	84.7873	153.809	84.3044	153.809	84.8331	153.809	84.2568	153.809	84.8701	153.809	84.2096	153.809	84.8927	153.809	84.1674	153.809	84.8958	153.809	84.1351	153.809	84.8757	153.809	84.1179	153.809	84.8308	153.809	84.1206	153.809	84.7622	153.809	84.1464	153.809	84.6738	153.809	84.1965	153.809	84.5719	153.809	84.2696	153.809	84.4648	153.809	84.3612
159.668	84.345	159.668	84.3279	159.668	84.3666	159.668	84.3128	159.668	84.3945	159.668	84.2975	159.668	84.4301	159.668	84.2796	159.668	84.474	159.668	84.2572	159.668	84.5254	159.668	84.2289	159.668	84.5822	159.668	84.1942	159.668	84.6408	159.668	84.1536	159.668	84.6962	159.668	84.109	159.668	84.7423	159.668	84.0635	159.668	84.7728	159.668	84.0218	159.668	84.782	159.668	83.9892	159.668	84.7658	159.668	83.9717	159.668	84.7223	159.668	83.9747	159.668	84.6526	159.668	84.002	159.668	84.5609	159.668	84.0553	159.668	84.4539	159.668	84.1331	159.668	84.3407	159.668	84.2307
165.527	84.3033	165.527	84.2929	165.527	84.3168	165.527	84.2835	165.527	84.3359	165.527	84.2724	165.527	84.362	165.527	84.2574	165.527	84.3961	165.527	84.2363	165.527	84.4382	165.527	84.2077	165.527	84.4865	165.527	84.171	165.527	84.5379	165.527	84.1267	165.527	84.5876	165.527	84.0765	165.527	84.6297	165.527	84.0238	165.527	84.6575	165.527	83.9732	165.527	84.665	165.527	83.9306	165.527	84.6477	165.527	83.9023	165.527	84.6034	165.527	83.8944	165.527	84.5333	165.527	83.9114	165.527	84.4415	165.527	83.9555	165.527	84.3353	165.527	84.0258	165.527	84.2241	165.527	84.1177
171.387	84.0331	171.387	84.0185	171.387	84.05	171.387	84.004	171.387	84.0715	171.387	83.9873	171.387	84.0993	171.387	83.9665	171.387	84.1345	171.387	83.9396	171.387	84.1772	171.387	83.9057	171.387	84.2259	171.387	83.8643	171.387	84.2777	171.387	83.816	171.387	84.3279	171.387	83.763	171.387	84.3704	171.387	83.7086	171.387	84.3986	171.387	83.6576	171.387	84.4061	171.387	83.6158	171.387	84.3881	171.387	83.5898	171.387	84.3423	171.387	83.5855	171.387	84.2694	171.387	83.6074	171.387	84.1738	171.387	83.6573	171.387	84.0627	171.387	83.7341	171.387	83.9456	171.387	83.8327
177.246	83.798	177.246	83.7795	177.246	83.8189	177.246	83.7614	177.246	83.8444	177.246	83.7411	177.246	83.8759	177.246	83.7166	177.246	83.9142	177.246	83.686	177.246	83.9593	177.246	83.6478	177.246	84.0095	177.246	83.6016	177.246	84.0615	177.246	83.548	177.246	84.1106	177.246	83.4892	177.246	84.1506	177.246	83.4287	177.246	84.1749	177.246	83.372	177.246	84.1771	177.246	83.3254	177.246	84.1528	177.246	83.2958	177.246	84.0997	177.246	83.2898	177.246	84.0189	177.246	83.3121	177.246	83.9151	177.246	83.3646	177.246	83.7957	177.246	83.4459	177.246	83.6706	177.246	83.5506
183.105	83.5027	183.105	83.4822	183.105	83.5233	183.105	83.4597	183.105	83.5461	183.105	83.4329	183.105	83.5732	183.105	83.4001	183.105	83.606	183.105	83.3598	183.105	83.6452	183.105	83.3112	183.105	83.6901	183.105	83.2542	183.105	83.7383	183.105	83.1901	183.105	83.7854	183.105	83.1217	183.105	83.8252	183.105	83.0534	183.105	83.8506	183.105	82.991	183.105	83.8545	183.105	82.9413	183.105	83.8314	183.105	82.9117	183.105	83.7783	183.105	82.9084	183.105	83.6957	183.105	82.9362	183.105	83.5879	183.105	82.9963	183.105	83.4625	183.105	83.0864	183.105	83.3296	183.105	83.2006
188.965	83.2473	188.965	83.2258	188.965	83.2657	188.965	83.1993	188.965	83.2833	188.965	83.1661	188.965	83.3024	188.965	83.1247	188.965	83.3251	188.965	83.0743	188.965	83.3528	188.965	83.0144	188.965	83.3859	188.965	82.9456	188.965	83.423	188.965	82.8697	188.965	83.4605	188.965	82.7898	188.965	83.4928	188.965	82.7107	188.965	83.5128	188.965	82.6389	188.965	83.5134	188.965	82.5816	188.965	83.4883	188.965	82.5467	188.965	83.4341	188.965	82.5408	188.965	83.3503	188.965	82.5684	188.965	83.2407	188.965	82.6305	188.965	83.1126	188.965	82.7243	188.965	82.9761	188.965	82.8427
196.289	82.9484	196.289	82.9265	196.289	82.9685	196.289	82.9009	196.289	82.9886	196.289	82.8699	196.289	83.0104	196.289	82.8316	196.289	83.0354	196.289	82.7843	196.289	83.0642	196.289	82.727	196.289	83.0964	196.289	82.6592	196.289	83.13	196.289	82.5817	196.289	83.1611	196.289	82.497	196.289	83.1839	196.289	82.4096	196.289	83.1919	196.289	82.3259	196.289	83.1784	196.289	82.2541	196.289	83.1382	196.289	82.2028	196.289	83.0688	196.289	82.1802	196.289	82.9712	196.289	82.1924	196.289	82.8501	196.289	82.2417	196.289	82.7137	196.289	82.3263	196.289	82.573	196.289	82.4399
203.613	82.7263	203.613	82.6988	203.613	82.749	203.613	82.6651	203.613	82.7686	203.613	82.6237	203.613	82.7867	203.613	82.5732	203.613	82.8048	203.613	82.5127	203.613	82.8246	203.613	82.4417	203.613	82.8466	203.613	82.3608	203.613	82.8703	203.613	82.2719	203.613	82.893	203.613	82.1784	203.613	82.91	203.613	82.0857	203.613	82.915	203.613	82.0008	203.613	82.9012	203.613	81.9318	203.613	82.8628	203.613	81.8867	203.613	82.7963	203.613	81.8728	203.613	82.7016	203.613	81.8949	203.613	82.5825	203.613	81.9539	203.613	82.4467	203.613	82.047	203.613	82.3043	203.613	82.1671
210.938	82.4817	210.938	82.4493	210.938	82.5047	210.938	82.4065	210.938	82.5197	210.938	82.3532	210.938	82.5292	210.938	82.2893	210.938	82.5365	210.938	82.2153	210.938	82.5449	210.938	82.1322	210.938	82.5574	210.938	82.0415	210.938	82.5748	210.938	81.9459	210.938	82.5958	210.938	81.8491	210.938	82.6155	210.938	81.7567	210.938	82.6271	210.938	81.6753	210.938	82.6224	210.938	81.6128	210.938	82.5939	210.938	81.5771	210.938	82.5367	210.938	81.5745	210.938	82.4494	210.938	81.6088	210.938	82.3351	210.938	81.6802	210.938	82.2006	210.938	81.7844	210.938	82.0561	210.938	81.9133
218.262	82.3456	218.262	82.3201	218.262	82.3621	218.262	82.2849	218.262	82.3717	218.262	82.2396	218.262	82.3771	218.262	82.1845	218.262	82.3819	218.262	82.1202	218.262	82.3899	218.262	82.0476	218.262	82.4043	218.262	81.9684	218.262	82.4264	218.262	81.8848	218.262	82.4547	218.262	81.8004	218.262	82.4847	218.262	81.7199	218.262	82.5092	218.262	81.6497	218.262	82.5195	218.262	81.597	218.262	82.5076	218.262	81.5693	218.262	82.4676	218.262	81.5727	218.262	82.3971	218.262	81.6107	218.262	82.2984	218.262	81.683	218.262	82.1775	218.262	81.7853	218.262	82.0439	218.262	81.9092
225.586	82.3825	225.586	82.3597	225.586	82.3948	225.586	82.3254	225.586	82.3988	225.586	82.2795	225.586	82.3979	225.586	82.2226	225.586	82.3962	225.586	82.1558	225.586	82.3981	225.586	82.0805	225.586	82.4074	225.586	81.9986	225.586	82.4257	225.586	81.9127	225.586	82.4517	225.586	81.8265	225.586	82.4808	225.586	81.7448	225.586	82.5055	225.586	81.6737	225.586	82.5172	225.586	81.6206	225.586	82.5074	225.586	81.5926	225.586	82.4703	225.586	81.5959	225.586	82.4033	225.586	81.6338	225.586	82.3082	225.586	81.7056	225.586	82.1911	225.586	81.8068	225.586	82.0609	225.586	81.9288
232.91	82.5224	232.91	82.4976	232.91	82.5356	232.91	82.4609	232.91	82.5389	232.91	82.4129	232.91	82.5353	232.91	82.3548	232.91	82.529	232.91	82.2881	232.91	82.5246	232.91	82.2141	232.91	82.5263	232.91	82.1344	232.91	82.5365	232.91	82.0508	232.91	82.5542	232.91	81.9659	232.91	82.5754	232.91	81.8837	232.91	82.5925	232.91	81.8096	232.91	82.5969	232.91	81.7505	232.91	82.5804	232.91	81.7139	232.91	82.5371	232.91	81.7063	232.91	82.4653	232.91	81.7321	232.91	82.3673	232.91	81.792	232.91	82.2497	232.91	81.8823	232.91	82.122	232.91	81.9957
241.699	82.844	241.699	82.8099	241.699	82.8636	241.699	82.7618	241.699	82.8693	241.699	82.7011	241.699	82.8635	241.699	82.6295	241.699	82.8501	241.699	82.5489	241.699	82.8345	241.699	82.461	241.699	82.822	241.699	82.3677	241.699	82.8165	241.699	82.2714	241.699	82.819	241.699	82.1757	241.699	82.8269	241.699	82.0853	241.699	82.8338	241.699	82.0066	241.699	82.8313	241.699	81.9469	241.699	82.8111	241.699	81.9133	241.699	82.7666	241.699	81.9116	241.699	82.6953	241.699	81.9448	241.699	82.5986	241.699	82.012	241.699	82.482	241.699	82.1084	241.699	82.3542	241.699	82.2259
250.488	83.0912	250.488	83.0539	250.488	83.1106	250.488	82.9992	250.488	83.1135	250.488	82.9285	250.488	83.1031	250.488	82.8438	250.488	83.0842	250.488	82.7471	250.488	83.0634	250.488	82.6406	250.488	83.0467	250.488	82.5269	250.488	83.0386	250.488	82.4095	250.488	83.0401	250.488	82.2932	250.488	83.048	250.488	82.1848	250.488	83.0552	250.488	82.0932	250.488	83.0524	250.488	82.0275	250.488	83.0307	250.488	81.9964	250.488	82.9835	250.488	82.0053	250.488	82.9078	250.488	82.0554	250.488	82.8047	250.488	82.143	250.488	82.6794	250.488	82.2601	250.488	82.5399	250.488	82.3963
259.277	83.6037	259.277	83.5821	259.277	83.6136	259.277	83.5493	259.277	83.6128	259.277	83.506	259.277	83.6032	259.277	83.4524	259.277	83.5886	259.277	83.3881	259.277	83.5734	259.277	83.312	259.277	83.5618	259.277	83.2226	259.277	83.5564	259.277	83.1192	259.277	83.5569	259.277	83.0033	259.277	83.5592	259.277	82.8801	259.277	83.5564	259.277	82.7583	259.277	83.5399	259.277	82.6504	259.277	83.5017	259.277	82.5699	259.277	83.4366	259.277	82.5285	259.277	83.3434	259.277	82.5335	259.277	83.225	259.277	82.5854	259.277	83.0882	259.277	82.6785	259.277	82.9432	259.277	82.8021
268.066	83.6983	268.066	83.6562	268.066	83.7257	268.066	83.6002	268.066	83.7389	268.066	83.5314	268.066	83.74	268.066	83.451	268.066	83.7331	268.066	83.3598	268.066	83.723	268.066	83.2575	268.066	83.7147	268.066	83.1442	268.066	83.7112	268.066	83.0205	268.066	83.7121	268.066	82.8891	268.066	83.7126	268.066	82.7563	268.066	83.7046	268.066	82.6316	268.066	83.6786	268.066	82.5278	268.066	83.6265	268.066	82.458	268.066	83.5436	268.066	82.4333	268.066	83.4299	268.066	82.4591	268.066	83.2895	268.066	82.5342	268.066	83.1303	268.066	82.6511	268.066	82.9625	268.066	82.7984
276.855	83.8736	276.855	83.8355	276.855	83.9014	276.855	83.7896	276.855	83.9161	276.855	83.7372	276.855	83.9163	276.855	83.678	276.855	83.9031	276.855	83.6094	276.855	83.8807	276.855	83.528	276.855	83.8558	276.855	83.43	276.855	83.8353	276.855	83.3137	276.855	83.8233	276.855	83.1799	276.855	83.8182	276.855	83.0343	276.855	83.8123	276.855	82.8872	276.855	83.7934	276.855	82.753	276.855	83.7488	276.855	82.6481	276.855	83.6694	276.855	82.5875	276.855	83.5524	276.855	82.5812	276.855	83.4025	276.855	82.632	276.855	83.2301	276.855	82.7352	276.855	83.0502	276.855	82.8796
287.109	84.0733	287.109	84.0498	287.109	84.076	287.109	84.0071	287.109	84.0583	287.109	83.9479	287.109	84.0237	287.109	83.8749	287.109	83.979	287.109	83.7897	287.109	83.933	287.109	83.6933	287.109	83.8953	287.109	83.5858	287.109	83.8735	287.109	83.4681	287.109	83.8709	287.109	83.3431	287.109	83.8848	287.109	83.2167	287.109	83.9065	287.109	83.0987	287.109	83.9238	287.109	83.0018	287.109	83.9235	287.109	82.9396	287.109	83.895	287.109	82.923	287.109	83.8321	287.109	82.957	287.109	83.7346	287.109	83.0393	287.109	83.6074	287.109	83.1603	287.109	83.4601	287.109	83.3059
297.363	84.2736	297.363	84.2334	297.363	84.2911	297.363	84.1743	297.363	84.2841	297.363	84.1012	297.363	84.2541	297.363	84.0186	297.363	84.2062	297.363	83.9294	297.363	84.1485	297.363	83.8344	297.363	84.0909	297.363	83.7331	297.363	84.0426	297.363	83.624	297.363	84.0089	297.363	83.5073	297.363	83.9894	297.363	83.3858	297.363	83.9772	297.363	83.2669	297.363	83.9622	297.363	83.1616	297.363	83.9332	297.363	83.0835	297.363	83.8823	297.363	83.0448	297.363	83.8058	297.363	83.0527	297.363	83.7047	297.363	83.1069	297.363	83.5841	297.363	83.2001	297.363	83.4522	297.363	83.3198
307.617	84.3044	307.617	84.2622	307.617	84.3189	307.617	84.1959	307.617	84.3048	307.617	84.1109	307.617	84.2645	307.617	84.0132	307.617	84.2044	307.617	83.9084	307.617	84.1346	307.617	83.8012	307.617	84.0678	307.617	83.6945	307.617	84.0161	307.617	83.5897	307.617	83.9878	307.617	83.4874	307.617	83.9838	307.617	83.3893	307.617	83.9961	307.617	83.2992	307.617	84.0103	307.617	83.224	307.617	84.0099	307.617	83.1729	307.617	83.9821	307.617	83.1548	307.617	83.9208	307.617	83.1755	307.617	83.8274	307.617	83.2354	307.617	83.7096	307.617	83.3293	307.617	83.5788	307.617	83.4478
319.336	84.3085	319.336	84.2633	319.336	84.3318	319.336	84.2017	319.336	84.3303	319.336	84.1302	319.336	84.3047	319.336	84.0541	319.336	84.2594	319.336	83.9761	319.336	84.2025	319.336	83.8951	319.336	84.1437	319.336	83.8076	319.336	84.0924	319.336	83.7088	319.336	84.0543	319.336	83.5962	319.336	84.0299	319.336	83.4724	319.336	84.0136	319.336	83.3463	319.336	83.9961	319.336	83.2321	319.336	83.9671	319.336	83.1466	319.336	83.9185	319.336	83.1037	319.336	83.8462	319.336	83.1104	319.336	83.7502	319.336	83.165	319.336	83.6347	319.336	83.2584	319.336	83.5069	319.336	83.3771
329.59	84.3167	329.59	84.2629	329.59	84.344	329.59	84.1886	329.59	84.3419	329.59	84.1003	329.59	84.3114	329.59	84.0037	329.59	84.2581	329.59	83.9017	329.59	84.1917	329.59	83.794	329.59	84.1247	329.59	83.6776	329.59	84.0684	329.59	83.5488	329.59	84.0294	329.59	83.4064	329.59	84.0068	329.59	83.2545	329.59	83.992	329.59	83.1042	329.59	83.972	329.59	82.9729	329.59	83.9343	329.59	82.88	329.59	83.8707	329.59	82.8412	329.59	83.7783	329.59	82.863	329.59	83.6594	329.59	82.9409	329.59	83.5193	329.59	83.0619	329.59	83.3658	329.59	83.2089
341.309	84.4621	341.309	84.3991	341.309	84.4883	341.309	84.3062	341.309	84.4744	341.309	84.1923	341.309	84.4219	341.309	84.0667	341.309	84.3377	341.309	83.9368	341.309	84.2346	341.309	83.8073	341.309	84.1288	341.309	83.6789	341.309	84.0377	341.309	83.5497	341.309	83.9739	341.309	83.4176	341.309	83.941	341.309	83.2834	341.309	83.9322	341.309	83.1539	341.309	83.9325	341.309	83.0421	341.309	83.9247	341.309	82.9651	341.309	83.8948	341.309	82.9385	341.309	83.835	341.309	82.9699	341.309	83.7436	341.309	83.0555	341.309	83.6239	341.309	83.1819	341.309	83.4826	341.309	83.3304
353.027	84.3973	353.027	84.3504	353.027	84.3992	353.027	84.2666	353.027	84.3524	353.027	84.1565	353.027	84.2597	353.027	84.0306	353.027	84.1317	353.027	83.8969	353.027	83.9865	353.027	83.7604	353.027	83.8474	353.027	83.6224	353.027	83.7371	353.027	83.4822	353.027	83.6712	353.027	83.3397	353.027	83.6512	353.027	83.1983	353.027	83.664	353.027	83.0668	353.027	83.6874	353.027	82.9592	353.027	83.6991	353.027	82.8907	353.027	83.6837	353.027	82.8724	353.027	83.6361	353.027	82.9065	353.027	83.5588	353.027	82.9852	353.027	83.4583	353.027	83.0941	353.027	83.342	353.027	83.2173
366.211	84.6236	366.211	84.5721	366.211	84.6341	366.211	84.4879	366.211	84.5981	366.211	84.3803	366.211	84.5143	366.211	84.2575	366.211	84.3879	366.211	84.1249	366.211	84.2316	366.211	83.9838	366.211	84.0653	366.211	83.8317	366.211	83.9136	366.211	83.6636	366.211	83.7985	366.211	83.4758	366.211	83.7309	366.211	83.2703	366.211	83.7051	366.211	83.0576	366.211	83.7009	366.211	82.8575	366.211	83.6918	366.211	82.6958	366.211	83.655	366.211	82.5972	366.211	83.5771	366.211	82.577	366.211	83.4555	366.211	82.6358	366.211	83.2969	366.211	82.7603	366.211	83.1148	366.211	82.9283
379.395	84.6723	379.395	84.5962	379.395	84.7077	379.395	84.4903	379.395	84.6943	379.395	84.366	379.395	84.6288	379.395	84.2326	379.395	84.5137	379.395	84.096	379.395	84.3587	379.395	83.9576	379.395	84.1808	379.395	83.8147	379.395	84.003	379.395	83.6636	379.395	83.8494	379.395	83.5027	379.395	83.7385	379.395	83.3367	379.395	83.6763	379.395	83.178	379.395	83.6546	379.395	83.0465	379.395	83.6562	379.395	82.9635	379.395	83.6614	379.395	82.9439	379.395	83.6539	379.395	82.9896	379.395	83.6227	379.395	83.0878	379.395	83.5614	379.395	83.2161	379.395	83.4689	379.395	83.3497
392.578	84.5339	392.578	84.4198	392.578	84.603	392.578	84.2728	392.578	84.6186	392.578	84.1071	392.578	84.5767	392.578	83.9365	392.578	84.4791	392.578	83.7713	392.578	84.3346	392.578	83.6164	392.578	84.1598	392.578	83.4704	392.578	83.9782	392.578	83.3274	392.578	83.815	392.578	83.1814	392.578	83.6885	392.578	83.0312	392.578	83.6039	392.578	82.8848	392.578	83.5523	392.578	82.7594	392.578	83.5173	392.578	82.6772	392.578	83.4828	392.578	82.6559	392.578	83.4379	392.578	82.7003	392.578	83.3762	392.578	82.7986	392.578	83.2942	392.578	82.9283	392.578	83.1898	392.578	83.0647
405.762	84.5723	405.762	84.4704	405.762	84.6212	405.762	84.3293	405.762	84.608	405.762	84.1663	405.762	84.5304	405.762	83.9988	405.762	84.394	405.762	83.841	405.762	84.2136	405.762	83.6999	405.762	84.0129	405.762	83.5734	405.762	83.821	405.762	83.4509	405.762	83.6654	405.762	83.3191	405.762	83.5615	405.762	83.1697	405.762	83.507	405.762	83.0064	405.762	83.4841	405.762	82.8476	405.762	83.4689	405.762	82.722	405.762	83.4422	405.762	82.6568	405.762	83.3944	405.762	82.6648	405.762	83.3236	405.762	82.7387	405.762	83.2308	405.762	82.8557	405.762	83.1179	405.762	82.989
420.41	84.986	420.41	84.8419	420.41	85.0629	420.41	84.646	420.41	85.0617	420.41	84.4176	420.41	84.9766	420.41	84.1775	420.41	84.8082	420.41	83.9456	420.41	84.566	420.41	83.7373	420.41	84.2714	420.41	83.5597	420.41	83.9599	420.41	83.4108	420.41	83.6759	420.41	83.2811	420.41	83.46	420.41	83.1587	420.41	83.3315	420.41	83.0365	420.41	83.2804	420.41	82.9174	420.41	83.2746	420.41	82.8146	420.41	83.2776	420.41	82.7468	420.41	83.2633	420.41	82.7286	420.41	83.2197	420.41	82.7633	420.41	83.1466	420.41	82.8409	420.41	83.0506	420.41	82.9433
435.059	84.7785	435.059	84.638	435.059	84.8546	435.059	84.4455	435.059	84.8584	435.059	84.216	435.059	84.7877	435.059	83.966	435.059	84.647	435.059	83.7103	435.059	84.4487	435.059	83.46	435.059	84.2133	435.059	83.2215	435.059	83.9679	435.059	82.9962	435.059	83.7416	435.059	82.7844	435.059	83.5577	435.059	82.5893	435.059	83.4268	435.059	82.4218	435.059	83.3442	435.059	82.3002	435.059	83.2949	435.059	82.2447	435.059	83.2608	435.059	82.2678	435.059	83.2261	435.059	82.3659	435.059	83.178	435.059	82.5179	435.059	83.1058	435.059	82.6929	435.059	83.001	435.059	82.8607
451.172	84.6237	451.172	84.5058	451.172	84.6726	451.172	84.3263	451.172	84.6472	451.172	84.0941	451.172	84.5464	451.172	83.8198	451.172	84.3753	451.172	83.5161	451.172	84.1479	451.172	83.198	451.172	83.8877	451.172	82.8804	451.172	83.6251	451.172	82.5759	451.172	83.39	451.172	82.2926	451.172	83.2008	451.172	82.0356	451.172	83.0568	451.172	81.811	451.172	82.9397	451.172	81.6299	451.172	82.8252	451.172	81.5086	451.172	82.6957	451.172	81.4614	451.172	82.5468	451.172	81.4918	451.172	82.3847	451.172	81.588	451.172	82.218	451.172	81.727	451.172	82.0514	451.172	81.8861
465.82	84.6303	465.82	84.5242	465.82	84.676	465.82	84.3665	465.82	84.6532	465.82	84.1663	465.82	84.5557	465.82	83.9327	465.82	84.3815	465.82	83.6745	465.82	84.1365	465.82	83.4	465.82	83.8396	465.82	83.1162	465.82	83.5263	465.82	82.8285	465.82	83.2437	465.82	82.5426	465.82	83.0347	465.82	82.2676	465.82	82.9177	465.82	82.0211	465.82	82.8779	465.82	81.8294	465.82	82.8785	465.82	81.7219	465.82	82.8812	465.82	81.7173	465.82	82.8599	465.82	81.8124	465.82	82.8021	465.82	81.9809	465.82	82.7036	465.82	82.1846	465.82	82.5642	465.82	82.3872
483.398	84.6776	483.398	84.5359	483.398	84.7483	483.398	84.3341	483.398	84.7397	483.398	84.0865	483.398	84.6465	483.398	83.8103	483.398	84.4674	483.398	83.5232	483.398	84.2081	483.398	83.2412	483.398	83.8866	483.398	82.9742	483.398	83.537	483.398	82.7252	483.398	83.207	483.398	82.4917	483.398	82.9449	483.398	82.2721	483.398	82.7792	483.398	82.0728	483.398	82.7049	483.398	81.9116	483.398	82.6885	483.398	81.8136	483.398	82.6887	483.398	81.7987	483.398	82.6751	483.398	81.8683	483.398	82.6333	483.398	82.0009	483.398	82.5601	483.398	82.1622	483.398	82.4553	483.398	82.3202
499.512	84.7537	499.512	84.6379	499.512	84.785	499.512	84.4516	499.512	84.7212	499.512	84.2107	499.512	84.559	499.512	83.9322	499.512	84.3055	499.512	83.6338	499.512	83.9809	499.512	83.3327	499.512	83.6184	499.512	83.0414	499.512	83.2616	499.512	82.7644	499.512	82.9564	499.512	82.4991	499.512	82.7386	499.512	82.2429	499.512	82.6202	499.512	82.0041	499.512	82.5846	499.512	81.8076	499.512	82.5975	499.512	81.6888	499.512	82.6238	499.512	81.6754	499.512	82.6388	499.512	81.7692	499.512	82.6274	499.512	81.941	499.512	82.5783	499.512	82.1441	499.512	82.4818	499.512	82.3338
517.09	84.8182	517.09	84.7154	517.09	84.8555	517.09	84.5532	517.09	84.822	517.09	84.3356	517.09	84.7142	517.09	84.0639	517.09	84.5306	517.09	83.7385	517.09	84.2715	517.09	83.3644	517.09	83.9433	517.09	82.9551	517.09	83.5653	517.09	82.5344	517.09	83.1745	517.09	82.1309	517.09	82.8188	517.09	81.7708	517.09	82.5407	517.09	81.4755	517.09	82.3598	517.09	81.2656	517.09	82.2688	517.09	81.1635	517.09	82.2408	517.09	81.1839	517.09	82.2423	517.09	81.3181	517.09	82.2405	517.09	81.5285	517.09	82.207	517.09	81.7617	517.09	82.1198	517.09	81.9688
536.133	84.5244	536.133	84.4013	536.133	84.5782	536.133	84.2276	536.133	84.545	536.133	84.0183	536.133	84.4132	536.133	83.7797	536.133	84.1827	536.133	83.5091	536.133	83.87	536.133	83.201	536.133	83.5107	536.133	82.8564	536.133	83.1531	536.133	82.4876	536.133	82.8433	536.133	82.1155	536.133	82.6083	536.133	81.7597	536.133	82.4481	536.133	81.4345	536.133	82.3435	536.133	81.1557	536.133	82.2718	536.133	80.9518	536.133	82.216	536.133	80.8625	536.133	82.163	536.133	80.9149	536.133	82.096	536.133	81.096	536.133	81.9934	536.133	81.3515	536.133	81.8349	536.133	81.6144
555.176	84.5956	555.176	84.4826	555.176	84.6279	555.176	84.308	555.176	84.5619	555.176	84.084	555.176	84.3897	555.176	83.8125	555.176	84.119	555.176	83.4868	555.176	83.7715	555.176	83.1014	555.176	83.3765	555.176	82.6643	555.176	82.9672	555.176	82.2071	555.176	82.5827	555.176	81.7819	555.176	82.2663	555.176	81.4431	555.176	82.0525	555.176	81.2232	555.176	81.9507	555.176	81.1229	555.176	81.9428	555.176	81.1226	555.176	81.9939	555.176	81.2014	555.176	82.0639	555.176	81.3441	555.176	82.1157	555.176	81.5326	555.176	82.1191	555.176	81.7377	555.176	82.0555	555.176	81.9227
574.219	84.73	574.219	84.5528	574.219	84.8147	574.219	84.305	574.219	84.7903	574.219	84.0093	574.219	84.6466	574.219	83.6836	574.219	84.3782	574.219	83.3389	574.219	83.9887	574.219	82.9796	574.219	83.503	574.219	82.6068	574.219	82.9771	574.219	82.2226	574.219	82.4866	574.219	81.8334	574.219	82.0892	574.219	81.4534	574.219	81.7971	574.219	81.1077	574.219	81.5921	574.219	80.8314	574.219	81.4604	574.219	80.6638	574.219	81.4044	574.219	80.6328	574.219	81.419	574.219	80.7363	574.219	81.4702	574.219	80.9344	574.219	81.5041	574.219	81.1624	574.219	81.4734	574.219	81.3561
594.727	84.7209	594.727	84.5352	594.727	84.8134	594.727	84.2752	594.727	84.7949	594.727	83.956	594.727	84.65	594.727	83.5853	594.727	84.3688	594.727	83.166	594.727	83.9552	594.727	82.7068	594.727	83.4424	594.727	82.2345	594.727	82.9041	594.727	81.7956	594.727	82.4416	594.727	81.4372	594.727	82.1357	594.727	81.1794	594.727	81.9913	594.727	81.007	594.727	81.9407	594.727	80.8944	594.727	81.9084	594.727	80.8375	594.727	81.8625	594.727	80.8567	594.727	81.8119	594.727	80.9673	594.727	81.7695	594.727	81.1493	594.727	81.726	594.727	81.3533	594.727	81.654	594.727	81.5303
615.234	84.9092	615.234	84.6693	615.234	85.0273	615.234	84.3319	615.234	85.0072	615.234	83.9353	615.234	84.8353	615.234	83.5251	615.234	84.5027	615.234	83.134	615.234	84.0145	615.234	82.7617	615.234	83.4011	615.234	82.3783	615.234	82.7249	615.234	81.9544	615.234	82.0765	615.234	81.4959	615.234	81.5536	615.234	81.056	615.234	81.225	615.234	80.707	615.234	81.1052	615.234	80.4924	615.234	81.1556	615.234	80.4125	615.234	81.3029	615.234	80.4504	615.234	81.4627	615.234	80.5912	615.234	81.567	615.234	80.8119	615.234	81.5788	615.234	81.0697	615.234	81.4898	615.234	81.3108
637.207	84.944	637.207	84.6538	637.207	85.1257	637.207	84.265	637.207	85.1926	637.207	83.801	637.207	85.1352	637.207	83.3059	637.207	84.9369	637.207	82.8385	637.207	84.5757	637.207	82.4434	637.207	84.0396	637.207	82.118	637.207	83.3496	637.207	81.8119	637.207	82.5749	637.207	81.4715	637.207	81.8322	637.207	81.0897	637.207	81.2647	637.207	80.7221	637.207	80.9849	637.207	80.4568	637.207	80.9966	637.207	80.3631	637.207	81.1824	637.207	80.454	637.207	81.3947	637.207	80.6851	637.207	81.5448	637.207	80.9798	637.207	81.6085	637.207	81.2598	637.207	81.5851	637.207	81.4693
659.18	84.8868	659.18	84.6045	659.18	85.0648	659.18	84.2389	659.18	85.1073	659.18	83.8012	659.18	84.9865	659.18	83.3036	659.18	84.6968	659.18	82.7717	659.18	84.2607	659.18	82.2517	659.18	83.7147	659.18	81.7953	659.18	83.098	659.18	81.4236	659.18	82.4564	659.18	81.1031	659.18	81.8457	659.18	80.768	659.18	81.3254	659.18	80.3767	659.18	80.9612	659.18	79.957	659.18	80.8178	659.18	79.6091	659.18	80.9014	659.18	79.4572	659.18	81.1112	659.18	79.5699	659.18	81.2929	659.18	79.9128	659.18	81.3276	659.18	80.3745	659.18	81.1672	659.18	80.8275
682.617	85.0566	682.617	84.8849	682.617	85.1012	682.617	84.5747	682.617	85.0407	682.617	84.1223	682.617	84.8977	682.617	83.5289	682.617	84.672	682.617	82.8081	682.617	84.3293	682.617	82.0047	682.617	83.8385	682.617	81.2172	682.617	83.2319	682.617	80.5901	682.617	82.6122	682.617	80.2346	682.617	82.0788	682.617	80.1348	682.617	81.6603	682.617	80.1651	682.617	81.3514	682.617	80.203	682.617	81.1744	682.617	80.2243	682.617	81.142	682.617	80.313	682.617	81.2024	682.617	80.5555	682.617	81.2922	682.617	80.9145	682.617	81.3891	682.617	81.2488	682.617	81.4634	682.617	81.4386
707.52	85.2859	707.52	84.9238	707.52	85.4274	707.52	84.3341	707.52	85.3879	707.52	83.5706	707.52	85.2007	707.52	82.7562	707.52	84.867	707.52	82.0474	707.52	84.369	707.52	81.5483	707.52	83.7109	707.52	81.2437	707.52	82.9432	707.52	81.019	707.52	82.1547	707.52	80.7585	707.52	81.4552	707.52	80.4569	707.52	80.9491	707.52	80.2108	707.52	80.6831	707.52	80.0762	707.52	80.6302	707.52	80.0101	707.52	80.7193	707.52	79.9725	707.52	80.8526	707.52	79.9958	707.52	80.9359	707.52	80.1303	707.52	80.9202	707.52	80.3592	707.52	80.8044	707.52	80.6063
732.422	84.7391	732.422	84.4823	732.422	84.8416	732.422	84.0374	732.422	84.813	732.422	83.386	732.422	84.6591	732.422	82.5637	732.422	84.3821	732.422	81.6918	732.422	84.0051	732.422	80.9545	732.422	83.5652	732.422	80.4897	732.422	83.0655	732.422	80.2541	732.422	82.456	732.422	80.0306	732.422	81.6973	732.422	79.6164	732.422	80.8566	732.422	78.995	732.422	80.1289	732.422	78.3757	732.422	79.7199	732.422	78.1042	732.422	79.7214	732.422	78.4311	732.422	80.126	732.422	79.2787	732.422	80.8024	732.422	80.315	732.422	81.4647	732.422	81.2085	732.422	81.8284	732.422	81.7461
757.324	85.1108	757.324	85.0873	757.324	84.9125	757.324	84.766	757.324	84.6131	757.324	84.124	757.324	84.3294	757.324	83.1939	757.324	84.0984	757.324	82.0827	757.324	83.8535	757.324	80.9922	757.324	83.5	757.324	80.1809	757.324	83.0208	757.324	79.8174	757.324	82.4948	757.324	79.8319	757.324	82.0078	757.324	79.9787	757.324	81.5813	757.324	80.0429	757.324	81.2018	757.324	79.9398	757.324	80.8548	757.324	79.6957	757.324	80.4835	757.324	79.4223	757.324	80.0506	757.324	79.291	757.324	79.7138	757.324	79.4168	757.324	79.6892	757.324	79.7034	757.324	79.8585	757.324	79.9024
785.156	84.3241	785.156	84.0565	785.156	84.6108	785.156	83.7454	785.156	84.8878	785.156	83.3004	785.156	85.0561	785.156	82.7071	785.156	85.0045	785.156	82.0833	785.156	84.6494	785.156	81.6035	785.156	83.9601	785.156	81.3405	785.156	82.9785	785.156	81.2107	785.156	81.8226	785.156	81.0465	785.156	80.6784	785.156	80.74	785.156	79.7726	785.156	80.3651	785.156	79.2881	785.156	80.112	785.156	79.2606	785.156	80.0689	785.156	79.5565	785.156	80.1271	785.156	79.9221	785.156	80.1254	785.156	80.1098	785.156	80.0072	785.156	80.0405	785.156	79.8397	785.156	79.8508	785.156	79.7568
811.523	84.6775	811.523	84.3271	811.523	84.7329	811.523	83.6785	811.523	84.5937	811.523	82.82	811.523	84.4015	811.523	81.8952	811.523	84.2179	811.523	81.0287	811.523	83.9713	811.523	80.2666	811.523	83.5516	811.523	79.6474	811.523	82.9145	811.523	79.2858	811.523	82.1092	811.523	79.174	811.523	81.2338	811.523	79.0446	811.523	80.3263	811.523	78.682	811.523	79.3553	811.523	78.1619	811.523	78.4218	811.523	77.8435	811.523	77.8866	811.523	78.1117	811.523	78.0756	811.523	78.927	811.523	78.8703	811.523	79.8751	811.523	79.8304	811.523	80.5752	811.523	80.5548	811.523	80.8232
840.82	84.0315	840.82	83.4502	840.82	84.59	840.82	82.9644	840.82	84.9915	840.82	82.659	840.82	85.1071	840.82	82.5532	840.82	84.865	840.82	82.5628	840.82	84.3041	840.82	82.4901	840.82	83.5517	840.82	82.1297	840.82	82.6881	840.82	81.4812	840.82	81.6775	840.82	80.8165	840.82	80.5208	840.82	80.3867	840.82	79.4372	840.82	80.0951	840.82	78.7645	840.82	79.646	840.82	78.555	840.82	78.9102	840.82	78.5909	840.82	78.1453	840.82	78.8661	840.82	77.8868	840.82	79.4363	840.82	78.3648	840.82	80.0176	840.82	79.2192	840.82	80.2399	840.82	79.9474
870.117	84.6222	870.117	83.8785	870.117	84.8231	870.117	82.7308	870.117	84.4602	870.117	81.4833	870.117	83.6415	870.117	80.599	870.117	82.6854	870.117	80.4016	870.117	82.0768	870.117	80.6729	870.117	81.9665	870.117	80.9269	870.117	81.9765	870.117	80.9604	870.117	81.7428	870.117	80.8782	870.117	81.0645	870.117	80.7432	870.117	79.766	870.117	80.3793	870.117	77.8339	870.117	79.5733	870.117	75.8962	870.117	78.3675	870.117	75.4889	870.117	77.2251	870.117	76.9835	870.117	76.8738	870.117	78.8438	870.117	77.5866	870.117	80.0677	870.117	78.8355	870.117	80.4073	870.117	79.9224
900.879	83.4538	900.879	83.4131	900.879	83.524	900.879	83.3193	900.879	83.6465	900.879	83.0802	900.879	83.7629	900.879	82.6356	900.879	83.786	900.879	81.9731	900.879	83.6732	900.879	81.0968	900.879	83.4181	900.879	79.9734	900.879	82.9803	900.879	78.5728	900.879	82.3044	900.879	77.1243	900.879	81.4438	900.879	76.3003	900.879	80.5185	900.879	76.4822	900.879	79.5035	900.879	77.0771	900.879	78.3383	900.879	77.4501	900.879	77.3936	900.879	77.5484	900.879	77.3314	900.879	77.689	900.879	78.059	900.879	78.1545	900.879	78.9121	900.879	78.8479	900.879	79.4159	900.879	79.3737
933.105	80.5417	933.105	81.7972	933.105	82.3449	933.105	84.15	933.105	84.5709	933.105	85.6903	933.105	85.9287	933.105	86.2922	933.105	86.4615	933.105	86.0702	933.105	86.2929	933.105	85.0536	933.105	85.433	933.105	83.3043	933.105	83.8939	933.105	81.1914	933.105	81.8992	933.105	79.6783	933.105	80.0644	933.105	79.702	933.105	79.0748	933.105	80.5462	933.105	78.9497	933.105	81.1476	933.105	79.2583	933.105	81.4799	933.105	79.6708	933.105	81.7452	933.105	79.7487	933.105	81.7466	933.105	78.9128	933.105	81.2365	933.105	77.0531	933.105	80.0294	933.105	76.1297	933.105	77.9812
965.332	83.7803	965.332	83.3702	965.332	84.2472	965.332	83.3981	965.332	84.2081	965.332	83.7223	965.332	83.3859	965.332	83.9891	965.332	82.0215	965.332	83.95	965.332	80.8686	965.332	83.4755	965.332	80.5051	965.332	82.489	965.332	80.8158	965.332	80.9903	965.332	81.2965	965.332	79.2241	965.332	81.3632	965.332	77.9183	965.332	80.6656	965.332	78.0707	965.332	79.1832	965.332	79.2948	965.332	76.8987	965.332	80.2395	965.332	74.0656	965.332	80.3775	965.332	73.9546	965.332	79.9693	965.332	75.8323	965.332	79.0727	965.332	75.5905	965.332	76.881	965.332	72.7613	965.332	72.9199
1,000.49	81.4207	1,000.49	81.0861	1,000.49	83.2372	1,000.49	82.7921	1,000.49	84.7346	1,000.49	84.663	1,000.49	85.3363	1,000.49	85.7789	1,000.49	85.0117	1,000.49	86.0068	1,000.49	83.8498	1,000.49	85.3444	1,000.49	81.9527	1,000.49	83.8505	1,000.49	79.612	1,000.49	81.8262	1,000.49	77.7867	1,000.49	79.8671	1,000.49	77.7065	1,000.49	78.6596	1,000.49	79.1094	1,000.49	78.5947	1,000.49	80.5979	1,000.49	78.825	1,000.49	81.3119	1,000.49	78.4419	1,000.49	81.0388	1,000.49	77.5954	1,000.49	79.7457	1,000.49	76.713	1,000.49	77.4426	1,000.49	75.559	1,000.49	74.2498	1,000.49	73.4257	1,000.49	70.7838	1,000.49	70.512
1,035.64	80.3199	1,035.64	82.1311	1,035.64	81.4288	1,035.64	83.9917	1,035.64	83.9529	1,035.64	84.851	1,035.64	85.5592	1,035.64	84.7946	1,035.64	85.9055	1,035.64	83.8982	1,035.64	85.0947	1,035.64	82.071	1,035.64	83.3321	1,035.64	79.2876	1,035.64	80.9583	1,035.64	77.1875	1,035.64	78.6554	1,035.64	77.0621	1,035.64	77.7507	1,035.64	75.118	1,035.64	78.9363	1,035.64	74.1797	1,035.64	81.011	1,035.64	78.3713	1,035.64	82.5288	1,035.64	80.2307	1,035.64	82.9371	1,035.64	79.8268	1,035.64	82.1091	1,035.64	78.4131	1,035.64	79.5622	1,035.64	77.841	1,035.64	73.3759	1,035.64	77.7829	1,035.64	66.5453	1,035.64	75.445
1,072.27	82.7389	1,072.27	77.8168	1,072.27	85.5877	1,072.27	78.8534	1,072.27	86.4707	1,072.27	83.6006	1,072.27	85.6593	1,072.27	86.2125	1,072.27	82.8766	1,072.27	87.0453	1,072.27	76.5239	1,072.27	86.7684	1,072.27	52.5654	1,072.27	86.5157	1,072.27	74.6401	1,072.27	86.7616	1,072.27	78.0991	1,072.27	86.6404	1,072.27	78.9699	1,072.27	85.265	1,072.27	77.7153	1,072.27	83.0808	1,072.27	73.0984	1,072.27	82.553	1,072.27	68.9766	1,072.27	82.6648	1,072.27	75.3051	1,072.27	81.1417	1,072.27	78.5121	1,072.27	77.8491	1,072.27	79.373	1,072.27	73.0571	1,072.27	78.3336	1,072.27	64.1348	1,072.27	75.0002	1,072.27	67.1437
1,108.89	83.3759	1,108.89	83.2767	1,108.89	83.3337	1,108.89	83.2764	1,108.89	83.2628	1,108.89	83.0081	1,108.89	83.5363	1,108.89	81.6613	1,108.89	83.4724	1,108.89	79.4917	1,108.89	81.7477	1,108.89	79.1512	1,108.89	78.6958	1,108.89	80.6669	1,108.89	79.2785	1,108.89	82.6769	1,108.89	82.6425	1,108.89	84.3696	1,108.89	84.2105	1,108.89	83.645	1,108.89	82.5376	1,108.89	81.4319	1,108.89	77.7737	1,108.89	78.9557	1,108.89	76.2029	1,108.89	76.325	1,108.89	80.5753	1,108.89	76.3937	1,108.89	81.8753	1,108.89	76.7536	1,108.89	80.3281	1,108.89	76.0448	1,108.89	76.605	1,108.89	74.7819	1,108.89	73.1355	1,108.89	73.4409
1,148.44	83.6609	1,148.44	83.853	1,148.44	83.3664	1,148.44	83.6761	1,148.44	82.8793	1,148.44	82.8057	1,148.44	81.9382	1,148.44	81.2101	1,148.44	80.9529	1,148.44	81.0903	1,148.44	80.6273	1,148.44	82.7557	1,148.44	80.5364	1,148.44	81.6017	1,148.44	79.7378	1,148.44	73.4247	1,148.44	77.9084	1,148.44	72.3538	1,148.44	77.0841	1,148.44	77.0933	1,148.44	78.2781	1,148.44	78.3403	1,148.44	80.1069	1,148.44	75.4136	1,148.44	80.7861	1,148.44	72.1339	1,148.44	80.4578	1,148.44	76.0679	1,148.44	79.0461	1,148.44	77.3733	1,148.44	76.8848	1,148.44	75.7549	1,148.44	75.7307	1,148.44	73.541	1,148.44	74.8898	1,148.44	73.5479
1,189.45	83.8442	1,189.45	83.1478	1,189.45	83.9038	1,189.45	81.7557	1,189.45	83.7509	1,189.45	80.1475	1,189.45	83.5368	1,189.45	79.7692	1,189.45	82.8544	1,189.45	82.094	1,189.45	81.2102	1,189.45	84.2942	1,189.45	79.3707	1,189.45	84.6538	1,189.45	77.9399	1,189.45	81.7798	1,189.45	76.2278	1,189.45	77.0636	1,189.45	76.8291	1,189.45	68.7705	1,189.45	79.0828	1,189.45	74.5509	1,189.45	80.2166	1,189.45	75.712	1,189.45	79.3075	1,189.45	69.2225	1,189.45	78.0254	1,189.45	67.6275	1,189.45	78.4736	1,189.45	74.3363	1,189.45	77.8475	1,189.45	75.8599	1,189.45	73.9947	1,189.45	74.0441	1,189.45	67.9231	1,189.45	69.8575
1,230.47	85.5098	1,230.47	84.3684	1,230.47	85.7203	1,230.47	81.7902	1,230.47	85.4166	1,230.47	79.1835	1,230.47	84.8072	1,230.47	80.6216	1,230.47	84.0051	1,230.47	83.5821	1,230.47	83.6552	1,230.47	84.8524	1,230.47	84.5816	1,230.47	84.1819	1,230.47	84.549	1,230.47	81.2746	1,230.47	81.0054	1,230.47	78.7959	1,230.47	75.0917	1,230.47	76.5991	1,230.47	75.25	1,230.47	77.5455	1,230.47	79.5066	1,230.47	78.1567	1,230.47	81.4022	1,230.47	77.3046	1,230.47	82.4087	1,230.47	72.4248	1,230.47	82.4101	1,230.47	67.7525	1,230.47	81.1874	1,230.47	71.4342	1,230.47	79.5655	1,230.47	74.3226	1,230.47	78.1523	1,230.47	76.5971
1,274.41	83.6611	1,274.41	82.6073	1,274.41	84.433	1,274.41	81.7244	1,274.41	84.73	1,274.41	81.8974	1,274.41	84.3469	1,274.41	82.4581	1,274.41	83.78	1,274.41	81.6343	1,274.41	83.8194	1,274.41	77.2879	1,274.41	83.9092	1,274.41	70.6094	1,274.41	83.4534	1,274.41	76.2099	1,274.41	83.0888	1,274.41	80.7565	1,274.41	82.327	1,274.41	78.0353	1,274.41	80.1075	1,274.41	71.4327	1,274.41	79.7058	1,274.41	77.8285	1,274.41	79.7333	1,274.41	79.3139	1,274.41	77.5239	1,274.41	77.4094	1,274.41	76.6196	1,274.41	76.1533	1,274.41	78.6824	1,274.41	77.4723	1,274.41	79.3195	1,274.41	78.5353	1,274.41	79.0848	1,274.41	78.8589
1,319.82	83.1023	1,319.82	82.4505	1,319.82	83.4256	1,319.82	82.2735	1,319.82	83.5063	1,319.82	82.5304	1,319.82	83.7212	1,319.82	81.9908	1,319.82	83.535	1,319.82	80.3797	1,319.82	83.0212	1,319.82	78.5547	1,319.82	83.0918	1,319.82	79.8028	1,319.82	82.6176	1,319.82	80.6094	1,319.82	80.2166	1,319.82	81.0501	1,319.82	77.7765	1,319.82	78.6831	1,319.82	76.9112	1,319.82	75.584	1,319.82	78.3452	1,319.82	76.7497	1,319.82	78.1701	1,319.82	77.5301	1,319.82	75.3036	1,319.82	75.324	1,319.82	74.3472	1,319.82	73.4506	1,319.82	76.1756	1,319.82	76.0609	1,319.82	76.8992	1,319.82	78.0064	1,319.82	77.3781	1,319.82	78.12
1,366.7	81.8544	1,366.7	82.2944	1,366.7	82.324	1,366.7	82.8192	1,366.7	82.8535	1,366.7	82.3679	1,366.7	82.7368	1,366.7	80.9428	1,366.7	82.7595	1,366.7	80.5007	1,366.7	82.5922	1,366.7	81.9885	1,366.7	80.8661	1,366.7	81.7295	1,366.7	79.6236	1,366.7	76.2452	1,366.7	80.9693	1,366.7	59.3895	1,366.7	82.0247	1,366.7	54.8823	1,366.7	80.8213	1,366.7	72.3351	1,366.7	78.2132	1,366.7	76.5503	1,366.7	79.3928	1,366.7	76.5203	1,366.7	79.9781	1,366.7	74.739	1,366.7	77.7583	1,366.7	72.3235	1,366.7	74.6593	1,366.7	73.1716	1,366.7	74.4659	1,366.7	75.1083	1,366.7	75.9516	1,366.7	76.2234
1,413.57	83.1854	1,413.57	82.8875	1,413.57	83.3706	1,413.57	81.823	1,413.57	83.6327	1,413.57	80.0157	1,413.57	83.4607	1,413.57	79.6887	1,413.57	82.3785	1,413.57	81.1879	1,413.57	81.6555	1,413.57	80.9964	1,413.57	82.6868	1,413.57	77.0291	1,413.57	82.6172	1,413.57	77.221	1,413.57	79.9735	1,413.57	81.6921	1,413.57	78.0559	1,413.57	80.342	1,413.57	79.8026	1,413.57	69.8515	1,413.57	80.8284	1,413.57	72.1642	1,413.57	79.9799	1,413.57	78.0646	1,413.57	78.8791	1,413.57	77.959	1,413.57	77.1476	1,413.57	75.1491	1,413.57	75.2357	1,413.57	73.9537	1,413.57	75.5072	1,413.57	74.7747	1,413.57	75.6139	1,413.57	74.9942
1,463.38	84.0269	1,463.38	83.3964	1,463.38	84.2648	1,463.38	82.0582	1,463.38	84.3519	1,463.38	80.4111	1,463.38	84.2236	1,463.38	78.9934	1,463.38	84.0503	1,463.38	77.9721	1,463.38	84.1031	1,463.38	74.7001	1,463.38	84.5312	1,463.38	75.0421	1,463.38	84.6141	1,463.38	81.5815	1,463.38	84.0129	1,463.38	83.3399	1,463.38	83.3434	1,463.38	80.5781	1,463.38	81.7149	1,463.38	73.902	1,463.38	79.7531	1,463.38	53.554	1,463.38	79.1351	1,463.38	73.5373	1,463.38	78.3515	1,463.38	75.0149	1,463.38	77.6754	1,463.38	71.0162	1,463.38	76.9377	1,463.38	66.8845	1,463.38	74.7096	1,463.38	70.5416	1,463.38	73.0291	1,463.38	73.0528
1,516.11	84.7584	1,516.11	83.8823	1,516.11	84.7731	1,516.11	82.4154	1,516.11	84.553	1,516.11	81.0292	1,516.11	84.4281	1,516.11	78.2118	1,516.11	83.9243	1,516.11	71.8045	1,516.11	83.6816	1,516.11	74.0719	1,516.11	84.2026	1,516.11	80.8492	1,516.11	83.7988	1,516.11	82.5193	1,516.11	82.5352	1,516.11	81.2818	1,516.11	81.4394	1,516.11	80.0141	1,516.11	78.7389	1,516.11	78.5953	1,516.11	77.906	1,516.11	68.432	1,516.11	77.7879	1,516.11	67.8664	1,516.11	77.997	1,516.11	72.6626	1,516.11	78.1371	1,516.11	71.7665	1,516.11	77.8847	1,516.11	67.8034	1,516.11	77.0347	1,516.11	69.8338	1,516.11	76.0158	1,516.11	74.0033
1,568.85	84.5337	1,568.85	83.3964	1,568.85	84.754	1,568.85	81.2314	1,568.85	84.4949	1,568.85	78.0761	1,568.85	84.3374	1,568.85	75.148	1,568.85	84.0452	1,568.85	75.5352	1,568.85	83.3381	1,568.85	77.3597	1,568.85	82.729	1,568.85	79.1976	1,568.85	82.396	1,568.85	76.6795	1,568.85	81.783	1,568.85	68.4493	1,568.85	79.6103	1,568.85	69.3546	1,568.85	75.1449	1,568.85	71.9282	1,568.85	73.0671	1,568.85	66.754	1,568.85	76.6616	1,568.85	60.2317	1,568.85	79.3435	1,568.85	71.9256	1,568.85	79.5323	1,568.85	72.7477	1,568.85	78.2948	1,568.85	70.2624	1,568.85	76.772	1,568.85	70.3936	1,568.85	75.1739	1,568.85	73.2078
1,624.51	85.9061	1,624.51	84.911	1,624.51	86.2727	1,624.51	83.559	1,624.51	86.1298	1,624.51	81.8822	1,624.51	85.8938	1,624.51	80.2843	1,624.51	85.5484	1,624.51	79.7056	1,624.51	84.9144	1,624.51	78.196	1,624.51	83.503	1,624.51	74.8489	1,624.51	81.8435	1,624.51	75.2444	1,624.51	82.2909	1,624.51	78.703	1,624.51	82.4407	1,624.51	78.5424	1,624.51	78.3622	1,624.51	74.4098	1,624.51	70.2615	1,624.51	69.3541	1,624.51	75.5956	1,624.51	60.9322	1,624.51	80.0484	1,624.51	70.8372	1,624.51	80.1931	1,624.51	74.6271	1,624.51	78.9202	1,624.51	72.6751	1,624.51	77.3123	1,624.51	69.7246	1,624.51	75.0055	1,624.51	72.2613
1,681.64	85.3486	1,681.64	84.0954	1,681.64	85.9292	1,681.64	82.7652	1,681.64	85.8984	1,681.64	82.332	1,681.64	85.5943	1,681.64	81.7654	1,681.64	85.2877	1,681.64	79.2852	1,681.64	85.0231	1,681.64	77.1065	1,681.64	84.5292	1,681.64	78.1376	1,681.64	83.7149	1,681.64	79.3304	1,681.64	83.0102	1,681.64	80.1384	1,681.64	82.0243	1,681.64	79.438	1,681.64	79.6891	1,681.64	77.9735	1,681.64	76.3869	1,681.64	75.5269	1,681.64	77.4905	1,681.64	60.1977	1,681.64	80.7068	1,681.64	70.9181	1,681.64	80.9298	1,681.64	71.73	1,681.64	79.182	1,681.64	68.7303	1,681.64	75.6798	1,681.64	62.6306	1,681.64	70.0786	1,681.64	65.9926
1,741.7	86.5547	1,741.7	85.1413	1,741.7	87.0873	1,741.7	84.1876	1,741.7	86.5805	1,741.7	84.301	1,741.7	85.3233	1,741.7	83.0939	1,741.7	84.5954	1,741.7	79.8459	1,741.7	84.835	1,741.7	77.8608	1,741.7	84.5077	1,741.7	78.8176	1,741.7	83.9105	1,741.7	77.2873	1,741.7	84.2813	1,741.7	67.1604	1,741.7	83.448	1,741.7	65.6731	1,741.7	79.9544	1,741.7	76.0241	1,741.7	76.4104	1,741.7	77.361	1,741.7	76.8281	1,741.7	72.6096	1,741.7	80.797	1,741.7	60.872	1,741.7	82.2135	1,741.7	68.524	1,741.7	81.4029	1,741.7	69.5423	1,741.7	78.0823	1,741.7	67.1761	1,741.7	72.0513	1,741.7	66.1826
1,803.22	86.6839	1,803.22	85.6418	1,803.22	87.4474	1,803.22	85.2877	1,803.22	87.2747	1,803.22	84.5451	1,803.22	86.5579	1,803.22	82.3392	1,803.22	85.3483	1,803.22	79.6765	1,803.22	84.39	1,803.22	76.8447	1,803.22	82.9215	1,803.22	69.114	1,803.22	81.3311	1,803.22	69.472	1,803.22	82.6849	1,803.22	78.7087	1,803.22	81.8645	1,803.22	77.0038	1,803.22	77.4195	1,803.22	69.3019	1,803.22	76.6459	1,803.22	73.8698	1,803.22	76.6984	1,803.22	72.2765	1,803.22	79.6737	1,803.22	62.6543	1,803.22	81.5764	1,803.22	61.188	1,803.22	80.9893	1,803.22	67.3564	1,803.22	78.7739	1,803.22	69.554	1,803.22	75.5355	1,803.22	72.0117
1,866.21	86.2746	1,866.21	86.1132	1,866.21	87.2505	1,866.21	86.1433	1,866.21	87.8996	1,866.21	84.4768	1,866.21	87.5503	1,866.21	81.1051	1,866.21	86.3025	1,866.21	78.2231	1,866.21	84.6378	1,866.21	75.6029	1,866.21	81.8709	1,866.21	73.4613	1,866.21	79.738	1,866.21	75.1384	1,866.21	80.0174	1,866.21	77.5093	1,866.21	78.0548	1,866.21	76.0608	1,866.21	76.842	1,866.21	70.1332	1,866.21	77.6047	1,866.21	69.3076	1,866.21	78.214	1,866.21	69.6291	1,866.21	79.9233	1,866.21	66.9286	1,866.21	81.1267	1,866.21	67.4595	1,866.21	80.5917	1,866.21	71.1446	1,866.21	78.5387	1,866.21	72.7252	1,866.21	75.3884	1,866.21	73.2495
1,932.13	85.6507	1,932.13	86.0759	1,932.13	86.3074	1,932.13	85.8291	1,932.13	87.4276	1,932.13	83.3422	1,932.13	87.4969	1,932.13	80.2228	1,932.13	86.5595	1,932.13	79.2748	1,932.13	85.2196	1,932.13	75.8935	1,932.13	83.0673	1,932.13	72.6598	1,932.13	80.942	1,932.13	75.6464	1,932.13	78.763	1,932.13	76.4895	1,932.13	76.3554	1,932.13	72.7836	1,932.13	77.5472	1,932.13	66.2251	1,932.13	76.8479	1,932.13	53.4568	1,932.13	76.6498	1,932.13	64.071	1,932.13	78.9422	1,932.13	64.0054	1,932.13	79.7103	1,932.13	66.4097	1,932.13	78.6584	1,932.13	71.2721	1,932.13	76.5321	1,932.13	71.8334	1,932.13	73.9349	1,932.13	71.5152
1,999.51	86.0544	1,999.51	85.7789	1,999.51	86.0737	1,999.51	84.4314	1,999.51	86.779	1,999.51	81.8941	1,999.51	87.1805	1,999.51	80.8351	1,999.51	86.5355	1,999.51	79.5746	1,999.51	85.4179	1,999.51	75.0352	1,999.51	83.445	1,999.51	73.5458	1,999.51	81.023	1,999.51	76.0357	1,999.51	78.5764	1,999.51	76.604	1,999.51	77.0592	1,999.51	75.8922	1,999.51	77.9342	1,999.51	71.3029	1,999.51	75.526	1,999.51	60.5469	1,999.51	72.7875	1,999.51	60.7307	1,999.51	77.3124	1,999.51	64.0799	1,999.51	79.4592	1,999.51	65.9138	1,999.51	79.0107	1,999.51	68.737	1,999.51	77.127	1,999.51	69.3835	1,999.51	74.3282	1,999.51	70.5859
2,069.82	87.1665	2,069.82	86.0928	2,069.82	86.9852	2,069.82	83.4504	2,069.82	86.7888	2,069.82	81.2526	2,069.82	86.748	2,069.82	81.316	2,069.82	86.6168	2,069.82	79.3879	2,069.82	85.7389	2,069.82	74.8261	2,069.82	83.4667	2,069.82	75.1079	2,069.82	80.9597	2,069.82	75.9596	2,069.82	78.2247	2,069.82	69.1747	2,069.82	78.7565	2,069.82	68.9557	2,069.82	80.3038	2,069.82	73.071	2,069.82	74.8472	2,069.82	68.7119	2,069.82	72.1338	2,069.82	62.1386	2,069.82	77.0798	2,069.82	68.6621	2,069.82	79.8861	2,069.82	68.2649	2,069.82	80.3817	2,069.82	69.0021	2,069.82	76.6173	2,069.82	67.2493	2,069.82	67.3526	2,069.82	63.262
2,143.07	86.9195	2,143.07	85.0611	2,143.07	87.7587	2,143.07	82.5803	2,143.07	87.536	2,143.07	81.6453	2,143.07	86.8773	2,143.07	80.554	2,143.07	86.6901	2,143.07	75.2531	2,143.07	85.8219	2,143.07	68.6747	2,143.07	83.7516	2,143.07	72.8508	2,143.07	80.5025	2,143.07	76.0515	2,143.07	76.9348	2,143.07	76.8536	2,143.07	79.7552	2,143.07	77.9577	2,143.07	81.3273	2,143.07	75.4255	2,143.07	76.0716	2,143.07	72.6987	2,143.07	63.6303	2,143.07	65.9873	2,143.07	76.3577	2,143.07	67.1116	2,143.07	81.6291	2,143.07	70.2129	2,143.07	83.2961	2,143.07	74.2612	2,143.07	80.745	2,143.07	74.1518	2,143.07	74.7086	2,143.07	72.0892
2,219.24	86.1204	2,219.24	83.628	2,219.24	87.7761	2,219.24	81.0923	2,219.24	88.1429	2,219.24	79.4808	2,219.24	87.9109	2,219.24	77.9548	2,219.24	87.5604	2,219.24	74.8612	2,219.24	86.1698	2,219.24	71.2395	2,219.24	84.369	2,219.24	69.1926	2,219.24	82.2711	2,219.24	74.7077	2,219.24	76.6283	2,219.24	77.7281	2,219.24	75.1866	2,219.24	79.5942	2,219.24	79.9745	2,219.24	78.5119	2,219.24	78.6673	2,219.24	74.4409	2,219.24	72.6737	2,219.24	66.033	2,219.24	68.6867	2,219.24	64.9326	2,219.24	80.0537	2,219.24	66.1651	2,219.24	82.962	2,219.24	70.7509	2,219.24	81.9221	2,219.24	71.8865	2,219.24	78.2245	2,219.24	73.515
2,296.88	86.2507	2,296.88	83.4948	2,296.88	87.603	2,296.88	80.3706	2,296.88	87.8435	2,296.88	77.9098	2,296.88	87.3468	2,296.88	75.6148	2,296.88	86.3457	2,296.88	72.6537	2,296.88	85.2253	2,296.88	69.0617	2,296.88	83.761	2,296.88	65.6745	2,296.88	81.2827	2,296.88	71.8961	2,296.88	77.9284	2,296.88	74.7618	2,296.88	75.539	2,296.88	77.5814	2,296.88	76.5572	2,296.88	77.8141	2,296.88	76.5741	2,296.88	75.8135	2,296.88	73.3699	2,296.88	69.1162	2,296.88	58.8726	2,296.88	58.3425	2,296.88	76.3323	2,296.88	60.1622	2,296.88	80.1916	2,296.88	69.2822	2,296.88	80.0287	2,296.88	72.3842	2,296.88	76.7971	2,296.88	73.0438
2,378.91	86.078	2,378.91	83.8987	2,378.91	87.5327	2,378.91	80.632	2,378.91	87.6142	2,378.91	74.4644	2,378.91	86.3664	2,378.91	67.3357	2,378.91	85.1072	2,378.91	69.7469	2,378.91	84.1413	2,378.91	71.1642	2,378.91	81.5404	2,378.91	67.1362	2,378.91	79.7311	2,378.91	72.0526	2,378.91	79.775	2,378.91	76.0429	2,378.91	78.2128	2,378.91	74.6193	2,378.91	75.1407	2,378.91	71.9751	2,378.91	72.0783	2,378.91	73.4658	2,378.91	71.7426	2,378.91	70.9029	2,378.91	64.5544	2,378.91	57.8862	2,378.91	73.751	2,378.91	67.6534	2,378.91	77.9132	2,378.91	66.0951	2,378.91	78.5042	2,378.91	71.4173	2,378.91	77.1683	2,378.91	74.0963
2,462.4	85.0429	2,462.4	83.2267	2,462.4	86.5661	2,462.4	79.322	2,462.4	87.3291	2,462.4	70.9385	2,462.4	86.4714	2,462.4	58.4229	2,462.4	85.3633	2,462.4	69.0789	2,462.4	83.5254	2,462.4	72.4035	2,462.4	80.2177	2,462.4	71.0304	2,462.4	78.2112	2,462.4	73.2136	2,462.4	77.4288	2,462.4	74.9686	2,462.4	76.3243	2,462.4	75.3192	2,462.4	75.2494	2,462.4	73.2932	2,462.4	73.6824	2,462.4	66.9536	2,462.4	70.2143	2,462.4	66.1386	2,462.4	68.0004	2,462.4	63.3213	2,462.4	75.109	2,462.4	69.7043	2,462.4	77.3311	2,462.4	64.212	2,462.4	76.8258	2,462.4	66.6108	2,462.4	74.151	2,462.4	71.3083
2,548.83	85.7168	2,548.83	83.7947	2,548.83	86.0654	2,548.83	80.5786	2,548.83	85.7173	2,548.83	75.8192	2,548.83	85.1602	2,548.83	64.1596	2,548.83	84.1275	2,548.83	72.3771	2,548.83	81.2312	2,548.83	74.3546	2,548.83	78.1816	2,548.83	70.4659	2,548.83	73.6207	2,548.83	70.9054	2,548.83	69.8654	2,548.83	75.6739	2,548.83	73.0493	2,548.83	76.6166	2,548.83	72.3371	2,548.83	77.6437	2,548.83	71.9194	2,548.83	73.8908	2,548.83	70.7589	2,548.83	66.6795	2,548.83	65.3733	2,548.83	58.3336	2,548.83	74.9484	2,548.83	62.1547	2,548.83	77.7538	2,548.83	65.9666	2,548.83	78.693	2,548.83	71.1508	2,548.83	76.9499	2,548.83	75.0373
2,639.65	86.2049	2,639.65	84.1309	2,639.65	86.8268	2,639.65	80.1196	2,639.65	86.1555	2,639.65	73.4587	2,639.65	85.5231	2,639.65	67.2866	2,639.65	84.3756	2,639.65	72.6965	2,639.65	81.0116	2,639.65	73.6706	2,639.65	77.3599	2,639.65	73.022	2,639.65	73.6724	2,639.65	73.2975	2,639.65	72.0256	2,639.65	75.1758	2,639.65	69.0788	2,639.65	77.4444	2,639.65	58.9704	2,639.65	76.3438	2,639.65	60.9901	2,639.65	72.9754	2,639.65	60.5307	2,639.65	67.4936	2,639.65	62.3597	2,639.65	67.5894	2,639.65	72.2148	2,639.65	70.9798	2,639.65	75.7283	2,639.65	67.4695	2,639.65	76.1883	2,639.65	62.5275	2,639.65	75.2983	2,639.65	72.7347
2,731.93	86.1638	2,731.93	84.0371	2,731.93	86.9067	2,731.93	80.6173	2,731.93	86.5037	2,731.93	76.8811	2,731.93	85.6621	2,731.93	71.7789	2,731.93	83.6483	2,731.93	74.6219	2,731.93	80.637	2,731.93	74.0955	2,731.93	77.4329	2,731.93	75.0452	2,731.93	72.9139	2,731.93	74.098	2,731.93	71.4465	2,731.93	74.5069	2,731.93	65.8017	2,731.93	77.0987	2,731.93	60.4046	2,731.93	76.3776	2,731.93	69.3241	2,731.93	74.9271	2,731.93	63.8924	2,731.93	70.7863	2,731.93	62.7632	2,731.93	56.8043	2,731.93	73.1675	2,731.93	67.1848	2,731.93	77.1479	2,731.93	66.2458	2,731.93	77.9694	2,731.93	67.505	2,731.93	76.9974	2,731.93	73.915
2,828.61	86.6416	2,828.61	84.2173	2,828.61	87.3907	2,828.61	81.4905	2,828.61	86.8779	2,828.61	77.753	2,828.61	85.6677	2,828.61	75.4827	2,828.61	82.9119	2,828.61	74.4921	2,828.61	80.2387	2,828.61	75.7061	2,828.61	76.0218	2,828.61	75.1607	2,828.61	73.0743	2,828.61	74.1578	2,828.61	74.8446	2,828.61	74.8505	2,828.61	65.769	2,828.61	74.8134	2,828.61	67.521	2,828.61	75.8956	2,828.61	70.4245	2,828.61	74.4188	2,828.61	52.4158	2,828.61	69.0385	2,828.61	62.2524	2,828.61	65.6718	2,828.61	71.9657	2,828.61	68.4609	2,828.61	75.537	2,828.61	68.5669	2,828.61	76.607	2,828.61	67.3107	2,828.61	76.4432	2,828.61	73.8591
2,928.22	86.6214	2,928.22	84.9255	2,928.22	87.5717	2,928.22	82.8318	2,928.22	86.9222	2,928.22	79.7816	2,928.22	85.1648	2,928.22	77.8652	2,928.22	82.4477	2,928.22	77.3798	2,928.22	79.9836	2,928.22	77.6843	2,928.22	76.664	2,928.22	76.7228	2,928.22	75.8765	2,928.22	74.4754	2,928.22	75.598	2,928.22	73.7312	2,928.22	67.4177	2,928.22	77.6653	2,928.22	73.9725	2,928.22	78.6032	2,928.22	73.0983	2,928.22	76.64	2,928.22	60.3803	2,928.22	71.8725	2,928.22	65.782	2,928.22	55.4029	2,928.22	73.9917	2,928.22	70.7001	2,928.22	76.9008	2,928.22	73.022	2,928.22	78.1295	2,928.22	70.452	2,928.22	77.3261	2,928.22	71.574
3,030.76	86.5147	3,030.76	84.9396	3,030.76	87.3396	3,030.76	82.6899	3,030.76	87.2347	3,030.76	80.5396	3,030.76	85.4789	3,030.76	77.3796	3,030.76	82.3766	3,030.76	74.5716	3,030.76	78.9107	3,030.76	76.9327	3,030.76	75.3385	3,030.76	76.151	3,030.76	73.2402	3,030.76	77.1115	3,030.76	74.1045	3,030.76	76.7464	3,030.76	76.1232	3,030.76	75.1907	3,030.76	74.4551	3,030.76	77.5647	3,030.76	75.1613	3,030.76	78.9412	3,030.76	68.143	3,030.76	77.2515	3,030.76	69.3362	3,030.76	71.5681	3,030.76	75.0988	3,030.76	63.6071	3,030.76	77.3712	3,030.76	72.3019	3,030.76	79.2907	3,030.76	75.271	3,030.76	79.0528	3,030.76	76.1254
3,137.7	87.4209	3,137.7	85.9029	3,137.7	88.1163	3,137.7	83.4824	3,137.7	87.7823	3,137.7	78.768	3,137.7	85.6791	3,137.7	72.7851	3,137.7	83.3754	3,137.7	75.8062	3,137.7	80.5523	3,137.7	76.784	3,137.7	77.2575	3,137.7	79.0753	3,137.7	74.5103	3,137.7	77.9302	3,137.7	72.8358	3,137.7	74.5474	3,137.7	77.7981	3,137.7	73.9564	3,137.7	72.8769	3,137.7	75.1409	3,137.7	73.7064	3,137.7	79.0695	3,137.7	70.6611	3,137.7	80.1769	3,137.7	60.8833	3,137.7	77.1252	3,137.7	72.8566	3,137.7	68.8962	3,137.7	75.6736	3,137.7	67.7561	3,137.7	77.3379	3,137.7	72.8509	3,137.7	78.0177	3,137.7	75.9895
3,249.02	87.5058	3,249.02	87.0045	3,249.02	87.7115	3,249.02	84.6335	3,249.02	87.4126	3,249.02	79.0616	3,249.02	85.458	3,249.02	76.955	3,249.02	83.1896	3,249.02	77.5727	3,249.02	81.3998	3,249.02	79.5958	3,249.02	78.7323	3,249.02	80.1732	3,249.02	77.2791	3,249.02	78.4684	3,249.02	77.9724	3,249.02	77.5591	3,249.02	79.0883	3,249.02	76.8108	3,249.02	71.4893	3,249.02	75.2132	3,249.02	73.8463	3,249.02	75.1685	3,249.02	74.8746	3,249.02	80.0853	3,249.02	63.3899	3,249.02	79.6544	3,249.02	67.8246	3,249.02	75.9733	3,249.02	72.0614	3,249.02	67.533	3,249.02	74.4446	3,249.02	68.5367	3,249.02	76.2126	3,249.02	74.1342
3,363.28	87.6827	3,363.28	86.8586	3,363.28	87.2393	3,363.28	84.1272	3,363.28	86.5601	3,363.28	79.7788	3,363.28	85.037	3,363.28	78.7365	3,363.28	82.0534	3,363.28	79.8826	3,363.28	79.6098	3,363.28	80.6153	3,363.28	80.364	3,363.28	78.8406	3,363.28	80.3349	3,363.28	79.3745	3,363.28	80.5977	3,363.28	81.0618	3,363.28	76.0542	3,363.28	78.3757	3,363.28	73.2981	3,363.28	76.4702	3,363.28	67.9451	3,363.28	73.4921	3,363.28	74.4768	3,363.28	74.0712	3,363.28	70.927	3,363.28	77.1278	3,363.28	70.3377	3,363.28	76.4528	3,363.28	66.5355	3,363.28	72.0864	3,363.28	71.0256	3,363.28	68.7572	3,363.28	70.732	3,363.28	54.3726
3,481.93	88.3448	3,481.93	87.1973	3,481.93	87.9225	3,481.93	84.0533	3,481.93	86.3999	3,481.93	80.2052	3,481.93	85.1111	3,481.93	80.0389	3,481.93	82.3388	3,481.93	81.7048	3,481.93	79.5322	3,481.93	81.0492	3,481.93	80.8955	3,481.93	79.6753	3,481.93	81.3797	3,481.93	80.0941	3,481.93	80.1697	3,481.93	77.8752	3,481.93	71.1199	3,481.93	76.7411	3,481.93	69.0557	3,481.93	78.5348	3,481.93	73.0035	3,481.93	76.6807	3,481.93	70.938	3,481.93	72.5296	3,481.93	69.4018	3,481.93	74.6896	3,481.93	73.3719	3,481.93	74.0554	3,481.93	70.2863	3,481.93	70.8229	3,481.93	72.4587	3,481.93	73.0823	3,481.93	74.0886	3,481.93	72.3905
3,604.98	88.6654	3,604.98	87.7746	3,604.98	88.1398	3,604.98	83.8403	3,604.98	87.1292	3,604.98	79.9525	3,604.98	84.5893	3,604.98	80.127	3,604.98	81.0274	3,604.98	81.1297	3,604.98	81.1528	3,604.98	81.24	3,604.98	82.5351	3,604.98	81.9999	3,604.98	83.2104	3,604.98	78.4661	3,604.98	79.7191	3,604.98	75.6587	3,604.98	61.1699	3,604.98	77.0064	3,604.98	67.4102	3,604.98	76.6579	3,604.98	70.2677	3,604.98	77.8384	3,604.98	69.0189	3,604.98	75.0857	3,604.98	68.885	3,604.98	74.9619	3,604.98	72.4466	3,604.98	72.5915	3,604.98	71.411	3,604.98	68.3339	3,604.98	74.6171	3,604.98	73.4451	3,604.98	75.641	3,604.98	73.9307
3,732.42	89.2914	3,732.42	87.5685	3,732.42	87.8619	3,732.42	83.6726	3,732.42	86.8187	3,732.42	79.7769	3,732.42	84.6752	3,732.42	81.3787	3,732.42	80.9086	3,732.42	82.1763	3,732.42	82.2927	3,732.42	82.7576	3,732.42	83.4108	3,732.42	81.9284	3,732.42	81.7096	3,732.42	80.1156	3,732.42	76.5627	3,732.42	80.7095	3,732.42	77.7371	3,732.42	77.1056	3,732.42	73.1026	3,732.42	76.3335	3,732.42	63.8224	3,732.42	77.7366	3,732.42	70.4861	3,732.42	75.8746	3,732.42	72.7153	3,732.42	74.511	3,732.42	69.4301	3,732.42	74.8761	3,732.42	72.035	3,732.42	67.5467	3,732.42	74.6218	3,732.42	70.4359	3,732.42	75.3711	3,732.42	72.8979
3,864.26	89.4423	3,864.26	87.4483	3,864.26	88.6299	3,864.26	82.4572	3,864.26	86.2928	3,864.26	80.5425	3,864.26	83.9823	3,864.26	83.1148	3,864.26	82.3572	3,864.26	83.3867	3,864.26	82.9878	3,864.26	83.0551	3,864.26	83.7839	3,864.26	80.4925	3,864.26	81.522	3,864.26	81.1614	3,864.26	80.0141	3,864.26	79.9206	3,864.26	81.0858	3,864.26	77.7455	3,864.26	78.4198	3,864.26	76.16	3,864.26	68.6054	3,864.26	76.6909	3,864.26	71.8446	3,864.26	75.1958	3,864.26	68.3115	3,864.26	73.0942	3,864.26	71.5908	3,864.26	75.6497	3,864.26	71.431	3,864.26	69.5997	3,864.26	73.838	3,864.26	70.2705	3,864.26	75.4096	3,864.26	73.417
4,000.49	89.1602	4,000.49	86.1483	4,000.49	88.6819	4,000.49	81.4087	4,000.49	86.3965	4,000.49	82.63	4,000.49	83.9217	4,000.49	83.0382	4,000.49	82.793	4,000.49	84.2021	4,000.49	83.6039	4,000.49	83.2415	4,000.49	83.278	4,000.49	83.0778	4,000.49	81.3979	4,000.49	81.0653	4,000.49	80.3844	4,000.49	76.6194	4,000.49	81.0659	4,000.49	76.748	4,000.49	78.1065	4,000.49	76.3131	4,000.49	72.0469	4,000.49	76.7728	4,000.49	67.5764	4,000.49	76.3575	4,000.49	66.2371	4,000.49	73.5172	4,000.49	72.3401	4,000.49	75.6629	4,000.49	70.2153	4,000.49	72.3816	4,000.49	74.7832	4,000.49	68.7523	4,000.49	74.3919	4,000.49	72.3444
4,141.11	89.0173	4,141.11	85.4113	4,141.11	88.9527	4,141.11	82.7888	4,141.11	85.9788	4,141.11	83.5671	4,141.11	84.4419	4,141.11	84.6867	4,141.11	83.6369	4,141.11	84.3193	4,141.11	83.8652	4,141.11	82.4267	4,141.11	83.4342	4,141.11	81.7071	4,141.11	80.6417	4,141.11	78.7134	4,141.11	82.5734	4,141.11	81.1248	4,141.11	83.5007	4,141.11	78.2927	4,141.11	76.7112	4,141.11	75.5062	4,141.11	70.0622	4,141.11	75.5218	4,141.11	69.958	4,141.11	76.497	4,141.11	73.659	4,141.11	73.7017	4,141.11	71.5754	4,141.11	75.9976	4,141.11	69.1691	4,141.11	71.8211	4,141.11	75.1432	4,141.11	69.6796	4,141.11	73.5476	4,141.11	72.4414
4,287.6	88.9974	4,287.6	85.651	4,287.6	89.3163	4,287.6	84.1755	4,287.6	86.1637	4,287.6	84.4614	4,287.6	84.4949	4,287.6	83.9501	4,287.6	83.8724	4,287.6	84.2796	4,287.6	84.8466	4,287.6	84.265	4,287.6	81.0619	4,287.6	81.1131	4,287.6	79.7265	4,287.6	81.7677	4,287.6	83.3459	4,287.6	79.4221	4,287.6	80.5959	4,287.6	77.0803	4,287.6	67.7721	4,287.6	77.4704	4,287.6	69.3382	4,287.6	73.2728	4,287.6	73.3964	4,287.6	77.5131	4,287.6	76.4427	4,287.6	75.0596	4,287.6	72.2132	4,287.6	74.4864	4,287.6	71.002	4,287.6	72.8954	4,287.6	74.3163	4,287.6	69.3038	4,287.6	72.5991	4,287.6	74.4364
4,438.48	87.8805	4,438.48	85.6999	4,438.48	89.1989	4,438.48	84.0394	4,438.48	86.5262	4,438.48	83.6262	4,438.48	85.2248	4,438.48	85.4554	4,438.48	84.3246	4,438.48	85.4451	4,438.48	84.8646	4,438.48	81.7437	4,438.48	78.0955	4,438.48	81.2833	4,438.48	81.3083	4,438.48	77.6239	4,438.48	82.9457	4,438.48	76.316	4,438.48	75.0899	4,438.48	77.4583	4,438.48	74.9594	4,438.48	74.7742	4,438.48	73.2212	4,438.48	73.2419	4,438.48	69.8846	4,438.48	75.0788	4,438.48	70.3673	4,438.48	75.3906	4,438.48	68.4544	4,438.48	74.5981	4,438.48	65.5819	4,438.48	75.3518	4,438.48	72.7309	4,438.48	66.4401	4,438.48	74.2279	4,438.48	73.2772
4,595.21	87.1399	4,595.21	85.007	4,595.21	90.0817	4,595.21	83.0276	4,595.21	86.4353	4,595.21	85.8204	4,595.21	83.6103	4,595.21	85.8963	4,595.21	84.1201	4,595.21	84.3429	4,595.21	82.828	4,595.21	83.7711	4,595.21	80.3754	4,595.21	81.6266	4,595.21	83.785	4,595.21	78.2975	4,595.21	81.9229	4,595.21	78.2412	4,595.21	78.3915	4,595.21	75.7824	4,595.21	73.9479	4,595.21	77.8025	4,595.21	73.7616	4,595.21	74.5377	4,595.21	55.1038	4,595.21	74.3285	4,595.21	61.6242	4,595.21	74.0471	4,595.21	70.4195	4,595.21	72.2941	4,595.21	64.7934	4,595.21	75.3483	4,595.21	74.5073	4,595.21	64.177	4,595.21	72.1787	4,595.21	69.5923
4,756.35	86.6459	4,756.35	84.7998	4,756.35	88.4738	4,756.35	84.9664	4,756.35	87.1451	4,756.35	86.2199	4,756.35	83.1118	4,756.35	85.1304	4,756.35	84.0646	4,756.35	84.4151	4,756.35	81.0155	4,756.35	83.2771	4,756.35	84.4111	4,756.35	78.9298	4,756.35	84.987	4,756.35	79.8398	4,756.35	81.1584	4,756.35	74.4641	4,756.35	80.6231	4,756.35	74.7683	4,756.35	71.6569	4,756.35	74.603	4,756.35	68.6917	4,756.35	73.5914	4,756.35	70.631	4,756.35	72.0061	4,756.35	71.0009	4,756.35	75.0838	4,756.35	70.2254	4,756.35	69.9655	4,756.35	66.4778	4,756.35	74.3521	4,756.35	74.3916	4,756.35	66.7582	4,756.35	69.8661	4,756.35	71.9362
4,924.8	87.7231	4,924.8	86.5134	4,924.8	87.9311	4,924.8	86.3887	4,924.8	87.2375	4,924.8	85.2609	4,924.8	83.6181	4,924.8	86.0422	4,924.8	84.1499	4,924.8	83.743	4,924.8	78.4985	4,924.8	80.8823	4,924.8	86.232	4,924.8	81.2402	4,924.8	83.4418	4,924.8	78.8424	4,924.8	80.6785	4,924.8	77.4225	4,924.8	79.9142	4,924.8	76.115	4,924.8	73.8325	4,924.8	74.3898	4,924.8	55.5019	4,924.8	74.4983	4,924.8	73.9561	4,924.8	71.2082	4,924.8	71.1296	4,924.8	73.8556	4,924.8	69.7766	4,924.8	70.5706	4,924.8	65.7241	4,924.8	75.2757	4,924.8	73.0139	4,924.8	71.6636	4,924.8	70.4417	4,924.8	71.2735
5,097.66	86.2776	5,097.66	84.8477	5,097.66	87.8205	5,097.66	85.1178	5,097.66	87.563	5,097.66	86.1794	5,097.66	83.1674	5,097.66	85.2877	5,097.66	83.7328	5,097.66	82.6996	5,097.66	83.3597	5,097.66	82.3333	5,097.66	86.1447	5,097.66	79.2181	5,097.66	79.6303	5,097.66	78.0762	5,097.66	79.0632	5,097.66	75.8768	5,097.66	78.8329	5,097.66	74.9627	5,097.66	73.3375	5,097.66	71.7476	5,097.66	60.3777	5,097.66	72.208	5,097.66	72.8982	5,097.66	72.2891	5,097.66	69.901	5,097.66	73.7681	5,097.66	68.8898	5,097.66	70.7281	5,097.66	66.3545	5,097.66	72.479	5,097.66	71.1197	5,097.66	70.0686	5,097.66	73.2244	5,097.66	68.2702
5,277.83	86.6344	5,277.83	84.4137	5,277.83	88.1541	5,277.83	86.4288	5,277.83	87.116	5,277.83	86.0146	5,277.83	83.4867	5,277.83	84.3041	5,277.83	80.6942	5,277.83	82.8574	5,277.83	85.8785	5,277.83	81.082	5,277.83	84.8368	5,277.83	79.0977	5,277.83	81.3296	5,277.83	78.5005	5,277.83	79.9161	5,277.83	74.6168	5,277.83	77.602	5,277.83	74.6067	5,277.83	69.899	5,277.83	72.577	5,277.83	55.4522	5,277.83	73.8085	5,277.83	67.1184	5,277.83	71.2339	5,277.83	71.5047	5,277.83	70.1561	5,277.83	66.4769	5,277.83	73.5183	5,277.83	64.8826	5,277.83	69.2794	5,277.83	72.1052	5,277.83	68.646	5,277.83	72.8216	5,277.83	70.3639
5,463.87	86.8059	5,463.87	87.2626	5,463.87	87.6624	5,463.87	87.2192	5,463.87	86.9487	5,463.87	85.3173	5,463.87	84.09	5,463.87	84.2569	5,463.87	79.8962	5,463.87	83.1362	5,463.87	86.032	5,463.87	80.0738	5,463.87	82.6723	5,463.87	78.5576	5,463.87	81.3618	5,463.87	74.9358	5,463.87	79.1768	5,463.87	76.1099	5,463.87	77.6899	5,463.87	73.0565	5,463.87	72.4451	5,463.87	73.6079	5,463.87	62.1978	5,463.87	69.8086	5,463.87	66.1883	5,463.87	72.7776	5,463.87	71.3802	5,463.87	69.1554	5,463.87	70.7748	5,463.87	70.4764	5,463.87	67.2867	5,463.87	70.3039	5,463.87	72.9134	5,463.87	69.9052	5,463.87	71.2515	5,463.87	68.2731
5,657.23	86.1881	5,657.23	86.7128	5,657.23	87.0743	5,657.23	86.4142	5,657.23	86.8711	5,657.23	84.7018	5,657.23	82.0221	5,657.23	84.321	5,657.23	81.8135	5,657.23	81.5749	5,657.23	84.4366	5,657.23	80.5467	5,657.23	81.5358	5,657.23	78.7152	5,657.23	81.0743	5,657.23	78.6792	5,657.23	78.6794	5,657.23	75.1203	5,657.23	78.4549	5,657.23	73.2144	5,657.23	75.4282	5,657.23	73.198	5,657.23	63.8228	5,657.23	72.1753	5,657.23	56.1269	5,657.23	71.525	5,657.23	71.9169	5,657.23	67.8651	5,657.23	67.7303	5,657.23	70.8093	5,657.23	70.7607	5,657.23	67.6982	5,657.23	73.6752	5,657.23	70.076	5,657.23	71.7704	5,657.23	66.0989
5,856.45	86.0656	5,856.45	86.5107	5,856.45	86.886	5,856.45	85.3355	5,856.45	87.3514	5,856.45	85.4037	5,856.45	81.383	5,856.45	83.4905	5,856.45	83.0683	5,856.45	82.3632	5,856.45	82.0546	5,856.45	80.3647	5,856.45	80.6238	5,856.45	79.6877	5,856.45	80.7592	5,856.45	75.7414	5,856.45	80.6905	5,856.45	75.469	5,856.45	79.7371	5,856.45	73.883	5,856.45	73.4676	5,856.45	72.2878	5,856.45	64.8798	5,856.45	72.1559	5,856.45	64.5928	5,856.45	72.2716	5,856.45	72.7878	5,856.45	69.7582	5,856.45	66.9297	5,856.45	70.6719	5,856.45	67.876	5,856.45	66.9083	5,856.45	75.2323	5,856.45	68.4905	5,856.45	70.9081	5,856.45	69.5121
6,062.99	86.3261	6,062.99	86.564	6,062.99	87.0834	6,062.99	85.9873	6,062.99	87.0077	6,062.99	84.8309	6,062.99	83.7116	6,062.99	83.9004	6,062.99	83.2463	6,062.99	82.4926	6,062.99	82.259	6,062.99	81.0535	6,062.99	81.7582	6,062.99	77.5332	6,062.99	81.3452	6,062.99	77.9059	6,062.99	80.1035	6,062.99	71.7322	6,062.99	77.9677	6,062.99	72.5621	6,062.99	66.9988	6,062.99	69.8003	6,062.99	62.3424	6,062.99	71.1104	6,062.99	62.3242	6,062.99	70.1665	6,062.99	67.6188	6,062.99	70.3309	6,062.99	63.2924	6,062.99	69.4592	6,062.99	62.5407	6,062.99	65.8511	6,062.99	74.6224	6,062.99	66.6545	6,062.99	69.9669	6,062.99	66.5846
6,276.86	86.6933	6,276.86	86.616	6,276.86	85.8551	6,276.86	85.0936	6,276.86	86.3953	6,276.86	84.186	6,276.86	85.7303	6,276.86	83.7008	6,276.86	81.9204	6,276.86	82.855	6,276.86	82.1386	6,276.86	79.3623	6,276.86	81.2431	6,276.86	77.4858	6,276.86	82.6755	6,276.86	71.9054	6,276.86	80.8751	6,276.86	72.2132	6,276.86	76.0822	6,276.86	70.1776	6,276.86	74.8381	6,276.86	68.8567	6,276.86	57.1211	6,276.86	69.7563	6,276.86	63.3236	6,276.86	69.6209	6,276.86	67.76	6,276.86	69.2779	6,276.86	58.8922	6,276.86	70.0645	6,276.86	57.0371	6,276.86	66.6258	6,276.86	70.1446	6,276.86	69.8103	6,276.86	70.7312	6,276.86	67.1982
6,498.05	86.4514	6,498.05	86.2994	6,498.05	84.7284	6,498.05	84.9266	6,498.05	86.8458	6,498.05	84.6616	6,498.05	87.4126	6,498.05	83.8255	6,498.05	80.1368	6,498.05	81.6435	6,498.05	82.3281	6,498.05	77.7335	6,498.05	82.3941	6,498.05	74.9093	6,498.05	82.719	6,498.05	74.2972	6,498.05	79.3013	6,498.05	70.5838	6,498.05	77.4231	6,498.05	71.2953	6,498.05	77.5332	6,498.05	68.2305	6,498.05	58.6549	6,498.05	68.3734	6,498.05	62.9698	6,498.05	65.6744	6,498.05	67.5625	6,498.05	68.4588	6,498.05	64.8313	6,498.05	68.0853	6,498.05	62.6623	6,498.05	66.6373	6,498.05	67.0581	6,498.05	67.4683	6,498.05	69.6094	6,498.05	67.6011
6,726.56	86.8371	6,726.56	86.094	6,726.56	85.5983	6,726.56	84.9386	6,726.56	87.2067	6,726.56	84.2812	6,726.56	86.7262	6,726.56	83.7358	6,726.56	81.2608	6,726.56	79.7168	6,726.56	80.961	6,726.56	77.5379	6,726.56	82.4819	6,726.56	74.6264	6,726.56	80.3245	6,726.56	73.6887	6,726.56	74.1804	6,726.56	71.5603	6,726.56	78.483	6,726.56	69.8267	6,726.56	75.2738	6,726.56	69.5478	6,726.56	52.6626	6,726.56	67.9444	6,726.56	59.3186	6,726.56	66.3779	6,726.56	48.2863	6,726.56	67.691	6,726.56	57.1846	6,726.56	66.9055	6,726.56	68.8117	6,726.56	68.6553	6,726.56	71.1629	6,726.56	60.9933	6,726.56	69.9825	6,726.56	65.695
6,963.87	87.5048	6,963.87	86.6653	6,963.87	86.6056	6,963.87	84.9014	6,963.87	85.6704	6,963.87	84.9656	6,963.87	85.0956	6,963.87	82.8655	6,963.87	81.457	6,963.87	79.1174	6,963.87	80.6007	6,963.87	76.5307	6,963.87	82.6051	6,963.87	76.3375	6,963.87	75.9754	6,963.87	74.1894	6,963.87	77.3804	6,963.87	71.6257	6,963.87	75.247	6,963.87	70.9746	6,963.87	68.7145	6,963.87	69.0191	6,963.87	64.4224	6,963.87	69.5669	6,963.87	53.3206	6,963.87	67.7414	6,963.87	60.7576	6,963.87	65.9911	6,963.87	48.517	6,963.87	63.2978	6,963.87	67.1977	6,963.87	69.4817	6,963.87	68.6048	6,963.87	62.3287	6,963.87	69.3786	6,963.87	65.9631
7,209.96	87.1079	7,209.96	85.7331	7,209.96	85.6177	7,209.96	84.8807	7,209.96	82.7321	7,209.96	84.9422	7,209.96	85.0213	7,209.96	80.8381	7,209.96	82.1257	7,209.96	78.628	7,209.96	79.5595	7,209.96	77.484	7,209.96	81.6898	7,209.96	75.0716	7,209.96	77.2869	7,209.96	74.1173	7,209.96	80.892	7,209.96	71.9152	7,209.96	74.3111	7,209.96	70.1206	7,209.96	74.7856	7,209.96	67.7453	7,209.96	66.9819	7,209.96	67.9903	7,209.96	62.687	7,209.96	67.7334	7,209.96	64.1143	7,209.96	67.7029	7,209.96	61.179	7,209.96	66.1022	7,209.96	60.0323	7,209.96	65.0696	7,209.96	66.1926	7,209.96	64.6472	7,209.96	67.0217	7,209.96	67.0616
7,464.84	86.8577	7,464.84	85.2022	7,464.84	85.8532	7,464.84	85.847	7,464.84	83.6976	7,464.84	83.9432	7,464.84	84.5401	7,464.84	81.2395	7,464.84	81.492	7,464.84	78.5685	7,464.84	80.3365	7,464.84	76.9556	7,464.84	79.513	7,464.84	75.0749	7,464.84	81.7221	7,464.84	71.4427	7,464.84	79.5543	7,464.84	71.1615	7,464.84	78.4308	7,464.84	68.5872	7,464.84	74.4957	7,464.84	69.4474	7,464.84	67.0886	7,464.84	68.014	7,464.84	63.1284	7,464.84	67.2999	7,464.84	65.8748	7,464.84	67.5849	7,464.84	59.8696	7,464.84	66.3006	7,464.84	66.5261	7,464.84	64.2063	7,464.84	67.7962	7,464.84	66.5848	7,464.84	67.8734	7,464.84	64.4073
7,727.05	86.8274	7,727.05	85.4306	7,727.05	87.2125	7,727.05	85.5905	7,727.05	85.4663	7,727.05	83.0652	7,727.05	84.5362	7,727.05	80.9532	7,727.05	81.2121	7,727.05	78.9199	7,727.05	80.7998	7,727.05	76.4369	7,727.05	77.2053	7,727.05	75.693	7,727.05	82.0355	7,727.05	74.1611	7,727.05	73.0359	7,727.05	72.122	7,727.05	75.7375	7,727.05	69.8213	7,727.05	68.1014	7,727.05	69.3116	7,727.05	66.2272	7,727.05	67.0644	7,727.05	55.3596	7,727.05	67.5003	7,727.05	58.0863	7,727.05	67.1914	7,727.05	61.2932	7,727.05	67.5699	7,727.05	64.5046	7,727.05	64.8777	7,727.05	68.9381	7,727.05	63.9848	7,727.05	68.6064	7,727.05	59.2786
7,999.51	85.7626	7,999.51	85.5151	7,999.51	87.1049	7,999.51	84.9882	7,999.51	85.2705	7,999.51	82.319	7,999.51	83.9283	7,999.51	80.7284	7,999.51	83.2224	7,999.51	78.7432	7,999.51	78.5532	7,999.51	77.8589	7,999.51	80.2906	7,999.51	76.0266	7,999.51	79.7346	7,999.51	73.9445	7,999.51	73.858	7,999.51	73.7361	7,999.51	70.2289	7,999.51	70.2597	7,999.51	67.724	7,999.51	69.0215	7,999.51	63.5151	7,999.51	66.8612	7,999.51	58.0674	7,999.51	66.0184	7,999.51	53.6857	7,999.51	67.3162	7,999.51	62.677	7,999.51	66.6157	7,999.51	65.4061	7,999.51	67.1727	7,999.51	68.2465	7,999.51	58.8698	7,999.51	68.4557	7,999.51	63.5504
8,282.23	86	8,282.23	86.2632	8,282.23	85.6516	8,282.23	84.5568	8,282.23	83.0965	8,282.23	81.6506	8,282.23	83.1992	8,282.23	81.0206	8,282.23	83.2793	8,282.23	78.9956	8,282.23	74.8004	8,282.23	78.1016	8,282.23	81.4754	8,282.23	75.7606	8,282.23	73.3278	8,282.23	72.4159	8,282.23	76.2185	8,282.23	71.0316	8,282.23	70.2879	8,282.23	69.6596	8,282.23	69.9998	8,282.23	66.083	8,282.23	54.2455	8,282.23	65.9145	8,282.23	58.117	8,282.23	64.3369	8,282.23	54.0457	8,282.23	66.2456	8,282.23	56.1817	8,282.23	66.583	8,282.23	65.9207	8,282.23	65.0102	8,282.23	65.3205	8,282.23	63.8692	8,282.23	67.1697	8,282.23	64.8274
8,573.73	86.2083	8,573.73	85.409	8,573.73	86.6908	8,573.73	83.2064	8,573.73	84.2684	8,573.73	82.2028	8,573.73	83.4765	8,573.73	80.8754	8,573.73	83.1735	8,573.73	79.4263	8,573.73	76.7821	8,573.73	77.6973	8,573.73	80.2235	8,573.73	75.2485	8,573.73	76.1829	8,573.73	71.6336	8,573.73	76.8675	8,573.73	69.0526	8,573.73	72.3439	8,573.73	68.256	8,573.73	71.5361	8,573.73	68.0599	8,573.73	62.2422	8,573.73	65.0598	8,573.73	54.5422	8,573.73	65.2916	8,573.73	55.0223	8,573.73	65.5926	8,573.73	59.8997	8,573.73	64.6253	8,573.73	60.9862	8,573.73	65.4637	8,573.73	64.5512	8,573.73	60.393	8,573.73	66.9567	8,573.73	65.5177
8,876.95	85.6506	8,876.95	85.782	8,876.95	87.0583	8,876.95	83.6601	8,876.95	85.4401	8,876.95	82.5604	8,876.95	84.2554	8,876.95	80.4929	8,876.95	83.6031	8,876.95	79.5055	8,876.95	79.3694	8,876.95	76.9147	8,876.95	77.7312	8,876.95	74.942	8,876.95	79.1076	8,876.95	71.6473	8,876.95	74.6845	8,876.95	71.8147	8,876.95	71.7067	8,876.95	67.4216	8,876.95	70.6267	8,876.95	68.8931	8,876.95	65.6735	8,876.95	64.8172	8,876.95	54.5297	8,876.95	66.2996	8,876.95	61.017	8,876.95	65.0678	8,876.95	61.2167	8,876.95	67.2124	8,876.95	56.0367	8,876.95	66.0948	8,876.95	67.4497	8,876.95	62.6313	8,876.95	66.1615	8,876.95	64.8308
9,188.96	85.6823	9,188.96	84.9954	9,188.96	85.964	9,188.96	83.4554	9,188.96	85.6099	9,188.96	82.4662	9,188.96	83.9263	9,188.96	81.1411	9,188.96	83.4118	9,188.96	78.7945	9,188.96	78.6967	9,188.96	77.0951	9,188.96	74.8078	9,188.96	76.0702	9,188.96	78.331	9,188.96	70.5578	9,188.96	72.6305	9,188.96	70.9697	9,188.96	69.3254	9,188.96	67.1364	9,188.96	69.5763	9,188.96	68.0968	9,188.96	61.4304	9,188.96	64.6162	9,188.96	43.0124	9,188.96	63.9042	9,188.96	59.9304	9,188.96	64.0414	9,188.96	62.5627	9,188.96	65.9022	9,188.96	61.1302	9,188.96	64.715	9,188.96	67.2039	9,188.96	57.323	9,188.96	65.1897	9,188.96	61.189
9,514.16	85.7889	9,514.16	84.9862	9,514.16	85.9688	9,514.16	83.6311	9,514.16	85.1046	9,514.16	82.1063	9,514.16	82.3587	9,514.16	81.0651	9,514.16	82.6077	9,514.16	78.6849	9,514.16	76.7319	9,514.16	77.6587	9,514.16	77.4771	9,514.16	74.6184	9,514.16	75.7783	9,514.16	69.7072	9,514.16	76.0041	9,514.16	67.2868	9,514.16	71.3222	9,514.16	66.2634	9,514.16	71.4129	9,514.16	64.3783	9,514.16	58.5308	9,514.16	63.9034	9,514.16	52.7707	9,514.16	60.2072	9,514.16	44.2267	9,514.16	64.3298	9,514.16	61.0898	9,514.16	64.5788	9,514.16	58.6551	9,514.16	62.3643	9,514.16	64.3716	9,514.16	63.7174	9,514.16	65.9922	9,514.16	60.4027
9,849.61	86.0554	9,849.61	84.4167	9,849.61	85.7599	9,849.61	83.1537	9,849.61	85.0708	9,849.61	82.0683	9,849.61	81.1347	9,849.61	81.2215	9,849.61	82.2313	9,849.61	79.1369	9,849.61	77.2856	9,849.61	76.7853	9,849.61	77.3819	9,849.61	73.45	9,849.61	75.3975	9,849.61	69.3727	9,849.61	73.0072	9,849.61	67.2807	9,849.61	70.3252	9,849.61	64.4444	9,849.61	69.134	9,849.61	64.2614	9,849.61	63.903	9,849.61	62.8769	9,849.61	51.8994	9,849.61	61.2234	9,849.61	56.0318	9,849.61	61.7873	9,849.61	60.0004	9,849.61	63.8604	9,849.61	59.7578	9,849.61	61.6398	9,849.61	64.5057	9,849.61	60.0715	9,849.61	63.8232	9,849.61	61.0413
10,196.8	85.6676	10,196.8	84.2437	10,196.8	85.8097	10,196.8	83.1161	10,196.8	86.1366	10,196.8	82.5093	10,196.8	81.784	10,196.8	81.3632	10,196.8	83.0401	10,196.8	78.5546	10,196.8	78.9351	10,196.8	75.1693	10,196.8	73.3991	10,196.8	73.0963	10,196.8	75.833	10,196.8	68.9774	10,196.8	73.4273	10,196.8	67.5657	10,196.8	70.677	10,196.8	64.4817	10,196.8	68.5659	10,196.8	64.2219	10,196.8	65.077	10,196.8	63.4628	10,196.8	58.1054	10,196.8	61.725	10,196.8	55.5993	10,196.8	62.0695	10,196.8	62.3975	10,196.8	62.4215	10,196.8	57.4222	10,196.8	62.6809	10,196.8	63.0181	10,196.8	58.6074	10,196.8	63.9592	10,196.8	58.5743
10,555.7	85.5576	10,555.7	84.271	10,555.7	85.7052	10,555.7	83.6501	10,555.7	86.6042	10,555.7	82.423	10,555.7	82.9015	10,555.7	80.9616	10,555.7	82.2415	10,555.7	77.6478	10,555.7	79.1849	10,555.7	74.6143	10,555.7	72.2881	10,555.7	72.645	10,555.7	76.2844	10,555.7	68.7812	10,555.7	73.3889	10,555.7	67.1456	10,555.7	70.6584	10,555.7	65.2701	10,555.7	69.5466	10,555.7	62.776	10,555.7	63.7523	10,555.7	61.1493	10,555.7	58.7375	10,555.7	62.6852	10,555.7	56.8387	10,555.7	61.0132	10,555.7	62.9436	10,555.7	63.2027	10,555.7	54.5081	10,555.7	62.2626	10,555.7	61.0459	10,555.7	54.844	10,555.7	59.9473	10,555.7	62.2764
10,927.7	85.4495	10,927.7	84.2623	10,927.7	85.4608	10,927.7	83.8702	10,927.7	85.6226	10,927.7	82.4146	10,927.7	83.814	10,927.7	80.3408	10,927.7	81.4574	10,927.7	77.4645	10,927.7	79.1653	10,927.7	74.8315	10,927.7	71.1479	10,927.7	72.2132	10,927.7	75.7283	10,927.7	68.5938	10,927.7	68.5484	10,927.7	66.51	10,927.7	68.8151	10,927.7	63.7752	10,927.7	66.244	10,927.7	62.9031	10,927.7	63.0534	10,927.7	60.5497	10,927.7	55.3396	10,927.7	62.8632	10,927.7	42.0509	10,927.7	62.77	10,927.7	52.0366	10,927.7	60.0423	10,927.7	57.9395	10,927.7	61.2596	10,927.7	63.373	10,927.7	60.1376	10,927.7	64.0299	10,927.7	61.6086
11,313	85.6056	11,313	84.0186	11,313	85.3714	11,313	83.8613	11,313	85.56	11,313	82.2118	11,313	83.1923	11,313	80.1464	11,313	80.8681	11,313	77.5038	11,313	79.3171	11,313	73.7926	11,313	71.6186	11,313	72.1505	11,313	74.667	11,313	67.6979	11,313	69.1964	11,313	65.6723	11,313	69.3284	11,313	62.69	11,313	61.5919	11,313	61.7147	11,313	64.8448	11,313	60.6415	11,313	56.2428	11,313	61.7848	11,313	51.0507	11,313	60.6527	11,313	58.0639	11,313	62.3696	11,313	57.7808	11,313	59.3648	11,313	59.832	11,313	57.6949	11,313	62.2188	11,313	59.0334
11,712.9	85.3249	11,712.9	84.6347	11,712.9	85.7601	11,712.9	83.6879	11,712.9	85.2409	11,712.9	82.292	11,712.9	82.6424	11,712.9	80.2472	11,712.9	79.825	11,712.9	77.0453	11,712.9	79.0402	11,712.9	74.0592	11,712.9	71.7783	11,712.9	70.8514	11,712.9	73.1351	11,712.9	67.1123	11,712.9	71.552	11,712.9	64.2336	11,712.9	69.5482	11,712.9	62.9327	11,712.9	64.2107	11,712.9	60.1449	11,712.9	63.9355	11,712.9	58.8955	11,712.9	60.242	11,712.9	60.2026	11,712.9	49.9746	11,712.9	60.3398	11,712.9	61.2391	11,712.9	61.7562	11,712.9	46.5655	11,712.9	61.1709	11,712.9	59.452	11,712.9	56.0821	11,712.9	60.2533	11,712.9	60.2953
12,126	85.1436	12,126	84.6686	12,126	85.2747	12,126	83.2842	12,126	84.6702	12,126	82.6804	12,126	83.7217	12,126	79.7517	12,126	80.235	12,126	76.7342	12,126	78.4668	12,126	73.7657	12,126	70.4494	12,126	69.8463	12,126	73.8947	12,126	67.3156	12,126	67.1613	12,126	64.4468	12,126	66.5406	12,126	62.1985	12,126	62.4447	12,126	61.2859	12,126	65.5926	12,126	59.3121	12,126	58.3182	12,126	60.4626	12,126	49.2694	12,126	61.203	12,126	57.3933	12,126	61.1854	12,126	51.9057	12,126	60.5739	12,126	61.7327	12,126	58.0006	12,126	58.4145	12,126	58.9125
12,553.7	84.9384	12,553.7	84.2161	12,553.7	85.5421	12,553.7	83.0583	12,553.7	85.0431	12,553.7	82.561	12,553.7	83.997	12,553.7	79.116	12,553.7	80.3693	12,553.7	76.6198	12,553.7	78.0565	12,553.7	73.8453	12,553.7	71.8421	12,553.7	70.5095	12,553.7	70.6456	12,553.7	67.1053	12,553.7	68.9651	12,553.7	63.8421	12,553.7	64.2452	12,553.7	61.2385	12,553.7	54.765	12,553.7	59.3643	12,553.7	64.2488	12,553.7	58.7664	12,553.7	56.9462	12,553.7	59.9267	12,553.7	52.6971	12,553.7	60.3455	12,553.7	51.7663	12,553.7	61.1427	12,553.7	45.9661	12,553.7	58.714	12,553.7	59.9586	12,553.7	54.34	12,553.7	59.9617	12,553.7	58.3209
12,996.1	85.123	12,996.1	84.4723	12,996.1	85.2156	12,996.1	83.4003	12,996.1	84.7625	12,996.1	81.8568	12,996.1	83.5811	12,996.1	79.4929	12,996.1	80.0439	12,996.1	76.3461	12,996.1	77.9429	12,996.1	73.6495	12,996.1	70.4733	12,996.1	69.6997	12,996.1	69.1704	12,996.1	65.384	12,996.1	68.8134	12,996.1	63.0698	12,996.1	61.0946	12,996.1	60.3405	12,996.1	55.6349	12,996.1	58.6969	12,996.1	63.6195	12,996.1	58.4529	12,996.1	60.2205	12,996.1	55.1285	12,996.1	46.6079	12,996.1	59.5423	12,996.1	53.1342	12,996.1	60.5388	12,996.1	47.0763	12,996.1	54.8024	12,996.1	60.9371	12,996.1	57.2926	12,996.1	58.7682	12,996.1	57.0775
13,454.6	85.1844	13,454.6	84.7337	13,454.6	85.3555	13,454.6	83.4116	13,454.6	84.4387	13,454.6	81.6823	13,454.6	83.0358	13,454.6	79.7744	13,454.6	80.196	13,454.6	75.4275	13,454.6	76.8381	13,454.6	73.1689	13,454.6	72.1343	13,454.6	68.2098	13,454.6	66.4756	13,454.6	64.4315	13,454.6	70.0846	13,454.6	62.5287	13,454.6	58.1801	13,454.6	59.0902	13,454.6	55.23	13,454.6	57.9423	13,454.6	65.4033	13,454.6	59.6702	13,454.6	59.8628	13,454.6	56.1099	13,454.6	57.4685	13,454.6	58.3921	13,454.6	54.4279	13,454.6	59.8691	13,454.6	48.4285	13,454.6	58.3105	13,454.6	57.0255	13,454.6	59.1864	13,454.6	57.1255	13,454.6	56.8843
13,929.2	85.1546	13,929.2	84.4126	13,929.2	85.3182	13,929.2	83.0882	13,929.2	84.6899	13,929.2	81.8961	13,929.2	82.6972	13,929.2	79.3292	13,929.2	80.1005	13,929.2	75.4955	13,929.2	76.4455	13,929.2	72.5176	13,929.2	70.5491	13,929.2	68.2038	13,929.2	63.6491	13,929.2	66.0028	13,929.2	68.1454	13,929.2	62.1521	13,929.2	53.6611	13,929.2	59.5161	13,929.2	55.4637	13,929.2	56.8461	13,929.2	64.2283	13,929.2	59.1686	13,929.2	59.8143	13,929.2	56.8033	13,929.2	48.7129	13,929.2	59.0192	13,929.2	50.8166	13,929.2	58.1792	13,929.2	47.3542	13,929.2	58.5405	13,929.2	60.3959	13,929.2	59.5864	13,929.2	55.3349	13,929.2	53.994
14,419.9	85.016	14,419.9	84.4522	14,419.9	85.0292	14,419.9	82.7425	14,419.9	84.7639	14,419.9	81.8072	14,419.9	82.8092	14,419.9	78.4677	14,419.9	80.1375	14,419.9	75.5723	14,419.9	75.2053	14,419.9	71.9764	14,419.9	71.6903	14,419.9	68.0141	14,419.9	57.1473	14,419.9	65.1797	14,419.9	67.9321	14,419.9	61.1615	14,419.9	58.8588	14,419.9	58.9259	14,419.9	57.2831	14,419.9	55.4325	14,419.9	64.5424	14,419.9	58.3275	14,419.9	61.853	14,419.9	57.3146	14,419.9	50.1401	14,419.9	57.1958	14,419.9	53.1033	14,419.9	58.0284	14,419.9	38.1068	14,419.9	58.0765	14,419.9	58.5637	14,419.9	54.0224	14,419.9	58.8425	14,419.9	53.9685
14,928.2	85.0658	14,928.2	84.6601	14,928.2	85.0762	14,928.2	82.9575	14,928.2	84.8523	14,928.2	81.2307	14,928.2	82.6519	14,928.2	78.9293	14,928.2	79.231	14,928.2	74.5674	14,928.2	74.9184	14,928.2	71.8988	14,928.2	71.6657	14,928.2	66.8315	14,928.2	54.8139	14,928.2	64.7781	14,928.2	68.8528	14,928.2	61.9976	14,928.2	59.4695	14,928.2	58.6628	14,928.2	56.763	14,928.2	55.4965	14,928.2	65.2737	14,928.2	58.3511	14,928.2	62.2774	14,928.2	58.0964	14,928.2	51.6023	14,928.2	55.7924	14,928.2	30.4792	14,928.2	59.1394	14,928.2	48.6293	14,928.2	55.722	14,928.2	58.9091	14,928.2	53.0914	14,928.2	56.7772	14,928.2	54.5148
15,455.6	85.1536	15,455.6	84.3932	15,455.6	85.651	15,455.6	82.4352	15,455.6	84.488	15,455.6	81.1068	15,455.6	82.1716	15,455.6	78.826	15,455.6	79.6174	15,455.6	73.1673	15,455.6	73.3857	15,455.6	71.9103	15,455.6	70.9072	15,455.6	68.5136	15,455.6	62.3121	15,455.6	65.4466	15,455.6	67.4443	15,455.6	61.6896	15,455.6	61.1687	15,455.6	58.3894	15,455.6	59.5962	15,455.6	54.8857	15,455.6	66.1219	15,455.6	56.7526	15,455.6	63.6766	15,455.6	57.6335	15,455.6	54.914	15,455.6	56.5108	15,455.6	50.821	15,455.6	57.4959	15,455.6	48.8441	15,455.6	57.9165	15,455.6	55.3746	15,455.6	52.4481	15,455.6	55.2266	15,455.6	55.4476
16,000.5	85.0543	16,000.5	83.7596	16,000.5	85.0737	16,000.5	82.4214	16,000.5	84.2396	16,000.5	81.0613	16,000.5	81.2332	16,000.5	77.3141	16,000.5	77.7174	16,000.5	74.0641	16,000.5	73.2018	16,000.5	71.7559	16,000.5	70.1479	16,000.5	67.8825	16,000.5	65.9347	16,000.5	64.5213	16,000.5	65.5643	16,000.5	58.4503	16,000.5	62.9743	16,000.5	56.5968	16,000.5	61.4144	16,000.5	53.5638	16,000.5	64.7277	16,000.5	54.6397	16,000.5	63.5781	16,000.5	56.9825	16,000.5	52.0389	16,000.5	54.4052	16,000.5	47.39	16,000.5	58.186	16,000.5	46.3766	16,000.5	57.4061	16,000.5	57.2569	16,000.5	50.0372	16,000.5	58.6332	16,000.5	51.1748
16,564.5	84.7915	16,564.5	83.7353	16,564.5	84.8001	16,564.5	82.7505	16,564.5	83.9446	16,564.5	80.6922	16,564.5	81.9345	16,564.5	76.994	16,564.5	77.8358	16,564.5	73.9592	16,564.5	73.8699	16,564.5	71.4443	16,564.5	68.1344	16,564.5	67.222	16,564.5	67.2173	16,564.5	63.6771	16,564.5	63.7627	16,564.5	58.5447	16,564.5	61.6122	16,564.5	55.9714	16,564.5	62.7895	16,564.5	51.4369	16,564.5	64.9576	16,564.5	54.3055	16,564.5	63.9871	16,564.5	54.534	16,564.5	50.4234	16,564.5	53.3414	16,564.5	39.759	16,564.5	57.1913	16,564.5	48.1404	16,564.5	51.782	16,564.5	55.6311	16,564.5	48.5858	16,564.5	58.5701	16,564.5	54.3287
17,148.9	84.5122	17,148.9	83.8652	17,148.9	84.8579	17,148.9	82.6966	17,148.9	83.2549	17,148.9	79.8977	17,148.9	81.1335	17,148.9	76.6467	17,148.9	77.6477	17,148.9	73.93	17,148.9	73.3635	17,148.9	71.2848	17,148.9	67.9511	17,148.9	65.0271	17,148.9	66.9007	17,148.9	61.6674	17,148.9	61.9801	17,148.9	56.3051	17,148.9	61.2582	17,148.9	53.9975	17,148.9	63.5273	17,148.9	48.8468	17,148.9	65.3689	17,148.9	50.2374	17,148.9	63.0837	17,148.9	52.5586	17,148.9	51.0573	17,148.9	53.2762	17,148.9	45.6644	17,148.9	54.7609	17,148.9	48.7409	17,148.9	51.5351	17,148.9	53.6823	17,148.9	48.093	17,148.9	56.1857	17,148.9	53.5309
17,752.4	84.2344	17,752.4	84.0514	17,752.4	84.5829	17,752.4	82.3526	17,752.4	83.6053	17,752.4	79.3479	17,752.4	80.3098	17,752.4	76.946	17,752.4	77.695	17,752.4	74.1854	17,752.4	74.2201	17,752.4	69.5362	17,752.4	66.7008	17,752.4	63.4895	17,752.4	67.1388	17,752.4	61.8608	17,752.4	59.635	17,752.4	57.2813	17,752.4	61.7549	17,752.4	54.8308	17,752.4	64.1199	17,752.4	50.7047	17,752.4	65.8615	17,752.4	51.0573	17,752.4	64.4894	17,752.4	53.54	17,752.4	51.4921	17,752.4	54.8919	17,752.4	42.1376	17,752.4	54.4873	17,752.4	45.3687	17,752.4	50.2707	17,752.4	54.2798	17,752.4	46.4297	17,752.4	55.8016	17,752.4	48.4272
18,379.4	83.9839	18,379.4	84.0516	18,379.4	84.008	18,379.4	81.6742	18,379.4	83.0059	18,379.4	79.3582	18,379.4	79.9405	18,379.4	77.3065	18,379.4	77.6939	18,379.4	73.0113	18,379.4	74.5363	18,379.4	69.2657	18,379.4	67.9866	18,379.4	64.0795	18,379.4	65.9145	18,379.4	62.3129	18,379.4	56.2791	18,379.4	57.6793	18,379.4	60.4151	18,379.4	53.5488	18,379.4	65.2642	18,379.4	50.4507	18,379.4	66.9856	18,379.4	49.4622	18,379.4	64.8831	18,379.4	52.2123	18,379.4	52.092	18,379.4	54.9161	18,379.4	37.9578	18,379.4	55.5131	18,379.4	43.803	18,379.4	50.2327	18,379.4	53.3772	18,379.4	44.565	18,379.4	53.2172	18,379.4	51.8649
19,026.9	84.0979	19,026.9	83.7506	19,026.9	83.6817	19,026.9	81.3678	19,026.9	83.345	19,026.9	79.4719	19,026.9	80.5526	19,026.9	77.1975	19,026.9	76.5606	19,026.9	72.4661	19,026.9	72.9148	19,026.9	69.5239	19,026.9	67.2098	19,026.9	63.6466	19,026.9	64.9932	19,026.9	61.3529	19,026.9	54.1921	19,026.9	57.3987	19,026.9	61.1651	19,026.9	52.6807	19,026.9	65.4652	19,026.9	49.9542	19,026.9	67.0503	19,026.9	49.42	19,026.9	64.7215	19,026.9	52.0276	19,026.9	51.7399	19,026.9	54.4174	19,026.9	37.4944	19,026.9	54.8854	19,026.9	44.1588	19,026.9	48.0182	19,026.9	50.5901	19,026.9	48.5365	19,026.9	50.1943	19,026.9	49.2379
19,697.8	84.3511	19,697.8	83.8162	19,697.8	83.6383	19,697.8	81.3776	19,697.8	82.6077	19,697.8	79.7187	19,697.8	79.5746	19,697.8	76.9794	19,697.8	76.8356	19,697.8	72.3195	19,697.8	73.2742	19,697.8	68.7812	19,697.8	68.3799	19,697.8	63.9377	19,697.8	63.4736	19,697.8	61.2293	19,697.8	47.4095	19,697.8	55.6912	19,697.8	59.7111	19,697.8	52.1155	19,697.8	65.6764	19,697.8	48.7663	19,697.8	67.22	19,697.8	47.0106	19,697.8	64.6641	19,697.8	51.3007	19,697.8	52.0805	19,697.8	53.2347	19,697.8	37.8653	19,697.8	52.3943	19,697.8	37.702	19,697.8	50.868	19,697.8	51.0606	19,697.8	47.0535	19,697.8	51.9942	19,697.8	46.341
19,999.5	84.5584	19,999.5	83.8543	19,999.5	83.7465	19,999.5	81.3568	19,999.5	83.1263	19,999.5	80.1593	19,999.5	79.5058	19,999.5	76.871	19,999.5	76.8734	19,999.5	72.1556	19,999.5	72.0111	19,999.5	68.7605	19,999.5	69.0822	19,999.5	62.3644	19,999.5	62.8049	19,999.5	59.7052	19,999.5	45.4746	19,999.5	56.3029	19,999.5	57.1918	19,999.5	46.0472	19,999.5	66.1156	19,999.5	53.2976	19,999.5	67.729	19,999.5	46.8716	19,999.5	64.8654	19,999.5	46.6917	19,999.5	51.4117	19,999.5	53.7686	19,999.5	44.6257	19,999.5	58.9447	19,999.5	45.5883	19,999.5	47.0424	19,999.5	51.5833	19,999.5	57.2845	19,999.5	54.3794	19,999.5	57.1103
