"SPL Horizontal"
"On-Axis"		"10°"		"-10°"		"20°"		"-20°"		"30°"		"-30°"		"40°"		"-40°"		"50°"		"-50°"		"60°"		"-60°"		"70°"		"-70°"		"80°"		"-80°"		"90°"		"-90°"		"100°"		"-100°"		"110°"		"-110°"		"120°"		"-120°"		"130°"		"-130°"		"140°"		"-140°"		"150°"		"-150°"		"160°"		"-160°"		"170°"		"-170°"		"180°"
"Frequency / Hz"	"Sound Pressure Level / dB (re 20 µPa/V)  [2.83  V @ 1. m]"	"Frequency / Hz"	"Sound Pressure Level / dB (re 20 µPa/V)  [2.83  V @ 1. m]"	"Frequency / Hz"	"Sound Pressure Level / dB (re 20 µPa/V)  [2.83  V @ 1. m]"	"Frequency / Hz"	"Sound Pressure Level / dB (re 20 µPa/V)  [2.83  V @ 1. m]"	"Frequency / Hz"	"Sound Pressure Level / dB (re 20 µPa/V)  [2.83  V @ 1. m]"	"Frequency / Hz"	"Sound Pressure Level / dB (re 20 µPa/V)  [2.83  V @ 1. m]"	"Frequency / Hz"	"Sound Pressure Level / dB (re 20 µPa/V)  [2.83  V @ 1. m]"	"Frequency / Hz"	"Sound Pressure Level / dB (re 20 µPa/V)  [2.83  V @ 1. m]"	"Frequency / Hz"	"Sound Pressure Level / dB (re 20 µPa/V)  [2.83  V @ 1. m]"	"Frequency / Hz"	"Sound Pressure Level / dB (re 20 µPa/V)  [2.83  V @ 1. m]"	"Frequency / Hz"	"Sound Pressure Level / dB (re 20 µPa/V)  [2.83  V @ 1. m]"	"Frequency / Hz"	"Sound Pressure Level / dB (re 20 µPa/V)  [2.83  V @ 1. m]"	"Frequency / Hz"	"Sound Pressure Level / dB (re 20 µPa/V)  [2.83  V @ 1. m]"	"Frequency / Hz"	"Sound Pressure Level / dB (re 20 µPa/V)  [2.83  V @ 1. m]"	"Frequency / Hz"	"Sound Pressure Level / dB (re 20 µPa/V)  [2.83  V @ 1. m]"	"Frequency / Hz"	"Sound Pressure Level / dB (re 20 µPa/V)  [2.83  V @ 1. m]"	"Frequency / Hz"	"Sound Pressure Level / dB (re 20 µPa/V)  [2.83  V @ 1. m]"	"Frequency / Hz"	"Sound Pressure Level / dB (re 20 µPa/V)  [2.83  V @ 1. m]"	"Frequency / Hz"	"Sound Pressure Level / dB (re 20 µPa/V)  [2.83  V @ 1. m]"	"Frequency / Hz"	"Sound Pressure Level / dB (re 20 µPa/V)  [2.83  V @ 1. m]"	"Frequency / Hz"	"Sound Pressure Level / dB (re 20 µPa/V)  [2.83  V @ 1. m]"	"Frequency / Hz"	"Sound Pressure Level / dB (re 20 µPa/V)  [2.83  V @ 1. m]"	"Frequency / Hz"	"Sound Pressure Level / dB (re 20 µPa/V)  [2.83  V @ 1. m]"	"Frequency / Hz"	"Sound Pressure Level / dB (re 20 µPa/V)  [2.83  V @ 1. m]"	"Frequency / Hz"	"Sound Pressure Level / dB (re 20 µPa/V)  [2.83  V @ 1. m]"	"Frequency / Hz"	"Sound Pressure Level / dB (re 20 µPa/V)  [2.83  V @ 1. m]"	"Frequency / Hz"	"Sound Pressure Level / dB (re 20 µPa/V)  [2.83  V @ 1. m]"	"Frequency / Hz"	"Sound Pressure Level / dB (re 20 µPa/V)  [2.83  V @ 1. m]"	"Frequency / Hz"	"Sound Pressure Level / dB (re 20 µPa/V)  [2.83  V @ 1. m]"	"Frequency / Hz"	"Sound Pressure Level / dB (re 20 µPa/V)  [2.83  V @ 1. m]"	"Frequency / Hz"	"Sound Pressure Level / dB (re 20 µPa/V)  [2.83  V @ 1. m]"	"Frequency / Hz"	"Sound Pressure Level / dB (re 20 µPa/V)  [2.83  V @ 1. m]"	"Frequency / Hz"	"Sound Pressure Level / dB (re 20 µPa/V)  [2.83  V @ 1. m]"	"Frequency / Hz"	"Sound Pressure Level / dB (re 20 µPa/V)  [2.83  V @ 1. m]"	"Frequency / Hz"	"Sound Pressure Level / dB (re 20 µPa/V)  [2.83  V @ 1. m]"	"Frequency / Hz"	"Sound Pressure Level / dB (re 20 µPa/V)  [2.83  V @ 1. m]"
20.5078	49.3289	20.5078	49.2148	20.5078	49.4044	20.5078	49.0661	20.5078	49.4398	20.5078	48.8894	20.5078	49.4365	20.5078	48.6945	20.5078	49.3978	20.5078	48.493	20.5078	49.3293	20.5078	48.2984	20.5078	49.2389	20.5078	48.1246	20.5078	49.1359	20.5078	47.9843	20.5078	49.0307	20.5078	47.8871	20.5078	48.9327	20.5078	47.838	20.5078	48.8487	20.5078	47.8362	20.5078	48.781	20.5078	47.8754	20.5078	48.7277	20.5078	47.9451	20.5078	48.6829	20.5078	48.0336	20.5078	48.64	20.5078	48.13	20.5078	48.593	20.5078	48.2262	20.5078	48.5382	20.5078	48.3171	20.5078	48.4739	20.5078	48.4
21.9727	46.1159	21.9727	46.0395	21.9727	46.1481	21.9727	45.9226	21.9727	46.1342	21.9727	45.7706	21.9727	46.0739	21.9727	45.5914	21.9727	45.9683	21.9727	45.395	21.9727	45.8204	21.9727	45.1935	21.9727	45.636	21.9727	44.9998	21.9727	45.4237	21.9727	44.8269	21.9727	45.1959	21.9727	44.6853	21.9727	44.9674	21.9727	44.5813	21.9727	44.7544	21.9727	44.5152	21.9727	44.5715	21.9727	44.481	21.9727	44.4293	21.9727	44.4681	21.9727	44.3324	21.9727	44.4635	21.9727	44.2799	21.9727	44.4556	21.9727	44.2662	21.9727	44.4366	21.9727	44.2826	21.9727	44.4045	21.9727	44.3184	21.9727	44.3625
23.4375	45.42	23.4375	45.3449	23.4375	45.4639	23.4375	45.2423	23.4375	45.4749	23.4375	45.1175	23.4375	45.4529	23.4375	44.9772	23.4375	45.3992	23.4375	44.8295	23.4375	45.3169	23.4375	44.6835	23.4375	45.2109	23.4375	44.5485	23.4375	45.0878	23.4375	44.4329	23.4375	44.956	23.4375	44.3438	23.4375	44.8246	23.4375	44.2849	23.4375	44.7026	23.4375	44.2563	23.4375	44.5978	23.4375	44.2538	23.4375	44.5149	23.4375	44.2704	23.4375	44.4553	23.4375	44.2972	23.4375	44.4171	23.4375	44.326	23.4375	44.3961	23.4375	44.3505	23.4375	44.3865	23.4375	44.3677	23.4375	44.3821	23.4375	44.3773
24.9023	44.3223	24.9023	44.2374	24.9023	44.3833	24.9023	44.1323	24.9023	44.4181	24.9023	44.0118	24.9023	44.4259	24.9023	43.8822	24.9023	44.407	24.9023	43.7506	24.9023	44.3634	24.9023	43.6248	24.9023	44.2985	24.9023	43.5128	24.9023	44.2169	24.9023	43.4219	24.9023	44.125	24.9023	43.358	24.9023	44.0293	24.9023	43.3239	24.9023	43.9366	24.9023	43.3191	24.9023	43.8524	24.9023	43.3392	24.9023	43.7805	24.9023	43.3768	24.9023	43.7225	24.9023	43.4234	24.9023	43.6778	24.9023	43.4708	24.9023	43.6445	24.9023	43.5131	24.9023	43.6191	24.9023	43.5477	24.9023	43.5974	24.9023	43.5749
26.3672	44.2788	26.3672	44.2752	26.3672	44.2583	26.3672	44.2507	26.3672	44.2121	26.3672	44.2098	26.3672	44.1415	26.3672	44.1573	26.3672	44.05	26.3672	44.098	26.3672	43.9437	26.3672	44.0363	26.3672	43.83	26.3672	43.9768	26.3672	43.7177	26.3672	43.9236	26.3672	43.6157	26.3672	43.881	26.3672	43.532	26.3672	43.8519	26.3672	43.4731	26.3672	43.8373	26.3672	43.443	26.3672	43.8359	26.3672	43.4424	26.3672	43.8432	26.3672	43.4691	26.3672	43.8529	26.3672	43.5182	26.3672	43.8573	26.3672	43.5825	26.3672	43.8494	26.3672	43.6536	26.3672	43.8246	26.3672	43.7226	26.3672	43.7816
27.832	43.4038	27.832	43.3899	27.832	43.4136	27.832	43.3753	27.832	43.4172	27.832	43.3636	27.832	43.4146	27.832	43.3586	27.832	43.4073	27.832	43.3628	27.832	43.3988	27.832	43.378	27.832	43.3933	27.832	43.4056	27.832	43.3956	27.832	43.4463	27.832	43.4101	27.832	43.5003	27.832	43.4399	27.832	43.5672	27.832	43.4866	27.832	43.6449	27.832	43.5495	27.832	43.7299	27.832	43.6258	27.832	43.8166	27.832	43.7107	27.832	43.898	27.832	43.7981	27.832	43.9667	27.832	43.8812	27.832	44.0156	27.832	43.9528	27.832	44.0396	27.832	44.0063	27.832	44.0364
29.2969	41.587	29.2969	41.6186	29.2969	41.5669	29.2969	41.6629	29.2969	41.5579	29.2969	41.7211	29.2969	41.5608	29.2969	41.7941	29.2969	41.5774	29.2969	41.8815	29.2969	41.6105	29.2969	41.9828	29.2969	41.6632	29.2969	42.0968	29.2969	41.7381	29.2969	42.2219	29.2969	41.8367	29.2969	42.3566	29.2969	41.959	29.2969	42.4985	29.2969	42.1029	29.2969	42.6441	29.2969	42.264	29.2969	42.7883	29.2969	42.4359	29.2969	42.9244	29.2969	42.6104	29.2969	43.0443	29.2969	42.7787	29.2969	43.1397	29.2969	42.9312	29.2969	43.203	29.2969	43.0591	29.2969	43.2281	29.2969	43.1547	29.2969	43.212
30.7617	41.1009	30.7617	41.1095	30.7617	41.1197	30.7617	41.1494	30.7617	41.1623	30.7617	41.224	30.7617	41.2265	30.7617	41.3344	30.7617	41.3118	30.7617	41.4796	30.7617	41.4192	30.7617	41.656	30.7617	41.5499	30.7617	41.8581	30.7617	41.7049	30.7617	42.0795	30.7617	41.8842	30.7617	42.3133	30.7617	42.0856	30.7617	42.552	30.7617	42.3046	30.7617	42.7879	30.7617	42.5347	30.7617	43.0127	30.7617	42.7672	30.7617	43.2178	30.7617	42.9925	30.7617	43.3948	30.7617	43.2003	30.7617	43.5355	30.7617	43.3809	30.7617	43.633	30.7617	43.5256	30.7617	43.6821	30.7617	43.6271	30.7617	43.6801
32.2266	41.8097	32.2266	41.8124	32.2266	41.8466	32.2266	41.8573	32.2266	41.92	32.2266	41.946	32.2266	42.0274	32.2266	42.0783	32.2266	42.1668	32.2266	42.2514	32.2266	42.3367	32.2266	42.4608	32.2266	42.5353	32.2266	42.7001	32.2266	42.7599	32.2266	42.962	32.2266	43.0067	32.2266	43.2385	32.2266	43.2701	32.2266	43.5212	32.2266	43.5428	32.2266	43.8012	32.2266	43.8158	32.2266	44.0695	32.2266	44.0792	32.2266	44.3168	32.2266	44.3231	32.2266	44.534	32.2266	44.5376	32.2266	44.7126	32.2266	44.7144	32.2266	44.8457	32.2266	44.8462	32.2266	44.9277	32.2266	44.9277	32.2266	44.9553
33.6914	41.8576	33.6914	41.883	33.6914	41.8997	33.6914	41.9774	33.6914	42.0058	33.6914	42.1391	33.6914	42.1715	33.6914	42.3633	33.6914	42.391	33.6914	42.6417	33.6914	42.6583	33.6914	42.9636	33.6914	42.9662	33.6914	43.3171	33.6914	43.3067	33.6914	43.6897	33.6914	43.6704	33.6914	44.0692	33.6914	44.047	33.6914	44.4446	33.6914	44.425	33.6914	44.8052	33.6914	44.7924	33.6914	45.1417	33.6914	45.1373	33.6914	45.4451	33.6914	45.4483	33.6914	45.7073	33.6914	45.7157	33.6914	45.9209	33.6914	45.9313	33.6914	46.0796	33.6914	46.0886	33.6914	46.1783	33.6914	46.1834	33.6914	46.2134
35.1562	39.6863	35.1562	39.788	35.1562	39.7037	35.1562	40.0026	35.1562	39.8386	35.1562	40.3178	35.1562	40.0829	35.1562	40.716	35.1562	40.4227	35.1562	41.1772	35.1562	40.8408	35.1562	41.6805	35.1562	41.3184	35.1562	42.2062	35.1562	41.8367	35.1562	42.7365	35.1562	42.3774	35.1562	43.2562	35.1562	42.9234	35.1562	43.7528	35.1562	43.4585	35.1562	44.2159	35.1562	43.9675	35.1562	44.6366	35.1562	44.437	35.1562	45.0074	35.1562	44.8547	35.1562	45.3213	35.1562	45.2106	35.1562	45.5718	35.1562	45.4968	35.1562	45.7532	35.1562	45.7075	35.1562	45.8605	35.1562	45.839	35.1562	45.8899
36.6211	36.059	36.6211	36.2338	36.6211	36.1433	36.6211	36.6488	36.6211	36.4776	36.6211	37.2625	36.6211	37.0282	36.6211	38.0213	36.6211	37.7458	36.6211	38.8707	36.6211	38.5765	36.6211	39.7622	36.6211	39.4703	36.6211	40.6573	36.6211	40.3852	36.6211	41.527	36.6211	41.2882	36.6211	42.3507	36.6211	42.154	36.6211	43.1141	36.6211	42.9635	36.6211	43.8073	36.6211	43.7021	36.6211	44.4232	36.6211	44.3587	36.6211	44.9564	36.6211	44.9244	36.6211	45.4021	36.6211	45.3931	36.6211	45.756	36.6211	45.76	36.6211	46.014	36.6211	46.0221	36.6211	46.1723	36.6211	46.1781	36.6211	46.2278
38.0859	35.7411	38.0859	36.032	38.0859	35.8237	38.0859	36.6531	38.0859	36.2685	38.0859	37.5238	38.0859	37.015	38.0859	38.5523	38.0859	37.9759	38.0859	39.6563	38.0859	39.0615	38.0859	40.7721	38.0859	40.1968	38.0859	41.8551	38.0859	41.3258	38.0859	42.8764	38.0859	42.41	38.0859	43.8185	38.0859	43.4246	38.0859	44.6716	38.0859	44.3534	38.0859	45.4307	38.0859	45.1861	38.0859	46.0934	38.0859	45.9159	38.0859	46.6585	38.0859	46.5382	38.0859	47.125	38.0859	47.0497	38.0859	47.4913	38.0859	47.4485	38.0859	47.7552	38.0859	47.7337	38.0859	47.914	38.0859	47.9055	38.0859	47.965
39.5508	38.4314	39.5508	38.6856	39.5508	38.4847	39.5508	39.2101	39.5508	38.844	39.5508	39.9427	39.5508	39.4682	39.5508	40.8139	39.5508	40.2909	39.5508	41.7601	39.5508	41.2388	39.5508	42.7302	39.5508	42.2465	39.5508	43.6863	39.5508	43.2626	39.5508	44.602	39.5508	44.2498	39.5508	45.4597	39.5508	45.1824	39.5508	46.2479	39.5508	46.0431	39.5508	46.9593	39.5508	46.8199	39.5508	47.589	39.5508	47.5048	39.5508	48.1328	39.5508	48.0915	39.5508	48.5872	39.5508	48.5756	39.5508	48.9483	39.5508	48.9534	39.5508	49.2121	39.5508	49.2227	39.5508	49.3747	39.5508	49.3822	39.5508	49.4323
41.0156	40.1977	41.0156	40.3177	41.0156	40.3405	41.0156	40.6755	41.0156	40.7449	41.0156	41.2317	41.0156	41.3775	41.0156	41.9411	41.0156	42.1793	41.0156	42.7578	41.0156	43.0827	41.0156	43.6381	41.0156	44.0266	41.0156	44.5428	41.0156	44.9649	41.0156	45.439	41.0156	45.8668	41.0156	46.3008	41.0156	46.7136	41.0156	47.1089	41.0156	47.4943	41.0156	47.8498	41.0156	48.2013	41.0156	48.5139	41.0156	48.8283	41.0156	49.0942	41.0156	49.3689	41.0156	49.5853	41.0156	49.8163	41.0156	49.9822	41.0156	50.1638	41.0156	50.2801	41.0156	50.4059	41.0156	50.4745	41.0156	50.5391	41.0156	50.5617
42.4805	41.8934	42.4805	41.8841	42.4805	42.0173	42.4805	42.0034	42.4805	42.2687	42.4805	42.2874	42.4805	42.6767	42.4805	42.7719	42.4805	43.2637	42.4805	43.4655	42.4805	44.0251	42.4805	44.3352	42.4805	44.9244	42.4805	45.3182	42.4805	45.9054	42.4805	46.3455	42.4805	46.9095	42.4805	47.3589	42.4805	47.8877	42.4805	48.3173	42.4805	48.8039	42.4805	49.1943	42.4805	49.6341	42.4805	49.9744	42.4805	50.363	42.4805	50.6484	42.4805	50.9815	42.4805	51.211	42.4805	51.4842	42.4805	51.6593	42.4805	51.8684	42.4805	51.9913	42.4805	52.1327	42.4805	52.2054	42.4805	52.2768	42.4805	52.3009
43.9453	42.852	43.9453	42.9492	43.9453	42.932	43.9453	43.2312	43.9453	43.2021	43.9453	43.7158	43.9453	43.6846	43.9453	44.4072	43.9453	44.3857	43.9453	45.2787	43.9453	45.2772	43.9453	46.2751	43.9453	46.2997	43.9453	47.3307	43.9453	47.3832	43.9453	48.3864	43.9453	48.4653	43.9453	49.3981	43.9453	49.4995	43.9453	50.3367	43.9453	50.4551	43.9453	51.1841	43.9453	51.313	43.9453	51.9303	43.9453	52.0622	43.9453	52.5696	43.9453	52.6964	43.9453	53.099	43.9453	53.2128	43.9453	53.5168	43.9453	53.61	43.9453	53.8216	43.9453	53.8878	43.9453	54.0124	43.9453	54.0467	43.9453	54.0879
45.4102	49.1451	45.4102	49.2327	45.4102	49.1357	45.4102	49.3973	45.4102	49.2119	45.4102	49.6426	45.4102	49.3856	45.4102	49.9733	45.4102	49.668	45.4102	50.3902	45.4102	50.0635	45.4102	50.8859	45.4102	50.5644	45.4102	51.4445	45.4102	51.1508	45.4102	52.0432	45.4102	51.7937	45.4102	52.6569	45.4102	52.4607	45.4102	53.2612	45.4102	53.1207	45.4102	53.8352	45.4102	53.7473	45.4102	54.3622	45.4102	54.3194	45.4102	54.8296	45.4102	54.8212	45.4102	55.2273	45.4102	55.2411	45.4102	55.5478	45.4102	55.5715	45.4102	55.7846	45.4102	55.8073	45.4102	55.9325	45.4102	55.946	45.4102	55.9873
46.875	53.1823	46.875	53.217	46.875	53.1661	46.875	53.2715	46.875	53.1733	46.875	53.3527	46.875	53.2141	46.875	53.4715	46.875	53.3026	46.875	53.6399	46.875	53.4533	46.875	53.8677	46.875	53.677	46.875	54.1589	46.875	53.9773	46.875	54.5093	46.875	54.3484	46.875	54.907	46.875	54.7751	46.875	55.3341	46.875	55.2355	46.875	55.77	46.875	55.7049	46.875	56.1937	46.875	56.1588	46.875	56.5863	46.875	56.5754	46.875	56.9315	46.875	56.9369	46.875	57.216	46.875	57.2293	46.875	57.429	46.875	57.4426	46.875	57.5624	46.875	57.5707	46.875	57.6106
48.3398	54.8204	48.3398	54.8132	48.3398	54.8055	48.3398	54.788	48.3398	54.7727	48.3398	54.7565	48.3398	54.7339	48.3398	54.7377	48.3398	54.7085	48.3398	54.756	48.3398	54.7213	48.3398	54.8371	48.3398	54.799	48.3398	55.0022	48.3398	54.9635	48.3398	55.261	48.3398	55.2254	48.3398	55.608	48.3398	55.5792	48.3398	56.0233	48.3398	56.0043	48.3398	56.4775	48.3398	56.4697	48.3398	56.9386	48.3398	56.9414	48.3398	57.3767	48.3398	57.3879	48.3398	57.767	48.3398	57.7831	48.3398	58.0902	48.3398	58.1071	48.3398	58.3321	48.3398	58.3459	48.3398	58.4829	48.3398	58.4906	48.3398	58.5366
51.2695	57.3602	51.2695	57.3518	51.2695	57.3737	51.2695	57.353	51.2695	57.3964	51.2695	57.3761	51.2695	57.4402	51.2695	57.4397	51.2695	57.5224	51.2695	57.5645	51.2695	57.6622	51.2695	57.7677	51.2695	57.8757	51.2695	58.0573	51.2695	58.17	51.2695	58.428	51.2695	58.5405	51.2695	58.8624	51.2695	58.9711	51.2695	59.3348	51.2695	59.4378	51.2695	59.8171	51.2695	59.9136	51.2695	60.283	51.2695	60.3724	51.2695	60.7108	51.2695	60.7919	51.2695	61.0833	51.2695	61.1541	51.2695	61.3879	51.2695	61.4453	51.2695	61.6153	51.2695	61.6559	51.2695	61.7589	51.2695	61.78	51.2695	61.8145
52.7344	61.1015	52.7344	61.0817	52.7344	61.1303	52.7344	61.0736	52.7344	61.17	52.7344	61.084	52.7344	61.226	52.7344	61.1232	52.7344	61.3065	52.7344	61.2026	52.7344	61.4199	52.7344	61.3321	52.7344	61.5733	52.7344	61.5171	52.7344	61.7699	52.7344	61.7568	52.7344	62.0084	52.7344	62.0435	52.7344	62.2824	52.7344	62.3638	52.7344	62.5815	52.7344	62.7007	52.7344	62.8921	52.7344	63.0362	52.7344	63.1992	52.7344	63.3531	52.7344	63.4874	52.7344	63.6362	52.7344	63.7425	52.7344	63.8727	52.7344	63.9518	52.7344	64.0526	52.7344	64.1051	52.7344	64.1687	52.7344	64.1949	52.7344	64.2166
54.1992	64.4097	54.1992	64.4233	54.1992	64.3796	54.1992	64.4241	54.1992	64.3333	54.1992	64.4184	54.1992	64.274	54.1992	64.4151	54.1992	64.2087	54.1992	64.4246	54.1992	64.1475	54.1992	64.4573	54.1992	64.103	54.1992	64.5222	54.1992	64.0891	54.1992	64.6251	54.1992	64.1189	54.1992	64.767	54.1992	64.2024	54.1992	64.9431	54.1992	64.3434	54.1992	65.1436	54.1992	64.5379	54.1992	65.3543	54.1992	64.7736	54.1992	65.5589	54.1992	65.0324	54.1992	65.7407	54.1992	65.2929	54.1992	65.8848	54.1992	65.5344	54.1992	65.9788	54.1992	65.7386	54.1992	66.0138	54.1992	65.8918	54.1992	65.985
55.6641	65.302	55.6641	65.289	55.6641	65.2978	55.6641	65.2619	55.6641	65.2777	55.6641	65.2282	55.6641	65.2471	55.6641	65.1992	55.6641	65.2156	55.6641	65.1892	55.6641	65.1964	55.6641	65.214	55.6641	65.2049	55.6641	65.2878	55.6641	65.2567	55.6641	65.42	55.6641	65.3642	55.6641	65.6124	55.6641	65.5332	55.6641	65.8577	55.6641	65.7606	55.6641	66.1405	55.6641	66.0338	55.6641	66.4404	55.6641	66.3331	55.6641	66.7352	55.6641	66.6355	55.6641	67.0039	55.6641	66.9182	55.6641	67.2287	55.6641	67.1614	55.6641	67.3957	55.6641	67.3495	55.6641	67.4949	55.6641	67.4714	55.6641	67.5207
58.5938	67.6	58.5938	67.5822	58.5938	67.6154	58.5938	67.5655	58.5938	67.6282	58.5938	67.5566	58.5938	67.642	58.5938	67.5649	58.5938	67.6634	58.5938	67.601	58.5938	67.7019	58.5938	67.6755	58.5938	67.7681	58.5938	67.7968	58.5938	67.8724	58.5938	67.9684	58.5938	68.022	58.5938	68.1881	58.5938	68.2187	58.5938	68.4473	58.5938	68.4576	58.5938	68.7324	58.5938	68.7275	58.5938	69.0264	58.5938	69.0121	58.5938	69.3112	58.5938	69.293	58.5938	69.5697	58.5938	69.5516	58.5938	69.7867	58.5938	69.7715	58.5938	69.95	58.5938	69.9393	58.5938	70.0504	58.5938	70.045	58.5938	70.0827
60.0586	69.0402	60.0586	69.0597	60.0586	69.0183	60.0586	69.0784	60.0586	68.9958	60.0586	69.1004	60.0586	68.9776	60.0586	69.1322	60.0586	68.9714	60.0586	69.1815	60.0586	68.9869	60.0586	69.2565	60.0586	69.0349	60.0586	69.364	60.0586	69.1246	60.0586	69.5079	60.0586	69.2622	60.0586	69.688	60.0586	69.448	60.0586	69.8994	60.0586	69.6762	60.0586	70.1329	60.0586	69.935	60.0586	70.3757	60.0586	70.2084	60.0586	70.6132	60.0586	70.4786	60.0586	70.8306	60.0586	70.728	60.0586	71.0138	60.0586	70.9408	60.0586	71.1511	60.0586	71.1047	60.0586	71.2331	60.0586	71.2107	60.0586	71.2538
62.9883	71.7784	62.9883	71.7768	62.9883	71.78	62.9883	71.7758	62.9883	71.7834	62.9883	71.7784	62.9883	71.7925	62.9883	71.7894	62.9883	71.8128	62.9883	71.8153	62.9883	71.8506	62.9883	71.8629	62.9883	71.9123	62.9883	71.9385	62.9883	72.0029	62.9883	72.0465	62.9883	72.125	62.9883	72.1879	62.9883	72.2779	62.9883	72.3597	62.9883	72.4569	62.9883	72.5548	62.9883	72.6541	62.9883	72.7626	62.9883	72.8587	62.9883	72.9704	62.9883	73.0582	62.9883	73.1648	62.9883	73.2401	62.9883	73.3333	62.9883	73.3927	62.9883	73.465	62.9883	73.506	62.9883	73.5518	62.9883	73.5726	62.9883	73.5883
64.4531	73.0972	64.4531	73.091	64.4531	73.105	64.4531	73.0872	64.4531	73.1152	64.4531	73.0888	64.4531	73.1307	64.4531	73.1003	64.4531	73.1559	64.4531	73.1274	64.4531	73.1959	64.4531	73.1762	64.4531	73.256	64.4531	73.2519	64.4531	73.3408	64.4531	73.3579	64.4531	73.4528	64.4531	73.4948	64.4531	73.5918	64.4531	73.6592	64.4531	73.7545	64.4531	73.8444	64.4531	73.9343	64.4531	74.0405	64.4531	74.1218	64.4531	74.2357	64.4531	74.306	64.4531	74.4175	64.4531	74.4751	64.4531	74.5744	64.4531	74.6182	64.4531	74.6963	64.4531	74.7257	64.4531	74.7755	64.4531	74.7903	64.4531	74.8074
67.3828	75.5411	67.3828	75.5373	67.3828	75.5477	67.3828	75.537	67.3828	75.5576	67.3828	75.5427	67.3828	75.5728	67.3828	75.5577	67.3828	75.5965	67.3828	75.5864	67.3828	75.6324	67.3828	75.6332	67.3828	75.6849	67.3828	75.7021	67.3828	75.7572	67.3828	75.7955	67.3828	75.8518	67.3828	75.9136	67.3828	75.9687	67.3828	76.054	67.3828	76.1056	67.3828	76.2111	67.3828	76.2574	67.3828	76.377	67.3828	76.4168	67.3828	76.5421	67.3828	76.5746	67.3828	76.6958	67.3828	76.7211	67.3828	76.8281	67.3828	76.8464	67.3828	76.9302	67.3828	76.942	67.3828	76.9954	67.3828	77.0012	67.3828	77.0195
68.8477	76.6917	68.8477	76.6883	68.8477	76.6979	68.8477	76.6888	68.8477	76.7076	68.8477	76.6951	68.8477	76.7224	68.8477	76.7105	68.8477	76.745	68.8477	76.7386	68.8477	76.7789	68.8477	76.7836	68.8477	76.8275	68.8477	76.8487	68.8477	76.8942	68.8477	76.9362	68.8477	76.9809	68.8477	77.0463	68.8477	77.0881	68.8477	77.1766	68.8477	77.2136	68.8477	77.3222	68.8477	77.3532	68.8477	77.4758	68.8477	77.5003	68.8477	77.6286	68.8477	77.6467	68.8477	77.7707	68.8477	77.7832	68.8477	77.8928	68.8477	77.9007	68.8477	77.9866	68.8477	77.9911	68.8477	78.0458	68.8477	78.0478	68.8477	78.0666
71.7773	78.8285	71.7773	78.8267	71.7773	78.8342	71.7773	78.8294	71.7773	78.844	71.7773	78.8383	71.7773	78.8593	71.7773	78.8559	71.7773	78.882	71.7773	78.8852	71.7773	78.9148	71.7773	78.9292	71.7773	78.9606	71.7773	78.9904	71.7773	79.0219	71.7773	79.0704	71.7773	79.1002	71.7773	79.169	71.7773	79.1958	71.7773	79.2843	71.7773	79.307	71.7773	79.4121	71.7773	79.4301	71.7773	79.5463	71.7773	79.5597	71.7773	79.6795	71.7773	79.6887	71.7773	79.8034	71.7773	79.8091	71.7773	79.9098	71.7773	79.913	71.7773	79.9916	71.7773	79.9931	71.7773	80.0431	71.7773	80.0437	71.7773	80.0608
74.707	80.5716	74.707	80.5737	74.707	80.5752	74.707	80.5818	74.707	80.5848	74.707	80.597	74.707	80.6012	74.707	80.621	74.707	80.626	74.707	80.6556	74.707	80.6609	74.707	80.7027	74.707	80.708	74.707	80.764	74.707	80.7687	74.707	80.8402	74.707	80.844	74.707	80.931	74.707	80.9335	74.707	81.0345	74.707	81.0357	74.707	81.1473	74.707	81.1472	74.707	81.2644	74.707	81.2632	74.707	81.3798	74.707	81.3777	74.707	81.4865	74.707	81.4841	74.707	81.5779	74.707	81.5756	74.707	81.648	74.707	81.6461	74.707	81.6918	74.707	81.6908	74.707	81.7064
77.6367	81.9457	77.6367	81.9493	77.6367	81.9476	77.6367	81.9586	77.6367	81.9553	77.6367	81.9744	77.6367	81.9695	77.6367	81.9979	77.6367	81.9913	77.6367	82.0304	77.6367	82.0221	77.6367	82.0734	77.6367	82.0633	77.6367	82.128	77.6367	82.1162	77.6367	82.1948	77.6367	82.1813	77.6367	82.2734	77.6367	82.2584	77.6367	82.3624	77.6367	82.3462	77.6367	82.4589	77.6367	82.4419	77.6367	82.5588	77.6367	82.5417	77.6367	82.6569	77.6367	82.6406	77.6367	82.7475	77.6367	82.7329	77.6367	82.8248	77.6367	82.8128	77.6367	82.8835	77.6367	82.875	77.6367	82.9196	77.6367	82.9152	77.6367	82.9304
79.1016	82.5246	79.1016	82.5289	79.1016	82.5264	79.1016	82.5392	79.1016	82.5343	79.1016	82.5564	79.1016	82.549	79.1016	82.5812	79.1016	82.5714	79.1016	82.6149	79.1016	82.6026	79.1016	82.6586	79.1016	82.6439	79.1016	82.7133	79.1016	82.6961	79.1016	82.7792	79.1016	82.7597	79.1016	82.8559	79.1016	82.8343	79.1016	82.9419	79.1016	82.9187	79.1016	83.0344	79.1016	83.0103	79.1016	83.1296	79.1016	83.1055	79.1016	83.2225	79.1016	83.1997	79.1016	83.308	79.1016	83.2876	79.1016	83.3805	79.1016	83.3639	79.1016	83.4353	79.1016	83.4235	79.1016	83.4685	79.1016	83.4624	79.1016	83.4778
82.0312	83.4441	82.0312	83.451	82.0312	83.4441	82.0312	83.4648	82.0312	83.4511	82.0312	83.4858	82.0312	83.4654	82.0312	83.5146	82.0312	83.4879	82.0312	83.5519	82.0312	83.5191	82.0312	83.5982	82.0312	83.5599	82.0312	83.6538	82.0312	83.6106	82.0312	83.7186	82.0312	83.6715	82.0312	83.7918	82.0312	83.7421	82.0312	83.8719	82.0312	83.8209	82.0312	83.9563	82.0312	83.9057	82.0312	84.0417	82.0312	83.9934	82.0312	84.1239	82.0312	84.08	82.0312	84.1986	82.0312	84.1608	82.0312	84.2612	82.0312	84.2312	82.0312	84.3076	82.0312	84.2868	82.0312	84.3346	82.0312	84.324	82.0312	84.3402
84.9609	84.0876	84.9609	84.0967	84.9609	84.086	84.9609	84.1133	84.9609	84.092	84.9609	84.1374	84.9609	84.1061	84.9609	84.1691	84.9609	84.1285	84.9609	84.2086	84.9609	84.1597	84.9609	84.2559	84.9609	84.2	84.9609	84.311	84.9609	84.2494	84.9609	84.3733	84.9609	84.3078	84.9609	84.442	84.9609	84.3742	84.9609	84.5154	84.9609	84.4474	84.9609	84.5914	84.9609	84.5253	84.9609	84.667	84.9609	84.605	84.9609	84.739	84.9609	84.6832	84.9609	84.8035	84.9609	84.7561	84.9609	84.8569	84.9609	84.8195	84.9609	84.8958	84.9609	84.87	84.9609	84.9175	84.9609	84.9044	84.9609	84.9205
87.8906	84.5934	87.8906	84.6018	87.8906	84.5932	87.8906	84.6181	87.8906	84.6013	87.8906	84.6424	87.8906	84.6176	87.8906	84.6743	87.8906	84.6422	87.8906	84.7136	87.8906	84.675	87.8906	84.7598	87.8906	84.7157	87.8906	84.8125	87.8906	84.7639	87.8906	84.8708	87.8906	84.8189	87.8906	84.9336	87.8906	84.8798	87.8906	84.9993	87.8906	84.9451	87.8906	85.066	87.8906	85.0131	87.8906	85.1314	87.8906	85.0816	87.8906	85.1928	87.8906	85.1479	87.8906	85.2474	87.8906	85.2091	87.8906	85.2923	87.8906	85.2621	87.8906	85.3249	87.8906	85.304	87.8906	85.3431	87.8906	85.3324	87.8906	85.3457
90.8203	84.8647	90.8203	84.8743	90.8203	84.8635	90.8203	84.8921	90.8203	84.8706	90.8203	84.9177	90.8203	84.886	90.8203	84.9508	90.8203	84.9093	90.8203	84.9906	90.8203	84.9402	90.8203	85.0366	90.8203	84.9781	90.8203	85.0877	90.8203	85.0223	90.8203	85.1428	90.8203	85.072	90.8203	85.2006	90.8203	85.1263	90.8203	85.2597	90.8203	85.184	90.8203	85.3183	90.8203	85.2436	90.8203	85.3744	90.8203	85.3033	90.8203	85.4258	90.8203	85.3612	90.8203	85.4704	90.8203	85.4149	90.8203	85.506	90.8203	85.462	90.8203	85.5305	90.8203	85.5	90.8203	85.5426	90.8203	85.527	90.8203	85.5414
95.2148	85.1203	95.2148	85.1296	95.2148	85.1199	95.2148	85.1475	95.2148	85.1282	95.2148	85.1737	95.2148	85.1448	95.2148	85.2073	95.2148	85.169	95.2148	85.2473	95.2148	85.2002	95.2148	85.2926	95.2148	85.2372	95.2148	85.3419	95.2148	85.2791	95.2148	85.3936	95.2148	85.3247	95.2148	85.4462	95.2148	85.3729	95.2148	85.4982	95.2148	85.4226	95.2148	85.5481	95.2148	85.4726	95.2148	85.5942	95.2148	85.5217	95.2148	85.6351	95.2148	85.5685	95.2148	85.6693	95.2148	85.6115	95.2148	85.6953	95.2148	85.6493	95.2148	85.7122	95.2148	85.6801	95.2148	85.7192	95.2148	85.7027	95.2148	85.716
98.1445	85.177	98.1445	85.1857	98.1445	85.1773	98.1445	85.2033	98.1445	85.1862	98.1445	85.2293	98.1445	85.2033	98.1445	85.2627	98.1445	85.2276	98.1445	85.3025	98.1445	85.258	98.1445	85.3471	98.1445	85.2934	98.1445	85.3948	98.1445	85.3326	98.1445	85.4441	98.1445	85.3743	98.1445	85.4932	98.1445	85.4175	98.1445	85.5406	98.1445	85.4611	98.1445	85.5847	98.1445	85.5043	98.1445	85.6244	98.1445	85.5461	98.1445	85.6583	98.1445	85.5857	98.1445	85.6855	98.1445	85.6221	98.1445	85.7051	98.1445	85.6542	98.1445	85.7167	98.1445	85.681	98.1445	85.7198	98.1445	85.7014	98.1445	85.7146
101.074	85.2404	101.074	85.2495	101.074	85.2402	101.074	85.2673	101.074	85.2484	101.074	85.2933	101.074	85.2645	101.074	85.3265	101.074	85.2872	101.074	85.3655	101.074	85.3156	101.074	85.4088	101.074	85.3482	101.074	85.4544	101.074	85.3838	101.074	85.5005	101.074	85.4211	101.074	85.5455	101.074	85.4592	101.074	85.5877	101.074	85.497	101.074	85.6258	101.074	85.5339	101.074	85.6586	101.074	85.5692	101.074	85.6854	101.074	85.6024	101.074	85.7055	101.074	85.6329	101.074	85.7186	101.074	85.6602	101.074	85.7246	101.074	85.6837	101.074	85.7236	101.074	85.7026	101.074	85.7161
105.469	85.0955	105.469	85.1031	105.469	85.0973	105.469	85.1198	105.469	85.1082	105.469	85.1447	105.469	85.1275	105.469	85.1767	105.469	85.1539	105.469	85.2141	105.469	85.1858	105.469	85.255	105.469	85.2216	105.469	85.2973	105.469	85.2593	105.469	85.3391	105.469	85.2972	105.469	85.3786	105.469	85.3336	105.469	85.4144	105.469	85.3672	105.469	85.4453	105.469	85.3973	105.469	85.4706	105.469	85.4235	105.469	85.4901	105.469	85.4457	105.469	85.5038	105.469	85.4643	105.469	85.5121	105.469	85.4798	105.469	85.5155	105.469	85.4925	105.469	85.5147	105.469	85.5027	105.469	85.5102
108.398	85.0995	108.398	85.1059	108.398	85.102	108.398	85.1209	108.398	85.1129	108.398	85.144	108.398	85.1312	108.398	85.1739	108.398	85.1557	108.398	85.209	108.398	85.1845	108.398	85.2474	108.398	85.2158	108.398	85.2871	108.398	85.2478	108.398	85.3259	108.398	85.2786	108.398	85.3619	108.398	85.3069	108.398	85.3935	108.398	85.3318	108.398	85.4196	108.398	85.353	108.398	85.4393	108.398	85.3706	108.398	85.4526	108.398	85.3853	108.398	85.4596	108.398	85.398	108.398	85.4609	108.398	85.4095	108.398	85.4576	108.398	85.4205	108.398	85.4508	108.398	85.4314	108.398	85.4417
112.793	85.1146	112.793	85.1204	112.793	85.117	112.793	85.1342	112.793	85.1271	112.793	85.1551	112.793	85.1438	112.793	85.1819	112.793	85.1656	112.793	85.2126	112.793	85.1907	112.793	85.2452	112.793	85.217	112.793	85.2774	112.793	85.2427	112.793	85.3073	112.793	85.266	112.793	85.333	112.793	85.2857	112.793	85.3533	112.793	85.301	112.793	85.3674	112.793	85.312	112.793	85.3753	112.793	85.3191	112.793	85.3774	112.793	85.3232	112.793	85.3746	112.793	85.3257	112.793	85.3683	112.793	85.3279	112.793	85.3599	112.793	85.331	112.793	85.3509	112.793	85.3359	112.793	85.3426
117.188	85.0536	117.188	85.0594	117.188	85.0556	117.188	85.0731	117.188	85.0649	117.188	85.0936	117.188	85.0803	117.188	85.1195	117.188	85.1002	117.188	85.1489	117.188	85.1226	117.188	85.1794	117.188	85.1454	117.188	85.2088	117.188	85.1667	117.188	85.2349	117.188	85.1848	117.188	85.2557	117.188	85.1987	117.188	85.2701	117.188	85.2077	117.188	85.2775	117.188	85.212	117.188	85.278	117.188	85.2124	117.188	85.2726	117.188	85.21	117.188	85.2625	117.188	85.2066	117.188	85.2496	117.188	85.2038	117.188	85.2359	117.188	85.2034	117.188	85.2231	117.188	85.2062	117.188	85.2129
120.117	85.0109	120.117	85.0157	120.117	85.0137	120.117	85.0279	120.117	85.0236	120.117	85.0467	120.117	85.0394	120.117	85.0707	120.117	85.0595	120.117	85.0977	120.117	85.0818	120.117	85.1256	120.117	85.1042	120.117	85.152	120.117	85.1248	120.117	85.1749	120.117	85.1418	120.117	85.1924	120.117	85.1539	120.117	85.2035	120.117	85.1606	120.117	85.2077	120.117	85.162	120.117	85.2053	120.117	85.1588	120.117	85.1975	120.117	85.1526	120.117	85.1857	120.117	85.1451	120.117	85.1719	120.117	85.1383	120.117	85.158	120.117	85.134	120.117	85.1461	120.117	85.1336	120.117	85.1377
124.512	84.9213	124.512	84.9266	124.512	84.9238	124.512	84.9394	124.512	84.9336	124.512	84.9586	124.512	84.9498	124.512	84.9826	124.512	84.9705	124.512	85.0093	124.512	84.9936	124.512	85.0362	124.512	85.0169	124.512	85.0609	124.512	85.0382	124.512	85.0815	124.512	85.0556	124.512	85.0962	124.512	85.0676	124.512	85.104	124.512	85.0737	124.512	85.1047	124.512	85.0738	124.512	85.0989	124.512	85.0686	124.512	85.0879	124.512	85.0595	124.512	85.0735	124.512	85.0486	124.512	85.0582	124.512	85.038	124.512	85.044	124.512	85.0297	124.512	85.033	124.512	85.0256	124.512	85.0266
128.906	84.891	128.906	84.8958	128.906	84.8944	128.906	84.9083	128.906	84.9054	128.906	84.9274	128.906	84.923	128.906	84.9512	128.906	84.9452	128.906	84.9774	128.906	84.9696	128.906	85.0035	128.906	84.9937	128.906	85.027	128.906	85.015	128.906	85.0458	128.906	85.0314	128.906	85.0581	128.906	85.0414	128.906	85.0629	128.906	85.0442	128.906	85.06	128.906	85.04	128.906	85.0503	128.906	85.0298	128.906	85.0352	128.906	85.0152	128.906	85.0169	128.906	84.9987	128.906	84.9981	128.906	84.9829	128.906	84.9813	128.906	84.9703	128.906	84.9689	128.906	84.9631	128.906	84.9625
133.301	84.8194	133.301	84.8258	133.301	84.8211	133.301	84.8397	133.301	84.8307	133.301	84.86	133.301	84.8469	133.301	84.8846	133.301	84.8679	133.301	84.911	133.301	84.8913	133.301	84.9365	133.301	84.9146	133.301	84.9587	133.301	84.9351	133.301	84.9753	133.301	84.9507	133.301	84.9845	133.301	84.9597	133.301	84.9857	133.301	84.9612	133.301	84.9787	133.301	84.9553	133.301	84.9647	133.301	84.943	133.301	84.9455	133.301	84.926	133.301	84.9234	133.301	84.9069	133.301	84.9015	133.301	84.8884	133.301	84.8825	133.301	84.8735	133.301	84.8691	133.301	84.8644	133.301	84.8628
139.16	84.7558	139.16	84.7606	139.16	84.7586	139.16	84.7727	139.16	84.7687	139.16	84.7907	139.16	84.7849	139.16	84.8128	139.16	84.8052	139.16	84.8364	139.16	84.8275	139.16	84.859	139.16	84.8491	139.16	84.8778	139.16	84.8676	139.16	84.8908	139.16	84.8807	139.16	84.8961	139.16	84.8868	139.16	84.893	139.16	84.8851	139.16	84.8816	139.16	84.8757	139.16	84.8633	139.16	84.8595	139.16	84.84	139.16	84.8382	139.16	84.8147	139.16	84.8146	139.16	84.7906	139.16	84.7914	139.16	84.7708	139.16	84.7719	139.16	84.758	139.16	84.7587	139.16	84.7538
143.555	84.7319	143.555	84.7322	143.555	84.7377	143.555	84.7385	143.555	84.7491	143.555	84.7496	143.555	84.7651	143.555	84.764	143.555	84.7839	143.555	84.7797	143.555	84.8032	143.555	84.7943	143.555	84.8208	143.555	84.8053	143.555	84.8342	143.555	84.8107	143.555	84.8413	143.555	84.8088	143.555	84.8407	143.555	84.7989	143.555	84.8316	143.555	84.7811	143.555	84.8142	143.555	84.7568	143.555	84.7896	143.555	84.7283	143.555	84.7598	143.555	84.6989	143.555	84.7274	143.555	84.6721	143.555	84.6959	143.555	84.6514	143.555	84.6686	143.555	84.6397	143.555	84.6488	143.555	84.6387
147.949	84.5899	147.949	84.589	147.949	84.5976	147.949	84.5948	147.949	84.6115	147.949	84.6064	147.949	84.6303	147.949	84.6222	147.949	84.652	147.949	84.6398	147.949	84.674	147.949	84.6567	147.949	84.6938	147.949	84.6703	147.949	84.7088	147.949	84.678	147.949	84.7166	147.949	84.6778	147.949	84.7156	147.949	84.6689	147.949	84.7051	147.949	84.6513	147.949	84.6854	147.949	84.6261	147.949	84.6578	147.949	84.596	147.949	84.6246	147.949	84.5644	147.949	84.5892	147.949	84.535	147.949	84.555	147.949	84.5119	147.949	84.526	147.949	84.4982	147.949	84.5055	147.949	84.4959
153.809	84.5276	153.809	84.5301	153.809	84.5292	153.809	84.5366	153.809	84.5347	153.809	84.5464	153.809	84.5431	153.809	84.5581	153.809	84.553	153.809	84.57	153.809	84.5628	153.809	84.5803	153.809	84.5705	153.809	84.5867	153.809	84.5743	153.809	84.5875	153.809	84.5724	153.809	84.581	153.809	84.5637	153.809	84.5666	153.809	84.5477	153.809	84.5443	153.809	84.5248	153.809	84.5155	153.809	84.4963	153.809	84.4822	153.809	84.4643	153.809	84.4475	153.809	84.4319	153.809	84.4149	153.809	84.4024	153.809	84.3878	153.809	84.379	153.809	84.3692	153.809	84.3647	153.809	84.3612
159.668	84.345	159.668	84.3447	159.668	84.3513	159.668	84.3498	159.668	84.3631	159.668	84.3594	159.668	84.3797	159.668	84.372	159.668	84.3995	159.668	84.3854	159.668	84.4203	159.668	84.3974	159.668	84.4397	159.668	84.4054	159.668	84.4552	159.668	84.4075	159.668	84.4642	159.668	84.4021	159.668	84.465	159.668	84.3886	159.668	84.4563	159.668	84.3676	159.668	84.438	159.668	84.3408	159.668	84.4111	159.668	84.3108	159.668	84.3775	159.668	84.281	159.668	84.3404	159.668	84.2551	159.668	84.3034	159.668	84.2364	159.668	84.2706	159.668	84.2277	159.668	84.2454	159.668	84.2307
165.527	84.3033	165.527	84.3032	165.527	84.3076	165.527	84.3072	165.527	84.3161	165.527	84.3142	165.527	84.3279	165.527	84.3229	165.527	84.3419	165.527	84.3315	165.527	84.3562	165.527	84.3381	165.527	84.3689	165.527	84.3405	165.527	84.3777	165.527	84.3371	165.527	84.3805	165.527	84.3265	165.527	84.3754	165.527	84.3083	165.527	84.3613	165.527	84.2829	165.527	84.3381	165.527	84.2517	165.527	84.3066	165.527	84.2173	165.527	84.2692	165.527	84.183	165.527	84.2289	165.527	84.1525	165.527	84.1898	165.527	84.1297	165.527	84.1559	165.527	84.1174	165.527	84.131	165.527	84.1177
171.387	84.0331	171.387	84.0307	171.387	84.0393	171.387	84.0321	171.387	84.049	171.387	84.0367	171.387	84.061	171.387	84.0434	171.387	84.0742	171.387	84.0505	171.387	84.0867	171.387	84.0563	171.387	84.0968	171.387	84.0586	171.387	84.1024	171.387	84.0556	171.387	84.1017	171.387	84.0459	171.387	84.0931	171.387	84.0289	171.387	84.0758	171.387	84.0047	171.387	84.0497	171.387	83.9746	171.387	84.0161	171.387	83.9408	171.387	83.9772	171.387	83.9065	171.387	83.9365	171.387	83.875	171.387	83.8979	171.387	83.8503	171.387	83.8656	171.387	83.8354	171.387	83.8431	171.387	83.8327
177.246	83.798	177.246	83.8031	177.246	83.7966	177.246	83.8113	177.246	83.7988	177.246	83.8217	177.246	83.804	177.246	83.8327	177.246	83.8109	177.246	83.8423	177.246	83.8178	177.246	83.8486	177.246	83.8228	177.246	83.8493	177.246	83.8238	177.246	83.8426	177.246	83.8187	177.246	83.8274	177.246	83.8063	177.246	83.8032	177.246	83.7857	177.246	83.7708	177.246	83.7571	177.246	83.732	177.246	83.7219	177.246	83.6897	177.246	83.6826	177.246	83.6473	177.246	83.6425	177.246	83.6089	177.246	83.6056	177.246	83.578	177.246	83.576	177.246	83.5579	177.246	83.5569	177.246	83.5506
183.105	83.5027	183.105	83.5093	183.105	83.4977	183.105	83.5169	183.105	83.4947	183.105	83.5247	183.105	83.4935	183.105	83.5313	183.105	83.4935	183.105	83.5355	183.105	83.4936	183.105	83.5359	183.105	83.4921	183.105	83.5307	183.105	83.4871	183.105	83.5188	183.105	83.4769	183.105	83.4991	183.105	83.46	183.105	83.4714	183.105	83.4359	183.105	83.4363	183.105	83.4047	183.105	83.3953	183.105	83.3679	183.105	83.3509	183.105	83.3279	183.105	83.3064	183.105	83.2878	183.105	83.2655	183.105	83.2516	183.105	83.2323	183.105	83.223	183.105	83.2099	183.105	83.2052	183.105	83.2006
188.965	83.2473	188.965	83.2534	188.965	83.2392	188.965	83.2569	188.965	83.2299	188.965	83.2572	188.965	83.2199	188.965	83.2533	188.965	83.2094	188.965	83.2446	188.965	83.1983	188.965	83.2302	188.965	83.1859	188.965	83.2096	188.965	83.1711	188.965	83.1825	188.965	83.1527	188.965	83.149	188.965	83.1292	188.965	83.1098	188.965	83.0999	188.965	83.0665	188.965	83.0647	188.965	83.0208	188.965	83.0247	188.965	82.9751	188.965	82.9819	188.965	82.9323	188.965	82.9396	188.965	82.8951	188.965	82.9012	188.965	82.8663	188.965	82.8705	188.965	82.8483	188.965	82.8504	188.965	82.8427
196.289	82.9484	196.289	82.9535	196.289	82.9449	196.289	82.9596	196.289	82.9427	196.289	82.9655	196.289	82.941	196.289	82.9695	196.289	82.9384	196.289	82.9694	196.289	82.933	196.289	82.9627	196.289	82.9229	196.289	82.947	196.289	82.9063	196.289	82.9203	196.289	82.8816	196.289	82.8819	196.289	82.8479	196.289	82.8319	196.289	82.8049	196.289	82.7725	196.289	82.7534	196.289	82.7071	196.289	82.6952	196.289	82.64	196.289	82.6336	196.289	82.5763	196.289	82.5731	196.289	82.5206	196.289	82.519	196.289	82.4773	196.289	82.4762	196.289	82.4496	196.289	82.449	196.289	82.4399
203.613	82.7263	203.613	82.7246	203.613	82.7259	203.613	82.7211	203.613	82.7227	203.613	82.7156	203.613	82.716	203.613	82.7075	203.613	82.7049	203.613	82.6956	203.613	82.6883	203.613	82.6782	203.613	82.6657	203.613	82.6536	203.613	82.6367	203.613	82.6201	203.613	82.6014	203.613	82.577	203.613	82.5603	203.613	82.5244	203.613	82.5139	203.613	82.4644	203.613	82.4631	203.613	82.4001	203.613	82.4091	203.613	82.3361	203.613	82.3537	203.613	82.277	203.613	82.2997	203.613	82.2274	203.613	82.2502	203.613	82.191	203.613	82.2093	203.613	82.1705	203.613	82.1806	203.613	82.1671
210.938	82.4817	210.938	82.483	210.938	82.4765	210.938	82.4802	210.938	82.4675	210.938	82.4733	210.938	82.455	210.938	82.4621	210.938	82.4392	210.938	82.4461	210.938	82.4199	210.938	82.4246	210.938	82.3969	210.938	82.3962	210.938	82.3696	210.938	82.3598	210.938	82.3374	210.938	82.3145	210.938	82.3	210.938	82.2608	210.938	82.2571	210.938	82.2006	210.938	82.2089	210.938	82.137	210.938	82.1563	210.938	82.0743	210.938	82.1013	210.938	82.0171	210.938	82.047	210.938	81.9695	210.938	81.9972	210.938	81.935	210.938	81.956	210.938	81.9159	210.938	81.9271	210.938	81.9133
218.262	82.3456	218.262	82.3534	218.262	82.335	218.262	82.3574	218.262	82.3229	218.262	82.3564	218.262	82.31	218.262	82.3498	218.262	82.2966	218.262	82.3368	218.262	82.2825	218.262	82.3172	218.262	82.2669	218.262	82.2906	218.262	82.2488	218.262	82.2571	218.262	82.2272	218.262	82.2175	218.262	82.2012	218.262	82.1728	218.262	82.1702	218.262	82.1249	218.262	82.1343	218.262	82.0763	218.262	82.0943	218.262	82.0296	218.262	82.0518	218.262	81.9876	218.262	82.0096	218.262	81.9527	218.262	81.9712	218.262	81.9269	218.262	81.9399	218.262	81.9121	218.262	81.9187	218.262	81.9092
225.586	82.3825	225.586	82.388	225.586	82.3724	225.586	82.3879	225.586	82.3587	225.586	82.3812	225.586	82.3416	225.586	82.3673	225.586	82.3215	225.586	82.3461	225.586	82.2984	225.586	82.318	225.586	82.2727	225.586	82.2837	225.586	82.2446	225.586	82.2444	225.586	82.2145	225.586	82.2016	225.586	82.1826	225.586	82.1572	225.586	82.1489	225.586	82.1131	225.586	82.1133	225.586	82.0713	225.586	82.0762	225.586	82.0332	225.586	82.0386	225.586	81.9996	225.586	82.0028	225.586	81.9714	225.586	81.9715	225.586	81.9494	225.586	81.9475	225.586	81.9347	225.586	81.933	225.586	81.9288
232.91	82.5224	232.91	82.5128	232.91	82.525	232.91	82.497	232.91	82.5203	232.91	82.4756	232.91	82.5081	232.91	82.4497	232.91	82.4886	232.91	82.4203	232.91	82.4621	232.91	82.3881	232.91	82.4289	232.91	82.3537	232.91	82.39	232.91	82.3175	232.91	82.3464	232.91	82.2798	232.91	82.2993	232.91	82.2416	232.91	82.2497	232.91	82.2037	232.91	82.199	232.91	82.167	232.91	82.1483	232.91	82.1321	232.91	82.0996	232.91	82.0988	232.91	82.0559	232.91	82.0672	232.91	82.0209	232.91	82.0378	232.91	81.9983	232.91	82.0129	232.91	81.99	232.91	81.9957
241.699	82.844	241.699	82.8443	241.699	82.8325	241.699	82.8336	241.699	82.81	241.699	82.8127	241.699	82.7776	241.699	82.7824	241.699	82.7371	241.699	82.7433	241.699	82.6907	241.699	82.696	241.699	82.6406	241.699	82.6416	241.699	82.5884	241.699	82.5814	241.699	82.5355	241.699	82.5179	241.699	82.4828	241.699	82.4548	241.699	82.4314	241.699	82.3963	241.699	82.3823	241.699	82.3463	241.699	82.3371	241.699	82.3069	241.699	82.2974	241.699	82.2782	241.699	82.2653	241.699	82.258	241.699	82.2421	241.699	82.2436	241.699	82.2284	241.699	82.233	241.699	82.2237	241.699	82.2259
250.488	83.0912	250.488	83.0949	250.488	83.0715	250.488	83.0823	250.488	83.0375	250.488	83.0543	250.488	82.9916	250.488	83.0124	250.488	82.9368	250.488	82.959	250.488	82.8767	250.488	82.8962	250.488	82.8143	250.488	82.8263	250.488	82.7526	250.488	82.7514	250.488	82.6937	250.488	82.6742	250.488	82.6394	250.488	82.5982	250.488	82.5907	250.488	82.5276	250.488	82.5481	250.488	82.4674	250.488	82.5119	250.488	82.4215	250.488	82.482	250.488	82.3922	250.488	82.4578	250.488	82.3787	250.488	82.4385	250.488	82.3779	250.488	82.4227	250.488	82.3851	250.488	82.409	250.488	82.3963
259.277	83.6037	259.277	83.5922	259.277	83.5975	259.277	83.5661	259.277	83.5719	259.277	83.5284	259.277	83.5268	259.277	83.4824	259.277	83.4643	259.277	83.4309	259.277	83.3892	259.277	83.3758	259.277	83.3072	259.277	83.3178	259.277	83.2244	259.277	83.2563	259.277	83.1457	259.277	83.1906	259.277	83.0744	259.277	83.1208	259.277	83.0124	259.277	83.0488	259.277	82.9603	259.277	82.9783	259.277	82.9183	259.277	82.9143	259.277	82.8858	259.277	82.862	259.277	82.8613	259.277	82.8249	259.277	82.8423	259.277	82.804	259.277	82.8265	259.277	82.7977	259.277	82.8128	259.277	82.8021
268.066	83.6983	268.066	83.6624	268.066	83.7106	268.066	83.6114	268.066	83.6945	268.066	83.5547	268.066	83.6501	268.066	83.4999	268.066	83.5822	268.066	83.4504	268.066	83.4993	268.066	83.4048	268.066	83.4105	268.066	83.358	268.066	83.3236	268.066	83.3035	268.066	83.2432	268.066	83.2361	268.066	83.1709	268.066	83.1547	268.066	83.1062	268.066	83.0634	268.066	83.0483	268.066	82.9708	268.066	82.9971	268.066	82.8877	268.066	82.9529	268.066	82.8239	268.066	82.9154	268.066	82.785	268.066	82.883	268.066	82.7714	268.066	82.8534	268.066	82.7782	268.066	82.8249	268.066	82.7984
276.855	83.8736	276.855	83.8821	276.855	83.8668	276.855	83.888	276.855	83.86	276.855	83.8839	276.855	83.8457	276.855	83.8628	276.855	83.8129	276.855	83.8218	276.855	83.7517	276.855	83.7625	276.855	83.6574	276.855	83.6901	276.855	83.5329	276.855	83.612	276.855	83.3884	276.855	83.534	276.855	83.2391	276.855	83.4592	276.855	83.1013	276.855	83.3868	276.855	82.9879	276.855	83.3136	276.855	82.9056	276.855	83.2367	276.855	82.8538	276.855	83.1557	276.855	82.8273	276.855	83.0738	276.855	82.8193	276.855	82.9966	276.855	82.8255	276.855	82.9305	276.855	82.8451	276.855	82.8796
287.109	84.0733	287.109	84.0543	287.109	84.0702	287.109	84.0123	287.109	84.0492	287.109	83.9501	287.109	84.0158	287.109	83.8736	287.109	83.9742	287.109	83.7901	287.109	83.9257	287.109	83.7072	287.109	83.8698	287.109	83.6312	287.109	83.8056	287.109	83.5659	287.109	83.7342	287.109	83.5125	287.109	83.6596	287.109	83.4692	287.109	83.5881	287.109	83.4319	287.109	83.5258	287.109	83.3967	287.109	83.4763	287.109	83.362	287.109	83.4392	287.109	83.3295	287.109	83.4104	287.109	83.3038	287.109	83.3844	287.109	83.29	287.109	83.3575	287.109	83.291	287.109	83.33	287.109	83.3059
297.363	84.2736	297.363	84.2982	297.363	84.2219	297.363	84.2915	297.363	84.1485	297.363	84.2518	297.363	84.0599	297.363	84.1794	297.363	83.9622	297.363	84.0777	297.363	83.8614	297.363	83.9528	297.363	83.7624	297.363	83.8143	297.363	83.6695	297.363	83.6748	297.363	83.5855	297.363	83.5482	297.363	83.5119	297.363	83.4474	297.363	83.4486	297.363	83.3805	297.363	83.3947	297.363	83.348	297.363	83.3495	297.363	83.3426	297.363	83.3132	297.363	83.3511	297.363	83.2877	297.363	83.3595	297.363	83.2756	297.363	83.358	297.363	83.2787	297.363	83.3434	297.363	83.2953	297.363	83.3198
307.617	84.3044	307.617	84.3009	307.617	84.283	307.617	84.2698	307.617	84.2394	307.617	84.2101	307.617	84.1755	307.617	84.1244	307.617	84.0925	307.617	84.0198	307.617	83.9932	307.617	83.9067	307.617	83.8832	307.617	83.7959	307.617	83.7723	307.617	83.6965	307.617	83.6725	307.617	83.6139	307.617	83.5947	307.617	83.5499	307.617	83.5435	307.617	83.504	307.617	83.5157	307.617	83.4747	307.617	83.5021	307.617	83.4591	307.617	83.4926	307.617	83.4533	307.617	83.4811	307.617	83.4525	307.617	83.4675	307.617	83.4521	307.617	83.4554	307.617	83.45	307.617	83.4487	307.617	83.4478
319.336	84.3085	319.336	84.2989	319.336	84.2887	319.336	84.2603	319.336	84.2414	319.336	84.1957	319.336	84.1695	319.336	84.1101	319.336	84.0772	319.336	84.0102	319.336	83.9691	319.336	83.9025	319.336	83.8507	319.336	83.7928	319.336	83.7285	319.336	83.6861	319.336	83.6094	319.336	83.5877	319.336	83.5012	319.336	83.5031	319.336	83.411	319.336	83.4375	319.336	83.3447	319.336	83.3941	319.336	83.3055	319.336	83.372	319.336	83.2922	319.336	83.3667	319.336	83.2996	319.336	83.3712	319.336	83.3195	319.336	83.3781	319.336	83.3433	319.336	83.3814	319.336	83.364	319.336	83.3771
329.59	84.3167	329.59	84.3054	329.59	84.2976	329.59	84.2652	329.59	84.2494	329.59	84.199	329.59	84.1759	329.59	84.1106	329.59	84.0838	329.59	84.0049	329.59	83.9799	329.59	83.8872	329.59	83.8694	329.59	83.7627	329.59	83.7549	329.59	83.6368	329.59	83.637	329.59	83.5151	329.59	83.5175	329.59	83.4048	329.59	83.4004	329.59	83.3147	329.59	83.2923	329.59	83.2528	329.59	83.2016	329.59	83.2225	329.59	83.1366	329.59	83.219	329.59	83.1035	329.59	83.2298	329.59	83.1032	329.59	83.239	329.59	83.1296	329.59	83.2336	329.59	83.17	329.59	83.2089
341.309	84.4621	341.309	84.4752	341.309	84.404	341.309	84.4474	341.309	84.3004	341.309	84.3839	341.309	84.1563	341.309	84.2892	341.309	83.9833	341.309	84.1675	341.309	83.7981	341.309	84.0239	341.309	83.6191	341.309	83.8652	341.309	83.4626	341.309	83.7001	341.309	83.3403	341.309	83.5382	341.309	83.2573	341.309	83.3906	341.309	83.2129	341.309	83.2689	341.309	83.2015	341.309	83.1845	341.309	83.2141	341.309	83.145	341.309	83.2411	341.309	83.1499	341.309	83.2741	341.309	83.189	341.309	83.3063	341.309	83.2443	341.309	83.3311	341.309	83.2961	341.309	83.3413	341.309	83.3304
353.027	84.3973	353.027	84.358	353.027	84.3934	353.027	84.2786	353.027	84.3474	353.027	84.1677	353.027	84.2632	353.027	84.0369	353.027	84.1449	353.027	83.8976	353.027	83.9966	353.027	83.7571	353.027	83.8234	353.027	83.6182	353.027	83.6342	353.027	83.4812	353.027	83.4435	353.027	83.3473	353.027	83.271	353.027	83.2215	353.027	83.1371	353.027	83.1127	353.027	83.0564	353.027	83.031	353.027	83.0329	353.027	82.9861	353.027	83.0584	353.027	82.9832	353.027	83.1151	353.027	83.0202	353.027	83.1795	353.027	83.0855	353.027	83.2279	353.027	83.1589	353.027	83.2426	353.027	83.2173
366.211	84.6236	366.211	84.5447	366.211	84.6455	366.211	84.4164	366.211	84.6047	366.211	84.247	366.211	84.4996	366.211	84.0472	366.211	84.3364	366.211	83.8326	366.211	84.1292	366.211	83.6238	366.211	83.8968	366.211	83.4431	366.211	83.6578	366.211	83.3072	366.211	83.4271	366.211	83.2211	366.211	83.2183	366.211	83.1751	366.211	83.0468	366.211	83.1497	366.211	82.9283	366.211	83.1253	366.211	82.8704	366.211	83.0906	366.211	82.8641	366.211	83.0459	366.211	82.8861	366.211	82.9996	366.211	82.9112	366.211	82.9613	366.211	82.9251	366.211	82.9375	366.211	82.9276	366.211	82.9283
379.395	84.6723	379.395	84.6843	379.395	84.6231	379.395	84.6516	379.395	84.5417	379.395	84.568	379.395	84.4277	379.395	84.4332	379.395	84.278	379.395	84.2536	379.395	84.0916	379.395	84.0422	379.395	83.876	379.395	83.8166	379.395	83.6487	379.395	83.5966	379.395	83.4336	379.395	83.4015	379.395	83.2536	379.395	83.2471	379.395	83.1247	379.395	83.1432	379.395	83.0534	379.395	83.0916	379.395	83.0382	379.395	83.0874	379.395	83.0718	379.395	83.1209	379.395	83.1406	379.395	83.1801	379.395	83.2249	379.395	83.2502	379.395	83.3006	379.395	83.3131	379.395	83.3462	379.395	83.3497
392.578	84.5339	392.578	84.5578	392.578	84.4746	392.578	84.5362	392.578	84.3876	392.578	84.4595	392.578	84.2768	392.578	84.3228	392.578	84.1427	392.578	84.1306	392.578	83.9842	392.578	83.8981	392.578	83.8011	392.578	83.6492	392.578	83.5976	392.578	83.411	392.578	83.385	392.578	83.2073	392.578	83.1817	392.578	83.0538	392.578	83.0112	392.578	82.9557	392.578	82.8957	392.578	82.9095	392.578	82.8469	392.578	82.9057	392.578	82.8593	392.578	82.9312	392.578	82.9118	392.578	82.9715	392.578	82.9765	392.578	83.0135	392.578	83.0301	392.578	83.0471	392.578	83.0603	392.578	83.0647
405.762	84.5723	405.762	84.5417	405.762	84.5468	405.762	84.4569	405.762	84.4635	405.762	84.3201	405.762	84.324	405.762	84.1353	405.762	84.1346	405.762	83.9111	405.762	83.9086	405.762	83.6621	405.762	83.6646	405.762	83.4088	405.762	83.4229	405.762	83.1755	405.762	83.2002	405.762	82.9853	405.762	83.007	405.762	82.8547	405.762	82.8488	405.762	82.7884	405.762	82.7306	405.762	82.7791	405.762	82.659	405.762	82.8119	405.762	82.6402	405.762	82.8691	405.762	82.6734	405.762	82.9329	405.762	82.7475	405.762	82.9848	405.762	82.8413	405.762	83.0074	405.762	82.9294	405.762	82.989
420.41	84.986	420.41	84.9418	420.41	84.9414	420.41	84.8101	420.41	84.8163	420.41	84.603	420.41	84.6229	420.41	84.3396	420.41	84.3707	420.41	84.0403	420.41	84.0656	420.41	83.7224	420.41	83.717	420.41	83.4012	420.41	83.3484	420.41	83.0952	420.41	83.0009	420.41	82.8309	420.41	82.7223	420.41	82.6407	420.41	82.5461	420.41	82.5508	420.41	82.4755	420.41	82.5639	420.41	82.4873	420.41	82.6533	420.41	82.5494	420.41	82.7732	420.41	82.6354	420.41	82.8796	420.41	82.7281	420.41	82.9459	420.41	82.816	420.41	82.9651	420.41	82.8905	420.41	82.9433
435.059	84.7785	435.059	84.7366	435.059	84.7555	435.059	84.6413	435.059	84.6606	435.059	84.5026	435.059	84.4961	435.059	84.3242	435.059	84.2721	435.059	84.1041	435.059	84.0022	435.059	83.8394	435.059	83.6963	435.059	83.5321	435.059	83.3592	435.059	83.1948	435.059	82.9983	435.059	82.8528	435.059	82.6378	435.059	82.5419	435.059	82.3263	435.059	82.3012	435.059	82.1246	435.059	82.1646	435.059	82.0724	435.059	82.15	435.059	82.1611	435.059	82.2499	435.059	82.3408	435.059	82.4278	435.059	82.5479	435.059	82.6256	435.059	82.7273	435.059	82.7839	435.059	82.8397	435.059	82.8607
451.172	84.6237	451.172	84.6658	451.172	84.5314	451.172	84.6401	451.172	84.3979	451.172	84.5277	451.172	84.2227	451.172	84.3184	451.172	84.0022	451.172	84.017	451.172	83.739	451.172	83.6451	451.172	83.4455	451.172	83.2381	451.172	83.1413	451.172	82.8393	451.172	82.8466	451.172	82.4921	451.172	82.5793	451.172	82.2298	451.172	82.3552	451.172	82.0654	451.172	82.1883	451.172	81.986	451.172	82.0833	451.172	81.9585	451.172	82.0294	451.172	81.9466	451.172	82.0022	451.172	81.9287	451.172	81.9771	451.172	81.9039	451.172	81.9439	451.172	81.8854	451.172	81.9088	451.172	81.8861
465.82	84.6303	465.82	84.6156	465.82	84.5827	465.82	84.5286	465.82	84.4779	465.82	84.3607	465.82	84.3144	465.82	84.1119	465.82	84.0862	465.82	83.7954	465.82	83.7881	465.82	83.4371	465.82	83.4231	465.82	83.0698	465.82	83.0106	465.82	82.7268	465.82	82.5885	465.82	82.4357	465.82	82.2069	465.82	82.2133	465.82	81.9135	465.82	82.0635	465.82	81.7405	465.82	81.9819	465.82	81.6977	465.82	81.9632	465.82	81.7712	465.82	82.0033	465.82	81.9256	465.82	82.0936	465.82	82.1109	465.82	82.2124	465.82	82.2741	465.82	82.3237	465.82	82.3729	465.82	82.3872
483.398	84.6776	483.398	84.6412	483.398	84.6393	483.398	84.545	483.398	84.5143	483.398	84.3965	483.398	84.3059	483.398	84.1933	483.398	84.0352	483.398	83.9298	483.398	83.7305	483.398	83.6049	483.398	83.4108	483.398	83.2279	483.398	83.078	483.398	82.8233	483.398	82.7283	483.398	82.4321	483.398	82.3743	483.398	82.1082	483.398	82.0583	483.398	81.9038	483.398	81.8382	483.398	81.8464	483.398	81.7511	483.398	81.9202	483.398	81.7865	483.398	82.0688	483.398	81.8961	483.398	82.2207	483.398	82.0275	483.398	82.3217	483.398	82.1487	483.398	82.3515	483.398	82.2481	483.398	82.3202
499.512	84.7537	499.512	84.6781	499.512	84.7302	499.512	84.5179	499.512	84.6031	499.512	84.2961	499.512	84.3737	499.512	84.0346	499.512	84.0448	499.512	83.7474	499.512	83.6267	499.512	83.4384	499.512	83.1491	499.512	83.1086	499.512	82.6666	499.512	82.7654	499.512	82.244	499.512	82.4298	499.512	81.9289	499.512	82.1355	499.512	81.7349	499.512	81.9186	499.512	81.6481	499.512	81.8039	499.512	81.6461	499.512	81.7973	499.512	81.7103	499.512	81.8856	499.512	81.8255	499.512	82.036	499.512	81.9751	499.512	82.1965	499.512	82.1341	499.512	82.3089	499.512	82.2668	499.512	82.3338
517.09	84.8182	517.09	84.8561	517.09	84.7165	517.09	84.8036	517.09	84.5657	517.09	84.6315	517.09	84.3693	517.09	84.3247	517.09	84.126	517.09	83.8938	517.09	83.8305	517.09	83.3734	517.09	83.4723	517.09	82.8134	517.09	83.0404	517.09	82.2723	517.09	82.5416	517.09	81.8137	517.09	82.0219	517.09	81.493	517.09	81.5695	517.09	81.3333	517.09	81.2802	517.09	81.3157	517.09	81.199	517.09	81.3968	517.09	81.2916	517.09	81.5323	517.09	81.4767	517.09	81.6855	517.09	81.6766	517.09	81.8257	517.09	81.84	517.09	81.9267	517.09	81.9406	517.09	81.9688
536.133	84.5244	536.133	84.4996	536.133	84.4905	536.133	84.4185	536.133	84.3926	536.133	84.2852	536.133	84.2179	536.133	84.1007	536.133	83.9511	536.133	83.8523	536.133	83.5873	536.133	83.5135	536.133	83.1418	536.133	83.0649	536.133	82.6484	536.133	82.5246	536.133	82.147	536.133	81.9649	536.133	81.6758	536.133	81.4892	536.133	81.276	536.133	81.1707	536.133	80.9967	536.133	81.0151	536.133	80.8749	536.133	80.99	536.133	80.9052	536.133	81.0713	536.133	81.0381	536.133	81.2372	536.133	81.2151	536.133	81.4332	536.133	81.3938	536.133	81.578	536.133	81.5405	536.133	81.6144
555.176	84.5956	555.176	84.5788	555.176	84.5709	555.176	84.517	555.176	84.4892	555.176	84.381	555.176	84.3312	555.176	84.1326	555.176	84.083	555.176	83.755	555.176	83.737	555.176	83.2721	555.176	83.2943	555.176	82.7334	555.176	82.7712	555.176	82.1816	555.176	82.209	555.176	81.6483	555.176	81.6745	555.176	81.193	555.176	81.24	555.176	80.9213	555.176	80.9512	555.176	80.9068	555.176	80.8168	555.176	81.0945	555.176	80.8336	555.176	81.3468	555.176	81.0012	555.176	81.5685	555.176	81.2893	555.176	81.7425	555.176	81.6066	555.176	81.8719	555.176	81.8392	555.176	81.9227
574.219	84.73	574.219	84.6277	574.219	84.702	574.219	84.4341	574.219	84.5381	574.219	84.2028	574.219	84.2612	574.219	83.9647	574.219	83.9062	574.219	83.7058	574.219	83.503	574.219	83.3813	574.219	83.0673	574.219	82.9482	574.219	82.6013	574.219	82.3977	574.219	82.1015	574.219	81.7736	574.219	81.5719	574.219	81.1635	574.219	81.0487	574.219	80.6663	574.219	80.6319	574.219	80.3681	574.219	80.4587	574.219	80.3211	574.219	80.5766	574.219	80.5042	574.219	80.8632	574.219	80.8082	574.219	81.137	574.219	81.0944	574.219	81.3009	574.219	81.2782	574.219	81.3621	574.219	81.3561
594.727	84.7209	594.727	84.7417	594.727	84.6281	594.727	84.6403	594.727	84.5063	594.727	84.4055	594.727	84.3464	594.727	84.0625	594.727	84.1002	594.727	83.6418	594.727	83.7313	594.727	83.1609	594.727	83.2389	594.727	82.6335	594.727	82.6441	594.727	82.0824	594.727	81.9851	594.727	81.5376	594.727	81.3363	594.727	81.0318	594.727	80.7977	594.727	80.6143	594.727	80.4236	594.727	80.3611	594.727	80.1983	594.727	80.3343	594.727	80.1277	594.727	80.522	594.727	80.2771	594.727	80.8393	594.727	80.646	594.727	81.1764	594.727	81.0865	594.727	81.4334	594.727	81.414	594.727	81.5303
615.234	84.9092	615.234	84.8408	615.234	84.8893	615.234	84.7331	615.234	84.7341	615.234	84.5797	615.234	84.4544	615.234	84.3289	615.234	84.1014	615.234	83.9427	615.234	83.7074	615.234	83.424	615.234	83.2602	615.234	82.7999	615.234	82.7317	615.234	82.112	615.234	82.1057	615.234	81.4411	615.234	81.3947	615.234	80.9049	615.234	80.6849	615.234	80.5762	615.234	80.1639	615.234	80.429	615.234	80.0041	615.234	80.4239	615.234	80.1688	615.234	80.5744	615.234	80.4529	615.234	80.8624	615.234	80.7066	615.234	81.1675	615.234	80.9229	615.234	81.3392	615.234	81.1375	615.234	81.3108
637.207	84.944	637.207	84.941	637.207	84.9035	637.207	84.8293	637.207	84.8529	637.207	84.578	637.207	84.7608	637.207	84.2227	637.207	84.5564	637.207	83.8262	637.207	84.1855	637.207	83.4025	637.207	83.6534	637.207	82.8953	637.207	83.0205	637.207	82.2469	637.207	82.3538	637.207	81.4808	637.207	81.6891	637.207	80.7274	637.207	81.0646	637.207	80.1614	637.207	80.5844	637.207	79.8871	637.207	80.382	637.207	79.9	637.207	80.4814	637.207	80.1419	637.207	80.7685	637.207	80.5244	637.207	81.1006	637.207	80.9344	637.207	81.3692	637.207	81.2701	637.207	81.5031	637.207	81.4693
659.18	84.8868	659.18	84.8392	659.18	84.8479	659.18	84.7566	659.18	84.6751	659.18	84.6207	659.18	84.3875	659.18	84.3629	659.18	84.0487	659.18	83.9539	659.18	83.689	659.18	83.435	659.18	83.2651	659.18	82.838	659.18	82.7094	659.18	82.1117	659.18	82.0219	659.18	81.2115	659.18	81.2869	659.18	80.2776	659.18	80.5688	659.18	79.6453	659.18	79.8753	659.18	79.5354	659.18	79.3599	659.18	79.8202	659.18	79.3664	659.18	80.2416	659.18	79.9095	659.18	80.6053	659.18	80.5243	659.18	80.796	659.18	80.8466	659.18	80.8257	659.18	80.878	659.18	80.8275
682.617	85.0566	682.617	84.9999	682.617	85.0428	682.617	84.8647	682.617	84.9517	682.617	84.6435	682.617	84.7554	682.617	84.3343	682.617	84.4221	682.617	83.9268	682.617	83.9495	682.617	83.4037	682.617	83.3842	682.617	82.7793	682.617	82.7794	682.617	82.1128	682.617	82.104	682.617	81.4213	682.617	81.2704	682.617	80.6526	682.617	80.3489	682.617	79.895	682.617	79.6785	682.617	79.4838	682.617	79.5136	682.617	79.5686	682.617	79.6604	682.617	79.8873	682.617	79.8621	682.617	80.2662	682.617	80.1686	682.617	80.7521	682.617	80.6745	682.617	81.2395	682.617	81.2015	682.617	81.4386
707.52	85.2859	707.52	85.1479	707.52	85.2255	707.52	84.8696	707.52	85.0542	707.52	84.5917	707.52	84.8771	707.52	84.3452	707.52	84.6719	707.52	84.017	707.52	84.3055	707.52	83.5157	707.52	83.6805	707.52	82.847	707.52	82.8421	707.52	82.0322	707.52	81.9191	707.52	81.0876	707.52	80.964	707.52	80.1195	707.52	79.9758	707.52	79.3495	707.52	79.1556	707.52	79.0004	707.52	78.8228	707.52	79.1525	707.52	78.9685	707.52	79.6095	707.52	79.4168	707.52	80.0129	707.52	80.0329	707.52	80.2162	707.52	80.5601	707.52	80.3748	707.52	80.7474	707.52	80.6063
732.422	84.7391	732.422	84.8354	732.422	84.7162	732.422	84.8846	732.422	84.7035	732.422	84.7185	732.422	84.5828	732.422	84.3162	732.422	84.3456	732.422	83.8053	732.422	84.0691	732.422	83.3007	732.422	83.7826	732.422	82.7809	732.422	83.4195	732.422	82.1296	732.422	82.8925	732.422	81.2644	732.422	82.1549	732.422	80.2564	732.422	81.2345	732.422	79.376	732.422	80.2968	732.422	78.9167	732.422	79.6257	732.422	78.9087	732.422	79.4309	732.422	79.2074	732.422	79.7106	732.422	79.7674	732.422	80.3198	732.422	80.5619	732.422	81.0417	732.422	81.3426	732.422	81.6063	732.422	81.7461
757.324	85.1108	757.324	84.8913	757.324	85.1171	757.324	84.6249	757.324	84.9132	757.324	84.4413	757.324	84.6199	757.324	84.2796	757.324	84.2708	757.324	83.9923	757.324	83.769	757.324	83.5022	757.324	83.0205	757.324	82.8502	757.324	82.0438	757.324	82.1163	757.324	80.9933	757.324	81.2602	757.324	80.0161	757.324	80.1262	757.324	79.0104	757.324	78.7537	757.324	77.8166	757.324	77.7189	757.324	76.8319	757.324	77.7413	757.324	76.8672	757.324	78.5916	757.324	77.821	757.324	79.4675	757.324	78.8905	757.324	79.9119	757.324	79.5893	757.324	79.9599	757.324	79.8511	757.324	79.9024
785.156	84.3241	785.156	84.4332	785.156	84.2272	785.156	84.4449	785.156	84.1869	785.156	84.2844	785.156	84.1109	785.156	83.9511	785.156	83.8583	785.156	83.495	785.156	83.4332	785.156	82.9737	785.156	83.0185	785.156	82.4117	785.156	82.7055	785.156	81.7768	785.156	82.2797	785.156	81.0071	785.156	81.4677	785.156	80.0773	785.156	80.2776	785.156	79.0688	785.156	79.0969	785.156	78.2302	785.156	78.4069	785.156	77.8553	785.156	78.2196	785.156	77.9391	785.156	78.2562	785.156	78.2828	785.156	78.5322	785.156	78.8164	785.156	79.0798	785.156	79.4125	785.156	79.6098	785.156	79.7568
811.523	84.6775	811.523	84.6694	811.523	84.6332	811.523	84.6306	811.523	84.5247	811.523	84.5861	811.523	84.359	811.523	84.4968	811.523	84.1362	811.523	84.2498	811.523	83.799	811.523	83.7763	811.523	83.3021	811.523	83.1094	811.523	82.7044	811.523	82.2907	811.523	82.0735	811.523	81.2688	811.523	81.2994	811.523	80.0103	811.523	80.1809	811.523	78.8364	811.523	78.7958	811.523	78.4404	811.523	77.8367	811.523	78.89	811.523	77.8997	811.523	79.4487	811.523	78.4732	811.523	79.7412	811.523	79.1226	811.523	80.0118	811.523	79.9166	811.523	80.4788	811.523	80.6246	811.523	80.8232
840.82	84.0315	840.82	83.9073	840.82	84.0806	840.82	83.7226	840.82	83.9948	840.82	83.4033	840.82	83.7653	840.82	82.9896	840.82	83.4998	840.82	82.7149	840.82	83.315	840.82	82.51	840.82	83.0717	840.82	81.8997	840.82	82.5208	840.82	80.7277	840.82	81.6967	840.82	79.503	840.82	80.8309	840.82	78.5655	840.82	79.9658	840.82	77.3679	840.82	79.0484	840.82	75.7636	840.82	78.1724	840.82	75.1894	840.82	77.5195	840.82	76.3826	840.82	77.4939	840.82	78.0757	840.82	78.2052	840.82	79.3774	840.82	79.0465	840.82	79.9788	840.82	79.6049	840.82	79.9474
870.117	84.6222	870.117	84.6083	870.117	84.5106	870.117	84.6	870.117	84.3148	870.117	84.6004	870.117	84.2011	870.117	84.4755	870.117	84.0863	870.117	84.1567	870.117	83.7875	870.117	83.6847	870.117	83.3801	870.117	83.132	870.117	82.9302	870.117	82.4295	870.117	82.2513	870.117	81.4159	870.117	81.258	870.117	80.2499	870.117	80.0937	870.117	79.2737	870.117	78.8302	870.117	78.5203	870.117	77.6586	870.117	78.3021	870.117	77.2357	870.117	78.8195	870.117	77.7965	870.117	79.2695	870.117	78.7881	870.117	79.403	870.117	79.6378	870.117	79.6122	870.117	80.0198	870.117	79.9224
900.879	83.4538	900.879	83.5042	900.879	83.4075	900.879	83.5227	900.879	83.3187	900.879	83.4667	900.879	83.0781	900.879	83.3437	900.879	82.7249	900.879	83.2233	900.879	82.4216	900.879	82.9972	900.879	82.1114	900.879	82.3497	900.879	81.5068	900.879	81.2763	900.879	80.61	900.879	80.1351	900.879	79.7964	900.879	78.9423	900.879	79.0607	900.879	77.3766	900.879	78.1355	900.879	75.9164	900.879	77.3386	900.879	75.8137	900.879	77.1025	900.879	76.6711	900.879	77.2889	900.879	77.5856	900.879	77.7525	900.879	78.411	900.879	78.4288	900.879	79.0908	900.879	79.0869	900.879	79.3737
933.105	80.5417	933.105	80.5952	933.105	80.4998	933.105	80.2295	933.105	80.7294	933.105	79.4181	933.105	80.847	933.105	78.7317	933.105	80.2967	933.105	78.7345	933.105	79.0815	933.105	78.8506	933.105	77.9217	933.105	78.283	933.105	77.208	933.105	76.9418	933.105	76.1362	933.105	74.8714	933.105	73.9296	933.105	71.9269	933.105	71.1179	933.105	68.6576	933.105	69.2084	933.105	65.7055	933.105	68.6731	933.105	65.6156	933.105	72.2808	933.105	70.1306	933.105	75.7314	933.105	74.3934	933.105	77.2245	933.105	77.211	933.105	77.5084	933.105	78.2402	933.105	77.5722	933.105	77.9812
965.332	83.7803	965.332	83.5048	965.332	83.9339	965.332	83.6323	965.332	83.9805	965.332	84.2245	965.332	84.1011	965.332	84.5291	965.332	84.1722	965.332	84.4275	965.332	84.0921	965.332	84.6341	965.332	83.9144	965.332	84.7772	965.332	83.4817	965.332	84.0835	965.332	82.4413	965.332	82.8835	965.332	80.656	965.332	81.8572	965.332	78.1491	965.332	80.5271	965.332	74.6954	965.332	77.7729	965.332	69.7302	965.332	72.9961	965.332	60.917	965.332	65.6369	965.332	59.2648	965.332	63.0314	965.332	68.9176	965.332	71.6593	965.332	71.8192	965.332	73.981	965.332	72.2117	965.332	72.9199
1,000.49	81.4207	1,000.49	81.3837	1,000.49	81.4241	1,000.49	81.3352	1,000.49	81.3205	1,000.49	81.2607	1,000.49	80.8137	1,000.49	81.2618	1,000.49	79.9184	1,000.49	81.5876	1,000.49	79.3641	1,000.49	82.0172	1,000.49	79.4172	1,000.49	82.1786	1,000.49	79.8314	1,000.49	82.1134	1,000.49	80.175	1,000.49	81.7416	1,000.49	79.6271	1,000.49	80.7953	1,000.49	78.3625	1,000.49	79.1141	1,000.49	77.6571	1,000.49	76.1225	1,000.49	76.3392	1,000.49	70.5234	1,000.49	71.9143	1,000.49	59.5376	1,000.49	62.3376	1,000.49	65.4204	1,000.49	64.4144	1,000.49	70.0234	1,000.49	66.6353	1,000.49	70.7634	1,000.49	69.4692	1,000.49	70.512
1,035.64	80.3199	1,035.64	80.6287	1,035.64	79.6339	1,035.64	80.6185	1,035.64	79.2276	1,035.64	81.199	1,035.64	78.8931	1,035.64	81.6228	1,035.64	77.8286	1,035.64	81.0213	1,035.64	76.4998	1,035.64	80.4596	1,035.64	75.9566	1,035.64	80.6653	1,035.64	75.5478	1,035.64	80.528	1,035.64	75.3345	1,035.64	79.1385	1,035.64	76.4279	1,035.64	76.7495	1,035.64	77.0154	1,035.64	74.8095	1,035.64	75.3926	1,035.64	72.5561	1,035.64	73.3388	1,035.64	66.851	1,035.64	72.0016	1,035.64	58.9971	1,035.64	65.8987	1,035.64	67.4479	1,035.64	64.9669	1,035.64	73.1335	1,035.64	72.3072	1,035.64	75.696	1,035.64	74.291	1,035.64	75.445
1,072.27	82.7389	1,072.27	82.3451	1,072.27	82.7022	1,072.27	81.9519	1,072.27	82.5162	1,072.27	81.6275	1,072.27	82.3441	1,072.27	81.1058	1,072.27	82.0989	1,072.27	80.9031	1,072.27	81.6315	1,072.27	80.7387	1,072.27	80.8942	1,072.27	80.3718	1,072.27	80.8902	1,072.27	80.9497	1,072.27	81.6303	1,072.27	81.5794	1,072.27	81.7336	1,072.27	81.2493	1,072.27	81.3694	1,072.27	80.9775	1,072.27	81.2201	1,072.27	80.6109	1,072.27	80.2317	1,072.27	78.4634	1,072.27	77.6299	1,072.27	74.9706	1,072.27	75.5673	1,072.27	71.3814	1,072.27	74.7293	1,072.27	67.5938	1,072.27	71.7472	1,072.27	67.3987	1,072.27	68.08	1,072.27	67.1437
1,108.89	83.3759	1,108.89	83.9005	1,108.89	83.0558	1,108.89	83.7485	1,108.89	83.2933	1,108.89	82.9868	1,108.89	82.9008	1,108.89	82.0483	1,108.89	82.1654	1,108.89	81.5278	1,108.89	82.0141	1,108.89	81.4475	1,108.89	81.6865	1,108.89	81.1475	1,108.89	81.1845	1,108.89	80.435	1,108.89	81.2795	1,108.89	80.1388	1,108.89	81.2588	1,108.89	80.1226	1,108.89	80.2798	1,108.89	79.87	1,108.89	78.4528	1,108.89	78.8338	1,108.89	76.7587	1,108.89	75.5725	1,108.89	75.9286	1,108.89	73.4188	1,108.89	75.5421	1,108.89	73.5933	1,108.89	74.8585	1,108.89	72.6552	1,108.89	73.9592	1,108.89	73.0613	1,108.89	73.8335	1,108.89	73.4409
1,148.44	83.6609	1,148.44	83.1415	1,148.44	83.8726	1,148.44	82.8184	1,148.44	83.1372	1,148.44	82.4442	1,148.44	82.5608	1,148.44	82.3798	1,148.44	82.3557	1,148.44	81.9731	1,148.44	81.6057	1,148.44	81.2094	1,148.44	81.291	1,148.44	81.434	1,148.44	81.2375	1,148.44	81.4055	1,148.44	80.6298	1,148.44	81.0526	1,148.44	80.2349	1,148.44	80.7158	1,148.44	79.979	1,148.44	78.6857	1,148.44	79.5901	1,148.44	77.396	1,148.44	78.4292	1,148.44	77.4148	1,148.44	74.6476	1,148.44	73.7403	1,148.44	70.5536	1,148.44	71.2007	1,148.44	71.6684	1,148.44	71.3257	1,148.44	72.333	1,148.44	71.9489	1,148.44	73.2315	1,148.44	73.5479
1,189.45	83.8442	1,189.45	83.8148	1,189.45	83.3687	1,189.45	83.673	1,189.45	83.021	1,189.45	82.9038	1,189.45	82.6224	1,189.45	81.4192	1,189.45	81.7544	1,189.45	81.2276	1,189.45	81.5662	1,189.45	81.1141	1,189.45	81.7557	1,189.45	80.8892	1,189.45	82.0972	1,189.45	81.2849	1,189.45	82.255	1,189.45	81.5142	1,189.45	82.0622	1,189.45	82.0264	1,189.45	82.2146	1,189.45	82.1722	1,189.45	81.6392	1,189.45	80.5724	1,189.45	80.3351	1,189.45	77.8441	1,189.45	78.4472	1,189.45	75.344	1,189.45	74.0715	1,189.45	73.1861	1,189.45	69.0718	1,189.45	69.3054	1,189.45	70.84	1,189.45	69.5882	1,189.45	69.9295	1,189.45	69.8575
1,230.47	85.5098	1,230.47	85.3582	1,230.47	85.5012	1,230.47	84.61	1,230.47	85.3114	1,230.47	84.4152	1,230.47	84.6131	1,230.47	83.7239	1,230.47	83.8154	1,230.47	81.7403	1,230.47	81.9543	1,230.47	80.0774	1,230.47	80.0537	1,230.47	78.8398	1,230.47	78.7424	1,230.47	78.439	1,230.47	78.4329	1,230.47	78.9089	1,230.47	79.5693	1,230.47	80.0738	1,230.47	80.3333	1,230.47	81.1204	1,230.47	81.0342	1,230.47	80.9095	1,230.47	81.1999	1,230.47	80.8848	1,230.47	80.5503	1,230.47	79.6735	1,230.47	79.4175	1,230.47	78.4617	1,230.47	78.2724	1,230.47	78.9178	1,230.47	76.8969	1,230.47	77.3655	1,230.47	76.7986	1,230.47	76.5971
1,274.41	83.6611	1,274.41	83.7236	1,274.41	83.8017	1,274.41	84.1412	1,274.41	83.7424	1,274.41	83.6736	1,274.41	83.3274	1,274.41	82.7425	1,274.41	82.9142	1,274.41	82.3578	1,274.41	82.4407	1,274.41	81.7442	1,274.41	81.3125	1,274.41	80.5765	1,274.41	80.4237	1,274.41	78.4048	1,274.41	79.3809	1,274.41	76.4162	1,274.41	77.897	1,274.41	76.2533	1,274.41	77.2279	1,274.41	77.0534	1,274.41	76.0575	1,274.41	76.3894	1,274.41	76.5157	1,274.41	75.8035	1,274.41	77.0874	1,274.41	76.6616	1,274.41	76.4625	1,274.41	77.6777	1,274.41	76.6344	1,274.41	78.8287	1,274.41	76.7905	1,274.41	78.7124	1,274.41	78.4276	1,274.41	78.8589
1,319.82	83.1023	1,319.82	83.069	1,319.82	82.5103	1,319.82	82.1458	1,319.82	82.9828	1,319.82	82.5524	1,319.82	82.6525	1,319.82	82.2287	1,319.82	82.0381	1,319.82	81.5627	1,319.82	81.5003	1,319.82	80.8758	1,319.82	80.7303	1,319.82	80.3843	1,319.82	80.0865	1,319.82	79.7698	1,319.82	79.5593	1,319.82	78.5696	1,319.82	78.647	1,319.82	77.8446	1,319.82	76.4952	1,319.82	75.5027	1,319.82	74.5602	1,319.82	72.887	1,319.82	71.94	1,319.82	71.8064	1,319.82	70.9459	1,319.82	74.2216	1,319.82	72.5158	1,319.82	75.0714	1,319.82	74.7525	1,319.82	77.1931	1,319.82	76.7732	1,319.82	78.7709	1,319.82	77.3557	1,319.82	78.12
1,366.7	81.8544	1,366.7	81.7445	1,366.7	82.1664	1,366.7	81.9128	1,366.7	81.2467	1,366.7	80.9493	1,366.7	80.9235	1,366.7	80.6075	1,366.7	80.5067	1,366.7	80.4326	1,366.7	80.0393	1,366.7	79.7139	1,366.7	79.7929	1,366.7	79.558	1,366.7	79.7346	1,366.7	80.0898	1,366.7	78.8487	1,366.7	79.677	1,366.7	78.0236	1,366.7	77.9606	1,366.7	78.2249	1,366.7	75.9023	1,366.7	76.7833	1,366.7	73.8637	1,366.7	73.8671	1,366.7	69.6545	1,366.7	70.5719	1,366.7	66.0261	1,366.7	69.4666	1,366.7	72.0509	1,366.7	69.8809	1,366.7	74.6794	1,366.7	73.7803	1,366.7	75.282	1,366.7	75.9999	1,366.7	76.2234
1,413.57	83.1854	1,413.57	83.0342	1,413.57	83.2248	1,413.57	82.9188	1,413.57	83.0791	1,413.57	82.551	1,413.57	82.5539	1,413.57	80.8936	1,413.57	81.7698	1,413.57	79.8385	1,413.57	80.6645	1,413.57	79.5737	1,413.57	80.3068	1,413.57	79.1557	1,413.57	79.513	1,413.57	78.6763	1,413.57	79.5431	1,413.57	78.3946	1,413.57	79.046	1,413.57	78.3864	1,413.57	77.5487	1,413.57	77.7715	1,413.57	77.3439	1,413.57	76.539	1,413.57	76.056	1,413.57	72.5706	1,413.57	72.7053	1,413.57	65.8191	1,413.57	66.5607	1,413.57	68.7145	1,413.57	68.3659	1,413.57	72.9664	1,413.57	71.012	1,413.57	73.6355	1,413.57	73.4292	1,413.57	74.9942
1,463.38	84.0269	1,463.38	84.604	1,463.38	84.0812	1,463.38	84.0017	1,463.38	84.1099	1,463.38	83.5155	1,463.38	83.5478	1,463.38	82.7065	1,463.38	82.8509	1,463.38	81.1008	1,463.38	81.8193	1,463.38	80.423	1,463.38	80.0657	1,463.38	78.4726	1,463.38	79.0638	1,463.38	78.2958	1,463.38	79.1968	1,463.38	77.7318	1,463.38	79.0477	1,463.38	78.7333	1,463.38	79.277	1,463.38	78.5379	1,463.38	78.7178	1,463.38	76.6928	1,463.38	77.1524	1,463.38	73.9546	1,463.38	73.234	1,463.38	68.5077	1,463.38	68.8332	1,463.38	60.854	1,463.38	67.1325	1,463.38	69.4867	1,463.38	69.3291	1,463.38	73.6313	1,463.38	72.7212	1,463.38	73.0528
1,516.11	84.7584	1,516.11	84.517	1,516.11	84.4923	1,516.11	84.4203	1,516.11	84.0789	1,516.11	83.7374	1,516.11	83.5361	1,516.11	83.2632	1,516.11	82.7028	1,516.11	82.2978	1,516.11	82.0763	1,516.11	81.0005	1,516.11	80.9594	1,516.11	79.4485	1,516.11	79.3424	1,516.11	78.7769	1,516.11	78.6133	1,516.11	78.3607	1,516.11	79.1945	1,516.11	77.9203	1,516.11	78.9369	1,516.11	77.2654	1,516.11	77.4641	1,516.11	76.2835	1,516.11	75.4711	1,516.11	74.2841	1,516.11	71.4149	1,516.11	70.577	1,516.11	70.3038	1,516.11	66.8523	1,516.11	68.0182	1,516.11	69.7135	1,516.11	68.3891	1,516.11	71.7761	1,516.11	72.9747	1,516.11	74.0033
1,568.85	84.5337	1,568.85	84.7226	1,568.85	84.6722	1,568.85	84.6496	1,568.85	83.8783	1,568.85	83.529	1,568.85	83.4819	1,568.85	83.3223	1,568.85	82.6713	1,568.85	82.3832	1,568.85	81.181	1,568.85	81.1653	1,568.85	79.9947	1,568.85	79.0108	1,568.85	78.5545	1,568.85	78.7783	1,568.85	77.673	1,568.85	78.251	1,568.85	76.7285	1,568.85	78.1488	1,568.85	77.1206	1,568.85	78.4526	1,568.85	77.3035	1,568.85	77.3241	1,568.85	75.7256	1,568.85	76.3511	1,568.85	72.6202	1,568.85	70.494	1,568.85	68.5154	1,568.85	65.4642	1,568.85	65.2706	1,568.85	67.3398	1,568.85	69.2717	1,568.85	72.2514	1,568.85	71.7143	1,568.85	73.2078
1,624.51	85.9061	1,624.51	85.3688	1,624.51	85.5305	1,624.51	85.3391	1,624.51	85.1836	1,624.51	84.8155	1,624.51	84.3738	1,624.51	84.0275	1,624.51	83.8032	1,624.51	83.4375	1,624.51	82.6755	1,624.51	82.2796	1,624.51	81.4661	1,624.51	81.1216	1,624.51	80.0151	1,624.51	79.8762	1,624.51	79.1275	1,624.51	79.895	1,624.51	78.3828	1,624.51	79.4992	1,624.51	78.4593	1,624.51	78.6154	1,624.51	78.2051	1,624.51	76.934	1,624.51	76.8295	1,624.51	75.4045	1,624.51	76.1253	1,624.51	71.8086	1,624.51	70.2425	1,624.51	63.4588	1,624.51	61.9076	1,624.51	64.9836	1,624.51	65.5046	1,624.51	70.3475	1,624.51	70.0554	1,624.51	72.2613
1,681.64	85.3486	1,681.64	85.3266	1,681.64	85.0066	1,681.64	85.2806	1,681.64	85.1628	1,681.64	84.7002	1,681.64	84.2951	1,681.64	84.168	1,681.64	83.8389	1,681.64	82.987	1,681.64	82.8415	1,681.64	82.0059	1,681.64	81.7455	1,681.64	80.4375	1,681.64	80.3699	1,681.64	78.14	1,681.64	78.3803	1,681.64	78.3447	1,681.64	78.0283	1,681.64	78.8476	1,681.64	77.7551	1,681.64	80.0225	1,681.64	79.103	1,681.64	79.185	1,681.64	78.8591	1,681.64	76.8846	1,681.64	77.3505	1,681.64	74.5258	1,681.64	74.0856	1,681.64	66.9054	1,681.64	66.8234	1,681.64	59.8499	1,681.64	55.2908	1,681.64	66.3171	1,681.64	64.216	1,681.64	65.9926
1,741.7	86.5547	1,741.7	86.2921	1,741.7	86.4426	1,741.7	86.1861	1,741.7	86.091	1,741.7	85.9218	1,741.7	86.2279	1,741.7	85.5113	1,741.7	85.4721	1,741.7	84.4943	1,741.7	84.5859	1,741.7	83.1513	1,741.7	83.189	1,741.7	81.6589	1,741.7	82.4018	1,741.7	80.2319	1,741.7	80.2776	1,741.7	77.9762	1,741.7	79.4535	1,741.7	78.4378	1,741.7	79.6438	1,741.7	79.7825	1,741.7	80.5109	1,741.7	79.5078	1,741.7	80.8387	1,741.7	79.1585	1,741.7	79.6707	1,741.7	77.5089	1,741.7	77.8169	1,741.7	73.2141	1,741.7	75.4099	1,741.7	66.6705	1,741.7	69.8237	1,741.7	66.6864	1,741.7	68.9494	1,741.7	66.1826
1,803.22	86.6839	1,803.22	86.7677	1,803.22	86.7876	1,803.22	86.4739	1,803.22	86.2016	1,803.22	86.19	1,803.22	85.5646	1,803.22	85.5161	1,803.22	85.7142	1,803.22	85.4845	1,803.22	84.9503	1,803.22	84.137	1,803.22	83.844	1,803.22	83.0869	1,803.22	82.8023	1,803.22	80.8229	1,803.22	81.6373	1,803.22	79.4176	1,803.22	80.3853	1,803.22	78.2403	1,803.22	79.1465	1,803.22	79.2815	1,803.22	79.5465	1,803.22	79.4911	1,803.22	80.164	1,803.22	79.3348	1,803.22	79.652	1,803.22	77.7445	1,803.22	77.6398	1,803.22	75.2893	1,803.22	74.9067	1,803.22	69.5164	1,803.22	71.7317	1,803.22	70.456	1,803.22	70.311	1,803.22	72.0117
1,866.21	86.2746	1,866.21	86.4667	1,866.21	85.8326	1,866.21	86.1104	1,866.21	85.8136	1,866.21	85.8269	1,866.21	85.0706	1,866.21	85.472	1,866.21	84.4531	1,866.21	84.8489	1,866.21	83.8486	1,866.21	83.6931	1,866.21	83.0644	1,866.21	83.1178	1,866.21	82.5464	1,866.21	81.4261	1,866.21	81.2825	1,866.21	79.9924	1,866.21	79.6434	1,866.21	78.9033	1,866.21	78.7955	1,866.21	78.7969	1,866.21	78.8986	1,866.21	79.2533	1,866.21	79.4094	1,866.21	78.4018	1,866.21	78.544	1,866.21	76.9826	1,866.21	76.5875	1,866.21	72.185	1,866.21	71.8522	1,866.21	71.0436	1,866.21	70.6272	1,866.21	71.2799	1,866.21	73.0149	1,866.21	73.2495
1,932.13	85.6507	1,932.13	85.518	1,932.13	85.3624	1,932.13	85.1911	1,932.13	84.7161	1,932.13	84.8894	1,932.13	84.6467	1,932.13	84.4666	1,932.13	82.9863	1,932.13	83.9424	1,932.13	83.0613	1,932.13	82.709	1,932.13	81.6909	1,932.13	82.2435	1,932.13	80.8348	1,932.13	81.0985	1,932.13	79.682	1,932.13	79.5373	1,932.13	78.3797	1,932.13	77.977	1,932.13	78.4265	1,932.13	78.0207	1,932.13	78.2195	1,932.13	78.2746	1,932.13	79.0752	1,932.13	77.3213	1,932.13	78.1161	1,932.13	75.2477	1,932.13	75.6586	1,932.13	70.426	1,932.13	71.5073	1,932.13	65.0136	1,932.13	63.0429	1,932.13	68.2077	1,932.13	69.9982	1,932.13	71.5152
1,999.51	86.0544	1,999.51	86.1719	1,999.51	86.2438	1,999.51	85.8884	1,999.51	85.8211	1,999.51	85.1308	1,999.51	85.4944	1,999.51	84.2665	1,999.51	84.7359	1,999.51	83.6271	1,999.51	83.7917	1,999.51	82.8072	1,999.51	82.4364	1,999.51	80.9653	1,999.51	81.206	1,999.51	79.575	1,999.51	79.6027	1,999.51	78.0743	1,999.51	78.5464	1,999.51	76.8963	1,999.51	78.4856	1,999.51	77.1507	1,999.51	79.0248	1,999.51	78.8495	1,999.51	79.3115	1,999.51	78.6145	1,999.51	78.93	1,999.51	75.8446	1,999.51	76.1833	1,999.51	70.1327	1,999.51	72.207	1,999.51	49.1483	1,999.51	60.2423	1,999.51	65.9277	1,999.51	65.4748	1,999.51	70.5859
2,069.82	87.1665	2,069.82	87.0883	2,069.82	87.0316	2,069.82	86.808	2,069.82	87.1288	2,069.82	86.3992	2,069.82	86.4417	2,069.82	85.9228	2,069.82	86.0438	2,069.82	84.8673	2,069.82	85.0547	2,069.82	84.0751	2,069.82	84.0964	2,069.82	82.3917	2,069.82	82.114	2,069.82	80.3894	2,069.82	80.3404	2,069.82	77.5144	2,069.82	78.3359	2,069.82	77.0508	2,069.82	78.7578	2,069.82	78.6076	2,069.82	79.9122	2,069.82	80.946	2,069.82	80.9052	2,069.82	80.2008	2,069.82	80.7258	2,069.82	79.0229	2,069.82	79.1789	2,069.82	76.5562	2,069.82	74.8197	2,069.82	70.1151	2,069.82	64.0221	2,069.82	58.2085	2,069.82	59.1607	2,069.82	63.262
2,143.07	86.9195	2,143.07	86.5464	2,143.07	86.8104	2,143.07	86.3925	2,143.07	86.4427	2,143.07	85.9038	2,143.07	85.8812	2,143.07	85.3736	2,143.07	84.9966	2,143.07	84.9137	2,143.07	84.6849	2,143.07	84.4743	2,143.07	84.0356	2,143.07	83.428	2,143.07	82.5897	2,143.07	81.417	2,143.07	80.903	2,143.07	79.0688	2,143.07	77.5334	2,143.07	73.765	2,143.07	74.3373	2,143.07	73.3655	2,143.07	76.7729	2,143.07	79.6244	2,143.07	80.7185	2,143.07	81.878	2,143.07	82.0803	2,143.07	81.54	2,143.07	82.0861	2,143.07	79.1804	2,143.07	80.2839	2,143.07	77.5026	2,143.07	77.3785	2,143.07	73.9894	2,143.07	71.7424	2,143.07	72.0892
2,219.24	86.1204	2,219.24	85.976	2,219.24	86.2227	2,219.24	85.4984	2,219.24	85.3133	2,219.24	84.7184	2,219.24	84.78	2,219.24	83.5354	2,219.24	83.6146	2,219.24	83.0646	2,219.24	82.8923	2,219.24	82.7051	2,219.24	82.261	2,219.24	81.8551	2,219.24	81.2909	2,219.24	81.7198	2,219.24	80.6875	2,219.24	79.9942	2,219.24	79.4698	2,219.24	76.3791	2,219.24	75.8009	2,219.24	72.2534	2,219.24	70.6764	2,219.24	72.3605	2,219.24	74.0541	2,219.24	77.6437	2,219.24	77.6098	2,219.24	78.584	2,219.24	79.1126	2,219.24	78.5891	2,219.24	78.5549	2,219.24	76.7996	2,219.24	76.4572	2,219.24	75.5681	2,219.24	74.234	2,219.24	73.515
2,296.88	86.2507	2,296.88	86.2137	2,296.88	86.2386	2,296.88	85.493	2,296.88	85.8941	2,296.88	84.8206	2,296.88	85.112	2,296.88	83.312	2,296.88	84.3985	2,296.88	82.4057	2,296.88	83.0485	2,296.88	81.7924	2,296.88	82.0114	2,296.88	81.161	2,296.88	80.8647	2,296.88	80.8761	2,296.88	80.5171	2,296.88	79.5888	2,296.88	79.6709	2,296.88	77.2974	2,296.88	77.2827	2,296.88	74.308	2,296.88	74.6158	2,296.88	67.9153	2,296.88	71.0717	2,296.88	69.8342	2,296.88	74.3657	2,296.88	74.7545	2,296.88	76.617	2,296.88	74.7382	2,296.88	77.2426	2,296.88	75.7593	2,296.88	76.082	2,296.88	72.7433	2,296.88	76.2803	2,296.88	73.0438
2,378.91	86.078	2,378.91	85.9118	2,378.91	85.7042	2,378.91	85.5674	2,378.91	85.6342	2,378.91	84.8396	2,378.91	85.119	2,378.91	84.1916	2,378.91	84.2733	2,378.91	83.1402	2,378.91	83.1097	2,378.91	82.2481	2,378.91	82.0089	2,378.91	81.6637	2,378.91	80.8021	2,378.91	80.6511	2,378.91	79.7403	2,378.91	79.6057	2,378.91	78.9458	2,378.91	79.0108	2,378.91	77.6785	2,378.91	77.072	2,378.91	75.3703	2,378.91	72.6377	2,378.91	73.2251	2,378.91	71.3627	2,378.91	71.6759	2,378.91	71.2646	2,378.91	73.5204	2,378.91	71.1975	2,378.91	74.5482	2,378.91	71.801	2,378.91	74.6204	2,378.91	73.796	2,378.91	73.051	2,378.91	74.0963
2,462.4	85.0429	2,462.4	84.8327	2,462.4	84.9391	2,462.4	84.5359	2,462.4	84.5251	2,462.4	83.841	2,462.4	83.9871	2,462.4	83.2441	2,462.4	83.1275	2,462.4	82.466	2,462.4	82.3109	2,462.4	81.1421	2,462.4	80.9063	2,462.4	81.0727	2,462.4	80.3648	2,462.4	80.9706	2,462.4	79.4758	2,462.4	79.933	2,462.4	78.044	2,462.4	78.5966	2,462.4	75.7238	2,462.4	76.0504	2,462.4	73.4501	2,462.4	74.0682	2,462.4	72.3189	2,462.4	73.7272	2,462.4	73.371	2,462.4	73.9331	2,462.4	74.0824	2,462.4	73.973	2,462.4	73.8836	2,462.4	72.1429	2,462.4	71.9059	2,462.4	70.8289	2,462.4	70.3426	2,462.4	71.3083
2,548.83	85.7168	2,548.83	85.1717	2,548.83	85.5436	2,548.83	85.0518	2,548.83	85.1686	2,548.83	84.4052	2,548.83	84.7625	2,548.83	83.4568	2,548.83	83.9654	2,548.83	81.9951	2,548.83	82.6517	2,548.83	79.6029	2,548.83	81.2278	2,548.83	78.9474	2,548.83	79.8899	2,548.83	78.5714	2,548.83	78.8754	2,548.83	79.0487	2,548.83	78.1377	2,548.83	78.8114	2,548.83	77.5113	2,548.83	76.3477	2,548.83	75.8001	2,548.83	73.1936	2,548.83	71.9949	2,548.83	68.9287	2,548.83	70.5854	2,548.83	70.372	2,548.83	72.0474	2,548.83	72.7244	2,548.83	75.3831	2,548.83	74.4649	2,548.83	76.3512	2,548.83	74.6946	2,548.83	76.8335	2,548.83	75.0373
2,639.65	86.2049	2,639.65	86.2041	2,639.65	85.9836	2,639.65	85.8693	2,639.65	85.6765	2,639.65	85.2983	2,639.65	85.1791	2,639.65	84.4911	2,639.65	84.3764	2,639.65	83.251	2,639.65	83.6277	2,639.65	82.0321	2,639.65	82.745	2,639.65	80.8074	2,639.65	81.4024	2,639.65	80.6811	2,639.65	79.7067	2,639.65	79.5212	2,639.65	77.6136	2,639.65	78.9538	2,639.65	75.617	2,639.65	77.4547	2,639.65	74.5518	2,639.65	75.5053	2,639.65	73.3108	2,639.65	73.9772	2,639.65	73.6107	2,639.65	72.8749	2,639.65	72.0246	2,639.65	71.9249	2,639.65	73.1829	2,639.65	70.6823	2,639.65	71.5656	2,639.65	72.635	2,639.65	73.3481	2,639.65	72.7347
2,731.93	86.1638	2,731.93	86.3126	2,731.93	86.0547	2,731.93	85.8936	2,731.93	85.6742	2,731.93	85.4791	2,731.93	85.1601	2,731.93	84.8846	2,731.93	84.6498	2,731.93	83.7413	2,731.93	84.0513	2,731.93	82.6106	2,731.93	82.7788	2,731.93	80.5838	2,731.93	81.442	2,731.93	78.8004	2,731.93	80.3107	2,731.93	78.5707	2,731.93	78.4555	2,731.93	78.1578	2,731.93	77.1608	2,731.93	77.0094	2,731.93	75.5957	2,731.93	76.5788	2,731.93	73.7616	2,731.93	73.7082	2,731.93	70.9578	2,731.93	72.4899	2,731.93	69.9595	2,731.93	72.6293	2,731.93	71.0073	2,731.93	72.52	2,731.93	72.5577	2,731.93	74.7135	2,731.93	75.0793	2,731.93	73.915
2,828.61	86.6416	2,828.61	86.7344	2,828.61	86.8002	2,828.61	86.0923	2,828.61	86.4049	2,828.61	85.8046	2,828.61	85.919	2,828.61	84.6455	2,828.61	85.1247	2,828.61	84.0061	2,828.61	84.6085	2,828.61	83.376	2,828.61	83.6517	2,828.61	81.3997	2,828.61	82.4909	2,828.61	79.8025	2,828.61	81.3273	2,828.61	78.9	2,828.61	79.4091	2,828.61	76.8508	2,828.61	78.3473	2,828.61	75.0628	2,828.61	76.2973	2,828.61	75.235	2,828.61	74.5509	2,828.61	74.357	2,828.61	73.8136	2,828.61	72.4219	2,828.61	72.2632	2,828.61	71.7919	2,828.61	71.5486	2,828.61	70.978	2,828.61	70.9817	2,828.61	72.978	2,828.61	73.6862	2,828.61	73.8591
2,928.22	86.6214	2,928.22	86.7803	2,928.22	86.414	2,928.22	86.3004	2,928.22	86.1922	2,928.22	86.1143	2,928.22	85.6374	2,928.22	85.3234	2,928.22	85.2706	2,928.22	84.1092	2,928.22	84.051	2,928.22	83.1326	2,928.22	83.0331	2,928.22	81.6749	2,928.22	81.7102	2,928.22	79.8757	2,928.22	80.5348	2,928.22	79.8405	2,928.22	80.3345	2,928.22	79.1935	2,928.22	78.6006	2,928.22	77.8707	2,928.22	76.491	2,928.22	74.2178	2,928.22	73.4796	2,928.22	72.6784	2,928.22	71.533	2,928.22	73.714	2,928.22	71.4333	2,928.22	73.791	2,928.22	73.2449	2,928.22	73.4363	2,928.22	71.9268	2,928.22	72.2165	2,928.22	73.405	2,928.22	71.574
3,030.76	86.5147	3,030.76	86.1464	3,030.76	85.9539	3,030.76	85.8029	3,030.76	85.6636	3,030.76	85.4788	3,030.76	85.0985	3,030.76	84.9705	3,030.76	84.6399	3,030.76	84.2995	3,030.76	84.2505	3,030.76	83.2744	3,030.76	83.7181	3,030.76	81.9205	3,030.76	82.1964	3,030.76	78.8654	3,030.76	80.162	3,030.76	78.2252	3,030.76	78.6617	3,030.76	78.2635	3,030.76	78.756	3,030.76	78.6533	3,030.76	76.9014	3,030.76	76.0372	3,030.76	75.0221	3,030.76	71.8317	3,030.76	70.6648	3,030.76	67.6172	3,030.76	67.4978	3,030.76	69.3352	3,030.76	71.4046	3,030.76	72.7501	3,030.76	74.4577	3,030.76	75.9286	3,030.76	75.9435	3,030.76	76.1254
3,137.7	87.4209	3,137.7	87.02	3,137.7	87.3698	3,137.7	86.894	3,137.7	86.4651	3,137.7	85.9423	3,137.7	85.9667	3,137.7	85.3139	3,137.7	85.0873	3,137.7	84.9021	3,137.7	84.8544	3,137.7	83.9073	3,137.7	84.395	3,137.7	83.1152	3,137.7	83.7999	3,137.7	81.5019	3,137.7	81.9872	3,137.7	78.2469	3,137.7	80.296	3,137.7	77.5719	3,137.7	78.4588	3,137.7	78.4614	3,137.7	78.2922	3,137.7	77.3463	3,137.7	76.9544	3,137.7	75.3459	3,137.7	74.6477	3,137.7	70.9323	3,137.7	70.5617	3,137.7	66.1337	3,137.7	62.8763	3,137.7	70.2401	3,137.7	71.4574	3,137.7	74.8593	3,137.7	75.5696	3,137.7	75.9895
3,249.02	87.5058	3,249.02	87.3594	3,249.02	87.5604	3,249.02	87.1131	3,249.02	87.1946	3,249.02	86.2608	3,249.02	86.8369	3,249.02	85.4713	3,249.02	85.647	3,249.02	84.5932	3,249.02	84.2229	3,249.02	83.3194	3,249.02	83.4341	3,249.02	82.9008	3,249.02	83.5239	3,249.02	82.9303	3,249.02	82.9436	3,249.02	79.8898	3,249.02	80.7936	3,249.02	77.7084	3,249.02	77.4569	3,249.02	77.1035	3,249.02	76.3216	3,249.02	77.034	3,249.02	77.8462	3,249.02	77.7056	3,249.02	77.4688	3,249.02	75.23	3,249.02	74.6129	3,249.02	70.2783	3,249.02	67.8029	3,249.02	58.9935	3,249.02	59.823	3,249.02	72.1202	3,249.02	71.761	3,249.02	74.1342
3,363.28	87.6827	3,363.28	87.659	3,363.28	87.8926	3,363.28	87.0595	3,363.28	87.6097	3,363.28	86.4528	3,363.28	87.0139	3,363.28	85.7801	3,363.28	86.2655	3,363.28	84.8349	3,363.28	85.2865	3,363.28	83.4885	3,363.28	83.7988	3,363.28	81.9501	3,363.28	82.6379	3,363.28	81.3003	3,363.28	82.0485	3,363.28	80.6211	3,363.28	81.529	3,363.28	79.582	3,363.28	79.5878	3,363.28	75.7337	3,363.28	76.3931	3,363.28	74.2719	3,363.28	72.0447	3,363.28	74.5108	3,363.28	73.7802	3,363.28	76.169	3,363.28	76.4907	3,363.28	75.7137	3,363.28	75.3458	3,363.28	70.3319	3,363.28	69.5981	3,363.28	63.2768	3,363.28	61.8086	3,363.28	54.3726
3,481.93	88.3448	3,481.93	88.4501	3,481.93	88.3122	3,481.93	87.701	3,481.93	88.5466	3,481.93	87.1152	3,481.93	87.6259	3,481.93	86.247	3,481.93	87.3874	3,481.93	85.3416	3,481.93	85.8727	3,481.93	84.3283	3,481.93	84.9241	3,481.93	83.1266	3,481.93	83.5743	3,481.93	81.2797	3,481.93	82.1124	3,481.93	80.0504	3,481.93	81.1538	3,481.93	79.4111	3,481.93	80.2256	3,481.93	78.401	3,481.93	79.2792	3,481.93	75.9197	3,481.93	76.5272	3,481.93	73.4609	3,481.93	74.062	3,481.93	73.434	3,481.93	74.403	3,481.93	74.5657	3,481.93	75.0445	3,481.93	73.5206	3,481.93	73.1105	3,481.93	72.0596	3,481.93	71.4833	3,481.93	72.3905
3,604.98	88.6654	3,604.98	88.5537	3,604.98	88.4693	3,604.98	87.7684	3,604.98	88.2076	3,604.98	87.4127	3,604.98	87.5896	3,604.98	85.925	3,604.98	86.7413	3,604.98	84.7383	3,604.98	85.9017	3,604.98	84.2393	3,604.98	84.8918	3,604.98	83.269	3,604.98	83.1761	3,604.98	81.553	3,604.98	82.0223	3,604.98	79.6502	3,604.98	80.0642	3,604.98	78.668	3,604.98	79.161	3,604.98	77.0877	3,604.98	78.749	3,604.98	78.0107	3,604.98	76.8318	3,604.98	74.6441	3,604.98	73.9582	3,604.98	73.4219	3,604.98	71.4191	3,604.98	72.6933	3,604.98	74.9742	3,604.98	73.2119	3,604.98	72.8971	3,604.98	74.2235	3,604.98	73.2106	3,604.98	73.9307
3,732.42	89.2914	3,732.42	88.8907	3,732.42	88.6837	3,732.42	88.1686	3,732.42	88.6258	3,732.42	87.2475	3,732.42	87.8406	3,732.42	86.5982	3,732.42	86.8562	3,732.42	84.978	3,732.42	85.8889	3,732.42	83.9691	3,732.42	84.9808	3,732.42	83.1995	3,732.42	83.8012	3,732.42	80.7809	3,732.42	82.4855	3,732.42	80.302	3,732.42	80.7965	3,732.42	77.2204	3,732.42	79.2845	3,732.42	77.1307	3,732.42	77.4111	3,732.42	77.4552	3,732.42	77.3304	3,732.42	76.113	3,732.42	75.5747	3,732.42	72.9025	3,732.42	73.3342	3,732.42	69.633	3,732.42	73.182	3,732.42	68.5607	3,732.42	70.3041	3,732.42	72.3758	3,732.42	73.6649	3,732.42	72.8979
3,864.26	89.4423	3,864.26	89.0297	3,864.26	89.6692	3,864.26	88.843	3,864.26	88.6683	3,864.26	88.1707	3,864.26	88.0749	3,864.26	87.1008	3,864.26	86.8318	3,864.26	85.2334	3,864.26	86.3257	3,864.26	84.0156	3,864.26	85.0945	3,864.26	82.3565	3,864.26	83.954	3,864.26	81.7931	3,864.26	82.9759	3,864.26	80.806	3,864.26	81.8519	3,864.26	78.7057	3,864.26	79.4478	3,864.26	77.335	3,864.26	76.9944	3,864.26	76.8365	3,864.26	77.5578	3,864.26	75.9921	3,864.26	75.6635	3,864.26	73.6408	3,864.26	74.686	3,864.26	72.8949	3,864.26	73.5928	3,864.26	70.8235	3,864.26	73.7594	3,864.26	72.7946	3,864.26	74.1277	3,864.26	73.417
4,000.49	89.1602	4,000.49	89.201	4,000.49	89.3144	4,000.49	88.4004	4,000.49	88.4324	4,000.49	87.7413	4,000.49	87.6974	4,000.49	86.5911	4,000.49	86.5245	4,000.49	85.5368	4,000.49	85.4138	4,000.49	83.6582	4,000.49	84.5069	4,000.49	81.9618	4,000.49	83.4234	4,000.49	81.6029	4,000.49	81.2537	4,000.49	80.2256	4,000.49	79.9828	4,000.49	79.1796	4,000.49	79.6816	4,000.49	75.6646	4,000.49	77.2639	4,000.49	75.8587	4,000.49	75.5265	4,000.49	74.8187	4,000.49	75.8688	4,000.49	74.2875	4,000.49	74.8589	4,000.49	72.8141	4,000.49	72.2162	4,000.49	71.0117	4,000.49	73.0793	4,000.49	70.4428	4,000.49	73.0078	4,000.49	72.3444
4,141.11	89.0173	4,141.11	88.8422	4,141.11	89.6406	4,141.11	88.2483	4,141.11	88.4132	4,141.11	87.6339	4,141.11	87.5227	4,141.11	86.1074	4,141.11	86.0885	4,141.11	85.9669	4,141.11	85.0887	4,141.11	84.0481	4,141.11	83.8126	4,141.11	83.3955	4,141.11	83.514	4,141.11	82.1601	4,141.11	81.9539	4,141.11	81.1588	4,141.11	81.0532	4,141.11	79.3943	4,141.11	78.6745	4,141.11	78.4149	4,141.11	76.8724	4,141.11	76.4581	4,141.11	75.5519	4,141.11	76.0674	4,141.11	76.1102	4,141.11	74.399	4,141.11	72.3548	4,141.11	70.8682	4,141.11	71.7813	4,141.11	70.8929	4,141.11	73.0051	4,141.11	72.1316	4,141.11	74.0585	4,141.11	72.4414
4,287.6	88.9974	4,287.6	88.3385	4,287.6	88.8547	4,287.6	88.0943	4,287.6	88.6601	4,287.6	86.9299	4,287.6	87.7606	4,287.6	85.5962	4,287.6	87.1916	4,287.6	85.6435	4,287.6	85.4957	4,287.6	84.4059	4,287.6	83.7774	4,287.6	82.946	4,287.6	81.8005	4,287.6	80.801	4,287.6	80.928	4,287.6	80.1396	4,287.6	80.6275	4,287.6	78.8217	4,287.6	78.7233	4,287.6	78.0338	4,287.6	76.9973	4,287.6	75.4514	4,287.6	76.1972	4,287.6	76.0646	4,287.6	74.4151	4,287.6	72.2185	4,287.6	73.8899	4,287.6	71.9562	4,287.6	71.1446	4,287.6	70.6596	4,287.6	72.8424	4,287.6	71.3735	4,287.6	74.6448	4,287.6	74.4364
4,438.48	87.8805	4,438.48	88.5764	4,438.48	86.3222	4,438.48	87.5123	4,438.48	87.9036	4,438.48	86.6549	4,438.48	87.1187	4,438.48	87.2793	4,438.48	85.9804	4,438.48	84.8779	4,438.48	84.5731	4,438.48	84.2247	4,438.48	82.3537	4,438.48	82.6316	4,438.48	81.4987	4,438.48	80.318	4,438.48	80.5466	4,438.48	80.3435	4,438.48	79.0253	4,438.48	78.4618	4,438.48	78.1108	4,438.48	77.0765	4,438.48	77.2329	4,438.48	74.0427	4,438.48	73.6909	4,438.48	74.7316	4,438.48	72.9212	4,438.48	73.9783	4,438.48	73.6348	4,438.48	74.4802	4,438.48	70.9284	4,438.48	69.4067	4,438.48	66.9437	4,438.48	70.0263	4,438.48	67.7537	4,438.48	73.2772
4,595.21	87.1399	4,595.21	87.9867	4,595.21	87.3975	4,595.21	87.9924	4,595.21	87.3562	4,595.21	87.8089	4,595.21	87.6594	4,595.21	87.5251	4,595.21	85.7028	4,595.21	84.6488	4,595.21	83.7517	4,595.21	82.6314	4,595.21	83.7825	4,595.21	80.2275	4,595.21	81.6757	4,595.21	79.8651	4,595.21	80.1247	4,595.21	78.3399	4,595.21	78.4543	4,595.21	78.2539	4,595.21	78.2748	4,595.21	75.1101	4,595.21	76.6967	4,595.21	75.5344	4,595.21	75.0184	4,595.21	72.6472	4,595.21	74.7067	4,595.21	75.2905	4,595.21	74.9157	4,595.21	74.4943	4,595.21	73.0534	4,595.21	71.85	4,595.21	69.5619	4,595.21	71.0592	4,595.21	72.8702	4,595.21	69.5923
4,756.35	86.6459	4,756.35	85.9717	4,756.35	87.7416	4,756.35	87.0239	4,756.35	86.2057	4,756.35	86.679	4,756.35	85.5027	4,756.35	84.0815	4,756.35	85.33	4,756.35	83.2872	4,756.35	84.5542	4,756.35	81.8027	4,756.35	83.4238	4,756.35	80.8981	4,756.35	82.1951	4,756.35	80.2645	4,756.35	79.378	4,756.35	75.3598	4,756.35	78.5491	4,756.35	76.3422	4,756.35	76.6406	4,756.35	76.8592	4,756.35	75.7845	4,756.35	75.5557	4,756.35	75.2027	4,756.35	75.2121	4,756.35	73.2551	4,756.35	75.2517	4,756.35	69.293	4,756.35	72.9317	4,756.35	72.8827	4,756.35	70.3842	4,756.35	68.851	4,756.35	69.4948	4,756.35	71.7381	4,756.35	71.9362
4,924.8	87.7231	4,924.8	86.9851	4,924.8	87.3836	4,924.8	86.6403	4,924.8	87.0851	4,924.8	85.6605	4,924.8	85.4333	4,924.8	84.2202	4,924.8	86.0867	4,924.8	84.098	4,924.8	85.7691	4,924.8	83.6026	4,924.8	82.6213	4,924.8	82.4713	4,924.8	80.4399	4,924.8	78.3146	4,924.8	79.9387	4,924.8	77.8322	4,924.8	78.8689	4,924.8	76.2597	4,924.8	77.1953	4,924.8	78.2673	4,924.8	75.8353	4,924.8	73.7955	4,924.8	75.803	4,924.8	74.302	4,924.8	71.7828	4,924.8	72.9799	4,924.8	73.0815	4,924.8	72.2812	4,924.8	71.0306	4,924.8	71.4532	4,924.8	71.0507	4,924.8	70.954	4,924.8	69.7831	4,924.8	71.2735
5,097.66	86.2776	5,097.66	86.5192	5,097.66	86.1981	5,097.66	84.4897	5,097.66	86.4573	5,097.66	84.5353	5,097.66	85.9615	5,097.66	85.8479	5,097.66	85.1077	5,097.66	84.0993	5,097.66	83.8982	5,097.66	82.2136	5,097.66	82.0782	5,097.66	79.684	5,097.66	79.6796	5,097.66	78.5926	5,097.66	79.0069	5,097.66	78.2327	5,097.66	77.7989	5,097.66	77.4359	5,097.66	75.4305	5,097.66	73.9825	5,097.66	76.125	5,097.66	73.0625	5,097.66	71.0363	5,097.66	67.2984	5,097.66	72.9249	5,097.66	70.8542	5,097.66	73.3047	5,097.66	70.4254	5,097.66	72.3178	5,097.66	69.9118	5,097.66	69.0987	5,097.66	65.6742	5,097.66	67.32	5,097.66	68.2702
5,277.83	86.6344	5,277.83	86.8002	5,277.83	87.2409	5,277.83	86.9178	5,277.83	85.6473	5,277.83	86.5189	5,277.83	86.1014	5,277.83	86.4746	5,277.83	83.7587	5,277.83	85.4478	5,277.83	81.855	5,277.83	83.2822	5,277.83	81.7297	5,277.83	81.1954	5,277.83	81.0741	5,277.83	81.358	5,277.83	78.2515	5,277.83	78.237	5,277.83	76.8601	5,277.83	77.7999	5,277.83	74.2022	5,277.83	74.9035	5,277.83	72.6503	5,277.83	73.2237	5,277.83	74.0557	5,277.83	73.3908	5,277.83	72.7096	5,277.83	71.1455	5,277.83	67.7651	5,277.83	73.7234	5,277.83	70.8259	5,277.83	69.8027	5,277.83	64.9006	5,277.83	71.7475	5,277.83	66.6639	5,277.83	70.3639
5,463.87	86.8059	5,463.87	86.329	5,463.87	85.7402	5,463.87	87.357	5,463.87	85.3874	5,463.87	85.8495	5,463.87	84.9805	5,463.87	84.1082	5,463.87	84.3993	5,463.87	82.774	5,463.87	84.0505	5,463.87	82.258	5,463.87	82.636	5,463.87	81.5887	5,463.87	81.217	5,463.87	79.733	5,463.87	80.0907	5,463.87	76.8465	5,463.87	76.4865	5,463.87	72.6323	5,463.87	76.4051	5,463.87	72.9956	5,463.87	73.5737	5,463.87	71.9461	5,463.87	72.1488	5,463.87	73.443	5,463.87	69.6729	5,463.87	70.2854	5,463.87	70.2021	5,463.87	71.9485	5,463.87	69.4384	5,463.87	67.4562	5,463.87	69.4753	5,463.87	69.8606	5,463.87	68.874	5,463.87	68.2731
5,657.23	86.1881	5,657.23	86.625	5,657.23	84.6033	5,657.23	85.2259	5,657.23	85.9939	5,657.23	85.2821	5,657.23	84.4369	5,657.23	83.3473	5,657.23	85.1538	5,657.23	82.0133	5,657.23	84.4435	5,657.23	81.5728	5,657.23	83.2067	5,657.23	82.2313	5,657.23	80.4666	5,657.23	79.6579	5,657.23	79.0426	5,657.23	79.1411	5,657.23	76.584	5,657.23	73.5027	5,657.23	76.1525	5,657.23	74.1568	5,657.23	75.5156	5,657.23	73.9673	5,657.23	73.165	5,657.23	69.0629	5,657.23	73.2406	5,657.23	71.3821	5,657.23	73.8806	5,657.23	66.4857	5,657.23	72.1138	5,657.23	69.688	5,657.23	71.8297	5,657.23	69.059	5,657.23	66.6543	5,657.23	66.0989
5,856.45	86.0656	5,856.45	86.185	5,856.45	86.9492	5,856.45	84.6565	5,856.45	85.7696	5,856.45	84.4908	5,856.45	85.6747	5,856.45	84.3765	5,856.45	84.3879	5,856.45	83.6803	5,856.45	82.5112	5,856.45	82.1241	5,856.45	82.7247	5,856.45	81.5037	5,856.45	81.5879	5,856.45	78.6794	5,856.45	77.2348	5,856.45	76.8503	5,856.45	77.6944	5,856.45	77.508	5,856.45	74.7926	5,856.45	74.6144	5,856.45	74.2282	5,856.45	73.3549	5,856.45	73.6123	5,856.45	70.9221	5,856.45	71.5932	5,856.45	70.0994	5,856.45	71.926	5,856.45	69.8371	5,856.45	71.2951	5,856.45	69.2488	5,856.45	70.1792	5,856.45	68.7051	5,856.45	65.6671	5,856.45	69.5121
6,062.99	86.3261	6,062.99	85.7028	6,062.99	87.2807	6,062.99	86.0889	6,062.99	86.413	6,062.99	84.7245	6,062.99	85.8725	6,062.99	85.4164	6,062.99	84.4939	6,062.99	84.2313	6,062.99	83.3126	6,062.99	82.9925	6,062.99	81.8664	6,062.99	78.6139	6,062.99	80.1041	6,062.99	78.6663	6,062.99	78.9062	6,062.99	75.1573	6,062.99	77.0494	6,062.99	76.9112	6,062.99	75.1936	6,062.99	72.389	6,062.99	71.3231	6,062.99	74.2605	6,062.99	72.9804	6,062.99	71.9192	6,062.99	66.868	6,062.99	70.2309	6,062.99	65.6082	6,062.99	70.2254	6,062.99	67.3482	6,062.99	66.3435	6,062.99	66.148	6,062.99	65.375	6,062.99	69.3992	6,062.99	66.5846
6,276.86	86.6933	6,276.86	86.24	6,276.86	86.5307	6,276.86	86.1851	6,276.86	86.7201	6,276.86	86.3683	6,276.86	85.212	6,276.86	85.6488	6,276.86	85.5817	6,276.86	84.2368	6,276.86	84.6453	6,276.86	83.0784	6,276.86	81.8433	6,276.86	81.2061	6,276.86	80.5922	6,276.86	79.2155	6,276.86	80.3832	6,276.86	76.9451	6,276.86	77.9072	6,276.86	73.6814	6,276.86	75.0837	6,276.86	73.6992	6,276.86	75.0857	6,276.86	72.4272	6,276.86	69.2272	6,276.86	71.4223	6,276.86	72.3904	6,276.86	65.3101	6,276.86	70.2735	6,276.86	69.2301	6,276.86	67.406	6,276.86	68.4159	6,276.86	70.8576	6,276.86	59.3889	6,276.86	67.0597	6,276.86	67.1982
6,498.05	86.4514	6,498.05	86.2695	6,498.05	86.7295	6,498.05	86.0994	6,498.05	86.1049	6,498.05	85.5929	6,498.05	86.1318	6,498.05	84.5524	6,498.05	85.0483	6,498.05	84.05	6,498.05	83.8466	6,498.05	82.7525	6,498.05	82.3609	6,498.05	82.3731	6,498.05	81.6551	6,498.05	79.3938	6,498.05	79.5062	6,498.05	78.3828	6,498.05	76.7476	6,498.05	74.0907	6,498.05	75.1612	6,498.05	73.6052	6,498.05	73.12	6,498.05	70.2861	6,498.05	71.603	6,498.05	70.9159	6,498.05	68.936	6,498.05	68.9721	6,498.05	67.4252	6,498.05	69.5058	6,498.05	70.3595	6,498.05	67.6942	6,498.05	68.633	6,498.05	64.2858	6,498.05	66.2137	6,498.05	67.6011
6,726.56	86.8371	6,726.56	87.2291	6,726.56	86.7209	6,726.56	87.1136	6,726.56	86.0301	6,726.56	85.8438	6,726.56	86.2049	6,726.56	85.3898	6,726.56	84.6614	6,726.56	84.1657	6,726.56	83.4995	6,726.56	82.6756	6,726.56	82.204	6,726.56	80.6161	6,726.56	79.4737	6,726.56	78.9457	6,726.56	77.6474	6,726.56	76.034	6,726.56	77.0673	6,726.56	77.3973	6,726.56	75.1709	6,726.56	74.804	6,726.56	73.2346	6,726.56	69.6999	6,726.56	72.2884	6,726.56	67.3873	6,726.56	69.4784	6,726.56	69.888	6,726.56	68.379	6,726.56	67.6852	6,726.56	68.3545	6,726.56	67.0795	6,726.56	64.3706	6,726.56	66.5991	6,726.56	67.9736	6,726.56	65.695
6,963.87	87.5048	6,963.87	87.4585	6,963.87	86.6273	6,963.87	87.1679	6,963.87	87.0781	6,963.87	86.7265	6,963.87	85.6218	6,963.87	85.8209	6,963.87	85.3111	6,963.87	83.5919	6,963.87	84.3171	6,963.87	82.4424	6,963.87	82.5825	6,963.87	79.3708	6,963.87	79.5817	6,963.87	80.0312	6,963.87	79.9295	6,963.87	77.1344	6,963.87	76.2649	6,963.87	76.6109	6,963.87	75.7566	6,963.87	73.5856	6,963.87	73.0883	6,963.87	72.3352	6,963.87	72.063	6,963.87	71.5042	6,963.87	68.7119	6,963.87	66.8281	6,963.87	66.5922	6,963.87	63.9421	6,963.87	66.6835	6,963.87	68.1721	6,963.87	67.9346	6,963.87	64.8024	6,963.87	66.7945	6,963.87	65.9631
7,209.96	87.1079	7,209.96	86.8773	7,209.96	87.1311	7,209.96	86.5102	7,209.96	86.7727	7,209.96	86.0832	7,209.96	86.1338	7,209.96	85.2956	7,209.96	84.5703	7,209.96	83.9954	7,209.96	83.8228	7,209.96	82.1999	7,209.96	82.5853	7,209.96	81.038	7,209.96	81.7478	7,209.96	78.7609	7,209.96	78.3619	7,209.96	77.4831	7,209.96	76.3709	7,209.96	73.9411	7,209.96	74.7845	7,209.96	72.6669	7,209.96	72.9607	7,209.96	71.6417	7,209.96	70.6199	7,209.96	71.04	7,209.96	68.1304	7,209.96	69.1157	7,209.96	70.3438	7,209.96	68.8988	7,209.96	68.6207	7,209.96	67.635	7,209.96	69.6339	7,209.96	66.9748	7,209.96	67.3402	7,209.96	67.0616
7,464.84	86.8577	7,464.84	86.5788	7,464.84	87.0422	7,464.84	86.1677	7,464.84	86.1495	7,464.84	86.2029	7,464.84	85.5119	7,464.84	84.9886	7,464.84	84.5412	7,464.84	83.7908	7,464.84	82.5575	7,464.84	81.6262	7,464.84	81.357	7,464.84	80.8791	7,464.84	79.7601	7,464.84	78.5954	7,464.84	77.2657	7,464.84	76.8754	7,464.84	76.4999	7,464.84	74.9	7,464.84	74.7389	7,464.84	73.6164	7,464.84	71.9027	7,464.84	70.8058	7,464.84	70.5839	7,464.84	61.8561	7,464.84	69.3803	7,464.84	69.701	7,464.84	68.507	7,464.84	68.5763	7,464.84	63.7977	7,464.84	67.4891	7,464.84	61.7862	7,464.84	67.1942	7,464.84	64.9137	7,464.84	64.4073
7,727.05	86.8274	7,727.05	86.5048	7,727.05	86.2289	7,727.05	86.1478	7,727.05	86.4996	7,727.05	85.1289	7,727.05	84.9971	7,727.05	84.7667	7,727.05	84.7815	7,727.05	82.2088	7,727.05	83.2832	7,727.05	81.9242	7,727.05	80.9462	7,727.05	79.6639	7,727.05	79.2931	7,727.05	77.4016	7,727.05	76.5615	7,727.05	75.4634	7,727.05	76.0548	7,727.05	75.1492	7,727.05	72.6332	7,727.05	72.8621	7,727.05	72.236	7,727.05	71.3916	7,727.05	68.2695	7,727.05	68.1114	7,727.05	69.7078	7,727.05	67.7232	7,727.05	68.6458	7,727.05	65.2617	7,727.05	66.5751	7,727.05	66.7838	7,727.05	65.4736	7,727.05	66.302	7,727.05	60.804	7,727.05	59.2786
7,999.51	85.7626	7,999.51	86.0795	7,999.51	86.0788	7,999.51	85.155	7,999.51	85.5853	7,999.51	84.9524	7,999.51	84.6033	7,999.51	83.9388	7,999.51	83.8789	7,999.51	82.3264	7,999.51	82.5299	7,999.51	80.6256	7,999.51	81.2509	7,999.51	78.5774	7,999.51	79.8505	7,999.51	76.1466	7,999.51	76.4952	7,999.51	74.5463	7,999.51	74.7589	7,999.51	72.2436	7,999.51	73.7318	7,999.51	71.923	7,999.51	71.7039	7,999.51	68.2035	7,999.51	69.8454	7,999.51	69.4738	7,999.51	68.1836	7,999.51	66.9949	7,999.51	67.4763	7,999.51	66.128	7,999.51	65.8289	7,999.51	65.9976	7,999.51	66.0908	7,999.51	63.8497	7,999.51	65.1407	7,999.51	63.5504
8,282.23	86	8,282.23	85.7962	8,282.23	85.9244	8,282.23	85.6528	8,282.23	85.017	8,282.23	84.4077	8,282.23	85.2377	8,282.23	83.1242	8,282.23	83.7126	8,282.23	82.9339	8,282.23	81.6116	8,282.23	79.4016	8,282.23	80.5494	8,282.23	78.3517	8,282.23	77.3054	8,282.23	75.9539	8,282.23	77.1952	8,282.23	73.9806	8,282.23	73.6276	8,282.23	71.2123	8,282.23	72.1702	8,282.23	70.9839	8,282.23	69.8488	8,282.23	67.7481	8,282.23	66.8326	8,282.23	66.1494	8,282.23	67.6475	8,282.23	65.9121	8,282.23	64.9958	8,282.23	62.4455	8,282.23	65.1033	8,282.23	63.2173	8,282.23	61.6134	8,282.23	63.3843	8,282.23	64.834	8,282.23	64.8274
8,573.73	86.2083	8,573.73	85.6283	8,573.73	85.2996	8,573.73	85.2613	8,573.73	85.2016	8,573.73	84.6786	8,573.73	83.9416	8,573.73	83.955	8,573.73	83.2717	8,573.73	81.1214	8,573.73	82.4101	8,573.73	80.895	8,573.73	79.8881	8,573.73	78.6923	8,573.73	77.1076	8,573.73	76.1617	8,573.73	75.9721	8,573.73	72.7845	8,573.73	73.2723	8,573.73	71.6413	8,573.73	71.2152	8,573.73	69.0205	8,573.73	70.1026	8,573.73	69.6092	8,573.73	67.5066	8,573.73	67.5792	8,573.73	62.8422	8,573.73	65.348	8,573.73	65.8902	8,573.73	66.8561	8,573.73	64.6751	8,573.73	60.7382	8,573.73	61.5549	8,573.73	64.6735	8,573.73	60.6155	8,573.73	65.5177
8,876.95	85.6506	8,876.95	85.5958	8,876.95	85.8956	8,876.95	85.4582	8,876.95	85.1395	8,876.95	84.9191	8,876.95	84.6417	8,876.95	83.8641	8,876.95	82.5852	8,876.95	82.4913	8,876.95	81.9516	8,876.95	80.8058	8,876.95	79.4042	8,876.95	78.9853	8,876.95	78.4966	8,876.95	75.8337	8,876.95	75.6973	8,876.95	72.7517	8,876.95	73.6809	8,876.95	72.3164	8,876.95	71.1676	8,876.95	69.8079	8,876.95	69.5782	8,876.95	67.0141	8,876.95	63.5694	8,876.95	65.7696	8,876.95	68.8471	8,876.95	64.3892	8,876.95	65.4052	8,876.95	64.0915	8,876.95	64.1344	8,876.95	63.305	8,876.95	62.246	8,876.95	63.6442	8,876.95	65.2091	8,876.95	64.8308
9,188.96	85.6823	9,188.96	85.8957	9,188.96	85.7005	9,188.96	85.117	9,188.96	85.4963	9,188.96	84.3176	9,188.96	84.6474	9,188.96	84.0464	9,188.96	83.7297	9,188.96	82.4071	9,188.96	81.6869	9,188.96	79.7977	9,188.96	80.3869	9,188.96	77.122	9,188.96	78.0287	9,188.96	77.2367	9,188.96	75.2574	9,188.96	74.8393	9,188.96	73.4988	9,188.96	71.9942	9,188.96	70.3472	9,188.96	69.7208	9,188.96	69.7769	9,188.96	67.3479	9,188.96	66.9949	9,188.96	64.7632	9,188.96	64.6351	9,188.96	65.2926	9,188.96	65.4128	9,188.96	65.0942	9,188.96	63.2877	9,188.96	64.058	9,188.96	61.7375	9,188.96	63.2932	9,188.96	60.6992	9,188.96	61.189
9,514.16	85.7889	9,514.16	85.8248	9,514.16	85.7328	9,514.16	85.2595	9,514.16	85.408	9,514.16	84.9502	9,514.16	83.9954	9,514.16	84.0525	9,514.16	83.7714	9,514.16	82.0611	9,514.16	81.5677	9,514.16	80.3991	9,514.16	79.7861	9,514.16	77.7207	9,514.16	78.0132	9,514.16	76.035	9,514.16	73.3572	9,514.16	74.2855	9,514.16	72.8341	9,514.16	71.3516	9,514.16	70.7438	9,514.16	69.4513	9,514.16	70.0602	9,514.16	65.5845	9,514.16	65.0747	9,514.16	65.533	9,514.16	66.4721	9,514.16	62.7921	9,514.16	65.4808	9,514.16	58.155	9,514.16	60.9763	9,514.16	62.3778	9,514.16	62.9424	9,514.16	61.4919	9,514.16	56.2922	9,514.16	60.4027
9,849.61	86.0554	9,849.61	85.5025	9,849.61	85.457	9,849.61	85.4341	9,849.61	85.2157	9,849.61	84.5941	9,849.61	84.3491	9,849.61	83.3705	9,849.61	83.146	9,849.61	81.7309	9,849.61	81.4909	9,849.61	79.2959	9,849.61	79.4145	9,849.61	77.6888	9,849.61	76.5113	9,849.61	74.6791	9,849.61	75.1659	9,849.61	72.381	9,849.61	72.2252	9,849.61	69.7676	9,849.61	70.1123	9,849.61	67.524	9,849.61	67.7314	9,849.61	66.1503	9,849.61	66.5048	9,849.61	67.9475	9,849.61	65.9408	9,849.61	64.3732	9,849.61	61.1322	9,849.61	62.4918	9,849.61	63.8902	9,849.61	62.6505	9,849.61	62.5683	9,849.61	60.3653	9,849.61	59.0243	9,849.61	61.0413
10,196.8	85.6676	10,196.8	85.539	10,196.8	85.6175	10,196.8	85.3859	10,196.8	85.1718	10,196.8	84.6958	10,196.8	84.1672	10,196.8	83.215	10,196.8	82.6861	10,196.8	81.2161	10,196.8	81.6798	10,196.8	79.372	10,196.8	78.9378	10,196.8	76.6573	10,196.8	76.1744	10,196.8	74.2505	10,196.8	73.9684	10,196.8	73.2736	10,196.8	72.1953	10,196.8	69.9305	10,196.8	70.9005	10,196.8	67.6771	10,196.8	67.8097	10,196.8	63.5103	10,196.8	65.8761	10,196.8	65.5632	10,196.8	61.4368	10,196.8	63.5967	10,196.8	62.7701	10,196.8	62.2129	10,196.8	58.9437	10,196.8	61.7853	10,196.8	59.4461	10,196.8	57.5668	10,196.8	58.4265	10,196.8	58.5743
10,555.7	85.5576	10,555.7	85.7681	10,555.7	85.9019	10,555.7	85.0903	10,555.7	85.3021	10,555.7	84.1121	10,555.7	84.3923	10,555.7	82.9064	10,555.7	82.4561	10,555.7	80.895	10,555.7	80.8368	10,555.7	79.0437	10,555.7	78.5258	10,555.7	76.7394	10,555.7	75.9521	10,555.7	74.5539	10,555.7	74.0634	10,555.7	71.4416	10,555.7	71.3211	10,555.7	69.4478	10,555.7	67.5734	10,555.7	67.4755	10,555.7	67.6952	10,555.7	64.2543	10,555.7	62.8103	10,555.7	63.0144	10,555.7	64.055	10,555.7	63.5607	10,555.7	63.2213	10,555.7	61.2688	10,555.7	60.9265	10,555.7	61.4515	10,555.7	56.3194	10,555.7	59.4339	10,555.7	61.0547	10,555.7	62.2764
10,927.7	85.4495	10,927.7	85.333	10,927.7	85.4286	10,927.7	84.7164	10,927.7	84.5795	10,927.7	83.6819	10,927.7	83.508	10,927.7	82.4192	10,927.7	81.9713	10,927.7	80.1695	10,927.7	79.9841	10,927.7	77.9637	10,927.7	78.1082	10,927.7	75.8417	10,927.7	75.9431	10,927.7	73.7125	10,927.7	72.1076	10,927.7	71.4535	10,927.7	70.3022	10,927.7	70.2736	10,927.7	67.0869	10,927.7	67.6318	10,927.7	66.371	10,927.7	63.4649	10,927.7	64.125	10,927.7	59.3497	10,927.7	62.6809	10,927.7	60.9448	10,927.7	61.1026	10,927.7	59.7545	10,927.7	59.2121	10,927.7	57.0576	10,927.7	54.7683	10,927.7	53.2231	10,927.7	54.486	10,927.7	61.6086
11,313	85.6056	11,313	85.3732	11,313	85.038	11,313	84.6404	11,313	84.4452	11,313	83.4176	11,313	83.3024	11,313	82.1747	11,313	81.6448	11,313	79.5946	11,313	79.2782	11,313	77.5814	11,313	77.7806	11,313	75.0837	11,313	75.2084	11,313	72.9963	11,313	72.4637	11,313	70.7956	11,313	70.4111	11,313	68.6232	11,313	67.0563	11,313	67.5793	11,313	63.1505	11,313	64.5608	11,313	63.4622	11,313	60.3508	11,313	60.0273	11,313	57.7199	11,313	60.9053	11,313	56.7541	11,313	60.1109	11,313	58.6066	11,313	57.6564	11,313	58.1741	11,313	56.4829	11,313	59.0334
11,712.9	85.3249	11,712.9	85.0766	11,712.9	84.967	11,712.9	83.8222	11,712.9	84.0913	11,712.9	83.0403	11,712.9	82.5581	11,712.9	81.2604	11,712.9	81.1703	11,712.9	79.4974	11,712.9	79.5543	11,712.9	76.4479	11,712.9	77.1514	11,712.9	74.717	11,712.9	73.8332	11,712.9	72.4244	11,712.9	71.6699	11,712.9	70.6571	11,712.9	69.703	11,712.9	69.2017	11,712.9	66.948	11,712.9	67.1493	11,712.9	64.8141	11,712.9	64.1818	11,712.9	63.4628	11,712.9	61.2292	11,712.9	58.9046	11,712.9	61.0473	11,712.9	62.4493	11,712.9	58.0649	11,712.9	58.9148	11,712.9	58.0174	11,712.9	60.3311	11,712.9	58.764	11,712.9	57.0762	11,712.9	60.2953
12,126	85.1436	12,126	84.9921	12,126	84.7565	12,126	84.0892	12,126	84.0839	12,126	83.1629	12,126	82.5903	12,126	81.2362	12,126	80.8377	12,126	79.0497	12,126	78.6909	12,126	77.5743	12,126	76.1716	12,126	74.0334	12,126	74.2353	12,126	72.1809	12,126	70.8044	12,126	69.1845	12,126	68.5337	12,126	67.3696	12,126	65.6151	12,126	65.4811	12,126	64.9845	12,126	64.5293	12,126	61.5888	12,126	57.3834	12,126	60.1655	12,126	56.866	12,126	62.019	12,126	58.3712	12,126	56.9479	12,126	58.2794	12,126	58.4513	12,126	52.9786	12,126	54.9463	12,126	58.9125
12,553.7	84.9384	12,553.7	84.8219	12,553.7	84.8834	12,553.7	83.8532	12,553.7	83.4362	12,553.7	82.3498	12,553.7	82.2914	12,553.7	80.9866	12,553.7	80.0284	12,553.7	79.1054	12,553.7	77.7149	12,553.7	76.0138	12,553.7	75.4086	12,553.7	73.9713	12,553.7	73.1135	12,553.7	70.6897	12,553.7	70.4458	12,553.7	69.3852	12,553.7	68.9244	12,553.7	67.4521	12,553.7	65.2694	12,553.7	65.3766	12,553.7	65.6212	12,553.7	63.3817	12,553.7	61.3483	12,553.7	54.0429	12,553.7	59.3	12,553.7	58.9557	12,553.7	59.1474	12,553.7	55.9875	12,553.7	54.9364	12,553.7	55.2293	12,553.7	58.6355	12,553.7	57.9006	12,553.7	57.3315	12,553.7	58.3209
12,996.1	85.123	12,996.1	84.872	12,996.1	84.7017	12,996.1	83.7091	12,996.1	83.5138	12,996.1	82.8904	12,996.1	81.9588	12,996.1	81.3423	12,996.1	79.8718	12,996.1	77.7914	12,996.1	77.6911	12,996.1	76.4365	12,996.1	75.4239	12,996.1	73.9369	12,996.1	72.3944	12,996.1	72.0937	12,996.1	70.6765	12,996.1	69.0642	12,996.1	67.262	12,996.1	65.0956	12,996.1	66.9483	12,996.1	65.3441	12,996.1	63.4121	12,996.1	62.1222	12,996.1	61.6533	12,996.1	59.0093	12,996.1	59.2027	12,996.1	55.8822	12,996.1	59.9382	12,996.1	58.2083	12,996.1	57.387	12,996.1	58.3018	12,996.1	59.0414	12,996.1	58.2792	12,996.1	53.3761	12,996.1	57.0775
13,454.6	85.1844	13,454.6	84.7836	13,454.6	84.5729	13,454.6	84.0201	13,454.6	83.4127	13,454.6	82.3462	13,454.6	81.4438	13,454.6	80.5083	13,454.6	79.6125	13,454.6	78.3778	13,454.6	77.3709	13,454.6	75.777	13,454.6	74.6595	13,454.6	72.1653	13,454.6	71.5202	13,454.6	70.8162	13,454.6	70.5781	13,454.6	66.7758	13,454.6	67.0991	13,454.6	66.4566	13,454.6	64.6363	13,454.6	64.2391	13,454.6	63.3052	13,454.6	60.1387	13,454.6	62.2956	13,454.6	57.7453	13,454.6	56.9207	13,454.6	58.6668	13,454.6	58.6284	13,454.6	59.0014	13,454.6	55.6929	13,454.6	59.5218	13,454.6	59.6966	13,454.6	53.7678	13,454.6	55.1258	13,454.6	56.8843
13,929.2	85.1546	13,929.2	85.2928	13,929.2	84.5358	13,929.2	83.7091	13,929.2	83.4072	13,929.2	82.1702	13,929.2	81.7141	13,929.2	80.1695	13,929.2	79.4999	13,929.2	77.7641	13,929.2	77.2864	13,929.2	75.339	13,929.2	73.7908	13,929.2	71.3435	13,929.2	70.6549	13,929.2	70.1578	13,929.2	69.5668	13,929.2	68.4797	13,929.2	66.5592	13,929.2	65.1352	13,929.2	64.2867	13,929.2	64.0219	13,929.2	61.4904	13,929.2	61.2633	13,929.2	60.0254	13,929.2	59.0477	13,929.2	56.9826	13,929.2	55.7049	13,929.2	54.7464	13,929.2	57.2799	13,929.2	57.6891	13,929.2	60.2212	13,929.2	59.8316	13,929.2	52.5453	13,929.2	56.9832	13,929.2	53.994
14,419.9	85.016	14,419.9	84.6222	14,419.9	84.8178	14,419.9	83.5108	14,419.9	83.1774	14,419.9	82.0712	14,419.9	81.0361	14,419.9	79.6083	14,419.9	78.542	14,419.9	76.8804	14,419.9	76.3204	14,419.9	74.9053	14,419.9	73.5777	14,419.9	71.8208	14,419.9	70.8076	14,419.9	69.7838	14,419.9	69.0164	14,419.9	67.5521	14,419.9	66.2906	14,419.9	64.8858	14,419.9	64.3857	14,419.9	62.6918	14,419.9	61.3223	14,419.9	60.4478	14,419.9	60.411	14,419.9	58.8712	14,419.9	52.6806	14,419.9	57.2491	14,419.9	55.4534	14,419.9	56.2365	14,419.9	53.6268	14,419.9	56.9873	14,419.9	56.2498	14,419.9	54.7675	14,419.9	54.4175	14,419.9	53.9685
14,928.2	85.0658	14,928.2	84.4526	14,928.2	84.5136	14,928.2	83.5572	14,928.2	83.0624	14,928.2	81.4149	14,928.2	80.863	14,928.2	79.6085	14,928.2	78.3579	14,928.2	76.5049	14,928.2	75.9173	14,928.2	74.6079	14,928.2	73.82	14,928.2	72.5725	14,928.2	71.4497	14,928.2	70.0362	14,928.2	69.7063	14,928.2	67.7477	14,928.2	66.9465	14,928.2	64.7467	14,928.2	63.1616	14,928.2	63.3174	14,928.2	62.3999	14,928.2	60.3744	14,928.2	59.0181	14,928.2	60.6191	14,928.2	54.4956	14,928.2	55.9978	14,928.2	57.0442	14,928.2	56.591	14,928.2	54.9832	14,928.2	57.1357	14,928.2	56.3744	14,928.2	52.9059	14,928.2	52.0104	14,928.2	54.5148
15,455.6	85.1536	15,455.6	85.0369	15,455.6	84.4095	15,455.6	83.477	15,455.6	83.1067	15,455.6	81.7066	15,455.6	80.9089	15,455.6	79.6419	15,455.6	78.3687	15,455.6	76.8441	15,455.6	76.4287	15,455.6	75.1546	15,455.6	74.4456	15,455.6	72.5162	15,455.6	71.6997	15,455.6	70.2748	15,455.6	69.721	15,455.6	67.73	15,455.6	66.6354	15,455.6	64.5197	15,455.6	64.6356	15,455.6	62.0852	15,455.6	62.9252	15,455.6	60.8733	15,455.6	59.575	15,455.6	59.0169	15,455.6	57.5334	15,455.6	54.2675	15,455.6	56.1564	15,455.6	55.0108	15,455.6	56.4713	15,455.6	56.1306	15,455.6	58.4522	15,455.6	55.133	15,455.6	53.4095	15,455.6	55.4476
16,000.5	85.0543	16,000.5	84.8508	16,000.5	84.5006	16,000.5	83.3875	16,000.5	82.7608	16,000.5	81.5248	16,000.5	80.6627	16,000.5	79.4207	16,000.5	78.6859	16,000.5	76.8518	16,000.5	76.4962	16,000.5	75.1923	16,000.5	74.3698	16,000.5	72.0938	16,000.5	71.9669	16,000.5	69.6256	16,000.5	68.91	16,000.5	67.8514	16,000.5	67.3319	16,000.5	65.8817	16,000.5	65.5044	16,000.5	63.2618	16,000.5	62.5655	16,000.5	61.32	16,000.5	60.8616	16,000.5	58.0446	16,000.5	57.2163	16,000.5	55.4426	16,000.5	57.6863	16,000.5	52.3951	16,000.5	55.289	16,000.5	55.9518	16,000.5	56.1633	16,000.5	55.2704	16,000.5	54.6271	16,000.5	51.1748
16,564.5	84.7915	16,564.5	84.3495	16,564.5	84.223	16,564.5	83.1236	16,564.5	82.4292	16,564.5	81.1266	16,564.5	80.2481	16,564.5	79.5146	16,564.5	78.2132	16,564.5	76.6407	16,564.5	77.0727	16,564.5	75.0172	16,564.5	74.8304	16,564.5	72.4035	16,564.5	72.668	16,564.5	70.9227	16,564.5	70.0662	16,564.5	68.8503	16,564.5	67.5186	16,564.5	65.3609	16,564.5	64.9822	16,564.5	63.8449	16,564.5	62.5948	16,564.5	59.6043	16,564.5	59.2572	16,564.5	59.8192	16,564.5	60.0281	16,564.5	57.9219	16,564.5	56.659	16,564.5	51.997	16,564.5	54.5361	16,564.5	55.2326	16,564.5	57.4238	16,564.5	53.8346	16,564.5	54.6898	16,564.5	54.3287
17,148.9	84.5122	17,148.9	84.06	17,148.9	83.5274	17,148.9	82.774	17,148.9	82.2802	17,148.9	81.0476	17,148.9	80.277	17,148.9	79.952	17,148.9	78.5569	17,148.9	76.9632	17,148.9	77.182	17,148.9	75.7349	17,148.9	75.528	17,148.9	73.1706	17,148.9	73.0433	17,148.9	70.4757	17,148.9	69.7316	17,148.9	68.6637	17,148.9	67.6826	17,148.9	64.3427	17,148.9	64.4686	17,148.9	64.3751	17,148.9	62.2668	17,148.9	60.1931	17,148.9	59.9355	17,148.9	59.1856	17,148.9	58.7753	17,148.9	58.1439	17,148.9	55.1893	17,148.9	54.4675	17,148.9	57.0655	17,148.9	53.9853	17,148.9	56.7334	17,148.9	50.1751	17,148.9	51.9144	17,148.9	53.5309
17,752.4	84.2344	17,752.4	83.9263	17,752.4	83.4095	17,752.4	82.5728	17,752.4	81.8387	17,752.4	81.1348	17,752.4	80.3794	17,752.4	79.5456	17,752.4	78.6594	17,752.4	77.228	17,752.4	77.0189	17,752.4	75.6658	17,752.4	75.3351	17,752.4	73.6737	17,752.4	73.1381	17,752.4	70.264	17,752.4	69.9472	17,752.4	68.3303	17,752.4	67.3781	17,752.4	65.323	17,752.4	64.2369	17,752.4	62.5536	17,752.4	63.2431	17,752.4	58.3427	17,752.4	59.0607	17,752.4	59.3653	17,752.4	58.6104	17,752.4	55.6474	17,752.4	55.3146	17,752.4	50.0934	17,752.4	53.6166	17,752.4	55.6243	17,752.4	54.2099	17,752.4	49.2719	17,752.4	53.778	17,752.4	48.4272
18,379.4	83.9839	18,379.4	83.7459	18,379.4	83.1857	18,379.4	82.2888	18,379.4	81.5011	18,379.4	80.5814	18,379.4	79.7634	18,379.4	79.0044	18,379.4	78.2001	18,379.4	76.9798	18,379.4	76.8713	18,379.4	75.7531	18,379.4	75.1904	18,379.4	73.1436	18,379.4	72.3483	18,379.4	70.3371	18,379.4	70.0887	18,379.4	67.5462	18,379.4	67.029	18,379.4	65.309	18,379.4	64.5654	18,379.4	62.1391	18,379.4	62.8053	18,379.4	58.1027	18,379.4	57.8907	18,379.4	55.1747	18,379.4	56.7559	18,379.4	52.5222	18,379.4	54.012	18,379.4	51.4636	18,379.4	51.9574	18,379.4	49.274	18,379.4	52.3382	18,379.4	53.5291	18,379.4	52.3926	18,379.4	51.8649
19,026.9	84.0979	19,026.9	83.5735	19,026.9	83.3351	19,026.9	82.1615	19,026.9	81.2683	19,026.9	80.258	19,026.9	79.4183	19,026.9	79.3812	19,026.9	78.1712	19,026.9	76.8081	19,026.9	77.2189	19,026.9	75.2689	19,026.9	74.6584	19,026.9	71.8302	19,026.9	71.6797	19,026.9	69.304	19,026.9	69.2919	19,026.9	66.8613	19,026.9	66.3924	19,026.9	63.4827	19,026.9	64.2251	19,026.9	61.0121	19,026.9	60.7739	19,026.9	57.3224	19,026.9	58.9072	19,026.9	56.1157	19,026.9	55.8481	19,026.9	52.0719	19,026.9	53.562	19,026.9	47.3941	19,026.9	51.5379	19,026.9	52.7264	19,026.9	54.0895	19,026.9	46.8031	19,026.9	50.6926	19,026.9	49.2379
19,697.8	84.3511	19,697.8	83.9115	19,697.8	83.5328	19,697.8	82.6013	19,697.8	81.714	19,697.8	80.5443	19,697.8	79.966	19,697.8	79.508	19,697.8	78.3494	19,697.8	76.8208	19,697.8	77.2375	19,697.8	75.1791	19,697.8	74.9408	19,697.8	71.7418	19,697.8	72.0507	19,697.8	69.0088	19,697.8	69.6507	19,697.8	66.3386	19,697.8	66.8224	19,697.8	62.8203	19,697.8	63.702	19,697.8	59.5142	19,697.8	60.5813	19,697.8	57.2325	19,697.8	57.5482	19,697.8	55.712	19,697.8	57.9413	19,697.8	52.9125	19,697.8	54.1866	19,697.8	51.3394	19,697.8	50.8206	19,697.8	51.7484	19,697.8	52.2147	19,697.8	46.3818	19,697.8	50.8035	19,697.8	46.341
19,999.5	84.5584	19,999.5	84.4979	19,999.5	83.4912	19,999.5	82.8364	19,999.5	81.8228	19,999.5	80.8539	19,999.5	80.1496	19,999.5	79.8386	19,999.5	78.9015	19,999.5	76.3865	19,999.5	77.3218	19,999.5	74.48	19,999.5	75.3781	19,999.5	72.8875	19,999.5	71.8023	19,999.5	69.7584	19,999.5	69.7844	19,999.5	65.5286	19,999.5	67.1281	19,999.5	65.5168	19,999.5	66.432	19,999.5	64.9885	19,999.5	60.6618	19,999.5	60.7648	19,999.5	52.143	19,999.5	57.4476	19,999.5	64.5286	19,999.5	43.4636	19,999.5	51.993	19,999.5	56.4396	19,999.5	56.5283	19,999.5	58.1671	19,999.5	61.2504	19,999.5	59.8896	19,999.5	48.5961	19,999.5	57.1103
