"SPL Horizontal"
"On-Axis"		"10°"		"-10°"		"20°"		"-20°"		"30°"		"-30°"		"40°"		"-40°"		"50°"		"-50°"		"60°"		"-60°"		"70°"		"-70°"		"80°"		"-80°"		"90°"		"-90°"		"100°"		"-100°"		"110°"		"-110°"		"120°"		"-120°"		"130°"		"-130°"		"140°"		"-140°"		"150°"		"-150°"		"160°"		"-160°"		"170°"		"-170°"		"180°"
"Frequency / Hz"	"Sound Pressure Level / dB (re 20 µPa/V)  [2.83  V @ 1. m]"	"Frequency / Hz"	"Sound Pressure Level / dB (re 20 µPa/V)  [2.83  V @ 1. m]"	"Frequency / Hz"	"Sound Pressure Level / dB (re 20 µPa/V)  [2.83  V @ 1. m]"	"Frequency / Hz"	"Sound Pressure Level / dB (re 20 µPa/V)  [2.83  V @ 1. m]"	"Frequency / Hz"	"Sound Pressure Level / dB (re 20 µPa/V)  [2.83  V @ 1. m]"	"Frequency / Hz"	"Sound Pressure Level / dB (re 20 µPa/V)  [2.83  V @ 1. m]"	"Frequency / Hz"	"Sound Pressure Level / dB (re 20 µPa/V)  [2.83  V @ 1. m]"	"Frequency / Hz"	"Sound Pressure Level / dB (re 20 µPa/V)  [2.83  V @ 1. m]"	"Frequency / Hz"	"Sound Pressure Level / dB (re 20 µPa/V)  [2.83  V @ 1. m]"	"Frequency / Hz"	"Sound Pressure Level / dB (re 20 µPa/V)  [2.83  V @ 1. m]"	"Frequency / Hz"	"Sound Pressure Level / dB (re 20 µPa/V)  [2.83  V @ 1. m]"	"Frequency / Hz"	"Sound Pressure Level / dB (re 20 µPa/V)  [2.83  V @ 1. m]"	"Frequency / Hz"	"Sound Pressure Level / dB (re 20 µPa/V)  [2.83  V @ 1. m]"	"Frequency / Hz"	"Sound Pressure Level / dB (re 20 µPa/V)  [2.83  V @ 1. m]"	"Frequency / Hz"	"Sound Pressure Level / dB (re 20 µPa/V)  [2.83  V @ 1. m]"	"Frequency / Hz"	"Sound Pressure Level / dB (re 20 µPa/V)  [2.83  V @ 1. m]"	"Frequency / Hz"	"Sound Pressure Level / dB (re 20 µPa/V)  [2.83  V @ 1. m]"	"Frequency / Hz"	"Sound Pressure Level / dB (re 20 µPa/V)  [2.83  V @ 1. m]"	"Frequency / Hz"	"Sound Pressure Level / dB (re 20 µPa/V)  [2.83  V @ 1. m]"	"Frequency / Hz"	"Sound Pressure Level / dB (re 20 µPa/V)  [2.83  V @ 1. m]"	"Frequency / Hz"	"Sound Pressure Level / dB (re 20 µPa/V)  [2.83  V @ 1. m]"	"Frequency / Hz"	"Sound Pressure Level / dB (re 20 µPa/V)  [2.83  V @ 1. m]"	"Frequency / Hz"	"Sound Pressure Level / dB (re 20 µPa/V)  [2.83  V @ 1. m]"	"Frequency / Hz"	"Sound Pressure Level / dB (re 20 µPa/V)  [2.83  V @ 1. m]"	"Frequency / Hz"	"Sound Pressure Level / dB (re 20 µPa/V)  [2.83  V @ 1. m]"	"Frequency / Hz"	"Sound Pressure Level / dB (re 20 µPa/V)  [2.83  V @ 1. m]"	"Frequency / Hz"	"Sound Pressure Level / dB (re 20 µPa/V)  [2.83  V @ 1. m]"	"Frequency / Hz"	"Sound Pressure Level / dB (re 20 µPa/V)  [2.83  V @ 1. m]"	"Frequency / Hz"	"Sound Pressure Level / dB (re 20 µPa/V)  [2.83  V @ 1. m]"	"Frequency / Hz"	"Sound Pressure Level / dB (re 20 µPa/V)  [2.83  V @ 1. m]"	"Frequency / Hz"	"Sound Pressure Level / dB (re 20 µPa/V)  [2.83  V @ 1. m]"	"Frequency / Hz"	"Sound Pressure Level / dB (re 20 µPa/V)  [2.83  V @ 1. m]"	"Frequency / Hz"	"Sound Pressure Level / dB (re 20 µPa/V)  [2.83  V @ 1. m]"	"Frequency / Hz"	"Sound Pressure Level / dB (re 20 µPa/V)  [2.83  V @ 1. m]"	"Frequency / Hz"	"Sound Pressure Level / dB (re 20 µPa/V)  [2.83  V @ 1. m]"	"Frequency / Hz"	"Sound Pressure Level / dB (re 20 µPa/V)  [2.83  V @ 1. m]"
20.5078	51.1389	20.5078	51.1727	20.5078	51.0904	20.5078	51.1909	20.5078	51.0284	20.5078	51.1931	20.5078	50.9553	20.5078	51.1792	20.5078	50.8739	20.5078	51.1493	20.5078	50.7877	20.5078	51.1036	20.5078	50.7001	20.5078	51.0423	20.5078	50.6141	20.5078	50.9659	20.5078	50.531	20.5078	50.8751	20.5078	50.4501	20.5078	50.7709	20.5078	50.3693	20.5078	50.6546	20.5078	50.2853	20.5078	50.5283	20.5078	50.1962	20.5078	50.3949	20.5078	50.1031	20.5078	50.2591	20.5078	50.0115	20.5078	50.1282	20.5078	49.9308	20.5078	50.0117	20.5078	49.8729	20.5078	49.9205	20.5078	49.8484	20.5078	49.8642
21.9727	56.6667	21.9727	56.6518	21.9727	56.6765	21.9727	56.6321	21.9727	56.6804	21.9727	56.6082	21.9727	56.678	21.9727	56.5803	21.9727	56.6686	21.9727	56.5489	21.9727	56.652	21.9727	56.5143	21.9727	56.6284	21.9727	56.4772	21.9727	56.5986	21.9727	56.4384	21.9727	56.5641	21.9727	56.3993	21.9727	56.527	21.9727	56.3612	21.9727	56.4892	21.9727	56.326	21.9727	56.4525	21.9727	56.2956	21.9727	56.4179	21.9727	56.2715	21.9727	56.3857	21.9727	56.2548	21.9727	56.3559	21.9727	56.2459	21.9727	56.3284	21.9727	56.2449	21.9727	56.3033	21.9727	56.251	21.9727	56.2813	21.9727	56.2635
23.4375	58.317	23.4375	58.3125	23.4375	58.3152	23.4375	58.3018	23.4375	58.3069	23.4375	58.285	23.4375	58.2921	23.4375	58.2624	23.4375	58.2706	23.4375	58.234	23.4375	58.2425	23.4375	58.2003	23.4375	58.208	23.4375	58.1617	23.4375	58.1676	23.4375	58.1189	23.4375	58.1222	23.4375	58.0729	23.4375	58.0731	23.4375	58.0248	23.4375	58.0218	23.4375	57.976	23.4375	57.9701	23.4375	57.928	23.4375	57.9196	23.4375	57.8823	23.4375	57.8724	23.4375	57.8407	23.4375	57.8303	23.4375	57.8048	23.4375	57.7953	23.4375	57.7767	23.4375	57.7694	23.4375	57.758	23.4375	57.754	23.4375	57.7502
24.9023	60.9019	24.9023	60.8939	24.9023	60.9045	24.9023	60.8806	24.9023	60.9014	24.9023	60.8624	24.9023	60.892	24.9023	60.8396	24.9023	60.8763	24.9023	60.8125	24.9023	60.8539	24.9023	60.7812	24.9023	60.8249	24.9023	60.7463	24.9023	60.7893	24.9023	60.708	24.9023	60.7477	24.9023	60.6669	24.9023	60.7009	24.9023	60.6236	24.9023	60.65	24.9023	60.5788	24.9023	60.5966	24.9023	60.5336	24.9023	60.5427	24.9023	60.489	24.9023	60.4905	24.9023	60.4468	24.9023	60.4428	24.9023	60.4093	24.9023	60.4025	24.9023	60.3789	24.9023	60.3723	24.9023	60.3583	24.9023	60.3542	24.9023	60.3496
26.3672	63.025	26.3672	63.014	26.3672	63.0301	26.3672	62.9972	26.3672	63.0292	26.3672	62.9749	26.3672	63.0221	26.3672	62.9473	26.3672	63.0089	26.3672	62.9148	26.3672	62.9895	26.3672	62.8776	26.3672	62.9641	26.3672	62.8364	26.3672	62.9328	26.3672	62.7918	26.3672	62.8959	26.3672	62.7449	26.3672	62.854	26.3672	62.6967	26.3672	62.8078	26.3672	62.6487	26.3672	62.7582	26.3672	62.6026	26.3672	62.7065	26.3672	62.5604	26.3672	62.6547	26.3672	62.5241	26.3672	62.6049	26.3672	62.4957	26.3672	62.5596	26.3672	62.4773	26.3672	62.5214	26.3672	62.4703	26.3672	62.4928	26.3672	62.4754
27.832	64.797	27.832	64.786	27.832	64.8024	27.832	64.7697	27.832	64.8021	27.832	64.7484	27.832	64.7958	27.832	64.7224	27.832	64.7836	27.832	64.692	27.832	64.7654	27.832	64.6578	27.832	64.7413	27.832	64.6202	27.832	64.7116	27.832	64.58	27.832	64.6767	27.832	64.5381	27.832	64.637	27.832	64.4954	27.832	64.5934	27.832	64.4533	27.832	64.5473	27.832	64.4132	27.832	64.5	27.832	64.3769	27.832	64.4535	27.832	64.3459	27.832	64.4099	27.832	64.3219	27.832	64.3714	27.832	64.3062	27.832	64.3399	27.832	64.2998	27.832	64.3168	27.832	64.3033
29.2969	66.3017	29.2969	66.2861	29.2969	66.3099	29.2969	66.2632	29.2969	66.3104	29.2969	66.2333	29.2969	66.3034	29.2969	66.1969	29.2969	66.2889	29.2969	66.1547	29.2969	66.2671	29.2969	66.1073	29.2969	66.2383	29.2969	66.0558	29.2969	66.2027	29.2969	66.0011	29.2969	66.1607	29.2969	65.9448	29.2969	66.1127	29.2969	65.8883	29.2969	66.0593	29.2969	65.8335	29.2969	66.0016	29.2969	65.7824	29.2969	65.941	29.2969	65.737	29.2969	65.8798	29.2969	65.6995	29.2969	65.8206	29.2969	65.6718	29.2969	65.7665	29.2969	65.6555	29.2969	65.7204	29.2969	65.652	29.2969	65.6849	29.2969	65.6618
30.7617	67.9678	30.7617	67.9531	30.7617	67.9764	30.7617	67.9326	30.7617	67.9786	30.7617	67.9066	30.7617	67.9743	30.7617	67.8755	30.7617	67.9634	30.7617	67.8399	30.7617	67.946	30.7617	67.8001	30.7617	67.922	30.7617	67.7571	30.7617	67.8917	30.7617	67.7116	30.7617	67.8554	30.7617	67.6645	30.7617	67.8133	30.7617	67.6173	30.7617	67.7663	30.7617	67.5713	30.7617	67.7154	30.7617	67.5281	30.7617	67.662	30.7617	67.4896	30.7617	67.6084	30.7617	67.4574	30.7617	67.5568	30.7617	67.4334	30.7617	67.5102	30.7617	67.4188	30.7617	67.4709	30.7617	67.4149	30.7617	67.4412	30.7617	67.4223
32.2266	69.0596	32.2266	69.0442	32.2266	69.0698	32.2266	69.0237	32.2266	69.0744	32.2266	68.9985	32.2266	69.0736	32.2266	68.9691	32.2266	69.0673	32.2266	68.9361	32.2266	69.0557	32.2266	68.9002	32.2266	69.0392	32.2266	68.8624	32.2266	69.0179	32.2266	68.8236	32.2266	68.9923	32.2266	68.7852	32.2266	68.9628	32.2266	68.7485	32.2266	68.93	32.2266	68.7148	32.2266	68.8943	32.2266	68.6857	32.2266	68.8568	32.2266	68.6624	32.2266	68.8183	32.2266	68.646	32.2266	68.7801	32.2266	68.6373	32.2266	68.7436	32.2266	68.6367	32.2266	68.7104	32.2266	68.6442	32.2266	68.6819	32.2266	68.6595
33.6914	69.9986	33.6914	69.9826	33.6914	70.008	33.6914	69.9606	33.6914	70.0109	33.6914	69.9327	33.6914	70.0072	33.6914	69.8996	33.6914	69.997	33.6914	69.8619	33.6914	69.9805	33.6914	69.8205	33.6914	69.9581	33.6914	69.7764	33.6914	69.9303	33.6914	69.731	33.6914	69.8975	33.6914	69.6855	33.6914	69.8606	33.6914	69.6418	33.6914	69.8202	33.6914	69.6013	33.6914	69.7775	33.6914	69.5659	33.6914	69.7335	33.6914	69.537	33.6914	69.6895	33.6914	69.5159	33.6914	69.647	33.6914	69.5036	33.6914	69.6075	33.6914	69.5003	33.6914	69.5724	33.6914	69.5061	33.6914	69.543	33.6914	69.5206
35.1562	70.9743	35.1562	70.9636	35.1562	70.9797	35.1562	70.948	35.1562	70.9799	35.1562	70.9277	35.1562	70.9748	35.1562	70.903	35.1562	70.9646	35.1562	70.8744	35.1562	70.9494	35.1562	70.8426	35.1562	70.9296	35.1562	70.8081	35.1562	70.9053	35.1562	70.7719	35.1562	70.8771	35.1562	70.7349	35.1562	70.8455	35.1562	70.6983	35.1562	70.8111	35.1562	70.6632	35.1562	70.7746	35.1562	70.6309	35.1562	70.737	35.1562	70.6029	35.1562	70.6996	35.1562	70.5804	35.1562	70.6637	35.1562	70.5646	35.1562	70.6307	35.1562	70.5562	35.1562	70.6022	35.1562	70.556	35.1562	70.5796	35.1562	70.5639
36.6211	71.6545	36.6211	71.638	36.6211	71.6651	36.6211	71.6159	36.6211	71.6696	36.6211	71.5886	36.6211	71.6679	36.6211	71.5565	36.6211	71.6599	36.6211	71.5204	36.6211	71.6459	36.6211	71.4809	36.6211	71.626	36.6211	71.439	36.6211	71.6004	36.6211	71.3957	36.6211	71.5698	36.6211	71.3523	36.6211	71.5345	36.6211	71.31	36.6211	71.4953	36.6211	71.2705	36.6211	71.4532	36.6211	71.2354	36.6211	71.4091	36.6211	71.2061	36.6211	71.3643	36.6211	71.1842	36.6211	71.3205	36.6211	71.1709	36.6211	71.2791	36.6211	71.1668	36.6211	71.2421	36.6211	71.1724	36.6211	71.211	36.6211	71.1874
38.0859	72.3444	38.0859	72.3308	38.0859	72.3529	38.0859	72.3123	38.0859	72.356	38.0859	72.2894	38.0859	72.3537	38.0859	72.2627	38.0859	72.346	38.0859	72.2327	38.0859	72.3329	38.0859	72.2002	38.0859	72.3148	38.0859	72.1659	38.0859	72.2918	38.0859	72.1309	38.0859	72.2643	38.0859	72.0959	38.0859	72.2328	38.0859	72.0618	38.0859	72.198	38.0859	72.0298	38.0859	72.1606	38.0859	72.0007	38.0859	72.1218	38.0859	71.9756	38.0859	72.083	38.0859	71.9556	38.0859	72.0456	38.0859	71.9416	38.0859	72.0115	38.0859	71.9345	38.0859	71.9821	38.0859	71.9348	38.0859	71.959	38.0859	71.943
39.5508	73.0368	39.5508	73.0245	39.5508	73.0433	39.5508	73.0066	39.5508	73.0439	39.5508	72.9836	39.5508	73.0384	39.5508	72.9562	39.5508	73.0271	39.5508	72.9251	39.5508	73.0103	39.5508	72.8913	39.5508	72.9885	39.5508	72.8556	39.5508	72.9624	39.5508	72.8193	39.5508	72.9326	39.5508	72.7835	39.5508	72.9002	39.5508	72.7495	39.5508	72.8661	39.5508	72.7186	39.5508	72.8314	39.5508	72.6918	39.5508	72.7972	39.5508	72.6701	39.5508	72.7646	39.5508	72.6543	39.5508	72.7344	39.5508	72.6447	39.5508	72.7076	39.5508	72.6413	39.5508	72.6847	39.5508	72.644	39.5508	72.6661	39.5508	72.6524
41.0156	73.5425	41.0156	73.5329	41.0156	73.5458	41.0156	73.517	41.0156	73.5428	41.0156	73.4954	41.0156	73.5334	41.0156	73.4685	41.0156	73.5179	41.0156	73.4369	41.0156	73.4969	41.0156	73.4015	41.0156	73.4708	41.0156	73.3632	41.0156	73.4405	41.0156	73.3232	41.0156	73.4069	41.0156	73.2828	41.0156	73.371	41.0156	73.2435	41.0156	73.334	41.0156	73.2068	41.0156	73.2971	41.0156	73.1742	41.0156	73.2613	41.0156	73.147	41.0156	73.2276	41.0156	73.1264	41.0156	73.1969	41.0156	73.1129	41.0156	73.1697	41.0156	73.1067	41.0156	73.1467	41.0156	73.1076	41.0156	73.1282	41.0156	73.115
42.4805	74.114	42.4805	74.1053	42.4805	74.1167	42.4805	74.0908	42.4805	74.113	42.4805	74.071	42.4805	74.1032	42.4805	74.0465	42.4805	74.0873	42.4805	74.0182	42.4805	74.0658	42.4805	73.9868	42.4805	74.0393	42.4805	73.9535	42.4805	74.0087	42.4805	73.9192	42.4805	73.975	42.4805	73.8852	42.4805	73.9395	42.4805	73.8524	42.4805	73.9035	42.4805	73.8219	42.4805	73.8685	42.4805	73.7943	42.4805	73.8356	42.4805	73.7706	42.4805	73.8059	42.4805	73.7511	42.4805	73.7803	42.4805	73.7365	42.4805	73.759	42.4805	73.7271	42.4805	73.7425	42.4805	73.723	42.4805	73.7308	42.4805	73.7243
43.9453	74.5413	43.9453	74.5358	43.9453	74.54	43.9453	74.5239	43.9453	74.5319	43.9453	74.5063	43.9453	74.517	43.9453	74.4835	43.9453	74.4958	43.9453	74.4565	43.9453	74.469	43.9453	74.4264	43.9453	74.4373	43.9453	74.3944	43.9453	74.402	43.9453	74.3616	43.9453	74.3646	43.9453	74.3293	43.9453	74.3265	43.9453	74.2985	43.9453	74.2894	43.9453	74.2699	43.9453	74.2549	43.9453	74.244	43.9453	74.2244	43.9453	74.2211	43.9453	74.1988	43.9453	74.2013	43.9453	74.1789	43.9453	74.1846	43.9453	74.1647	43.9453	74.1711	43.9453	74.1563	43.9453	74.1611	43.9453	74.1532	43.9453	74.155
45.4102	75.0646	45.4102	75.0586	45.4102	75.0628	45.4102	75.0453	45.4102	75.0532	45.4102	75.0253	45.4102	75.0359	45.4102	74.9993	45.4102	75.0112	45.4102	74.9683	45.4102	74.9797	45.4102	74.9333	45.4102	74.9424	45.4102	74.8955	45.4102	74.9005	45.4102	74.8562	45.4102	74.8554	45.4102	74.8166	45.4102	74.8089	45.4102	74.7779	45.4102	74.7627	45.4102	74.7409	45.4102	74.7188	45.4102	74.7065	45.4102	74.679	45.4102	74.6752	45.4102	74.6447	45.4102	74.6474	45.4102	74.6171	45.4102	74.6236	45.4102	74.5969	45.4102	74.6042	45.4102	74.5843	45.4102	74.5899	45.4102	74.5793	45.4102	74.5814
46.875	75.524	46.875	75.5172	46.875	75.5222	46.875	75.5024	46.875	75.5117	46.875	75.4802	46.875	75.4924	46.875	75.4514	46.875	75.4646	46.875	75.4169	46.875	75.4287	46.875	75.3777	46.875	75.3856	46.875	75.3351	46.875	75.3366	46.875	75.2901	46.875	75.2831	46.875	75.2439	46.875	75.227	46.875	75.1975	46.875	75.1703	46.875	75.152	46.875	75.1154	46.875	75.1083	46.875	75.0644	46.875	75.0673	46.875	75.0195	46.875	75.0297	46.875	74.9827	46.875	74.9965	46.875	74.9553	46.875	74.9689	46.875	74.9382	46.875	74.948	46.875	74.9316	46.875	74.9352
48.3398	75.9861	48.3398	75.9766	48.3398	75.9869	48.3398	75.9586	48.3398	75.9785	48.3398	75.9329	48.3398	75.961	48.3398	75.9002	48.3398	75.9346	48.3398	75.8615	48.3398	75.8998	48.3398	75.8177	48.3398	75.8574	48.3398	75.7701	48.3398	75.8083	48.3398	75.72	48.3398	75.7542	48.3398	75.6685	48.3398	75.6966	48.3398	75.617	48.3398	75.6377	48.3398	75.5669	48.3398	75.5795	48.3398	75.5193	48.3398	75.5244	48.3398	75.4755	48.3398	75.4744	48.3398	75.4368	48.3398	75.4314	48.3398	75.4043	48.3398	75.3972	48.3398	75.3792	48.3398	75.3728	48.3398	75.3627	48.3398	75.359	48.3398	75.3557
51.2695	76.878	51.2695	76.8659	51.2695	76.8814	51.2695	76.8456	51.2695	76.876	51.2695	76.8178	51.2695	76.8618	51.2695	76.7834	51.2695	76.839	51.2695	76.7434	51.2695	76.8083	51.2695	76.699	51.2695	76.7705	51.2695	76.6516	51.2695	76.7266	51.2695	76.6026	51.2695	76.6782	51.2695	76.5535	51.2695	76.6268	51.2695	76.5058	51.2695	76.5743	51.2695	76.461	51.2695	76.5225	51.2695	76.4202	51.2695	76.4732	51.2695	76.3846	51.2695	76.4281	51.2695	76.355	51.2695	76.3889	51.2695	76.3322	51.2695	76.3567	51.2695	76.3166	51.2695	76.3323	51.2695	76.3084	51.2695	76.3161	51.2695	76.3082
52.7344	77.2941	52.7344	77.2815	52.7344	77.298	52.7344	77.2607	52.7344	77.293	52.7344	77.2324	52.7344	77.279	52.7344	77.1975	52.7344	77.2564	52.7344	77.1573	52.7344	77.2258	52.7344	77.113	52.7344	77.1881	52.7344	77.066	52.7344	77.1446	52.7344	77.018	52.7344	77.0966	52.7344	76.9704	52.7344	77.0458	52.7344	76.9248	52.7344	76.9942	52.7344	76.8824	52.7344	76.9435	52.7344	76.8446	52.7344	76.8957	52.7344	76.8121	52.7344	76.8525	52.7344	76.7854	52.7344	76.8154	52.7344	76.765	52.7344	76.7855	52.7344	76.751	52.7344	76.7634	52.7344	76.7434	52.7344	76.7492	52.7344	76.7427
54.1992	77.7791	54.1992	77.7653	54.1992	77.7842	54.1992	77.7435	54.1992	77.7804	54.1992	77.7145	54.1992	77.7677	54.1992	77.6794	54.1992	77.7463	54.1992	77.6394	54.1992	77.717	54.1992	77.5962	54.1992	77.6807	54.1992	77.5512	54.1992	77.6387	54.1992	77.5061	54.1992	77.5927	54.1992	77.4624	54.1992	77.5445	54.1992	77.4218	54.1992	77.496	54.1992	77.3854	54.1992	77.4492	54.1992	77.354	54.1992	77.406	54.1992	77.3282	54.1992	77.368	54.1992	77.308	54.1992	77.3364	54.1992	77.2932	54.1992	77.3118	54.1992	77.2835	54.1992	77.2943	54.1992	77.2785	54.1992	77.2833	54.1992	77.2783
55.6641	78.2285	55.6641	78.2146	55.6641	78.2339	55.6641	78.1926	55.6641	78.2304	55.6641	78.1635	55.6641	78.2181	55.6641	78.1282	55.6641	78.1972	55.6641	78.0881	55.6641	78.1683	55.6641	78.0445	55.6641	78.1323	55.6641	77.999	55.6641	78.0905	55.6641	77.9534	55.6641	78.0443	55.6641	77.909	55.6641	77.9955	55.6641	77.8675	55.6641	77.9459	55.6641	77.8299	55.6641	77.8975	55.6641	77.7972	55.6641	77.8523	55.6641	77.77	55.6641	77.8119	55.6641	77.7482	55.6641	77.7777	55.6641	77.7317	55.6641	77.7507	55.6641	77.7205	55.6641	77.7312	55.6641	77.7144	55.6641	77.719	55.6641	77.7137
58.5938	79.0731	58.5938	79.0625	58.5938	79.0727	58.5938	79.0417	58.5938	79.061	58.5938	79.0116	58.5938	79.038	58.5938	78.9739	58.5938	79.0042	58.5938	78.9302	58.5938	78.9609	58.5938	78.8825	58.5938	78.9094	58.5938	78.8327	58.5938	78.852	58.5938	78.7828	58.5938	78.791	58.5938	78.7347	58.5938	78.7293	58.5938	78.6898	58.5938	78.67	58.5938	78.6493	58.5938	78.6158	58.5938	78.6136	58.5938	78.5692	58.5938	78.5829	58.5938	78.5321	58.5938	78.5568	58.5938	78.5054	58.5938	78.5348	58.5938	78.489	58.5938	78.5163	58.5938	78.4819	58.5938	78.5011	58.5938	78.4827	58.5938	78.4896
60.0586	79.5687	60.0586	79.5471	60.0586	79.5769	60.0586	79.5132	60.0586	79.5713	60.0586	79.468	60.0586	79.5516	60.0586	79.4133	60.0586	79.5183	60.0586	79.3507	60.0586	79.4719	60.0586	79.2826	60.0586	79.4138	60.0586	79.211	60.0586	79.3457	60.0586	79.1383	60.0586	79.2697	60.0586	79.0667	60.0586	79.1887	60.0586	78.9983	60.0586	79.1055	60.0586	78.9347	60.0586	79.0236	60.0586	78.8772	60.0586	78.9462	60.0586	78.8268	60.0586	78.8763	60.0586	78.7841	60.0586	78.8166	60.0586	78.7499	60.0586	78.7689	60.0586	78.7247	60.0586	78.7345	60.0586	78.7095	60.0586	78.7134	60.0586	78.7054
62.9883	80.3117	62.9883	80.2861	62.9883	80.3264	62.9883	80.2504	62.9883	80.3301	62.9883	80.2056	62.9883	80.3228	62.9883	80.1529	62.9883	80.3047	62.9883	80.0941	62.9883	80.2768	62.9883	80.031	62.9883	80.2399	62.9883	79.9658	62.9883	80.1953	62.9883	79.9007	62.9883	80.1445	62.9883	79.838	62.9883	80.0892	62.9883	79.7799	62.9883	80.0312	62.9883	79.7286	62.9883	79.972	62.9883	79.6856	62.9883	79.9134	62.9883	79.6525	62.9883	79.857	62.9883	79.63	62.9883	79.8039	62.9883	79.6187	62.9883	79.7555	62.9883	79.6183	62.9883	79.7127	62.9883	79.6284	62.9883	79.6766	62.9883	79.6482
64.4531	80.7451	64.4531	80.7219	64.4531	80.7572	64.4531	80.6882	64.4531	80.758	64.4531	80.6451	64.4531	80.7476	64.4531	80.5942	64.4531	80.7266	64.4531	80.5371	64.4531	80.6959	64.4531	80.4761	64.4531	80.657	64.4531	80.4136	64.4531	80.6114	64.4531	80.3522	64.4531	80.5611	64.4531	80.2942	64.4531	80.5079	64.4531	80.2421	64.4531	80.4539	64.4531	80.1978	64.4531	80.401	64.4531	80.1626	64.4531	80.3507	64.4531	80.1374	64.4531	80.3043	64.4531	80.1223	64.4531	80.2625	64.4531	80.1165	64.4531	80.2258	64.4531	80.1193	64.4531	80.1941	64.4531	80.1293	64.4531	80.1673	64.4531	80.1456
67.3828	81.5826	67.3828	81.5605	67.3828	81.5928	67.3828	81.5269	67.3828	81.5908	67.3828	81.4831	67.3828	81.577	67.3828	81.4303	67.3828	81.5519	67.3828	81.3706	67.3828	81.5167	67.3828	81.3061	67.3828	81.4729	67.3828	81.2395	67.3828	81.4221	67.3828	81.1736	67.3828	81.3666	67.3828	81.1111	67.3828	81.3084	67.3828	81.0547	67.3828	81.2498	67.3828	81.0067	67.3828	81.1931	67.3828	80.9687	67.3828	81.1399	67.3828	80.9414	67.3828	81.0919	67.3828	80.9248	67.3828	81.0499	67.3828	80.9178	67.3828	81.0141	67.3828	80.9192	67.3828	80.9844	67.3828	80.9274	67.3828	80.9603	67.3828	80.9413
68.8477	81.8751	68.8477	81.8531	68.8477	81.8852	68.8477	81.8198	68.8477	81.8832	68.8477	81.7763	68.8477	81.8694	68.8477	81.724	68.8477	81.8447	68.8477	81.665	68.8477	81.81	68.8477	81.6015	68.8477	81.767	68.8477	81.5361	68.8477	81.7174	68.8477	81.4718	68.8477	81.6635	68.8477	81.4113	68.8477	81.6074	68.8477	81.3573	68.8477	81.5515	68.8477	81.3121	68.8477	81.4977	68.8477	81.2771	68.8477	81.448	68.8477	81.2531	68.8477	81.4036	68.8477	81.2396	68.8477	81.3652	68.8477	81.2356	68.8477	81.3326	68.8477	81.2395	68.8477	81.3055	68.8477	81.2495	68.8477	81.2828	68.8477	81.2642
71.7773	82.6454	71.7773	82.6236	71.7773	82.6545	71.7773	82.5896	71.7773	82.6507	71.7773	82.5445	71.7773	82.6345	71.7773	82.49	71.7773	82.6069	71.7773	82.4281	71.7773	82.5692	71.7773	82.3615	71.7773	82.5233	71.7773	82.2931	71.7773	82.4714	71.7773	82.226	71.7773	82.4158	71.7773	82.1634	71.7773	82.3591	71.7773	82.1082	71.7773	82.3037	71.7773	82.0626	71.7773	82.2517	71.7773	82.0283	71.7773	82.2048	71.7773	82.0058	71.7773	82.1638	71.7773	81.9947	71.7773	82.1288	71.7773	81.9937	71.7773	82.0992	71.7773	82.0009	71.7773	82.0737	71.7773	82.014	71.7773	82.0512	71.7773	82.0312
74.707	83.5367	74.707	83.5175	74.707	83.5421	74.707	83.4849	74.707	83.534	74.707	83.4402	74.707	83.5128	74.707	83.3846	74.707	83.4799	74.707	83.3204	74.707	83.4367	74.707	83.2502	74.707	83.3855	74.707	83.177	74.707	83.3286	74.707	83.1041	74.707	83.2686	74.707	83.035	74.707	83.2083	74.707	82.973	74.707	83.1501	74.707	82.9209	74.707	83.0962	74.707	82.8806	74.707	83.048	74.707	82.8533	74.707	83.0062	74.707	82.8385	74.707	82.9706	74.707	82.8352	74.707	82.9404	74.707	82.8411	74.707	82.9144	74.707	82.8538	74.707	82.8914	74.707	82.871
77.6367	84.1218	77.6367	84.1066	77.6367	84.123	77.6367	84.078	77.6367	84.1104	77.6367	84.037	77.6367	84.0845	77.6367	83.9852	77.6367	84.0468	77.6367	83.9249	77.6367	83.999	77.6367	83.8585	77.6367	83.9435	77.6367	83.7892	77.6367	83.8831	77.6367	83.7202	77.6367	83.8208	77.6367	83.6547	77.6367	83.7597	77.6367	83.596	77.6367	83.7026	77.6367	83.5466	77.6367	83.6517	77.6367	83.5085	77.6367	83.6086	77.6367	83.4823	77.6367	83.5737	77.6367	83.4676	77.6367	83.5465	77.6367	83.4627	77.6367	83.5256	77.6367	83.4654	77.6367	83.5092	77.6367	83.473	77.6367	83.4955	77.6367	83.4835
79.1016	84.3254	79.1016	84.3097	79.1016	84.3268	79.1016	84.2801	79.1016	84.3137	79.1016	84.2377	79.1016	84.2869	79.1016	84.1844	79.1016	84.2478	79.1016	84.1225	79.1016	84.1982	79.1016	84.0545	79.1016	84.1405	79.1016	83.9838	79.1016	84.0778	79.1016	83.9136	79.1016	84.0132	79.1016	83.8475	79.1016	83.95	79.1016	83.7886	79.1016	83.8913	79.1016	83.7395	79.1016	83.8395	79.1016	83.7021	79.1016	83.7961	79.1016	83.6768	79.1016	83.7618	79.1016	83.663	79.1016	83.7357	79.1016	83.6589	79.1016	83.7164	79.1016	83.6619	79.1016	83.7017	79.1016	83.6693	79.1016	83.6897	79.1016	83.6789
82.0312	84.9829	82.0312	84.9676	82.0312	84.9827	82.0312	84.9373	82.0312	84.967	82.0312	84.8931	82.0312	84.9367	82.0312	84.837	82.0312	84.8931	82.0312	84.7712	82.0312	84.8385	82.0312	84.6988	82.0312	84.7755	82.0312	84.6233	82.0312	84.7074	82.0312	84.5482	82.0312	84.6377	82.0312	84.4775	82.0312	84.5702	82.0312	84.4147	82.0312	84.5082	82.0312	84.3628	82.0312	84.4544	82.0312	84.3238	82.0312	84.4105	82.0312	84.298	82.0312	84.3769	82.0312	84.2847	82.0312	84.3526	82.0312	84.2817	82.0312	84.3356	82.0312	84.2857	82.0312	84.3232	82.0312	84.2937	82.0312	84.313	82.0312	84.3032
84.9609	85.6854	84.9609	85.6738	84.9609	85.6801	84.9609	85.6461	84.9609	85.6581	84.9609	85.6035	84.9609	85.6199	84.9609	85.5481	84.9609	85.5669	84.9609	85.4823	84.9609	85.5014	84.9609	85.4091	84.9609	85.4262	84.9609	85.332	84.9609	85.345	84.9609	85.2548	84.9609	85.262	84.9609	85.1813	84.9609	85.1817	84.9609	85.1151	84.9609	85.1084	84.9609	85.059	84.9609	85.046	84.9609	85.015	84.9609	84.997	84.9609	84.9835	84.9609	84.9626	84.9609	84.9632	84.9609	84.942	84.9609	84.9518	84.9609	84.9328	84.9609	84.9457	84.9609	84.9315	84.9609	84.942	84.9609	84.9343	84.9609	84.9383
87.8906	85.8997	87.8906	85.8812	87.8906	85.9028	87.8906	85.8484	87.8906	85.8902	87.8906	85.8028	87.8906	85.8622	87.8906	85.7468	87.8906	85.8198	87.8906	85.683	87.8906	85.7649	87.8906	85.6145	87.8906	85.7	87.8906	85.5449	87.8906	85.6282	87.8906	85.4773	87.8906	85.5534	87.8906	85.4152	87.8906	85.4796	87.8906	85.3613	87.8906	85.4108	87.8906	85.3175	87.8906	85.3508	87.8906	85.2847	87.8906	85.3024	87.8906	85.2626	87.8906	85.2669	87.8906	85.2494	87.8906	85.2443	87.8906	85.2426	87.8906	85.2327	87.8906	85.2393	87.8906	85.2294	87.8906	85.2369	87.8906	85.2309	87.8906	85.234
90.8203	86.1888	90.8203	86.1665	90.8203	86.1926	90.8203	86.1267	90.8203	86.1776	90.8203	86.0716	90.8203	86.1448	90.8203	86.0042	90.8203	86.096	90.8203	85.9285	90.8203	86.034	90.8203	85.849	90.8203	85.9628	90.8203	85.7711	90.8203	85.8869	90.8203	85.7	90.8203	85.8115	90.8203	85.6405	90.8203	85.742	90.8203	85.5965	90.8203	85.6833	90.8203	85.57	90.8203	85.6391	90.8203	85.5611	90.8203	85.6114	90.8203	85.5673	90.8203	85.6	90.8203	85.5842	90.8203	85.6023	90.8203	85.6059	90.8203	85.6137	90.8203	85.6265	90.8203	85.6284	90.8203	85.6406	90.8203	85.6405	90.8203	85.6454
95.2148	86.8771	95.2148	86.8538	95.2148	86.881	95.2148	86.8119	95.2148	86.8657	95.2148	86.7527	95.2148	86.832	95.2148	86.6785	95.2148	86.7818	95.2148	86.5925	95.2148	86.7171	95.2148	86.4988	95.2148	86.6412	95.2148	86.4021	95.2148	86.5576	95.2148	86.3077	95.2148	86.4706	95.2148	86.221	95.2148	86.3847	95.2148	86.147	95.2148	86.3044	95.2148	86.0893	95.2148	86.2336	95.2148	86.05	95.2148	86.1753	95.2148	86.0285	95.2148	86.1312	95.2148	86.022	95.2148	86.1007	95.2148	86.0262	95.2148	86.0817	95.2148	86.0359	95.2148	86.0706	95.2148	86.0467	95.2148	86.0632	95.2148	86.0559
98.1445	86.9125	98.1445	86.8905	98.1445	86.9151	98.1445	86.8501	98.1445	86.8986	98.1445	86.793	98.1445	86.8638	98.1445	86.7216	98.1445	86.8126	98.1445	86.6393	98.1445	86.7476	98.1445	86.5501	98.1445	86.6725	98.1445	86.459	98.1445	86.5913	98.1445	86.3709	98.1445	86.5089	98.1445	86.2912	98.1445	86.4299	98.1445	86.2243	98.1445	86.3587	98.1445	86.1738	98.1445	86.2989	98.1445	86.1413	98.1445	86.2526	98.1445	86.1261	98.1445	86.2201	98.1445	86.1253	98.1445	86.2	98.1445	86.1344	98.1445	86.1891	98.1445	86.1481	98.1445	86.1835	98.1445	86.1617	98.1445	86.179	98.1445	86.1723
101.074	86.7902	101.074	86.7668	101.074	86.7943	101.074	86.725	101.074	86.7793	101.074	86.6668	101.074	86.7465	101.074	86.5952	101.074	86.6981	101.074	86.514	101.074	86.6375	101.074	86.4284	101.074	86.5691	101.074	86.3439	101.074	86.4981	101.074	86.2667	101.074	86.4301	101.074	86.2026	101.074	86.3704	101.074	86.1568	101.074	86.3237	101.074	86.1323	101.074	86.293	101.074	86.13	101.074	86.2788	101.074	86.1475	101.074	86.2793	101.074	86.1798	101.074	86.2902	101.074	86.22	101.074	86.3054	101.074	86.2603	101.074	86.3183	101.074	86.2936	101.074	86.3229	101.074	86.3151
105.469	87.0332	105.469	87.0119	105.469	87.0308	105.469	86.9677	105.469	87.0047	105.469	86.903	105.469	86.9564	105.469	86.8209	105.469	86.8882	105.469	86.7259	105.469	86.8041	105.469	86.6234	105.469	86.709	105.469	86.5198	105.469	86.6092	105.469	86.4219	105.469	86.5116	105.469	86.3366	105.469	86.4233	105.469	86.2702	105.469	86.3508	105.469	86.227	105.469	86.2992	105.469	86.2084	105.469	86.2705	105.469	86.2125	105.469	86.2636	105.469	86.2342	105.469	86.274	105.469	86.2654	105.469	86.2943	105.469	86.2974	105.469	86.316	105.469	86.3221	105.469	86.3311	105.469	86.3339
108.398	87.0214	108.398	86.9973	108.398	87.0203	108.398	86.9491	108.398	86.9939	108.398	86.8792	108.398	86.9434	108.398	86.7913	108.398	86.8712	108.398	86.6898	108.398	86.7811	108.398	86.5808	108.398	86.6786	108.398	86.4709	108.398	86.57	108.398	86.3675	108.398	86.4631	108.398	86.278	108.398	86.3659	108.398	86.2088	108.398	86.2856	108.398	86.1642	108.398	86.2279	108.398	86.1455	108.398	86.1954	108.398	86.1502	108.398	86.187	108.398	86.1726	108.398	86.1978	108.398	86.2041	108.398	86.2199	108.398	86.2355	108.398	86.2444	108.398	86.2587	108.398	86.2625	108.398	86.2682
112.793	87.0277	112.793	86.9999	112.793	87.0283	112.793	86.9461	112.793	87.0015	112.793	86.8688	112.793	86.9484	112.793	86.7714	112.793	86.8712	112.793	86.6589	112.793	86.7736	112.793	86.5374	112.793	86.6608	112.793	86.414	112.793	86.5395	112.793	86.297	112.793	86.4176	112.793	86.1945	112.793	86.3037	112.793	86.114	112.793	86.2063	112.793	86.0606	112.793	86.1324	112.793	86.0357	112.793	86.086	112.793	86.0369	112.793	86.067	112.793	86.0575	112.793	86.0712	112.793	86.0878	112.793	86.0907	112.793	86.1178	112.793	86.1156	112.793	86.1387	112.793	86.1362	112.793	86.1451
117.188	86.8798	117.188	86.8423	117.188	86.8875	117.188	86.7766	117.188	86.8651	117.188	86.6849	117.188	86.8134	117.188	86.5709	117.188	86.7343	117.188	86.4395	117.188	86.6312	117.188	86.2968	117.188	86.509	117.188	86.1507	117.188	86.3747	117.188	86.0102	117.188	86.2366	117.188	85.885	117.188	86.1045	117.188	85.7842	117.188	85.9883	117.188	85.7149	117.188	85.8966	117.188	85.6805	117.188	85.8348	117.188	85.6791	117.188	85.8035	117.188	85.7038	117.188	85.7981	117.188	85.7435	117.188	85.8098	117.188	85.7859	117.188	85.8274	117.188	85.82	117.188	85.8397	117.188	85.8385
120.117	86.8758	120.117	86.8338	120.117	86.889	120.117	86.7639	120.117	86.873	120.117	86.6681	120.117	86.8285	120.117	86.5496	120.117	86.7572	120.117	86.4126	120.117	86.6618	120.117	86.263	120.117	86.5461	120.117	86.108	120.117	86.4158	120.117	85.9564	120.117	86.278	120.117	85.8177	120.117	86.1411	120.117	85.7011	120.117	86.0141	120.117	85.6143	120.117	85.9057	120.117	85.5615	120.117	85.8221	120.117	85.5425	120.117	85.7656	120.117	85.5524	120.117	85.7337	120.117	85.5821	120.117	85.7193	120.117	85.6209	120.117	85.7128	120.117	85.6584	120.117	85.7045	120.117	85.6871
124.512	86.7423	124.512	86.718	124.512	86.7388	124.512	86.6665	124.512	86.708	124.512	86.5894	124.512	86.6509	124.512	86.4891	124.512	86.5697	124.512	86.3694	124.512	86.4679	124.512	86.2356	124.512	86.3501	124.512	86.0946	124.512	86.2224	124.512	85.9548	124.512	86.0925	124.512	85.8256	124.512	85.969	124.512	85.7166	124.512	85.8606	124.512	85.6356	124.512	85.775	124.512	85.5872	124.512	85.7166	124.512	85.5711	124.512	85.686	124.512	85.5822	124.512	85.6786	124.512	85.6112	124.512	85.6861	124.512	85.6469	124.512	85.6981	124.512	85.6787	124.512	85.7047	124.512	85.699
128.906	86.5471	128.906	86.5258	128.906	86.5402	128.906	86.4769	128.906	86.5055	128.906	86.402	128.906	86.4441	128.906	86.3039	128.906	86.3583	128.906	86.1863	128.906	86.2518	128.906	86.0545	128.906	86.1293	128.906	85.9152	128.906	85.9973	128.906	85.7766	128.906	85.8635	128.906	85.6478	128.906	85.7367	128.906	85.5383	128.906	85.6262	128.906	85.4557	128.906	85.5399	128.906	85.4049	128.906	85.4828	128.906	85.3859	128.906	85.4554	128.906	85.394	128.906	85.4531	128.906	85.42	128.906	85.4668	128.906	85.4526	128.906	85.4852	128.906	85.4809	128.906	85.4977	128.906	85.4971
133.301	86.2978	133.301	86.2829	133.301	86.2835	133.301	86.2398	133.301	86.2399	133.301	86.1706	133.301	86.1682	133.301	86.0784	133.301	86.0708	133.301	85.9675	133.301	85.9516	133.301	85.8432	133.301	85.8163	133.301	85.7124	133.301	85.6724	133.301	85.583	133.301	85.5291	133.301	85.4637	133.301	85.3967	133.301	85.3631	133.301	85.2856	133.301	85.2881	133.301	85.2045	133.301	85.2425	133.301	85.1585	133.301	85.2256	133.301	85.1473	133.301	85.2318	133.301	85.1645	133.301	85.252	133.301	85.1995	133.301	85.2749	133.301	85.2394	133.301	85.2902	133.301	85.2724	133.301	85.2903
139.16	85.9537	139.16	85.924	139.16	85.9527	139.16	85.8655	139.16	85.9204	139.16	85.7813	139.16	85.8573	139.16	85.6757	139.16	85.7655	139.16	85.5541	139.16	85.6485	139.16	85.4235	139.16	85.5116	139.16	85.292	139.16	85.3625	139.16	85.1688	139.16	85.2109	139.16	85.063	139.16	85.068	139.16	84.9825	139.16	84.946	139.16	84.9325	139.16	84.8559	139.16	84.9137	139.16	84.805	139.16	84.9218	139.16	84.7944	139.16	84.9479	139.16	84.8186	139.16	84.9802	139.16	84.866	139.16	85.0068	139.16	84.9221	139.16	85.0173	139.16	84.9724	139.16	85.006
143.555	85.7147	143.555	85.6746	143.555	85.7234	143.555	85.6045	143.555	85.7	143.555	85.5075	143.555	85.6454	143.555	85.388	143.555	85.5617	143.555	85.2518	143.555	85.4525	143.555	85.1068	143.555	85.323	143.555	84.9622	143.555	85.1802	143.555	84.8286	143.555	85.0334	143.555	84.7167	143.555	84.8933	143.555	84.6358	143.555	84.7716	143.555	84.5914	143.555	84.6788	143.555	84.5839	143.555	84.6224	143.555	84.6074	143.555	84.6043	143.555	84.651	143.555	84.6198	143.555	84.701	143.555	84.6581	143.555	84.7437	143.555	84.7048	143.555	84.7682	143.555	84.7456	143.555	84.7688
147.949	85.4338	147.949	85.3957	147.949	85.438	147.949	85.3249	147.949	85.4085	147.949	85.2241	147.949	85.3471	147.949	85.0975	147.949	85.2571	147.949	84.9519	147.949	85.1434	147.949	84.7958	147.949	85.0131	147.949	84.6402	147.949	84.875	147.949	84.498	147.949	84.7397	147.949	84.3825	147.949	84.6191	147.949	84.3054	147.949	84.5242	147.949	84.2735	147.949	84.4638	147.949	84.2872	147.949	84.4417	147.949	84.3388	147.949	84.4553	147.949	84.4147	147.949	84.4958	147.949	84.4979	147.949	84.5497	147.949	84.5721	147.949	84.6015	147.949	84.6241	147.949	84.6371	147.949	84.6462
153.809	85.2459	153.809	85.2108	153.809	85.2425	153.809	85.1392	153.809	85.2	153.809	85.0341	153.809	85.1191	153.809	84.9002	153.809	85.0021	153.809	84.7442	153.809	84.8533	153.809	84.575	153.809	84.6797	153.809	84.4041	153.809	84.4914	153.809	84.2453	153.809	84.3025	153.809	84.1137	153.809	84.1303	153.809	84.0231	153.809	83.9929	153.809	83.9823	153.809	83.9062	153.809	83.9926	153.809	83.8787	153.809	84.0453	153.809	83.9084	153.809	84.1238	153.809	83.9826	153.809	84.2072	153.809	84.0809	153.809	84.275	153.809	84.1804	153.809	84.3111	153.809	84.2606	153.809	84.3066
159.668	85.1622	159.668	85.12	159.668	85.1673	159.668	85.0415	159.668	85.1353	159.668	84.9287	159.668	85.067	159.668	84.7847	159.668	84.964	159.668	84.6148	159.668	84.8294	159.668	84.427	159.668	84.6685	159.668	84.233	159.668	84.4892	159.668	84.0481	159.668	84.303	159.668	83.8907	159.668	84.1255	159.668	83.7788	159.668	83.9747	159.668	83.7261	159.668	83.8684	159.668	83.7363	159.668	83.8188	159.668	83.801	159.668	83.8284	159.668	83.9005	159.668	83.887	159.668	84.0094	159.668	83.9746	159.668	84.1026	159.668	84.0662	159.668	84.1606	159.668	84.1381	159.668	84.1726
165.527	84.8725	165.527	84.8266	165.527	84.8795	165.527	84.7428	165.527	84.8476	165.527	84.6235	165.527	84.7778	165.527	84.472	165.527	84.6724	165.527	84.2941	165.527	84.5355	165.527	84.0982	165.527	84.3732	165.527	83.8962	165.527	84.1947	165.527	83.7039	165.527	84.0128	165.527	83.5403	165.527	83.8432	165.527	83.4249	165.527	83.704	165.527	83.3725	165.527	83.6115	165.527	83.3881	165.527	83.5764	165.527	83.4639	165.527	83.5988	165.527	83.5798	165.527	83.6667	165.527	83.7088	165.527	83.7586	165.527	83.8238	165.527	83.8486	165.527	83.903	165.527	83.9126	165.527	83.9334
171.387	84.6286	171.387	84.5821	171.387	84.6357	171.387	84.4963	171.387	84.6039	171.387	84.3715	171.387	84.5339	171.387	84.2094	171.387	84.4271	171.387	84.0132	171.387	84.2858	171.387	83.7895	171.387	84.1143	171.387	83.5493	171.387	83.9195	171.387	83.3093	171.387	83.7126	171.387	83.0922	171.387	83.5098	171.387	82.9236	171.387	83.3313	171.387	82.826	171.387	83.1982	171.387	82.8109	171.387	83.1267	171.387	82.8728	171.387	83.1211	171.387	82.9897	171.387	83.1708	171.387	83.1299	171.387	83.2518	171.387	83.2609	171.387	83.3344	171.387	83.3565	171.387	83.3908	171.387	83.401
177.246	84.0727	177.246	84.0479	177.246	84.0616	177.246	83.987	177.246	84.0156	177.246	83.89	177.246	83.936	177.246	83.7577	177.246	83.8248	177.246	83.592	177.246	83.6853	177.246	83.3967	177.246	83.5221	177.246	83.1794	177.246	83.3425	177.246	82.9529	177.246	83.1572	177.246	82.7361	177.246	82.9808	177.246	82.5538	177.246	82.8309	177.246	82.431	177.246	82.7253	177.246	82.3858	177.246	82.6763	177.246	82.4205	177.246	82.6855	177.246	82.5189	177.246	82.7413	177.246	82.6513	177.246	82.8209	177.246	82.7836	177.246	82.8965	177.246	82.8866	177.246	82.9427	177.246	82.9416
183.105	83.5473	183.105	83.5305	183.105	83.5274	183.105	83.4786	183.105	83.4701	183.105	83.3938	183.105	83.3758	183.105	83.2789	183.105	83.2468	183.105	83.1378	183.105	83.0869	183.105	82.9754	183.105	82.9031	183.105	82.7992	183.105	82.7056	183.105	82.6204	183.105	82.5089	183.105	82.4541	183.105	82.3319	183.105	82.3191	183.105	82.1957	183.105	82.2333	183.105	82.1191	183.105	82.2088	183.105	82.1125	183.105	82.2458	183.105	82.1723	183.105	82.3306	183.105	82.2802	183.105	82.4386	183.105	82.4079	183.105	82.5416	183.105	82.5254	183.105	82.614	183.105	82.6074	183.105	82.6383
188.965	83.2774	188.965	83.2355	188.965	83.2762	188.965	83.1524	188.965	83.2304	188.965	83.0309	188.965	83.1392	188.965	82.8745	188.965	83.0028	188.965	82.6885	188.965	82.8233	188.965	82.4804	188.965	82.6058	188.965	82.2616	188.965	82.36	188.965	82.0487	188.965	82.1029	188.965	81.8638	188.965	81.8592	188.965	81.732	188.965	81.6608	188.965	81.675	188.965	81.54	188.965	81.7025	188.965	81.5185	188.965	81.8051	188.965	81.5971	188.965	81.956	188.965	81.7524	188.965	82.1177	188.965	81.9441	188.965	82.2532	188.965	82.1283	188.965	82.333	188.965	82.268	188.965	82.3395
196.289	82.808	196.289	82.7638	196.289	82.8168	196.289	82.6859	196.289	82.7886	196.289	82.5757	196.289	82.7218	196.289	82.435	196.289	82.6149	196.289	82.2653	196.289	82.4667	196.289	82.0697	196.289	82.2773	196.289	81.8536	196.289	82.0494	196.289	81.6271	196.289	81.7912	196.289	81.4072	196.289	81.5192	196.289	81.2175	196.289	81.2599	196.289	81.0846	196.289	81.0482	196.289	81.0288	196.289	80.9187	196.289	81.0545	196.289	80.8917	196.289	81.1448	196.289	80.9616	196.289	81.2657	196.289	81.0962	196.289	81.3772	196.289	81.2492	196.289	81.4445	196.289	81.3763	196.289	81.4459
203.613	82.1568	203.613	82.1107	203.613	82.1598	203.613	82.0219	203.613	82.1206	203.613	81.8917	203.613	82.0406	203.613	81.7231	203.613	81.9223	203.613	81.5206	203.613	81.7689	203.613	81.291	203.613	81.5847	203.613	81.0447	203.613	81.3769	203.613	80.7965	203.613	81.1563	203.613	80.5669	203.613	80.9393	203.613	80.3812	203.613	80.7481	203.613	80.2651	203.613	80.6069	203.613	80.2366	203.613	80.535	203.613	80.2966	203.613	80.5385	203.613	80.4248	203.613	80.6054	203.613	80.5854	203.613	80.7079	203.613	80.738	203.613	80.8111	203.613	80.8491	203.613	80.8827	203.613	80.8989
210.938	81.6993	210.938	81.6546	210.938	81.7076	210.938	81.5759	210.938	81.6778	210.938	81.4663	210.938	81.6098	210.938	81.3295	210.938	81.5042	210.938	81.1691	210.938	81.3625	210.938	80.9886	210.938	81.187	210.938	80.7933	210.938	80.9823	210.938	80.5912	210.938	80.7563	210.938	80.396	210.938	80.5229	210.938	80.227	210.938	80.303	210.938	80.1066	210.938	80.1233	210.938	80.0522	210.938	80.0099	210.938	80.0679	210.938	79.978	210.938	80.1398	210.938	80.0237	210.938	80.2392	210.938	80.123	210.938	80.3321	210.938	80.24	210.938	80.3893	210.938	80.3387	210.938	80.3926
218.262	81.1468	218.262	81.1152	218.262	81.1293	218.262	81.0353	218.262	81.0647	218.262	80.9101	218.262	80.9573	218.262	80.7452	218.262	80.8145	218.262	80.5496	218.262	80.6468	218.262	80.3366	218.262	80.4673	218.262	80.1242	218.262	80.2913	218.262	79.9342	218.262	80.136	218.262	79.7904	218.262	80.0183	218.262	79.7132	218.262	79.9534	218.262	79.7146	218.262	79.9505	218.262	79.793	218.262	80.0092	218.262	79.9326	218.262	80.1173	218.262	80.1065	218.262	80.253	218.262	80.2835	218.262	80.39	218.262	80.4352	218.262	80.5033	218.262	80.5405	218.262	80.5733	218.262	80.5875
225.586	81.132	225.586	81.0852	225.586	81.1174	225.586	80.9806	225.586	81.0383	225.586	80.8227	225.586	80.8928	225.586	80.6166	225.586	80.6812	225.586	80.3692	225.586	80.4069	225.586	80.0906	225.586	80.08	225.586	79.7971	225.586	79.72	225.586	79.5143	225.586	79.3601	225.586	79.2783	225.586	79.0486	225.586	79.1308	225.586	78.8421	225.586	79.1051	225.586	78.7877	225.586	79.2089	225.586	78.8988	225.586	79.4165	225.586	79.1444	225.586	79.6779	225.586	79.4618	225.586	79.9374	225.586	79.7822	225.586	80.1483	225.586	80.0504	225.586	80.2783	225.586	80.2316	225.586	80.3086
232.91	81.1008	232.91	81.0311	232.91	81.1083	232.91	80.9013	232.91	81.0511	232.91	80.7136	232.91	80.9264	232.91	80.4714	232.91	80.731	232.91	80.18	232.91	80.463	232.91	79.8488	232.91	80.1237	232.91	79.4944	232.91	79.7229	232.91	79.1434	232.91	79.2848	232.91	78.8355	232.91	78.8555	232.91	78.6193	232.91	78.5036	232.91	78.5389	232.91	78.3045	232.91	78.613	232.91	78.3068	232.91	78.8198	232.91	78.4996	232.91	79.1029	232.91	78.8157	232.91	79.3933	232.91	79.167	232.91	79.6308	232.91	79.4773	232.91	79.7734	232.91	79.6964	232.91	79.7977
241.699	81.1665	241.699	81.0817	241.699	81.1898	241.699	80.9357	241.699	81.1518	241.699	80.7292	241.699	81.0519	241.699	80.4643	241.699	80.8883	241.699	80.1452	241.699	80.6578	241.699	79.7796	241.699	80.3557	241.699	79.3826	241.699	79.9796	241.699	78.9811	241.699	79.5343	241.699	78.6181	241.699	79.0421	241.699	78.3494	241.699	78.5533	241.699	78.2279	241.699	78.1504	241.699	78.2765	241.699	77.9278	241.699	78.4704	241.699	77.9426	241.699	78.745	241.699	78.1704	241.699	79.0235	241.699	78.5177	241.699	79.2396	241.699	78.8752	241.699	79.3477	241.699	79.1594	241.699	79.3227
250.488	81.538	250.488	81.4823	250.488	81.5327	250.488	81.3631	250.488	81.4678	250.488	81.1775	250.488	81.3447	250.488	80.9214	250.488	81.1637	250.488	80.5903	250.488	80.9247	250.488	80.1803	250.488	80.6269	250.488	79.6931	250.488	80.271	250.488	79.1427	250.488	79.8622	250.488	78.568	250.488	79.4166	250.488	78.042	250.488	78.9678	250.488	77.666	250.488	78.5705	250.488	77.5274	250.488	78.2904	250.488	77.6398	250.488	78.1769	250.488	77.9266	250.488	78.2312	250.488	78.2701	250.488	78.4002	250.488	78.5691	250.488	78.6028	250.488	78.7623	250.488	78.7626	250.488	78.8254
259.277	81.0572	259.277	81.0151	259.277	81.0437	259.277	80.9178	259.277	80.9741	259.277	80.7664	259.277	80.8481	259.277	80.5617	259.277	80.6643	259.277	80.3044	259.277	80.4204	259.277	79.9948	259.277	80.114	259.277	79.635	259.277	79.7459	259.277	79.2324	259.277	79.3255	259.277	78.8077	259.277	78.8791	259.277	78.4033	259.277	78.4552	259.277	78.0846	259.277	78.1223	259.277	77.9228	259.277	77.9476	259.277	77.9553	259.277	77.963	259.277	78.1545	259.277	78.1414	259.277	78.4379	259.277	78.4086	259.277	78.7096	259.277	78.6771	259.277	78.8952	259.277	78.8742	259.277	78.9533
268.066	81.1097	268.066	81.05	268.066	81.117	268.066	80.9333	268.066	81.074	268.066	80.7529	268.066	80.9793	268.066	80.5016	268.066	80.828	268.066	80.1724	268.066	80.6116	268.066	79.7615	268.066	80.3197	268.066	79.2715	268.066	79.944	268.066	78.7192	268.066	79.4855	268.066	78.1453	268.066	78.9647	268.066	77.6239	268.066	78.4324	268.066	77.2559	268.066	77.9715	268.066	77.1294	268.066	77.6758	268.066	77.2606	268.066	77.6028	268.066	77.5744	268.066	77.7345	268.066	77.95	268.066	77.9876	268.066	78.2787	268.066	78.2601	268.066	78.4901	268.066	78.467	268.066	78.5529
276.855	80.8731	276.855	80.8127	276.855	80.8689	276.855	80.6921	276.855	80.8009	276.855	80.5177	276.855	80.6756	276.855	80.2952	276.855	80.5018	276.855	80.0276	276.855	80.2863	276.855	79.7154	276.855	80.0279	276.855	79.3609	276.855	79.7168	276.855	78.972	276.855	79.341	276.855	78.567	276.855	78.9012	276.855	78.1783	276.855	78.4292	276.855	77.8528	276.855	77.9987	276.855	77.6445	276.855	77.7085	276.855	77.5937	276.855	77.6277	276.855	77.6994	276.855	77.7426	276.855	77.9098	276.855	77.966	276.855	78.1432	276.855	78.1949	276.855	78.3228	276.855	78.3528	276.855	78.3989
287.109	81.1911	287.109	81.192	287.109	81.1226	287.109	81.1232	287.109	80.9866	287.109	80.9807	287.109	80.7836	287.109	80.7575	287.109	80.5159	287.109	80.4444	287.109	80.1898	287.109	80.0334	287.109	79.816	287.109	79.5249	287.109	79.4089	287.109	78.9409	287.109	78.9848	287.109	78.342	287.109	78.5635	287.109	77.8327	287.109	78.1764	287.109	77.5326	287.109	77.876	287.109	77.5064	287.109	77.7291	287.109	77.7156	287.109	77.7806	287.109	78.0514	287.109	78.0099	287.109	78.404	287.109	78.3312	287.109	78.6968	287.109	78.64	287.109	78.8847	287.109	78.8572	287.109	78.9418
297.363	81.9529	297.363	81.853	297.363	81.9857	297.363	81.6972	297.363	81.9409	297.363	81.4958	297.363	81.8074	297.363	81.2542	297.363	81.5726	297.363	80.9668	297.363	81.2228	297.363	80.6123	297.363	80.7449	297.363	80.1575	297.363	80.1314	297.363	79.5719	297.363	79.3891	297.363	78.855	297.363	78.5541	297.363	78.0769	297.363	77.7157	297.363	77.4117	297.363	77.0352	297.363	77.0911	297.363	76.7086	297.363	77.225	297.363	76.835	297.363	77.6842	297.363	77.3138	297.363	78.2325	297.363	77.9261	297.363	78.6913	297.363	78.48	297.363	78.9697	297.363	78.8641	297.363	79.0309
307.617	82.1836	307.617	82.0562	307.617	82.2454	307.617	81.8584	307.617	82.2492	307.617	81.59	307.617	82.202	307.617	81.2563	307.617	82.1051	307.617	80.8666	307.617	81.9494	307.617	80.4317	307.617	81.7123	307.617	79.9588	307.617	81.3609	307.617	79.4513	307.617	80.861	307.617	78.9166	307.617	80.1925	307.617	78.3889	307.617	79.3738	307.617	77.9511	307.617	78.495	307.617	77.723	307.617	77.7419	307.617	77.7832	307.617	77.3412	307.617	78.0842	307.617	77.3923	307.617	78.4749	307.617	77.7701	307.617	78.7997	307.617	78.2516	307.617	78.9593	307.617	78.6639	307.617	78.9131
319.336	82.5927	319.336	82.5584	319.336	82.5643	319.336	82.4608	319.336	82.4746	319.336	82.2984	319.336	82.3276	319.336	82.0662	319.336	82.129	319.336	81.7534	319.336	81.8843	319.336	81.3425	319.336	81.5935	319.336	80.8111	319.336	81.2487	319.336	80.1398	319.336	80.8346	319.336	79.3312	319.336	80.3387	319.336	78.4448	319.336	79.7684	319.336	77.6417	319.336	79.1757	319.336	77.1739	319.336	78.6713	319.336	77.2168	319.336	78.3944	319.336	77.681	319.336	78.4189	319.336	78.3024	319.336	78.6792	319.336	78.8557	319.336	79.0159	319.336	79.222	319.336	79.2758	319.336	79.3601
329.59	82.9025	329.59	82.8737	329.59	82.8711	329.59	82.7865	329.59	82.7813	329.59	82.6438	329.59	82.6383	329.59	82.4461	329.59	82.4485	329.59	82.1872	329.59	82.2148	329.59	81.8507	329.59	81.9313	329.59	81.4109	329.59	81.5798	329.59	80.8399	329.59	81.1338	329.59	80.1241	329.59	80.5716	329.59	79.296	329.59	79.9005	329.59	78.4785	329.59	79.1906	329.59	77.9032	329.59	78.5971	329.59	77.7949	329.59	78.3136	329.59	78.1493	329.59	78.4246	329.59	78.7265	329.59	78.8133	329.59	79.2699	329.59	79.2658	329.59	79.6281	329.59	79.6078	329.59	79.7418
341.309	82.9448	341.309	82.9111	341.309	82.8998	341.309	82.8095	341.309	82.7689	341.309	82.652	341.309	82.5492	341.309	82.4479	341.309	82.2436	341.309	82.1991	341.309	81.861	341.309	81.8956	341.309	81.4173	341.309	81.5154	341.309	80.9333	341.309	81.0307	341.309	80.4313	341.309	80.4235	341.309	79.9323	341.309	79.712	341.309	79.4617	341.309	78.9877	341.309	79.0639	341.309	78.4365	341.309	78.8114	341.309	78.2669	341.309	78.7803	341.309	78.5282	341.309	78.9882	341.309	79.0461	341.309	79.3561	341.309	79.5789	341.309	79.7457	341.309	79.959	341.309	80.0267	341.309	80.1112
353.027	83.3875	353.027	83.2953	353.027	83.4097	353.027	83.1422	353.027	83.3589	353.027	82.9415	353.027	83.2374	353.027	82.7052	353.027	83.0472	353.027	82.4377	353.027	82.7823	353.027	82.1299	353.027	82.4209	353.027	81.758	353.027	81.9241	353.027	81.2887	353.027	81.2455	353.027	80.694	353.027	80.355	353.027	79.9782	353.027	79.2842	353.027	79.2172	353.027	78.2018	353.027	78.5911	353.027	77.4595	353.027	78.327	353.027	77.3887	353.027	78.5088	353.027	77.9179	353.027	78.9751	353.027	78.6674	353.027	79.4731	353.027	79.3298	353.027	79.8207	353.027	79.7647	353.027	79.9286
366.211	83.8638	366.211	83.6978	366.211	83.9245	366.211	83.4294	366.211	83.885	366.211	83.0702	366.211	83.755	366.211	82.639	366.211	83.5462	366.211	82.1538	366.211	83.2691	366.211	81.6211	366.211	82.9265	366.211	81.0289	366.211	82.5051	366.211	80.3531	366.211	81.9677	366.211	79.5813	366.211	81.2577	366.211	78.7525	366.211	80.3196	366.211	78.0001	366.211	79.1507	366.211	77.5465	366.211	77.9032	366.211	77.562	366.211	76.9951	366.211	77.9821	366.211	76.8907	366.211	78.5575	366.211	77.5022	366.211	79.051	366.211	78.3138	366.211	79.3208	366.211	78.9569	366.211	79.2986
379.395	83.1714	379.395	83.1471	379.395	83.1384	379.395	83.0698	379.395	83.0498	379.395	82.9425	379.395	82.9171	379.395	82.7595	379.395	82.7572	379.395	82.5037	379.395	82.5798	379.395	82.1453	379.395	82.3738	379.395	81.6441	379.395	82.1034	379.395	80.954	379.395	81.7182	379.395	80.0385	379.395	81.1738	379.395	78.9102	379.395	80.4562	379.395	77.7148	379.395	79.6135	379.395	76.8214	379.395	78.7913	379.395	76.6547	379.395	78.2288	379.395	77.198	379.395	78.1205	379.395	78.0153	379.395	78.4197	379.395	78.7397	379.395	78.8753	379.395	79.2077	379.395	79.2409	379.395	79.3719
392.578	83.5634	392.578	83.478	392.578	83.5377	392.578	83.2903	392.578	83.4076	392.578	83.0265	392.578	83.1927	392.578	82.727	392.578	82.9232	392.578	82.4299	392.578	82.6327	392.578	82.1448	392.578	82.3398	392.578	81.8335	392.578	82.0283	392.578	81.4184	392.578	81.6397	392.578	80.8136	392.578	81.0934	392.578	79.9706	392.578	80.328	392.578	78.9449	392.578	79.3654	392.578	77.9964	392.578	78.4	392.578	77.5796	392.578	77.831	392.578	77.9246	392.578	77.9664	392.578	78.7107	392.578	78.625	392.578	79.4813	392.578	79.3733	392.578	79.9839	392.578	79.9168	392.578	80.1326
405.762	83.9319	405.762	83.8593	405.762	83.9062	405.762	83.6908	405.762	83.7816	405.762	83.4342	405.762	83.5601	405.762	83.1069	405.762	83.2494	405.762	82.7353	405.762	82.8656	405.762	82.3434	405.762	82.4305	405.762	81.9306	405.762	81.958	405.762	81.4541	405.762	81.4364	405.762	80.8355	405.762	80.8231	405.762	80.0007	405.762	80.07	405.762	78.9534	405.762	79.1861	405.762	77.9029	405.762	78.3278	405.762	77.3406	405.762	77.8329	405.762	77.6402	405.762	77.9746	405.762	78.5028	405.762	78.6092	405.762	79.3713	405.762	79.3444	405.762	79.9356	405.762	79.8896	405.762	80.1059
420.41	84.0555	420.41	83.9647	420.41	84.0715	420.41	83.8179	420.41	84.0109	420.41	83.6406	420.41	83.8928	420.41	83.4499	420.41	83.7498	420.41	83.2424	420.41	83.6079	420.41	82.9894	420.41	83.46	420.41	82.642	420.41	83.2503	420.41	82.141	420.41	82.8821	420.41	81.4329	420.41	82.243	420.41	80.4954	420.41	81.2328	420.41	79.3949	420.41	79.8123	420.41	78.3842	420.41	78.1456	420.41	77.9114	420.41	76.8983	420.41	78.2292	420.41	76.9682	420.41	79.0328	420.41	78.0835	420.41	79.841	420.41	79.2901	420.41	80.363	420.41	80.1207	420.41	80.4742
435.059	84.5743	435.059	84.4521	435.059	84.5551	435.059	84.2028	435.059	84.3938	435.059	83.8546	435.059	84.1055	435.059	83.4489	435.059	83.725	435.059	83.0294	435.059	83.3059	435.059	82.6177	435.059	82.9036	435.059	82.1877	435.059	82.5427	435.059	81.665	435.059	82.1881	435.059	80.9615	435.059	81.7515	435.059	80.0374	435.059	81.1332	435.059	78.9964	435.059	80.2821	435.059	78.191	435.059	79.2787	435.059	78.0768	435.059	78.4378	435.059	78.6689	435.059	78.2222	435.059	79.5111	435.059	78.732	435.059	80.2097	435.059	79.5456	435.059	80.5915	435.059	80.2352	435.059	80.6018
451.172	85.4225	451.172	85.2873	451.172	85.4059	451.172	85.0131	451.172	85.2418	451.172	84.6381	451.172	84.9509	451.172	84.2313	451.172	84.5769	451.172	83.8755	451.172	84.1899	451.172	83.6152	451.172	83.8643	451.172	83.3982	451.172	83.6204	451.172	83.0727	451.172	83.3751	451.172	82.4383	451.172	82.9621	451.172	81.2934	451.172	82.1981	451.172	79.4758	451.172	80.9496	451.172	77.0775	451.172	79.2483	451.172	75.4125	451.172	77.6405	451.172	76.4768	451.172	77.356	451.172	78.6574	451.172	78.5402	451.172	80.3142	451.172	79.9749	451.172	81.2091	451.172	80.9836	451.172	81.4101
465.82	85.35	465.82	85.2659	465.82	85.3225	465.82	85.073	465.82	85.1869	465.82	84.7854	465.82	84.9516	465.82	84.437	465.82	84.6356	465.82	84.0817	465.82	84.2735	465.82	83.774	465.82	83.9131	465.82	83.526	465.82	83.5869	465.82	83.2728	465.82	83.2686	465.82	82.8843	465.82	82.851	465.82	82.213	465.82	82.1745	465.82	81.1465	465.82	81.0897	465.82	79.6834	465.82	79.5635	465.82	78.1244	465.82	77.9449	465.82	77.2715	465.82	77.2264	465.82	77.6694	465.82	77.891	465.82	78.679	465.82	78.9897	465.82	79.5305	465.82	79.734	465.82	79.9129
483.398	85.2193	483.398	85.0754	483.398	85.1752	483.398	84.76	483.398	84.9412	483.398	84.3108	483.398	84.5367	483.398	83.8059	483.398	84.0197	483.398	83.3694	483.398	83.5012	483.398	83.1196	483.398	83.1186	483.398	83.0528	483.398	82.9398	483.398	82.991	483.398	82.8762	483.398	82.6691	483.398	82.7183	483.398	81.841	483.398	82.2447	483.398	80.3408	483.398	81.29	483.398	78.2594	483.398	79.8058	483.398	76.628	483.398	78.0846	483.398	77.131	483.398	77.1797	483.398	78.8434	483.398	77.9272	483.398	80.2464	483.398	79.3632	483.398	80.98	483.398	80.4995	483.398	81.0536
499.512	85.2495	499.512	85.0636	499.512	85.2516	499.512	84.6906	499.512	85.0661	499.512	84.1342	499.512	84.6813	499.512	83.4316	499.512	84.094	499.512	82.6916	499.512	83.3477	499.512	82.1071	499.512	82.5826	499.512	81.8529	499.512	82.0271	499.512	81.8868	499.512	81.8148	499.512	81.9268	499.512	81.7822	499.512	81.6367	499.512	81.5725	499.512	80.7479	499.512	80.8619	499.512	79.0885	499.512	79.4424	499.512	76.8017	499.512	77.3432	499.512	75.327	499.512	75.515	499.512	76.4434	499.512	75.9273	499.512	78.3662	499.512	77.7752	499.512	79.5894	499.512	79.2527	499.512	79.8789
517.09	85.2917	517.09	85.1171	517.09	85.2918	517.09	84.7712	517.09	85.1057	517.09	84.2479	517.09	84.7176	517.09	83.5414	517.09	84.1152	517.09	82.6752	517.09	83.3056	517.09	81.7583	517.09	82.3517	517.09	81.022	517.09	81.4257	517.09	80.689	517.09	80.7948	517.09	80.6854	517.09	80.5879	517.09	80.638	517.09	80.5674	517.09	80.1627	517.09	80.31	517.09	79.0229	517.09	79.4932	517.09	77.2526	517.09	78.0374	517.09	75.6595	517.09	76.3997	517.09	75.762	517.09	75.839	517.09	77.061	517.09	76.7195	517.09	78.0776	517.09	77.8095	517.09	78.331
536.133	85.1601	536.133	85.054	536.133	85.1352	536.133	84.8127	536.133	84.9769	536.133	84.4211	536.133	84.6826	536.133	83.8521	536.133	84.2576	536.133	83.0757	536.133	83.7205	536.133	82.0823	536.133	83.0946	536.133	80.9198	536.133	82.3774	536.133	79.7185	536.133	81.5137	536.133	78.6408	536.133	80.4187	536.133	77.7519	536.133	79.0745	536.133	77.0048	536.133	77.6672	536.133	76.4431	536.133	76.6076	536.133	76.3129	536.133	76.1886	536.133	76.7647	536.133	76.3308	536.133	77.5575	536.133	76.8749	536.133	78.3087	536.133	77.6553	536.133	78.7621	536.133	78.385	536.133	78.7937
555.176	84.3761	555.176	84.239	555.176	84.355	555.176	83.9537	555.176	84.1828	555.176	83.5576	555.176	83.8736	555.176	83.1169	555.176	83.4486	555.176	82.7078	555.176	82.9505	555.176	82.3727	555.176	82.4615	555.176	82.0774	555.176	82.0772	555.176	81.7062	555.176	81.8026	555.176	81.0946	555.176	81.4695	555.176	80.0583	555.176	80.7902	555.176	78.4054	555.176	79.4648	555.176	75.9907	555.176	77.2603	555.176	73.2325	555.176	74.3982	555.176	72.6324	555.176	73.1898	555.176	74.8676	555.176	75.1555	555.176	77.1048	555.176	77.3337	555.176	78.48	555.176	78.6114	555.176	78.9764
574.219	83.6448	574.219	83.4578	574.219	83.6567	574.219	83.0811	574.219	83.4968	574.219	82.4966	574.219	83.1623	574.219	81.7147	574.219	82.6563	574.219	80.8391	574.219	82.0082	574.219	80.1242	574.219	81.3104	574.219	79.843	574.219	80.7425	574.219	79.925	574.219	80.4717	574.219	79.9255	574.219	80.4189	574.219	79.3734	574.219	80.2204	574.219	77.9193	574.219	79.4341	574.219	75.3765	574.219	77.6313	574.219	72.6208	574.219	74.3563	574.219	73.1108	574.219	70.3096	574.219	75.6408	574.219	71.773	574.219	77.4633	574.219	75.3156	574.219	78.315	574.219	77.4025	574.219	78.3088
594.727	83.1461	594.727	83.0212	594.727	83.1545	594.727	82.7546	594.727	83.0241	594.727	82.2807	594.727	82.7004	594.727	81.5292	594.727	82.1238	594.727	80.4931	594.727	81.27	594.727	79.3417	594.727	80.2211	594.727	78.5146	594.727	79.2694	594.727	78.4178	594.727	78.8477	594.727	78.7981	594.727	79.0111	594.727	78.9808	594.727	79.2298	594.727	78.4313	594.727	78.9033	594.727	76.764	594.727	77.5974	594.727	73.5569	594.727	74.95	594.727	68.8999	594.727	71.1183	594.727	68.8979	594.727	70.26	594.727	72.6151	594.727	73.1218	594.727	74.8168	594.727	75.0455	594.727	75.5714
615.234	83.7334	615.234	83.5843	615.234	83.7274	615.234	83.3115	615.234	83.5587	615.234	82.9393	615.234	83.2367	615.234	82.4374	615.234	82.7659	615.234	81.7287	615.234	82.1341	615.234	80.7818	615.234	81.3222	615.234	79.7487	615.234	80.3692	615.234	79.0043	615.234	79.5132	615.234	78.7798	615.234	79.189	615.234	78.7257	615.234	79.4632	615.234	78.224	615.234	79.7402	615.234	76.7869	615.234	79.3845	615.234	74.1601	615.234	78.0387	615.234	71.3038	615.234	75.5866	615.234	71.7459	615.234	72.6061	615.234	73.8295	615.234	71.6879	615.234	74.8694	615.234	73.2646	615.234	74.6218
637.207	84.6318	637.207	84.5554	637.207	84.5681	637.207	84.3152	637.207	84.3871	637.207	83.9011	637.207	84.091	637.207	83.3062	637.207	83.6436	637.207	82.4886	637.207	82.9625	637.207	81.3638	637.207	81.9472	637.207	79.9459	637.207	80.5772	637.207	78.7019	637.207	79.117	637.207	78.432	637.207	78.2031	637.207	78.8456	637.207	78.0721	637.207	78.7997	637.207	77.9951	637.207	77.5406	637.207	77.1776	637.207	74.6912	637.207	75.2645	637.207	71.5138	637.207	73.056	637.207	73.2966	637.207	73.6769	637.207	76.4269	637.207	76.1814	637.207	78.1595	637.207	77.9573	637.207	78.6183
659.18	85.0512	659.18	84.9676	659.18	85.0108	659.18	84.7488	659.18	84.8496	659.18	84.3746	659.18	84.5684	659.18	83.8247	659.18	84.1719	659.18	83.0901	659.18	83.6624	659.18	82.176	659.18	83.0184	659.18	81.1084	659.18	82.1951	659.18	80.0011	659.18	81.214	659.18	79.1642	659.18	80.3121	659.18	78.8776	659.18	79.81	659.18	78.8073	659.18	79.5258	659.18	78.1832	659.18	78.7383	659.18	76.3224	659.18	76.6645	659.18	72.8406	659.18	72.3578	659.18	70.2358	659.18	66.2129	659.18	72.6707	659.18	70.2965	659.18	74.8432	659.18	74.0273	659.18	75.314
682.617	85.853	682.617	85.7231	682.617	85.8362	682.617	85.4588	682.617	85.65	682.617	85.05	682.617	85.275	682.617	84.4689	682.617	84.6959	682.617	83.6865	682.617	83.8908	682.617	82.6932	682.617	82.8266	682.617	81.5628	682.617	81.5145	682.617	80.5887	682.617	80.2102	682.617	80.1916	682.617	79.563	682.617	80.2786	682.617	79.8301	682.617	80.1698	682.617	80.2444	682.617	79.2506	682.617	80.0224	682.617	77.126	682.617	78.7653	682.617	73.6621	682.617	76.3104	682.617	71.168	682.617	73.6743	682.617	73.4905	682.617	74.2911	682.617	76.0302	682.617	76.3037	682.617	76.9948
707.52	86.2566	707.52	86.196	707.52	86.1561	707.52	85.9814	707.52	85.9203	707.52	85.632	707.52	85.5826	707.52	85.1415	707.52	85.1494	707.52	84.4818	707.52	84.597	707.52	83.6457	707.52	83.8907	707.52	82.6593	707.52	83.0045	707.52	81.569	707.52	81.9796	707.52	80.482	707.52	80.9866	707.52	79.5612	707.52	80.151	707.52	78.7268	707.52	79.2138	707.52	77.4648	707.52	77.686	707.52	75.2955	707.52	75.4326	707.52	73.2362	707.52	73.5075	707.52	74.3422	707.52	73.7695	707.52	76.6075	707.52	75.458	707.52	77.8452	707.52	77.0451	707.52	77.9284
732.422	87.0731	732.422	86.951	732.422	86.9798	732.422	86.6117	732.422	86.6913	732.422	86.0765	732.422	86.2413	732.422	85.3788	732.422	85.6628	732.422	84.5438	732.422	84.9594	732.422	83.5994	732.422	84.1205	732.422	82.6393	732.422	83.1809	732.422	81.9084	732.422	82.2279	732.422	81.6716	732.422	81.4075	732.422	81.7342	732.422	81.0177	732.422	81.4767	732.422	81.0997	732.422	80.38	732.422	80.8931	732.422	78.1722	732.422	79.4437	732.422	75.0413	732.422	76.1143	732.422	73.3424	732.422	71.9731	732.422	74.8571	732.422	72.8474	732.422	76.2607	732.422	75.2568	732.422	76.3895
757.324	87.3247	757.324	87.2294	757.324	87.2424	757.324	86.9608	757.324	87.0092	757.324	86.5373	757.324	86.6758	757.324	85.9753	757.324	86.255	757.324	85.2317	757.324	85.66	757.324	84.1449	757.324	84.7345	757.324	82.5536	757.324	83.3931	757.324	80.7915	757.324	81.8495	757.324	80.1509	757.324	80.7571	757.324	80.8075	757.324	80.5123	757.324	81.1843	757.324	80.539	757.324	80.4041	757.324	80.1066	757.324	78.2172	757.324	78.6929	757.324	74.9864	757.324	75.7748	757.324	73.9876	757.324	72.7627	757.324	76.409	757.324	75.2196	757.324	78.3948	757.324	78.0524	757.324	79.0143
785.156	86.6451	785.156	86.5952	785.156	86.6401	785.156	86.4496	785.156	86.5263	785.156	86.1086	785.156	86.202	785.156	85.5104	785.156	85.5897	785.156	84.6938	785.156	84.6886	785.156	83.7634	785.156	83.5875	785.156	82.7703	785.156	82.3817	785.156	81.6502	785.156	80.997	785.156	80.4172	785.156	79.255	785.156	79.4942	785.156	77.7074	785.156	79.2087	785.156	77.6719	785.156	78.7869	785.156	77.8695	785.156	77.1238	785.156	76.1917	785.156	73.878	785.156	71.6939	785.156	73.3115	785.156	69.6949	785.156	76.9988	785.156	74.5219	785.156	79.2646	785.156	77.8996	785.156	79.5037
811.523	86.9006	811.523	86.7863	811.523	86.8406	811.523	86.5562	811.523	86.6319	811.523	86.2939	811.523	86.3424	811.523	85.9876	811.523	86.0199	811.523	85.4773	811.523	85.653	811.523	84.5563	811.523	85.1157	811.523	83.2172	811.523	84.2048	811.523	81.8825	811.523	82.907	811.523	81.1504	811.523	81.6158	811.523	81.13	811.523	80.6801	811.523	81.2995	811.523	80.1028	811.523	80.725	811.523	79.9258	811.523	78.4195	811.523	79.1927	811.523	73.5386	811.523	75.9697	811.523	70.8484	811.523	66.4886	811.523	74.4379	811.523	69.0382	811.523	76.0797	811.523	74.4725	811.523	76.0488
840.82	86.941	840.82	86.8267	840.82	86.916	840.82	86.5552	840.82	86.6805	840.82	86.0318	840.82	86.187	840.82	85.2143	840.82	85.4704	840.82	84.1748	840.82	84.5811	840.82	82.9416	840.82	83.5142	840.82	81.3338	840.82	82.1925	840.82	79.4346	840.82	80.5011	840.82	78.5675	840.82	78.7872	840.82	79.3456	840.82	78.5497	840.82	80.0602	840.82	79.5341	840.82	79.6779	840.82	79.8122	840.82	77.7667	840.82	78.9285	840.82	74.0239	840.82	77.0545	840.82	71.2401	840.82	74.1911	840.82	74.4045	840.82	74.0785	840.82	77.3233	840.82	77.1919	840.82	78.3663
870.117	86.826	870.117	86.5545	870.117	86.8064	870.117	86.0745	870.117	86.4607	870.117	85.3961	870.117	85.8538	870.117	84.5217	870.117	85.15	870.117	83.6775	870.117	84.5406	870.117	83.0853	870.117	83.9444	870.117	82.3251	870.117	82.9688	870.117	80.6447	870.117	81.4303	870.117	78.0367	870.117	79.5625	870.117	76.7055	870.117	77.7019	870.117	77.398	870.117	76.6281	870.117	77.3548	870.117	76.5587	870.117	75.3181	870.117	75.3276	870.117	71.4785	870.117	70.6142	870.117	72.5026	870.117	63.3466	870.117	76.2334	870.117	72.1669	870.117	78.1693	870.117	76.7717	870.117	78.4763
900.879	86.227	900.879	85.8109	900.879	86.2579	900.879	85.2138	900.879	85.8565	900.879	84.6034	900.879	85.138	900.879	83.8902	900.879	84.2609	900.879	82.9134	900.879	83.3201	900.879	81.7486	900.879	82.4389	900.879	80.4713	900.879	81.72	900.879	78.8668	900.879	80.7952	900.879	77.1749	900.879	78.9766	900.879	76.809	900.879	77.0158	900.879	77.6357	900.879	77.724	900.879	77.7511	900.879	78.7222	900.879	75.8607	900.879	77.5806	900.879	70.4725	900.879	73.7895	900.879	69.1425	900.879	67.2801	900.879	74.8072	900.879	68.9049	900.879	76.7247	900.879	73.8123	900.879	76.2468
933.105	86.0262	933.105	85.6587	933.105	86.0961	933.105	85.0882	933.105	85.8393	933.105	84.4055	933.105	85.2587	933.105	83.5838	933.105	84.4063	933.105	82.614	933.105	83.4687	933.105	81.6825	933.105	82.6312	933.105	80.8055	933.105	81.6541	933.105	79.4184	933.105	80.1961	933.105	77.0797	933.105	78.4512	933.105	75.0012	933.105	76.8428	933.105	75.3438	933.105	75.8868	933.105	76.3861	933.105	76.2318	933.105	75.937	933.105	76.2114	933.105	72.5259	933.105	73.5837	933.105	63.9273	933.105	65.3572	933.105	69.0473	933.105	65.7359	933.105	73.7765	933.105	72.8288	933.105	74.846
965.332	86.0241	965.332	85.7861	965.332	85.9057	965.332	85.2432	965.332	85.4889	965.332	84.515	965.332	84.8757	965.332	83.6807	965.332	84.0803	965.332	82.7591	965.332	83.0569	965.332	81.8185	965.332	82.0175	965.332	80.9342	965.332	81.3537	965.332	79.8382	965.332	80.8125	965.332	77.8969	965.332	79.552	965.332	75.5172	965.332	77.1319	965.332	75.616	965.332	75.6899	965.332	76.581	965.332	76.9904	965.332	75.5261	965.332	76.9464	965.332	71.0309	965.332	73.7772	965.332	64.8042	965.332	65.3822	965.332	72.8911	965.332	63.179	965.332	75.9284	965.332	72.1655	965.332	75.5481
1,000.49	85.8088	1,000.49	85.3346	1,000.49	85.9287	1,000.49	84.7224	1,000.49	85.7031	1,000.49	84.1969	1,000.49	85.1498	1,000.49	83.5363	1,000.49	84.2245	1,000.49	82.5005	1,000.49	83.0682	1,000.49	81.4495	1,000.49	82.0385	1,000.49	80.5602	1,000.49	81.1771	1,000.49	79.137	1,000.49	80.285	1,000.49	77.2605	1,000.49	79.1904	1,000.49	76.0376	1,000.49	77.5442	1,000.49	75.5749	1,000.49	76.3846	1,000.49	76.2812	1,000.49	77.2158	1,000.49	76.3597	1,000.49	77.4989	1,000.49	73.3807	1,000.49	75.7512	1,000.49	67.3598	1,000.49	71.003	1,000.49	70.1028	1,000.49	64.1837	1,000.49	73.843	1,000.49	72.1009	1,000.49	74.774
1,035.64	85.8239	1,035.64	85.6436	1,035.64	85.5044	1,035.64	84.9822	1,035.64	84.9939	1,035.64	84.3287	1,035.64	84.56	1,035.64	83.8876	1,035.64	84.0874	1,035.64	83.0797	1,035.64	83.1599	1,035.64	81.8701	1,035.64	81.8795	1,035.64	81.2939	1,035.64	81.1276	1,035.64	80.9068	1,035.64	80.7027	1,035.64	79.2713	1,035.64	79.6244	1,035.64	76.6929	1,035.64	77.9201	1,035.64	75.1149	1,035.64	76.4548	1,035.64	75.1034	1,035.64	77.1505	1,035.64	75.0727	1,035.64	78.3095	1,035.64	72.2369	1,035.64	76.8148	1,035.64	62.2422	1,035.64	71.4235	1,035.64	72.0857	1,035.64	59.0983	1,035.64	75.2433	1,035.64	66.6739	1,035.64	73.2428
1,072.27	85.5082	1,072.27	85.377	1,072.27	85.5344	1,072.27	84.9833	1,072.27	85.4813	1,072.27	84.2125	1,072.27	85.2634	1,072.27	83.1994	1,072.27	84.7005	1,072.27	82.1891	1,072.27	83.6859	1,072.27	81.2883	1,072.27	82.3667	1,072.27	80.5328	1,072.27	81.0702	1,072.27	79.6664	1,072.27	80.2888	1,072.27	78.0311	1,072.27	79.8294	1,072.27	75.8316	1,072.27	78.5005	1,072.27	75.3276	1,072.27	76.408	1,072.27	76.4738	1,072.27	76.7086	1,072.27	76.5486	1,072.27	78.3648	1,072.27	73.4031	1,072.27	77.8655	1,072.27	63.3367	1,072.27	73.7051	1,072.27	70.6847	1,072.27	67.781	1,072.27	75.0628	1,072.27	73.5434	1,072.27	75.9411
1,108.89	86.0804	1,108.89	86.0737	1,108.89	85.8411	1,108.89	85.5254	1,108.89	85.4401	1,108.89	84.5043	1,108.89	84.8837	1,108.89	83.5819	1,108.89	84.3912	1,108.89	82.7558	1,108.89	83.7752	1,108.89	81.6199	1,108.89	82.5397	1,108.89	80.8594	1,108.89	80.9544	1,108.89	80.6431	1,108.89	79.8976	1,108.89	79.849	1,108.89	79.1731	1,108.89	78.3516	1,108.89	77.7289	1,108.89	76.7674	1,108.89	75.5512	1,108.89	76.0977	1,108.89	76.1152	1,108.89	75.693	1,108.89	77.5102	1,108.89	73.3432	1,108.89	76.6139	1,108.89	67.5296	1,108.89	73.4163	1,108.89	67.4482	1,108.89	66.6032	1,108.89	73.1743	1,108.89	69.0565	1,108.89	73.7038
1,148.44	86.008	1,148.44	85.9013	1,148.44	86.116	1,148.44	85.5679	1,148.44	85.9583	1,148.44	84.6489	1,148.44	85.3004	1,148.44	83.5029	1,148.44	84.289	1,148.44	82.7817	1,148.44	83.1343	1,148.44	81.8257	1,148.44	81.8233	1,148.44	80.3563	1,148.44	80.4966	1,148.44	79.657	1,148.44	79.6006	1,148.44	78.4902	1,148.44	78.9058	1,148.44	75.9099	1,148.44	77.6198	1,148.44	75.0254	1,148.44	75.7812	1,148.44	75.374	1,148.44	75.1455	1,148.44	75.1406	1,148.44	75.9755	1,148.44	72.2492	1,148.44	74.8907	1,148.44	52.6252	1,148.44	70.1227	1,148.44	70.3602	1,148.44	68.5114	1,148.44	74.663	1,148.44	72.9823	1,148.44	75.0624
1,189.45	86.3166	1,189.45	85.9651	1,189.45	86.4993	1,189.45	85.4897	1,189.45	86.3764	1,189.45	84.87	1,189.45	85.7825	1,189.45	83.9317	1,189.45	84.9155	1,189.45	82.6525	1,189.45	84.0406	1,189.45	81.3907	1,189.45	82.7774	1,189.45	80.3823	1,189.45	81.0293	1,189.45	79.4896	1,189.45	79.8139	1,189.45	78.3005	1,189.45	79.0878	1,189.45	76.3781	1,189.45	77.2708	1,189.45	74.8727	1,189.45	74.44	1,189.45	75.5371	1,189.45	74.7832	1,189.45	76.1456	1,189.45	76.4859	1,189.45	74.7027	1,189.45	75.4256	1,189.45	69.1355	1,189.45	68.9165	1,189.45	65.7672	1,189.45	67.7502	1,189.45	71.7208	1,189.45	72.0973	1,189.45	72.693
1,230.47	87.0808	1,230.47	86.9435	1,230.47	86.9594	1,230.47	86.3894	1,230.47	86.6867	1,230.47	85.3942	1,230.47	86.0849	1,230.47	84.1783	1,230.47	84.9399	1,230.47	83.0468	1,230.47	83.5674	1,230.47	81.5722	1,230.47	82.4685	1,230.47	79.667	1,230.47	81.2072	1,230.47	79.01	1,230.47	79.5485	1,230.47	78.3319	1,230.47	78.568	1,230.47	76.2362	1,230.47	77.5844	1,230.47	75.1346	1,230.47	75.7401	1,230.47	75.0931	1,230.47	74.4196	1,230.47	75.2455	1,230.47	75.3657	1,230.47	73.4087	1,230.47	75.7	1,230.47	63.9506	1,230.47	70.3025	1,230.47	65.7194	1,230.47	55.2526	1,230.47	72.0477	1,230.47	69.2778	1,230.47	72.5088
1,274.41	86.5485	1,274.41	86.2575	1,274.41	86.4741	1,274.41	85.7035	1,274.41	86.1603	1,274.41	85.0948	1,274.41	85.6268	1,274.41	84.285	1,274.41	84.6315	1,274.41	82.9722	1,274.41	83.2265	1,274.41	81.1958	1,274.41	81.8546	1,274.41	79.2023	1,274.41	80.1398	1,274.41	77.8818	1,274.41	78.3343	1,274.41	77.6225	1,274.41	78.4173	1,274.41	76.4437	1,274.41	77.9507	1,274.41	72.979	1,274.41	75.5472	1,274.41	71.6706	1,274.41	73.7426	1,274.41	74.1936	1,274.41	75.0291	1,274.41	72.5798	1,274.41	75.4477	1,274.41	64.301	1,274.41	71.3267	1,274.41	66.9494	1,274.41	52.4566	1,274.41	71.2878	1,274.41	71.1005	1,274.41	73.0826
1,319.82	86.0339	1,319.82	85.8257	1,319.82	85.7401	1,319.82	85.1851	1,319.82	85.0165	1,319.82	84.3092	1,319.82	84.1914	1,319.82	83.3488	1,319.82	83.4377	1,319.82	82.2002	1,319.82	82.3712	1,319.82	80.9726	1,319.82	80.954	1,319.82	79.7364	1,319.82	79.6015	1,319.82	78.6207	1,319.82	78.0299	1,319.82	78.042	1,319.82	76.8072	1,319.82	76.7494	1,319.82	76.5742	1,319.82	73.9853	1,319.82	74.8302	1,319.82	74.717	1,319.82	72.0368	1,319.82	76.6401	1,319.82	74.2825	1,319.82	75.3008	1,319.82	75.8267	1,319.82	70.0732	1,319.82	74.2845	1,319.82	50.2286	1,319.82	67.162	1,319.82	66.9774	1,319.82	61.4646	1,319.82	69.7426
1,366.7	84.3253	1,366.7	84.0645	1,366.7	84.3053	1,366.7	83.5657	1,366.7	83.7725	1,366.7	82.7396	1,366.7	82.9886	1,366.7	82.0908	1,366.7	82.3537	1,366.7	81.1829	1,366.7	81.5299	1,366.7	79.2641	1,366.7	79.9143	1,366.7	77.2821	1,366.7	78.0185	1,366.7	76.1028	1,366.7	75.5803	1,366.7	75.1314	1,366.7	71.8127	1,366.7	74.0642	1,366.7	72.1896	1,366.7	72.3811	1,366.7	72.6207	1,366.7	72.1117	1,366.7	71.4953	1,366.7	74.8297	1,366.7	72.3123	1,366.7	75.0219	1,366.7	74.3557	1,366.7	69.0264	1,366.7	72.5088	1,366.7	55.8363	1,366.7	64.3067	1,366.7	65.6027	1,366.7	62.5734	1,366.7	66.0756
1,413.57	83.4644	1,413.57	83.4643	1,413.57	83.4797	1,413.57	82.9107	1,413.57	83.4115	1,413.57	81.699	1,413.57	82.5332	1,413.57	80.3752	1,413.57	81.1017	1,413.57	79.1958	1,413.57	80.2985	1,413.57	78.0204	1,413.57	79.503	1,413.57	76.6229	1,413.57	77.711	1,413.57	74.62	1,413.57	75.5321	1,413.57	73.0321	1,413.57	73.7513	1,413.57	73.0944	1,413.57	72.4347	1,413.57	72.4693	1,413.57	70.8939	1,413.57	69.4503	1,413.57	68.9468	1,413.57	72.2187	1,413.57	68.9171	1,413.57	74.2478	1,413.57	72.0929	1,413.57	70.8129	1,413.57	72.5019	1,413.57	60.8112	1,413.57	66.7374	1,413.57	56.339	1,413.57	54.6824	1,413.57	63.2357
1,463.38	83.1275	1,463.38	82.8392	1,463.38	83.1767	1,463.38	82.4761	1,463.38	82.8847	1,463.38	81.5229	1,463.38	82.1343	1,463.38	79.8386	1,463.38	80.9021	1,463.38	78.8324	1,463.38	79.7627	1,463.38	78.1314	1,463.38	78.7908	1,463.38	76.362	1,463.38	77.4251	1,463.38	73.9164	1,463.38	76.0751	1,463.38	71.5725	1,463.38	74.4053	1,463.38	71.9314	1,463.38	72.316	1,463.38	71.9777	1,463.38	71.3665	1,463.38	69.1258	1,463.38	69.1901	1,463.38	70.5159	1,463.38	68.014	1,463.38	72.6299	1,463.38	72.0515	1,463.38	69.0726	1,463.38	73.0507	1,463.38	59.7048	1,463.38	69.398	1,463.38	60.2251	1,463.38	61.9146	1,463.38	62.0105
1,516.11	84.8307	1,516.11	84.5121	1,516.11	84.5909	1,516.11	83.6238	1,516.11	84.053	1,516.11	82.5263	1,516.11	83.3751	1,516.11	81.2754	1,516.11	82.4668	1,516.11	79.7232	1,516.11	81.1866	1,516.11	78.1319	1,516.11	79.7173	1,516.11	76.6374	1,516.11	78.6027	1,516.11	75.1369	1,516.11	77.7421	1,516.11	73.176	1,516.11	75.8242	1,516.11	71.4681	1,516.11	74.2804	1,516.11	71.5897	1,516.11	74.0486	1,516.11	69.8762	1,516.11	71.3751	1,516.11	69.2609	1,516.11	70.613	1,516.11	72.5296	1,516.11	73.1552	1,516.11	71.1936	1,516.11	72.8913	1,516.11	64.8872	1,516.11	65.9009	1,516.11	66.4519	1,516.11	63.0076	1,516.11	67.051
1,568.85	84.7731	1,568.85	84.4391	1,568.85	84.586	1,568.85	83.8159	1,568.85	83.862	1,568.85	82.9785	1,568.85	83.0767	1,568.85	81.7636	1,568.85	82.1691	1,568.85	80.3385	1,568.85	80.7897	1,568.85	79.1851	1,568.85	79.3007	1,568.85	78.3019	1,568.85	77.7466	1,568.85	77.4045	1,568.85	76.1168	1,568.85	76.1063	1,568.85	74.7491	1,568.85	74.1874	1,568.85	73.8632	1,568.85	72.5939	1,568.85	73.9482	1,568.85	70.8661	1,568.85	72.8449	1,568.85	69.6786	1,568.85	69.4115	1,568.85	71.8087	1,568.85	71.5597	1,568.85	70.1422	1,568.85	72.0973	1,568.85	61.1882	1,568.85	68.4667	1,568.85	65.5796	1,568.85	60.7732	1,568.85	66.3041
1,624.51	82.8783	1,624.51	82.6203	1,624.51	82.8552	1,624.51	82.0202	1,624.51	82.4435	1,624.51	81.3625	1,624.51	81.4407	1,624.51	80.2178	1,624.51	80.0738	1,624.51	78.4378	1,624.51	79.0966	1,624.51	77.8251	1,624.51	78.0048	1,624.51	76.9985	1,624.51	76.1922	1,624.51	75.3247	1,624.51	74.357	1,624.51	74.1278	1,624.51	72.3772	1,624.51	73.0908	1,624.51	70.7625	1,624.51	72.2741	1,624.51	70.1947	1,624.51	71.2045	1,624.51	68.8613	1,624.51	70.6918	1,624.51	67.1828	1,624.51	71.3356	1,624.51	69.1447	1,624.51	70.9766	1,624.51	70.9109	1,624.51	66.7118	1,624.51	67.2153	1,624.51	65.2681	1,624.51	56.3715	1,624.51	65.4594
1,681.64	82.4668	1,681.64	82.0534	1,681.64	82.3519	1,681.64	81.2307	1,681.64	81.8002	1,681.64	80.1726	1,681.64	81.1102	1,681.64	78.9386	1,681.64	80.4674	1,681.64	77.8908	1,681.64	79.3823	1,681.64	76.6306	1,681.64	77.8386	1,681.64	75.0657	1,681.64	76.2835	1,681.64	74.4371	1,681.64	74.6696	1,681.64	73.5137	1,681.64	73.7553	1,681.64	73.2067	1,681.64	72.6248	1,681.64	72.5511	1,681.64	71.1182	1,681.64	69.7858	1,681.64	70.9208	1,681.64	69.0638	1,681.64	68.9593	1,681.64	70.457	1,681.64	69.4654	1,681.64	68.8385	1,681.64	70.7549	1,681.64	59.1788	1,681.64	67.135	1,681.64	60.7904	1,681.64	47.5264	1,681.64	61.2108
1,741.7	82.5262	1,741.7	82.2138	1,741.7	82.63	1,741.7	81.6803	1,741.7	82.3162	1,741.7	80.4399	1,741.7	81.8593	1,741.7	78.834	1,741.7	81.101	1,741.7	77.227	1,741.7	79.6313	1,741.7	76.5175	1,741.7	77.9017	1,741.7	75.6729	1,741.7	76.7961	1,741.7	73.6415	1,741.7	75.7072	1,741.7	72.5231	1,741.7	73.9413	1,741.7	71.5342	1,741.7	73.0697	1,741.7	70.4187	1,741.7	73.2193	1,741.7	68.8342	1,741.7	71.4232	1,741.7	67.0045	1,741.7	68.6559	1,741.7	69.9633	1,741.7	69.0595	1,741.7	69.5374	1,741.7	70.5638	1,741.7	60.9765	1,741.7	66.6494	1,741.7	50.3164	1,741.7	57.1818	1,741.7	60.9879
1,803.22	82.9894	1,803.22	82.6773	1,803.22	82.8191	1,803.22	81.9334	1,803.22	82.3306	1,803.22	81.0446	1,803.22	81.5668	1,803.22	79.815	1,803.22	80.5222	1,803.22	78.4985	1,803.22	79.1788	1,803.22	76.8919	1,803.22	77.7599	1,803.22	75.3132	1,803.22	76.6251	1,803.22	73.9609	1,803.22	75.462	1,803.22	71.9897	1,803.22	73.5563	1,803.22	70.577	1,803.22	71.9602	1,803.22	69.9947	1,803.22	70.8046	1,803.22	69.4486	1,803.22	70.0725	1,803.22	67.3449	1,803.22	68.8044	1,803.22	69.0459	1,803.22	68.567	1,803.22	69.2604	1,803.22	70.8094	1,803.22	64.996	1,803.22	67.3255	1,803.22	56.2003	1,803.22	57.3415	1,803.22	59.7355
1,866.21	82.4601	1,866.21	82.1908	1,866.21	82.2535	1,866.21	81.6579	1,866.21	81.7514	1,866.21	80.7345	1,866.21	80.8975	1,866.21	79.6665	1,866.21	79.6917	1,866.21	78.416	1,866.21	78.5236	1,866.21	76.9162	1,866.21	76.9236	1,866.21	75.7368	1,866.21	75.2515	1,866.21	74.4599	1,866.21	74.3423	1,866.21	72.6903	1,866.21	72.7861	1,866.21	71.4857	1,866.21	71.2422	1,866.21	70.7583	1,866.21	69.8258	1,866.21	70.0455	1,866.21	69.0966	1,866.21	68.0595	1,866.21	68.5378	1,866.21	69.4021	1,866.21	67.2963	1,866.21	69.6945	1,866.21	69.484	1,866.21	64.3671	1,866.21	67.7949	1,866.21	57.2007	1,866.21	59.9644	1,866.21	60.8212
1,932.13	81.8927	1,932.13	81.5778	1,932.13	81.9131	1,932.13	80.8866	1,932.13	81.4132	1,932.13	79.9602	1,932.13	80.5724	1,932.13	78.94	1,932.13	79.5467	1,932.13	77.6581	1,932.13	78.347	1,932.13	76.5037	1,932.13	77.0723	1,932.13	75.2976	1,932.13	75.6129	1,932.13	74.2994	1,932.13	74.3338	1,932.13	72.7621	1,932.13	73.2179	1,932.13	71.3532	1,932.13	71.3674	1,932.13	70.2599	1,932.13	70.1918	1,932.13	70.2835	1,932.13	69.1515	1,932.13	69.1763	1,932.13	69.088	1,932.13	69.7797	1,932.13	67.6868	1,932.13	70.1833	1,932.13	69.1813	1,932.13	64.6686	1,932.13	68.3466	1,932.13	60.2669	1,932.13	59.626	1,932.13	57.8079
1,999.51	82.135	1,999.51	81.6303	1,999.51	82.111	1,999.51	80.7619	1,999.51	81.7783	1,999.51	79.8355	1,999.51	81.0695	1,999.51	78.583	1,999.51	80.1116	1,999.51	77.4077	1,999.51	79.0637	1,999.51	75.895	1,999.51	77.9187	1,999.51	74.3476	1,999.51	76.2711	1,999.51	73.5036	1,999.51	74.9675	1,999.51	72.1218	1,999.51	74.0997	1,999.51	70.3375	1,999.51	72.257	1,999.51	69.8698	1,999.51	71.3468	1,999.51	69.5488	1,999.51	70.2269	1,999.51	68.2714	1,999.51	70.1327	1,999.51	67.9737	1,999.51	69.3515	1,999.51	69.0664	1,999.51	70.1022	1,999.51	65.577	1,999.51	68.9422	1,999.51	56.8653	1,999.51	62.9659	1,999.51	56.9939
2,069.82	82.3382	2,069.82	82.0274	2,069.82	82.2628	2,069.82	81.3378	2,069.82	81.8624	2,069.82	80.3884	2,069.82	81.1263	2,069.82	79.3434	2,069.82	80.1641	2,069.82	78.2235	2,069.82	79.1311	2,069.82	76.7901	2,069.82	78.1072	2,069.82	75.087	2,069.82	76.7898	2,069.82	73.6963	2,069.82	75.1796	2,069.82	72.5258	2,069.82	73.9901	2,069.82	70.8495	2,069.82	72.9279	2,069.82	69.6383	2,069.82	71.6023	2,069.82	68.6592	2,069.82	70.8237	2,069.82	68.9581	2,069.82	70.2504	2,069.82	69.272	2,069.82	69.6077	2,069.82	70.7079	2,069.82	70.3711	2,069.82	66.2503	2,069.82	69.669	2,069.82	60.502	2,069.82	63.9204	2,069.82	62.7657
2,143.07	81.8409	2,143.07	81.69	2,143.07	81.7641	2,143.07	81.3237	2,143.07	81.2529	2,143.07	80.5985	2,143.07	80.5125	2,143.07	79.6633	2,143.07	79.6304	2,143.07	78.4856	2,143.07	78.5433	2,143.07	77.5587	2,143.07	77.226	2,143.07	76.0205	2,143.07	76.0916	2,143.07	74.339	2,143.07	74.126	2,143.07	73.436	2,143.07	73.1019	2,143.07	71.861	2,143.07	70.9427	2,143.07	70.1533	2,143.07	70.4929	2,143.07	69.9952	2,143.07	69.7793	2,143.07	69.8754	2,143.07	69.5598	2,143.07	69.0924	2,143.07	68.3124	2,143.07	70.3261	2,143.07	70.2548	2,143.07	68.6914	2,143.07	68.6932	2,143.07	62.7846	2,143.07	63.5308	2,143.07	60.0795
2,219.24	81.7504	2,219.24	81.5091	2,219.24	81.7482	2,219.24	80.9432	2,219.24	81.3402	2,219.24	80.1261	2,219.24	80.683	2,219.24	79.3134	2,219.24	80.0515	2,219.24	78.212	2,219.24	79.1557	2,219.24	76.9942	2,219.24	77.9165	2,219.24	75.5796	2,219.24	76.7458	2,219.24	73.9264	2,219.24	75.0201	2,219.24	72.7867	2,219.24	73.4247	2,219.24	71.2388	2,219.24	71.6839	2,219.24	70.6285	2,219.24	70.1243	2,219.24	70.144	2,219.24	69.5758	2,219.24	70.3188	2,219.24	69.1737	2,219.24	69.01	2,219.24	69.0804	2,219.24	69.6141	2,219.24	69.9567	2,219.24	66.3684	2,219.24	70.5455	2,219.24	59.1809	2,219.24	66.1358	2,219.24	63.0778
2,296.88	82.6254	2,296.88	82.2747	2,296.88	82.6582	2,296.88	81.7683	2,296.88	82.4017	2,296.88	80.983	2,296.88	81.9062	2,296.88	80.035	2,296.88	81.1089	2,296.88	78.9062	2,296.88	80.2953	2,296.88	77.3373	2,296.88	79.4266	2,296.88	75.8148	2,296.88	77.8554	2,296.88	73.8746	2,296.88	76.3672	2,296.88	72.8414	2,296.88	74.9364	2,296.88	71.3656	2,296.88	74.1492	2,296.88	70.9763	2,296.88	71.8374	2,296.88	69.3805	2,296.88	71.7588	2,296.88	69.4957	2,296.88	70.7256	2,296.88	70.1105	2,296.88	71.2143	2,296.88	72.0288	2,296.88	70.4367	2,296.88	67.6497	2,296.88	71.7333	2,296.88	64.7843	2,296.88	66.3138	2,296.88	65.5044
2,378.91	82.2792	2,378.91	82.1077	2,378.91	82.1788	2,378.91	81.8471	2,378.91	81.9203	2,378.91	81.3529	2,378.91	81.5781	2,378.91	80.6458	2,378.91	80.8508	2,378.91	79.7139	2,378.91	80.0068	2,378.91	78.2118	2,378.91	79.0233	2,378.91	76.9271	2,378.91	77.5196	2,378.91	75.1841	2,378.91	75.9695	2,378.91	73.8025	2,378.91	74.3994	2,378.91	71.9755	2,378.91	73.7968	2,378.91	70.6264	2,378.91	71.4964	2,378.91	69.6499	2,378.91	71.1471	2,378.91	70.1496	2,378.91	69.8139	2,378.91	69.5469	2,378.91	70.4461	2,378.91	70.9791	2,378.91	70.9146	2,378.91	69.0467	2,378.91	70.7941	2,378.91	62.6353	2,378.91	65.3456	2,378.91	61.6943
2,462.4	81.1724	2,462.4	81.1301	2,462.4	81.0516	2,462.4	80.942	2,462.4	81.0226	2,462.4	80.6274	2,462.4	80.923	2,462.4	79.9769	2,462.4	80.4454	2,462.4	79.2143	2,462.4	79.4103	2,462.4	78.2431	2,462.4	78.4443	2,462.4	76.9114	2,462.4	77.1674	2,462.4	75.4031	2,462.4	75.4054	2,462.4	73.7438	2,462.4	73.2549	2,462.4	72.2364	2,462.4	71.4688	2,462.4	71.2929	2,462.4	70.2392	2,462.4	70.2934	2,462.4	69.3953	2,462.4	70.1419	2,462.4	69.3651	2,462.4	70.2765	2,462.4	69.3914	2,462.4	70.595	2,462.4	69.7177	2,462.4	69.3664	2,462.4	70.0741	2,462.4	65.4078	2,462.4	63.704	2,462.4	62.9876
2,548.83	81.9294	2,548.83	81.9717	2,548.83	82.0201	2,548.83	81.7176	2,548.83	82.1566	2,548.83	81.5615	2,548.83	82.2504	2,548.83	80.7485	2,548.83	82.1072	2,548.83	79.6385	2,548.83	81.2898	2,548.83	78.2882	2,548.83	80.1851	2,548.83	76.6698	2,548.83	78.6496	2,548.83	75.2715	2,548.83	77.0483	2,548.83	73.166	2,548.83	75.1598	2,548.83	72.6051	2,548.83	73.4107	2,548.83	71.0041	2,548.83	71.7702	2,548.83	69.8498	2,548.83	71.1208	2,548.83	70.0022	2,548.83	69.7928	2,548.83	69.5811	2,548.83	70.5768	2,548.83	70.6661	2,548.83	70.2957	2,548.83	68.3858	2,548.83	71.1364	2,548.83	57.9402	2,548.83	66.203	2,548.83	60.9953
2,639.65	81.9534	2,639.65	82.0492	2,639.65	81.9992	2,639.65	82.231	2,639.65	82.4251	2,639.65	82.2495	2,639.65	82.5532	2,639.65	81.8448	2,639.65	82.3367	2,639.65	80.9149	2,639.65	81.7092	2,639.65	79.6457	2,639.65	80.4694	2,639.65	77.7624	2,639.65	78.8711	2,639.65	76.4309	2,639.65	77.8664	2,639.65	74.0257	2,639.65	75.5771	2,639.65	72.7902	2,639.65	74.4236	2,639.65	71.6289	2,639.65	73.4344	2,639.65	70.9535	2,639.65	72.0404	2,639.65	69.8724	2,639.65	70.8907	2,639.65	70.869	2,639.65	71.7733	2,639.65	70.9092	2,639.65	70.5188	2,639.65	69.3848	2,639.65	71.2831	2,639.65	62.1809	2,639.65	66.1098	2,639.65	62.6769
2,731.93	81.2155	2,731.93	81.422	2,731.93	81.3102	2,731.93	81.7482	2,731.93	81.8396	2,731.93	81.7423	2,731.93	82.144	2,731.93	81.6027	2,731.93	82.093	2,731.93	80.6916	2,731.93	81.4669	2,731.93	79.493	2,731.93	79.9699	2,731.93	78.0251	2,731.93	78.5837	2,731.93	76.6254	2,731.93	77.0698	2,731.93	74.8679	2,731.93	75.3819	2,731.93	73.2791	2,731.93	73.7828	2,731.93	71.915	2,731.93	72.3197	2,731.93	71.6275	2,731.93	71.5511	2,731.93	70.0481	2,731.93	68.9159	2,731.93	71.0787	2,731.93	69.8169	2,731.93	71.3316	2,731.93	69.5411	2,731.93	70.4446	2,731.93	70.701	2,731.93	58.387	2,731.93	65.7702	2,731.93	60.34
2,828.61	81.6534	2,828.61	81.9866	2,828.61	81.9397	2,828.61	82.4921	2,828.61	82.5495	2,828.61	82.4964	2,828.61	82.9896	2,828.61	82.0647	2,828.61	82.8581	2,828.61	80.5939	2,828.61	82.0247	2,828.61	78.9229	2,828.61	80.6882	2,828.61	77.4481	2,828.61	79.2591	2,828.61	75.497	2,828.61	76.7136	2,828.61	73.7465	2,828.61	75.4493	2,828.61	72.5824	2,828.61	73.4461	2,828.61	71.2448	2,828.61	72.006	2,828.61	70.975	2,828.61	71.1965	2,828.61	69.821	2,828.61	70.4332	2,828.61	70.0476	2,828.61	70.2828	2,828.61	70.0479	2,828.61	70.954	2,828.61	69.2457	2,828.61	70.8948	2,828.61	64.295	2,828.61	64.8038	2,828.61	58.0106
2,928.22	82.4021	2,928.22	82.682	2,928.22	82.6468	2,928.22	83.4199	2,928.22	83.3382	2,928.22	83.7076	2,928.22	83.8995	2,928.22	83.0729	2,928.22	83.5751	2,928.22	82.0406	2,928.22	82.5903	2,928.22	80.0798	2,928.22	81.0806	2,928.22	78.1136	2,928.22	79.0659	2,928.22	76.2547	2,928.22	76.6392	2,928.22	74.8686	2,928.22	75.3582	2,928.22	72.5724	2,928.22	73.634	2,928.22	71.7313	2,928.22	72.027	2,928.22	71.4299	2,928.22	71.448	2,928.22	70.3167	2,928.22	71.5624	2,928.22	69.6035	2,928.22	70.1796	2,928.22	70.7373	2,928.22	70.5051	2,928.22	71.3203	2,928.22	70.9818	2,928.22	58.3356	2,928.22	66.4225	2,928.22	60.8026
3,030.76	82.2475	3,030.76	82.7917	3,030.76	82.5338	3,030.76	83.4707	3,030.76	83.2084	3,030.76	83.9018	3,030.76	83.7724	3,030.76	83.0802	3,030.76	83.4447	3,030.76	82.128	3,030.76	82.4491	3,030.76	80.5643	3,030.76	81.0513	3,030.76	78.4321	3,030.76	79.2715	3,030.76	76.8311	3,030.76	77.3417	3,030.76	74.9376	3,030.76	75.0363	3,030.76	74.0723	3,030.76	73.371	3,030.76	73.0599	3,030.76	73.3064	3,030.76	71.7377	3,030.76	71.9211	3,030.76	71.6726	3,030.76	72.0399	3,030.76	70.808	3,030.76	70.3735	3,030.76	70.638	3,030.76	70.4342	3,030.76	70.905	3,030.76	70.899	3,030.76	63.6351	3,030.76	66.8568	3,030.76	60.8858
3,137.7	82.2424	3,137.7	82.7978	3,137.7	82.5808	3,137.7	83.5796	3,137.7	83.3423	3,137.7	83.6909	3,137.7	83.9632	3,137.7	83.1386	3,137.7	83.8517	3,137.7	81.7176	3,137.7	82.6848	3,137.7	80.2067	3,137.7	81.1651	3,137.7	78.1878	3,137.7	79.6962	3,137.7	76.4483	3,137.7	77.6045	3,137.7	74.9579	3,137.7	76.057	3,137.7	72.658	3,137.7	73.8336	3,137.7	72.4057	3,137.7	73.0623	3,137.7	72.2535	3,137.7	71.7764	3,137.7	71.7641	3,137.7	72.3195	3,137.7	71.3902	3,137.7	71.3545	3,137.7	70.4601	3,137.7	71.1133	3,137.7	70.818	3,137.7	71.2095	3,137.7	61.928	3,137.7	68.5944	3,137.7	61.914
3,249.02	82.6426	3,249.02	83.4536	3,249.02	83.0026	3,249.02	84.1705	3,249.02	84.0754	3,249.02	84.1054	3,249.02	84.5706	3,249.02	83.5928	3,249.02	84.3243	3,249.02	82.293	3,249.02	83.3104	3,249.02	80.3696	3,249.02	81.5362	3,249.02	78.4822	3,249.02	79.7536	3,249.02	76.3384	3,249.02	78.1106	3,249.02	74.7159	3,249.02	76.3006	3,249.02	72.7854	3,249.02	74.1945	3,249.02	72.3001	3,249.02	73.3172	3,249.02	71.6931	3,249.02	72.1185	3,249.02	71.3484	3,249.02	72.614	3,249.02	72.2639	3,249.02	71.2147	3,249.02	70.9965	3,249.02	72.0338	3,249.02	71.2289	3,249.02	72.7311	3,249.02	60.8886	3,249.02	69.0703	3,249.02	54.9435
3,363.28	82.4622	3,363.28	83.2783	3,363.28	82.5867	3,363.28	84.2557	3,363.28	83.5787	3,363.28	84.4274	3,363.28	84.4014	3,363.28	83.9976	3,363.28	84.3642	3,363.28	82.8233	3,363.28	83.4246	3,363.28	80.6676	3,363.28	82.1677	3,363.28	79.3762	3,363.28	80.3817	3,363.28	76.9937	3,363.28	78.1547	3,363.28	75.1171	3,363.28	75.9936	3,363.28	73.3858	3,363.28	74.6546	3,363.28	72.6147	3,363.28	72.8985	3,363.28	72.1268	3,363.28	71.4005	3,363.28	73.3764	3,363.28	72.1186	3,363.28	72.1796	3,363.28	71.1367	3,363.28	72.1465	3,363.28	72.3684	3,363.28	72.5225	3,363.28	71.5841	3,363.28	61.4977	3,363.28	68.7808	3,363.28	57.0386
3,481.93	82.5404	3,481.93	83.1815	3,481.93	82.7667	3,481.93	84.0742	3,481.93	83.6604	3,481.93	84.5595	3,481.93	84.6863	3,481.93	83.6066	3,481.93	84.9949	3,481.93	82.6528	3,481.93	84.0229	3,481.93	80.782	3,481.93	82.6926	3,481.93	79.3354	3,481.93	80.9132	3,481.93	76.8262	3,481.93	79.0268	3,481.93	74.9278	3,481.93	76.8339	3,481.93	73.6619	3,481.93	75.1691	3,481.93	72.0926	3,481.93	74.0587	3,481.93	72.2107	3,481.93	72.7585	3,481.93	71.9148	3,481.93	73.2799	3,481.93	72.2003	3,481.93	72.4206	3,481.93	72.7343	3,481.93	72.5903	3,481.93	71.581	3,481.93	71.8841	3,481.93	62.5046	3,481.93	68.8016	3,481.93	55.0754
3,604.98	82.4566	3,604.98	82.9086	3,604.98	82.6549	3,604.98	84.1521	3,604.98	83.3526	3,604.98	84.9667	3,604.98	84.47	3,604.98	84.6125	3,604.98	84.7436	3,604.98	82.8565	3,604.98	84.0864	3,604.98	81.4545	3,604.98	82.5942	3,604.98	78.6935	3,604.98	80.6672	3,604.98	77.2129	3,604.98	78.61	3,604.98	76.2804	3,604.98	76.5758	3,604.98	73.7819	3,604.98	75.0477	3,604.98	73.287	3,604.98	73.178	3,604.98	72.4166	3,604.98	72.8674	3,604.98	73.3065	3,604.98	72.1721	3,604.98	72.5348	3,604.98	70.7399	3,604.98	71.6933	3,604.98	72.1299	3,604.98	71.8034	3,604.98	70.9731	3,604.98	61.8217	3,604.98	68.2477	3,604.98	58.3418
3,732.42	83.2756	3,732.42	83.9284	3,732.42	83.4416	3,732.42	84.8081	3,732.42	84.4761	3,732.42	85.1012	3,732.42	85.322	3,732.42	84.8242	3,732.42	85.6373	3,732.42	83.7053	3,732.42	85.0632	3,732.42	81.9759	3,732.42	83.9454	3,732.42	79.7609	3,732.42	82.1469	3,732.42	78.0919	3,732.42	80.2691	3,732.42	75.7248	3,732.42	78.2814	3,732.42	74.3104	3,732.42	76.5452	3,732.42	72.4296	3,732.42	74.7198	3,732.42	71.6194	3,732.42	73.8546	3,732.42	73.8223	3,732.42	73.6715	3,732.42	72.0971	3,732.42	72.9266	3,732.42	71.7274	3,732.42	73.0473	3,732.42	71.7019	3,732.42	71.7318	3,732.42	58.8306	3,732.42	69.0266	3,732.42	55.3173
3,864.26	83.5443	3,864.26	83.9794	3,864.26	83.5282	3,864.26	84.6681	3,864.26	84.3799	3,864.26	84.8868	3,864.26	84.8238	3,864.26	84.1837	3,864.26	85.1741	3,864.26	83.8643	3,864.26	84.6658	3,864.26	82.4636	3,864.26	83.2057	3,864.26	80.8471	3,864.26	81.8079	3,864.26	78.0727	3,864.26	79.1586	3,864.26	75.6955	3,864.26	76.9689	3,864.26	74.8975	3,864.26	75.0057	3,864.26	72.2655	3,864.26	73.0475	3,864.26	71.3091	3,864.26	72.5266	3,864.26	72.8597	3,864.26	72.3226	3,864.26	71.8839	3,864.26	73.517	3,864.26	73.3021	3,864.26	73.0332	3,864.26	72.0524	3,864.26	70.6885	3,864.26	64.6216	3,864.26	70.3314	3,864.26	55.6712
4,000.49	85.0481	4,000.49	84.7956	4,000.49	85.2023	4,000.49	85.2191	4,000.49	84.8426	4,000.49	85.258	4,000.49	85.7958	4,000.49	85.3734	4,000.49	85.7	4,000.49	83.4914	4,000.49	85.3695	4,000.49	81.8173	4,000.49	84.2708	4,000.49	78.9578	4,000.49	82.1971	4,000.49	76.4117	4,000.49	80.2252	4,000.49	75.6855	4,000.49	78.1398	4,000.49	74.1369	4,000.49	76.6157	4,000.49	73.0693	4,000.49	74.407	4,000.49	71.248	4,000.49	73.4867	4,000.49	71.9108	4,000.49	73.1694	4,000.49	71.7671	4,000.49	73.782	4,000.49	71.6455	4,000.49	73.6933	4,000.49	70.4051	4,000.49	71.3083	4,000.49	60.8471	4,000.49	69.3262	4,000.49	57.1282
4,141.11	84.9286	4,141.11	84.9177	4,141.11	84.7481	4,141.11	84.8175	4,141.11	84.8515	4,141.11	85.1367	4,141.11	84.8323	4,141.11	85.106	4,141.11	85.5177	4,141.11	84.8149	4,141.11	84.6366	4,141.11	83.2568	4,141.11	83.6594	4,141.11	81.7369	4,141.11	82.0995	4,141.11	79.5134	4,141.11	80.1305	4,141.11	77.0176	4,141.11	78.4916	4,141.11	75.5697	4,141.11	75.5905	4,141.11	73.4805	4,141.11	74.6152	4,141.11	72.073	4,141.11	72.4591	4,141.11	72.9013	4,141.11	71.346	4,141.11	72.9098	4,141.11	72.4279	4,141.11	72.2234	4,141.11	73.5495	4,141.11	71.4209	4,141.11	70.9085	4,141.11	60.2835	4,141.11	69.9809	4,141.11	56.1728
4,287.6	85.9463	4,287.6	84.7585	4,287.6	85.6827	4,287.6	84.8928	4,287.6	85.0149	4,287.6	84.8546	4,287.6	84.8723	4,287.6	84.4708	4,287.6	84.8885	4,287.6	83.8215	4,287.6	85.4267	4,287.6	83.0731	4,287.6	84.0961	4,287.6	80.5766	4,287.6	82.3867	4,287.6	78.3021	4,287.6	80.016	4,287.6	76.8032	4,287.6	76.8307	4,287.6	74.0908	4,287.6	76.1641	4,287.6	71.9118	4,287.6	73.8842	4,287.6	71.4446	4,287.6	73.3806	4,287.6	71.7334	4,287.6	72.0218	4,287.6	71.4276	4,287.6	73.6533	4,287.6	71.6579	4,287.6	72.44	4,287.6	68.8931	4,287.6	70.9803	4,287.6	59.7124	4,287.6	68.6191	4,287.6	63.1697
4,438.48	85.214	4,438.48	85.0682	4,438.48	85.6703	4,438.48	83.5431	4,438.48	84.7004	4,438.48	83.7145	4,438.48	84.7705	4,438.48	85.4201	4,438.48	85.3793	4,438.48	85.0482	4,438.48	84.743	4,438.48	83.3253	4,438.48	84.1864	4,438.48	81.2091	4,438.48	82.9282	4,438.48	78.2817	4,438.48	79.9214	4,438.48	75.3956	4,438.48	78.1284	4,438.48	74.8533	4,438.48	75.6694	4,438.48	73.5547	4,438.48	74.28	4,438.48	72.8855	4,438.48	72.3193	4,438.48	72.7785	4,438.48	70.5791	4,438.48	71.9647	4,438.48	72.0649	4,438.48	72.1845	4,438.48	73.3385	4,438.48	68.7596	4,438.48	70.938	4,438.48	58.233	4,438.48	67.9642	4,438.48	64.2151
4,595.21	86.0869	4,595.21	84.5507	4,595.21	85.1673	4,595.21	84.5166	4,595.21	84.0183	4,595.21	85.1119	4,595.21	83.368	4,595.21	84.6378	4,595.21	84.0199	4,595.21	84.426	4,595.21	85.2415	4,595.21	83.6345	4,595.21	84.7711	4,595.21	80.9124	4,595.21	82.3225	4,595.21	77.7693	4,595.21	80.4056	4,595.21	76.0317	4,595.21	77.3648	4,595.21	74.7157	4,595.21	75.8293	4,595.21	72.3729	4,595.21	73.6933	4,595.21	72.1129	4,595.21	73.1113	4,595.21	71.7493	4,595.21	72.1948	4,595.21	71.8572	4,595.21	71.7496	4,595.21	70.8335	4,595.21	70.7146	4,595.21	68.2058	4,595.21	69.3242	4,595.21	59.4143	4,595.21	67.6799	4,595.21	61.8371
4,756.35	85.5542	4,756.35	84.4255	4,756.35	85.8149	4,756.35	82.7255	4,756.35	83.9212	4,756.35	82.933	4,756.35	83.9708	4,756.35	84.4657	4,756.35	84.7904	4,756.35	84.4809	4,756.35	84.6317	4,756.35	82.8965	4,756.35	83.8154	4,756.35	80.8255	4,756.35	82.7934	4,756.35	78.9666	4,756.35	79.2966	4,756.35	76.4441	4,756.35	76.9289	4,756.35	74.4268	4,756.35	75.0702	4,756.35	71.7307	4,756.35	73.9697	4,756.35	71.0931	4,756.35	72.3758	4,756.35	71.6123	4,756.35	70.8513	4,756.35	73.0406	4,756.35	72.7157	4,756.35	72.0967	4,756.35	72.1047	4,756.35	67.8413	4,756.35	69.6559	4,756.35	55.3022	4,756.35	67.7071	4,756.35	64.1834
4,924.8	85.4973	4,924.8	84.3128	4,924.8	84.4917	4,924.8	83.3505	4,924.8	83.3022	4,924.8	84.1898	4,924.8	82.5395	4,924.8	84.8779	4,924.8	83.8034	4,924.8	84.548	4,924.8	85.1384	4,924.8	83.4478	4,924.8	84.4261	4,924.8	80.5421	4,924.8	82.1643	4,924.8	76.3145	4,924.8	80.5619	4,924.8	74.5492	4,924.8	76.5722	4,924.8	73.5064	4,924.8	74.4729	4,924.8	70.9933	4,924.8	72.9068	4,924.8	70.1638	4,924.8	71.2246	4,924.8	71.0622	4,924.8	71.6323	4,924.8	69.9614	4,924.8	72.2542	4,924.8	70.6505	4,924.8	72.1769	4,924.8	68.5778	4,924.8	69.7049	4,924.8	57.3457	4,924.8	63.8001	4,924.8	64.7647
5,097.66	85.6273	5,097.66	83.9959	5,097.66	85.4327	5,097.66	82.5902	5,097.66	83.3509	5,097.66	83.0544	5,097.66	83.6622	5,097.66	83.9989	5,097.66	85.032	5,097.66	84.0498	5,097.66	85.1704	5,097.66	83.0501	5,097.66	83.9108	5,097.66	80.7196	5,097.66	82.5631	5,097.66	78.9743	5,097.66	79.0102	5,097.66	75.8893	5,097.66	76.5333	5,097.66	72.9989	5,097.66	74.4813	5,097.66	71.3222	5,097.66	73.21	5,097.66	71.5919	5,097.66	71.1083	5,097.66	68.7863	5,097.66	70.8805	5,097.66	71.9619	5,097.66	71.534	5,097.66	70.6045	5,097.66	72.1435	5,097.66	65.6648	5,097.66	69.4482	5,097.66	59.2446	5,097.66	65.0599	5,097.66	64.6069
5,277.83	84.9472	5,277.83	84.163	5,277.83	84.2597	5,277.83	83.0968	5,277.83	83.3627	5,277.83	84.2728	5,277.83	83.2553	5,277.83	85.2826	5,277.83	84.5156	5,277.83	84.7445	5,277.83	84.9774	5,277.83	83.0023	5,277.83	84.0423	5,277.83	81.3731	5,277.83	82.0047	5,277.83	77.5824	5,277.83	80.3184	5,277.83	75.0378	5,277.83	77.1662	5,277.83	72.6098	5,277.83	74.7732	5,277.83	70.6268	5,277.83	72.4838	5,277.83	69.7673	5,277.83	71.64	5,277.83	70.4288	5,277.83	68.4038	5,277.83	68.0915	5,277.83	71.1398	5,277.83	70.8326	5,277.83	71.4049	5,277.83	68.2604	5,277.83	69.8661	5,277.83	58.6452	5,277.83	64.9282	5,277.83	65.3339
5,463.87	85.8505	5,463.87	84.9544	5,463.87	85.7721	5,463.87	84.2554	5,463.87	84.3279	5,463.87	84.2755	5,463.87	83.889	5,463.87	84.6756	5,463.87	84.5617	5,463.87	84.0542	5,463.87	84.7927	5,463.87	82.1587	5,463.87	83.8793	5,463.87	79.1	5,463.87	82.2485	5,463.87	77.0739	5,463.87	79.2015	5,463.87	74.0505	5,463.87	76.4223	5,463.87	72.5358	5,463.87	74.551	5,463.87	70.2877	5,463.87	71.7834	5,463.87	70.3621	5,463.87	70.2889	5,463.87	71.1392	5,463.87	70.7091	5,463.87	70.4232	5,463.87	69.4104	5,463.87	68.4208	5,463.87	70.4864	5,463.87	65.5691	5,463.87	67.8539	5,463.87	58.5384	5,463.87	60.9544	5,463.87	65.8092
5,657.23	85.3407	5,657.23	84.7477	5,657.23	85.025	5,657.23	84.0188	5,657.23	84.4705	5,657.23	83.8833	5,657.23	84.1141	5,657.23	84.3502	5,657.23	84.4779	5,657.23	83.74	5,657.23	84.5523	5,657.23	82.8974	5,657.23	83.4517	5,657.23	81.1879	5,657.23	81.5517	5,657.23	77.4344	5,657.23	79.5824	5,657.23	76.069	5,657.23	76.0375	5,657.23	73.7489	5,657.23	73.9867	5,657.23	71.9486	5,657.23	71.2343	5,657.23	71.208	5,657.23	69.7804	5,657.23	71.2376	5,657.23	69.4825	5,657.23	71.5529	5,657.23	70.5984	5,657.23	70.8471	5,657.23	69.2033	5,657.23	66.7888	5,657.23	69.587	5,657.23	47.5572	5,657.23	63.1027	5,657.23	65.0534
5,856.45	85.0563	5,856.45	84.783	5,856.45	85.198	5,856.45	84.1595	5,856.45	84.6942	5,856.45	84.0001	5,856.45	83.9382	5,856.45	84.5543	5,856.45	84.3023	5,856.45	84.0342	5,856.45	84.1972	5,856.45	82.7663	5,856.45	83.3269	5,856.45	80.0537	5,856.45	81.9235	5,856.45	77.2673	5,856.45	79.0946	5,856.45	74.3787	5,856.45	76.2679	5,856.45	71.2327	5,856.45	74.2959	5,856.45	69.6482	5,856.45	72.4868	5,856.45	69.319	5,856.45	69.823	5,856.45	69.9048	5,856.45	70.6937	5,856.45	69.9846	5,856.45	70.758	5,856.45	69.9781	5,856.45	70.4335	5,856.45	66.4614	5,856.45	68.1704	5,856.45	48.5138	5,856.45	61.7229	5,856.45	64.8403
6,062.99	84.3741	6,062.99	84.8487	6,062.99	84.3839	6,062.99	83.949	6,062.99	84.4183	6,062.99	83.4688	6,062.99	83.3761	6,062.99	83.4059	6,062.99	83.2797	6,062.99	82.9865	6,062.99	83.4737	6,062.99	81.7926	6,062.99	82.9048	6,062.99	80.1214	6,062.99	81.2952	6,062.99	77.4199	6,062.99	79.6417	6,062.99	75.1168	6,062.99	75.9131	6,062.99	72.8714	6,062.99	73.0688	6,062.99	70.9084	6,062.99	71.3063	6,062.99	69.4883	6,062.99	70.055	6,062.99	68.4168	6,062.99	70.0423	6,062.99	70.6234	6,062.99	71.0728	6,062.99	69.8358	6,062.99	69.635	6,062.99	63.2194	6,062.99	68.9662	6,062.99	50.7807	6,062.99	61.5858	6,062.99	63.2378
6,276.86	84.8237	6,276.86	85.0516	6,276.86	84.9406	6,276.86	84.0391	6,276.86	84.6446	6,276.86	82.7113	6,276.86	83.1951	6,276.86	82.8582	6,276.86	82.8921	6,276.86	83.2207	6,276.86	83.6417	6,276.86	82.3487	6,276.86	83.1255	6,276.86	80.4726	6,276.86	81.9527	6,276.86	78.1379	6,276.86	79.5986	6,276.86	74.7316	6,276.86	76.5313	6,276.86	71.4137	6,276.86	74.1263	6,276.86	70.8455	6,276.86	71.3868	6,276.86	67.9129	6,276.86	69.0928	6,276.86	69.6575	6,276.86	70.4108	6,276.86	70.1103	6,276.86	70.9701	6,276.86	68.2134	6,276.86	69.9188	6,276.86	64.0939	6,276.86	68.1548	6,276.86	52.8565	6,276.86	57.5449	6,276.86	64.9582
6,498.05	84.0762	6,498.05	84.6427	6,498.05	84.6084	6,498.05	83.492	6,498.05	84.6578	6,498.05	81.8185	6,498.05	82.9712	6,498.05	82.3364	6,498.05	82.1071	6,498.05	82.8176	6,498.05	82.9802	6,498.05	81.8292	6,498.05	82.8782	6,498.05	80.1425	6,498.05	81.1665	6,498.05	76.9399	6,498.05	79.1446	6,498.05	73.8216	6,498.05	75.5472	6,498.05	71.2914	6,498.05	72.785	6,498.05	68.3435	6,498.05	69.9529	6,498.05	68.7109	6,498.05	67.827	6,498.05	67.1606	6,498.05	68.9336	6,498.05	68.6262	6,498.05	68.797	6,498.05	67.0896	6,498.05	68.467	6,498.05	62.4315	6,498.05	66.5655	6,498.05	49.8011	6,498.05	55.6494	6,498.05	63.6538
6,726.56	83.8242	6,726.56	84.5867	6,726.56	83.7943	6,726.56	83.4502	6,726.56	84.4517	6,726.56	81.6946	6,726.56	82.4269	6,726.56	82.3296	6,726.56	81.6754	6,726.56	82.7714	6,726.56	82.9234	6,726.56	81.7358	6,726.56	82.5293	6,726.56	79.2586	6,726.56	81.1002	6,726.56	76.7605	6,726.56	78.4575	6,726.56	73.4037	6,726.56	75.3867	6,726.56	70.0616	6,726.56	71.8153	6,726.56	68.9865	6,726.56	69.596	6,726.56	68.3926	6,726.56	68.7879	6,726.56	68.6224	6,726.56	68.7101	6,726.56	68.8276	6,726.56	68.7101	6,726.56	65.9867	6,726.56	69.319	6,726.56	57.4066	6,726.56	66.184	6,726.56	54.8356	6,726.56	56.8782	6,726.56	65.0588
6,963.87	83.5522	6,963.87	84.639	6,963.87	84.243	6,963.87	83.9207	6,963.87	84.7155	6,963.87	82.0095	6,963.87	82.7212	6,963.87	82.0312	6,963.87	81.6103	6,963.87	82.3538	6,963.87	82.5876	6,963.87	81.4633	6,963.87	82.403	6,963.87	79.2368	6,963.87	80.6863	6,963.87	75.8991	6,963.87	78.4709	6,963.87	73.2903	6,963.87	74.6686	6,963.87	70.1002	6,963.87	71.8257	6,963.87	68.3997	6,963.87	69.1989	6,963.87	68.4767	6,963.87	67.417	6,963.87	68.3911	6,963.87	66.8766	6,963.87	68.2091	6,963.87	68.1575	6,963.87	65.6833	6,963.87	68.0129	6,963.87	54.4504	6,963.87	64.6528	6,963.87	57.287	6,963.87	55.0394	6,963.87	62.9387
7,209.96	83.7849	7,209.96	84.7964	7,209.96	84.2934	7,209.96	83.8648	7,209.96	84.5725	7,209.96	81.7924	7,209.96	82.9403	7,209.96	81.9812	7,209.96	81.4863	7,209.96	82.1452	7,209.96	82.4181	7,209.96	81.0152	7,209.96	82.0311	7,209.96	79.007	7,209.96	80.4944	7,209.96	76.4631	7,209.96	78.1318	7,209.96	73.7823	7,209.96	74.9317	7,209.96	69.5475	7,209.96	71.7801	7,209.96	68.3961	7,209.96	68.8881	7,209.96	67.66	7,209.96	67.6992	7,209.96	68.7768	7,209.96	67.6448	7,209.96	68.9787	7,209.96	67.511	7,209.96	66.7786	7,209.96	68.8737	7,209.96	55.99	7,209.96	63.999	7,209.96	54.9664	7,209.96	55.677	7,209.96	62.2959
7,464.84	83.9716	7,464.84	84.1893	7,464.84	83.9409	7,464.84	83.4371	7,464.84	84.0458	7,464.84	81.846	7,464.84	82.6319	7,464.84	81.4191	7,464.84	81.415	7,464.84	81.993	7,464.84	82.1024	7,464.84	81.2903	7,464.84	81.9399	7,464.84	79.3801	7,464.84	80.403	7,464.84	77.1061	7,464.84	78.5137	7,464.84	73.3175	7,464.84	75.3812	7,464.84	70.7654	7,464.84	72.4191	7,464.84	68.0818	7,464.84	69.1219	7,464.84	66.9911	7,464.84	67.0435	7,464.84	67.8046	7,464.84	65.678	7,464.84	67.6851	7,464.84	68.0284	7,464.84	66.4992	7,464.84	68.2536	7,464.84	55.2839	7,464.84	63.8387	7,464.84	59.7841	7,464.84	59.4686	7,464.84	61.5927
7,727.05	84.3772	7,727.05	83.8002	7,727.05	84.0507	7,727.05	83.4227	7,727.05	83.8368	7,727.05	82.0446	7,727.05	82.8758	7,727.05	81.4233	7,727.05	81.4411	7,727.05	81.9869	7,727.05	81.9039	7,727.05	81.4893	7,727.05	81.954	7,727.05	79.298	7,727.05	80.953	7,727.05	76.8769	7,727.05	78.4574	7,727.05	73.5767	7,727.05	75.2142	7,727.05	69.3875	7,727.05	72.1261	7,727.05	67.3372	7,727.05	68.5548	7,727.05	66.2378	7,727.05	67.0408	7,727.05	65.5982	7,727.05	67.099	7,727.05	67.7043	7,727.05	66.7307	7,727.05	65.7728	7,727.05	67.4828	7,727.05	47.6675	7,727.05	62.6822	7,727.05	58.7513	7,727.05	58.5405	7,727.05	61.7084
7,999.51	84.6303	7,999.51	83.8168	7,999.51	84.1924	7,999.51	83.5691	7,999.51	83.7291	7,999.51	82.0075	7,999.51	83.1468	7,999.51	80.7156	7,999.51	80.8135	7,999.51	81.4764	7,999.51	81.0155	7,999.51	81.2419	7,999.51	81.5157	7,999.51	79.0908	7,999.51	80.5694	7,999.51	76.4787	7,999.51	78.0452	7,999.51	73.2969	7,999.51	75.2898	7,999.51	69.0962	7,999.51	71.5483	7,999.51	67.645	7,999.51	67.2162	7,999.51	66.9317	7,999.51	67.525	7,999.51	65.7675	7,999.51	64.4597	7,999.51	67.6019	7,999.51	67.0068	7,999.51	64.2558	7,999.51	67.9452	7,999.51	52.5429	7,999.51	61.43	7,999.51	58.9654	7,999.51	60.3922	7,999.51	59.6206
8,282.23	84.6446	8,282.23	83.368	8,282.23	84.0964	8,282.23	83.4329	8,282.23	83.349	8,282.23	81.8099	8,282.23	82.9557	8,282.23	79.7755	8,282.23	80.4136	8,282.23	80.9502	8,282.23	80.3063	8,282.23	80.9957	8,282.23	81.3056	8,282.23	79.1683	8,282.23	80.3431	8,282.23	75.7545	8,282.23	77.7981	8,282.23	72.2014	8,282.23	74.768	8,282.23	68.906	8,282.23	71.7573	8,282.23	67.0831	8,282.23	67.5434	8,282.23	65.494	8,282.23	67.3467	8,282.23	66.8515	8,282.23	64.6349	8,282.23	66.6712	8,282.23	66.0918	8,282.23	64.7667	8,282.23	66.2729	8,282.23	51.6275	8,282.23	59.3377	8,282.23	59.7423	8,282.23	59.1225	8,282.23	57.9291
8,573.73	84.8287	8,573.73	83.2478	8,573.73	84.3346	8,573.73	83.3887	8,573.73	83.4581	8,573.73	81.8405	8,573.73	82.9813	8,573.73	79.3941	8,573.73	80.2534	8,573.73	80.5294	8,573.73	79.884	8,573.73	80.3918	8,573.73	80.8377	8,573.73	78.3939	8,573.73	79.7482	8,573.73	75.006	8,573.73	76.8643	8,573.73	71.828	8,573.73	73.9885	8,573.73	68.7506	8,573.73	70.969	8,573.73	65.7777	8,573.73	67.4243	8,573.73	65.2024	8,573.73	65.579	8,573.73	66.5601	8,573.73	65.2695	8,573.73	66.3682	8,573.73	66.7678	8,573.73	63.2525	8,573.73	66.5455	8,573.73	50.0841	8,573.73	58.1249	8,573.73	58.643	8,573.73	58.9061	8,573.73	55.1654
8,876.95	85.0144	8,876.95	83.9022	8,876.95	84.5472	8,876.95	83.5003	8,876.95	83.8261	8,876.95	82.3107	8,876.95	83.2858	8,876.95	79.5329	8,876.95	80.6804	8,876.95	79.7314	8,876.95	79.6345	8,876.95	79.6157	8,876.95	80.206	8,876.95	77.3916	8,876.95	78.9771	8,876.95	74.7814	8,876.95	76.4369	8,876.95	71.7066	8,876.95	73.6152	8,876.95	68.6395	8,876.95	71.1731	8,876.95	64.6172	8,876.95	66.1914	8,876.95	63.5677	8,876.95	65.2166	8,876.95	66.2158	8,876.95	64.8726	8,876.95	64.3339	8,876.95	66.6929	8,876.95	62.4156	8,876.95	66.0646	8,876.95	52.1506	8,876.95	58.6527	8,876.95	59.8959	8,876.95	58.488	8,876.95	56.0371
9,188.96	85.1365	9,188.96	84.4041	9,188.96	84.7779	9,188.96	83.6231	9,188.96	84.0875	9,188.96	82.5525	9,188.96	83.4082	9,188.96	79.5391	9,188.96	80.8761	9,188.96	79.08	9,188.96	79.1075	9,188.96	79.1208	9,188.96	79.517	9,188.96	77.2953	9,188.96	78.8275	9,188.96	74.7262	9,188.96	76.694	9,188.96	71.3581	9,188.96	73.7062	9,188.96	68.3589	9,188.96	71.0111	9,188.96	63.4459	9,188.96	66.0385	9,188.96	64.1217	9,188.96	65.538	9,188.96	64.3214	9,188.96	64.6732	9,188.96	64.0285	9,188.96	65.844	9,188.96	62.0102	9,188.96	64.6165	9,188.96	50.8289	9,188.96	57.9966	9,188.96	59.7501	9,188.96	58.1384	9,188.96	50.159
9,514.16	85.4793	9,514.16	84.7803	9,514.16	85.2839	9,514.16	83.5879	9,514.16	84.3319	9,514.16	82.6475	9,514.16	83.5015	9,514.16	79.3604	9,514.16	81.2229	9,514.16	78.2642	9,514.16	78.2942	9,514.16	78.9339	9,514.16	78.6968	9,514.16	77.5802	9,514.16	78.6749	9,514.16	74.4988	9,514.16	76.9102	9,514.16	71.0002	9,514.16	73.6208	9,514.16	68.1681	9,514.16	70.6212	9,514.16	63.9583	9,514.16	66.3077	9,514.16	63.6695	9,514.16	64.5034	9,514.16	64.1609	9,514.16	64.5851	9,514.16	63.7719	9,514.16	65.1473	9,514.16	60.8104	9,514.16	63.6694	9,514.16	54.0075	9,514.16	57.2889	9,514.16	58.8584	9,514.16	57.2676	9,514.16	46.2849
9,849.61	85.6613	9,849.61	85.3878	9,849.61	85.7435	9,849.61	83.9824	9,849.61	84.701	9,849.61	82.842	9,849.61	83.6735	9,849.61	79.2076	9,849.61	81.6815	9,849.61	77.6446	9,849.61	78.0573	9,849.61	78.4054	9,849.61	78.401	9,849.61	77.2871	9,849.61	78.6152	9,849.61	73.8729	9,849.61	76.5594	9,849.61	70.2263	9,849.61	72.8874	9,849.61	67.5389	9,849.61	69.8584	9,849.61	62.9035	9,849.61	66.205	9,849.61	62.5316	9,849.61	63.6432	9,849.61	63.3554	9,849.61	64.6111	9,849.61	62.6163	9,849.61	64.93	9,849.61	58.8453	9,849.61	62.2137	9,849.61	57.1654	9,849.61	55.4069	9,849.61	57.714	9,849.61	58.8379	9,849.61	38.5733
10,196.8	86.112	10,196.8	85.7222	10,196.8	86.1365	10,196.8	83.9847	10,196.8	84.98	10,196.8	82.9476	10,196.8	83.6984	10,196.8	79.198	10,196.8	81.4987	10,196.8	77.1689	10,196.8	78.1479	10,196.8	77.7221	10,196.8	77.9004	10,196.8	75.9904	10,196.8	77.964	10,196.8	72.75	10,196.8	75.3204	10,196.8	68.8635	10,196.8	71.6773	10,196.8	65.6349	10,196.8	68.1985	10,196.8	59.991	10,196.8	64.1951	10,196.8	60.5043	10,196.8	61.7936	10,196.8	62.1125	10,196.8	63.8283	10,196.8	60.1442	10,196.8	63.7133	10,196.8	54.7235	10,196.8	59.9207	10,196.8	55.7637	10,196.8	51.511	10,196.8	58.2619	10,196.8	57.967	10,196.8	46.7708
10,555.7	86.4346	10,555.7	85.9663	10,555.7	86.4078	10,555.7	84.0263	10,555.7	85.2841	10,555.7	82.5991	10,555.7	83.8501	10,555.7	79.4062	10,555.7	81.5759	10,555.7	76.8327	10,555.7	78.1058	10,555.7	76.8737	10,555.7	77.5225	10,555.7	74.9453	10,555.7	77.1178	10,555.7	70.8335	10,555.7	74.4682	10,555.7	66.8603	10,555.7	70.722	10,555.7	64.1077	10,555.7	66.5659	10,555.7	59.4949	10,555.7	62.8643	10,555.7	59.541	10,555.7	59.5602	10,555.7	58.7284	10,555.7	62.1113	10,555.7	59.4528	10,555.7	62.1757	10,555.7	52.6023	10,555.7	57.554	10,555.7	54.9675	10,555.7	44.6666	10,555.7	56.4372	10,555.7	57.4505	10,555.7	45.5203
10,927.7	86.5016	10,927.7	86.131	10,927.7	86.4702	10,927.7	84.293	10,927.7	85.4058	10,927.7	82.3674	10,927.7	83.8755	10,927.7	79.208	10,927.7	81.4611	10,927.7	76.5984	10,927.7	78.2005	10,927.7	75.8555	10,927.7	76.9731	10,927.7	73.5644	10,927.7	76.5559	10,927.7	68.6601	10,927.7	73.1676	10,927.7	63.4251	10,927.7	69.3868	10,927.7	61.1227	10,927.7	65.8589	10,927.7	57.4791	10,927.7	61.8705	10,927.7	57.5109	10,927.7	58.5832	10,927.7	57.6687	10,927.7	57.892	10,927.7	58.9808	10,927.7	61.4381	10,927.7	50.3449	10,927.7	58.8512	10,927.7	54.3823	10,927.7	47.8332	10,927.7	53.8834	10,927.7	55.9536	10,927.7	48.131
11,313	86.7688	11,313	85.9938	11,313	86.6604	11,313	84.461	11,313	85.3663	11,313	82.1425	11,313	83.502	11,313	79.3958	11,313	81.2011	11,313	76.4686	11,313	78.2931	11,313	74.62	11,313	76.3573	11,313	71.3307	11,313	75.4538	11,313	66.7179	11,313	71.787	11,313	60.8189	11,313	67.78	11,313	59.1197	11,313	64.4957	11,313	54.2359	11,313	60.729	11,313	54.7989	11,313	56.6818	11,313	57.4513	11,313	56.8801	11,313	58.7685	11,313	60.5468	11,313	49.4392	11,313	58.4437	11,313	52.2382	11,313	47.5468	11,313	51.3253	11,313	56.1007	11,313	47.7974
11,712.9	86.5455	11,712.9	85.7813	11,712.9	86.3124	11,712.9	84.0767	11,712.9	85.283	11,712.9	81.8933	11,712.9	83.2667	11,712.9	79.7826	11,712.9	81.2892	11,712.9	76.2335	11,712.9	78.1542	11,712.9	74.0029	11,712.9	76.2288	11,712.9	70.0203	11,712.9	75.3479	11,712.9	63.9262	11,712.9	71.1558	11,712.9	59.1712	11,712.9	66.3986	11,712.9	54.2467	11,712.9	62.8372	11,712.9	54.1381	11,712.9	58.5762	11,712.9	52.644	11,712.9	52.4508	11,712.9	56.2237	11,712.9	53.0974	11,712.9	58.6645	11,712.9	60.4067	11,712.9	50.6195	11,712.9	59.8409	11,712.9	49.4364	11,712.9	44.1307	11,712.9	53.1822	11,712.9	56.1076	11,712.9	48.6588
12,126	85.853	12,126	85.3066	12,126	85.7089	12,126	83.5297	12,126	84.6453	12,126	81.7858	12,126	82.6746	12,126	79.6002	12,126	81.1219	12,126	76.1707	12,126	78.5341	12,126	73.3699	12,126	75.9909	12,126	68.7693	12,126	74.4719	12,126	64.1197	12,126	70.6164	12,126	61.0286	12,126	66.2169	12,126	57.8597	12,126	63.5154	12,126	57.1412	12,126	60.5142	12,126	49.2526	12,126	50.0458	12,126	55.3333	12,126	56.4186	12,126	59.4305	12,126	60.1052	12,126	51.2946	12,126	59.8462	12,126	49.716	12,126	50.8498	12,126	53.6078	12,126	55.2605	12,126	50.204
12,553.7	84.715	12,553.7	84.2123	12,553.7	84.4873	12,553.7	82.326	12,553.7	83.5776	12,553.7	81.521	12,553.7	81.9165	12,553.7	79.1611	12,553.7	81.3496	12,553.7	75.4257	12,553.7	78.9234	12,553.7	71.3555	12,553.7	74.9722	12,553.7	67.4465	12,553.7	72.6445	12,553.7	66.642	12,553.7	69.5088	12,553.7	64.7625	12,553.7	66.6922	12,553.7	61.0509	12,553.7	65.1669	12,553.7	59.9487	12,553.7	59.016	12,553.7	52.0175	12,553.7	53.647	12,553.7	56.4291	12,553.7	56.7157	12,553.7	58.777	12,553.7	59.7991	12,553.7	52.5829	12,553.7	60.2437	12,553.7	51.6596	12,553.7	48.8777	12,553.7	55.5359	12,553.7	55.5675	12,553.7	46.923
12,996.1	83.2927	12,996.1	82.6707	12,996.1	83.1275	12,996.1	81.0846	12,996.1	82.3164	12,996.1	81.1529	12,996.1	81.1009	12,996.1	78.9507	12,996.1	81.4807	12,996.1	73.0235	12,996.1	77.8537	12,996.1	69.5381	12,996.1	72.821	12,996.1	70.897	12,996.1	72.4978	12,996.1	69.253	12,996.1	72.5434	12,996.1	67.323	12,996.1	68.9117	12,996.1	63.3196	12,996.1	65.9193	12,996.1	62.6048	12,996.1	60.9136	12,996.1	55.4189	12,996.1	56.0342	12,996.1	57.0115	12,996.1	55.2967	12,996.1	59.5648	12,996.1	59.7112	12,996.1	52.0854	12,996.1	61.3576	12,996.1	50.0577	12,996.1	51.5685	12,996.1	56.9272	12,996.1	55.1429	12,996.1	45.4333
13,454.6	82.6053	13,454.6	82.1355	13,454.6	82.3363	13,454.6	81.0487	13,454.6	81.8173	13,454.6	81.175	13,454.6	81.4143	13,454.6	77.6819	13,454.6	80.9509	13,454.6	69.9823	13,454.6	76.16	13,454.6	70.4569	13,454.6	70.0432	13,454.6	72.3665	13,454.6	71.2731	13,454.6	70.4481	13,454.6	72.5733	13,454.6	67.018	13,454.6	68.7596	13,454.6	63.8303	13,454.6	65.8485	13,454.6	62.7289	13,454.6	61.2436	13,454.6	53.0683	13,454.6	56.9601	13,454.6	54.8162	13,454.6	54.5601	13,454.6	58.6226	13,454.6	58.6237	13,454.6	50.8582	13,454.6	60.2652	13,454.6	48.9883	13,454.6	51.8443	13,454.6	56.4463	13,454.6	52.5792	13,454.6	41.0084
13,929.2	84.1819	13,929.2	83.3379	13,929.2	83.8993	13,929.2	82.4309	13,929.2	82.8077	13,929.2	81.0085	13,929.2	82.1852	13,929.2	76.5142	13,929.2	80.6095	13,929.2	69.4364	13,929.2	74.9751	13,929.2	71.1021	13,929.2	69.4359	13,929.2	71.8101	13,929.2	70.6095	13,929.2	69.2719	13,929.2	70.0951	13,929.2	66.1309	13,929.2	65.7821	13,929.2	62.5297	13,929.2	63.4045	13,929.2	61.395	13,929.2	58.4082	13,929.2	49.2582	13,929.2	55.0403	13,929.2	54.3228	13,929.2	53.3746	13,929.2	58.5189	13,929.2	56.1791	13,929.2	49.761	13,929.2	58.8845	13,929.2	49.6427	13,929.2	46.048	13,929.2	53.6836	13,929.2	52.215	13,929.2	45.2431
14,419.9	85.3126	14,419.9	84.5088	14,419.9	84.9393	14,419.9	83.014	14,419.9	83.7905	14,419.9	80.9709	14,419.9	83.0002	14,419.9	76.0965	14,419.9	79.6997	14,419.9	70.6506	14,419.9	73.4952	14,419.9	71.7301	14,419.9	70.1469	14,419.9	72.1364	14,419.9	69.5081	14,419.9	69.82	14,419.9	67.8153	14,419.9	66.4621	14,419.9	63.5842	14,419.9	63.1193	14,419.9	60.1983	14,419.9	60.3608	14,419.9	57.2023	14,419.9	52.0627	14,419.9	53.9216	14,419.9	55.5233	14,419.9	52.5757	14,419.9	57.4906	14,419.9	52.3177	14,419.9	47.4697	14,419.9	56.0506	14,419.9	47.6024	14,419.9	38.9917	14,419.9	51.8013	14,419.9	51.4633	14,419.9	46.7138
14,928.2	85.8113	14,928.2	84.8231	14,928.2	85.4208	14,928.2	83.6529	14,928.2	84.3755	14,928.2	80.8867	14,928.2	83.3353	14,928.2	76.4192	14,928.2	78.8961	14,928.2	72.2835	14,928.2	74.0313	14,928.2	72.1431	14,928.2	70.4607	14,928.2	73.1463	14,928.2	69.6689	14,928.2	71.0501	14,928.2	68.373	14,928.2	67.311	14,928.2	64.8254	14,928.2	63.6617	14,928.2	61.3377	14,928.2	60.9464	14,928.2	56.2776	14,928.2	53.4009	14,928.2	56.2739	14,928.2	57.1071	14,928.2	55.478	14,928.2	58.1172	14,928.2	51.2914	14,928.2	50.1563	14,928.2	55.5694	14,928.2	49.6355	14,928.2	43.9687	14,928.2	51.0311	14,928.2	49.2075	14,928.2	48.4104
15,455.6	85.8845	15,455.6	84.931	15,455.6	85.4078	15,455.6	83.9342	15,455.6	85.1286	15,455.6	80.5538	15,455.6	83.5229	15,455.6	77.0127	15,455.6	78.465	15,455.6	72.929	15,455.6	74.7636	15,455.6	71.9568	15,455.6	70.702	15,455.6	73.628	15,455.6	70.6296	15,455.6	71.5159	15,455.6	69.9832	15,455.6	67.3702	15,455.6	66.1597	15,455.6	64.6317	15,455.6	61.2562	15,455.6	60.5489	15,455.6	56.6437	15,455.6	54.6341	15,455.6	56.6269	15,455.6	58.0665	15,455.6	53.8483	15,455.6	57.9808	15,455.6	51.768	15,455.6	48.0087	15,455.6	54.2106	15,455.6	47.8357	15,455.6	46.2327	15,455.6	47.3083	15,455.6	47.3977	15,455.6	46.2394
16,000.5	85.7368	16,000.5	84.7792	16,000.5	85.3083	16,000.5	83.8842	16,000.5	85.354	16,000.5	80.1045	16,000.5	82.9724	16,000.5	77.0511	16,000.5	78.3463	16,000.5	72.6844	16,000.5	74.8701	16,000.5	70.767	16,000.5	70.9084	16,000.5	72.7722	16,000.5	70.5747	16,000.5	70.5021	16,000.5	68.5767	16,000.5	65.5889	16,000.5	64.6594	16,000.5	63.3254	16,000.5	59.2822	16,000.5	58.602	16,000.5	54.4972	16,000.5	52.4567	16,000.5	54.4287	16,000.5	57.2695	16,000.5	52.9702	16,000.5	56.2749	16,000.5	50.9987	16,000.5	44.8658	16,000.5	52.7044	16,000.5	41.9635	16,000.5	44.508	16,000.5	44.0873	16,000.5	42.7959	16,000.5	43.9627
16,564.5	85.2656	16,564.5	84.3677	16,564.5	85.0415	16,564.5	83.1787	16,564.5	85.0758	16,564.5	79.1365	16,564.5	82.0067	16,564.5	75.867	16,564.5	77.893	16,564.5	71.475	16,564.5	73.5603	16,564.5	69.554	16,564.5	70.167	16,564.5	70.3132	16,564.5	68.2132	16,564.5	67.2856	16,564.5	64.1709	16,564.5	62.0109	16,564.5	59.1165	16,564.5	59.9073	16,564.5	53.2487	16,564.5	53.9186	16,564.5	48.1146	16,564.5	47.5463	16,564.5	49.1804	16,564.5	55.0161	16,564.5	48.9795	16,564.5	52.9114	16,564.5	47.278	16,564.5	42.1955	16,564.5	47.164	16,564.5	36.1261	16,564.5	38.2538	16,564.5	42.2963	16,564.5	42.0949	16,564.5	41.0548
17,148.9	84.4142	17,148.9	83.533	17,148.9	84.4895	17,148.9	81.8546	17,148.9	84.2783	17,148.9	77.3981	17,148.9	80.7101	17,148.9	73.9016	17,148.9	76.5012	17,148.9	69.6225	17,148.9	71.7292	17,148.9	66.1903	17,148.9	67.4343	17,148.9	66.5486	17,148.9	62.0159	17,148.9	63.7965	17,148.9	56.9225	17,148.9	58.0591	17,148.9	54.3714	17,148.9	56.4545	17,148.9	50.3206	17,148.9	49.3178	17,148.9	45.6905	17,148.9	38.9621	17,148.9	48.0581	17,148.9	52.4022	17,148.9	49.7574	17,148.9	48.7415	17,148.9	46.1046	17,148.9	36.2351	17,148.9	45.4784	17,148.9	41.5684	17,148.9	43.1648	17,148.9	38.8645	17,148.9	40.9863	17,148.9	38.0711
17,752.4	83.4198	17,752.4	82.8073	17,752.4	83.9466	17,752.4	80.2866	17,752.4	83.1398	17,752.4	75.6771	17,752.4	79.213	17,752.4	71.2331	17,752.4	74.8404	17,752.4	66.5339	17,752.4	68.9153	17,752.4	61.861	17,752.4	63.1486	17,752.4	63.2272	17,752.4	57.2205	17,752.4	61.0299	17,752.4	58.3484	17,752.4	54.9975	17,752.4	57.3418	17,752.4	54.0568	17,752.4	51.1592	17,752.4	48.5918	17,752.4	52.058	17,752.4	39.243	17,752.4	50.7108	17,752.4	49.0178	17,752.4	48.8854	17,752.4	47.8801	17,752.4	44.9547	17,752.4	35.181	17,752.4	45.9747	17,752.4	45.0816	17,752.4	42.0605	17,752.4	43.3909	17,752.4	15.4976	17,752.4	39.2148
18,379.4	82.4148	18,379.4	82.2016	18,379.4	83.4488	18,379.4	78.2683	18,379.4	81.9571	18,379.4	74.0009	18,379.4	77.8416	18,379.4	67.1037	18,379.4	73.0807	18,379.4	61.4434	18,379.4	66.4357	18,379.4	55.0642	18,379.4	56.6724	18,379.4	60.9955	18,379.4	55.5296	18,379.4	60.5155	18,379.4	59.6943	18,379.4	55.4486	18,379.4	59.8858	18,379.4	52.7328	18,379.4	49.2303	18,379.4	49.6492	18,379.4	54.4874	18,379.4	41.1859	18,379.4	51.5421	18,379.4	46.5371	18,379.4	50.2991	18,379.4	49.1624	18,379.4	44.7982	18,379.4	43.1442	18,379.4	48.07	18,379.4	46.3835	18,379.4	41.834	18,379.4	47.8343	18,379.4	39.0259	18,379.4	43.3892
19,026.9	81.9341	19,026.9	81.4459	19,026.9	82.9101	19,026.9	76.5306	19,026.9	80.7741	19,026.9	71.3878	19,026.9	76.8623	19,026.9	62.9942	19,026.9	70.6463	19,026.9	52.9294	19,026.9	62.4573	19,026.9	54.2887	19,026.9	46.7919	19,026.9	58.1362	19,026.9	55.1897	19,026.9	58.5517	19,026.9	57.4869	19,026.9	55.0123	19,026.9	60.4109	19,026.9	51.0612	19,026.9	51.9638	19,026.9	48.4001	19,026.9	54.9222	19,026.9	42.6126	19,026.9	50.522	19,026.9	46.2963	19,026.9	47.6748	19,026.9	47.9723	19,026.9	44.8947	19,026.9	42.9664	19,026.9	48.967	19,026.9	43.5555	19,026.9	45.8266	19,026.9	48.7262	19,026.9	38.2578	19,026.9	44.6356
19,697.8	81.5826	19,697.8	80.4605	19,697.8	81.9189	19,697.8	75.3315	19,697.8	79.3933	19,697.8	68.2343	19,697.8	75.5426	19,697.8	59.0954	19,697.8	67.6727	19,697.8	57.5895	19,697.8	54.1546	19,697.8	53.1898	19,697.8	50.5584	19,697.8	52.2055	19,697.8	52.5538	19,697.8	56.1822	19,697.8	57.4355	19,697.8	56.0251	19,697.8	60.8523	19,697.8	52.4008	19,697.8	55.8169	19,697.8	46.1294	19,697.8	54.4865	19,697.8	46.3968	19,697.8	47.6972	19,697.8	46.9918	19,697.8	41.4438	19,697.8	45.8902	19,697.8	41.3352	19,697.8	40.6492	19,697.8	45.3945	19,697.8	41.7411	19,697.8	44.8145	19,697.8	47.8786	19,697.8	37.6219	19,697.8	43.2196
19,999.5	81.5803	19,999.5	79.8257	19,999.5	81.4839	19,999.5	74.7438	19,999.5	78.8516	19,999.5	66.7494	19,999.5	75.244	19,999.5	57.5751	19,999.5	66.3344	19,999.5	57.6293	19,999.5	48.771	19,999.5	50.6563	19,999.5	54.4838	19,999.5	50.911	19,999.5	55.2112	19,999.5	56.3787	19,999.5	57.9647	19,999.5	56.2165	19,999.5	60.5838	19,999.5	55.196	19,999.5	57.1404	19,999.5	47.0253	19,999.5	54.4612	19,999.5	52.0594	19,999.5	45.9389	19,999.5	50.3359	19,999.5	48.9218	19,999.5	52.1834	19,999.5	47.209	19,999.5	47.6086	19,999.5	46.8361	19,999.5	42.4496	19,999.5	48.1561	19,999.5	44.9989	19,999.5	39.8296	19,999.5	43.3391
