"SPL Vertical"
"On-Axis"		"10°"		"-10°"		"20°"		"-20°"		"30°"		"-30°"		"40°"		"-40°"		"50°"		"-50°"		"60°"		"-60°"		"70°"		"-70°"		"80°"		"-80°"		"90°"		"-90°"		"100°"		"-100°"		"110°"		"-110°"		"120°"		"-120°"		"130°"		"-130°"		"140°"		"-140°"		"150°"		"-150°"		"160°"		"-160°"		"170°"		"-170°"		"180°"
"Frequency / Hz"	"Sound Pressure Level / dB (re 20 µPa/V)  [2.83  V @ 1. m]"	"Frequency / Hz"	"Sound Pressure Level / dB (re 20 µPa/V)  [2.83  V @ 1. m]"	"Frequency / Hz"	"Sound Pressure Level / dB (re 20 µPa/V)  [2.83  V @ 1. m]"	"Frequency / Hz"	"Sound Pressure Level / dB (re 20 µPa/V)  [2.83  V @ 1. m]"	"Frequency / Hz"	"Sound Pressure Level / dB (re 20 µPa/V)  [2.83  V @ 1. m]"	"Frequency / Hz"	"Sound Pressure Level / dB (re 20 µPa/V)  [2.83  V @ 1. m]"	"Frequency / Hz"	"Sound Pressure Level / dB (re 20 µPa/V)  [2.83  V @ 1. m]"	"Frequency / Hz"	"Sound Pressure Level / dB (re 20 µPa/V)  [2.83  V @ 1. m]"	"Frequency / Hz"	"Sound Pressure Level / dB (re 20 µPa/V)  [2.83  V @ 1. m]"	"Frequency / Hz"	"Sound Pressure Level / dB (re 20 µPa/V)  [2.83  V @ 1. m]"	"Frequency / Hz"	"Sound Pressure Level / dB (re 20 µPa/V)  [2.83  V @ 1. m]"	"Frequency / Hz"	"Sound Pressure Level / dB (re 20 µPa/V)  [2.83  V @ 1. m]"	"Frequency / Hz"	"Sound Pressure Level / dB (re 20 µPa/V)  [2.83  V @ 1. m]"	"Frequency / Hz"	"Sound Pressure Level / dB (re 20 µPa/V)  [2.83  V @ 1. m]"	"Frequency / Hz"	"Sound Pressure Level / dB (re 20 µPa/V)  [2.83  V @ 1. m]"	"Frequency / Hz"	"Sound Pressure Level / dB (re 20 µPa/V)  [2.83  V @ 1. m]"	"Frequency / Hz"	"Sound Pressure Level / dB (re 20 µPa/V)  [2.83  V @ 1. m]"	"Frequency / Hz"	"Sound Pressure Level / dB (re 20 µPa/V)  [2.83  V @ 1. m]"	"Frequency / Hz"	"Sound Pressure Level / dB (re 20 µPa/V)  [2.83  V @ 1. m]"	"Frequency / Hz"	"Sound Pressure Level / dB (re 20 µPa/V)  [2.83  V @ 1. m]"	"Frequency / Hz"	"Sound Pressure Level / dB (re 20 µPa/V)  [2.83  V @ 1. m]"	"Frequency / Hz"	"Sound Pressure Level / dB (re 20 µPa/V)  [2.83  V @ 1. m]"	"Frequency / Hz"	"Sound Pressure Level / dB (re 20 µPa/V)  [2.83  V @ 1. m]"	"Frequency / Hz"	"Sound Pressure Level / dB (re 20 µPa/V)  [2.83  V @ 1. m]"	"Frequency / Hz"	"Sound Pressure Level / dB (re 20 µPa/V)  [2.83  V @ 1. m]"	"Frequency / Hz"	"Sound Pressure Level / dB (re 20 µPa/V)  [2.83  V @ 1. m]"	"Frequency / Hz"	"Sound Pressure Level / dB (re 20 µPa/V)  [2.83  V @ 1. m]"	"Frequency / Hz"	"Sound Pressure Level / dB (re 20 µPa/V)  [2.83  V @ 1. m]"	"Frequency / Hz"	"Sound Pressure Level / dB (re 20 µPa/V)  [2.83  V @ 1. m]"	"Frequency / Hz"	"Sound Pressure Level / dB (re 20 µPa/V)  [2.83  V @ 1. m]"	"Frequency / Hz"	"Sound Pressure Level / dB (re 20 µPa/V)  [2.83  V @ 1. m]"	"Frequency / Hz"	"Sound Pressure Level / dB (re 20 µPa/V)  [2.83  V @ 1. m]"	"Frequency / Hz"	"Sound Pressure Level / dB (re 20 µPa/V)  [2.83  V @ 1. m]"	"Frequency / Hz"	"Sound Pressure Level / dB (re 20 µPa/V)  [2.83  V @ 1. m]"	"Frequency / Hz"	"Sound Pressure Level / dB (re 20 µPa/V)  [2.83  V @ 1. m]"	"Frequency / Hz"	"Sound Pressure Level / dB (re 20 µPa/V)  [2.83  V @ 1. m]"
20.5078	51.1389	20.5078	50.4072	20.5078	51.9372	20.5078	49.7768	20.5078	52.7594	20.5078	49.2686	20.5078	53.5614	20.5078	48.8849	20.5078	54.302	20.5078	48.6118	20.5078	54.9444	20.5078	48.4251	20.5078	55.4568	20.5078	48.2978	20.5078	55.8133	20.5078	48.2067	20.5078	55.9937	20.5078	48.1353	20.5078	55.9851	20.5078	48.0762	20.5078	55.7828	20.5078	48.0316	20.5078	55.3916	20.5078	48.0134	20.5078	54.8266	20.5078	48.0429	20.5078	54.1142	20.5078	48.149	20.5078	53.2912	20.5078	48.3635	20.5078	52.4032	20.5078	48.7138	20.5078	51.5016	20.5078	49.215	20.5078	50.6391	20.5078	49.8642
21.9727	56.6667	21.9727	56.1025	21.9727	57.2696	21.9727	55.5952	21.9727	57.8877	21.9727	55.1571	21.9727	58.4945	21.9727	54.7939	21.9727	59.062	21.9727	54.5053	21.9727	59.5627	21.9727	54.2873	21.9727	59.9709	21.9727	54.1338	21.9727	60.2643	21.9727	54.0387	21.9727	60.4258	21.9727	53.9976	21.9727	60.445	21.9727	54.0086	21.9727	60.3192	21.9727	54.0723	21.9727	60.0549	21.9727	54.1917	21.9727	59.6674	21.9727	54.3715	21.9727	59.1798	21.9727	54.6159	21.9727	58.6213	21.9727	54.9282	21.9727	58.0227	21.9727	55.3091	21.9727	57.4141	21.9727	55.7563	21.9727	56.821	21.9727	56.2635
23.4375	58.317	23.4375	57.8442	23.4375	58.8327	23.4375	57.4283	23.4375	59.3715	23.4375	57.0762	23.4375	59.9083	23.4375	56.7888	23.4375	60.4156	23.4375	56.5623	23.4375	60.8649	23.4375	56.3902	23.4375	61.2294	23.4375	56.2656	23.4375	61.4856	23.4375	56.1823	23.4375	61.6154	23.4375	56.1366	23.4375	61.6082	23.4375	56.1269	23.4375	61.4622	23.4375	56.1548	23.4375	61.1859	23.4375	56.2235	23.4375	60.7973	23.4375	56.3381	23.4375	60.3235	23.4375	56.5038	23.4375	59.7966	23.4375	56.7255	23.4375	59.2499	23.4375	57.0066	23.4375	58.7127	23.4375	57.3484	23.4375	58.2078	23.4375	57.7502
24.9023	60.9019	24.9023	60.4812	24.9023	61.3603	24.9023	60.1092	24.9023	61.8399	24.9023	59.7915	24.9023	62.3194	24.9023	59.529	24.9023	62.7746	24.9023	59.3187	24.9023	63.18	24.9023	59.1562	24.9023	63.5105	24.9023	59.0363	24.9023	63.7443	24.9023	58.9545	24.9023	63.864	24.9023	58.9078	24.9023	63.8594	24.9023	58.8953	24.9023	63.7283	24.9023	58.9178	24.9023	63.4781	24.9023	58.9779	24.9023	63.1253	24.9023	59.0795	24.9023	62.6943	24.9023	59.2272	24.9023	62.2144	24.9023	59.4254	24.9023	61.7159	24.9023	59.6776	24.9023	61.2259	24.9023	59.9857	24.9023	60.7657	24.9023	60.3496
26.3672	63.025	26.3672	62.656	26.3672	63.4265	26.3672	62.3283	26.3672	63.847	26.3672	62.0462	26.3672	64.2685	26.3672	61.8104	26.3672	64.6697	26.3672	61.6187	26.3672	65.0276	26.3672	61.4678	26.3672	65.3195	26.3672	61.354	26.3672	65.5246	26.3672	61.2742	26.3672	65.6269	26.3672	61.2263	26.3672	65.6167	26.3672	61.2099	26.3672	65.4925	26.3672	61.2256	26.3672	65.2616	26.3672	61.2758	26.3672	64.9401	26.3672	61.3635	26.3672	64.551	26.3672	61.4923	26.3672	64.1213	26.3672	61.6658	26.3672	63.6782	26.3672	61.8867	26.3672	63.2453	26.3672	62.1566	26.3672	62.8405	26.3672	62.4754
27.832	64.797	27.832	64.4706	27.832	65.1527	27.832	64.1806	27.832	65.5261	27.832	63.9304	27.832	65.9017	27.832	63.7204	27.832	66.2606	27.832	63.5489	27.832	66.5818	27.832	63.413	27.832	66.8442	27.832	63.3101	27.832	67.0285	27.832	63.2376	27.832	67.1196	27.832	63.1941	27.832	67.1086	27.832	63.1791	27.832	66.9942	27.832	63.1935	27.832	66.7838	27.832	63.2388	27.832	66.4929	27.832	63.3177	27.832	66.1432	27.832	63.433	27.832	65.7593	27.832	63.5874	27.832	65.3656	27.832	63.7833	27.832	64.9825	27.832	64.022	27.832	64.6253	27.832	64.3033
29.2969	66.3017	29.2969	65.9914	29.2969	66.6358	29.2969	65.7113	29.2969	66.983	29.2969	65.4652	29.2969	67.3295	29.2969	65.254	29.2969	67.658	29.2969	65.077	29.2969	67.9497	29.2969	64.9325	29.2969	68.185	29.2969	64.8185	29.2969	68.3463	29.2969	64.7336	29.2969	68.4194	29.2969	64.6769	29.2969	68.396	29.2969	64.6483	29.2969	68.2753	29.2969	64.6488	29.2969	68.0644	29.2969	64.6801	29.2969	67.7781	29.2969	64.745	29.2969	67.437	29.2969	64.8462	29.2969	67.0645	29.2969	64.9866	29.2969	66.6837	29.2969	65.1687	29.2969	66.3141	29.2969	65.3938	29.2969	65.9703	29.2969	65.6618
30.7617	67.9678	30.7617	67.6902	30.7617	68.2657	30.7617	67.4386	30.7617	68.5752	30.7617	67.2162	30.7617	68.8841	30.7617	67.024	30.7617	69.1776	30.7617	66.8616	30.7617	69.4391	30.7617	66.7282	30.7617	69.651	30.7617	66.6226	30.7617	69.7975	30.7617	66.5438	30.7617	69.8656	30.7617	66.4915	30.7617	69.8479	30.7617	66.4659	30.7617	69.7436	30.7617	66.4682	30.7617	69.5592	30.7617	66.5	30.7617	69.3078	30.7617	66.5636	30.7617	69.0077	30.7617	66.6612	30.7617	68.6791	30.7617	66.795	30.7617	68.3417	30.7617	66.9664	30.7617	68.0121	30.7617	67.1759	30.7617	67.7028	30.7617	67.4223
32.2266	69.0596	32.2266	68.8059	32.2266	69.3324	32.2266	68.5764	32.2266	69.616	32.2266	68.3742	32.2266	69.8994	32.2266	68.2005	32.2266	70.169	32.2266	68.0551	32.2266	70.4095	32.2266	67.9373	32.2266	70.6047	32.2266	67.8464	32.2266	70.74	32.2266	67.7814	32.2266	70.8039	32.2266	67.7422	32.2266	70.7899	32.2266	67.7288	32.2266	70.6979	32.2266	67.7419	32.2266	70.5346	32.2266	67.7824	32.2266	70.3129	32.2266	67.8519	32.2266	70.0494	32.2266	67.9515	32.2266	69.7622	32.2266	68.0822	32.2266	69.468	32.2266	68.2443	32.2266	69.1803	32.2266	68.4372	32.2266	68.9086	32.2266	68.6595
33.6914	69.9986	33.6914	69.7529	33.6914	70.2597	33.6914	69.528	33.6914	70.5286	33.6914	69.3272	33.6914	70.795	33.6914	69.1522	33.6914	71.0462	33.6914	69.0035	33.6914	71.268	33.6914	68.8811	33.6914	71.4457	33.6914	68.7846	33.6914	71.5656	33.6914	68.7139	33.6914	71.6172	33.6914	68.6687	33.6914	71.5947	33.6914	68.6493	33.6914	71.4983	33.6914	68.6565	33.6914	71.3347	33.6914	68.6911	33.6914	71.1163	33.6914	68.7543	33.6914	70.8593	33.6914	68.8472	33.6914	70.5809	33.6914	68.9704	33.6914	70.2969	33.6914	69.1242	33.6914	70.02	33.6914	69.3081	33.6914	69.7592	33.6914	69.5206
35.1562	70.9743	35.1562	70.7426	35.1562	71.2204	35.1562	70.5303	35.1562	71.474	35.1562	70.3405	35.1562	71.7258	35.1562	70.1746	35.1562	71.9644	35.1562	70.0333	35.1562	72.1768	35.1562	69.9167	35.1562	72.3496	35.1562	69.8246	35.1562	72.4703	35.1562	69.7566	35.1562	72.5289	35.1562	69.7129	35.1562	72.5197	35.1562	69.6937	35.1562	72.4421	35.1562	69.6999	35.1562	72.3012	35.1562	69.7327	35.1562	72.1068	35.1562	69.7936	35.1562	71.8721	35.1562	69.8845	35.1562	71.6114	35.1562	70.0068	35.1562	71.3387	35.1562	70.1614	35.1562	71.0666	35.1562	70.3478	35.1562	70.8056	35.1562	70.5639
36.6211	71.6545	36.6211	71.4273	36.6211	71.8936	36.6211	71.2168	36.6211	72.1379	36.6211	71.0261	36.6211	72.3786	36.6211	70.8574	36.6211	72.6051	36.6211	70.7116	36.6211	72.8054	36.6211	70.5892	36.6211	72.967	36.6211	70.4907	36.6211	73.0782	36.6211	70.4162	36.6211	73.1297	36.6211	70.3661	36.6211	73.1161	36.6211	70.3411	36.6211	73.0369	36.6211	70.3423	36.6211	72.8969	36.6211	70.3708	36.6211	72.7054	36.6211	70.4284	36.6211	72.4748	36.6211	70.5166	36.6211	72.2189	36.6211	70.6367	36.6211	71.951	36.6211	70.7894	36.6211	71.6833	36.6211	70.9737	36.6211	71.426	36.6211	71.1874
38.0859	72.3444	38.0859	72.1226	38.0859	72.5773	38.0859	71.9166	38.0859	72.8146	38.0859	71.7301	38.0859	73.0479	38.0859	71.5651	38.0859	73.2672	38.0859	71.4231	38.0859	73.4609	38.0859	71.3048	38.0859	73.6176	38.0859	71.2107	38.0859	73.7263	38.0859	71.1412	38.0859	73.7784	38.0859	71.0966	38.0859	73.769	38.0859	71.0774	38.0859	73.6977	38.0859	71.0844	38.0859	73.5689	38.0859	71.1185	38.0859	73.3911	38.0859	71.1811	38.0859	73.1754	38.0859	71.2733	38.0859	72.9344	38.0859	71.3961	38.0859	72.6802	38.0859	71.5497	38.0859	72.424	38.0859	71.7329	38.0859	72.1756	38.0859	71.943
39.5508	73.0368	39.5508	72.8272	39.5508	73.2556	39.5508	72.6316	39.5508	73.4772	39.5508	72.4535	39.5508	73.6937	39.5508	72.2952	39.5508	73.8958	39.5508	72.1584	39.5508	74.0731	39.5508	72.0443	39.5508	74.2149	39.5508	71.9534	39.5508	74.3113	39.5508	71.8864	39.5508	74.355	39.5508	71.8438	39.5508	74.3418	39.5508	71.8261	39.5508	74.2719	39.5508	71.834	39.5508	74.15	39.5508	71.8683	39.5508	73.9843	39.5508	71.9299	39.5508	73.7852	39.5508	72.0196	39.5508	73.5639	39.5508	72.1377	39.5508	73.3311	39.5508	72.2838	39.5508	73.0963	39.5508	72.4563	39.5508	72.8677	39.5508	72.6524
41.0156	73.5425	41.0156	73.3394	41.0156	73.7533	41.0156	73.1488	41.0156	73.9654	41.0156	72.9741	41.0156	74.1713	41.0156	72.818	41.0156	74.362	41.0156	72.6822	41.0156	74.5273	41.0156	72.568	41.0156	74.6574	41.0156	72.4763	41.0156	74.7429	41.0156	72.4078	41.0156	74.7769	41.0156	72.3631	41.0156	74.7561	41.0156	72.3427	41.0156	74.681	41.0156	72.3475	41.0156	74.5568	41.0156	72.3781	41.0156	74.3918	41.0156	72.4351	41.0156	74.1966	41.0156	72.5191	41.0156	73.9821	41.0156	72.6302	41.0156	73.7585	41.0156	72.7678	41.0156	73.5347	41.0156	72.9303	41.0156	73.3182	41.0156	73.115
42.4805	74.114	42.4805	73.9159	42.4805	74.319	42.4805	73.7294	42.4805	74.5248	42.4805	73.5583	42.4805	74.7239	42.4805	73.4053	42.4805	74.9077	42.4805	73.2724	42.4805	75.0669	42.4805	73.1611	42.4805	75.1919	42.4805	73.0726	42.4805	75.2742	42.4805	73.0075	42.4805	75.3072	42.4805	72.9665	42.4805	75.2879	42.4805	72.9502	42.4805	75.217	42.4805	72.9589	42.4805	75.0993	42.4805	72.9931	42.4805	74.9429	42.4805	73.053	42.4805	74.7576	42.4805	73.1388	42.4805	74.5539	42.4805	73.2502	42.4805	74.3411	42.4805	73.3862	42.4805	74.1275	42.4805	73.5451	42.4805	73.92	42.4805	73.7243
43.9453	74.5413	43.9453	74.3474	43.9453	74.7408	43.9453	74.1642	43.9453	74.9398	43.9453	73.9954	43.9453	75.1313	43.9453	73.844	43.9453	75.3068	43.9453	73.7124	43.9453	75.4573	43.9453	73.6024	43.9453	75.5738	43.9453	73.5152	43.9453	75.6483	43.9453	73.4517	43.9453	75.6751	43.9453	73.4127	43.9453	75.6514	43.9453	73.3987	43.9453	75.5785	43.9453	73.4097	43.9453	75.4618	43.9453	73.4459	43.9453	75.3094	43.9453	73.507	43.9453	75.1311	43.9453	73.5927	43.9453	74.9369	43.9453	73.7019	43.9453	74.7356	43.9453	73.8334	43.9453	74.5345	43.9453	73.9853	43.9453	74.3394	43.9453	74.155
45.4102	75.0646	45.4102	74.8701	45.4102	75.2631	45.4102	74.6847	45.4102	75.4598	45.4102	74.5124	45.4102	75.6474	45.4102	74.3562	45.4102	75.8178	45.4102	74.2187	45.4102	75.9623	45.4102	74.1018	45.4102	76.0723	45.4102	74.007	45.4102	76.1401	45.4102	73.9354	45.4102	76.16	45.4102	73.888	45.4102	76.1296	45.4102	73.8653	45.4102	76.0503	45.4102	73.8678	45.4102	75.9272	45.4102	73.8959	45.4102	75.7682	45.4102	73.9496	45.4102	75.5833	45.4102	74.0287	45.4102	75.3824	45.4102	74.1328	45.4102	75.1747	45.4102	74.2608	45.4102	74.9678	45.4102	74.4111	45.4102	74.7683	45.4102	74.5814
46.875	75.524	46.875	75.3291	46.875	75.7215	46.875	75.142	46.875	75.9156	46.875	74.9666	46.875	76.0993	46.875	74.8063	46.875	76.2645	46.875	74.6638	46.875	76.4029	46.875	74.5411	46.875	76.5058	46.875	74.4399	46.875	76.5659	46.875	74.3615	46.875	76.5777	46.875	74.3068	46.875	76.5389	46.875	74.2766	46.875	76.4509	46.875	74.2713	46.875	76.3188	46.875	74.2912	46.875	76.151	46.875	74.3364	46.875	75.9573	46.875	74.4071	46.875	75.7484	46.875	74.5031	46.875	75.534	46.875	74.6238	46.875	75.3226	46.875	74.7685	46.875	75.1212	46.875	74.9352
48.3398	75.9861	48.3398	75.7936	48.3398	76.1805	48.3398	75.6078	48.3398	76.3709	48.3398	75.4329	48.3398	76.5504	48.3398	75.2721	48.3398	76.7113	48.3398	75.1281	48.3398	76.8454	48.3398	75.003	48.3398	76.9446	48.3398	74.8985	48.3398	77.0018	48.3398	74.8159	48.3398	77.0118	48.3398	74.7565	48.3398	76.9722	48.3398	74.7209	48.3398	76.8844	48.3398	74.71	48.3398	76.7529	48.3398	74.7243	48.3398	76.5855	48.3398	74.7644	48.3398	76.3917	48.3398	74.8307	48.3398	76.1814	48.3398	74.9234	48.3398	75.9645	48.3398	75.0425	48.3398	75.7498	48.3398	75.1872	48.3398	75.5448	48.3398	75.3557
51.2695	76.878	51.2695	76.6899	51.2695	77.0668	51.2695	76.5076	51.2695	77.2506	51.2695	76.3354	51.2695	77.4228	51.2695	76.1768	51.2695	77.5762	51.2695	76.0348	51.2695	77.7031	51.2695	75.9119	51.2695	77.7963	51.2695	75.8099	51.2695	77.8495	51.2695	75.7304	51.2695	77.8585	51.2695	75.6748	51.2695	77.8216	51.2695	75.6437	51.2695	77.7403	51.2695	75.638	51.2695	77.6192	51.2695	75.6579	51.2695	77.4653	51.2695	75.7038	51.2695	77.2869	51.2695	75.7757	51.2695	77.0925	51.2695	75.8732	51.2695	76.8903	51.2695	75.9957	51.2695	76.6879	51.2695	76.1415	51.2695	76.4919	51.2695	76.3082
52.7344	77.2941	52.7344	77.1079	52.7344	77.4807	52.7344	76.9271	52.7344	77.6618	52.7344	76.7561	52.7344	77.8307	52.7344	76.5986	52.7344	77.9805	52.7344	76.4578	52.7344	78.1039	52.7344	76.3361	52.7344	78.1938	52.7344	76.2357	52.7344	78.2446	52.7344	76.158	52.7344	78.2521	52.7344	76.1043	52.7344	78.2151	52.7344	76.0754	52.7344	78.1354	52.7344	76.0717	52.7344	78.0176	52.7344	76.0935	52.7344	77.8683	52.7344	76.141	52.7344	77.6956	52.7344	76.2139	52.7344	77.5073	52.7344	76.3119	52.7344	77.3112	52.7344	76.434	52.7344	77.1143	52.7344	76.5785	52.7344	76.9229	52.7344	76.7427
54.1992	77.7791	54.1992	77.5995	54.1992	77.9588	54.1992	77.4252	54.1992	78.1329	54.1992	77.2604	54.1992	78.295	54.1992	77.1089	54.1992	78.4384	54.1992	76.9738	54.1992	78.5561	54.1992	76.8577	54.1992	78.6416	54.1992	76.7626	54.1992	78.6894	54.1992	76.6901	54.1992	78.696	54.1992	76.6413	54.1992	78.6606	54.1992	76.6167	54.1992	78.5852	54.1992	76.6169	54.1992	78.4743	54.1992	76.6418	54.1992	78.3344	54.1992	76.6912	54.1992	78.1731	54.1992	76.7649	54.1992	77.9974	54.1992	76.862	54.1992	77.8143	54.1992	76.9814	54.1992	77.6297	54.1992	77.1211	54.1992	77.4493	54.1992	77.2783
55.6641	78.2285	55.6641	78.0516	55.6641	78.4052	55.6641	77.8794	55.6641	78.5758	55.6641	77.7163	55.6641	78.7341	55.6641	77.566	55.6641	78.8735	55.6641	77.4317	55.6641	78.9871	55.6641	77.3159	55.6641	79.0686	55.6641	77.2206	55.6641	79.113	55.6641	77.1474	55.6641	79.1168	55.6641	77.0975	55.6641	79.0794	55.6641	77.0714	55.6641	79.0029	55.6641	77.0697	55.6641	78.8921	55.6641	77.0924	55.6641	78.7534	55.6641	77.1396	55.6641	78.5939	55.6641	77.2108	55.6641	78.4209	55.6641	77.3054	55.6641	78.2406	55.6641	77.4222	55.6641	78.0591	55.6641	77.5592	55.6641	77.8818	55.6641	77.7137
58.5938	79.0731	58.5938	78.8917	58.5938	79.2516	58.5938	78.7127	58.5938	79.421	58.5938	78.5411	58.5938	79.5751	58.5938	78.3816	58.5938	79.7073	58.5938	78.2381	58.5938	79.811	58.5938	78.114	58.5938	79.8804	58.5938	78.012	58.5938	79.9108	58.5938	77.9344	58.5938	79.8997	58.5938	77.8825	58.5938	79.8472	58.5938	77.8571	58.5938	79.7565	58.5938	77.8581	58.5938	79.6335	58.5938	77.885	58.5938	79.486	58.5938	77.9363	58.5938	79.3224	58.5938	78.0104	58.5938	79.1507	58.5938	78.1051	58.5938	78.9774	58.5938	78.2181	58.5938	78.8072	58.5938	78.347	58.5938	78.6438	58.5938	78.4896
60.0586	79.5687	60.0586	79.3893	60.0586	79.7426	60.0586	79.2096	60.0586	79.9054	60.0586	79.0343	60.0586	80.0509	60.0586	78.8675	60.0586	80.1726	60.0586	78.713	60.0586	80.2641	60.0586	78.5739	60.0586	80.3195	60.0586	78.4533	60.0586	80.3342	60.0586	78.3536	60.0586	80.3055	60.0586	78.2767	60.0586	80.2335	60.0586	78.2242	60.0586	80.1215	60.0586	78.1971	60.0586	79.9757	60.0586	78.1959	60.0586	79.8041	60.0586	78.2206	60.0586	79.6163	60.0586	78.2709	60.0586	79.4211	60.0586	78.3458	60.0586	79.2267	60.0586	78.4441	60.0586	79.0396	60.0586	78.5646	60.0586	78.8646	60.0586	78.7054
62.9883	80.3117	62.9883	80.1345	62.9883	80.4854	62.9883	79.9594	62.9883	80.6498	62.9883	79.7914	62.9883	80.7986	62.9883	79.6349	62.9883	80.9254	62.9883	79.4938	62.9883	81.0242	62.9883	79.3711	62.9883	81.0892	62.9883	79.2694	62.9883	81.1163	62.9883	79.1903	62.9883	81.1028	62.9883	79.1349	62.9883	81.0486	62.9883	79.1037	62.9883	80.9561	62.9883	79.0964	62.9883	80.8305	62.9883	79.1124	62.9883	80.6785	62.9883	79.151	62.9883	80.5084	62.9883	79.2111	62.9883	80.3284	62.9883	79.2917	62.9883	80.1463	62.9883	79.392	62.9883	79.9689	62.9883	79.5111	62.9883	79.8016	62.9883	79.6482
64.4531	80.7451	64.4531	80.5672	64.4531	80.9192	64.4531	80.391	64.4531	81.0836	64.4531	80.2217	64.4531	81.2322	64.4531	80.064	64.4531	81.3588	64.4531	79.9218	64.4531	81.4575	64.4531	79.7987	64.4531	81.5231	64.4531	79.6974	64.4531	81.5515	64.4531	79.62	64.4531	81.5407	64.4531	79.5677	64.4531	81.4907	64.4531	79.5411	64.4531	81.4043	64.4531	79.5399	64.4531	81.2863	64.4531	79.5635	64.4531	81.1435	64.4531	79.6106	64.4531	80.983	64.4531	79.6799	64.4531	80.8123	64.4531	79.7696	64.4531	80.638	64.4531	79.8783	64.4531	80.4658	64.4531	80.0042	64.4531	80.3004	64.4531	80.1456
67.3828	81.5826	67.3828	81.4052	67.3828	81.7548	67.3828	81.2281	67.3828	81.9158	67.3828	81.0565	67.3828	82.0597	67.3828	80.8953	67.3828	82.1806	67.3828	80.7487	67.3828	82.2728	67.3828	80.6206	67.3828	82.3317	67.3828	80.514	67.3828	82.3536	67.3828	80.4312	67.3828	82.3369	67.3828	80.3738	67.3828	82.2823	67.3828	80.3426	67.3828	82.1928	67.3828	80.3378	67.3828	82.0735	67.3828	80.3588	67.3828	81.9307	67.3828	80.4043	67.3828	81.7716	67.3828	80.473	67.3828	81.6029	67.3828	80.5631	67.3828	81.4307	67.3828	80.6725	67.3828	81.2603	67.3828	80.7994	67.3828	81.0959	67.3828	80.9413
68.8477	81.8751	68.8477	81.7003	68.8477	82.0442	68.8477	81.5255	68.8477	82.2019	68.8477	81.356	68.8477	82.3422	68.8477	81.1968	68.8477	82.4594	68.8477	81.0521	68.8477	82.5481	68.8477	80.9258	68.8477	82.6038	68.8477	80.8212	68.8477	82.6235	68.8477	80.7406	68.8477	82.6058	68.8477	80.6855	68.8477	82.5519	68.8477	80.6569	68.8477	82.4649	68.8477	80.6548	68.8477	82.3499	68.8477	80.6784	68.8477	82.2133	68.8477	80.7266	68.8477	82.0615	68.8477	80.7974	68.8477	81.9008	68.8477	80.8889	68.8477	81.7365	68.8477	80.9988	68.8477	81.5732	68.8477	81.1247	68.8477	81.4146	68.8477	81.2642
71.7773	82.6454	71.7773	82.4747	71.7773	82.8092	71.7773	82.3027	71.7773	82.9603	71.7773	82.135	71.7773	83.0926	71.7773	81.9768	71.7773	83.2007	71.7773	81.8326	71.7773	83.2797	71.7773	81.7066	71.7773	83.3254	71.7773	81.6022	71.7773	83.3354	71.7773	81.5222	71.7773	83.3092	71.7773	81.4682	71.7773	83.2487	71.7773	81.4412	71.7773	83.1578	71.7773	81.441	71.7773	83.0425	71.7773	81.4666	71.7773	82.9093	71.7773	81.5162	71.7773	82.7647	71.7773	81.5873	71.7773	82.6145	71.7773	81.6772	71.7773	82.4631	71.7773	81.783	71.7773	82.3139	71.7773	81.9018	71.7773	82.1693	71.7773	82.0312
74.707	83.5367	74.707	83.3659	74.707	83.6997	74.707	83.1933	74.707	83.849	74.707	83.0244	74.707	83.9788	74.707	82.8646	74.707	84.0835	74.707	82.7185	74.707	84.1581	74.707	82.5903	74.707	84.1991	74.707	82.4836	74.707	84.2039	74.707	82.401	74.707	84.1724	74.707	82.3442	74.707	84.1066	74.707	82.3141	74.707	84.0107	74.707	82.3104	74.707	83.8906	74.707	82.3323	74.707	83.7531	74.707	82.3777	74.707	83.605	74.707	82.4444	74.707	83.4521	74.707	82.5297	74.707	83.2992	74.707	82.6307	74.707	83.1498	74.707	82.7452	74.707	83.0064	74.707	82.871
77.6367	84.1218	77.6367	83.9524	77.6367	84.2829	77.6367	83.7807	77.6367	84.4298	77.6367	83.6125	77.6367	84.5566	77.6367	83.4534	77.6367	84.658	77.6367	83.3081	77.6367	84.7294	77.6367	83.1812	77.6367	84.7675	77.6367	83.076	77.6367	84.7704	77.6367	82.9954	77.6367	84.7384	77.6367	82.9409	77.6367	84.6739	77.6367	82.9134	77.6367	84.5812	77.6367	82.9124	77.6367	84.4662	77.6367	82.9369	77.6367	84.3352	77.6367	82.9848	77.6367	84.1942	77.6367	83.0536	77.6367	84.0484	77.6367	83.1407	77.6367	83.9018	77.6367	83.243	77.6367	83.7572	77.6367	83.3581	77.6367	83.6171	77.6367	83.4835
79.1016	84.3254	79.1016	84.1553	79.1016	84.4866	79.1016	83.9825	79.1016	84.6329	79.1016	83.8128	79.1016	84.7585	79.1016	83.6519	79.1016	84.858	79.1016	83.5049	79.1016	84.927	79.1016	83.3764	79.1016	84.9623	79.1016	83.2699	79.1016	84.9623	79.1016	83.1884	79.1016	84.9276	79.1016	83.1335	79.1016	84.8607	79.1016	83.106	79.1016	84.7664	79.1016	83.1055	79.1016	84.6506	79.1016	83.1307	79.1016	84.5198	79.1016	83.1795	79.1016	84.38	79.1016	83.2493	79.1016	84.236	79.1016	83.337	79.1016	84.0915	79.1016	83.4397	79.1016	83.9492	79.1016	83.5544	79.1016	83.8111	79.1016	83.6789
82.0312	84.9829	82.0312	84.8105	82.0312	85.1449	82.0312	84.634	82.0312	85.2905	82.0312	84.4597	82.0312	85.4138	82.0312	84.2935	82.0312	85.5098	82.0312	84.1409	82.0312	85.5741	82.0312	84.0068	82.0312	85.604	82.0312	83.8953	82.0312	85.5982	82.0312	83.8095	82.0312	85.5578	82.0312	83.7515	82.0312	85.4859	82.0312	83.7221	82.0312	85.3876	82.0312	83.721	82.0312	85.2691	82.0312	83.7467	82.0312	85.137	82.0312	83.797	82.0312	84.9971	82.0312	83.8687	82.0312	84.8542	82.0312	83.9584	82.0312	84.7115	82.0312	84.0628	82.0312	84.5712	82.0312	84.1786	82.0312	84.4346	82.0312	84.3032
84.9609	85.6854	84.9609	85.5121	84.9609	85.8465	84.9609	85.3332	84.9609	85.9895	84.9609	85.1548	84.9609	86.1086	84.9609	84.9833	84.9609	86.1987	84.9609	84.8243	84.9609	86.2559	84.9609	84.6832	84.9609	86.2776	84.9609	84.5646	84.9609	86.2627	84.9609	84.4719	84.9609	86.2127	84.9609	84.4078	84.9609	86.131	84.9609	84.3734	84.9609	86.0233	84.9609	84.3686	84.9609	85.8965	84.9609	84.392	84.9609	85.758	84.9609	84.4411	84.9609	85.6146	84.9609	84.5122	84.9609	85.4713	84.9609	84.6015	84.9609	85.331	84.9609	84.7046	84.9609	85.1953	84.9609	84.8178	84.9609	85.0644	84.9609	84.9383
87.8906	85.8997	87.8906	85.7284	87.8906	86.0599	87.8906	85.5521	87.8906	86.2032	87.8906	85.377	87.8906	86.3241	87.8906	85.2091	87.8906	86.418	87.8906	85.054	87.8906	86.4813	87.8906	84.9169	87.8906	86.5119	87.8906	84.8021	87.8906	86.5092	87.8906	84.7132	87.8906	86.4744	87.8906	84.6524	87.8906	86.4104	87.8906	84.621	87.8906	86.3214	87.8906	84.619	87.8906	86.2122	87.8906	84.6452	87.8906	86.0877	87.8906	84.6973	87.8906	85.9524	87.8906	84.7724	87.8906	85.8103	87.8906	84.867	87.8906	85.6646	87.8906	84.9777	87.8906	85.5182	87.8906	85.101	87.8906	85.3739	87.8906	85.234
90.8203	86.1888	90.8203	86.011	90.8203	86.3524	90.8203	85.8259	90.8203	86.4953	90.8203	85.6408	90.8203	86.6116	90.8203	85.463	90.8203	86.6969	90.8203	85.2996	90.8203	86.7479	90.8203	85.1571	90.8203	86.7636	90.8203	85.0411	90.8203	86.745	90.8203	84.9561	90.8203	86.6959	90.8203	84.905	90.8203	86.6221	90.8203	84.889	90.8203	86.531	90.8203	84.9074	90.8203	86.4301	90.8203	84.9578	90.8203	86.3253	90.8203	85.036	90.8203	86.2196	90.8203	85.1369	90.8203	86.1134	90.8203	85.2544	90.8203	86.0049	90.8203	85.3822	90.8203	85.8916	90.8203	85.5143	90.8203	85.7718	90.8203	85.6454
95.2148	86.8771	95.2148	86.7029	95.2148	87.0357	95.2148	86.52	95.2148	87.1727	95.2148	86.3349	95.2148	87.2825	95.2148	86.1546	95.2148	87.3605	95.2148	85.9853	95.2148	87.4034	95.2148	85.8331	95.2148	87.4096	95.2148	85.7031	95.2148	87.3798	95.2148	85.5996	95.2148	87.3167	95.2148	85.5257	95.2148	87.2254	95.2148	85.4831	95.2148	87.1128	95.2148	85.4723	95.2148	86.986	95.2148	85.4921	95.2148	86.8519	95.2148	85.5401	95.2148	86.7156	95.2148	85.6126	95.2148	86.5801	95.2148	85.7051	95.2148	86.4464	95.2148	85.8129	95.2148	86.3146	95.2148	85.9311	95.2148	86.1843	95.2148	86.0559
98.1445	86.9125	98.1445	86.7381	98.1445	87.0716	98.1445	86.5552	98.1445	87.2092	98.1445	86.371	98.1445	87.3196	98.1445	86.1923	98.1445	87.3985	98.1445	86.0257	98.1445	87.4427	98.1445	85.8775	98.1445	87.4511	98.1445	85.7528	98.1445	87.4248	98.1445	85.6557	98.1445	87.3668	98.1445	85.589	98.1445	87.2826	98.1445	85.5543	98.1445	87.1787	98.1445	85.5514	98.1445	87.0621	98.1445	85.5789	98.1445	86.9387	98.1445	85.6341	98.1445	86.8125	98.1445	85.713	98.1445	86.6855	98.1445	85.8111	98.1445	86.5582	98.1445	85.9234	98.1445	86.4301	98.1445	86.0452	98.1445	86.3012	98.1445	86.1723
101.074	86.7902	101.074	86.6102	101.074	86.9547	101.074	86.4224	101.074	87.0969	101.074	86.2345	101.074	87.211	101.074	86.0546	101.074	87.2925	101.074	85.8903	101.074	87.3389	101.074	85.7486	101.074	87.3497	101.074	85.6356	101.074	87.3273	101.074	85.5556	101.074	87.2765	101.074	85.5116	101.074	87.2043	101.074	85.5044	101.074	87.1187	101.074	85.5328	101.074	87.027	101.074	85.5936	101.074	86.9343	101.074	85.6821	101.074	86.8424	101.074	85.7923	101.074	86.7499	101.074	85.9173	101.074	86.6537	101.074	86.0503	101.074	86.5504	101.074	86.1847	101.074	86.4376	101.074	86.3151
105.469	87.0332	105.469	86.8459	105.469	87.2001	105.469	86.6462	105.469	87.3395	105.469	86.4428	105.469	87.4453	105.469	86.2445	105.469	87.5132	105.469	86.06	105.469	87.5408	105.469	85.8975	105.469	87.5281	105.469	85.7641	105.469	87.4781	105.469	85.6653	105.469	87.397	105.469	85.6047	105.469	87.2934	105.469	85.5834	105.469	87.1775	105.469	85.6005	105.469	87.0595	105.469	85.6524	105.469	86.9465	105.469	85.7338	105.469	86.8419	105.469	85.8379	105.469	86.7444	105.469	85.9572	105.469	86.6497	105.469	86.0841	105.469	86.5523	105.469	86.2115	105.469	86.4477	105.469	86.3339
108.398	87.0214	108.398	86.8289	108.398	87.1909	108.398	86.6213	108.398	87.3303	108.398	86.4075	108.398	87.4338	108.398	86.1964	108.398	87.4974	108.398	85.9976	108.398	87.5188	108.398	85.8202	108.398	87.4984	108.398	85.6722	108.398	87.4396	108.398	85.5607	108.398	87.3491	108.398	85.4904	108.398	87.2363	108.398	85.4633	108.398	87.1127	108.398	85.479	108.398	86.9892	108.398	85.5339	108.398	86.8738	108.398	85.622	108.398	86.7697	108.398	85.7356	108.398	86.675	108.398	85.8657	108.398	86.5839	108.398	86.0031	108.398	86.4892	108.398	86.1395	108.398	86.385	108.398	86.2682
112.793	87.0277	112.793	86.8287	112.793	87.2022	112.793	86.6132	112.793	87.3452	112.793	86.39	112.793	87.4505	112.793	86.1682	112.793	87.5138	112.793	85.9573	112.793	87.5324	112.793	85.7665	112.793	87.5064	112.793	85.6046	112.793	87.4389	112.793	85.4789	112.793	87.3362	112.793	85.3951	112.793	87.2082	112.793	85.3563	112.793	87.0671	112.793	85.3625	112.793	86.9251	112.793	85.4107	112.793	86.7921	112.793	85.495	112.793	86.6732	112.793	85.6073	112.793	86.5673	112.793	85.7379	112.793	86.4689	112.793	85.8769	112.793	86.37	112.793	86.015	112.793	86.2635	112.793	86.1451
117.188	86.8798	117.188	86.6742	117.188	87.0579	117.188	86.4491	117.188	87.2014	117.188	86.213	117.188	87.3042	117.188	85.9753	117.188	87.3615	117.188	85.7456	117.188	87.3703	117.188	85.5339	117.188	87.3302	117.188	85.35	117.188	87.2441	117.188	85.2028	117.188	87.1188	117.188	85.0995	117.188	86.9654	117.188	85.0448	117.188	86.7981	117.188	85.0402	117.188	86.6325	117.188	85.083	117.188	86.4813	117.188	85.1671	117.188	86.3517	117.188	85.2833	117.188	86.243	117.188	85.42	117.188	86.1477	117.188	85.5651	117.188	86.0548	117.188	85.7074	117.188	85.9539	117.188	85.8385
120.117	86.8758	120.117	86.6635	120.117	87.0635	120.117	86.4348	120.117	87.2189	120.117	86.1982	120.117	87.3349	120.117	85.9622	120.117	87.4055	120.117	85.7355	120.117	87.4264	120.117	85.5267	120.117	87.3955	120.117	85.3441	120.117	87.3139	120.117	85.1955	120.117	87.1865	120.117	85.087	120.117	87.0224	120.117	85.0232	120.117	86.8348	120.117	85.0055	120.117	86.6394	120.117	85.0322	120.117	86.4518	120.117	85.0981	120.117	86.2835	120.117	85.195	120.117	86.1392	120.117	85.3124	120.117	86.0162	120.117	85.4395	120.117	85.9062	120.117	85.5666	120.117	85.7992	120.117	85.6871
124.512	86.7423	124.512	86.5156	124.512	86.9447	124.512	86.2737	124.512	87.1148	124.512	86.0259	124.512	87.2456	124.512	85.782	124.512	87.3314	124.512	85.5519	124.512	87.3685	124.512	85.3449	124.512	87.3553	124.512	85.1698	124.512	87.2932	124.512	85.0338	124.512	87.1866	124.512	84.9426	124.512	87.0438	124.512	84.8988	124.512	86.8761	124.512	84.9026	124.512	86.6967	124.512	84.9504	124.512	86.5191	124.512	85.036	124.512	86.3533	124.512	85.1503	124.512	86.2044	124.512	85.2831	124.512	86.071	124.512	85.4242	124.512	85.9473	124.512	85.5647	124.512	85.8255	124.512	85.699
128.906	86.5471	128.906	86.3103	128.906	86.7595	128.906	86.0582	128.906	86.9395	128.906	85.8004	128.906	87.0799	128.906	85.5467	128.906	87.1753	128.906	85.3072	128.906	87.2217	128.906	85.0917	128.906	87.2176	128.906	84.9093	128.906	87.1642	128.906	84.7678	128.906	87.0655	128.906	84.673	128.906	86.9289	128.906	84.6283	128.906	86.7649	128.906	84.6337	128.906	86.5855	128.906	84.6858	128.906	86.4033	128.906	84.7779	128.906	86.2283	128.906	84.9007	128.906	86.0661	128.906	85.0436	128.906	85.917	128.906	85.196	128.906	85.7767	128.906	85.349	128.906	85.6387	128.906	85.4971
133.301	86.2978	133.301	86.049	133.301	86.5205	133.301	85.7834	133.301	86.7088	133.301	85.5113	133.301	86.8558	133.301	85.2433	133.301	86.9563	133.301	84.9903	133.301	87.0072	133.301	84.7631	133.301	87.0077	133.301	84.5717	133.301	86.9598	133.301	84.4246	133.301	86.8684	133.301	84.3285	133.301	86.7412	133.301	84.2869	133.301	86.588	133.301	84.2998	133.301	86.4198	133.301	84.3635	133.301	86.247	133.301	84.4706	133.301	86.0774	133.301	84.6112	133.301	85.9149	133.301	84.7737	133.301	85.7592	133.301	84.9468	133.301	85.6065	133.301	85.1212	133.301	85.4516	133.301	85.2903
139.16	85.9537	139.16	85.683	139.16	86.1969	139.16	85.3951	139.16	86.4037	139.16	85.1012	139.16	86.5663	139.16	84.813	139.16	86.6789	139.16	84.5425	139.16	86.7381	139.16	84.3017	139.16	86.7431	139.16	84.1013	139.16	86.6963	139.16	83.951	139.16	86.6034	139.16	83.8577	139.16	86.4737	139.16	83.8251	139.16	86.3186	139.16	83.8528	139.16	86.1504	139.16	83.9361	139.16	85.9799	139.16	84.0666	139.16	85.8143	139.16	84.2328	139.16	85.6556	139.16	84.4216	139.16	85.5011	139.16	84.6202	139.16	85.3452	139.16	84.8176	139.16	85.1816	139.16	85.006
143.555	85.7147	143.555	85.4147	143.555	85.9858	143.555	85.0972	143.555	86.2179	143.555	84.7748	143.555	86.403	143.555	84.4609	143.555	86.5349	143.555	84.1693	143.555	86.61	143.555	83.9132	143.555	86.6274	143.555	83.7048	143.555	86.5893	143.555	83.5541	143.555	86.5011	143.555	83.4675	143.555	86.3715	143.555	83.4478	143.555	86.2113	143.555	83.4928	143.555	86.033	143.555	83.596	143.555	85.8477	143.555	83.7469	143.555	85.6639	143.555	83.9326	143.555	85.4857	143.555	84.1394	143.555	85.3121	143.555	84.3542	143.555	85.1385	143.555	84.5663	143.555	84.959	143.555	84.7688
147.949	85.4338	147.949	85.1031	147.949	85.7314	147.949	84.7513	147.949	85.9859	147.949	84.392	147.949	86.1897	147.949	84.0406	147.949	86.3375	147.949	83.7134	147.949	86.4268	147.949	83.4271	147.949	86.4579	147.949	83.1975	147.949	86.4344	147.949	83.0377	147.949	86.363	147.949	82.9566	147.949	86.2531	147.949	82.9571	147.949	86.1152	147.949	83.0356	147.949	85.9599	147.949	83.1824	147.949	85.7953	147.949	83.3833	147.949	85.6258	147.949	83.6215	147.949	85.452	147.949	83.8802	147.949	85.2713	147.949	84.1444	147.949	85.0794	147.949	84.4024	147.949	84.872	147.949	84.6462
153.809	85.2459	153.809	84.8857	153.809	85.5657	153.809	84.4961	153.809	85.8362	153.809	84.0902	153.809	86.0499	153.809	83.6832	153.809	86.2017	153.809	83.2929	153.809	86.2886	153.809	82.9391	153.809	86.3106	153.809	82.6428	153.809	86.2715	153.809	82.4237	153.809	86.1788	153.809	82.298	153.809	86.0444	153.809	82.2742	153.809	85.8826	153.809	82.3519	153.809	85.7079	153.809	82.5205	153.809	85.5312	153.809	82.7621	153.809	85.3571	153.809	83.0543	153.809	85.1827	153.809	83.3739	153.809	84.9996	153.809	83.6998	153.809	84.7975	153.809	84.0148	153.809	84.5679	153.809	84.3066
159.668	85.1622	159.668	84.7969	159.668	85.4894	159.668	84.4039	159.668	85.7694	159.668	83.9944	159.668	85.9941	159.668	83.581	159.668	86.1573	159.668	83.178	159.668	86.2549	159.668	82.8016	159.668	86.286	159.668	82.4709	159.668	86.2537	159.668	82.2065	159.668	86.1655	159.668	82.0291	159.668	86.0333	159.668	81.9558	159.668	85.8719	159.668	81.9955	159.668	85.6965	159.668	82.1461	159.668	85.5183	159.668	82.3933	159.668	85.341	159.668	82.7132	159.668	85.1598	159.668	83.0775	159.668	84.9637	159.668	83.4577	159.668	84.7396	159.668	83.8289	159.668	84.4773	159.668	84.1726
165.527	84.8725	165.527	84.4613	165.527	85.2475	165.527	84.0271	165.527	85.5744	165.527	83.5836	165.527	85.8425	165.527	83.1454	165.527	86.0432	165.527	82.7281	165.527	86.17	165.527	82.3484	165.527	86.2202	165.527	82.0244	165.527	86.1951	165.527	81.7752	165.527	86.1011	165.527	81.6191	165.527	85.9504	165.527	81.5704	165.527	85.7601	165.527	81.636	165.527	85.5497	165.527	81.8121	165.527	85.3366	165.527	82.0835	165.527	85.1306	165.527	82.4257	165.527	84.9305	165.527	82.8091	165.527	84.7255	165.527	83.2042	165.527	84.4997	165.527	83.5852	165.527	84.2385	165.527	83.9334
171.387	84.6286	171.387	84.1604	171.387	85.0568	171.387	83.6661	171.387	85.4325	171.387	83.1606	171.387	85.7446	171.387	82.6596	171.387	85.9838	171.387	82.18	171.387	86.143	171.387	81.7398	171.387	86.2176	171.387	81.3589	171.387	86.2063	171.387	81.0589	171.387	86.1122	171.387	80.8614	171.387	85.9442	171.387	80.7852	171.387	85.717	171.387	80.8409	171.387	85.4509	171.387	81.0262	171.387	85.1679	171.387	81.3242	171.387	84.8857	171.387	81.7058	171.387	84.6119	171.387	82.1359	171.387	84.3416	171.387	82.5795	171.387	84.0603	171.387	83.0077	171.387	83.7509	171.387	83.401
177.246	84.0727	177.246	83.557	177.246	84.5477	177.246	83.0141	177.246	84.97	177.246	82.459	177.246	85.3292	177.246	81.908	177.246	85.6164	177.246	81.3793	177.246	85.8249	177.246	80.8935	177.246	85.95	177.246	80.4738	177.246	85.9898	177.246	80.1457	177.246	85.9453	177.246	79.9351	177.246	85.8214	177.246	79.8639	177.246	85.6273	177.246	79.9436	177.246	85.3766	177.246	80.1702	177.246	85.0859	177.246	80.5227	177.246	84.7715	177.246	80.9673	177.246	84.4443	177.246	81.4648	177.246	84.1061	177.246	81.9777	177.246	83.7504	177.246	82.4764	177.246	83.3654	177.246	82.9416
183.105	83.5473	183.105	83.0009	183.105	84.0546	183.105	82.4297	183.105	84.5099	183.105	81.8487	183.105	84.9023	183.105	81.274	183.105	85.223	183.105	80.7225	183.105	85.4661	183.105	80.2132	183.105	85.6284	183.105	79.768	183.105	85.7096	183.105	79.413	183.105	85.7122	183.105	79.1779	183.105	85.6407	183.105	79.0911	183.105	85.5012	183.105	79.1723	183.105	85.301	183.105	79.423	183.105	85.0475	183.105	79.8225	183.105	84.7477	183.105	80.3324	183.105	84.4068	183.105	80.9068	183.105	84.0273	183.105	81.5029	183.105	83.6081	183.105	82.0872	183.105	83.1459	183.105	82.6383
188.965	83.2774	188.965	82.7179	188.965	83.7938	188.965	82.1297	188.965	84.2534	188.965	81.5278	188.965	84.6443	188.965	80.9267	188.965	84.9571	188.965	80.3407	188.965	85.1856	188.965	79.785	188.965	85.3276	188.965	79.278	188.965	85.3855	188.965	78.8444	188.965	85.3661	188.965	78.5177	188.965	85.2807	188.965	78.3394	188.965	85.1419	188.965	78.3498	188.965	84.9614	188.965	78.5721	188.965	84.7455	188.965	78.9972	188.965	84.4933	188.965	79.5825	188.965	84.1965	188.965	80.2659	188.965	83.843	188.965	80.9847	188.965	83.4203	188.965	81.6877	188.965	82.9197	188.965	82.3395
196.289	82.808	196.289	82.2494	196.289	83.335	196.289	81.6763	196.289	83.8139	196.289	81.1053	196.289	84.2297	196.289	80.5514	196.289	84.5701	196.289	80.0269	196.289	84.825	196.289	79.5416	196.289	84.988	196.289	79.1037	196.289	85.0561	196.289	78.723	196.289	85.0307	196.289	78.4143	196.289	84.9175	196.289	78.2011	196.289	84.7271	196.289	78.1159	196.289	84.4734	196.289	78.1928	196.289	84.1711	196.289	78.4529	196.289	83.8308	196.289	78.8894	196.289	83.4558	196.289	79.4639	196.289	83.0402	196.289	80.1189	196.289	82.5726	196.289	80.7952	196.289	82.0421	196.289	81.4459
203.613	82.1568	203.613	81.5939	203.613	82.688	203.613	81.0144	203.613	83.1724	203.613	80.4319	203.613	83.5957	203.613	79.8583	203.613	83.9453	203.613	79.3039	203.613	84.2118	203.613	78.7786	203.613	84.3888	203.613	78.2943	203.613	84.4743	203.613	77.8677	203.613	84.4709	203.613	77.5229	203.613	84.3849	203.613	77.293	203.613	84.226	203.613	77.2162	203.613	84.0049	203.613	77.3259	203.613	83.7306	203.613	77.6357	203.613	83.4079	203.613	78.1291	203.613	83.0354	203.613	78.7607	203.613	82.606	203.613	79.4702	203.613	82.1101	203.613	80.1986	203.613	81.5407	203.613	80.8989
210.938	81.6993	210.938	81.1964	210.938	82.1886	210.938	80.6956	210.938	82.647	210.938	80.2099	210.938	83.0578	210.938	79.7488	210.938	83.4055	210.938	79.3177	210.938	83.6777	210.938	78.9191	210.938	83.8655	210.938	78.5537	210.938	83.9642	210.938	78.2237	210.938	83.9737	210.938	77.9365	210.938	83.8983	210.938	77.7085	210.938	83.7452	210.938	77.5676	210.938	83.5238	210.938	77.5506	210.938	83.2429	210.938	77.6927	210.938	82.9086	210.938	78.0104	210.938	82.5222	210.938	78.4887	210.938	82.0808	210.938	79.0833	210.938	81.5789	210.938	79.736	210.938	81.014	210.938	80.3926
218.262	81.1468	218.262	80.6744	218.262	81.6123	218.262	80.2094	218.262	82.0553	218.262	79.7632	218.262	82.4601	218.262	79.3442	218.262	82.813	218.262	78.958	218.262	83.1035	218.262	78.6088	218.262	83.3258	218.262	78.3013	218.262	83.478	218.262	78.0421	218.262	83.561	218.262	77.8421	218.262	83.5766	218.262	77.7173	218.262	83.525	218.262	77.6885	218.262	83.4041	218.262	77.7772	218.262	83.2104	218.262	77.9986	218.262	82.9418	218.262	78.354	218.262	82.5985	218.262	78.8263	218.262	82.1843	218.262	79.3824	218.262	81.7048	218.262	79.9822	218.262	81.1684	218.262	80.5875
225.586	81.132	225.586	80.7286	225.586	81.5145	225.586	80.3138	225.586	81.8641	225.586	79.8939	225.586	82.1676	225.586	79.4729	225.586	82.4131	225.586	79.0536	225.586	82.592	225.586	78.6398	225.586	82.7023	225.586	78.2383	225.586	82.75	225.586	77.8621	225.586	82.7485	225.586	77.5329	225.586	82.7154	225.586	77.2831	225.586	82.6647	225.586	77.1534	225.586	82.5991	225.586	77.1841	225.586	82.5068	225.586	77.4006	225.586	82.3644	225.586	77.799	225.586	82.1467	225.586	78.3446	225.586	81.8346	225.586	78.9827	225.586	81.4198	225.586	79.6544	225.586	80.906	225.586	80.3086
232.91	81.1008	232.91	80.7666	232.91	81.4182	232.91	80.4224	232.91	81.7079	232.91	80.0711	232.91	81.9557	232.91	79.7125	232.91	82.1471	232.91	79.3448	232.91	82.2697	232.91	78.9667	232.91	82.3171	232.91	78.5802	232.91	82.2922	232.91	78.1931	232.91	82.209	232.91	77.8229	232.91	82.0913	232.91	77.5001	232.91	81.9646	232.91	77.2677	232.91	81.8454	232.91	77.1758	232.91	81.7309	232.91	77.2656	232.91	81.5991	232.91	77.5505	232.91	81.418	232.91	78.0055	232.91	81.1581	232.91	78.5753	232.91	80.8011	232.91	79.193	232.91	80.3435	232.91	79.7977
241.699	81.1665	241.699	80.8775	241.699	81.442	241.699	80.5784	241.699	81.6955	241.699	80.2685	241.699	81.9133	241.699	79.9449	241.699	82.0783	241.699	79.6038	241.699	82.1723	241.699	79.2427	241.699	82.1809	241.699	78.8617	241.699	82.098	241.699	78.4668	241.699	81.9307	241.699	78.0728	241.699	81.7024	241.699	77.7076	241.699	81.4501	241.699	77.4134	241.699	81.2129	241.699	77.242	241.699	81.0136	241.699	77.2403	241.699	80.8453	241.699	77.429	241.699	80.6751	241.699	77.7895	241.699	80.4609	241.699	78.2691	241.699	80.17	241.699	78.8008	241.699	79.7883	241.699	79.3227
250.488	81.538	250.488	81.3073	250.488	81.7591	250.488	81.0677	250.488	81.965	250.488	80.8156	250.488	82.1443	250.488	80.5447	250.488	82.2812	250.488	80.2469	250.488	82.3577	250.488	79.9128	250.488	82.3568	250.488	79.5344	250.488	82.2677	250.488	79.1072	250.488	82.0903	250.488	78.6357	250.488	81.8389	250.488	78.1395	250.488	81.5424	250.488	77.6608	250.488	81.2367	250.488	77.267	250.488	80.9504	250.488	77.04	250.488	80.6888	250.488	77.0444	250.488	80.4304	250.488	77.2909	250.488	80.1391	250.488	77.7273	250.488	79.7816	250.488	78.267	250.488	79.3414	250.488	78.8254
259.277	81.0572	259.277	80.9257	259.277	81.1822	259.277	80.7818	259.277	81.3035	259.277	80.619	259.277	81.4177	259.277	80.4322	259.277	81.5143	259.277	80.2177	259.277	81.5756	259.277	79.9731	259.277	81.581	259.277	79.6971	259.277	81.5125	259.277	79.3904	259.277	81.361	259.277	79.0574	259.277	81.1338	259.277	78.7101	259.277	80.8581	259.277	78.3721	259.277	80.577	259.277	78.0809	259.277	80.3327	259.277	77.8849	259.277	80.1433	259.277	77.8307	259.277	79.9895	259.277	77.9415	259.277	79.8264	259.277	78.2022	259.277	79.6092	259.277	78.5619	259.277	79.3153	259.277	78.9533
268.066	81.1097	268.066	81.0155	268.066	81.1939	268.066	80.9044	268.066	81.2721	268.066	80.7685	268.066	81.3427	268.066	80.6002	268.066	81.3966	268.066	80.3913	268.066	81.4182	268.066	80.1341	268.066	81.3887	268.066	79.8227	268.066	81.2919	268.066	79.4552	268.066	81.1206	268.066	79.0386	268.066	80.8813	268.066	78.5931	268.066	80.5965	268.066	78.1565	268.066	80.2996	268.066	77.784	268.066	80.0242	268.066	77.5379	268.066	79.7887	268.066	77.4662	268.066	79.5864	268.066	77.5788	268.066	79.3899	268.066	77.8406	268.066	79.1647	268.066	78.1876	268.066	78.8866	268.066	78.5529
276.855	80.8731	276.855	80.8933	276.855	80.8282	276.855	80.8745	276.855	80.7807	276.855	80.8105	276.855	80.7536	276.855	80.7013	276.855	80.762	276.855	80.5494	276.855	80.8034	276.855	80.356	276.855	80.855	276.855	80.1195	276.855	80.8806	276.855	79.8367	276.855	80.8432	276.855	79.506	276.855	80.7186	276.855	79.1339	276.855	80.5038	276.855	78.7411	276.855	80.2206	276.855	78.3657	276.855	79.9081	276.855	78.0602	276.855	79.6072	276.855	77.8762	276.855	79.3415	276.855	77.8421	276.855	79.1075	276.855	77.9478	276.855	78.884	276.855	78.151	276.855	78.6495	276.855	78.3989
287.109	81.1911	287.109	81.2334	287.109	81.0976	287.109	81.2241	287.109	80.9569	287.109	81.1657	287.109	80.7775	287.109	81.0614	287.109	80.572	287.109	80.9139	287.109	80.3564	287.109	80.7241	287.109	80.1485	287.109	80.4915	287.109	79.9659	287.109	80.2157	287.109	79.8223	287.109	79.8995	287.109	79.7244	287.109	79.5528	287.109	79.6688	287.109	79.1962	287.109	79.6438	287.109	78.8633	287.109	79.6321	287.109	78.5973	287.109	79.6147	287.109	78.4399	287.109	79.573	287.109	78.4153	287.109	79.4905	287.109	78.5169	287.109	79.3559	287.109	78.7091	287.109	79.1682	287.109	78.9418
297.363	81.9529	297.363	82.0065	297.363	81.815	297.363	81.9825	297.363	81.5913	297.363	81.8902	297.363	81.2859	297.363	81.738	297.363	80.9082	297.363	81.5295	297.363	80.4744	297.363	81.2611	297.363	80.011	297.363	80.9237	297.363	79.5614	297.363	80.508	297.363	79.1889	297.363	80.0135	297.363	78.9618	297.363	79.4599	297.363	78.9165	297.363	78.8979	297.363	79.0265	297.363	78.411	297.363	79.2129	297.363	78.0947	297.363	79.3893	297.363	78.0095	297.363	79.4972	297.363	78.1413	297.363	79.5127	297.363	78.4128	297.363	79.4348	297.363	78.7323	297.363	79.2709	297.363	79.0309
307.617	82.1836	307.617	82.18	307.617	82.1232	307.617	82.118	307.617	81.9985	307.617	82.0081	307.617	81.8113	307.617	81.8631	307.617	81.5615	307.617	81.6937	307.617	81.241	307.617	81.5043	307.617	80.833	307.617	81.2907	307.617	80.3171	307.617	81.041	307.617	79.686	307.617	80.7408	307.617	78.9743	307.617	80.3806	307.617	78.2914	307.617	79.9657	307.617	77.8193	307.617	79.5245	307.617	77.71	307.617	79.1123	307.617	77.9417	307.617	78.8004	307.617	78.333	307.617	78.6458	307.617	78.6952	307.617	78.655	307.617	78.9212	307.617	78.7737	307.617	78.9843	307.617	78.9131
319.336	82.5927	319.336	82.6066	319.336	82.4955	319.336	82.5418	319.336	82.319	319.336	82.4112	319.336	82.0743	319.336	82.2319	319.336	81.7739	319.336	82.0215	319.336	81.4245	319.336	81.7922	319.336	81.0212	319.336	81.5484	319.336	80.5487	319.336	81.2866	319.336	79.9921	319.336	80.9994	319.336	79.3612	319.336	80.6825	319.336	78.7196	319.336	80.3418	319.336	78.2016	319.336	79.9991	319.336	77.9639	319.336	79.6918	319.336	78.0646	319.336	79.4622	319.336	78.4003	319.336	79.3379	319.336	78.7945	319.336	79.3125	319.336	79.113	319.336	79.3421	319.336	79.2993	319.336	79.3601
329.59	82.9025	329.59	82.8943	329.59	82.8192	329.59	82.8009	329.59	82.6499	329.59	82.6383	329.59	82.4098	329.59	82.4276	329.59	82.1173	329.59	82.1883	329.59	81.7835	329.59	81.9332	329.59	81.4022	329.59	81.6655	329.59	80.9466	329.59	81.3816	329.59	80.3803	329.59	81.0774	329.59	79.6822	329.59	80.7563	329.59	78.8875	329.59	80.4346	329.59	78.1367	329.59	80.1424	329.59	77.6729	329.59	79.9165	329.59	77.6849	329.59	79.7844	329.59	78.1057	329.59	79.7466	329.59	78.6834	329.59	79.7693	329.59	79.2009	329.59	79.7913	329.59	79.5577	329.59	79.7418
341.309	82.9448	341.309	82.9081	341.309	82.8753	341.309	82.7764	341.309	82.7036	341.309	82.5727	341.309	82.4495	341.309	82.3253	341.309	82.146	341.309	82.0606	341.309	81.8285	341.309	81.7952	341.309	81.5185	341.309	81.5326	341.309	81.206	341.309	81.2668	341.309	80.8476	341.309	80.9916	341.309	80.3852	341.309	80.711	341.309	79.7843	341.309	80.4456	341.309	79.0845	341.309	80.2309	341.309	78.4473	341.309	80.103	341.309	78.1278	341.309	80.077	341.309	78.2777	341.309	80.1299	341.309	78.7737	341.309	80.2033	341.309	79.3531	341.309	80.2211	341.309	79.8238	341.309	80.1112
353.027	83.3875	353.027	83.376	353.027	83.2756	353.027	83.2487	353.027	83.0475	353.027	83.0271	353.027	82.7254	353.027	82.7421	353.027	82.3438	353.027	82.427	353.027	81.9421	353.027	82.1071	353.027	81.5522	353.027	81.7917	353.027	81.1817	353.027	81.473	353.027	80.8054	353.027	81.136	353.027	80.374	353.027	80.7746	353.027	79.8423	353.027	80.4075	353.027	79.2127	353.027	80.0837	353.027	78.5851	353.027	79.8684	353.027	78.1711	353.027	79.8035	353.027	78.1717	353.027	79.8688	353.027	78.5677	353.027	79.981	353.027	79.1282	353.027	80.0319	353.027	79.6216	353.027	79.9286
366.211	83.8638	366.211	83.8117	366.211	83.7811	366.211	83.6353	366.211	83.5634	366.211	83.3546	366.211	83.2215	366.211	82.9973	366.211	82.7787	366.211	82.5931	366.211	82.2734	366.211	82.1648	366.211	81.7566	366.211	81.7195	366.211	81.28	366.211	81.2465	366.211	80.874	366.211	80.7267	366.211	80.5256	366.211	80.1537	366.211	80.1811	366.211	79.5595	366.211	79.7794	366.211	79.0343	366.211	79.3041	366.211	78.7069	366.211	78.8297	366.211	78.6622	366.211	78.519	366.211	78.8535	366.211	78.5095	366.211	79.1235	366.211	78.7629	366.211	79.306	366.211	79.0878	366.211	79.2986
379.395	83.1714	379.395	83.0785	379.395	83.164	379.395	82.8993	379.395	83.0525	379.395	82.6566	379.395	82.8428	379.395	82.3774	379.395	82.5477	379.395	82.086	379.395	82.1822	379.395	81.7967	379.395	81.7597	379.395	81.5098	379.395	81.2917	379.395	81.212	379.395	80.7922	379.395	80.883	379.395	80.286	379.395	80.5056	379.395	79.8151	379.395	80.0796	379.395	79.4343	379.395	79.6356	379.395	79.1927	379.395	79.2414	379.395	79.1097	379.395	78.9839	379.395	79.161	379.395	78.919	379.395	79.2842	379.395	79.0248	379.395	79.4001	379.395	79.2104	379.395	79.4405	379.395	79.3719
392.578	83.5634	392.578	83.4952	392.578	83.4642	392.578	83.2775	392.578	83.1994	392.578	82.9455	392.578	82.793	392.578	82.5471	392.578	82.2914	392.578	82.1337	392.578	81.7558	392.578	81.7451	392.578	81.2426	392.578	81.3955	392.578	80.777	392.578	81.0706	392.578	80.3406	392.578	80.7427	392.578	79.89	392.578	80.3931	392.578	79.3998	392.578	80.0342	392.578	78.9086	392.578	79.7184	392.578	78.5388	392.578	79.5233	392.578	78.4461	392.578	79.5069	392.578	78.688	392.578	79.6572	392.578	79.1492	392.578	79.8878	392.578	79.633	392.578	80.0803	392.578	79.9845	392.578	80.1326
405.762	83.9319	405.762	83.8488	405.762	83.8453	405.762	83.612	405.762	83.5893	405.762	83.252	405.762	83.1821	405.762	82.8104	405.762	82.6605	405.762	82.3332	405.762	82.0762	405.762	81.8585	405.762	81.4858	405.762	81.4031	405.762	80.9294	405.762	80.9581	405.762	80.4084	405.762	80.5008	405.762	79.881	405.762	80.021	405.762	79.2951	405.762	79.5481	405.762	78.6512	405.762	79.1655	405.762	78.0761	405.762	78.9854	405.762	77.8263	405.762	79.0727	405.762	78.0837	405.762	79.3764	405.762	78.7146	405.762	79.7507	405.762	79.3988	405.762	80.0348	405.762	79.8951	405.762	80.1059
420.41	84.0555	420.41	83.9348	420.41	84.0327	420.41	83.6889	420.41	83.8683	420.41	83.3553	420.41	83.5823	420.41	82.9833	420.41	83.2077	420.41	82.618	420.41	82.7846	420.41	82.2801	420.41	82.3486	420.41	81.9551	420.41	81.9155	420.41	81.5992	420.41	81.4689	420.41	81.1621	420.41	80.961	420.41	80.6166	420.41	80.3336	420.41	79.993	420.41	79.5596	420.41	79.4119	420.41	78.7168	420.41	79.0749	420.41	78.0769	420.41	79.1383	420.41	78.0221	420.41	79.5454	420.41	78.6135	420.41	80.0559	420.41	79.4574	420.41	80.4205	420.41	80.1431	420.41	80.4742
435.059	84.5743	435.059	84.3284	435.059	84.6318	435.059	83.9086	435.059	84.5034	435.059	83.3495	435.059	84.2118	435.059	82.7147	435.059	83.8068	435.059	82.0997	435.059	83.3669	435.059	81.6108	435.059	82.9787	435.059	81.3092	435.059	82.6882	435.059	81.1625	435.059	82.4608	435.059	81.0638	435.059	82.1957	435.059	80.9007	435.059	81.7834	435.059	80.6149	435.059	81.1651	435.059	80.235	435.059	80.3846	435.059	79.8855	435.059	79.643	435.059	79.7401	435.059	79.2654	435.059	79.8853	435.059	79.4255	435.059	80.2175	435.059	79.9169	435.059	80.5187	435.059	80.3838	435.059	80.6018
451.172	85.4225	451.172	85.0192	451.172	85.6007	451.172	84.4228	451.172	85.5363	451.172	83.6818	451.172	85.2271	451.172	82.861	451.172	84.6894	451.172	82.036	451.172	83.9666	451.172	81.2751	451.172	83.1413	451.172	80.6115	451.172	82.3417	451.172	80.0252	451.172	81.7108	451.172	79.4612	451.172	81.3193	451.172	78.8822	451.172	81.096	451.172	78.3418	451.172	80.8797	451.172	78.0339	451.172	80.5569	451.172	78.2047	451.172	80.1802	451.172	78.8861	451.172	79.9901	451.172	79.8127	451.172	80.2047	451.172	80.6623	451.172	80.7197	451.172	81.2265	451.172	81.2068	451.172	81.4101
465.82	85.35	465.82	85.0391	465.82	85.4393	465.82	84.5243	465.82	85.3104	465.82	83.843	465.82	84.9902	465.82	83.0513	465.82	84.5301	465.82	82.2193	465.82	84.0028	465.82	81.4208	465.82	83.4857	465.82	80.7087	465.82	83.0279	465.82	80.0863	465.82	82.6178	465.82	79.4945	465.82	82.1851	465.82	78.8383	465.82	81.6428	465.82	78.0487	465.82	80.9479	465.82	77.178	465.82	80.1622	465.82	76.5193	465.82	79.4939	465.82	76.5358	465.82	79.2169	465.82	77.3263	465.82	79.3977	465.82	78.4287	465.82	79.7792	465.82	79.3663	465.82	80.0235	465.82	79.9129
483.398	85.2193	483.398	84.8369	483.398	85.3774	483.398	84.2538	483.398	85.3015	483.398	83.5149	483.398	84.9937	483.398	82.6983	483.398	84.4764	483.398	81.916	483.398	83.8138	483.398	81.2807	483.398	83.1409	483.398	80.8333	483.398	82.6537	483.398	80.4954	483.398	82.4796	483.398	80.1063	483.398	82.5175	483.398	79.5037	483.398	82.4837	483.398	78.591	483.398	82.0998	483.398	77.4282	483.398	81.2249	483.398	76.438	483.398	80.0155	483.398	76.4318	483.398	79.1856	483.398	77.6038	483.398	79.4822	483.398	79.1489	483.398	80.3994	483.398	80.3908	483.398	81.0436	483.398	81.0536
499.512	85.2495	499.512	84.7887	499.512	85.4762	499.512	84.1111	499.512	85.4643	499.512	83.2481	499.512	85.2226	499.512	82.255	499.512	84.7769	499.512	81.2305	499.512	84.1793	499.512	80.3315	499.512	83.5276	499.512	79.7286	499.512	82.9761	499.512	79.4741	499.512	82.6855	499.512	79.4157	499.512	82.6839	499.512	79.29	499.512	82.7882	499.512	78.8588	499.512	82.7062	499.512	77.9779	499.512	82.1848	499.512	76.7098	499.512	81.1176	499.512	75.6857	499.512	79.7496	499.512	76.0629	499.512	78.9278	499.512	77.6319	499.512	79.2198	499.512	79.1144	499.512	79.823	499.512	79.8789
517.09	85.2917	517.09	84.7315	517.09	85.598	517.09	83.954	517.09	85.6221	517.09	83.0096	517.09	85.3392	517.09	81.9607	517.09	84.7336	517.09	80.8705	517.09	83.8322	517.09	79.7931	517.09	82.7935	517.09	78.7836	517.09	82.0178	517.09	77.9307	517.09	81.9515	517.09	77.3556	517.09	82.4796	517.09	77.1046	517.09	83.0004	517.09	77.0379	517.09	83.0251	517.09	76.9106	517.09	82.321	517.09	76.5701	517.09	80.8823	517.09	76.1244	517.09	79.1251	517.09	76.0097	517.09	78.0894	517.09	76.5943	517.09	78.2042	517.09	77.5726	517.09	78.5201	517.09	78.331
536.133	85.1601	536.133	84.518	536.133	85.5518	536.133	83.6291	536.133	85.6925	536.133	82.5198	536.133	85.5697	536.133	81.2772	536.133	85.1424	536.133	80.1076	536.133	84.3296	536.133	79.3221	536.133	83.0191	536.133	79.0761	536.133	81.1647	536.133	79.1279	536.133	79.2422	536.133	79.0558	536.133	78.8855	536.133	78.5459	536.133	80.3762	536.133	77.4386	536.133	81.8595	536.133	75.7577	536.133	82.4739	536.133	74.043	536.133	82.139	536.133	73.7129	536.133	81.0881	536.133	75.1042	536.133	79.8981	536.133	76.8151	536.133	79.2341	536.133	78.0844	536.133	79.0545	536.133	78.7937
555.176	84.3761	555.176	83.8453	555.176	84.7293	555.176	83.1318	555.176	84.9086	555.176	82.2215	555.176	84.9151	555.176	81.0904	555.176	84.7369	555.176	79.7346	555.176	84.3361	555.176	78.2792	555.176	83.6454	555.176	77.1595	555.176	82.5944	555.176	76.9441	555.176	81.2085	555.176	77.5008	555.176	79.8577	555.176	78.0932	555.176	79.3455	555.176	78.1793	555.176	79.8206	555.176	77.494	555.176	80.3551	555.176	75.9151	555.176	80.291	555.176	73.7615	555.176	79.6827	555.176	73.1102	555.176	79.1735	555.176	75.2382	555.176	79.251	555.176	77.5753	555.176	79.4217	555.176	78.9764
574.219	83.6448	574.219	83.1166	574.219	84.0325	574.219	82.4706	574.219	84.2706	574.219	81.732	574.219	84.361	574.219	80.9129	574.219	84.3008	574.219	80.0018	574.219	84.0562	574.219	78.9782	574.219	83.5473	574.219	77.8711	574.219	82.6639	574.219	76.8612	574.219	81.353	574.219	76.2861	574.219	79.881	574.219	76.2906	574.219	79.1476	574.219	76.5136	574.219	79.6296	574.219	76.414	574.219	80.2963	574.219	75.6289	574.219	80.2577	574.219	74.1802	574.219	79.4805	574.219	73.2216	574.219	78.7034	574.219	74.5322	574.219	78.6694	574.219	76.7746	574.219	78.832	574.219	78.3088
594.727	83.1461	594.727	82.7758	594.727	83.3367	594.727	82.2322	594.727	83.3575	594.727	81.5265	594.727	83.2395	594.727	80.6674	594.727	83.0285	594.727	79.6694	594.727	82.758	594.727	78.5897	594.727	82.4059	594.727	77.5865	594.727	81.8643	594.727	76.9233	594.727	80.9773	594.727	76.7675	594.727	79.6897	594.727	76.9398	594.727	78.399	594.727	77.0308	594.727	78.0914	594.727	76.6592	594.727	78.8105	594.727	75.5329	594.727	79.376	594.727	73.4872	594.727	79.1422	594.727	71.189	594.727	78.2254	594.727	71.4501	594.727	77.2225	594.727	73.7953	594.727	76.5014	594.727	75.5714
615.234	83.7334	615.234	83.4843	615.234	83.8544	615.234	83.1279	615.234	83.8246	615.234	82.6674	615.234	83.6388	615.234	82.0873	615.234	83.3201	615.234	81.3755	615.234	82.9107	615.234	80.5632	615.234	82.4409	615.234	79.7616	615.234	81.8947	615.234	79.1403	615.234	81.2125	615.234	78.8111	615.234	80.3729	615.234	78.7119	615.234	79.5084	615.234	78.633	615.234	78.8368	615.234	78.3197	615.234	78.3116	615.234	77.5319	615.234	77.6426	615.234	76.0814	615.234	76.8667	615.234	74.0092	615.234	76.445	615.234	72.3251	615.234	76.345	615.234	72.8666	615.234	75.8825	615.234	74.6218
637.207	84.6318	637.207	84.4499	637.207	84.7061	637.207	84.1358	637.207	84.7014	637.207	83.6664	637.207	84.6406	637.207	83.0216	637.207	84.5169	637.207	82.1987	637.207	84.2719	637.207	81.238	637.207	83.8089	637.207	80.2599	637.207	83.0726	637.207	79.5087	637.207	82.2148	637.207	79.2814	637.207	81.705	637.207	79.6055	637.207	81.8134	637.207	80.099	637.207	81.9659	637.207	80.2938	637.207	81.3609	637.207	79.8677	637.207	79.6324	637.207	78.6707	637.207	77.5743	637.207	76.9283	637.207	77.6303	637.207	75.9486	637.207	78.9558	637.207	77.0021	637.207	79.4018	637.207	78.6183
659.18	85.0512	659.18	85.1282	659.18	84.7203	659.18	84.9678	659.18	84.1406	659.18	84.5831	659.18	83.3719	659.18	83.9679	659.18	82.5658	659.18	83.0997	659.18	81.9375	659.18	81.9782	659.18	81.5656	659.18	80.7045	659.18	81.1795	659.18	79.5828	659.18	80.3002	659.18	79.0805	659.18	78.7479	659.18	79.3758	659.18	77.8619	659.18	80.0485	659.18	79.3509	659.18	80.5153	659.18	80.9756	659.18	80.3801	659.18	81.0266	659.18	79.4247	659.18	79.0648	659.18	77.6271	659.18	75.2008	659.18	75.61	659.18	73.0707	659.18	74.9512	659.18	74.6877	659.18	75.314
682.617	85.853	682.617	85.9536	682.617	85.5642	682.617	85.8639	682.617	85.0902	682.617	85.5974	682.617	84.4217	682.617	85.1658	682.617	83.567	682.617	84.5365	682.617	82.6239	682.617	83.6203	682.617	81.7902	682.617	82.3311	682.617	81.1413	682.617	80.7141	682.617	80.3804	682.617	79.1528	682.617	79.0072	682.617	78.42	682.617	76.8854	682.617	78.8058	682.617	75.5816	682.617	79.5677	682.617	76.7327	682.617	79.9341	682.617	77.9481	682.617	79.5521	682.617	78.001	682.617	78.4327	682.617	77.4025	682.617	77.1234	682.617	77.1471	682.617	76.6404	682.617	77.2281	682.617	76.9948
707.52	86.2566	707.52	86.1308	707.52	86.0345	707.52	85.7549	707.52	85.4464	707.52	85.253	707.52	84.5667	707.52	84.6922	707.52	83.5433	707.52	84.0501	707.52	82.5392	707.52	83.288	707.52	81.6454	707.52	82.4488	707.52	80.8481	707.52	81.6319	707.52	80.1338	707.52	80.8577	707.52	79.6151	707.52	80.1031	707.52	79.3876	707.52	79.5461	707.52	79.2567	707.52	79.4427	707.52	78.9425	707.52	79.5693	707.52	78.4682	707.52	79.3903	707.52	78.1054	707.52	78.6775	707.52	78.0243	707.52	77.8026	707.52	78.1574	707.52	77.5478	707.52	78.2154	707.52	77.9284
732.422	87.0731	732.422	86.9913	732.422	86.7108	732.422	86.4948	732.422	85.9382	732.422	85.6608	732.422	84.8356	732.422	84.5989	732.422	83.4861	732.422	83.4632	732.422	81.9786	732.422	82.4585	732.422	80.5195	732.422	81.7287	732.422	79.4325	732.422	81.2001	732.422	78.6691	732.422	80.7128	732.422	77.5685	732.422	80.3332	732.422	75.8021	732.422	80.3297	732.422	75.4269	732.422	80.6375	732.422	77.5809	732.422	80.7136	732.422	79.0128	732.422	80.0715	732.422	78.5945	732.422	78.6147	732.422	76.8003	732.422	76.8825	732.422	75.7878	732.422	76.1139	732.422	76.3005	732.422	76.3895
757.324	87.3247	757.324	87.3552	757.324	86.9725	757.324	87.0379	757.324	86.3855	757.324	86.4168	757.324	85.6531	757.324	85.569	757.324	84.8132	757.324	84.5336	757.324	83.8427	757.324	83.2808	757.324	82.6556	757.324	81.8091	757.324	81.1151	757.324	80.2586	757.324	79.1318	757.324	78.8302	757.324	76.9072	757.324	77.7644	757.324	75.1506	757.324	77.6516	757.324	74.3397	757.324	78.654	757.324	74.0701	757.324	79.7059	757.324	74.1749	757.324	79.9506	757.324	74.8766	757.324	79.3896	757.324	76.1482	757.324	78.7511	757.324	77.6264	757.324	78.7612	757.324	78.7088	757.324	79.0143
785.156	86.6451	785.156	86.8374	785.156	86.3872	785.156	86.7254	785.156	86.0328	785.156	86.1356	785.156	85.3007	785.156	85.1167	785.156	84.0527	785.156	83.8024	785.156	82.5493	785.156	82.1793	785.156	81.3083	785.156	80.2459	785.156	80.4288	785.156	78.5685	785.156	79.2999	785.156	77.6913	785.156	77.3274	785.156	76.8972	785.156	75.3067	785.156	76.0204	785.156	76.1735	785.156	77.0695	785.156	78.639	785.156	79.6109	785.156	80.3131	785.156	80.9718	785.156	80.5072	785.156	80.4996	785.156	78.9065	785.156	79.281	785.156	76.9292	785.156	79.3455	785.156	78.1072	785.156	79.5037
811.523	86.9006	811.523	86.1618	811.523	87.3465	811.523	85.5645	811.523	87.104	811.523	85.1133	811.523	86.0717	811.523	84.4488	811.523	84.478	811.523	83.3312	811.523	82.8209	811.523	81.8131	811.523	81.5473	811.523	80.1807	811.523	80.7232	811.523	78.9363	811.523	80.0974	811.523	78.6397	811.523	79.2245	811.523	79.0743	811.523	77.4718	811.523	79.3316	811.523	73.6505	811.523	79.1975	811.523	68.6214	811.523	79.4851	811.523	75.5295	811.523	79.8232	811.523	79.6763	811.523	78.942	811.523	80.7376	811.523	77.0689	811.523	79.7657	811.523	75.8125	811.523	77.7409	811.523	76.0488
840.82	86.941	840.82	87.0816	840.82	86.3606	840.82	86.5	840.82	85.9034	840.82	85.2726	840.82	85.6769	840.82	83.6469	840.82	85.1933	840.82	81.8226	840.82	84.239	840.82	79.7928	840.82	83.1336	840.82	77.5155	840.82	82.1532	840.82	75.4968	840.82	80.9979	840.82	74.8819	840.82	79.4833	840.82	75.2854	840.82	78.7703	840.82	75.4278	840.82	79.6418	840.82	75.3694	840.82	80.0439	840.82	75.8504	840.82	78.7139	840.82	76.8165	840.82	75.8732	840.82	77.3329	840.82	73.2473	840.82	76.9437	840.82	75.3379	840.82	77.1765	840.82	78.0579	840.82	78.3663
870.117	86.826	870.117	86.2644	870.117	86.9778	870.117	85.4231	870.117	86.6433	870.117	84.4194	870.117	85.8	870.117	83.3271	870.117	84.4792	870.117	82.2859	870.117	82.7838	870.117	81.4284	870.117	80.9845	870.117	80.4615	870.117	79.9037	870.117	78.7682	870.117	80.126	870.117	76.1559	870.117	80.2734	870.117	73.9362	870.117	78.884	870.117	73.7032	870.117	77.1667	870.117	74.3734	870.117	79.2263	870.117	75.9295	870.117	80.7431	870.117	77.8738	870.117	79.4407	870.117	78.8676	870.117	75.3449	870.117	78.2308	870.117	74.271	870.117	77.4752	870.117	77.8543	870.117	78.4763
900.879	86.227	900.879	86.2458	900.879	86.2632	900.879	85.9263	900.879	86.3317	900.879	85.0868	900.879	85.8939	900.879	83.8632	900.879	84.6336	900.879	82.3676	900.879	82.8292	900.879	80.4775	900.879	81.0004	900.879	78.4651	900.879	79.1408	900.879	77.3299	900.879	77.1907	900.879	76.6631	900.879	76.747	900.879	75.0729	900.879	77.8429	900.879	72.5466	900.879	77.8086	900.879	70.6536	900.879	76.8972	900.879	70.6043	900.879	77.6514	900.879	72.5561	900.879	77.966	900.879	75.2545	900.879	76.0191	900.879	76.8531	900.879	74.1237	900.879	76.9062	900.879	75.1439	900.879	76.2468
933.105	86.0262	933.105	86.0981	933.105	86.1497	933.105	86.0047	933.105	86.1581	933.105	85.2717	933.105	85.4149	933.105	83.7488	933.105	83.5864	933.105	81.7891	933.105	80.8682	933.105	79.9613	933.105	78.1563	933.105	78.0394	933.105	76.857	933.105	76.0307	933.105	76.756	933.105	75.5465	933.105	75.8526	933.105	75.909	933.105	73.1601	933.105	75.5118	933.105	73.3045	933.105	74.8171	933.105	77.3329	933.105	76.2545	933.105	78.9521	933.105	78.2986	933.105	77.8208	933.105	78.4144	933.105	75.23	933.105	76.6464	933.105	74.3584	933.105	74.9273	933.105	74.8557	933.105	74.846
965.332	86.0241	965.332	85.9279	965.332	86.0651	965.332	85.662	965.332	85.8285	965.332	85.0494	965.332	84.8914	965.332	84.0498	965.332	83.0227	965.332	82.7273	965.332	80.4643	965.332	81.1079	965.332	78.1039	965.332	78.9213	965.332	77.2598	965.332	75.6605	965.332	77.7062	965.332	72.6753	965.332	77.7935	965.332	73.6257	965.332	76.8879	965.332	74.7376	965.332	74.0711	965.332	74.2774	965.332	68.9063	965.332	74.2482	965.332	74.2874	965.332	76.9212	965.332	77.2389	965.332	79.0202	965.332	76.2772	965.332	78.8922	965.332	73.1666	965.332	77.3543	965.332	73.1159	965.332	75.5481
1,000.49	85.8088	1,000.49	85.7693	1,000.49	85.9868	1,000.49	85.7191	1,000.49	85.7713	1,000.49	85.1285	1,000.49	84.7221	1,000.49	83.7532	1,000.49	83.0621	1,000.49	81.8062	1,000.49	81.4339	1,000.49	79.8822	1,000.49	79.7835	1,000.49	78.5776	1,000.49	77.8636	1,000.49	78.0453	1,000.49	76.66	1,000.49	77.8829	1,000.49	76.7089	1,000.49	77.3683	1,000.49	76.9597	1,000.49	75.9158	1,000.49	76.9291	1,000.49	74.5515	1,000.49	77.5344	1,000.49	75.5941	1,000.49	78.1665	1,000.49	76.7601	1,000.49	76.6649	1,000.49	76.3802	1,000.49	72.912	1,000.49	74.9625	1,000.49	73.1574	1,000.49	74.0394	1,000.49	75.0863	1,000.49	74.774
1,035.64	85.8239	1,035.64	85.9844	1,035.64	86.2533	1,035.64	86.2106	1,035.64	86.4594	1,035.64	85.6936	1,035.64	85.5006	1,035.64	83.9412	1,035.64	83.2861	1,035.64	80.6295	1,035.64	80.7255	1,035.64	76.6325	1,035.64	79.1846	1,035.64	75.7678	1,035.64	78.6806	1,035.64	75.6722	1,035.64	78.0351	1,035.64	73.8525	1,035.64	76.6046	1,035.64	73.7995	1,035.64	76.2374	1,035.64	75.4196	1,035.64	75.4694	1,035.64	75.9498	1,035.64	69.8056	1,035.64	75.2583	1,035.64	73.2032	1,035.64	75.6896	1,035.64	77.0797	1,035.64	78.1259	1,035.64	77.0771	1,035.64	78.0025	1,035.64	75.3113	1,035.64	75.6773	1,035.64	72.8145	1,035.64	73.2428
1,072.27	85.5082	1,072.27	85.6883	1,072.27	85.9725	1,072.27	86.291	1,072.27	86.1176	1,072.27	86.1454	1,072.27	85.4649	1,072.27	84.7365	1,072.27	84.4475	1,072.27	82.4356	1,072.27	83.475	1,072.27	80.0708	1,072.27	81.8875	1,072.27	77.9058	1,072.27	79.2232	1,072.27	76.4198	1,072.27	77.5137	1,072.27	76.9498	1,072.27	77.9772	1,072.27	78.3282	1,072.27	77.5317	1,072.27	79.2899	1,072.27	76.4101	1,072.27	78.9852	1,072.27	78.0141	1,072.27	76.4883	1,072.27	78.9134	1,072.27	74.7972	1,072.27	75.8921	1,072.27	76.4453	1,072.27	69.487	1,072.27	76.2493	1,072.27	74.9368	1,072.27	75.4157	1,072.27	76.9006	1,072.27	75.9411
1,108.89	86.0804	1,108.89	85.7285	1,108.89	86.4282	1,108.89	85.8281	1,108.89	85.955	1,108.89	85.8818	1,108.89	84.5292	1,108.89	85.2328	1,108.89	83.2367	1,108.89	83.3716	1,108.89	82.7225	1,108.89	79.7409	1,108.89	81.804	1,108.89	75.3655	1,108.89	80.8075	1,108.89	75.161	1,108.89	80.1161	1,108.89	74.844	1,108.89	77.6923	1,108.89	73.6071	1,108.89	74.7674	1,108.89	75.3999	1,108.89	76.7401	1,108.89	77.4294	1,108.89	74.4025	1,108.89	78.0064	1,108.89	72.0968	1,108.89	77.6602	1,108.89	77.3264	1,108.89	77.2277	1,108.89	75.7469	1,108.89	76.2482	1,108.89	72.5559	1,108.89	74.5968	1,108.89	73.3795	1,108.89	73.7038
1,148.44	86.008	1,148.44	85.5018	1,148.44	86.3577	1,148.44	85.8623	1,148.44	85.6528	1,148.44	86.2142	1,148.44	84.3339	1,148.44	85.5483	1,148.44	83.5728	1,148.44	83.7572	1,148.44	83.222	1,148.44	81.5543	1,148.44	82.4022	1,148.44	79.6531	1,148.44	80.8867	1,148.44	77.2194	1,148.44	79.1104	1,148.44	74.1704	1,148.44	78.4755	1,148.44	74.2286	1,148.44	78.0916	1,148.44	76.6888	1,148.44	75.6006	1,148.44	77.7533	1,148.44	76.4192	1,148.44	76.4803	1,148.44	78.5645	1,148.44	74.8134	1,148.44	76.2729	1,148.44	75.1276	1,148.44	72.6622	1,148.44	75.0946	1,148.44	73.7198	1,148.44	74.9909	1,148.44	74.9064	1,148.44	75.0624
1,189.45	86.3166	1,189.45	86.067	1,189.45	86.1002	1,189.45	86.05	1,189.45	84.8943	1,189.45	86.0134	1,189.45	83.5843	1,189.45	85.3822	1,189.45	83.8496	1,189.45	83.7926	1,189.45	84.1948	1,189.45	80.7057	1,189.45	82.7433	1,189.45	76.2457	1,189.45	79.7111	1,189.45	74.1277	1,189.45	77.5814	1,189.45	73.3299	1,189.45	76.4423	1,189.45	69.9341	1,189.45	75.1054	1,189.45	73.0295	1,189.45	75.7526	1,189.45	77.8611	1,189.45	74.374	1,189.45	78.5473	1,189.45	72.0166	1,189.45	78.0469	1,189.45	76.2032	1,189.45	77.343	1,189.45	74.1779	1,189.45	75.4659	1,189.45	67.9999	1,189.45	72.8132	1,189.45	72.7989	1,189.45	72.693
1,230.47	87.0808	1,230.47	86.2784	1,230.47	86.6587	1,230.47	85.7149	1,230.47	84.9462	1,230.47	85.8975	1,230.47	83.7785	1,230.47	85.3629	1,230.47	83.7655	1,230.47	83.3392	1,230.47	83.1555	1,230.47	79.9898	1,230.47	81.3122	1,230.47	75.9845	1,230.47	78.7986	1,230.47	73.987	1,230.47	77.716	1,230.47	74.3079	1,230.47	78.151	1,230.47	72.2625	1,230.47	77.475	1,230.47	69.9586	1,230.47	74.5194	1,230.47	73.173	1,230.47	72.2162	1,230.47	71.7988	1,230.47	75.7144	1,230.47	69.1968	1,230.47	76.3555	1,230.47	72.6633	1,230.47	74.2467	1,230.47	75.6874	1,230.47	70.3423	1,230.47	75.4801	1,230.47	68.27	1,230.47	72.5088
1,274.41	86.5485	1,274.41	86.1775	1,274.41	85.8504	1,274.41	85.668	1,274.41	84.5635	1,274.41	85.4125	1,274.41	84.2316	1,274.41	84.5885	1,274.41	83.8462	1,274.41	82.9701	1,274.41	82.0987	1,274.41	81.0795	1,274.41	79.5866	1,274.41	78.8043	1,274.41	77.4253	1,274.41	76.3884	1,274.41	75.3191	1,274.41	75.7754	1,274.41	74.4213	1,274.41	75.6261	1,274.41	75.7338	1,274.41	74.4045	1,274.41	75.5366	1,274.41	75.9326	1,274.41	74.0625	1,274.41	76.1312	1,274.41	72.2067	1,274.41	74.6552	1,274.41	72.4572	1,274.41	74.6011	1,274.41	75.1729	1,274.41	75.653	1,274.41	71.0106	1,274.41	75.0643	1,274.41	67.8123	1,274.41	73.0826
1,319.82	86.0339	1,319.82	85.8712	1,319.82	85.1171	1,319.82	84.6358	1,319.82	84.5987	1,319.82	83.6888	1,319.82	84.6245	1,319.82	83.5159	1,319.82	83.6741	1,319.82	82.3851	1,319.82	81.3621	1,319.82	79.3922	1,319.82	78.2674	1,319.82	75.544	1,319.82	74.9401	1,319.82	73.0667	1,319.82	72.4006	1,319.82	71.3011	1,319.82	73.9602	1,319.82	67.4589	1,319.82	72.7809	1,319.82	63.607	1,319.82	70.4821	1,319.82	68.8806	1,319.82	68.6889	1,319.82	70.3152	1,319.82	72.4371	1,319.82	70.0281	1,319.82	74.6687	1,319.82	73.1811	1,319.82	72.5051	1,319.82	74.6142	1,319.82	71.6599	1,319.82	72.6876	1,319.82	69.0439	1,319.82	69.7426
1,366.7	84.3253	1,366.7	84.6737	1,366.7	84.0406	1,366.7	83.9875	1,366.7	84.4864	1,366.7	82.6729	1,366.7	83.9959	1,366.7	81.5952	1,366.7	82.0944	1,366.7	80.4177	1,366.7	80.4878	1,366.7	79.2919	1,366.7	79.2679	1,366.7	78.3428	1,366.7	77.1839	1,366.7	76.3544	1,366.7	74.0387	1,366.7	75.3887	1,366.7	73.7197	1,366.7	76.458	1,366.7	75.5539	1,366.7	74.4622	1,366.7	74.0299	1,366.7	70.4511	1,366.7	71.1729	1,366.7	67.5976	1,366.7	74.0545	1,366.7	67.8206	1,366.7	69.1567	1,366.7	73.9685	1,366.7	72.9895	1,366.7	76.7226	1,366.7	74.7072	1,366.7	73.0914	1,366.7	64.3871	1,366.7	66.0756
1,413.57	83.4644	1,413.57	83.7095	1,413.57	83.7582	1,413.57	83.8719	1,413.57	83.6984	1,413.57	82.8297	1,413.57	82.8198	1,413.57	80.792	1,413.57	81.538	1,413.57	79.33	1,413.57	80.1238	1,413.57	78.8417	1,413.57	79.0954	1,413.57	77.6762	1,413.57	77.8188	1,413.57	74.7773	1,413.57	73.9872	1,413.57	73.21	1,413.57	73.2037	1,413.57	74.2223	1,413.57	75.1767	1,413.57	70.8504	1,413.57	72.306	1,413.57	70.6638	1,413.57	71.755	1,413.57	72.8674	1,413.57	68.9979	1,413.57	71.4231	1,413.57	69.437	1,413.57	71.7287	1,413.57	73.1767	1,413.57	74.0403	1,413.57	70.2201	1,413.57	70.0446	1,413.57	63.7746	1,413.57	63.2357
1,463.38	83.1275	1,463.38	83.0067	1,463.38	83.3465	1,463.38	82.4641	1,463.38	82.9084	1,463.38	81.2135	1,463.38	81.7189	1,463.38	79.8031	1,463.38	80.5671	1,463.38	77.8681	1,463.38	79.1594	1,463.38	75.6765	1,463.38	77.4089	1,463.38	75.461	1,463.38	75.6278	1,463.38	74.2384	1,463.38	72.0961	1,463.38	68.826	1,463.38	65.4008	1,463.38	68.1569	1,463.38	68.5759	1,463.38	67.2188	1,463.38	70.3144	1,463.38	63.3459	1,463.38	64.8341	1,463.38	66.7981	1,463.38	69.3644	1,463.38	68.7979	1,463.38	69.6949	1,463.38	68.8838	1,463.38	64.5036	1,463.38	72.3365	1,463.38	69.9597	1,463.38	67.6313	1,463.38	67.8007	1,463.38	62.0105
1,516.11	84.8307	1,516.11	83.8583	1,516.11	84.6108	1,516.11	82.7209	1,516.11	83.4296	1,516.11	81.5571	1,516.11	82.5635	1,516.11	79.9553	1,516.11	81.6072	1,516.11	77.9925	1,516.11	80.1488	1,516.11	75.3303	1,516.11	78.0856	1,516.11	73.704	1,516.11	74.8567	1,516.11	72.949	1,516.11	71.4608	1,516.11	69.4727	1,516.11	69.752	1,516.11	67.039	1,516.11	71.2526	1,516.11	67.9899	1,516.11	71.4564	1,516.11	63.1672	1,516.11	68.7332	1,516.11	70.6383	1,516.11	69.4564	1,516.11	72.8624	1,516.11	68.2107	1,516.11	70.4214	1,516.11	70.4525	1,516.11	70.9653	1,516.11	68.4021	1,516.11	69.9983	1,516.11	65.9455	1,516.11	67.051
1,568.85	84.7731	1,568.85	83.875	1,568.85	84.8009	1,568.85	82.9767	1,568.85	83.9737	1,568.85	81.9586	1,568.85	82.9484	1,568.85	80.3224	1,568.85	81.2429	1,568.85	78.3546	1,568.85	79.2842	1,568.85	75.9129	1,568.85	77.6263	1,568.85	73.2973	1,568.85	74.7854	1,568.85	71.884	1,568.85	71.9528	1,568.85	70.3401	1,568.85	69.9481	1,568.85	69.2276	1,568.85	67.8186	1,568.85	68.5128	1,568.85	69.6271	1,568.85	65.3206	1,568.85	69.6019	1,568.85	70.2919	1,568.85	69.1675	1,568.85	72.5735	1,568.85	62.6663	1,568.85	69.5889	1,568.85	71.7048	1,568.85	68.572	1,568.85	69.8255	1,568.85	68.5005	1,568.85	64.2063	1,568.85	66.3041
1,624.51	82.8783	1,624.51	82.6475	1,624.51	83.3233	1,624.51	81.9459	1,624.51	83.3518	1,624.51	80.3897	1,624.51	82.2249	1,624.51	78.5515	1,624.51	80.2321	1,624.51	76.8121	1,624.51	78.1648	1,624.51	74.3327	1,624.51	75.7649	1,624.51	71.2166	1,624.51	72.4343	1,624.51	71.112	1,624.51	68.2302	1,624.51	70.5998	1,624.51	66.5095	1,624.51	68.5437	1,624.51	69.5059	1,624.51	68.152	1,624.51	69.2843	1,624.51	66.7527	1,624.51	66.698	1,624.51	70.2959	1,624.51	62.5868	1,624.51	70.1032	1,624.51	69.9722	1,624.51	65.816	1,624.51	69.7482	1,624.51	67.5376	1,624.51	67.3242	1,624.51	68.1515	1,624.51	65.1984	1,624.51	65.4594
1,681.64	82.4668	1,681.64	81.4532	1,681.64	82.4582	1,681.64	80.7331	1,681.64	81.7725	1,681.64	79.5675	1,681.64	81.3185	1,681.64	77.1514	1,681.64	79.4864	1,681.64	74.6304	1,681.64	75.9396	1,681.64	74.6537	1,681.64	73.5977	1,681.64	74.4785	1,681.64	73.7137	1,681.64	73.8517	1,681.64	72.7597	1,681.64	74.3599	1,681.64	71.6278	1,681.64	73.6579	1,681.64	69.7837	1,681.64	71.8536	1,681.64	65.4343	1,681.64	69.1797	1,681.64	56.5749	1,681.64	67.2934	1,681.64	66.1172	1,681.64	69.8901	1,681.64	65.4183	1,681.64	69.7469	1,681.64	64.6403	1,681.64	68.126	1,681.64	68.9798	1,681.64	66.255	1,681.64	65.7529	1,681.64	61.2108
1,741.7	82.5262	1,741.7	81.3253	1,741.7	82.3631	1,741.7	78.4641	1,741.7	81.9325	1,741.7	77.6906	1,741.7	79.9507	1,741.7	77.8181	1,741.7	76.539	1,741.7	74.8014	1,741.7	74.9088	1,741.7	69.6414	1,741.7	72.7573	1,741.7	70.4248	1,741.7	70.6228	1,741.7	70.2386	1,741.7	68.6822	1,741.7	70.7938	1,741.7	65.2692	1,741.7	71.5009	1,741.7	52.9912	1,741.7	68.3131	1,741.7	67.2048	1,741.7	67.0779	1,741.7	62.9034	1,741.7	67.2095	1,741.7	65.9466	1,741.7	68.0123	1,741.7	60.6502	1,741.7	68.9363	1,741.7	64.6588	1,741.7	66.4233	1,741.7	66.4203	1,741.7	63.7872	1,741.7	61.4507	1,741.7	60.9879
1,803.22	82.9894	1,803.22	81.2684	1,803.22	83.0724	1,803.22	77.7729	1,803.22	81.5128	1,803.22	74.5497	1,803.22	78.147	1,803.22	73.7923	1,803.22	73.4574	1,803.22	73.1936	1,803.22	70.4618	1,803.22	71.9779	1,803.22	70.7134	1,803.22	71.2858	1,803.22	72.1193	1,803.22	70.1774	1,803.22	70.7976	1,803.22	68.4109	1,803.22	67.0855	1,803.22	68.8251	1,803.22	65.3279	1,803.22	67.5984	1,803.22	62.2933	1,803.22	66.7324	1,803.22	61.0559	1,803.22	67.3439	1,803.22	62.017	1,803.22	66.7574	1,803.22	62.5868	1,803.22	66.9605	1,803.22	58.9335	1,803.22	65.1479	1,803.22	67.4071	1,803.22	61.5022	1,803.22	65.4714	1,803.22	59.7355
1,866.21	82.4601	1,866.21	80.9371	1,866.21	82.8161	1,866.21	77.4293	1,866.21	81.5695	1,866.21	72.4815	1,866.21	77.4693	1,866.21	71.4489	1,866.21	68.8896	1,866.21	72.9648	1,866.21	65.1658	1,866.21	72.1444	1,866.21	70.7064	1,866.21	70.9164	1,866.21	72.2508	1,866.21	71.1377	1,866.21	71.2923	1,866.21	70.1759	1,866.21	69.5283	1,866.21	69.713	1,866.21	66.7712	1,866.21	68.7829	1,866.21	62.3194	1,866.21	67.1215	1,866.21	58.9437	1,866.21	68.1781	1,866.21	59.1733	1,866.21	67.5021	1,866.21	61.1674	1,866.21	66.7456	1,866.21	60.5477	1,866.21	65.594	1,866.21	67.4595	1,866.21	60.2173	1,866.21	66.337	1,866.21	60.8212
1,932.13	81.8927	1,932.13	79.5963	1,932.13	82.2535	1,932.13	75.8454	1,932.13	81.0217	1,932.13	71.5786	1,932.13	76.7278	1,932.13	70.5019	1,932.13	65.9599	1,932.13	71.79	1,932.13	68.7231	1,932.13	71.7463	1,932.13	72.6404	1,932.13	72.0014	1,932.13	73.1295	1,932.13	71.6925	1,932.13	71.6833	1,932.13	70.4428	1,932.13	70.0313	1,932.13	68.8984	1,932.13	67.0947	1,932.13	69.8772	1,932.13	65.2561	1,932.13	68.6504	1,932.13	62.8747	1,932.13	67.9498	1,932.13	59.2257	1,932.13	67.9421	1,932.13	59.885	1,932.13	66.3424	1,932.13	56.6314	1,932.13	64.9821	1,932.13	68.1242	1,932.13	56.6841	1,932.13	66.54	1,932.13	57.8079
1,999.51	82.135	1,999.51	78.9478	1,999.51	82.5822	1,999.51	74.7466	1,999.51	80.2891	1,999.51	69.232	1,999.51	75.3989	1,999.51	67.6546	1,999.51	59.5756	1,999.51	70.5184	1,999.51	72.7387	1,999.51	72.174	1,999.51	74.5245	1,999.51	71.7348	1,999.51	74.2708	1,999.51	71.2838	1,999.51	71.4174	1,999.51	70.6502	1,999.51	69.0371	1,999.51	68.6599	1,999.51	69.4641	1,999.51	69.3753	1,999.51	69.4372	1,999.51	68.4873	1,999.51	65.12	1,999.51	67.3901	1,999.51	61.3616	1,999.51	68.7556	1,999.51	58.842	1,999.51	66.8428	1,999.51	56.1486	1,999.51	65.551	1,999.51	67.2894	1,999.51	57.1078	1,999.51	64.308	1,999.51	56.9939
2,069.82	82.3382	2,069.82	79.7638	2,069.82	82.9859	2,069.82	73.3245	2,069.82	80.314	2,069.82	60.4712	2,069.82	73.1204	2,069.82	66.3376	2,069.82	61.0013	2,069.82	71.7466	2,069.82	74.8082	2,069.82	73.9563	2,069.82	76.6438	2,069.82	73.9573	2,069.82	76.0183	2,069.82	73.8791	2,069.82	72.8547	2,069.82	74.0532	2,069.82	67.163	2,069.82	71.4812	2,069.82	68.6672	2,069.82	68.5605	2,069.82	68.3901	2,069.82	70.1917	2,069.82	65.6241	2,069.82	68.1463	2,069.82	58.91	2,069.82	68.3441	2,069.82	55.1974	2,069.82	67.9401	2,069.82	49.5958	2,069.82	65.4478	2,069.82	67.2652	2,069.82	50.7928	2,069.82	66.6803	2,069.82	62.7657
2,143.07	81.8409	2,143.07	79.67	2,143.07	82.3784	2,143.07	72.4185	2,143.07	80.7277	2,143.07	58.9566	2,143.07	71.9359	2,143.07	69.581	2,143.07	69.2952	2,143.07	73.056	2,143.07	76.2289	2,143.07	74.6712	2,143.07	77.98	2,143.07	74.8112	2,143.07	76.8265	2,143.07	72.6557	2,143.07	74.3286	2,143.07	70.8191	2,143.07	70.6823	2,143.07	71.0321	2,143.07	68.9884	2,143.07	70.8642	2,143.07	66.9641	2,143.07	69.3359	2,143.07	67.3305	2,143.07	69.3715	2,143.07	61.6906	2,143.07	69.8411	2,143.07	55.1399	2,143.07	68.0712	2,143.07	56.9097	2,143.07	65.9645	2,143.07	67.9371	2,143.07	57.7296	2,143.07	65.8353	2,143.07	60.0795
2,219.24	81.7504	2,219.24	78.7874	2,219.24	81.8623	2,219.24	71.6022	2,219.24	80.0565	2,219.24	65.6506	2,219.24	72.5009	2,219.24	72.0436	2,219.24	72.8349	2,219.24	75.6703	2,219.24	78.061	2,219.24	75.5118	2,219.24	78.7194	2,219.24	75.3933	2,219.24	76.7067	2,219.24	74.7628	2,219.24	73.8619	2,219.24	73.1019	2,219.24	70.9467	2,219.24	72.1856	2,219.24	68.3913	2,219.24	71.5953	2,219.24	66.5271	2,219.24	70.5743	2,219.24	66.6019	2,219.24	69.195	2,219.24	64.0415	2,219.24	69.9844	2,219.24	58.8351	2,219.24	68.8761	2,219.24	58.8444	2,219.24	65.6317	2,219.24	67.8411	2,219.24	56.4049	2,219.24	66.2623	2,219.24	63.0778
2,296.88	82.6254	2,296.88	78.9242	2,296.88	82.6114	2,296.88	73.8524	2,296.88	79.6663	2,296.88	68.3738	2,296.88	72.5925	2,296.88	75.09	2,296.88	74.7367	2,296.88	75.8214	2,296.88	78.7542	2,296.88	77.0403	2,296.88	79.043	2,296.88	76.1867	2,296.88	77.5153	2,296.88	74.9395	2,296.88	74.8372	2,296.88	74.6041	2,296.88	72.4339	2,296.88	72.148	2,296.88	70.8156	2,296.88	70.2108	2,296.88	67.6769	2,296.88	70.4439	2,296.88	67.7057	2,296.88	68.6295	2,296.88	62.8151	2,296.88	69.6157	2,296.88	61.2302	2,296.88	69.5242	2,296.88	61.9711	2,296.88	66.8957	2,296.88	67.461	2,296.88	56.4728	2,296.88	67.7435	2,296.88	65.5044
2,378.91	82.2792	2,378.91	79.8488	2,378.91	82.9514	2,378.91	74.5436	2,378.91	80.5396	2,378.91	73.6459	2,378.91	73.5928	2,378.91	74.3792	2,378.91	76.7754	2,378.91	77.5724	2,378.91	80.5717	2,378.91	77.7604	2,378.91	79.9137	2,378.91	76.348	2,378.91	78.2985	2,378.91	75.9343	2,378.91	75.7532	2,378.91	74.2684	2,378.91	72.6979	2,378.91	72.0371	2,378.91	72.7311	2,378.91	70.5239	2,378.91	70.7481	2,378.91	70.8819	2,378.91	69.8372	2,378.91	68.5678	2,378.91	67.6949	2,378.91	69.9578	2,378.91	59.9481	2,378.91	69.8591	2,378.91	63.34	2,378.91	66.3848	2,378.91	67.3269	2,378.91	60.7099	2,378.91	68.526	2,378.91	61.6943
2,462.4	81.1724	2,462.4	78.634	2,462.4	81.3336	2,462.4	75.9999	2,462.4	79.9744	2,462.4	74.4866	2,462.4	75.9427	2,462.4	77.0803	2,462.4	77.3563	2,462.4	78.4741	2,462.4	81.4641	2,462.4	77.4461	2,462.4	80.9203	2,462.4	76.9881	2,462.4	78.2326	2,462.4	73.7523	2,462.4	73.4002	2,462.4	70.9122	2,462.4	67.5698	2,462.4	71.674	2,462.4	71.3072	2,462.4	70.7438	2,462.4	72.7313	2,462.4	69.8592	2,462.4	67.31	2,462.4	69.6416	2,462.4	67.5024	2,462.4	68.1876	2,462.4	59.7085	2,462.4	69.3711	2,462.4	64.7918	2,462.4	66.5834	2,462.4	68.1839	2,462.4	58.3696	2,462.4	67.298	2,462.4	62.9876
2,548.83	81.9294	2,548.83	79.388	2,548.83	81.9679	2,548.83	77.2331	2,548.83	79.21	2,548.83	76.0683	2,548.83	76.9074	2,548.83	79.0219	2,548.83	78.1618	2,548.83	78.5315	2,548.83	81.2418	2,548.83	77.4282	2,548.83	81.2952	2,548.83	76.6159	2,548.83	79.0612	2,548.83	75.3502	2,548.83	75.087	2,548.83	73.8063	2,548.83	70.6197	2,548.83	71.7475	2,548.83	72.2723	2,548.83	69.8543	2,548.83	72.5274	2,548.83	69.919	2,548.83	68.5377	2,548.83	69.2974	2,548.83	66.0834	2,548.83	68.6553	2,548.83	64.0076	2,548.83	69.946	2,548.83	65.6689	2,548.83	66.3881	2,548.83	67.5387	2,548.83	62.1858	2,548.83	67.3029	2,548.83	60.9953
2,639.65	81.9534	2,639.65	80.8041	2,639.65	82.536	2,639.65	78.2571	2,639.65	80.2712	2,639.65	77.6919	2,639.65	76.4734	2,639.65	79.1635	2,639.65	78.588	2,639.65	78.8479	2,639.65	81.2514	2,639.65	77.8809	2,639.65	81.255	2,639.65	75.2692	2,639.65	79.0589	2,639.65	75.3693	2,639.65	74.8468	2,639.65	74.6004	2,639.65	70.1293	2,639.65	73.0864	2,639.65	72.5376	2,639.65	70.9818	2,639.65	68.1089	2,639.65	70.1626	2,639.65	66.2396	2,639.65	69.8943	2,639.65	64.6482	2,639.65	69.1786	2,639.65	62.8143	2,639.65	69.2993	2,639.65	63.524	2,639.65	66.7718	2,639.65	68.5398	2,639.65	59.6401	2,639.65	68.8538	2,639.65	62.6769
2,731.93	81.2155	2,731.93	80.6571	2,731.93	81.778	2,731.93	78.7406	2,731.93	80.983	2,731.93	79.5995	2,731.93	78.3424	2,731.93	79.8333	2,731.93	78.5406	2,731.93	79.1586	2,731.93	81.2591	2,731.93	77.3697	2,731.93	81.076	2,731.93	76.4059	2,731.93	78.2448	2,731.93	74.774	2,731.93	75.256	2,731.93	74.3746	2,731.93	71.0875	2,731.93	73.9807	2,731.93	70.983	2,731.93	72.5288	2,731.93	70.4181	2,731.93	70.0923	2,731.93	67.375	2,731.93	69.9139	2,731.93	68.7984	2,731.93	69.6451	2,731.93	63.1194	2,731.93	70.2772	2,731.93	64.0946	2,731.93	67.5184	2,731.93	69.9197	2,731.93	60.553	2,731.93	68.9893	2,731.93	60.34
2,828.61	81.6534	2,828.61	80.9256	2,828.61	80.9057	2,828.61	79.1155	2,828.61	80.3992	2,828.61	80.025	2,828.61	79.9628	2,828.61	80.2962	2,828.61	79.02	2,828.61	78.4859	2,828.61	81.7539	2,828.61	76.8778	2,828.61	81.2408	2,828.61	77.1908	2,828.61	78.0676	2,828.61	75.3214	2,828.61	76.3545	2,828.61	74.6192	2,828.61	73.9786	2,828.61	72.7976	2,828.61	66.2012	2,828.61	72.0154	2,828.61	64.1175	2,828.61	71.993	2,828.61	69.0903	2,828.61	70.3126	2,828.61	63.8451	2,828.61	69.4377	2,828.61	61.8005	2,828.61	70.3888	2,828.61	66.6012	2,828.61	68.7623	2,828.61	69.9887	2,828.61	60.7844	2,828.61	68.1398	2,828.61	58.0106
2,928.22	82.4021	2,928.22	81.8663	2,928.22	81.634	2,928.22	80.1403	2,928.22	79.7254	2,928.22	80.4688	2,928.22	80.7911	2,928.22	80.241	2,928.22	80.3568	2,928.22	78.4425	2,928.22	82.071	2,928.22	78.4585	2,928.22	81.9085	2,928.22	76.8196	2,928.22	77.9549	2,928.22	76.3978	2,928.22	75.9274	2,928.22	74.7059	2,928.22	70.4174	2,928.22	74.333	2,928.22	66.5015	2,928.22	73.2394	2,928.22	69.7926	2,928.22	72.2319	2,928.22	68.0997	2,928.22	72.0235	2,928.22	68.2422	2,928.22	70.8089	2,928.22	59.2284	2,928.22	70.3448	2,928.22	65.6927	2,928.22	67.7296	2,928.22	69.8993	2,928.22	61.2805	2,928.22	68.446	2,928.22	60.8026
3,030.76	82.2475	3,030.76	81.7348	3,030.76	81.8605	3,030.76	80.8017	3,030.76	79.9909	3,030.76	81.6734	3,030.76	79.7554	3,030.76	79.7031	3,030.76	80.5337	3,030.76	79.8988	3,030.76	81.4752	3,030.76	79.1704	3,030.76	82.4268	3,030.76	78.5057	3,030.76	79.3678	3,030.76	76.6715	3,030.76	76.8494	3,030.76	75.2414	3,030.76	69.9467	3,030.76	73.8476	3,030.76	67.4023	3,030.76	72.9731	3,030.76	72.0986	3,030.76	72.3273	3,030.76	72.5697	3,030.76	70.9408	3,030.76	66.8979	3,030.76	71.3309	3,030.76	63.2474	3,030.76	71.5749	3,030.76	67.6762	3,030.76	69.2289	3,030.76	70.6573	3,030.76	60.1884	3,030.76	68.1523	3,030.76	60.8858
3,137.7	82.2424	3,137.7	81.3376	3,137.7	81.5177	3,137.7	81.2708	3,137.7	80.7294	3,137.7	81.6291	3,137.7	79.1584	3,137.7	80.9603	3,137.7	80.1957	3,137.7	80.5522	3,137.7	81.5976	3,137.7	79.8508	3,137.7	82.3429	3,137.7	79.0176	3,137.7	80.8613	3,137.7	76.5818	3,137.7	78.4128	3,137.7	75.3743	3,137.7	73.6194	3,137.7	74.5593	3,137.7	70.5211	3,137.7	72.2564	3,137.7	72.5627	3,137.7	72.6245	3,137.7	72.8009	3,137.7	72.0664	3,137.7	69.2026	3,137.7	70.849	3,137.7	64.3364	3,137.7	72.5046	3,137.7	66.729	3,137.7	70.9234	3,137.7	70.7404	3,137.7	60.7899	3,137.7	68.4598	3,137.7	61.914
3,249.02	82.6426	3,249.02	81.7679	3,249.02	81.7437	3,249.02	82.1171	3,249.02	80.8111	3,249.02	81.4874	3,249.02	79.3244	3,249.02	82.1716	3,249.02	79.5735	3,249.02	81.1243	3,249.02	81.4069	3,249.02	80.2585	3,249.02	82.6242	3,249.02	78.3141	3,249.02	81.7823	3,249.02	78.1929	3,249.02	79.6138	3,249.02	76.7478	3,249.02	74.8073	3,249.02	75.1516	3,249.02	73.8328	3,249.02	73.5979	3,249.02	73.418	3,249.02	71.5991	3,249.02	70.0034	3,249.02	71.4476	3,249.02	68.2223	3,249.02	70.2314	3,249.02	66.0063	3,249.02	70.9577	3,249.02	66.898	3,249.02	70.4777	3,249.02	70.5634	3,249.02	64.7172	3,249.02	68.5102	3,249.02	54.9435
3,363.28	82.4622	3,363.28	82.1049	3,363.28	81.2029	3,363.28	83.0877	3,363.28	82.1116	3,363.28	81.9924	3,363.28	79.5108	3,363.28	82.5555	3,363.28	78.8023	3,363.28	81.9031	3,363.28	81.1669	3,363.28	79.652	3,363.28	83.5396	3,363.28	78.9526	3,363.28	82.4998	3,363.28	76.8253	3,363.28	78.6183	3,363.28	75.3297	3,363.28	74.9145	3,363.28	73.3069	3,363.28	76.0638	3,363.28	72.3346	3,363.28	72.5626	3,363.28	71.369	3,363.28	66.7406	3,363.28	71.9237	3,363.28	68.8818	3,363.28	70.1203	3,363.28	66.3197	3,363.28	71.7391	3,363.28	66.7303	3,363.28	70.4158	3,363.28	70.3884	3,363.28	65.0304	3,363.28	69.2919	3,363.28	57.0386
3,481.93	82.5404	3,481.93	82.3942	3,481.93	81.1964	3,481.93	82.9093	3,481.93	82.1645	3,481.93	83.0343	3,481.93	81.7918	3,481.93	82.7553	3,481.93	77.65	3,481.93	81.432	3,481.93	80.6191	3,481.93	80.4725	3,481.93	83.8137	3,481.93	78.2833	3,481.93	83.437	3,481.93	76.3941	3,481.93	78.9621	3,481.93	76.8344	3,481.93	75.4128	3,481.93	75.0227	3,481.93	69.7584	3,481.93	72.573	3,481.93	69.1916	3,481.93	71.3656	3,481.93	68.991	3,481.93	71.2125	3,481.93	67.6992	3,481.93	70.3607	3,481.93	65.4679	3,481.93	71.2641	3,481.93	66.9361	3,481.93	70.7444	3,481.93	70.6863	3,481.93	64.4743	3,481.93	69.0487	3,481.93	55.0754
3,604.98	82.4566	3,604.98	83.5753	3,604.98	82.0083	3,604.98	83.0091	3,604.98	81.2871	3,604.98	83.238	3,604.98	83.0536	3,604.98	83.4087	3,604.98	78.7883	3,604.98	81.0865	3,604.98	80.3349	3,604.98	79.2238	3,604.98	83.6513	3,604.98	77.537	3,604.98	83.6821	3,604.98	77.6304	3,604.98	78.8423	3,604.98	73.7013	3,604.98	75.3473	3,604.98	74.68	3,604.98	60.8324	3,604.98	73.203	3,604.98	70.1373	3,604.98	71.7438	3,604.98	71.8912	3,604.98	70.0267	3,604.98	66.5744	3,604.98	70.3084	3,604.98	65.3283	3,604.98	69.8195	3,604.98	66.163	3,604.98	71.3371	3,604.98	70.3689	3,604.98	64.4728	3,604.98	68.4566	3,604.98	58.3418
3,732.42	83.2756	3,732.42	84.2714	3,732.42	82.3777	3,732.42	83.3692	3,732.42	81.1272	3,732.42	84.2416	3,732.42	82.8952	3,732.42	82.7009	3,732.42	80.8407	3,732.42	81.8269	3,732.42	79.79	3,732.42	79.5311	3,732.42	83.9062	3,732.42	79.6051	3,732.42	83.542	3,732.42	75.2902	3,732.42	78.9238	3,732.42	76.7143	3,732.42	72.9391	3,732.42	74.1736	3,732.42	70.9399	3,732.42	74.0332	3,732.42	73.1329	3,732.42	72.3182	3,732.42	71.9889	3,732.42	71.8506	3,732.42	68.8064	3,732.42	70.6131	3,732.42	63.7118	3,732.42	71.0806	3,732.42	63.5116	3,732.42	71.025	3,732.42	70.6496	3,732.42	67.2623	3,732.42	68.255	3,732.42	55.3173
3,864.26	83.5443	3,864.26	84.6426	3,864.26	82.951	3,864.26	83.6167	3,864.26	81.8399	3,864.26	84.3299	3,864.26	83.056	3,864.26	83.2612	3,864.26	81.1455	3,864.26	80.6311	3,864.26	79.6559	3,864.26	80.9524	3,864.26	83.9644	3,864.26	77.8087	3,864.26	83.7095	3,864.26	79.5398	3,864.26	77.0169	3,864.26	73.5077	3,864.26	74.4181	3,864.26	75.8072	3,864.26	62.6432	3,864.26	71.9372	3,864.26	69.7323	3,864.26	72.1331	3,864.26	70.2924	3,864.26	71.4626	3,864.26	69.3526	3,864.26	71.3882	3,864.26	64.5359	3,864.26	70.4077	3,864.26	64.8277	3,864.26	72.1653	3,864.26	69.5921	3,864.26	66.8031	3,864.26	70.1141	3,864.26	55.6712
4,000.49	85.0481	4,000.49	84.2779	4,000.49	82.7941	4,000.49	84.4901	4,000.49	83.1459	4,000.49	84.7041	4,000.49	82.9055	4,000.49	83.0994	4,000.49	81.2903	4,000.49	82.1553	4,000.49	78.8492	4,000.49	79.5743	4,000.49	84.0163	4,000.49	80.5541	4,000.49	81.2402	4,000.49	73.6923	4,000.49	73.187	4,000.49	75.7353	4,000.49	74.0707	4,000.49	72.9038	4,000.49	70.786	4,000.49	73.4991	4,000.49	66.8121	4,000.49	70.5984	4,000.49	65.7871	4,000.49	70.5462	4,000.49	65.112	4,000.49	70.2203	4,000.49	66.442	4,000.49	70.4745	4,000.49	64.7552	4,000.49	72.264	4,000.49	69.8395	4,000.49	68.0968	4,000.49	68.3808	4,000.49	57.1282
4,141.11	84.9286	4,141.11	84.4125	4,141.11	83.2387	4,141.11	84.8656	4,141.11	82.4841	4,141.11	84.9807	4,141.11	83.8459	4,141.11	83.3811	4,141.11	82.1524	4,141.11	81.1832	4,141.11	78.2845	4,141.11	81.8552	4,141.11	83.2077	4,141.11	77.3294	4,141.11	78.7084	4,141.11	79.0748	4,141.11	78.8418	4,141.11	74.2279	4,141.11	74.7219	4,141.11	73.9042	4,141.11	73.144	4,141.11	71.4556	4,141.11	73.4371	4,141.11	71.3719	4,141.11	64.8606	4,141.11	69.3614	4,141.11	64.9848	4,141.11	69.7956	4,141.11	65.3262	4,141.11	71.3454	4,141.11	63.7533	4,141.11	72.5137	4,141.11	69.6151	4,141.11	69.0432	4,141.11	67.1845	4,141.11	56.1728
4,287.6	85.9463	4,287.6	84.5434	4,287.6	84.3437	4,287.6	85.9265	4,287.6	83.3515	4,287.6	85.1085	4,287.6	84.7342	4,287.6	83.429	4,287.6	83.1304	4,287.6	82.8095	4,287.6	77.6512	4,287.6	79.5452	4,287.6	79.5047	4,287.6	79.7331	4,287.6	80.6119	4,287.6	73.5789	4,287.6	82.4034	4,287.6	76.8089	4,287.6	77.4377	4,287.6	74.1358	4,287.6	75.2758	4,287.6	72.2676	4,287.6	73.9108	4,287.6	70.6617	4,287.6	63.5191	4,287.6	69.458	4,287.6	67.8099	4,287.6	70.1054	4,287.6	67.7259	4,287.6	70.2789	4,287.6	61.3818	4,287.6	73.1506	4,287.6	69.7587	4,287.6	69.742	4,287.6	65.1976	4,287.6	63.1697
4,438.48	85.214	4,438.48	85.3647	4,438.48	84.7396	4,438.48	85.7719	4,438.48	83.5977	4,438.48	84.758	4,438.48	84.1485	4,438.48	83.726	4,438.48	83.2466	4,438.48	82.1324	4,438.48	77.8069	4,438.48	81.0783	4,438.48	80.9223	4,438.48	77.8885	4,438.48	83.4671	4,438.48	79.2633	4,438.48	83.507	4,438.48	70.3989	4,438.48	77.2876	4,438.48	74.1905	4,438.48	73.8001	4,438.48	71.0162	4,438.48	69.6108	4,438.48	72.0246	4,438.48	56.7693	4,438.48	69.5955	4,438.48	70.2078	4,438.48	68.714	4,438.48	66.7758	4,438.48	71.2565	4,438.48	61.7245	4,438.48	72.5723	4,438.48	70.4614	4,438.48	70.4738	4,438.48	66.8551	4,438.48	64.2151
4,595.21	86.0869	4,595.21	85.5099	4,595.21	84.8463	4,595.21	86.177	4,595.21	83.6454	4,595.21	84.8442	4,595.21	84.0755	4,595.21	84.2441	4,595.21	83.9218	4,595.21	82.4026	4,595.21	79.7782	4,595.21	80.3172	4,595.21	81.6301	4,595.21	79.5248	4,595.21	86.1558	4,595.21	75.7681	4,595.21	81.7726	4,595.21	77.3104	4,595.21	77.1468	4,595.21	73.452	4,595.21	65.9956	4,595.21	72.3414	4,595.21	67.9485	4,595.21	70.046	4,595.21	66.5533	4,595.21	70.0598	4,595.21	66.7766	4,595.21	70.456	4,595.21	62.674	4,595.21	69.1017	4,595.21	62.5522	4,595.21	73.262	4,595.21	66.6646	4,595.21	71.1786	4,595.21	64.441	4,595.21	61.8371
4,756.35	85.5542	4,756.35	85.8923	4,756.35	85.7763	4,756.35	85.3851	4,756.35	83.8207	4,756.35	85.0146	4,756.35	84.7272	4,756.35	84.2713	4,756.35	84.6564	4,756.35	81.5274	4,756.35	80.742	4,756.35	80.8047	4,756.35	82.3516	4,756.35	78.1543	4,756.35	86.6148	4,756.35	76.3166	4,756.35	79.3673	4,756.35	72.6136	4,756.35	75.4418	4,756.35	73.4589	4,756.35	70.7132	4,756.35	71.3642	4,756.35	65.9471	4,756.35	70.2334	4,756.35	63.469	4,756.35	68.9819	4,756.35	64.1023	4,756.35	69.6421	4,756.35	64.8484	4,756.35	69.6215	4,756.35	64.9761	4,756.35	73.2191	4,756.35	66.4518	4,756.35	71.4078	4,756.35	64.5897	4,756.35	64.1834
4,924.8	85.4973	4,924.8	86.126	4,924.8	85.6826	4,924.8	85.567	4,924.8	83.5878	4,924.8	85.7741	4,924.8	84.1271	4,924.8	83.7051	4,924.8	84.6091	4,924.8	82.2344	4,924.8	81.0214	4,924.8	80.2665	4,924.8	82.6447	4,924.8	77.9713	4,924.8	84.8232	4,924.8	77.2685	4,924.8	79.1958	4,924.8	75.0634	4,924.8	72.0877	4,924.8	72.3617	4,924.8	70.2074	4,924.8	72.4808	4,924.8	70.0569	4,924.8	69.6948	4,924.8	60.2032	4,924.8	69.8754	4,924.8	36.1454	4,924.8	69.7929	4,924.8	69.2948	4,924.8	68.9835	4,924.8	60.1756	4,924.8	72.7759	4,924.8	68.2085	4,924.8	70.5697	4,924.8	60.1771	4,924.8	64.7647
5,097.66	85.6273	5,097.66	85.7848	5,097.66	85.5067	5,097.66	85.6171	5,097.66	84.3017	5,097.66	85.8643	5,097.66	83.9476	5,097.66	83.3645	5,097.66	85.1436	5,097.66	82.04	5,097.66	82.5628	5,097.66	80.7991	5,097.66	82.2333	5,097.66	79.6362	5,097.66	80.5224	5,097.66	76.2762	5,097.66	78.1103	5,097.66	76.0011	5,097.66	71.6224	5,097.66	73.1239	5,097.66	70.2202	5,097.66	71.8688	5,097.66	69.6038	5,097.66	69.4967	5,097.66	58.8269	5,097.66	68.7461	5,097.66	63.9058	5,097.66	69.8756	5,097.66	67.5619	5,097.66	70.264	5,097.66	60.1036	5,097.66	73.7324	5,097.66	66.7658	5,097.66	72.3169	5,097.66	57.8507	5,097.66	64.6069
5,277.83	84.9472	5,277.83	85.7857	5,277.83	85.0638	5,277.83	86.0135	5,277.83	84.6971	5,277.83	85.3984	5,277.83	83.5611	5,277.83	83.8812	5,277.83	84.8037	5,277.83	81.7249	5,277.83	80.5112	5,277.83	81.6419	5,277.83	80.5248	5,277.83	79.6137	5,277.83	79.0567	5,277.83	77.7883	5,277.83	79.3441	5,277.83	74.0986	5,277.83	75.2264	5,277.83	73.1584	5,277.83	67.1719	5,277.83	72.2876	5,277.83	66.5061	5,277.83	69.9523	5,277.83	51.4485	5,277.83	69.2142	5,277.83	66.1214	5,277.83	69.8149	5,277.83	68.2687	5,277.83	69.7967	5,277.83	58.698	5,277.83	73.0866	5,277.83	63.5538	5,277.83	71.1049	5,277.83	58.1216	5,277.83	65.3339
5,463.87	85.8505	5,463.87	85.3401	5,463.87	84.5591	5,463.87	86.1312	5,463.87	84.5125	5,463.87	84.9017	5,463.87	83.3832	5,463.87	83.6335	5,463.87	84.7788	5,463.87	82.4284	5,463.87	81.3715	5,463.87	81.3167	5,463.87	75.9076	5,463.87	79.5764	5,463.87	80.3674	5,463.87	76.5621	5,463.87	78.1558	5,463.87	75.3103	5,463.87	73.1589	5,463.87	71.4261	5,463.87	66.8488	5,463.87	70.711	5,463.87	67.2577	5,463.87	68.6932	5,463.87	62.3224	5,463.87	66.8865	5,463.87	64.9679	5,463.87	66.4258	5,463.87	62.7894	5,463.87	68.5799	5,463.87	60.7099	5,463.87	72.3628	5,463.87	66.3643	5,463.87	71.4512	5,463.87	53.8655	5,463.87	65.8092
5,657.23	85.3407	5,657.23	85.0519	5,657.23	83.9533	5,657.23	86.0136	5,657.23	85.0276	5,657.23	84.5496	5,657.23	82.271	5,657.23	83.1909	5,657.23	84.8038	5,657.23	82.7573	5,657.23	82.6971	5,657.23	81.2934	5,657.23	78.0769	5,657.23	79.259	5,657.23	81.017	5,657.23	76.2201	5,657.23	79.671	5,657.23	74.5492	5,657.23	75.086	5,657.23	72.1782	5,657.23	68.0865	5,657.23	71.1862	5,657.23	67.1634	5,657.23	68.2478	5,657.23	61.6018	5,657.23	66.6688	5,657.23	58.0534	5,657.23	67.2191	5,657.23	63.4353	5,657.23	67.7966	5,657.23	55.8311	5,657.23	71.8315	5,657.23	61.6994	5,657.23	71.7184	5,657.23	60.1375	5,657.23	65.0534
5,856.45	85.0563	5,856.45	85.1992	5,856.45	83.8172	5,856.45	85.5632	5,856.45	84.2741	5,856.45	84.5482	5,856.45	82.3865	5,856.45	83.6799	5,856.45	84.6551	5,856.45	82.5358	5,856.45	82.1827	5,856.45	80.7332	5,856.45	77.0818	5,856.45	78.5093	5,856.45	81.5997	5,856.45	76.3961	5,856.45	79.098	5,856.45	73.0254	5,856.45	74.8677	5,856.45	69.9306	5,856.45	65.1116	5,856.45	70.1242	5,856.45	63.0608	5,856.45	66.9601	5,856.45	58.2703	5,856.45	66.638	5,856.45	58.0614	5,856.45	62.0559	5,856.45	62.1316	5,856.45	67.7601	5,856.45	51.5332	5,856.45	70.8411	5,856.45	62.5391	5,856.45	70.7739	5,856.45	53.6723	5,856.45	64.8403
6,062.99	84.3741	6,062.99	85.0138	6,062.99	83.7099	6,062.99	84.5801	6,062.99	84.4388	6,062.99	84.5931	6,062.99	82.8167	6,062.99	83.9349	6,062.99	83.2996	6,062.99	81.6278	6,062.99	82.4671	6,062.99	81.1015	6,062.99	77.0142	6,062.99	77.7933	6,062.99	81.8504	6,062.99	75.7145	6,062.99	79.1561	6,062.99	73.9958	6,062.99	75.486	6,062.99	69.7444	6,062.99	68.8556	6,062.99	69.8442	6,062.99	63.0484	6,062.99	67.352	6,062.99	63.4862	6,062.99	69.6256	6,062.99	56.4588	6,062.99	61.2911	6,062.99	63.798	6,062.99	66.5796	6,062.99	54.689	6,062.99	70.6681	6,062.99	64.0962	6,062.99	70.4958	6,062.99	57.4664	6,062.99	63.2378
6,276.86	84.8237	6,276.86	84.5142	6,276.86	83.2732	6,276.86	84.4945	6,276.86	84.2921	6,276.86	84.9673	6,276.86	83.8475	6,276.86	83.4765	6,276.86	83.3326	6,276.86	81.9883	6,276.86	83.4841	6,276.86	80.4402	6,276.86	77.1847	6,276.86	78.7591	6,276.86	82.1381	6,276.86	75.9529	6,276.86	79.4717	6,276.86	74.7264	6,276.86	75.0022	6,276.86	69.7784	6,276.86	69.2064	6,276.86	69.7894	6,276.86	67.0627	6,276.86	65.9116	6,276.86	57.3865	6,276.86	67.9344	6,276.86	31.0548	6,276.86	63.9741	6,276.86	64.9749	6,276.86	64.0669	6,276.86	51.5137	6,276.86	70.6385	6,276.86	61.1948	6,276.86	69.591	6,276.86	54.1229	6,276.86	64.9582
6,498.05	84.0762	6,498.05	83.939	6,498.05	83.5213	6,498.05	83.9843	6,498.05	83.3022	6,498.05	84.7542	6,498.05	83.2191	6,498.05	82.9847	6,498.05	83.0737	6,498.05	81.5562	6,498.05	83.861	6,498.05	80.5703	6,498.05	77.72	6,498.05	78.5443	6,498.05	80.2618	6,498.05	75.0818	6,498.05	75.0334	6,498.05	73.3142	6,498.05	71.5289	6,498.05	68.6119	6,498.05	66.569	6,498.05	68.0461	6,498.05	64.3101	6,498.05	65.1284	6,498.05	58.852	6,498.05	66.0296	6,498.05	52.9332	6,498.05	62.7822	6,498.05	66.2975	6,498.05	63.6798	6,498.05	48.4287	6,498.05	68.8038	6,498.05	62.5694	6,498.05	67.6426	6,498.05	52.9348	6,498.05	63.6538
6,726.56	83.8242	6,726.56	83.6669	6,726.56	83.6369	6,726.56	83.8957	6,726.56	83.1192	6,726.56	83.9559	6,726.56	82.4716	6,726.56	83.0455	6,726.56	81.2025	6,726.56	81.0317	6,726.56	83.5969	6,726.56	80.225	6,726.56	78.4149	6,726.56	76.7632	6,726.56	79.4571	6,726.56	73.862	6,726.56	72.5167	6,726.56	72.8379	6,726.56	69.4495	6,726.56	69.7581	6,726.56	57.611	6,726.56	67.5055	6,726.56	66.8728	6,726.56	65.2986	6,726.56	55.566	6,726.56	66.0189	6,726.56	57.9872	6,726.56	63.8393	6,726.56	62.7305	6,726.56	62.9445	6,726.56	59.2145	6,726.56	66.7665	6,726.56	62.7727	6,726.56	66.8998	6,726.56	47.9001	6,726.56	65.0588
6,963.87	83.5522	6,963.87	83.6929	6,963.87	84.0468	6,963.87	83.8895	6,963.87	82.3784	6,963.87	83.9423	6,963.87	82.8932	6,963.87	82.5942	6,963.87	82.1759	6,963.87	81.2365	6,963.87	83.0134	6,963.87	78.3957	6,963.87	77.3196	6,963.87	77.3567	6,963.87	74.4716	6,963.87	74.6564	6,963.87	76.2786	6,963.87	72.1787	6,963.87	69.0507	6,963.87	68.793	6,963.87	62.3355	6,963.87	67.4666	6,963.87	67.9309	6,963.87	64.9277	6,963.87	54.2483	6,963.87	64.3635	6,963.87	57.9014	6,963.87	64.3781	6,963.87	61.2118	6,963.87	60.8911	6,963.87	57.3722	6,963.87	66.1662	6,963.87	56.6419	6,963.87	65.5788	6,963.87	42.9157	6,963.87	62.9387
7,209.96	83.7849	7,209.96	83.3595	7,209.96	84.256	7,209.96	83.6638	7,209.96	83.4865	7,209.96	83.9253	7,209.96	81.8655	7,209.96	82.3428	7,209.96	81.6081	7,209.96	80.5116	7,209.96	82.3314	7,209.96	78.7583	7,209.96	76.0519	7,209.96	76.1542	7,209.96	70.477	7,209.96	74.4273	7,209.96	78.997	7,209.96	71.4875	7,209.96	69.5105	7,209.96	68.7117	7,209.96	64.0999	7,209.96	65.9093	7,209.96	67.8094	7,209.96	64.4804	7,209.96	54.6004	7,209.96	63.7998	7,209.96	52.6042	7,209.96	62.4747	7,209.96	60.797	7,209.96	60.1413	7,209.96	57.3891	7,209.96	64.962	7,209.96	54.4928	7,209.96	65.7153	7,209.96	55.472	7,209.96	62.2959
7,464.84	83.9716	7,464.84	83.5928	7,464.84	84.4363	7,464.84	83.7598	7,464.84	83.5879	7,464.84	83.4295	7,464.84	82.2926	7,464.84	82.257	7,464.84	80.9109	7,464.84	79.8774	7,464.84	81.089	7,464.84	78.2566	7,464.84	77.2158	7,464.84	76.3353	7,464.84	76.6301	7,464.84	73.949	7,464.84	79.6069	7,464.84	71.1294	7,464.84	66.6879	7,464.84	68.4558	7,464.84	64.5191	7,464.84	65.4419	7,464.84	65.9923	7,464.84	63.8198	7,464.84	32.66	7,464.84	63.8405	7,464.84	50.9983	7,464.84	60.3861	7,464.84	59.8129	7,464.84	60.3391	7,464.84	54.7726	7,464.84	64.4593	7,464.84	51.4782	7,464.84	62.9143	7,464.84	54.912	7,464.84	61.5927
7,727.05	84.3772	7,727.05	84.0834	7,727.05	84.8962	7,727.05	83.6992	7,727.05	83.7456	7,727.05	83.5239	7,727.05	82.3231	7,727.05	81.9178	7,727.05	80.9888	7,727.05	79.5385	7,727.05	80.7449	7,727.05	78.6033	7,727.05	78.3104	7,727.05	75.3716	7,727.05	78.1383	7,727.05	73.8223	7,727.05	73.0836	7,727.05	71.5744	7,727.05	66.3387	7,727.05	69.0991	7,727.05	61.1351	7,727.05	66.3415	7,727.05	64.1768	7,727.05	64.4642	7,727.05	56.4971	7,727.05	64.5408	7,727.05	49.08	7,727.05	62.5495	7,727.05	55.3833	7,727.05	60.4344	7,727.05	57.3655	7,727.05	63.1051	7,727.05	56.133	7,727.05	63.0462	7,727.05	46.7912	7,727.05	61.7084
7,999.51	84.6303	7,999.51	84.2251	7,999.51	85.1429	7,999.51	83.3903	7,999.51	83.851	7,999.51	83.5219	7,999.51	82.335	7,999.51	80.9819	7,999.51	80.2392	7,999.51	80.1202	7,999.51	80.6398	7,999.51	78.135	7,999.51	77.9248	7,999.51	76.4772	7,999.51	70.551	7,999.51	74.4795	7,999.51	73.4825	7,999.51	70.6582	7,999.51	64.8483	7,999.51	68.066	7,999.51	62.3681	7,999.51	64.8565	7,999.51	64.7951	7,999.51	63.3775	7,999.51	59.2959	7,999.51	63.4038	7,999.51	56.1446	7,999.51	61.2704	7,999.51	51.5407	7,999.51	62.0507	7,999.51	53.5292	7,999.51	60.9066	7,999.51	46.218	7,999.51	60.9503	7,999.51	55.6541	7,999.51	59.6206
8,282.23	84.6446	8,282.23	84.4832	8,282.23	84.9769	8,282.23	83.6585	8,282.23	84.1027	8,282.23	83.3994	8,282.23	82.3025	8,282.23	80.9243	8,282.23	79.1476	8,282.23	79.7495	8,282.23	80.2563	8,282.23	78.562	8,282.23	76.0374	8,282.23	75.2122	8,282.23	70.1214	8,282.23	72.5768	8,282.23	76.2895	8,282.23	69.7053	8,282.23	67.5108	8,282.23	67.0171	8,282.23	63.9161	8,282.23	63.8849	8,282.23	63.9793	8,282.23	62.7198	8,282.23	53.8874	8,282.23	62.8507	8,282.23	57.1871	8,282.23	61.986	8,282.23	50.5063	8,282.23	61.9263	8,282.23	56.0563	8,282.23	56.2551	8,282.23	53.7107	8,282.23	58.1374	8,282.23	52.2972	8,282.23	57.9291
8,573.73	84.8287	8,573.73	84.7532	8,573.73	85.2061	8,573.73	84.0069	8,573.73	83.9226	8,573.73	82.804	8,573.73	82.5823	8,573.73	81.4459	8,573.73	78.0847	8,573.73	79.623	8,573.73	79.7469	8,573.73	77.7826	8,573.73	75.4713	8,573.73	75.386	8,573.73	75.3764	8,573.73	71.8478	8,573.73	75.8658	8,573.73	68.4947	8,573.73	66.7645	8,573.73	66.1374	8,573.73	62.2843	8,573.73	61.7361	8,573.73	63.109	8,573.73	61.473	8,573.73	49.0348	8,573.73	60.5966	8,573.73	59.2299	8,573.73	62.2896	8,573.73	59.4318	8,573.73	62.5326	8,573.73	53.665	8,573.73	54.6022	8,573.73	49.0654	8,573.73	53.1437	8,573.73	56.1124	8,573.73	55.1654
8,876.95	85.0144	8,876.95	84.8628	8,876.95	85.1238	8,876.95	84.1736	8,876.95	84.1446	8,876.95	83.0272	8,876.95	82.7201	8,876.95	81.1144	8,876.95	79.3939	8,876.95	79.7546	8,876.95	79.5035	8,876.95	77.0482	8,876.95	76.5263	8,876.95	72.9329	8,876.95	75.8007	8,876.95	71.3018	8,876.95	73.0993	8,876.95	67.1991	8,876.95	67.6144	8,876.95	65.4185	8,876.95	56.8213	8,876.95	59.8344	8,876.95	63.5891	8,876.95	60.0588	8,876.95	50.9615	8,876.95	59.1641	8,876.95	55.0534	8,876.95	60.9426	8,876.95	53.6087	8,876.95	62.9834	8,876.95	52.3711	8,876.95	51.9643	8,876.95	51.8037	8,876.95	57.5328	8,876.95	53.6177	8,876.95	56.0371
9,188.96	85.1365	9,188.96	85.2177	9,188.96	84.9795	9,188.96	84.343	9,188.96	84.3627	9,188.96	83.0196	9,188.96	82.3008	9,188.96	80.8734	9,188.96	79.9962	9,188.96	79.2773	9,188.96	78.9982	9,188.96	75.8108	9,188.96	75.8062	9,188.96	72.081	9,188.96	72.7018	9,188.96	68.2262	9,188.96	70.0971	9,188.96	63.9726	9,188.96	64.8295	9,188.96	62.7861	9,188.96	61.4433	9,188.96	57.7384	9,188.96	59.0985	9,188.96	58.4257	9,188.96	58.949	9,188.96	57.7138	9,188.96	54.547	9,188.96	59.4531	9,188.96	52.7174	9,188.96	61.739	9,188.96	54.2491	9,188.96	53.0948	9,188.96	49.2366	9,188.96	54.57	9,188.96	52.6613	9,188.96	50.159
9,514.16	85.4793	9,514.16	85.3888	9,514.16	85.2207	9,514.16	84.238	9,514.16	84.2268	9,514.16	82.9834	9,514.16	82.6258	9,514.16	81.2092	9,514.16	79.4803	9,514.16	78.3838	9,514.16	79.1914	9,514.16	75.918	9,514.16	75.9833	9,514.16	69.8594	9,514.16	70.8842	9,514.16	69.0725	9,514.16	69.7139	9,514.16	64.9542	9,514.16	65.614	9,514.16	62.6558	9,514.16	58.8396	9,514.16	57.5637	9,514.16	34.6528	9,514.16	56.9144	9,514.16	60.1539	9,514.16	53.0047	9,514.16	53.7026	9,514.16	60.2289	9,514.16	52.7084	9,514.16	61.1263	9,514.16	55.4363	9,514.16	53.5115	9,514.16	48.4413	9,514.16	54.9171	9,514.16	54.3387	9,514.16	46.2849
9,849.61	85.6613	9,849.61	85.8823	9,849.61	85.5139	9,849.61	84.1045	9,849.61	84.3471	9,849.61	83.2936	9,849.61	82.8965	9,849.61	80.7564	9,849.61	79.4186	9,849.61	78.451	9,849.61	78.9073	9,849.61	74.5017	9,849.61	74.7983	9,849.61	70.5947	9,849.61	71.4662	9,849.61	66.8136	9,849.61	68.191	9,849.61	63.1771	9,849.61	63.5351	9,849.61	61.4714	9,849.61	43.2311	9,849.61	58.5857	9,849.61	53.9884	9,849.61	55.2219	9,849.61	58.7433	9,849.61	52.371	9,849.61	54.1085	9,849.61	59.8134	9,849.61	52.0705	9,849.61	59.5022	9,849.61	51.9599	9,849.61	55.3233	9,849.61	47.1192	9,849.61	56.5598	9,849.61	52.6536	9,849.61	38.5733
10,196.8	86.112	10,196.8	85.9207	10,196.8	85.6547	10,196.8	84.2332	10,196.8	84.5133	10,196.8	83.3472	10,196.8	83.0374	10,196.8	80.6827	10,196.8	80.0394	10,196.8	77.6524	10,196.8	78.4995	10,196.8	74.6162	10,196.8	74.1196	10,196.8	70.2571	10,196.8	70.6064	10,196.8	68.4838	10,196.8	68.448	10,196.8	65.2076	10,196.8	65.1749	10,196.8	60.7312	10,196.8	59.1947	10,196.8	59.485	10,196.8	53.4377	10,196.8	54.9281	10,196.8	62.5032	10,196.8	53.4054	10,196.8	47.3452	10,196.8	59.114	10,196.8	51.1914	10,196.8	59.349	10,196.8	51.4288	10,196.8	55.2226	10,196.8	49.7983	10,196.8	57.0434	10,196.8	52.7542	10,196.8	46.7708
10,555.7	86.4346	10,555.7	86.0329	10,555.7	85.5806	10,555.7	84.6188	10,555.7	84.2991	10,555.7	83.3006	10,555.7	83.1927	10,555.7	80.4785	10,555.7	80.2244	10,555.7	77.5032	10,555.7	78.3595	10,555.7	74.683	10,555.7	73.6145	10,555.7	71.071	10,555.7	70.9038	10,555.7	68.6641	10,555.7	66.4815	10,555.7	64.5991	10,555.7	66.1828	10,555.7	60.5813	10,555.7	55.3715	10,555.7	58.9891	10,555.7	52.7509	10,555.7	53.3118	10,555.7	64.4304	10,555.7	53.2544	10,555.7	53.2161	10,555.7	58.0535	10,555.7	53.465	10,555.7	58.8729	10,555.7	47.4831	10,555.7	55.0261	10,555.7	46.4561	10,555.7	56.7916	10,555.7	50.2553	10,555.7	45.5203
10,927.7	86.5016	10,927.7	86.0675	10,927.7	85.8142	10,927.7	84.2838	10,927.7	84.4085	10,927.7	83.5332	10,927.7	83.0933	10,927.7	79.6769	10,927.7	79.9169	10,927.7	77.3969	10,927.7	77.1056	10,927.7	74.9029	10,927.7	72.3945	10,927.7	70.4985	10,927.7	71.6399	10,927.7	66.9204	10,927.7	66.0912	10,927.7	64.0443	10,927.7	58.9315	10,927.7	59.5882	10,927.7	43.9157	10,927.7	58.9329	10,927.7	59.0968	10,927.7	53.1039	10,927.7	65.5317	10,927.7	54.9214	10,927.7	55.2374	10,927.7	57.9404	10,927.7	55.8346	10,927.7	58.136	10,927.7	44.4432	10,927.7	53.5849	10,927.7	40.8716	10,927.7	56.9756	10,927.7	49.3149	10,927.7	48.131
11,313	86.7688	11,313	85.8954	11,313	85.8075	11,313	84.4313	11,313	84.4011	11,313	83.3011	11,313	82.8504	11,313	79.255	11,313	79.8962	11,313	77.3729	11,313	77.4134	11,313	74.9883	11,313	74.9872	11,313	70.2976	11,313	70.9149	11,313	65.7325	11,313	65.8112	11,313	63.9262	11,313	66.2415	11,313	57.6899	11,313	55.462	11,313	57.8742	11,313	59.5899	11,313	52.6997	11,313	65.5414	11,313	52.7209	11,313	55.5493	11,313	57.4847	11,313	52.7413	11,313	57.9249	11,313	49.3778	11,313	53.4979	11,313	45.8677	11,313	57.5625	11,313	45.7299	11,313	47.7974
11,712.9	86.5455	11,712.9	85.7561	11,712.9	85.8745	11,712.9	84.3079	11,712.9	84.2339	11,712.9	82.9914	11,712.9	82.4218	11,712.9	78.7029	11,712.9	80.125	11,712.9	77.936	11,712.9	77.6729	11,712.9	74.3415	11,712.9	75.0892	11,712.9	69.5195	11,712.9	70.7158	11,712.9	66.3239	11,712.9	67.8661	11,712.9	63.3798	11,712.9	64.5872	11,712.9	59.6413	11,712.9	50.2753	11,712.9	57.5694	11,712.9	54.7709	11,712.9	53.5878	11,712.9	64.5183	11,712.9	52.8332	11,712.9	54.5688	11,712.9	56.3209	11,712.9	36.717	11,712.9	58.2061	11,712.9	45.0479	11,712.9	52.9791	11,712.9	37.3512	11,712.9	56.7171	11,712.9	45.8255	11,712.9	48.6588
12,126	85.853	12,126	85.1966	12,126	85.3602	12,126	84.0936	12,126	84.0594	12,126	82.0019	12,126	82.1914	12,126	78.9988	12,126	79.6138	12,126	76.8031	12,126	76.7581	12,126	73.4137	12,126	73.8233	12,126	68.4118	12,126	73.4875	12,126	65.6619	12,126	62.1875	12,126	64.2103	12,126	62.2526	12,126	59.2737	12,126	56.2738	12,126	57.1819	12,126	53.6136	12,126	53.5449	12,126	64.2709	12,126	50.3921	12,126	58.0107	12,126	57.6166	12,126	55.5424	12,126	58.6688	12,126	43.4289	12,126	55.1835	12,126	47.4397	12,126	57.9901	12,126	49.4411	12,126	50.204
12,553.7	84.715	12,553.7	84.1294	12,553.7	84.249	12,553.7	83.1904	12,553.7	83.0358	12,553.7	81.1022	12,553.7	81.9589	12,553.7	78.3841	12,553.7	78.7973	12,553.7	76.4091	12,553.7	76.6915	12,553.7	71.9135	12,553.7	73.4485	12,553.7	69.6546	12,553.7	70.5378	12,553.7	66.2905	12,553.7	65.4884	12,553.7	64.6339	12,553.7	60.9013	12,553.7	59.668	12,553.7	58.2655	12,553.7	57.2623	12,553.7	51.8319	12,553.7	55.6719	12,553.7	66.337	12,553.7	51.7104	12,553.7	55.9768	12,553.7	58.2284	12,553.7	52.8815	12,553.7	58.9378	12,553.7	40.8559	12,553.7	54.3754	12,553.7	34.9835	12,553.7	57.2745	12,553.7	40.2895	12,553.7	46.923
12,996.1	83.2927	12,996.1	83.2388	12,996.1	83.3922	12,996.1	82.0023	12,996.1	82.3625	12,996.1	79.9591	12,996.1	81.3361	12,996.1	78.029	12,996.1	78.3782	12,996.1	75.1137	12,996.1	78.5194	12,996.1	72.9658	12,996.1	73.6038	12,996.1	70.5656	12,996.1	71.419	12,996.1	67.3231	12,996.1	66.4392	12,996.1	64.8788	12,996.1	63.2274	12,996.1	60.2789	12,996.1	49.9416	12,996.1	56.0699	12,996.1	56.7973	12,996.1	54.3367	12,996.1	67.2782	12,996.1	47.7012	12,996.1	57.378	12,996.1	57.5865	12,996.1	53.563	12,996.1	57.9198	12,996.1	43.5997	12,996.1	53.8379	12,996.1	47.9711	12,996.1	58.5887	12,996.1	43.1089	12,996.1	45.4333
13,454.6	82.6053	13,454.6	83.1894	13,454.6	83.2042	13,454.6	81.3875	13,454.6	82.444	13,454.6	80.5497	13,454.6	81.3451	13,454.6	77.3926	13,454.6	78.9819	13,454.6	75.5173	13,454.6	78.015	13,454.6	74.1918	13,454.6	72.2141	13,454.6	71.0927	13,454.6	71.1108	13,454.6	67.2575	13,454.6	67.2681	13,454.6	64.5533	13,454.6	55.8732	13,454.6	58.7202	13,454.6	55.7378	13,454.6	56.1493	13,454.6	58.5507	13,454.6	54.5105	13,454.6	67.6028	13,454.6	47.9194	13,454.6	55.8884	13,454.6	57.652	13,454.6	53.0451	13,454.6	57.2994	13,454.6	45.1537	13,454.6	54.7858	13,454.6	50.2127	13,454.6	58.0705	13,454.6	38.9166	13,454.6	41.0084
13,929.2	84.1819	13,929.2	84.4481	13,929.2	84.408	13,929.2	82.6004	13,929.2	83.5159	13,929.2	81.3676	13,929.2	81.8472	13,929.2	77.771	13,929.2	79.3574	13,929.2	76.506	13,929.2	77.4097	13,929.2	74.3596	13,929.2	71.315	13,929.2	70.3957	13,929.2	70.5065	13,929.2	66.1029	13,929.2	59.7441	13,929.2	63.9369	13,929.2	59.9278	13,929.2	58.2074	13,929.2	52.6444	13,929.2	55.1334	13,929.2	56.5966	13,929.2	54.9439	13,929.2	67.8704	13,929.2	43.2142	13,929.2	56.8941	13,929.2	56.4336	13,929.2	50.4592	13,929.2	55.8692	13,929.2	43.521	13,929.2	52.6971	13,929.2	48.5832	13,929.2	57.5716	13,929.2	39.5776	13,929.2	45.2431
14,419.9	85.3126	14,419.9	85.2892	14,419.9	85.2155	14,419.9	83.4831	14,419.9	83.7953	14,419.9	81.9292	14,419.9	81.7207	14,419.9	77.4678	14,419.9	78.5275	14,419.9	76.8753	14,419.9	76.1632	14,419.9	73.3496	14,419.9	72.7369	14,419.9	68.8135	14,419.9	67.108	14,419.9	64.5352	14,419.9	65.0879	14,419.9	62.4878	14,419.9	57.8478	14,419.9	57.8495	14,419.9	56.1324	14,419.9	51.3993	14,419.9	53.071	14,419.9	54.006	14,419.9	66.7147	14,419.9	42.3876	14,419.9	53.3789	14,419.9	54.5934	14,419.9	46.2787	14,419.9	54.535	14,419.9	41.7664	14,419.9	52.1149	14,419.9	47.129	14,419.9	57.4965	14,419.9	41.847	14,419.9	46.7138
14,928.2	85.8113	14,928.2	85.5257	14,928.2	85.482	14,928.2	83.9337	14,928.2	83.6473	14,928.2	81.5047	14,928.2	81.1073	14,928.2	77.2395	14,928.2	77.5545	14,928.2	75.8846	14,928.2	74.374	14,928.2	71.9776	14,928.2	72.0381	14,928.2	68.0556	14,928.2	66.9086	14,928.2	63.4054	14,928.2	57.5834	14,928.2	60.8771	14,928.2	56.1881	14,928.2	56.4929	14,928.2	51.295	14,928.2	51.003	14,928.2	43.3137	14,928.2	52.301	14,928.2	65.7627	14,928.2	35.3894	14,928.2	51.5217	14,928.2	51.53	14,928.2	36.8751	14,928.2	53.8543	14,928.2	43.4265	14,928.2	51.3503	14,928.2	49.3466	14,928.2	56.1618	14,928.2	39.9241	14,928.2	48.4104
15,455.6	85.8845	15,455.6	85.4317	15,455.6	85.3956	15,455.6	83.8471	15,455.6	83.4612	15,455.6	80.8844	15,455.6	80.4821	15,455.6	76.2702	15,455.6	76.1724	15,455.6	74.3522	15,455.6	72.0773	15,455.6	70.0109	15,455.6	70.0335	15,455.6	66.0941	15,455.6	63.1381	15,455.6	61.3812	15,455.6	56.8252	15,455.6	58.2263	15,455.6	54.5669	15,455.6	54.2091	15,455.6	48.4184	15,455.6	44.8419	15,455.6	50.0493	15,455.6	50.6796	15,455.6	64.5842	15,455.6	38.6189	15,455.6	46.6538	15,455.6	48.088	15,455.6	38.4025	15,455.6	51.6524	15,455.6	42.7753	15,455.6	48.7305	15,455.6	47.4467	15,455.6	53.8742	15,455.6	36.1263	15,455.6	46.2394
16,000.5	85.7368	16,000.5	85.279	16,000.5	84.9831	16,000.5	83.5378	16,000.5	82.8157	16,000.5	80.461	16,000.5	79.6968	16,000.5	75.1836	16,000.5	74.9503	16,000.5	72.1248	16,000.5	69.7549	16,000.5	67.4738	16,000.5	68.054	16,000.5	63.4297	16,000.5	59.8139	16,000.5	57.443	16,000.5	54.8726	16,000.5	54.719	16,000.5	49.3754	16,000.5	51.2539	16,000.5	41.0798	16,000.5	38.5478	16,000.5	53.3289	16,000.5	47.1004	16,000.5	63.1318	16,000.5	37.9501	16,000.5	46.6726	16,000.5	45.2406	16,000.5	25.1078	16,000.5	49.5075	16,000.5	28.6157	16,000.5	42.6165	16,000.5	40.9147	16,000.5	49.1971	16,000.5	43.7479	16,000.5	43.9627
16,564.5	85.2656	16,564.5	84.8996	16,564.5	84.3995	16,564.5	82.9215	16,564.5	81.8801	16,564.5	79.7209	16,564.5	78.3736	16,564.5	73.1441	16,564.5	73.1854	16,564.5	68.9711	16,564.5	66.7247	16,564.5	63.3406	16,564.5	62.4503	16,564.5	58.5283	16,564.5	53.3623	16,564.5	51.0187	16,564.5	46.5747	16,564.5	49.5548	16,564.5	45.2359	16,564.5	45.7123	16,564.5	38.3191	16,564.5	37.6236	16,564.5	54.3751	16,564.5	41.5536	16,564.5	61.7436	16,564.5	39.2286	16,564.5	45.1874	16,564.5	36.5121	16,564.5	24.7583	16,564.5	44.4468	16,564.5	29.8211	16,564.5	34.7739	16,564.5	31.8674	16,564.5	44.5907	16,564.5	42.2254	16,564.5	41.0548
17,148.9	84.4142	17,148.9	84.0932	17,148.9	83.4978	17,148.9	81.891	17,148.9	80.7891	17,148.9	78.3459	17,148.9	76.7263	17,148.9	70.6139	17,148.9	70.5235	17,148.9	65.1754	17,148.9	60.7138	17,148.9	55.2823	17,148.9	52.8617	17,148.9	53.0506	17,148.9	39.298	17,148.9	42.024	17,148.9	38.5421	17,148.9	45.626	17,148.9	29.6231	17,148.9	43.5751	17,148.9	40.6597	17,148.9	32.0176	17,148.9	55.927	17,148.9	38.0804	17,148.9	60.7074	17,148.9	34.9499	17,148.9	44.5621	17,148.9	27.1713	17,148.9	25.4513	17,148.9	36.4426	17,148.9	23.7464	17,148.9	40.8257	17,148.9	32.1466	17,148.9	36.2013	17,148.9	41.2562	17,148.9	38.0711
17,752.4	83.4198	17,752.4	83.049	17,752.4	82.4202	17,752.4	80.6562	17,752.4	79.5038	17,752.4	76.6908	17,752.4	74.818	17,752.4	68.2278	17,752.4	67.4284	17,752.4	60.1608	17,752.4	58.2924	17,752.4	39.4992	17,752.4	53.7686	17,752.4	47.5677	17,752.4	50.6197	17,752.4	43.7072	17,752.4	50.1084	17,752.4	44.8111	17,752.4	39.7389	17,752.4	39.3534	17,752.4	43.5195	17,752.4	30.2301	17,752.4	56.7672	17,752.4	39.9964	17,752.4	59.2265	17,752.4	36.5275	17,752.4	41.1228	17,752.4	32.9933	17,752.4	40.1626	17,752.4	36.4603	17,752.4	32.8278	17,752.4	39.0093	17,752.4	29.7631	17,752.4	27.0036	17,752.4	33.8141	17,752.4	39.2148
18,379.4	82.4148	18,379.4	81.9906	18,379.4	81.565	18,379.4	79.2675	18,379.4	78.5035	18,379.4	74.879	18,379.4	73.1035	18,379.4	64.2978	18,379.4	64.3789	18,379.4	54.6128	18,379.4	60.9623	18,379.4	49.3429	18,379.4	53.6609	18,379.4	51.4313	18,379.4	56.7155	18,379.4	47.9566	18,379.4	49.5061	18,379.4	44.6616	18,379.4	42.6098	18,379.4	36.5867	18,379.4	43.5321	18,379.4	27.2893	18,379.4	55.4286	18,379.4	39.3793	18,379.4	58.0445	18,379.4	35.6199	18,379.4	41.7735	18,379.4	29.4106	18,379.4	42.5355	18,379.4	39.3055	18,379.4	33.09	18,379.4	39.5152	18,379.4	37.6678	18,379.4	36.1424	18,379.4	34.9122	18,379.4	43.3892
19,026.9	81.9341	19,026.9	81.5057	19,026.9	80.9898	19,026.9	78.1146	19,026.9	77.2004	19,026.9	73.0091	19,026.9	70.9607	19,026.9	60.9736	19,026.9	62.0189	19,026.9	50.0823	19,026.9	60.4323	19,026.9	54.6489	19,026.9	54.2494	19,026.9	51.8418	19,026.9	57.2012	19,026.9	46.976	19,026.9	53.5765	19,026.9	43.0927	19,026.9	37.0003	19,026.9	37.3655	19,026.9	44.3424	19,026.9	19.5285	19,026.9	55.0307	19,026.9	38.0843	19,026.9	58.1041	19,026.9	35.0273	19,026.9	41.5967	19,026.9	35.1662	19,026.9	39.5863	19,026.9	38.0738	19,026.9	37.1235	19,026.9	38.0003	19,026.9	40.497	19,026.9	38.9187	19,026.9	38.7883	19,026.9	44.6356
19,697.8	81.5826	19,697.8	80.9959	19,697.8	80.4437	19,697.8	77.2659	19,697.8	76.1892	19,697.8	70.5474	19,697.8	69.1718	19,697.8	57.2479	19,697.8	61.663	19,697.8	45.1507	19,697.8	59.1573	19,697.8	54.6895	19,697.8	56.6566	19,697.8	51.0582	19,697.8	57.0023	19,697.8	46.5716	19,697.8	51.9467	19,697.8	43.121	19,697.8	38.4971	19,697.8	36.1041	19,697.8	44.5622	19,697.8	17.3605	19,697.8	55.1395	19,697.8	35.6322	19,697.8	57.5657	19,697.8	30.4147	19,697.8	38.8165	19,697.8	34.2932	19,697.8	28.5007	19,697.8	36.4961	19,697.8	37.5125	19,697.8	32.5014	19,697.8	36.2538	19,697.8	36.6392	19,697.8	40.6071	19,697.8	43.2196
19,999.5	81.5803	19,999.5	80.9285	19,999.5	80.307	19,999.5	76.9002	19,999.5	75.7624	19,999.5	69.166	19,999.5	68.2168	19,999.5	52.3816	19,999.5	61.6258	19,999.5	43.5648	19,999.5	57.3319	19,999.5	52.3977	19,999.5	59.036	19,999.5	48.2534	19,999.5	56.853	19,999.5	42.1972	19,999.5	53.4916	19,999.5	44.2188	19,999.5	46.1536	19,999.5	39.3436	19,999.5	37.8777	19,999.5	36.9033	19,999.5	53.1313	19,999.5	39.8965	19,999.5	56.6354	19,999.5	35.8741	19,999.5	41.5378	19,999.5	44.3766	19,999.5	31.9101	19,999.5	45.5438	19,999.5	43.5295	19,999.5	39.6085	19,999.5	42.9789	19,999.5	45.607	19,999.5	41.3428	19,999.5	43.3391
