Freq[Hz]     dBSPL  Phase[Deg]
5.00000     42.463  -138.797
5.07273     42.808  -138.985
5.14651     43.152  -139.175
5.22137     43.511  -134.998
5.29732     43.885  -131.233
5.37437     44.303  -128.804
5.45254     44.834  -127.786
5.53185     45.464  -127.883
5.61231     46.091  -128.531
5.69394     46.636  -129.450
5.77676     47.012  -130.673
5.86079     47.273  -132.164
5.94604     47.455  -133.648
6.03252     47.592  -134.825
6.12027     47.692  -135.410
6.20929     47.754  -135.500
6.29961     47.819  -135.213
6.39124     47.967  -134.575
6.48420     48.218  -133.577
6.57851     48.551  -132.394
6.67420     48.946  -131.391
6.77128     49.398  -130.807
6.86977     49.904  -130.628
6.96969     50.433  -130.812
7.07107     50.938  -131.376
7.17392     51.404  -132.318
7.27827     51.835  -133.513
7.38413     52.225  -134.782
7.49154     52.570  -136.058
7.60050     52.870  -137.330
7.71105     53.151  -138.489
7.82321     53.420  -139.493
7.93701     53.683  -140.365
8.05245     53.949  -141.135
8.16958     54.229  -141.827
8.28841     54.519  -142.469
8.40896     54.815  -143.107
8.53128     55.114  -143.779
8.65537     55.411  -144.464
8.78126     55.702  -145.139
8.90899     55.981  -145.786
9.03857     56.256  -146.386
9.17004     56.531  -146.887
9.30342     56.809  -147.305
9.43874     57.101  -147.668
9.57603     57.413  -147.998
9.71532     57.740  -148.348
9.85663     58.079  -148.774
10.0000     58.427  -149.279
10.1455     58.770  -149.873
10.2930     59.101  -150.536
10.4427     59.422  -151.210
10.5946     59.731  -151.864
10.7487     60.035  -152.488
10.9051     60.343  -153.072
11.0637     60.652  -153.636
11.2246     60.965  -154.203
11.3879     61.277  -154.770
11.5535     61.583  -155.318
11.7216     61.885  -155.846
11.8921     62.193  -156.310
12.0650     62.504  -156.755
12.2405     62.834  -157.218
12.4186     63.173  -157.724
12.5992     63.515  -158.348
12.7825     63.849  -159.041
12.9684     64.159  -159.749
13.1570     64.467  -160.453
13.3484     64.768  -161.043
13.5426     65.085  -161.601
13.7395     65.427  -162.226
13.9394     65.787  -163.049
14.1421     66.127  -164.158
14.3478     66.441  -165.383
14.5565     66.684  -166.633
14.7683     66.878  -167.700
14.9831     67.055  -168.372
15.2010     67.275  -168.770
15.4221     67.548  -169.158
15.6464     67.848  -169.732
15.8740     68.137  -170.527
16.1049     68.387  -171.435
16.3392     68.604  -172.317
16.5768     68.808  -173.101
16.8179     69.007  -173.796
17.0626     69.190  -174.399
17.3107     69.348  -174.807
17.5625     69.500  -174.901
17.8180     69.689  -174.683
18.0771     69.943  -174.341
18.3401     70.253  -174.104
18.6068     70.589  -174.111
18.8775     70.930  -174.366
19.1521     71.262  -174.814
19.4306     71.577  -175.374
19.7133     71.871  -175.951
20.0000     72.155  -176.473
20.2909     72.446  -176.938
20.5860     72.750  -177.421
20.8855     73.056  -177.969
21.1893     73.358  -178.571
21.4975     73.655  -179.201
21.8102     73.953  -179.844
22.1274     74.248   179.476
22.4492     74.540   178.777
22.7758     74.825   178.063
23.1071     75.105   177.353
23.4432     75.383   176.657
23.7841     75.659   175.971
24.1301     75.933   175.290
24.4811     76.203   174.637
24.8372     76.471   174.023
25.1984     76.748   173.447
25.5649     77.031   172.864
25.9368     77.316   172.266
26.3141     77.602   171.670
26.6968     77.895   171.077
27.0851     78.198   170.445
27.4791     78.503   169.704
27.8788     78.798   168.877
28.2843     79.074   168.055
28.6957     79.345   167.285
29.1131     79.618   166.560
29.5365     79.897   165.836
29.9661     80.169   165.123
30.4020     80.449   164.445
30.8442     80.741   163.740
31.2929     81.034   162.985
31.7480     81.328   162.177
32.2098     81.622   161.316
32.6783     81.912   160.397
33.1536     82.193   159.434
33.6359     82.467   158.447
34.1251     82.731   157.445
34.6215     82.981   156.474
35.1250     83.223   155.596
35.6359     83.471   154.816
36.1543     83.730   154.085
36.6802     83.998   153.368
37.2137     84.279   152.649
37.7550     84.573   151.883
38.3041     84.872   151.058
38.8613     85.174   150.146
39.4265     85.475   149.198
40.0000     85.781   148.201
40.5818     86.088   147.107
41.1721     86.389   145.926
41.7710     86.680   144.689
42.3785     86.960   143.444
42.9949     87.238   142.220
43.6203     87.519   140.997
44.2548     87.805   139.738
44.8985     88.099   138.401
45.5515     88.395   136.890
46.2141     88.674   135.124
46.8863     88.890   133.166
47.5683     89.030   131.371
48.2602     89.131   130.158
48.9621     89.287   129.463
49.6743     89.496   128.845
50.3968     89.750   128.156
51.1299     90.032   127.337
51.8736     90.329   126.315
52.6281     90.624   125.114
53.3936     90.912   123.803
54.1702     91.192   122.426
54.9581     91.467   121.004
55.7575     91.740   119.534
56.5685     92.009   118.020
57.3914     92.278   116.457
58.2261     92.545   114.826
59.0730     92.804   113.116
59.9323     93.053   111.380
60.8040     93.301   109.606
61.6884     93.539   107.741
62.5857     93.764   105.876
63.4960     93.988   104.029
64.4196     94.220   102.126
65.3566     94.453   100.057
66.3073     94.667    97.758
67.2717     94.833    95.307
68.2502     94.940    92.922
69.2429     95.005    90.850
70.2501     95.070    89.254
71.2719     95.201    87.933
72.3086     95.394    86.384
73.3603     95.591    84.433
74.4274     95.759    82.250
75.5099     95.893    79.996
76.6083     96.005    77.726
77.7226     96.096    75.451
78.8531     96.165    73.182
80.0000     96.211    70.938
81.1636     96.230    68.696
82.3442     96.203    66.581
83.5419     96.153    64.822
84.7570     96.117    63.393
85.9899     96.112    62.149
87.2406     96.141    60.963
88.5096     96.199    59.732
89.7970     96.280    58.306
91.1031     96.359    56.665
92.4282     96.410    54.849
93.7726     96.428    53.038
95.1366     96.428    51.324
96.5204     96.420    49.672
97.9243     96.403    48.033
99.3486     96.372    46.445
100.794     96.330    44.923
102.260     96.273    43.480
103.747     96.207    42.208
105.256     96.149    41.122
106.787     96.109    40.111
108.340     96.086    39.067
109.916     96.061    37.935
111.515     96.022    36.788
113.137     95.965    35.684
114.783     95.890    34.704
116.452     95.827    34.076
118.146     95.791    33.515
119.865     95.798    32.878
121.608     95.815    32.148
123.377     95.836    31.202
125.171     95.842    30.138
126.992     95.804    29.003
128.839     95.734    28.233
130.713     95.668    27.821
132.615     95.651    27.447
134.543     95.684    26.963
136.500     95.729    26.254
138.486     95.762    25.350
140.500     95.775    24.414
142.544     95.784    23.536
144.617     95.803    22.503
146.721     95.772    21.155
148.855     95.672    20.077
151.020     95.557    19.531
153.217     95.492    19.356
155.445     95.486    19.109
157.706     95.496    18.674
160.000     95.527    18.189
162.327     95.558    17.220
164.688     95.513    16.191
167.084     95.438    15.504
169.514     95.364    15.023
171.980     95.295    14.741
174.481     95.256    14.669
177.019     95.258    14.527
179.594     95.263    14.218
182.206     95.261    13.949
184.856     95.267    13.765
187.545     95.296    13.648
190.273     95.368    13.445
193.041     95.462    12.814
195.849     95.506    11.731
198.697     95.463    10.777
201.587     95.400    10.406
204.520     95.384    10.360
207.494     95.427    10.318
210.512     95.508    10.042
213.574     95.599     9.528
216.681     95.698     8.788
219.833     95.799     7.781
223.030     95.839     6.230
226.274     95.804     4.667
229.565     95.692     3.366
232.905     95.549     2.643
236.292     95.455     2.363
239.729     95.414     1.972
243.216     95.336     1.198
246.754     95.183     0.783
250.343     95.053     1.029
253.984     94.971     1.594
257.678     94.973     2.417
261.426     95.038     3.118
265.229     95.143     3.807
269.087     95.337     4.499
273.001     95.600     4.141
276.972     95.778     2.969
281.000     95.837     1.914
285.088     95.862     1.254
289.234     95.931     1.013
293.441     96.061     0.569
297.709     96.207    -0.311
302.040     96.322    -1.620
306.433     96.372    -3.121
310.890     96.377    -4.493
315.412     96.348    -5.785
320.000     96.297    -6.831
324.655     96.268    -7.586
329.377     96.267    -8.457
334.168     96.261    -9.422
339.028     96.256   -10.406
343.959     96.247   -11.430
348.962     96.236   -12.473
354.038     96.221   -13.557
359.188     96.199   -14.665
364.412     96.173   -15.775
369.713     96.143   -16.886
375.090     96.109   -17.997
380.546     96.071   -19.107
386.081     96.030   -20.214
391.697     95.983   -21.316
397.394     95.934   -22.414
403.175     95.880   -23.504
409.039     95.821   -24.585
414.989     95.759   -25.655
421.025     95.692   -26.711
427.149     95.621   -27.753
433.362     95.545   -28.775
439.665     95.465   -29.776
446.060     95.381   -30.754
452.548     95.294   -31.704
459.131     95.203   -32.622
465.809     95.109   -33.509
472.584     95.012   -34.358
479.458     94.914   -35.167
486.432     94.813   -35.939
493.507     94.712   -36.662
500.686     94.612   -37.338
507.968     94.511   -37.969
515.357     94.413   -38.550
522.853     94.319   -39.084
530.458     94.229   -39.576
538.174     94.144   -40.027
546.002     94.067   -40.440
553.943     93.998   -40.825
562.001     93.937   -41.190
570.175     93.884   -41.545
578.469     93.843   -41.899
586.883     93.812   -42.266
595.419     93.790   -42.658
604.080     93.777   -43.082
612.866     93.772   -43.553
621.780     93.776   -44.081
630.824     93.785   -44.682
640.000     93.798   -45.351
649.309     93.813   -46.107
658.753     93.828   -46.943
668.335     93.841   -47.861
678.056     93.849   -48.857
687.919     93.851   -49.927
697.925     93.844   -51.062
708.077     93.827   -52.254
718.376     93.798   -53.489
728.825     93.757   -54.755
739.426     93.702   -56.035
750.181     93.633   -57.312
761.093     93.549   -58.568
772.163     93.452   -59.781
783.394     93.343   -60.937
794.789     93.226   -62.023
806.349     93.101   -63.021
818.078     92.972   -63.919
829.977     92.843   -64.719
842.050     92.717   -65.419
854.298     92.598   -66.023
866.724     92.490   -66.549
879.330     92.396   -67.023
892.120     92.319   -67.468
905.097     92.255   -67.919
918.262     92.206   -68.404
931.618     92.169   -68.948
945.169     92.140   -69.568
958.917     92.112   -70.273
972.864     92.083   -71.060
987.015     92.048   -71.910
1001.37     91.999   -72.799
1015.94     91.939   -73.685
1030.71     91.866   -74.526
1045.71     91.782   -75.265
1060.92     91.692   -75.872
1076.35     91.605   -76.298
1092.00     91.534   -76.531
1107.89     91.487   -76.591
1124.00     91.483   -76.516
1140.35     91.522   -76.394
1156.94     91.625   -76.357
1173.77     91.765   -76.433
1190.84     91.963   -76.919
1208.16     92.177   -77.586
1225.73     92.408   -78.778
1243.56     92.636   -80.283
1261.65     92.841   -82.202
1280.00     93.013   -84.384
1298.62     93.121   -86.828
1317.51     93.222   -89.281
1336.67     93.252   -91.760
1356.11     93.247   -94.121
1375.84     93.213   -96.277
1395.85     93.169   -98.167
1416.15     93.142   -99.734
1436.75     93.137  -101.158
1457.65     93.192  -102.430
1478.85     93.300  -103.739
1500.36     93.467  -105.244
1522.19     93.683  -107.187
1544.33     93.918  -109.622
1566.79     94.146  -112.558
1589.58     94.343  -115.963
1612.70     94.493  -119.757
1636.16     94.581  -123.834
1659.95     94.600  -128.072
1684.10     94.550  -132.341
1708.60     94.435  -136.531
1733.45     94.267  -140.557
1758.66     94.059  -144.366
1784.24     93.824  -147.956
1810.19     93.571  -151.364
1836.52     93.303  -154.652
1863.24     93.014  -157.871
1890.34     92.689  -161.030
1917.83     92.313  -164.062
1945.73     91.871  -166.815
1974.03     91.360  -169.054
2002.74     90.795  -170.390
2031.87     90.230  -170.668
2061.43     89.743  -169.748
2091.41     89.424  -167.901
2121.83     89.321  -165.764
2152.69     89.432  -164.195
2184.01     89.628  -163.191
2215.77     89.867  -163.223
2248.00     90.090  -163.630
2280.70     90.280  -164.235
2313.87     90.465  -164.698
2347.53     90.690  -164.946
2381.68     91.005  -165.147
2416.32     91.403  -165.548
2451.46     91.893  -166.539
2487.12     92.427  -168.130
2523.30     92.978  -170.581
2560.00     93.514  -173.729
2597.24     94.008  -177.578
2635.01     94.440   177.961
2673.34     94.766   172.913
2712.23     94.988   167.572
2751.68     95.064   162.150
2791.70     95.019   156.985
2832.31     94.875   152.402
2873.50     94.698   148.376
2915.30     94.518   144.825
2957.70     94.355   141.549
3000.72     94.197   138.311
3044.37     93.996   135.103
3088.65     93.734   132.237
3133.58     93.448   129.914
3179.16     93.190   128.178
3225.40     92.981   126.654
3272.31     92.792   125.097
3319.91     92.565   123.616
3368.20     92.290   122.745
3417.19     92.053   122.969
3466.89     91.991   124.014
3517.32     92.158   124.794
3568.48     92.444   124.416
3620.39     92.701   123.023
3673.05     92.891   121.351
3726.47     93.086   119.751
3780.67     93.348   117.671
3835.67     93.618   114.843
3891.46     93.749   110.835
3948.06     93.734   106.434
4005.49     93.481   102.545
4063.75     93.104    99.608
4122.86     92.680    97.912
4182.82     92.325    97.656
4243.66     92.242    98.362
4305.39     92.487    97.840
4368.01     92.798    94.199
4431.55     92.683    87.659
4496.01     91.942    81.048
4561.40     90.539    78.098
4627.75     88.925    80.533
4695.06     87.716    88.892
4763.35     87.246   100.753
4832.64     87.902   114.067
4902.93     89.584   120.683
4974.24     91.178   120.123
5046.60     92.138   115.454
5120.00     92.691   110.589
5194.47     93.011   106.144
5270.03     93.136   101.718
5346.68     93.059    98.063
5424.45     92.951    95.768
5503.35     93.010    93.782
5583.40     93.095    90.277
5664.61     92.917    85.688
5747.01     92.441    81.189
5830.60     91.627    77.791
5915.41     90.504    76.913
6001.45     89.277    80.498
6088.74     88.552    88.686
6177.30     88.623    98.342
6267.15     89.432   105.591
6358.31     90.444   107.967
6450.80     91.266   107.514
6544.62     91.872   106.019
6639.82     92.372   104.079
6736.40     92.777   101.371
6834.38     93.020    98.043
6933.79     93.114    94.563
7034.64     93.065    90.605
7136.96     92.678    86.384
7240.77     91.885    84.165
7346.09     90.967    85.724
7452.94     90.345    91.534
7561.35     90.531    98.781
7671.33     91.206   102.770
7782.91     91.891   103.097
7896.12     92.395   101.954
8010.97     92.689    99.855
8127.49     92.849    98.134
8245.71     92.930    95.584
8365.65     92.677    93.671
8487.33     92.386    93.311
8610.78     92.072    93.876
8736.03     91.815    96.193
8863.09     91.813    99.982
8992.01     92.319   104.315
9122.80     93.165   104.558
9255.50     93.690   100.689
9390.12     93.561    96.196
9526.70     92.998    95.413
9665.27     92.714    98.619
9805.86     93.012   101.905
9948.49     93.558   101.996
10093.2     93.788    99.642
10240.0     93.696    98.044
10388.9     93.570    98.482
10540.1     93.694    99.258
10693.4     93.831    98.705
10848.9     93.765    97.900
11006.7     93.630    99.091
11166.8     93.802   101.346
11329.2     94.179   101.397
11494.0     94.396   100.188
11661.2     94.510   100.441
11830.8     94.811    99.924
12002.9     95.137    96.554
12177.5     94.987    92.382
12354.6     94.256    92.691
12534.3     93.975    97.142
12716.6     94.570   100.322
12901.6     95.046    98.511
13089.2     95.275    95.382
13279.6     95.313    92.125
13472.8     95.027    88.874
13668.8     94.417    87.959
13867.6     94.013    90.930
14069.3     94.189    93.215
14273.9     94.510    92.151
14481.5     94.439    90.241
14692.2     94.270    89.067
14905.9     93.923    87.648
15122.7     93.437    88.850
15342.7     93.264    92.288
15565.8     93.596    94.335
15792.2     93.839    92.545
16021.9     93.755    90.346
16255.0     93.402    88.256
16491.4     92.774    89.548
16731.3     92.797    94.085
16974.7     93.283    93.476
17221.6     93.158    89.366
17472.1     92.458    87.808
17726.2     91.773    90.455
17984.0     91.734    95.628
18245.6     92.276    96.265
18511.0     92.227    91.865
18780.2     91.382    90.662
19053.4     90.736    95.099
19330.5     90.842    99.800
19611.7     91.253   100.098
19897.0     91.131    97.180
20186.4     90.477    98.185
20480.0     90.297   102.621
20777.9     90.662   104.356
21080.1     90.803   101.835
21386.7     90.336    99.579
21697.8     90.031   102.753
22013.4     90.093   103.694
22333.6     89.890   100.835
22658.4     89.256    99.693
22988.0     88.615   102.513
23322.4     88.532   105.123
23661.6     88.322   104.335
24005.8     87.678   104.128
24355.0     87.122   108.868
24709.2     87.263   113.705
25068.6     87.267   113.405
25433.2     86.972   115.278
25803.2     87.305   118.221
26178.5     87.602   114.677
26559.3     87.131   111.305
26945.6     86.577   111.586
27337.5     86.396   109.948
27735.2     85.787   106.314
28138.6     84.716   105.872
28547.9     83.855   108.636
28963.1     83.308   109.096
29384.4     82.587   110.984
29811.8     82.135   111.723
30245.4     81.474   110.993
30685.3     80.475   112.192
31131.7     79.938   114.250
31584.5     79.249   112.434
32043.9     78.148   111.407
32510.0     77.108   110.726
32982.8     75.594   107.463
33462.6     73.272   108.170
33949.3     70.728   114.928
34443.1     68.373   128.970
34944.1     67.021   146.483
35452.4     66.126   159.604
35968.0     65.529   177.966
36491.2     66.097  -165.880
37022.0     66.736  -158.091
37560.5     67.302  -151.200
38106.8     67.867  -148.583
38661.1     67.932  -147.385
39223.4     67.716  -146.167
39793.9     67.388  -145.264
