Freq[Hz]     dBSPL  Phase[Deg]
5.00000     42.463  -138.797
5.07273     42.808  -138.985
5.14651     43.152  -139.175
5.22137     43.511  -134.998
5.29732     43.885  -131.233
5.37437     44.303  -128.804
5.45254     44.834  -127.786
5.53185     45.464  -127.883
5.61231     46.091  -128.531
5.69394     46.636  -129.450
5.77676     47.012  -130.673
5.86079     47.273  -132.164
5.94604     47.455  -133.648
6.03252     47.592  -134.825
6.12027     47.692  -135.410
6.20929     47.754  -135.500
6.29961     47.819  -135.213
6.39124     47.967  -134.575
6.48420     48.218  -133.577
6.57851     48.551  -132.394
6.67420     48.946  -131.391
6.77128     49.398  -130.807
6.86977     49.904  -130.628
6.96969     50.433  -130.812
7.07107     50.938  -131.376
7.17392     51.404  -132.318
7.27827     51.835  -133.513
7.38413     52.225  -134.782
7.49154     52.570  -136.058
7.60050     52.870  -137.330
7.71105     53.151  -138.489
7.82321     53.420  -139.493
7.93701     53.683  -140.365
8.05245     53.949  -141.135
8.16958     54.229  -141.827
8.28841     54.519  -142.469
8.40896     54.815  -143.107
8.53128     55.114  -143.779
8.65537     55.411  -144.464
8.78126     55.702  -145.139
8.90899     55.981  -145.786
9.03857     56.256  -146.386
9.17004     56.531  -146.887
9.30342     56.809  -147.305
9.43874     57.101  -147.668
9.57603     57.413  -147.998
9.71532     57.740  -148.348
9.85663     58.079  -148.774
10.0000     58.427  -149.279
10.1455     58.770  -149.873
10.2930     59.101  -150.536
10.4427     59.422  -151.210
10.5946     59.731  -151.864
10.7487     60.035  -152.488
10.9051     60.343  -153.072
11.0637     60.652  -153.636
11.2246     60.965  -154.203
11.3879     61.277  -154.770
11.5535     61.583  -155.318
11.7216     61.885  -155.846
11.8921     62.193  -156.310
12.0650     62.504  -156.755
12.2405     62.834  -157.218
12.4186     63.173  -157.724
12.5992     63.515  -158.348
12.7825     63.849  -159.041
12.9684     64.159  -159.749
13.1570     64.467  -160.453
13.3484     64.768  -161.043
13.5426     65.085  -161.601
13.7395     65.427  -162.226
13.9394     65.787  -163.049
14.1421     66.127  -164.158
14.3478     66.441  -165.383
14.5565     66.684  -166.633
14.7683     66.878  -167.700
14.9831     67.055  -168.372
15.2010     67.275  -168.770
15.4221     67.548  -169.158
15.6464     67.848  -169.732
15.8740     68.137  -170.527
16.1049     68.387  -171.435
16.3392     68.604  -172.317
16.5768     68.808  -173.101
16.8179     69.007  -173.796
17.0626     69.190  -174.399
17.3107     69.348  -174.807
17.5625     69.500  -174.901
17.8180     69.689  -174.683
18.0771     69.943  -174.341
18.3401     70.253  -174.104
18.6068     70.589  -174.111
18.8775     70.930  -174.366
19.1521     71.262  -174.814
19.4306     71.577  -175.374
19.7133     71.871  -175.951
20.0000     72.155  -176.473
20.2909     72.446  -176.938
20.5860     72.750  -177.421
20.8855     73.056  -177.969
21.1893     73.358  -178.571
21.4975     73.655  -179.201
21.8102     73.953  -179.844
22.1274     74.248   179.476
22.4492     74.540   178.777
22.7758     74.825   178.063
23.1071     75.105   177.353
23.4432     75.383   176.657
23.7841     75.659   175.971
24.1301     75.933   175.290
24.4811     76.203   174.637
24.8372     76.471   174.023
25.1984     76.748   173.447
25.5649     77.031   172.864
25.9368     77.316   172.266
26.3141     77.602   171.670
26.6968     77.895   171.077
27.0851     78.198   170.445
27.4791     78.503   169.704
27.8788     78.798   168.877
28.2843     79.074   168.055
28.6957     79.345   167.285
29.1131     79.618   166.560
29.5365     79.897   165.836
29.9661     80.169   165.123
30.4020     80.449   164.445
30.8442     80.741   163.740
31.2929     81.034   162.985
31.7480     81.328   162.177
32.2098     81.622   161.316
32.6783     81.912   160.397
33.1536     82.193   159.434
33.6359     82.467   158.447
34.1251     82.731   157.445
34.6215     82.981   156.474
35.1250     83.223   155.596
35.6359     83.471   154.816
36.1543     83.730   154.085
36.6802     83.998   153.368
37.2137     84.279   152.649
37.7550     84.573   151.883
38.3041     84.872   151.058
38.8613     85.174   150.146
39.4265     85.475   149.198
40.0000     85.781   148.201
40.5818     86.088   147.108
41.1721     86.389   145.930
41.7710     86.681   144.698
42.3785     86.963   143.458
42.9949     87.242   142.242
43.6203     87.524   141.029
44.2548     87.812   139.782
44.8985     88.108   138.458
45.5515     88.406   136.960
46.2141     88.688   135.211
46.8863     88.907   133.270
47.5683     89.050   131.494
48.2602     89.154   130.301
48.9621     89.313   129.628
49.6743     89.526   129.032
50.3968     89.784   128.368
51.1299     90.069   127.574
51.8736     90.371   126.579
52.6281     90.671   125.406
53.3936     90.963   124.124
54.1702     91.248   122.778
54.9581     91.528   121.387
55.7575     91.805   119.950
56.5685     92.080   118.470
57.3914     92.354   116.942
58.2261     92.626   115.347
59.0730     92.891   113.674
59.9323     93.145   111.977
60.8040     93.400   110.242
61.6884     93.643   108.418
62.5857     93.874   106.594
63.4960     94.104   104.789
64.4196     94.342   102.930
65.3566     94.582   100.906
66.3073     94.802    98.653
67.2717     94.974    96.249
68.2502     95.088    93.912
69.2429     95.159    91.889
70.2501     95.231    90.344
71.2719     95.368    89.074
72.3086     95.568    87.577
73.3603     95.772    85.680
74.4274     95.946    83.551
75.5099     96.087    81.353
76.6083     96.205    79.140
77.7226     96.303    76.922
78.8531     96.379    74.712
80.0000     96.432    72.529
81.1636     96.458    70.348
82.3442     96.438    68.296
83.5419     96.394    66.601
84.7570     96.364    65.237
85.9899     96.366    64.059
87.2406     96.402    62.941
88.5096     96.466    61.779
89.7970     96.554    60.423
91.1031     96.638    58.853
92.4282     96.695    57.110
93.7726     96.720    55.373
95.1366     96.726    53.735
96.5204     96.724    52.160
97.9243     96.713    50.599
99.3486     96.688    49.091
100.794     96.652    47.650
102.260     96.600    46.290
103.747     96.539    45.102
105.256     96.487    44.102
106.787     96.452    43.179
108.340     96.434    42.224
109.916     96.414    41.183
111.515     96.380    40.127
113.137     96.327    39.118
114.783     96.257    38.233
116.452     96.197    37.702
118.146     96.166    37.241
119.865     96.176    36.705
121.608     96.197    36.078
123.377     96.221    35.238
125.171     96.230    34.280
126.992     96.195    33.254
128.839     96.128    32.595
130.713     96.064    32.296
132.615     96.049    32.037
134.543     96.085    31.670
136.500     96.132    31.081
138.486     96.166    30.298
140.500     96.180    29.486
142.544     96.190    28.735
144.617     96.209    27.831
146.721     96.178    26.614
148.855     96.078    25.670
151.020     95.964    25.260
153.217     95.898    25.224
155.445     95.891    25.118
157.706     95.899    24.828
160.000     95.929    24.489
162.327     95.957    23.670
164.688     95.910    22.794
167.084     95.833    22.263
169.514     95.756    21.941
171.980     95.682    21.820
174.481     95.640    21.913
177.019     95.637    21.940
179.594     95.638    21.802
182.206     95.631    21.709
184.856     95.632    21.703
187.545     95.654    21.768
190.273     95.720    21.751
193.041     95.807    21.309
195.849     95.844    20.419
198.697     95.793    19.661
201.587     95.723    19.492
204.520     95.698    19.650
207.494     95.732    19.816
210.512     95.804    19.753
213.574     95.885    19.455
216.681     95.975    18.937
219.833     96.066    18.154
223.030     96.095    16.833
226.274     96.049    15.504
229.565     95.925    14.441
232.905     95.770    13.961
236.292     95.664    13.928
239.729     95.610    13.788
243.216     95.520    13.270
246.754     95.354    13.116
250.343     95.209    13.627
253.984     95.114    14.462
257.678     95.103    15.561
261.426     95.153    16.543
265.229     95.244    17.517
269.087     95.425    18.498
273.001     95.672    18.434
276.972     95.835    17.556
281.000     95.879    16.799
285.088     95.890    16.441
289.234     95.945    16.504
293.441     96.059    16.368
297.709     96.190    15.800
302.040     96.290    14.808
306.433     96.326    13.630
310.890     96.318    12.588
315.412     96.274    11.633
320.000     96.209    10.931
324.655     96.166    10.527
329.377     96.151    10.014
334.168     96.133     9.412
339.028     96.112     8.798
343.959     96.091     8.151
348.962     96.067     7.491
354.038     96.039     6.796
359.188     96.005     6.083
364.412     95.966     5.373
369.713     95.924     4.668
375.090     95.878     3.968
380.546     95.828     3.277
386.081     95.775     2.592
391.697     95.717     1.919
397.394     95.656     1.253
403.175     95.590     0.602
409.039     95.519    -0.035
414.989     95.445    -0.656
421.025     95.365    -1.256
427.149     95.280    -1.837
433.362     95.191    -2.392
439.665     95.097    -2.918
446.060     94.999    -3.415
452.548     94.896    -3.877
459.131     94.789    -4.296
465.809     94.678    -4.676
472.584     94.563    -5.005
479.458     94.445    -5.284
486.432     94.325    -5.512
493.507     94.202    -5.675
500.686     94.079    -5.775
507.968     93.957    -5.813
515.357     93.834    -5.779
522.853     93.716    -5.675
530.458     93.600    -5.508
538.174     93.492    -5.275
546.002     93.389    -4.977
553.943     93.296    -4.623
562.001     93.211    -4.224
570.175     93.137    -3.791
578.469     93.075    -3.325
586.883     93.025    -2.849
595.419     92.987    -2.373
604.080     92.960    -1.909
612.866     92.944    -1.469
621.780     92.938    -1.065
630.824     92.941    -0.714
640.000     92.950    -0.412
649.309     92.964    -0.175
658.753     92.981     0.002
668.335     92.998     0.119
678.056     93.013     0.181
687.919     93.026     0.194
697.925     93.035     0.169
708.077     93.038     0.115
718.376     93.035     0.046
728.825     93.026    -0.026
739.426     93.012    -0.087
750.181     92.993    -0.125
761.093     92.972    -0.128
772.163     92.950    -0.088
783.394     92.932    -0.008
794.789     92.918     0.108
806.349     92.912     0.255
818.078     92.917     0.415
829.977     92.933     0.569
842.050     92.962     0.692
854.298     93.003     0.754
866.724     93.055     0.725
879.330     93.116     0.589
892.120     93.180     0.299
905.097     93.242    -0.116
918.262     93.298    -0.697
931.618     93.342    -1.423
945.169     93.368    -2.281
958.917     93.370    -3.250
972.864     93.345    -4.299
987.015     93.288    -5.385
1001.37     93.196    -6.459
1015.94     93.072    -7.470
1030.71     92.915    -8.359
1045.71     92.729    -9.056
1060.92     92.524    -9.531
1076.35     92.308    -9.717
1092.00     92.097    -9.602
1107.89     91.903    -9.205
1124.00     91.747    -8.556
1140.35     91.630    -7.773
1156.94     91.577    -6.974
1173.77     91.560    -6.240
1190.84     91.602    -5.849
1208.16     91.659    -5.620
1225.73     91.728    -5.875
1243.56     91.791    -6.423
1261.65     91.821    -7.348
1280.00     91.814    -8.501
1298.62     91.729    -9.845
1317.51     91.636   -11.192
1336.67     91.463   -12.488
1356.11     91.246   -13.623
1375.84     90.996   -14.520
1395.85     90.728   -15.140
1416.15     90.462   -15.455
1436.75     90.207   -15.647
1457.65     89.979   -15.725
1478.85     89.772   -15.843
1500.36     89.581   -16.112
1522.19     89.381   -16.652
1544.33     89.148   -17.416
1566.79     88.862   -18.312
1589.58     88.511   -19.199
1612.70     88.091   -19.901
1636.16     87.615   -20.237
1659.95     87.105   -20.074
1684.10     86.599   -19.387
1708.60     86.131   -18.318
1733.45     85.719   -17.163
1758.66     85.348   -16.273
1784.24     84.966   -15.899
1810.19     84.495   -16.053
1836.52     83.855   -16.445
1863.24     82.975   -16.439
1890.34     81.823   -14.957
1917.83     80.461   -10.362
1945.73     79.174    -0.813
1974.03     78.546    13.606
2002.74     79.059    27.581
2031.87     80.208    36.411
2061.43     81.388    39.740
2091.41     82.277    39.682
2121.83     82.803    38.036
2152.69     82.938    36.130
2184.01     82.874    34.551
2215.77     82.564    34.395
2248.00     82.198    35.237
2280.70     81.854    37.390
2313.87     81.602    40.094
2347.53     81.423    42.714
2381.68     81.233    44.933
2416.32     80.967    47.002
2451.46     80.541    49.511
2487.12     79.996    53.045
2523.30     79.387    58.921
2560.00     78.918    67.361
2597.24     78.835    78.107
2635.01     79.295    89.591
2673.34     80.345    99.037
2712.23     81.631   105.704
2751.68     82.947   109.023
2791.70     84.140   110.242
2832.31     85.144   109.992
2873.50     85.990   109.077
2915.30     86.683   107.820
2957.70     87.246   106.548
3000.72     87.717   105.562
3044.37     88.180   105.098
3088.65     88.742   104.779
3133.58     89.419   103.851
3179.16     90.152   101.360
3225.40     90.793    97.121
3272.31     91.201    91.301
3319.91     91.263    84.609
3368.20     90.930    78.037
3417.19     90.220    72.660
3466.89     89.225    69.408
3517.32     88.087    68.796
3568.48     86.941    70.951
3620.39     85.920    76.096
3673.05     85.280    84.262
3726.47     85.305    93.357
3780.67     85.864    99.311
3835.67     86.478   102.345
3891.46     86.774   103.531
3948.06     86.877   105.326
4005.49     87.168   108.907
4063.75     87.741   111.465
4122.86     88.279   111.508
4182.82     88.515   110.843
4243.66     88.619   111.796
4305.39     88.970   113.617
4368.01     89.536   113.749
4431.55     89.922   111.439
4496.01     89.992   108.901
4561.40     89.888   107.470
4627.75     89.790   106.408
4695.06     89.530   104.779
4763.35     88.927   104.292
4832.64     88.168   107.870
4902.93     87.982   115.029
4974.24     88.287   121.293
5046.60     88.884   126.333
5120.00     89.835   130.618
5194.47     91.136   131.461
5270.03     92.229   127.344
5346.68     92.774   120.885
5424.45     92.799   114.401
5503.35     92.429   109.143
5583.40     91.745   105.800
5664.61     90.898   105.882
5747.01     90.240   108.995
5830.60     90.006   114.066
5915.41     90.321   118.965
6001.45     91.069   121.013
6088.74     91.670   118.786
6177.30     91.850   115.309
6267.15     91.758   112.348
6358.31     91.489   109.908
6450.80     91.036   108.434
6544.62     90.503   108.714
6639.82     90.075   110.370
6736.40     89.751   112.317
6834.38     89.425   115.003
6933.79     89.260   119.393
7034.64     89.485   123.936
7136.96     89.936   126.588
7240.77     90.378   127.628
7346.09     90.730   127.721
7452.94     90.987   127.720
7561.35     91.303   127.735
7671.33     91.658   126.769
7782.91     91.932   124.539
7896.12     92.020   121.390
8010.97     91.737   118.076
8127.49     91.192   117.155
8245.71     90.791   117.989
8365.65     90.486   119.126
8487.33     90.231   120.258
8610.78     89.848   121.756
8736.03     89.517   125.959
8863.09     89.655   131.250
8992.01     90.285   134.861
9122.80     90.948   134.516
9255.50     91.228   131.723
9390.12     91.002   129.306
9526.70     90.558   130.142
9665.27     90.404   133.327
9805.86     90.636   136.240
9948.49     91.041   137.095
10093.2     91.288   136.178
10240.0     91.324   135.206
10388.9     91.299   135.255
10540.1     91.415   135.227
10693.4     91.471   133.839
10848.9     91.204   132.076
11006.7     90.690   133.047
11166.8     90.482   136.484
11329.2     90.639   138.277
11494.0     90.691   138.809
11661.2     90.764   141.311
11830.8     91.110   142.443
12002.9     91.416   139.664
12177.5     91.183   136.468
12354.6     90.404   137.644
12534.3     90.090   142.651
12716.6     90.695   146.499
12901.6     91.172   145.001
13089.2     91.361   141.987
13279.6     91.370   138.821
13472.8     91.037   135.194
13668.8     90.239   133.370
13867.6     89.475   135.805
14069.3     89.264   138.468
14273.9     89.240   138.275
14481.5     88.822   137.792
14692.2     88.450   138.651
14905.9     88.022   138.225
15122.7     87.375   139.494
15342.7     86.900   142.522
15565.8     86.799   144.366
15792.2     86.477   143.426
16021.9     85.917   143.287
16255.0     85.177   142.600
16491.4     83.957   145.324
16731.3     83.374   154.097
16974.7     83.681   157.414
17221.6     83.406   155.863
17472.1     82.636   156.461
17726.2     81.909   158.784
17984.0     81.480   161.865
18245.6     81.325   161.046
18511.0     80.364   156.344
18780.2     78.272   156.872
19053.4     76.311   166.598
19330.5     75.627   176.935
19611.7     75.488   178.438
19897.0     74.143   173.140
20186.4     70.879   176.768
20480.0     67.352  -157.165
20777.9     65.768  -119.310
21080.1     66.556   -87.868
21386.7     68.554   -64.621
21697.8     70.566   -54.791
22013.4     72.215   -47.407
22333.6     73.549   -40.546
22658.4     75.141   -33.888
22988.0     76.943   -31.316
23322.4     78.030   -34.956
23661.6     77.899   -37.516
24005.8     77.290   -34.054
24355.0     77.545   -23.687
24709.2     78.866   -14.930
25068.6     80.167   -14.959
25433.2     80.713   -17.685
25803.2     80.782   -18.634
26178.5     80.566   -18.548
26559.3     80.290   -13.229
26945.6     81.040    -4.088
27337.5     82.590    -3.761
27735.2     83.352    -9.701
28138.6     83.284   -15.265
28547.9     83.117   -19.121
28963.1     82.803   -24.919
29384.4     81.955   -29.307
29811.8     81.087   -33.900
30245.4     79.877   -39.320
30685.3     78.011   -43.753
31131.7     75.706   -45.007
31584.5     72.965   -42.722
32043.9     69.960   -33.079
32510.0     67.785   -20.492
32982.8     65.714   -10.809
33462.6     63.549     2.470
33949.3     61.354    13.353
34443.1     58.309    37.008
34944.1     57.418    93.835
35452.4     59.419   123.990
35968.0     61.884   140.879
36491.2     64.490   151.587
37022.0     66.498   154.337
37560.5     67.800   153.849
38106.8     68.379   151.367
38661.1     68.263   150.435
39223.4     67.973   152.276
39793.9     67.749   153.953
