Freq[Hz]     dBSPL  Phase[Deg]
5.00000     42.463  -138.797
5.07273     42.808  -138.985
5.14651     43.152  -139.175
5.22137     43.511  -134.998
5.29732     43.885  -131.233
5.37437     44.303  -128.804
5.45254     44.834  -127.786
5.53185     45.464  -127.883
5.61231     46.091  -128.531
5.69394     46.636  -129.450
5.77676     47.012  -130.673
5.86079     47.273  -132.164
5.94604     47.455  -133.648
6.03252     47.592  -134.825
6.12027     47.692  -135.410
6.20929     47.754  -135.500
6.29961     47.819  -135.213
6.39124     47.967  -134.575
6.48420     48.218  -133.577
6.57851     48.551  -132.394
6.67420     48.946  -131.391
6.77128     49.398  -130.807
6.86977     49.904  -130.628
6.96969     50.433  -130.812
7.07107     50.938  -131.376
7.17392     51.404  -132.318
7.27827     51.835  -133.513
7.38413     52.225  -134.782
7.49154     52.570  -136.058
7.60050     52.870  -137.330
7.71105     53.151  -138.489
7.82321     53.420  -139.493
7.93701     53.683  -140.365
8.05245     53.949  -141.135
8.16958     54.229  -141.827
8.28841     54.519  -142.469
8.40896     54.815  -143.107
8.53128     55.114  -143.779
8.65537     55.411  -144.464
8.78126     55.702  -145.139
8.90899     55.981  -145.786
9.03857     56.256  -146.386
9.17004     56.531  -146.887
9.30342     56.809  -147.305
9.43874     57.101  -147.668
9.57603     57.413  -147.998
9.71532     57.740  -148.348
9.85663     58.079  -148.774
10.0000     58.427  -149.279
10.1455     58.770  -149.873
10.2930     59.101  -150.536
10.4427     59.422  -151.210
10.5946     59.731  -151.864
10.7487     60.035  -152.488
10.9051     60.343  -153.072
11.0637     60.652  -153.636
11.2246     60.965  -154.203
11.3879     61.277  -154.770
11.5535     61.583  -155.318
11.7216     61.885  -155.846
11.8921     62.193  -156.310
12.0650     62.504  -156.755
12.2405     62.834  -157.218
12.4186     63.173  -157.724
12.5992     63.515  -158.348
12.7825     63.849  -159.041
12.9684     64.159  -159.749
13.1570     64.467  -160.453
13.3484     64.768  -161.043
13.5426     65.085  -161.601
13.7395     65.427  -162.226
13.9394     65.787  -163.049
14.1421     66.127  -164.158
14.3478     66.441  -165.383
14.5565     66.684  -166.633
14.7683     66.878  -167.700
14.9831     67.055  -168.372
15.2010     67.275  -168.770
15.4221     67.548  -169.158
15.6464     67.848  -169.732
15.8740     68.137  -170.527
16.1049     68.387  -171.435
16.3392     68.604  -172.317
16.5768     68.808  -173.101
16.8179     69.007  -173.796
17.0626     69.190  -174.399
17.3107     69.348  -174.807
17.5625     69.500  -174.901
17.8180     69.689  -174.683
18.0771     69.943  -174.341
18.3401     70.253  -174.104
18.6068     70.589  -174.111
18.8775     70.930  -174.366
19.1521     71.262  -174.814
19.4306     71.577  -175.374
19.7133     71.871  -175.951
20.0000     72.155  -176.473
20.2909     72.446  -176.938
20.5860     72.750  -177.421
20.8855     73.056  -177.969
21.1893     73.358  -178.571
21.4975     73.655  -179.201
21.8102     73.953  -179.844
22.1274     74.248   179.476
22.4492     74.540   178.777
22.7758     74.825   178.063
23.1071     75.105   177.353
23.4432     75.383   176.657
23.7841     75.659   175.971
24.1301     75.933   175.290
24.4811     76.203   174.637
24.8372     76.471   174.023
25.1984     76.748   173.447
25.5649     77.031   172.864
25.9368     77.316   172.266
26.3141     77.602   171.670
26.6968     77.895   171.077
27.0851     78.198   170.445
27.4791     78.503   169.704
27.8788     78.798   168.877
28.2843     79.074   168.055
28.6957     79.345   167.285
29.1131     79.618   166.560
29.5365     79.897   165.836
29.9661     80.169   165.123
30.4020     80.449   164.445
30.8442     80.741   163.740
31.2929     81.034   162.985
31.7480     81.328   162.177
32.2098     81.622   161.316
32.6783     81.912   160.397
33.1536     82.193   159.434
33.6359     82.467   158.447
34.1251     82.731   157.445
34.6215     82.981   156.474
35.1250     83.223   155.596
35.6359     83.471   154.816
36.1543     83.730   154.085
36.6802     83.998   153.368
37.2137     84.279   152.649
37.7550     84.573   151.883
38.3041     84.872   151.058
38.8613     85.174   150.146
39.4265     85.475   149.198
40.0000     85.781   148.201
40.5818     86.088   147.102
41.1721     86.386   145.909
41.7710     86.675   144.651
42.3785     86.952   143.376
42.9949     87.224   142.116
43.6203     87.499   140.849
44.2548     87.778   139.541
44.8985     88.063   138.147
45.5515     88.350   136.573
46.2141     88.618   134.739
46.8863     88.823   132.707
47.5683     88.950   130.831
48.2602     89.037   129.534
48.9621     89.178   128.749
49.6743     89.371   128.036
50.3968     89.608   127.249
51.1299     89.871   126.326
51.8736     90.149   125.196
52.6281     90.425   123.883
53.3936     90.691   122.456
54.1702     90.949   120.961
54.9581     91.201   119.416
55.7575     91.449   117.820
56.5685     91.693   116.176
57.3914     91.936   114.480
58.2261     92.175   112.713
59.0730     92.406   110.863
59.9323     92.626   108.986
60.8040     92.844   107.067
61.6884     93.051   105.055
62.5857     93.243   103.039
63.4960     93.435   101.039
64.4196     93.633    98.980
65.3566     93.832    96.753
66.3073     94.010    94.293
67.2717     94.139    91.679
68.2502     94.209    89.128
69.2429     94.235    86.887
70.2501     94.262    85.122
71.2719     94.352    83.627
72.3086     94.505    81.903
73.3603     94.661    79.774
74.4274     94.786    77.411
75.5099     94.877    74.975
76.6083     94.945    72.520
77.7226     94.991    70.057
78.8531     95.014    67.599
80.0000     95.014    65.163
81.1636     94.986    62.726
82.3442     94.912    60.414
83.5419     94.813    58.455
84.7570     94.727    56.824
85.9899     94.672    55.375
87.2406     94.651    53.982
88.5096     94.658    52.541
89.7970     94.687    50.902
91.1031     94.712    49.045
92.4282     94.709    47.012
93.7726     94.674    44.980
95.1366     94.619    43.041
96.5204     94.555    41.163
97.9243     94.482    39.294
99.3486     94.394    37.473
100.794     94.295    35.715
102.260     94.180    34.033
103.747     94.055    32.518
105.256     93.937    31.186
106.787     93.838    29.926
108.340     93.754    28.629
109.916     93.667    27.241
111.515     93.567    25.834
113.137     93.447    24.467
114.783     93.309    23.220
116.452     93.182    22.320
118.146     93.082    21.485
119.865     93.023    20.570
121.608     92.975    19.557
123.377     92.930    18.325
125.171     92.869    16.971
126.992     92.763    15.540
128.839     92.625    14.470
130.713     92.490    13.756
132.615     92.404    13.075
134.543     92.368    12.278
136.500     92.342    11.254
138.486     92.304    10.029
140.500     92.245     8.768
142.544     92.182     7.561
144.617     92.127     6.194
146.721     92.022     4.508
148.855     91.847     3.087
151.020     91.658     2.194
153.217     91.517     1.668
155.445     91.434     1.065
157.706     91.366     0.270
160.000     91.320    -0.579
162.327     91.271    -1.916
164.688     91.147    -3.317
167.084     90.991    -4.380
169.514     90.836    -5.242
171.980     90.684    -5.908
174.481     90.563    -6.367
177.019     90.480    -6.899
179.594     90.401    -7.602
182.206     90.313    -8.266
184.856     90.233    -8.850
187.545     90.173    -9.367
190.273     90.157    -9.973
193.041     90.162   -11.008
195.849     90.114   -12.496
198.697     89.980   -13.856
201.587     89.824   -14.632
204.520     89.714   -15.083
207.494     89.661   -15.529
210.512     89.646   -16.206
213.574     89.640   -17.120
216.681     89.641   -18.255
219.833     89.642   -19.654
223.030     89.581   -21.592
226.274     89.444   -23.535
229.565     89.227   -25.208
232.905     88.979   -26.296
236.292     88.780   -26.931
239.729     88.632   -27.666
243.216     88.445   -28.771
246.754     88.183   -29.503
250.343     87.941   -29.558
253.984     87.747   -29.279
257.678     87.635   -28.730
261.426     87.582   -28.285
265.229     87.570   -27.828
269.087     87.648   -27.338
273.001     87.793   -27.862
276.972     87.855   -29.169
281.000     87.798   -30.319
285.088     87.709   -31.037
289.234     87.664   -31.292
293.441     87.679   -31.709
297.709     87.711   -32.523
302.040     87.712   -33.727
306.433     87.647   -35.090
310.890     87.535   -36.285
315.412     87.386   -37.356
320.000     87.215   -38.142
324.655     87.064   -38.587
329.377     86.941   -39.099
334.168     86.814   -39.653
339.028     86.688   -40.172
343.959     86.559   -40.672
348.962     86.432   -41.132
354.038     86.305   -41.572
359.188     86.175   -41.973
364.412     86.046   -42.315
369.713     85.921   -42.595
375.090     85.800   -42.814
380.546     85.686   -42.967
386.081     85.578   -43.075
391.697     85.481   -43.121
397.394     85.390   -43.137
403.175     85.312   -43.109
409.039     85.244   -43.055
414.989     85.189   -42.983
421.025     85.148   -42.907
427.149     85.118   -42.836
433.362     85.102   -42.786
439.665     85.099   -42.769
446.060     85.108   -42.793
452.548     85.128   -42.873
459.131     85.160   -43.027
465.809     85.199   -43.248
472.584     85.246   -43.559
479.458     85.299   -43.958
486.432     85.355   -44.442
493.507     85.415   -45.031
500.686     85.475   -45.720
507.968     85.534   -46.500
515.357     85.591   -47.381
522.853     85.642   -48.355
530.458     85.688   -49.412
538.174     85.728   -50.552
546.002     85.759   -51.773
553.943     85.781   -53.063
562.001     85.793   -54.414
570.175     85.795   -55.812
578.469     85.783   -57.265
586.883     85.760   -58.752
595.419     85.725   -60.264
604.080     85.679   -61.793
612.866     85.619   -63.331
621.780     85.548   -64.868
630.824     85.463   -66.392
640.000     85.369   -67.896
649.309     85.262   -69.366
658.753     85.146   -70.797
668.335     85.023   -72.179
678.056     84.893   -73.508
687.919     84.758   -74.777
697.925     84.620   -75.987
708.077     84.482   -77.135
718.376     84.344   -78.226
728.825     84.210   -79.267
739.426     84.080   -80.268
750.181     83.957   -81.243
761.093     83.842   -82.209
772.163     83.736   -83.190
783.394     83.636   -84.203
794.789     83.543   -85.267
806.349     83.455   -86.402
818.078     83.369   -87.627
829.977     83.283   -88.950
842.050     83.194   -90.377
854.298     83.098   -91.917
866.724     82.991   -93.564
879.330     82.871   -95.301
892.120     82.731   -97.129
905.097     82.573   -99.005
918.262     82.392  -100.916
931.618     82.187  -102.825
945.169     81.959  -104.700
958.917     81.707  -106.499
972.864     81.433  -108.180
987.015     81.141  -109.708
1001.37     80.837  -111.032
1015.94     80.527  -112.143
1030.71     80.220  -113.020
1045.71     79.923  -113.667
1060.92     79.645  -114.137
1076.35     79.393  -114.473
1092.00     79.168  -114.759
1107.89     78.970  -115.076
1124.00     78.793  -115.505
1140.35     78.626  -116.062
1156.94     78.459  -116.797
1173.77     78.286  -117.612
1190.84     78.091  -118.438
1208.16     77.886  -119.210
1225.73     77.667  -119.638
1243.56     77.450  -119.728
1261.65     77.271  -119.172
1280.00     77.155  -118.071
1298.62     77.215  -116.464
1317.51     77.295  -114.875
1336.67     77.582  -113.789
1356.11     77.973  -113.654
1375.84     78.430  -114.785
1395.85     78.903  -117.275
1416.15     79.332  -121.277
1436.75     79.713  -126.005
1457.65     79.976  -131.894
1478.85     80.128  -138.442
1500.36     80.144  -145.539
1522.19     79.983  -152.981
1544.33     79.654  -160.443
1566.79     79.153  -167.606
1589.58     78.484  -174.028
1612.70     77.671  -179.059
1636.16     76.780   178.237
1659.95     75.951   178.936
1684.10     75.391  -176.599
1708.60     75.289  -170.105
1733.45     75.669  -165.192
1758.66     76.355  -164.377
1784.24     77.120  -167.618
1810.19     77.802  -173.787
1836.52     78.317   178.172
1863.24     78.635   169.025
1890.34     78.746   159.313
1917.83     78.657   149.458
1945.73     78.377   139.820
1974.03     77.927   130.722
2002.74     77.319   122.572
2031.87     76.601   115.528
2061.43     75.805   109.827
2091.41     74.968   105.514
2121.83     74.122   102.535
2152.69     73.307   101.315
2184.01     72.540   101.429
2215.77     72.020   105.426
2248.00     71.764   111.874
2280.70     72.028   119.979
2313.87     72.724   125.090
2347.53     73.644   124.987
2381.68     74.544   119.967
2416.32     75.305   112.203
2451.46     75.776   102.138
2487.12     75.990    91.137
2523.30     75.844    79.700
2560.00     75.394    68.610
2597.24     74.635    58.664
2635.01     73.619    50.781
2673.34     72.409    47.154
2712.23     71.181    47.976
2751.68     70.095    53.409
2791.70     69.222    59.592
2832.31     68.721    68.568
2873.50     68.945    90.079
2915.30     70.125   116.509
2957.70     72.170   131.525
3000.72     74.420   126.533
3044.37     76.259   113.515
3088.65     77.542    97.559
3133.58     78.329    80.595
3179.16     78.572    63.585
3225.40     78.357    47.334
3272.31     77.687    32.298
3319.91     76.548    18.199
3368.20     74.863     3.494
3417.19     72.589   -15.531
3466.89     70.520   -71.123
3517.32     70.739  -174.168
3568.48     73.404   125.518
3620.39     75.869    96.176
3673.05     77.240    68.598
3726.47     77.535    41.867
3780.67     76.871    19.244
3835.67     75.798     7.626
3891.46     74.905    22.115
3948.06     74.469    44.971
4005.49     74.283    28.041
4063.75     74.116    11.821
4122.86     74.937    83.302
4182.82     76.871    91.260
4243.66     78.473    58.933
4305.39     79.006    23.579
4368.01     78.325   -12.654
4431.55     76.751   -43.474
4496.01     75.457    29.101
4561.40     74.907    24.798
4627.75     74.108   -18.959
4695.06     72.672   -11.205
4763.35     72.458   157.475
4832.64     74.274    71.487
4902.93     75.322    20.436
4974.24     75.448   -20.366
5046.60     75.644    28.344
5120.00     76.196    46.256
5194.47     76.410    -0.264
5270.03     75.920   -47.446
5346.68     75.620     8.814
5424.45     75.780    30.197
5503.35     75.621   -21.970
5583.40     74.652   -76.818
5664.61     74.066    -7.375
5747.01     73.934    11.434
5830.60     73.759   -28.425
5915.41     73.080   -46.202
6001.45     72.375     1.064
6088.74     72.325     0.610
6177.30     72.537    -6.923
6267.15     72.846    -7.419
6358.31     73.255     7.883
6450.80     73.372   -11.463
6544.62     72.985   -82.775
6639.82     72.481   -73.660
6736.40     72.002   -10.001
6834.38     71.202    12.381
6933.79     71.007   119.126
7034.64     71.580    -2.312
7136.96     70.611    20.717
7240.77     69.181   119.074
7346.09     69.203   -10.920
7452.94     69.477    43.105
7561.35     70.021    67.985
7671.33     70.083   -66.963
7782.91     69.670  -111.784
7896.12     70.093    11.436
8010.97     69.983  -121.481
8127.49     69.992    83.739
8245.71     70.478   -50.572
8365.65     69.094   119.229
8487.33     68.068    -0.129
8610.78     67.285  -150.068
8736.03     67.672     9.656
8863.09     67.829   -60.312
8992.01     67.155    81.404
9122.80     67.155   -40.384
9255.50     66.695  -163.257
9390.12     66.126     2.869
9526.70     65.428   -18.563
9665.27     64.819   104.748
9805.86     64.433   -57.412
9948.49     63.715   -18.220
10093.2     63.304   -39.594
10240.0     63.238    -5.126
10388.9     63.169   -41.522
10540.1     62.438    -2.964
10693.4     61.516   -56.892
10848.9     60.851   -11.407
11006.7     60.324   -79.458
11166.8     59.342    -4.044
11329.2     58.095  -114.378
11494.0     57.089    29.083
11661.2     55.893   111.538
11830.8     54.951    41.573
12002.9     55.375    66.137
12177.5     55.394   -58.530
12354.6     53.280    -5.444
12534.3     51.485   -44.007
12716.6     51.077    11.500
12901.6     51.081   -73.272
13089.2     50.935   -57.218
13279.6     50.736   -20.886
13472.8     51.224    83.099
13668.8     52.427    78.424
13867.6     53.499   -31.562
14069.3     54.112    35.067
14273.9     54.146    24.680
14481.5     53.591   120.402
14692.2     53.629   169.803
14905.9     53.497  -143.435
15122.7     52.758   -99.191
15342.7     51.870   -57.754
15565.8     50.551   -12.381
15792.2     47.359    38.396
16021.9     44.497    73.738
16255.0     44.605   113.253
16491.4     45.072    71.408
16731.3     45.784    79.430
16974.7     47.229   110.535
17221.6     47.679   151.788
17472.1     47.536  -135.900
17726.2     47.901   -69.611
17984.0     48.414    -6.411
18245.6     48.314    19.644
18511.0     47.463    87.436
18780.2     46.948   -56.482
19053.4     47.017   -59.457
19330.5     46.653   -17.763
19611.7     45.911    -0.886
19897.0     46.240   -24.526
20186.4     47.679   -54.531
20480.0     49.095   -72.509
20777.9     49.950  -116.410
21080.1     50.563  -151.452
21386.7     51.561    18.778
21697.8     52.971    76.558
22013.4     54.310   -66.635
22333.6     55.441   -44.735
22658.4     56.089  -104.623
22988.0     55.876  -179.582
23322.4     54.888    -4.508
23661.6     54.340   160.674
24005.8     55.037   156.611
24355.0     56.138    22.107
24709.2     56.767   -20.114
25068.6     57.001  -158.447
25433.2     56.712   135.660
25803.2     55.936    64.835
26178.5     55.267   -28.362
26559.3     55.051   116.665
26945.6     54.710   -23.610
27337.5     53.349    35.305
27735.2     51.808    16.800
28138.6     50.860   130.664
28547.9     50.560    49.700
28963.1     51.374   -44.265
29384.4     52.259   123.179
29811.8     52.765    67.956
30245.4     52.910    72.206
30685.3     52.700   173.789
31131.7     51.703   -52.915
31584.5     50.147    37.296
32043.9     48.891  -110.832
32510.0     48.911    27.152
32982.8     50.034   148.127
33462.6     50.167  -107.868
33949.3     48.618   -16.623
34443.1     45.918    65.749
34944.1     43.428   141.243
35452.4     42.980  -152.699
35968.0     43.419   -97.935
36491.2     43.230   -47.635
37022.0     42.149    -2.057
37560.5     40.710    29.789
38106.8     39.814    43.906
38661.1     39.420    45.971
39223.4     39.076    41.492
39793.9     38.569    33.830
