Freq[Hz]     dBSPL  Phase[Deg]
5.00000     42.463  -138.797
5.07273     42.808  -138.985
5.14651     43.152  -139.175
5.22137     43.511  -134.998
5.29732     43.885  -131.233
5.37437     44.303  -128.804
5.45254     44.834  -127.786
5.53185     45.464  -127.883
5.61231     46.091  -128.531
5.69394     46.636  -129.450
5.77676     47.012  -130.673
5.86079     47.273  -132.164
5.94604     47.455  -133.648
6.03252     47.592  -134.825
6.12027     47.692  -135.410
6.20929     47.754  -135.500
6.29961     47.819  -135.213
6.39124     47.967  -134.575
6.48420     48.218  -133.577
6.57851     48.551  -132.394
6.67420     48.946  -131.391
6.77128     49.398  -130.807
6.86977     49.904  -130.628
6.96969     50.433  -130.812
7.07107     50.938  -131.376
7.17392     51.404  -132.318
7.27827     51.835  -133.513
7.38413     52.225  -134.782
7.49154     52.570  -136.058
7.60050     52.870  -137.330
7.71105     53.151  -138.489
7.82321     53.420  -139.493
7.93701     53.683  -140.365
8.05245     53.949  -141.135
8.16958     54.229  -141.827
8.28841     54.519  -142.469
8.40896     54.815  -143.107
8.53128     55.114  -143.779
8.65537     55.411  -144.464
8.78126     55.702  -145.139
8.90899     55.981  -145.786
9.03857     56.256  -146.386
9.17004     56.531  -146.887
9.30342     56.809  -147.305
9.43874     57.101  -147.668
9.57603     57.413  -147.998
9.71532     57.740  -148.348
9.85663     58.079  -148.774
10.0000     58.427  -149.279
10.1455     58.770  -149.873
10.2930     59.101  -150.536
10.4427     59.422  -151.210
10.5946     59.731  -151.864
10.7487     60.035  -152.488
10.9051     60.343  -153.072
11.0637     60.652  -153.636
11.2246     60.965  -154.203
11.3879     61.277  -154.770
11.5535     61.583  -155.318
11.7216     61.885  -155.846
11.8921     62.193  -156.310
12.0650     62.504  -156.755
12.2405     62.834  -157.218
12.4186     63.173  -157.724
12.5992     63.515  -158.348
12.7825     63.849  -159.041
12.9684     64.159  -159.749
13.1570     64.467  -160.453
13.3484     64.768  -161.043
13.5426     65.085  -161.601
13.7395     65.427  -162.226
13.9394     65.787  -163.049
14.1421     66.127  -164.158
14.3478     66.441  -165.383
14.5565     66.684  -166.633
14.7683     66.878  -167.700
14.9831     67.055  -168.372
15.2010     67.275  -168.770
15.4221     67.548  -169.158
15.6464     67.848  -169.732
15.8740     68.137  -170.527
16.1049     68.387  -171.435
16.3392     68.604  -172.317
16.5768     68.808  -173.101
16.8179     69.007  -173.796
17.0626     69.190  -174.399
17.3107     69.348  -174.807
17.5625     69.500  -174.901
17.8180     69.689  -174.683
18.0771     69.943  -174.341
18.3401     70.253  -174.104
18.6068     70.589  -174.111
18.8775     70.930  -174.366
19.1521     71.262  -174.814
19.4306     71.577  -175.374
19.7133     71.871  -175.951
20.0000     72.155  -176.473
20.2909     72.446  -176.938
20.5860     72.750  -177.421
20.8855     73.056  -177.969
21.1893     73.358  -178.571
21.4975     73.655  -179.201
21.8102     73.953  -179.844
22.1274     74.248   179.476
22.4492     74.540   178.777
22.7758     74.825   178.063
23.1071     75.105   177.353
23.4432     75.383   176.657
23.7841     75.659   175.971
24.1301     75.933   175.290
24.4811     76.203   174.637
24.8372     76.471   174.023
25.1984     76.748   173.447
25.5649     77.031   172.864
25.9368     77.316   172.266
26.3141     77.602   171.670
26.6968     77.895   171.077
27.0851     78.198   170.445
27.4791     78.503   169.704
27.8788     78.798   168.877
28.2843     79.074   168.055
28.6957     79.345   167.285
29.1131     79.618   166.560
29.5365     79.897   165.836
29.9661     80.169   165.123
30.4020     80.449   164.445
30.8442     80.741   163.740
31.2929     81.034   162.985
31.7480     81.328   162.177
32.2098     81.622   161.316
32.6783     81.912   160.397
33.1536     82.193   159.434
33.6359     82.467   158.447
34.1251     82.731   157.445
34.6215     82.981   156.474
35.1250     83.223   155.596
35.6359     83.471   154.816
36.1543     83.730   154.085
36.6802     83.998   153.368
37.2137     84.279   152.649
37.7550     84.573   151.883
38.3041     84.872   151.058
38.8613     85.174   150.146
39.4265     85.475   149.198
40.0000     85.781   148.201
40.5818     86.088   147.106
41.1721     86.388   145.924
41.7710     86.679   144.684
42.3785     86.958   143.434
42.9949     87.235   142.205
43.6203     87.514   140.975
44.2548     87.799   139.709
44.8985     88.091   138.364
45.5515     88.385   136.843
46.2141     88.661   135.068
46.8863     88.875   133.099
47.5683     89.012   131.291
48.2602     89.110   130.066
48.9621     89.262   129.357
49.6743     89.468   128.724
50.3968     89.719   128.021
51.1299     89.996   127.185
51.8736     90.290   126.147
52.6281     90.581   124.929
53.3936     90.865   123.599
54.1702     91.140   122.204
54.9581     91.411   120.763
55.7575     91.678   119.273
56.5685     91.943   117.738
57.3914     92.207   116.154
58.2261     92.468   114.501
59.0730     92.722   112.768
59.9323     92.965   111.010
60.8040     93.208   109.212
61.6884     93.440   107.323
62.5857     93.658   105.432
63.4960     93.877   103.560
64.4196     94.103   101.631
65.3566     94.330    99.535
66.3073     94.537    97.209
67.2717     94.697    94.730
68.2502     94.798    92.316
69.2429     94.855    90.215
70.2501     94.914    88.590
71.2719     95.038    87.239
72.3086     95.224    85.659
73.3603     95.415    83.677
74.4274     95.576    81.462
75.5099     95.703    79.175
76.6083     95.807    76.871
77.7226     95.891    74.562
78.8531     95.953    72.258
80.0000     95.992    69.979
81.1636     96.004    67.700
82.3442     95.970    65.548
83.5419     95.912    63.751
84.7570     95.868    62.283
85.9899     95.856    61.000
87.2406     95.878    59.773
88.5096     95.928    58.502
89.7970     96.002    57.033
91.1031     96.073    55.349
92.4282     96.116    53.490
93.7726     96.127    51.633
95.1366     96.119    49.873
96.5204     96.104    48.175
97.9243     96.080    46.487
99.3486     96.041    44.850
100.794     95.992    43.278
102.260     95.928    41.784
103.747     95.854    40.459
105.256     95.788    39.319
106.787     95.741    38.253
108.340     95.711    37.152
109.916     95.678    35.962
111.515     95.632    34.755
113.137     95.568    33.591
114.783     95.485    32.549
116.452     95.414    31.856
118.146     95.372    31.230
119.865     95.371    30.526
121.608     95.381    29.727
123.377     95.394    28.711
125.171     95.393    27.575
126.992     95.348    26.365
128.839     95.270    25.519
130.713     95.197    25.029
132.615     95.173    24.576
134.543     95.199    24.009
136.500     95.237    23.217
138.486     95.262    22.226
140.500     95.267    21.202
142.544     95.270    20.234
144.617     95.281    19.108
146.721     95.242    17.665
148.855     95.134    16.490
151.020     95.012    15.844
153.217     94.939    15.567
155.445     94.925    15.215
157.706     94.927    14.674
160.000     94.950    14.079
162.327     94.972    12.998
164.688     94.919    11.855
167.084     94.835    11.050
169.514     94.753    10.449
171.980     94.673    10.045
174.481     94.626     9.848
177.019     94.617     9.579
179.594     94.613     9.140
182.206     94.601     8.740
184.856     94.596     8.421
187.545     94.613     8.167
190.273     94.674     7.825
193.041     94.756     7.053
195.849     94.787     5.827
198.697     94.731     4.727
201.587     94.654     4.210
204.520     94.624     4.016
207.494     94.651     3.824
210.512     94.717     3.397
213.574     94.792     2.732
216.681     94.874     1.840
219.833     94.958     0.680
223.030     94.979    -1.024
226.274     94.925    -2.739
229.565     94.791    -4.191
232.905     94.627    -5.064
236.292     94.511    -5.492
239.729     94.447    -6.029
243.216     94.345    -6.946
246.754     94.167    -7.501
250.343     94.009    -7.391
253.984     93.899    -6.956
257.678     93.873    -6.259
261.426     93.907    -5.679
265.229     93.980    -5.103
269.087     94.143    -4.516
273.001     94.371    -4.967
276.972     94.514    -6.224
281.000     94.538    -7.350
285.088     94.527    -8.070
289.234     94.559    -8.356
293.441     94.649    -8.830
297.709     94.756    -9.726
302.040     94.831   -11.035
306.433     94.841   -12.520
310.890     94.804   -13.860
315.412     94.732   -15.099
320.000     94.638   -16.073
324.655     94.566   -16.733
329.377     94.521   -17.486
334.168     94.473   -18.311
339.028     94.423   -19.130
343.959     94.372   -19.962
348.962     94.320   -20.786
354.038     94.266   -21.624
359.188     94.207   -22.457
364.412     94.146   -23.265
369.713     94.084   -24.045
375.090     94.022   -24.796
380.546     93.960   -25.515
386.081     93.899   -26.211
391.697     93.840   -26.872
397.394     93.782   -27.515
403.175     93.726   -28.128
409.039     93.674   -28.718
414.989     93.624   -29.286
421.025     93.578   -29.835
427.149     93.536   -30.370
433.362     93.499   -30.891
439.665     93.466   -31.405
446.060     93.438   -31.915
452.548     93.415   -32.425
459.131     93.397   -32.940
465.809     93.384   -33.463
472.584     93.375   -34.000
479.458     93.370   -34.552
486.432     93.368   -35.123
493.507     93.371   -35.718
500.686     93.376   -36.338
507.968     93.383   -36.982
515.357     93.393   -37.654
522.853     93.403   -38.353
530.458     93.414   -39.075
538.174     93.425   -39.821
546.002     93.436   -40.590
553.943     93.447   -41.376
562.001     93.457   -42.177
570.175     93.467   -42.989
578.469     93.477   -43.811
586.883     93.487   -44.637
595.419     93.497   -45.466
604.080     93.508   -46.296
612.866     93.522   -47.126
621.780     93.539   -47.956
630.824     93.559   -48.789
640.000     93.584   -49.628
649.309     93.616   -50.481
658.753     93.654   -51.354
668.335     93.699   -52.257
678.056     93.751   -53.202
687.919     93.811   -54.199
697.925     93.878   -55.261
708.077     93.951   -56.400
718.376     94.028   -57.629
728.825     94.108   -58.956
739.426     94.189   -60.391
750.181     94.268   -61.939
761.093     94.343   -63.609
772.163     94.409   -65.399
783.394     94.466   -67.295
794.789     94.511   -69.289
806.349     94.541   -71.378
818.078     94.552   -73.548
829.977     94.544   -75.778
842.050     94.515   -78.050
854.298     94.462   -80.343
866.724     94.386   -82.630
879.330     94.287   -84.887
892.120     94.163   -87.073
905.097     94.020   -89.181
918.262     93.858   -91.161
931.618     93.681   -92.999
945.169     93.495   -94.675
958.917     93.304   -96.170
972.864     93.117   -97.480
987.015     92.940   -98.619
1001.37     92.780   -99.600
1015.94     92.641  -100.469
1030.71     92.528  -101.270
1045.71     92.443  -102.056
1060.92     92.379  -102.874
1076.35     92.338  -103.768
1092.00     92.310  -104.762
1107.89     92.289  -105.859
1124.00     92.268  -107.056
1140.35     92.244  -108.311
1156.94     92.210  -109.596
1173.77     92.171  -110.872
1190.84     92.127  -112.060
1208.16     92.084  -113.202
1225.73     92.053  -114.206
1243.56     92.036  -115.133
1261.65     92.050  -115.988
1280.00     92.094  -116.841
1298.62     92.188  -117.832
1317.51     92.286  -118.847
1336.67     92.421  -120.146
1356.11     92.568  -121.673
1375.84     92.714  -123.436
1395.85     92.853  -125.410
1416.15     92.972  -127.563
1436.75     93.079  -129.779
1457.65     93.165  -132.053
1478.85     93.241  -134.324
1500.36     93.310  -136.565
1522.19     93.386  -138.780
1544.33     93.474  -141.017
1566.79     93.576  -143.339
1589.58     93.691  -145.812
1612.70     93.809  -148.489
1636.16     93.920  -151.398
1659.95     94.010  -154.535
1684.10     94.067  -157.851
1708.60     94.085  -161.275
1733.45     94.059  -164.719
1758.66     93.992  -168.093
1784.24     93.893  -171.333
1810.19     93.773  -174.409
1836.52     93.644  -177.340
1863.24     93.510   179.822
1890.34     93.369   177.011
1917.83     93.212   174.186
1945.73     93.024   171.354
1974.03     92.789   168.596
2002.74     92.492   166.098
2031.87     92.146   164.024
2061.43     91.766   162.594
2091.41     91.390   161.939
2121.83     91.063   162.041
2152.69     90.843   162.799
2184.01     90.693   163.823
2215.77     90.681   165.123
2248.00     90.748   166.528
2280.70     90.955   168.038
2313.87     91.318   169.425
2347.53     91.853   170.251
2381.68     92.533   169.841
2416.32     93.262   168.166
2451.46     93.946   164.730
2487.12     94.522   160.179
2523.30     94.886   154.635
2560.00     95.047   148.809
2597.24     94.991   143.196
2635.01     94.754   138.275
2673.34     94.383   134.775
2712.23     94.002   132.631
2751.68     93.753   132.008
2791.70     93.727   131.927
2832.31     93.941   131.282
2873.50     94.253   129.528
2915.30     94.570   126.530
2957.70     94.797   122.478
3000.72     94.869   117.842
3044.37     94.764   113.301
3088.65     94.553   109.357
3133.58     94.327   105.981
3179.16     94.145   102.824
3225.40     93.989    99.281
3272.31     93.777    95.016
3319.91     93.391    90.190
3368.20     92.739    85.533
3417.19     91.808    82.168
3466.89     90.700    81.272
3517.32     89.642    83.480
3568.48     88.915    88.200
3620.39     88.686    93.581
3673.05     88.895    97.524
3726.47     89.299    98.746
3780.67     89.553    97.079
3835.67     89.533    94.187
3891.46     88.989    92.263
3948.06     88.181    92.366
4005.49     87.586    97.526
4063.75     87.609   103.933
4122.86     88.080   107.928
4182.82     88.604   109.706
4243.66     89.158   110.512
4305.39     89.778   109.740
4368.01     90.264   106.610
4431.55     90.327   102.215
4496.01     90.031    98.803
4561.40     89.577    97.470
4627.75     89.126    97.279
4695.06     88.598    98.543
4763.35     88.177   102.962
4832.64     88.449   109.669
4902.93     89.327   111.177
4974.24     89.845   108.228
5046.60     89.641   105.864
5120.00     89.377   107.021
5194.47     89.544   109.536
5270.03     89.859   109.862
5346.68     90.047   109.958
5424.45     90.344   110.800
5503.35     90.875   110.111
5583.40     91.198   106.662
5664.61     91.088   103.271
5747.01     90.811   101.135
5830.60     90.471   100.159
5915.41     90.106    99.967
6001.45     89.691   100.861
6088.74     89.360   103.575
6177.30     89.296   107.419
6267.15     89.535   110.843
6358.31     89.927   112.697
6450.80     90.290   113.356
6544.62     90.606   113.676
6639.82     90.982   113.586
6736.40     91.326   111.823
6834.38     91.322   109.171
6933.79     91.080   108.387
7034.64     90.963   108.641
7136.96     90.773   108.400
7240.77     90.449   109.937
7346.09     90.315   113.166
7452.94     90.442   116.980
7561.35     90.894   120.112
7671.33     91.474   121.596
7782.91     92.059   121.576
7896.12     92.633   119.847
8010.97     92.797   116.749
8127.49     92.817   115.170
8245.71     92.768   113.303
8365.65     92.567   112.859
8487.33     92.394   113.024
8610.78     92.227   114.795
8736.03     92.371   117.369
8863.09     92.729   119.145
8992.01     93.308   119.578
9122.80     93.775   116.993
9255.50     93.861   113.327
9390.12     93.595   110.231
9526.70     93.072   109.615
9665.27     92.716   112.097
9805.86     92.793   115.029
9948.49     93.087   115.920
10093.2     93.197   115.342
10240.0     93.206   115.539
10388.9     93.324   116.227
10540.1     93.528   115.582
10693.4     93.509   113.968
10848.9     93.240   113.463
11006.7     93.040   115.056
11166.8     93.069   116.733
11329.2     93.125   117.604
11494.0     93.163   118.811
11661.2     93.484   120.218
11830.8     93.841   119.704
12002.9     93.986   116.706
12177.5     93.730   114.324
12354.6     93.200   116.063
12534.3     93.068   119.839
12716.6     93.437   121.856
12901.6     93.734   121.261
13089.2     93.943   120.034
13279.6     93.961   117.914
13472.8     93.648   116.098
13668.8     93.190   117.042
13867.6     93.074   120.105
14069.3     93.277   121.511
14273.9     93.405   120.962
14481.5     93.468   120.989
14692.2     93.513   119.444
14905.9     93.221   118.350
15122.7     92.930   119.480
15342.7     92.924   121.281
15565.8     93.121   121.124
15792.2     93.130   119.055
16021.9     92.873   116.628
16255.0     92.241   115.149
16491.4     91.608   118.325
16731.3     91.703   121.241
16974.7     91.747   119.491
17221.6     91.234   117.267
17472.1     90.367   117.940
17726.2     89.670   123.272
17984.0     89.786   129.059
18245.6     90.100   129.174
18511.0     89.786   127.435
18780.2     89.109   128.953
19053.4     88.718   133.938
19330.5     88.922   138.036
19611.7     89.151   137.650
19897.0     88.785   136.253
20186.4     88.203   138.890
20480.0     88.079   142.936
20777.9     88.218   143.976
21080.1     87.959   142.807
21386.7     87.269   143.931
21697.8     86.995   148.689
22013.4     86.962   151.558
22333.6     86.761   151.978
22658.4     86.379   154.179
22988.0     86.264   157.813
23322.4     86.316   158.660
23661.6     85.992   158.574
24005.8     85.448   160.800
24355.0     85.397   164.822
24709.2     85.637   165.213
25068.6     85.224   163.019
25433.2     84.389   164.337
25803.2     84.044   169.375
26178.5     84.103   170.435
26559.3     83.894   170.313
26945.6     83.709   170.282
27337.5     83.418   167.469
27735.2     82.630   164.322
28138.6     81.568   163.359
28547.9     80.559   162.735
28963.1     79.156   161.612
29384.4     77.513   165.351
29811.8     76.212   170.035
30245.4     74.981   173.764
30685.3     73.510   177.963
31131.7     72.052  -175.333
31584.5     70.526  -168.308
32043.9     68.903  -156.562
32510.0     68.057  -142.498
32982.8     67.405  -132.317
33462.6     66.863  -121.307
33949.3     66.476  -111.437
34443.1     66.181  -101.083
34944.1     66.216   -92.936
35452.4     65.838   -89.014
35968.0     64.831   -81.332
36491.2     64.160   -68.582
37022.0     64.029   -57.030
37560.5     64.109   -48.150
38106.8     63.961   -41.178
38661.1     63.828   -31.220
39223.4     64.131   -23.879
39793.9     64.364   -18.305
