Freq[Hz]     dBSPL  Phase[Deg]
5.00000     42.463  -138.797
5.07273     42.808  -138.985
5.14651     43.152  -139.175
5.22137     43.511  -134.998
5.29732     43.885  -131.233
5.37437     44.303  -128.804
5.45254     44.834  -127.786
5.53185     45.464  -127.883
5.61231     46.091  -128.531
5.69394     46.636  -129.450
5.77676     47.012  -130.673
5.86079     47.273  -132.164
5.94604     47.455  -133.648
6.03252     47.592  -134.825
6.12027     47.692  -135.410
6.20929     47.754  -135.500
6.29961     47.819  -135.213
6.39124     47.967  -134.575
6.48420     48.218  -133.577
6.57851     48.551  -132.394
6.67420     48.946  -131.391
6.77128     49.398  -130.807
6.86977     49.904  -130.628
6.96969     50.433  -130.812
7.07107     50.938  -131.376
7.17392     51.404  -132.318
7.27827     51.835  -133.513
7.38413     52.225  -134.782
7.49154     52.570  -136.058
7.60050     52.870  -137.330
7.71105     53.151  -138.489
7.82321     53.420  -139.493
7.93701     53.683  -140.365
8.05245     53.949  -141.135
8.16958     54.229  -141.827
8.28841     54.519  -142.469
8.40896     54.815  -143.107
8.53128     55.114  -143.779
8.65537     55.411  -144.464
8.78126     55.702  -145.139
8.90899     55.981  -145.786
9.03857     56.256  -146.386
9.17004     56.531  -146.887
9.30342     56.809  -147.305
9.43874     57.101  -147.668
9.57603     57.413  -147.998
9.71532     57.740  -148.348
9.85663     58.079  -148.774
10.0000     58.427  -149.279
10.1455     58.770  -149.873
10.2930     59.101  -150.536
10.4427     59.422  -151.210
10.5946     59.731  -151.864
10.7487     60.035  -152.488
10.9051     60.343  -153.072
11.0637     60.652  -153.636
11.2246     60.965  -154.203
11.3879     61.277  -154.770
11.5535     61.583  -155.318
11.7216     61.885  -155.846
11.8921     62.193  -156.310
12.0650     62.504  -156.755
12.2405     62.834  -157.218
12.4186     63.173  -157.724
12.5992     63.515  -158.348
12.7825     63.849  -159.041
12.9684     64.159  -159.749
13.1570     64.467  -160.453
13.3484     64.768  -161.043
13.5426     65.085  -161.601
13.7395     65.427  -162.226
13.9394     65.787  -163.049
14.1421     66.127  -164.158
14.3478     66.441  -165.383
14.5565     66.684  -166.633
14.7683     66.878  -167.700
14.9831     67.055  -168.372
15.2010     67.275  -168.770
15.4221     67.548  -169.158
15.6464     67.848  -169.732
15.8740     68.137  -170.527
16.1049     68.387  -171.435
16.3392     68.604  -172.317
16.5768     68.808  -173.101
16.8179     69.007  -173.796
17.0626     69.190  -174.399
17.3107     69.348  -174.807
17.5625     69.500  -174.901
17.8180     69.689  -174.683
18.0771     69.943  -174.341
18.3401     70.253  -174.104
18.6068     70.589  -174.111
18.8775     70.930  -174.366
19.1521     71.262  -174.814
19.4306     71.577  -175.374
19.7133     71.871  -175.951
20.0000     72.155  -176.473
20.2909     72.446  -176.938
20.5860     72.750  -177.421
20.8855     73.056  -177.969
21.1893     73.358  -178.571
21.4975     73.655  -179.201
21.8102     73.953  -179.844
22.1274     74.248   179.476
22.4492     74.540   178.777
22.7758     74.825   178.063
23.1071     75.105   177.353
23.4432     75.383   176.657
23.7841     75.659   175.971
24.1301     75.933   175.290
24.4811     76.203   174.637
24.8372     76.471   174.023
25.1984     76.748   173.447
25.5649     77.031   172.864
25.9368     77.316   172.266
26.3141     77.602   171.670
26.6968     77.895   171.077
27.0851     78.198   170.445
27.4791     78.503   169.704
27.8788     78.798   168.877
28.2843     79.074   168.055
28.6957     79.345   167.285
29.1131     79.618   166.560
29.5365     79.897   165.836
29.9661     80.169   165.123
30.4020     80.449   164.445
30.8442     80.741   163.740
31.2929     81.034   162.985
31.7480     81.328   162.177
32.2098     81.622   161.316
32.6783     81.912   160.397
33.1536     82.193   159.434
33.6359     82.467   158.447
34.1251     82.731   157.445
34.6215     82.981   156.474
35.1250     83.223   155.596
35.6359     83.471   154.816
36.1543     83.730   154.085
36.6802     83.998   153.368
37.2137     84.279   152.649
37.7550     84.573   151.883
38.3041     84.872   151.058
38.8613     85.174   150.146
39.4265     85.475   149.198
40.0000     85.781   148.201
40.5818     86.088   147.105
41.1721     86.387   145.918
41.7710     86.677   144.671
42.3785     86.955   143.411
42.9949     87.229   142.169
43.6203     87.506   140.924
44.2548     87.788   139.640
44.8985     88.076   138.275
45.5515     88.366   136.732
46.2141     88.639   134.931
46.8863     88.848   132.935
47.5683     88.980   131.099
48.2602     89.073   129.843
48.9621     89.220   129.101
49.6743     89.419   128.433
50.3968     89.664   127.693
51.1299     89.934   126.818
51.8736     90.220   125.739
52.6281     90.504   124.478
53.3936     90.780   123.105
54.1702     91.048   121.664
54.9581     91.310   120.175
55.7575     91.568   118.636
56.5685     91.824   117.050
57.3914     92.078   115.413
58.2261     92.330   113.706
59.0730     92.574   111.917
59.9323     92.806   110.102
60.8040     93.039   108.245
61.6884     93.260   106.295
62.5857     93.467   104.343
63.4960     93.675   102.406
64.4196     93.889   100.412
65.3566     94.104    98.250
66.3073     94.299    95.855
67.2717     94.447    93.306
68.2502     94.535    90.821
69.2429     94.580    88.647
70.2501     94.626    86.948
71.2719     94.736    85.520
72.3086     94.909    83.862
73.3603     95.086    81.800
74.4274     95.233    79.504
75.5099     95.347    77.134
76.6083     95.437    74.746
77.7226     95.506    72.350
78.8531     95.554    69.958
80.0000     95.579    67.589
81.1636     95.576    65.219
82.3442     95.527    62.974
83.5419     95.455    61.082
84.7570     95.396    59.517
85.9899     95.369    58.134
87.2406     95.375    56.807
88.5096     95.411    55.432
89.7970     95.470    53.859
91.1031     95.525    52.068
92.4282     95.553    50.101
93.7726     95.549    48.133
95.1366     95.525    46.260
96.5204     95.495    44.447
97.9243     95.455    42.642
99.3486     95.401    40.886
100.794     95.336    39.192
102.260     95.257    37.574
103.747     95.167    36.123
105.256     95.087    34.855
106.787     95.025    33.658
108.340     94.980    32.424
109.916     94.932    31.099
111.515     94.871    29.754
113.137     94.792    28.449
114.783     94.695    27.264
116.452     94.609    26.426
118.146     94.553    25.652
119.865     94.538    24.797
121.608     94.534    23.845
123.377     94.534    22.673
125.171     94.519    21.379
126.992     94.461    20.008
128.839     94.370    18.997
130.713     94.285    18.340
132.615     94.248    17.717
134.543     94.263    16.978
136.500     94.288    16.011
138.486     94.303    14.842
140.500     94.298    13.636
142.544     94.289    12.484
144.617     94.290    11.171
146.721     94.242     9.538
148.855     94.125     8.169
151.020     93.995     7.327
153.217     93.913     6.850
155.445     93.892     6.296
157.706     93.887     5.549
160.000     93.904     4.745
162.327     93.920     3.452
164.688     93.862     2.093
167.084     93.773     1.071
169.514     93.687     0.248
171.980     93.605    -0.382
174.481     93.555    -0.808
177.019     93.545    -1.309
179.594     93.540    -1.984
182.206     93.528    -2.623
184.856     93.525    -3.186
187.545     93.544    -3.686
190.273     93.607    -4.278
193.041     93.694    -5.305
195.849     93.730    -6.789
198.697     93.680    -8.150
201.587     93.611    -8.934
204.520     93.588    -9.399
207.494     93.626    -9.866
210.512     93.702   -10.571
213.574     93.788   -11.520
216.681     93.883   -12.702
219.833     93.981   -14.154
223.030     94.018   -16.157
226.274     93.980   -18.175
229.565     93.865   -19.936
232.905     93.721   -21.124
236.292     93.625   -21.874
239.729     93.583   -22.739
243.216     93.505   -23.990
246.754     93.352   -24.885
250.343     93.221   -25.124
253.984     93.140   -25.045
257.678     93.142   -24.716
261.426     93.207   -24.514
265.229     93.313   -24.324
269.087     93.509   -24.131
273.001     93.773   -24.986
276.972     93.953   -26.653
281.000     94.014   -28.200
285.088     94.042   -29.348
289.234     94.115   -30.077
293.441     94.247   -31.007
297.709     94.396   -32.373
302.040     94.514   -34.167
306.433     94.567   -36.160
310.890     94.575   -38.030
315.412     94.548   -39.826
320.000     94.499   -41.381
324.655     94.471   -42.651
329.377     94.472   -44.041
334.168     94.469   -45.532
339.028     94.464   -47.046
343.959     94.456   -48.604
348.962     94.447   -50.186
354.038     94.433   -51.814
359.188     94.412   -53.471
364.412     94.389   -55.135
369.713     94.361   -56.804
375.090     94.329   -58.478
380.546     94.295   -60.157
386.081     94.257   -61.839
391.697     94.216   -63.523
397.394     94.173   -65.209
403.175     94.125   -66.895
409.039     94.075   -68.581
414.989     94.021   -70.266
421.025     93.964   -71.948
427.149     93.905   -73.628
433.362     93.843   -75.303
439.665     93.778   -76.974
446.060     93.710   -78.638
452.548     93.640   -80.297
459.131     93.568   -81.947
465.809     93.494   -83.589
472.584     93.418   -85.222
479.458     93.340   -86.846
486.432     93.261   -88.460
493.507     93.181   -90.064
500.686     93.099   -91.656
507.968     93.017   -93.239
515.357     92.936   -94.810
522.853     92.854   -96.371
530.458     92.771   -97.923
538.174     92.689   -99.465
546.002     92.609  -100.999
553.943     92.529  -102.525
562.001     92.450  -104.045
570.175     92.372  -105.560
578.469     92.297  -107.070
586.883     92.223  -108.578
595.419     92.151  -110.085
604.080     92.081  -111.592
612.866     92.013  -113.100
621.780     91.948  -114.611
630.824     91.884  -116.126
640.000     91.823  -117.646
649.309     91.765  -119.173
658.753     91.709  -120.708
668.335     91.657  -122.251
678.056     91.607  -123.805
687.919     91.560  -125.369
697.925     91.516  -126.947
708.077     91.475  -128.540
718.376     91.438  -130.150
728.825     91.405  -131.779
739.426     91.375  -133.433
750.181     91.349  -135.114
761.093     91.327  -136.828
772.163     91.309  -138.581
783.394     91.293  -140.375
794.789     91.280  -142.214
806.349     91.269  -144.106
818.078     91.259  -146.055
829.977     91.248  -148.063
842.050     91.237  -150.133
854.298     91.222  -152.267
866.724     91.202  -154.464
879.330     91.177  -156.716
892.120     91.142  -159.026
905.097     91.098  -161.372
918.262     91.043  -163.753
931.618     90.974  -166.148
945.169     90.892  -168.542
958.917     90.797  -170.915
972.864     90.688  -173.245
987.015     90.566  -175.511
1001.37     90.434  -177.684
1015.94     90.294  -179.751
1030.71     90.149   178.308
1045.71     90.006   176.511
1060.92     89.869   174.845
1076.35     89.744   173.318
1092.00     89.636   171.907
1107.89     89.549   170.583
1124.00     89.488   169.316
1140.35     89.449   168.065
1156.94     89.440   166.787
1173.77     89.447   165.477
1190.84     89.483   164.064
1208.16     89.528   162.609
1225.73     89.593   161.036
1243.56     89.668   159.393
1261.65     89.760   157.647
1280.00     89.864   155.814
1298.62     89.993   153.796
1317.51     90.125   151.755
1336.67     90.282   149.446
1356.11     90.451   146.903
1375.84     90.627   144.068
1395.85     90.800   140.902
1416.15     90.952   137.311
1436.75     91.086   133.492
1457.65     91.170   129.270
1478.85     91.204   124.796
1500.36     91.173   120.104
1522.19     91.055   115.283
1544.33     90.854   110.480
1566.79     90.572   105.822
1589.58     90.212   101.443
1612.70     89.787    97.479
1636.16     89.317    94.041
1659.95     88.833    91.184
1684.10     88.367    88.876
1708.60     87.951    86.967
1733.45     87.601    85.210
1758.66     87.315    83.323
1784.24     87.065    81.077
1810.19     86.812    78.367
1836.52     86.518    75.217
1863.24     86.150    71.755
1890.34     85.691    68.151
1917.83     85.136    64.577
1945.73     84.491    61.155
1974.03     83.764    57.922
2002.74     82.952    54.822
2031.87     82.045    51.714
2061.43     80.993    48.479
2091.41     79.714    45.125
2121.83     78.086    41.911
2152.69     75.802    40.154
2184.01     73.004    40.524
2215.77     69.535    60.605
2248.00     67.316   101.500
2280.70     69.327   147.337
2313.87     72.533   158.908
2347.53     75.030   161.305
2381.68     76.865   161.361
2416.32     78.354   160.912
2451.46     79.554   160.437
2487.12     80.637   160.133
2523.30     81.667   160.040
2560.00     82.723   159.846
2597.24     83.824   159.128
2635.01     84.947   157.519
2673.34     86.017   154.604
2712.23     86.988   150.772
2751.68     87.795   146.155
2791.70     88.457   141.254
2832.31     88.991   136.299
2873.50     89.444   131.304
2915.30     89.817   126.184
2957.70     90.093   120.855
3000.72     90.234   115.364
3044.37     90.184   110.174
3088.65     89.988   105.917
3133.58     89.754   102.757
3179.16     89.590   100.501
3225.40     89.512    98.279
3272.31     89.442    95.562
3319.91     89.252    92.487
3368.20     88.875    89.916
3417.19     88.371    88.868
3466.89     87.905    89.755
3517.32     87.629    92.098
3568.48     87.606    95.174
3620.39     87.885    98.449
3673.05     88.517   100.815
3726.47     89.373   100.564
3780.67     90.075    96.883
3835.67     90.463    91.624
3891.46     90.278    87.109
3948.06     89.832    84.552
4005.49     89.648    86.164
4063.75     90.008    87.883
4122.86     90.612    86.558
4182.82     91.027    82.992
4243.66     91.229    79.174
4305.39     91.409    75.272
4368.01     91.531    70.105
4431.55     91.297    63.482
4496.01     90.569    57.494
4561.40     89.427    55.119
4627.75     88.298    56.603
4695.06     87.504    60.711
4763.35     87.019    66.609
4832.64     87.129    74.649
4902.93     88.057    79.018
4974.24     88.904    77.804
5046.60     89.018    74.422
5120.00     88.762    73.946
5194.47     88.742    77.283
5270.03     89.284    80.361
5346.68     90.085    80.976
5424.45     90.898    78.931
5503.35     91.473    74.392
5583.40     91.596    69.238
5664.61     91.490    65.848
5747.01     91.411    62.917
5830.60     91.262    59.801
5915.41     90.863    56.920
6001.45     90.251    56.660
6088.74     89.900    59.401
6177.30     89.996    63.075
6267.15     90.560    65.517
6358.31     91.288    64.448
6450.80     91.810    60.749
6544.62     91.996    55.955
6639.82     91.888    51.266
6736.40     91.516    47.201
6834.38     90.887    44.918
6933.79     90.268    45.883
7034.64     90.068    48.328
7136.96     90.126    48.975
7240.77     90.110    48.596
7346.09     90.001    47.964
7452.94     89.717    48.201
7561.35     89.570    50.710
7671.33     89.752    53.506
7782.91     90.219    54.917
7896.12     90.862    53.830
8010.97     91.038    49.118
8127.49     90.691    46.593
8245.71     90.381    46.107
8365.65     90.188    47.645
8487.33     90.322    48.527
8610.78     90.312    48.124
8736.03     90.283    49.277
8863.09     90.476    51.253
8992.01     91.119    53.138
9122.80     91.870    50.396
9255.50     92.198    45.106
9390.12     92.061    39.449
9526.70     91.473    36.120
9665.27     90.892    36.436
9805.86     90.702    38.759
9948.49     90.939    39.830
10093.2     91.124    38.002
10240.0     91.030    35.746
10388.9     90.776    35.088
10540.1     90.740    35.741
10693.4     90.837    35.185
10848.9     90.797    33.506
11006.7     90.576    33.085
11166.8     90.506    33.951
11329.2     90.607    34.160
11494.0     90.704    33.778
11661.2     90.914    34.072
11830.8     91.251    32.805
12002.9     91.551    28.551
12177.5     91.382    23.476
12354.6     90.688    21.897
12534.3     90.291    24.137
12716.6     90.622    26.193
12901.6     90.986    23.907
13089.2     91.197    19.961
13279.6     91.163    15.556
13472.8     90.816    11.072
13668.8     90.193     8.289
13867.6     89.660     8.560
14069.3     89.551     8.476
14273.9     89.549     5.521
14481.5     89.138     2.297
14692.2     88.666     0.284
14905.9     88.088    -2.046
15122.7     87.344    -2.429
15342.7     86.801    -0.393
15565.8     86.737     1.191
15792.2     86.740    -1.179
16021.9     86.323    -4.475
16255.0     85.711    -6.459
16491.4     85.022    -7.067
16731.3     84.577    -5.955
16974.7     84.443    -7.316
17221.6     84.003   -11.641
17472.1     83.031   -15.130
17726.2     81.859   -14.767
17984.0     81.151   -12.003
18245.6     80.803   -12.952
18511.0     80.003   -16.260
18780.2     78.807   -17.569
19053.4     77.564   -16.580
19330.5     76.504   -14.803
19611.7     75.505   -15.012
19897.0     74.146   -16.626
20186.4     72.335   -17.484
20480.0     70.106   -18.059
20777.9     67.209   -18.150
21080.1     63.571    -7.740
21386.7     60.929    39.962
21697.8     63.670   119.858
22013.4     67.422   147.974
22333.6     70.103   141.088
22658.4     71.878   137.816
22988.0     73.582   139.155
23322.4     75.352   137.047
23661.6     76.378   131.800
24005.8     76.850   128.012
24355.0     77.374   129.554
24709.2     78.543   130.868
25068.6     79.184   126.039
25433.2     79.221   124.263
25803.2     79.708   127.270
26178.5     80.725   127.108
26559.3     81.452   124.325
26945.6     82.173   123.169
27337.5     83.273   119.284
27735.2     84.054   111.628
28138.6     84.411   103.420
28547.9     84.700    95.262
28963.1     84.701    84.265
29384.4     84.032    74.269
29811.8     83.220    65.204
30245.4     82.119    56.234
30685.3     80.549    49.082
31131.7     78.946    45.680
31584.5     77.409    41.274
32043.9     75.439    37.737
32510.0     73.149    40.486
32982.8     71.659    48.580
33462.6     71.017    50.187
33949.3     70.145    44.821
34443.1     68.328    35.353
34944.1     65.199    25.445
35452.4     60.680    14.352
35968.0     57.196  -110.583
36491.2     59.767  -168.442
37022.0     62.975  -179.684
37560.5     65.203   173.253
38106.8     66.552   164.749
38661.1     67.003   157.599
39223.4     67.038   153.337
39793.9     66.943   149.806
