Freq[Hz]     dBSPL  Phase[Deg]
5.00000     42.463  -138.797
5.07273     42.808  -138.985
5.14651     43.152  -139.175
5.22137     43.511  -134.998
5.29732     43.885  -131.233
5.37437     44.303  -128.804
5.45254     44.834  -127.786
5.53185     45.464  -127.883
5.61231     46.091  -128.531
5.69394     46.636  -129.450
5.77676     47.012  -130.673
5.86079     47.273  -132.164
5.94604     47.455  -133.648
6.03252     47.592  -134.825
6.12027     47.692  -135.410
6.20929     47.754  -135.500
6.29961     47.819  -135.213
6.39124     47.967  -134.575
6.48420     48.218  -133.577
6.57851     48.551  -132.394
6.67420     48.946  -131.391
6.77128     49.398  -130.807
6.86977     49.904  -130.628
6.96969     50.433  -130.812
7.07107     50.938  -131.376
7.17392     51.404  -132.318
7.27827     51.835  -133.513
7.38413     52.225  -134.782
7.49154     52.570  -136.058
7.60050     52.870  -137.330
7.71105     53.151  -138.489
7.82321     53.420  -139.493
7.93701     53.683  -140.365
8.05245     53.949  -141.135
8.16958     54.229  -141.827
8.28841     54.519  -142.469
8.40896     54.815  -143.107
8.53128     55.114  -143.779
8.65537     55.411  -144.464
8.78126     55.702  -145.139
8.90899     55.981  -145.786
9.03857     56.256  -146.386
9.17004     56.531  -146.887
9.30342     56.809  -147.305
9.43874     57.101  -147.668
9.57603     57.413  -147.998
9.71532     57.740  -148.348
9.85663     58.079  -148.774
10.0000     58.427  -149.279
10.1455     58.770  -149.873
10.2930     59.101  -150.536
10.4427     59.422  -151.210
10.5946     59.731  -151.864
10.7487     60.035  -152.488
10.9051     60.343  -153.072
11.0637     60.652  -153.636
11.2246     60.965  -154.203
11.3879     61.277  -154.770
11.5535     61.583  -155.318
11.7216     61.885  -155.846
11.8921     62.193  -156.310
12.0650     62.504  -156.755
12.2405     62.834  -157.218
12.4186     63.173  -157.724
12.5992     63.515  -158.348
12.7825     63.849  -159.041
12.9684     64.159  -159.749
13.1570     64.467  -160.453
13.3484     64.768  -161.043
13.5426     65.085  -161.601
13.7395     65.427  -162.226
13.9394     65.787  -163.049
14.1421     66.127  -164.158
14.3478     66.441  -165.383
14.5565     66.684  -166.633
14.7683     66.878  -167.700
14.9831     67.055  -168.372
15.2010     67.275  -168.770
15.4221     67.548  -169.158
15.6464     67.848  -169.732
15.8740     68.137  -170.527
16.1049     68.387  -171.435
16.3392     68.604  -172.317
16.5768     68.808  -173.101
16.8179     69.007  -173.796
17.0626     69.190  -174.399
17.3107     69.348  -174.807
17.5625     69.500  -174.901
17.8180     69.689  -174.683
18.0771     69.943  -174.341
18.3401     70.253  -174.104
18.6068     70.589  -174.111
18.8775     70.930  -174.366
19.1521     71.262  -174.814
19.4306     71.577  -175.374
19.7133     71.871  -175.951
20.0000     72.155  -176.473
20.2909     72.446  -176.938
20.5860     72.750  -177.421
20.8855     73.056  -177.969
21.1893     73.358  -178.571
21.4975     73.655  -179.201
21.8102     73.953  -179.844
22.1274     74.248   179.476
22.4492     74.540   178.777
22.7758     74.825   178.063
23.1071     75.105   177.353
23.4432     75.383   176.657
23.7841     75.659   175.971
24.1301     75.933   175.290
24.4811     76.203   174.637
24.8372     76.471   174.023
25.1984     76.748   173.447
25.5649     77.031   172.864
25.9368     77.316   172.266
26.3141     77.602   171.670
26.6968     77.895   171.077
27.0851     78.198   170.445
27.4791     78.503   169.704
27.8788     78.798   168.877
28.2843     79.074   168.055
28.6957     79.345   167.285
29.1131     79.618   166.560
29.5365     79.897   165.836
29.9661     80.169   165.123
30.4020     80.449   164.445
30.8442     80.741   163.740
31.2929     81.034   162.985
31.7480     81.328   162.177
32.2098     81.622   161.316
32.6783     81.912   160.397
33.1536     82.193   159.434
33.6359     82.467   158.447
34.1251     82.731   157.445
34.6215     82.981   156.474
35.1250     83.223   155.596
35.6359     83.471   154.816
36.1543     83.730   154.085
36.6802     83.998   153.368
37.2137     84.279   152.649
37.7550     84.573   151.883
38.3041     84.872   151.058
38.8613     85.174   150.146
39.4265     85.475   149.198
40.0000     85.781   148.201
40.5818     86.088   147.106
41.1721     86.388   145.923
41.7710     86.678   144.682
42.3785     86.958   143.431
42.9949     87.234   142.200
43.6203     87.512   140.968
44.2548     87.797   139.700
44.8985     88.088   138.352
45.5515     88.381   136.829
46.2141     88.657   135.050
46.8863     88.870   133.078
47.5683     89.006   131.268
48.2602     89.103   130.039
48.9621     89.254   129.328
49.6743     89.459   128.691
50.3968     89.708   127.985
51.1299     89.985   127.147
51.8736     90.277   126.105
52.6281     90.567   124.884
53.3936     90.849   123.552
54.1702     91.123   122.154
54.9581     91.392   120.710
55.7575     91.658   119.218
56.5685     91.920   117.681
57.3914     92.183   116.095
58.2261     92.442   114.440
59.0730     92.694   112.706
59.9323     92.935   110.947
60.8040     93.177   109.148
61.6884     93.406   107.258
62.5857     93.623   105.368
63.4960     93.839   103.496
64.4196     94.063   101.567
65.3566     94.288    99.473
66.3073     94.493    97.148
67.2717     94.650    94.671
68.2502     94.749    92.260
69.2429     94.804    90.161
70.2501     94.861    88.540
71.2719     94.982    87.192
72.3086     95.166    85.616
73.3603     95.354    83.639
74.4274     95.512    81.429
75.5099     95.637    79.148
76.6083     95.738    76.851
77.7226     95.820    74.548
78.8531     95.879    72.251
80.0000     95.915    69.980
81.1636     95.924    67.710
82.3442     95.887    65.567
83.5419     95.827    63.780
84.7570     95.781    62.323
85.9899     95.765    61.051
87.2406     95.784    59.836
88.5096     95.832    58.576
89.7970     95.903    57.121
91.1031     95.971    55.450
92.4282     96.011    53.605
93.7726     96.019    51.764
95.1366     96.008    50.020
96.5204     95.990    48.337
97.9243     95.962    46.667
99.3486     95.921    45.048
100.794     95.869    43.494
102.260     95.801    42.019
103.747     95.724    40.714
105.256     95.656    39.595
106.787     95.605    38.551
108.340     95.572    37.472
109.916     95.536    36.305
111.515     95.487    35.122
113.137     95.419    33.983
114.783     95.334    32.965
116.452     95.259    32.299
118.146     95.214    31.699
119.865     95.210    31.023
121.608     95.217    30.253
123.377     95.226    29.266
125.171     95.222    28.159
126.992     95.173    26.981
128.839     95.093    26.165
130.713     95.016    25.708
132.615     94.989    25.287
134.543     95.012    24.755
136.500     95.046    23.997
138.486     95.069    23.042
140.500     95.071    22.053
142.544     95.070    21.122
144.617     95.077    20.034
146.721     95.035    18.629
148.855     94.924    17.493
151.020     94.799    16.886
153.217     94.723    16.650
155.445     94.706    16.339
157.706     94.704    15.839
160.000     94.724    15.287
162.327     94.743    14.249
164.688     94.687    13.150
167.084     94.599    12.390
169.514     94.513    11.834
171.980     94.431    11.476
174.481     94.380    11.325
177.019     94.369    11.103
179.594     94.361    10.712
182.206     94.345    10.360
184.856     94.337    10.089
187.545     94.351     9.885
190.273     94.409     9.592
193.041     94.488     8.870
195.849     94.516     7.694
198.697     94.456     6.645
201.587     94.377     6.179
204.520     94.343     6.036
207.494     94.368     5.896
210.512     94.430     5.522
213.574     94.501     4.908
216.681     94.580     4.069
219.833     94.661     2.961
223.030     94.678     1.310
226.274     94.621    -0.352
229.565     94.484    -1.751
232.905     94.317    -2.572
236.292     94.197    -2.948
239.729     94.129    -3.432
243.216     94.023    -4.297
246.754     93.842    -4.799
250.343     93.680    -4.638
253.984     93.567    -4.152
257.678     93.536    -3.404
261.426     93.567    -2.772
265.229     93.637    -2.146
269.087     93.795    -1.509
273.001     94.019    -1.911
276.972     94.159    -3.120
281.000     94.178    -4.200
285.088     94.163    -4.874
289.234     94.191    -5.116
293.441     94.277    -5.547
297.709     94.378    -6.400
302.040     94.449    -7.667
306.433     94.453    -9.111
310.890     94.410   -10.408
315.412     94.333   -11.605
320.000     94.233   -12.538
324.655     94.153   -13.156
329.377     94.102   -13.867
334.168     94.046   -14.650
339.028     93.990   -15.426
343.959     93.930   -16.215
348.962     93.869   -16.995
354.038     93.805   -17.789
359.188     93.736   -18.577
364.412     93.663   -19.338
369.713     93.590   -20.071
375.090     93.516   -20.773
380.546     93.441   -21.440
386.081     93.366   -22.082
391.697     93.292   -22.686
397.394     93.218   -23.269
403.175     93.146   -23.817
409.039     93.075   -24.339
414.989     93.008   -24.833
421.025     92.942   -25.303
427.149     92.880   -25.753
433.362     92.822   -26.183
439.665     92.768   -26.598
446.060     92.717   -27.001
452.548     92.671   -27.396
459.131     92.629   -27.786
465.809     92.590   -28.175
472.584     92.556   -28.568
479.458     92.525   -28.966
486.432     92.497   -29.372
493.507     92.473   -29.790
500.686     92.451   -30.221
507.968     92.432   -30.664
515.357     92.414   -31.122
522.853     92.397   -31.592
530.458     92.381   -32.072
538.174     92.367   -32.562
546.002     92.351   -33.058
553.943     92.337   -33.557
562.001     92.323   -34.054
570.175     92.310   -34.548
578.469     92.298   -35.034
586.883     92.289   -35.508
595.419     92.283   -35.972
604.080     92.280   -36.424
612.866     92.283   -36.865
621.780     92.292   -37.298
630.824     92.309   -37.730
640.000     92.335   -38.168
649.309     92.372   -38.624
658.753     92.420   -39.112
668.335     92.478   -39.646
678.056     92.548   -40.242
687.919     92.627   -40.917
697.925     92.715   -41.687
708.077     92.811   -42.567
718.376     92.911   -43.570
728.825     93.014   -44.706
739.426     93.116   -45.983
750.181     93.212   -47.405
761.093     93.302   -48.978
772.163     93.378   -50.695
783.394     93.440   -52.536
794.789     93.484   -54.489
806.349     93.507   -56.546
818.078     93.505   -58.687
829.977     93.479   -60.885
842.050     93.424   -63.116
854.298     93.340   -65.352
866.724     93.225   -67.557
879.330     93.082   -69.702
892.120     92.906   -71.726
905.097     92.708   -73.627
918.262     92.486   -75.334
931.618     92.249   -76.826
945.169     92.003   -78.079
958.917     91.757   -79.068
972.864     91.522   -79.795
987.015     91.309   -80.287
1001.37     91.129   -80.583
1015.94     90.988   -80.765
1030.71     90.890   -80.916
1045.71     90.834   -81.134
1060.92     90.811   -81.487
1076.35     90.813   -82.046
1092.00     90.826   -82.837
1107.89     90.836   -83.847
1124.00     90.832   -85.061
1140.35     90.807   -86.396
1156.94     90.747   -87.797
1173.77     90.664   -89.189
1190.84     90.541   -90.407
1208.16     90.405   -91.524
1225.73     90.254   -92.288
1243.56     90.105   -92.801
1261.65     89.982   -92.939
1280.00     89.897   -92.817
1298.62     89.903   -92.451
1317.51     89.920   -92.082
1336.67     90.039   -91.765
1356.11     90.217   -91.640
1375.84     90.445   -91.792
1395.85     90.712   -92.265
1416.15     91.008   -93.135
1436.75     91.316   -94.218
1457.65     91.640   -95.690
1478.85     91.972   -97.448
1500.36     92.310   -99.529
1522.19     92.649  -102.009
1544.33     92.979  -104.865
1566.79     93.290  -108.101
1589.58     93.570  -111.707
1612.70     93.808  -115.650
1636.16     93.990  -119.868
1659.95     94.109  -124.279
1684.10     94.157  -128.768
1708.60     94.135  -133.218
1733.45     94.049  -137.507
1758.66     93.913  -141.531
1784.24     93.746  -145.226
1810.19     93.569  -148.592
1836.52     93.403  -151.701
1863.24     93.258  -154.681
1890.34     93.130  -157.678
1917.83     93.004  -160.803
1945.73     92.856  -164.082
1974.03     92.660  -167.443
2002.74     92.393  -170.688
2031.87     92.063  -173.605
2061.43     91.686  -175.940
2091.41     91.306  -177.551
2121.83     90.975  -178.491
2152.69     90.747  -179.029
2184.01     90.584  -179.531
2215.77     90.491   179.681
2248.00     90.401   178.717
2280.70     90.283   177.718
2313.87     90.142   177.066
2347.53     90.028   177.005
2381.68     90.032   177.452
2416.32     90.165   177.892
2451.46     90.453   177.585
2487.12     90.787   176.331
2523.30     91.066   173.827
2560.00     91.217   170.682
2597.24     91.201   167.386
2635.01     91.032   164.486
2673.34     90.748   162.699
2712.23     90.455   162.045
2751.68     90.275   162.703
2791.70     90.287   163.918
2832.31     90.523   164.834
2873.50     90.883   164.912
2915.30     91.299   163.932
2957.70     91.697   161.907
3000.72     92.014   159.078
3044.37     92.215   155.805
3088.65     92.316   152.425
3133.58     92.347   149.033
3179.16     92.302   145.595
3225.40     92.167   142.140
3272.31     91.912   138.888
3319.91     91.538   136.269
3368.20     91.103   134.697
3417.19     90.707   134.172
3466.89     90.411   134.124
3517.32     90.172   133.949
3568.48     89.891   133.796
3620.39     89.569   134.503
3673.05     89.362   136.442
3726.47     89.419   138.513
3780.67     89.626   138.900
3835.67     89.768   137.976
3891.46     89.615   136.807
3948.06     89.300   136.563
4005.49     89.080   138.604
4063.75     89.111   141.081
4122.86     89.307   142.743
4182.82     89.556   143.828
4243.66     89.910   144.385
4305.39     90.318   143.402
4368.01     90.545   140.604
4431.55     90.381   137.637
4496.01     90.010   136.428
4561.40     89.711   136.921
4627.75     89.497   137.321
4695.06     89.093   138.249
4763.35     88.692   142.564
4832.64     88.979   149.850
4902.93     89.956   152.175
4974.24     90.654   149.926
5046.60     90.766   147.442
5120.00     90.825   146.847
5194.47     91.090   146.201
5270.03     91.214   143.683
5346.68     91.017   141.975
5424.45     90.851   142.510
5503.35     91.038   142.877
5583.40     91.181   140.374
5664.61     90.846   137.429
5747.01     90.236   136.384
5830.60     89.551   137.940
5915.41     89.023   141.920
6001.45     88.835   147.461
6088.74     89.090   152.730
6177.30     89.635   156.502
6267.15     90.312   158.256
6358.31     90.972   157.899
6450.80     91.486   155.824
6544.62     91.747   152.669
6639.82     91.747   149.355
6736.40     91.511   146.302
6834.38     91.003   144.323
6933.79     90.401   144.847
7034.64     89.993   146.551
7136.96     89.585   148.156
7240.77     89.189   151.660
7346.09     89.053   155.729
7452.94     89.064   160.050
7561.35     89.434   164.090
7671.33     89.911   165.770
7782.91     90.258   165.636
7896.12     90.533   164.746
8010.97     90.414   162.667
8127.49     90.098   162.758
8245.71     89.733   163.008
8365.65     89.296   165.941
8487.33     89.057   169.070
8610.78     88.837   173.645
8736.03     89.002   179.028
8863.09     89.450  -176.475
8992.01     90.229  -173.883
9122.80     90.817  -175.202
9255.50     91.021  -177.419
9390.12     90.875  -179.496
9526.70     90.443  -178.913
9665.27     90.244  -175.585
9805.86     90.425  -172.634
9948.49     90.708  -171.806
10093.2     90.731  -171.988
10240.0     90.656  -171.174
10388.9     90.673  -169.711
10540.1     90.793  -169.310
10693.4     90.729  -169.812
10848.9     90.438  -169.563
11006.7     90.165  -167.411
11166.8     90.072  -165.137
11329.2     90.007  -163.324
11494.0     89.913  -161.263
11661.2     90.096  -158.415
11830.8     90.352  -157.801
12002.9     90.382  -160.650
12177.5     89.844  -162.598
12354.6     89.060  -159.210
12534.3     88.761  -153.657
12716.6     88.997  -149.877
12901.6     89.220  -148.684
13089.2     89.396  -148.266
13279.6     89.405  -149.457
13472.8     89.028  -151.091
13668.8     88.367  -150.081
13867.6     87.953  -146.413
14069.3     87.843  -144.172
14273.9     87.633  -143.824
14481.5     87.313  -142.338
14692.2     87.037  -141.931
14905.9     86.466  -141.123
15122.7     85.890  -138.388
15342.7     85.535  -135.087
15565.8     85.343  -133.382
15792.2     85.031  -133.194
16021.9     84.460  -133.884
16255.0     83.454  -132.920
16491.4     82.634  -127.262
16731.3     82.512  -123.467
16974.7     82.328  -124.274
17221.6     81.628  -126.733
17472.1     80.381  -127.526
17726.2     79.084  -124.264
17984.0     78.267  -121.337
18245.6     77.489  -122.422
18511.0     76.136  -125.799
18780.2     74.107  -126.990
19053.4     72.078  -126.349
19330.5     70.252  -131.031
19611.7     67.958  -144.752
19897.0     65.187  -167.442
20186.4     64.310   163.242
20480.0     66.001   138.006
20777.9     68.362   120.466
21080.1     69.821   109.839
21386.7     70.616   107.162
21697.8     71.802   110.955
22013.4     72.981   112.745
22333.6     73.604   112.968
22658.4     73.943   117.046
22988.0     74.828   124.313
23322.4     75.958   126.288
23661.6     76.401   125.618
24005.8     76.336   127.467
24355.0     76.605   132.751
24709.2     77.134   135.089
25068.6     76.911   135.140
25433.2     76.179   139.854
25803.2     76.060   150.545
26178.5     76.576   155.839
26559.3     76.610   158.075
26945.6     76.185   161.676
27337.5     75.832   169.310
27735.2     75.866   177.132
28138.6     76.100  -177.194
28547.9     76.259  -173.668
28963.1     76.138  -170.810
29384.4     76.010  -168.008
29811.8     75.797  -167.484
30245.4     75.196  -168.787
30685.3     73.992  -169.981
31131.7     72.301  -169.315
31584.5     70.144  -166.300
32043.9     67.701  -159.864
32510.0     65.156  -153.351
32982.8     61.531  -143.077
33462.6     57.460  -105.097
33949.3     57.015   -35.048
34443.1     59.972     1.200
34944.1     62.873    14.493
35452.4     64.876    22.090
35968.0     66.614    30.162
36491.2     68.324    34.156
37022.0     69.233    33.189
37560.5     69.449    32.057
38106.8     69.140    30.818
38661.1     68.373    30.831
39223.4     67.097    32.111
39793.9     65.576    34.850
