Freq[Hz]     dBSPL  Phase[Deg]
5.00000     42.463  -138.797
5.07273     42.808  -138.985
5.14651     43.152  -139.175
5.22137     43.511  -134.998
5.29732     43.885  -131.233
5.37437     44.303  -128.804
5.45254     44.834  -127.786
5.53185     45.464  -127.883
5.61231     46.091  -128.531
5.69394     46.636  -129.450
5.77676     47.012  -130.673
5.86079     47.273  -132.164
5.94604     47.455  -133.648
6.03252     47.592  -134.825
6.12027     47.692  -135.410
6.20929     47.754  -135.500
6.29961     47.819  -135.213
6.39124     47.967  -134.575
6.48420     48.218  -133.577
6.57851     48.551  -132.394
6.67420     48.946  -131.391
6.77128     49.398  -130.807
6.86977     49.904  -130.628
6.96969     50.433  -130.812
7.07107     50.938  -131.376
7.17392     51.404  -132.318
7.27827     51.835  -133.513
7.38413     52.225  -134.782
7.49154     52.570  -136.058
7.60050     52.870  -137.330
7.71105     53.151  -138.489
7.82321     53.420  -139.493
7.93701     53.683  -140.365
8.05245     53.949  -141.135
8.16958     54.229  -141.827
8.28841     54.519  -142.469
8.40896     54.815  -143.107
8.53128     55.114  -143.779
8.65537     55.411  -144.464
8.78126     55.702  -145.139
8.90899     55.981  -145.786
9.03857     56.256  -146.386
9.17004     56.531  -146.887
9.30342     56.809  -147.305
9.43874     57.101  -147.668
9.57603     57.413  -147.998
9.71532     57.740  -148.348
9.85663     58.079  -148.774
10.0000     58.427  -149.279
10.1455     58.770  -149.873
10.2930     59.101  -150.536
10.4427     59.422  -151.210
10.5946     59.731  -151.864
10.7487     60.035  -152.488
10.9051     60.343  -153.072
11.0637     60.652  -153.636
11.2246     60.965  -154.203
11.3879     61.277  -154.770
11.5535     61.583  -155.318
11.7216     61.885  -155.846
11.8921     62.193  -156.310
12.0650     62.504  -156.755
12.2405     62.834  -157.218
12.4186     63.173  -157.724
12.5992     63.515  -158.348
12.7825     63.849  -159.041
12.9684     64.159  -159.749
13.1570     64.467  -160.453
13.3484     64.768  -161.043
13.5426     65.085  -161.601
13.7395     65.427  -162.226
13.9394     65.787  -163.049
14.1421     66.127  -164.158
14.3478     66.441  -165.383
14.5565     66.684  -166.633
14.7683     66.878  -167.700
14.9831     67.055  -168.372
15.2010     67.275  -168.770
15.4221     67.548  -169.158
15.6464     67.848  -169.732
15.8740     68.137  -170.527
16.1049     68.387  -171.435
16.3392     68.604  -172.317
16.5768     68.808  -173.101
16.8179     69.007  -173.796
17.0626     69.190  -174.399
17.3107     69.348  -174.807
17.5625     69.500  -174.901
17.8180     69.689  -174.683
18.0771     69.943  -174.341
18.3401     70.253  -174.104
18.6068     70.589  -174.111
18.8775     70.930  -174.366
19.1521     71.262  -174.814
19.4306     71.577  -175.374
19.7133     71.871  -175.951
20.0000     72.155  -176.473
20.2909     72.446  -176.938
20.5860     72.750  -177.421
20.8855     73.056  -177.969
21.1893     73.358  -178.571
21.4975     73.655  -179.201
21.8102     73.953  -179.844
22.1274     74.248   179.476
22.4492     74.540   178.777
22.7758     74.825   178.063
23.1071     75.105   177.353
23.4432     75.383   176.657
23.7841     75.659   175.971
24.1301     75.933   175.290
24.4811     76.203   174.637
24.8372     76.471   174.023
25.1984     76.748   173.447
25.5649     77.031   172.864
25.9368     77.316   172.266
26.3141     77.602   171.670
26.6968     77.895   171.077
27.0851     78.198   170.445
27.4791     78.503   169.704
27.8788     78.798   168.877
28.2843     79.074   168.055
28.6957     79.345   167.285
29.1131     79.618   166.560
29.5365     79.897   165.836
29.9661     80.169   165.123
30.4020     80.449   164.445
30.8442     80.741   163.740
31.2929     81.034   162.985
31.7480     81.328   162.177
32.2098     81.622   161.316
32.6783     81.912   160.397
33.1536     82.193   159.434
33.6359     82.467   158.447
34.1251     82.731   157.445
34.6215     82.981   156.474
35.1250     83.223   155.596
35.6359     83.471   154.816
36.1543     83.730   154.085
36.6802     83.998   153.368
37.2137     84.279   152.649
37.7550     84.573   151.883
38.3041     84.872   151.058
38.8613     85.174   150.146
39.4265     85.475   149.198
40.0000     85.781   148.201
40.5818     86.088   147.106
41.1721     86.388   145.922
41.7710     86.678   144.680
42.3785     86.957   143.427
42.9949     87.233   142.194
43.6203     87.511   140.960
44.2548     87.795   139.689
44.8985     88.085   138.338
45.5515     88.377   136.811
46.2141     88.652   135.029
46.8863     88.864   133.054
47.5683     88.999   131.239
48.2602     89.095   130.006
48.9621     89.246   129.291
49.6743     89.449   128.650
50.3968     89.697   127.939
51.1299     89.972   127.095
51.8736     90.263   126.049
52.6281     90.551   124.823
53.3936     90.832   123.485
54.1702     91.104   122.083
54.9581     91.372   120.634
55.7575     91.635   119.136
56.5685     91.896   117.594
57.3914     92.157   116.003
58.2261     92.414   114.344
59.0730     92.664   112.604
59.9323     92.903   110.840
60.8040     93.143   109.037
61.6884     93.370   107.142
62.5857     93.584   105.247
63.4960     93.799   103.371
64.4196     94.020   101.438
65.3566     94.242    99.339
66.3073     94.445    97.010
67.2717     94.600    94.529
68.2502     94.696    92.114
69.2429     94.748    90.012
70.2501     94.802    88.387
71.2719     94.921    87.036
72.3086     95.102    85.457
73.3603     95.287    83.477
74.4274     95.443    81.264
75.5099     95.564    78.981
76.6083     95.663    76.682
77.7226     95.741    74.377
78.8531     95.798    72.079
80.0000     95.831    69.806
81.1636     95.837    67.535
82.3442     95.797    65.392
83.5419     95.734    63.604
84.7570     95.684    62.147
85.9899     95.666    60.874
87.2406     95.681    59.660
88.5096     95.726    58.401
89.7970     95.793    56.946
91.1031     95.858    55.277
92.4282     95.895    53.434
93.7726     95.900    51.595
95.1366     95.885    49.853
96.5204     95.864    48.173
97.9243     95.832    46.506
99.3486     95.788    44.890
100.794     95.732    43.340
102.260     95.661    41.870
103.747     95.580    40.569
105.256     95.508    39.455
106.787     95.454    38.416
108.340     95.417    37.343
109.916     95.378    36.182
111.515     95.325    35.006
113.137     95.254    33.873
114.783     95.165    32.863
116.452     95.087    32.204
118.146     95.038    31.613
119.865     95.030    30.945
121.608     95.033    30.184
123.377     95.039    29.206
125.171     95.031    28.110
126.992     94.979    26.942
128.839     94.894    26.137
130.713     94.814    25.691
132.615     94.783    25.282
134.543     94.803    24.761
136.500     94.833    24.016
138.486     94.852    23.074
140.500     94.850    22.099
142.544     94.845    21.182
144.617     94.849    20.108
146.721     94.804    18.718
148.855     94.689    17.597
151.020     94.561    17.006
153.217     94.481    16.786
155.445     94.460    16.492
157.706     94.455    16.009
160.000     94.471    15.474
162.327     94.486    14.455
164.688     94.427    13.374
167.084     94.336    12.633
169.514     94.246    12.096
171.980     94.161    11.758
174.481     94.106    11.628
177.019     94.091    11.426
179.594     94.080    11.056
182.206     94.061    10.725
184.856     94.050    10.476
187.545     94.061    10.294
190.273     94.115    10.024
193.041     94.191     9.325
195.849     94.215     8.172
198.697     94.153     7.147
201.587     94.070     6.705
204.520     94.033     6.587
207.494     94.055     6.471
210.512     94.114     6.121
213.574     94.183     5.533
216.681     94.259     4.719
219.833     94.336     3.637
223.030     94.351     2.012
226.274     94.291     0.375
229.565     94.152    -0.998
232.905     93.982    -1.793
236.292     93.860    -2.143
239.729     93.790    -2.602
243.216     93.682    -3.441
246.754     93.498    -3.917
250.343     93.334    -3.730
253.984     93.219    -3.219
257.678     93.187    -2.445
261.426     93.215    -1.789
265.229     93.282    -1.138
269.087     93.439    -0.477
273.001     93.662    -0.856
276.972     93.799    -2.042
281.000     93.817    -3.100
285.088     93.801    -3.754
289.234     93.826    -3.976
293.441     93.911    -4.388
297.709     94.012    -5.223
302.040     94.081    -6.473
306.433     94.084    -7.901
310.890     94.040    -9.183
315.412     93.961   -10.366
320.000     93.860   -11.286
324.655     93.779   -11.892
329.377     93.726   -12.593
334.168     93.668   -13.366
339.028     93.608   -14.134
343.959     93.546   -14.916
348.962     93.483   -15.692
354.038     93.416   -16.482
359.188     93.343   -17.269
364.412     93.268   -18.031
369.713     93.189   -18.765
375.090     93.111   -19.470
380.546     93.030   -20.143
386.081     92.949   -20.791
391.697     92.868   -21.403
397.394     92.787   -21.995
403.175     92.707   -22.553
409.039     92.627   -23.085
414.989     92.550   -23.590
421.025     92.474   -24.070
427.149     92.399   -24.529
433.362     92.328   -24.966
439.665     92.259   -25.386
446.060     92.192   -25.791
452.548     92.129   -26.185
459.131     92.069   -26.569
465.809     92.011   -26.947
472.584     91.957   -27.323
479.458     91.905   -27.697
486.432     91.854   -28.072
493.507     91.806   -28.450
500.686     91.760   -28.831
507.968     91.714   -29.215
515.357     91.670   -29.601
522.853     91.626   -29.987
530.458     91.582   -30.372
538.174     91.538   -30.752
546.002     91.494   -31.122
553.943     91.450   -31.479
562.001     91.408   -31.818
570.175     91.365   -32.139
578.469     91.325   -32.429
586.883     91.289   -32.690
595.419     91.256   -32.922
604.080     91.229   -33.126
612.866     91.210   -33.302
621.780     91.200   -33.454
630.824     91.202   -33.590
640.000     91.216   -33.724
649.309     91.245   -33.871
658.753     91.288   -34.049
668.335     91.347   -34.279
678.056     91.421   -34.581
687.919     91.508   -34.977
697.925     91.607   -35.487
708.077     91.716   -36.130
718.376     91.831   -36.920
728.825     91.949   -37.869
739.426     92.066   -38.984
750.181     92.178   -40.269
761.093     92.281   -41.730
772.163     92.369   -43.356
783.394     92.440   -45.124
794.789     92.491   -47.017
806.349     92.518   -49.027
818.078     92.517   -51.129
829.977     92.487   -53.294
842.050     92.426   -55.495
854.298     92.331   -57.697
866.724     92.201   -59.862
879.330     92.040   -61.956
892.120     91.842   -63.911
905.097     91.619   -65.724
918.262     91.369   -67.310
931.618     91.102   -68.647
945.169     90.825   -69.704
958.917     90.550   -70.455
972.864     90.290   -70.899
987.015     90.057   -71.074
1001.37     89.866   -71.033
1015.94     89.722   -70.877
1030.71     89.631   -70.714
1045.71     89.589   -70.668
1060.92     89.584   -70.815
1076.35     89.606   -71.242
1092.00     89.634   -71.969
1107.89     89.656   -72.974
1124.00     89.652   -74.234
1140.35     89.619   -75.645
1156.94     89.535   -77.137
1173.77     89.420   -78.616
1190.84     89.244   -79.873
1208.16     89.049   -80.999
1225.73     88.821   -81.645
1243.56     88.588   -81.937
1261.65     88.376   -81.664
1280.00     88.210   -80.962
1298.62     88.164   -79.771
1317.51     88.133   -78.561
1336.67     88.254   -77.290
1356.11     88.466   -76.242
1375.84     88.758   -75.563
1395.85     89.113   -75.346
1416.15     89.515   -75.726
1436.75     89.935   -76.433
1457.65     90.376   -77.741
1478.85     90.823   -79.484
1500.36     91.268   -81.703
1522.19     91.701   -84.471
1544.33     92.109   -87.715
1566.79     92.483   -91.411
1589.58     92.808   -95.521
1612.70     93.073   -99.988
1636.16     93.268  -104.730
1659.95     93.382  -109.644
1684.10     93.414  -114.599
1708.60     93.363  -119.459
1733.45     93.239  -124.085
1758.66     93.057  -128.354
1784.24     92.842  -132.186
1810.19     92.621  -135.573
1836.52     92.422  -138.602
1863.24     92.261  -141.437
1890.34     92.137  -144.277
1917.83     92.033  -147.280
1945.73     91.919  -150.510
1974.03     91.764  -153.906
2002.74     91.540  -157.270
2031.87     91.251  -160.362
2061.43     90.915  -162.909
2091.41     90.575  -164.750
2121.83     90.290  -165.942
2152.69     90.121  -166.812
2184.01     90.023  -167.727
2215.77     89.998  -169.175
2248.00     89.969  -170.977
2280.70     89.883  -173.105
2313.87     89.723  -175.109
2347.53     89.514  -176.612
2381.68     89.326  -177.390
2416.32     89.210  -177.759
2451.46     89.222  -178.143
2487.12     89.302  -178.991
2523.30     89.374   179.312
2560.00     89.351   177.152
2597.24     89.185   175.021
2635.01     88.884   173.538
2673.34     88.512   173.620
2712.23     88.207   175.188
2751.68     88.163   178.177
2791.70     88.437  -178.786
2832.31     88.995  -177.035
2873.50     89.651  -176.867
2915.30     90.307  -178.307
2957.70     90.870   178.922
3000.72     91.286   175.271
3044.37     91.524   171.241
3088.65     91.614   167.268
3133.58     91.600   163.515
3179.16     91.485   160.074
3225.40     91.282   157.002
3272.31     90.987   154.553
3319.91     90.641   153.077
3368.20     90.337   152.719
3417.19     90.179   152.989
3466.89     90.172   152.879
3517.32     90.177   151.766
3568.48     90.035   150.151
3620.39     89.723   149.309
3673.05     89.412   150.098
3726.47     89.316   151.814
3780.67     89.425   152.575
3835.67     89.534   152.252
3891.46     89.438   151.518
3948.06     89.220   151.449
4005.49     89.087   152.941
4063.75     89.117   154.520
4122.86     89.197   155.636
4182.82     89.306   157.119
4243.66     89.644   158.863
4305.39     90.194   158.759
4368.01     90.632   155.840
4431.55     90.615   151.672
4496.01     90.246   148.780
4561.40     89.777   148.085
4627.75     89.358   148.273
4695.06     88.847   149.464
4763.35     88.386   153.631
4832.64     88.550   160.352
4902.93     89.353   162.529
4974.24     89.880   160.376
5046.60     89.781   158.161
5120.00     89.585   158.313
5194.47     89.603   159.156
5270.03     89.557   158.801
5346.68     89.338   159.754
5424.45     89.319   162.526
5503.35     89.646   163.852
5583.40     89.760   162.571
5664.61     89.535   162.661
5747.01     89.399   164.193
5830.60     89.413   165.931
5915.41     89.454   166.816
6001.45     89.368   168.060
6088.74     89.405   170.734
6177.30     89.715   173.112
6267.15     90.148   173.776
6358.31     90.493   172.650
6450.80     90.610   170.508
6544.62     90.436   168.739
6639.82     90.165   168.578
6736.40     90.022   168.876
6834.38     89.806   168.105
6933.79     89.308   168.295
7034.64     88.821   170.675
7136.96     88.498   173.994
7240.77     88.379   177.821
7346.09     88.365  -179.395
7452.94     88.272  -175.624
7561.35     88.593  -171.048
7671.33     89.085  -169.200
7782.91     89.395  -169.672
7896.12     89.546  -170.565
8010.97     89.292  -171.841
8127.49     88.964  -170.084
8245.71     88.763  -169.028
8365.65     88.460  -166.250
8487.33     88.319  -163.778
8610.78     88.063  -160.413
8736.03     88.066  -155.598
8863.09     88.352  -150.964
8992.01     89.051  -147.756
9122.80     89.619  -149.161
9255.50     89.702  -152.079
9390.12     89.304  -154.510
9526.70     88.570  -153.449
9665.27     88.068  -149.026
9805.86     87.997  -144.053
9948.49     88.220  -140.721
10093.2     88.334  -139.300
10240.0     88.357  -137.837
10388.9     88.384  -136.267
10540.1     88.428  -135.678
10693.4     88.246  -135.720
10848.9     87.832  -134.754
11006.7     87.458  -131.633
11166.8     87.286  -128.582
11329.2     87.107  -125.958
11494.0     86.883  -123.053
11661.2     86.935  -118.829
11830.8     87.124  -116.937
12002.9     87.209  -119.123
12177.5     86.630  -121.051
12354.6     85.719  -116.811
12534.3     85.356  -110.128
12716.6     85.522  -105.718
12901.6     85.630  -103.935
13089.2     85.693  -102.942
13279.6     85.543  -103.511
13472.8     84.986  -104.263
13668.8     84.165  -102.169
13867.6     83.613   -97.177
14069.3     83.465   -93.636
14273.9     83.326   -92.399
14481.5     83.041   -92.039
14692.2     82.515   -93.111
14905.9     81.523   -92.871
15122.7     80.489   -89.013
15342.7     79.839   -83.761
15565.8     79.582   -81.143
15792.2     79.228   -82.106
16021.9     78.470   -85.236
16255.0     77.089   -87.702
16491.4     75.591   -85.717
16731.3     74.741   -85.683
16974.7     73.809   -90.620
17221.6     72.474   -98.278
17472.1     70.837  -106.638
17726.2     69.672  -114.671
17984.0     69.653  -128.269
18245.6     69.915  -147.812
18511.0     69.985  -165.467
18780.2     69.956  -176.035
19053.4     70.356  -178.710
19330.5     71.451  -179.506
19611.7     72.379   176.547
19897.0     72.548   173.987
20186.4     72.683   177.545
20480.0     73.397  -177.491
20777.9     74.242  -176.223
21080.1     74.435  -177.181
21386.7     74.032  -175.019
21697.8     73.957  -168.646
22013.4     73.938  -164.288
22333.6     73.386  -160.549
22658.4     72.684  -151.124
22988.0     72.694  -138.681
23322.4     73.020  -131.159
23661.6     73.011  -124.489
24005.8     72.975  -115.651
24355.0     73.346  -107.879
24709.2     73.682  -104.357
25068.6     72.999  -101.901
25433.2     71.800   -92.259
25803.2     71.660   -73.753
26178.5     72.224   -66.987
26559.3     71.816   -62.246
26945.6     71.082   -52.644
27337.5     70.692   -41.581
27735.2     70.232   -29.462
28138.6     70.241   -11.977
28547.9     71.295     5.013
28963.1     72.178     9.511
29384.4     72.437    15.277
29811.8     72.572    18.923
30245.4     72.130    22.340
30685.3     71.215    31.204
31131.7     70.983    41.424
31584.5     70.458    48.215
32043.9     69.683    59.418
32510.0     69.569    69.510
32982.8     68.714    73.917
33462.6     67.055    85.711
33949.3     65.785   102.060
34443.1     64.842   121.109
34944.1     64.909   142.354
35452.4     65.479   154.868
35968.0     65.636   162.979
36491.2     65.537   169.904
37022.0     65.041   174.265
37560.5     63.943   176.962
38106.8     62.040   178.028
38661.1     59.021  -179.771
39223.4     54.750   179.221
39793.9     51.819   103.110
