Freq[Hz]     dBSPL  Phase[Deg]
5.00000     42.463  -138.797
5.07273     42.808  -138.985
5.14651     43.152  -139.175
5.22137     43.511  -134.998
5.29732     43.885  -131.233
5.37437     44.303  -128.804
5.45254     44.834  -127.786
5.53185     45.464  -127.883
5.61231     46.091  -128.531
5.69394     46.636  -129.450
5.77676     47.012  -130.673
5.86079     47.273  -132.164
5.94604     47.455  -133.648
6.03252     47.592  -134.825
6.12027     47.692  -135.410
6.20929     47.754  -135.500
6.29961     47.819  -135.213
6.39124     47.967  -134.575
6.48420     48.218  -133.577
6.57851     48.551  -132.394
6.67420     48.946  -131.391
6.77128     49.398  -130.807
6.86977     49.904  -130.628
6.96969     50.433  -130.812
7.07107     50.938  -131.376
7.17392     51.404  -132.318
7.27827     51.835  -133.513
7.38413     52.225  -134.782
7.49154     52.570  -136.058
7.60050     52.870  -137.330
7.71105     53.151  -138.489
7.82321     53.420  -139.493
7.93701     53.683  -140.365
8.05245     53.949  -141.135
8.16958     54.229  -141.827
8.28841     54.519  -142.469
8.40896     54.815  -143.107
8.53128     55.114  -143.779
8.65537     55.411  -144.464
8.78126     55.702  -145.139
8.90899     55.981  -145.786
9.03857     56.256  -146.386
9.17004     56.531  -146.887
9.30342     56.809  -147.305
9.43874     57.101  -147.668
9.57603     57.413  -147.998
9.71532     57.740  -148.348
9.85663     58.079  -148.774
10.0000     58.427  -149.279
10.1455     58.770  -149.873
10.2930     59.101  -150.536
10.4427     59.422  -151.210
10.5946     59.731  -151.864
10.7487     60.035  -152.488
10.9051     60.343  -153.072
11.0637     60.652  -153.636
11.2246     60.965  -154.203
11.3879     61.277  -154.770
11.5535     61.583  -155.318
11.7216     61.885  -155.846
11.8921     62.193  -156.310
12.0650     62.504  -156.755
12.2405     62.834  -157.218
12.4186     63.173  -157.724
12.5992     63.515  -158.348
12.7825     63.849  -159.041
12.9684     64.159  -159.749
13.1570     64.467  -160.453
13.3484     64.768  -161.043
13.5426     65.085  -161.601
13.7395     65.427  -162.226
13.9394     65.787  -163.049
14.1421     66.127  -164.158
14.3478     66.441  -165.383
14.5565     66.684  -166.633
14.7683     66.878  -167.700
14.9831     67.055  -168.372
15.2010     67.275  -168.770
15.4221     67.548  -169.158
15.6464     67.848  -169.732
15.8740     68.137  -170.527
16.1049     68.387  -171.435
16.3392     68.604  -172.317
16.5768     68.808  -173.101
16.8179     69.007  -173.796
17.0626     69.190  -174.399
17.3107     69.348  -174.807
17.5625     69.500  -174.901
17.8180     69.689  -174.683
18.0771     69.943  -174.341
18.3401     70.253  -174.104
18.6068     70.589  -174.111
18.8775     70.930  -174.366
19.1521     71.262  -174.814
19.4306     71.577  -175.374
19.7133     71.871  -175.951
20.0000     72.155  -176.473
20.2909     72.446  -176.938
20.5860     72.750  -177.421
20.8855     73.056  -177.969
21.1893     73.358  -178.571
21.4975     73.655  -179.201
21.8102     73.953  -179.844
22.1274     74.248   179.476
22.4492     74.540   178.777
22.7758     74.825   178.063
23.1071     75.105   177.353
23.4432     75.383   176.657
23.7841     75.659   175.971
24.1301     75.933   175.290
24.4811     76.203   174.637
24.8372     76.471   174.023
25.1984     76.748   173.447
25.5649     77.031   172.864
25.9368     77.316   172.266
26.3141     77.602   171.670
26.6968     77.895   171.077
27.0851     78.198   170.445
27.4791     78.503   169.704
27.8788     78.798   168.877
28.2843     79.074   168.055
28.6957     79.345   167.285
29.1131     79.618   166.560
29.5365     79.897   165.836
29.9661     80.169   165.123
30.4020     80.449   164.445
30.8442     80.741   163.740
31.2929     81.034   162.985
31.7480     81.328   162.177
32.2098     81.622   161.316
32.6783     81.912   160.397
33.1536     82.193   159.434
33.6359     82.467   158.447
34.1251     82.731   157.445
34.6215     82.981   156.474
35.1250     83.223   155.596
35.6359     83.471   154.816
36.1543     83.730   154.085
36.6802     83.998   153.368
37.2137     84.279   152.649
37.7550     84.573   151.883
38.3041     84.872   151.058
38.8613     85.174   150.146
39.4265     85.475   149.198
40.0000     85.781   148.201
40.5818     86.088   147.105
41.1721     86.387   145.920
41.7710     86.677   144.675
42.3785     86.956   143.418
42.9949     87.231   142.180
43.6203     87.509   140.940
44.2548     87.792   139.662
44.8985     88.081   138.303
45.5515     88.373   136.766
46.2141     88.647   134.973
46.8863     88.857   132.985
47.5683     88.991   131.158
48.2602     89.086   129.911
48.9621     89.235   129.179
49.6743     89.437   128.522
50.3968     89.683   127.793
51.1299     89.956   126.930
51.8736     90.245   125.863
52.6281     90.532   124.615
53.3936     90.810   123.255
54.1702     91.080   121.828
54.9581     91.346   120.353
55.7575     91.607   118.829
56.5685     91.866   117.258
57.3914     92.124   115.637
58.2261     92.379   113.946
59.0730     92.626   112.174
59.9323     92.863   110.376
60.8040     93.099   108.536
61.6884     93.324   106.605
62.5857     93.536   104.671
63.4960     93.747   102.754
64.4196     93.966   100.779
65.3566     94.185    98.637
66.3073     94.385    96.262
67.2717     94.537    93.734
68.2502     94.630    91.270
69.2429     94.679    89.118
70.2501     94.730    87.441
71.2719     94.846    86.035
72.3086     95.024    84.401
73.3603     95.206    82.363
74.4274     95.358    80.091
75.5099     95.477    77.746
76.6083     95.572    75.383
77.7226     95.647    73.013
78.8531     95.700    70.647
80.0000     95.731    68.305
81.1636     95.733    65.962
82.3442     95.690    63.745
83.5419     95.624    61.882
84.7570     95.571    60.346
85.9899     95.549    58.993
87.2406     95.562    57.696
88.5096     95.603    56.353
89.7970     95.668    54.811
91.1031     95.729    53.052
92.4282     95.764    51.118
93.7726     95.766    49.184
95.1366     95.749    47.346
96.5204     95.724    45.567
97.9243     95.690    43.798
99.3486     95.643    42.078
100.794     95.585    40.422
102.260     95.511    38.842
103.747     95.429    37.430
105.256     95.355    36.201
106.787     95.299    35.045
108.340     95.260    33.853
109.916     95.219    32.570
111.515     95.164    31.268
113.137     95.092    30.007
114.783     95.001    28.867
116.452     94.922    28.074
118.146     94.872    27.347
119.865     94.864    26.540
121.608     94.866    25.637
123.377     94.873    24.514
125.171     94.864    23.270
126.992     94.812    21.951
128.839     94.728    20.992
130.713     94.649    20.390
132.615     94.619    19.821
134.543     94.640    19.138
136.500     94.672    18.227
138.486     94.693    17.116
140.500     94.693    15.969
142.544     94.691    14.877
144.617     94.698    13.626
146.721     94.656    12.054
148.855     94.545    10.749
151.020     94.421     9.972
153.217     94.346     9.561
155.445     94.330     9.074
157.706     94.331     8.394
160.000     94.353     7.659
162.327     94.375     6.436
164.688     94.323     5.149
167.084     94.239     4.199
169.514     94.159     3.449
171.980     94.082     2.894
174.481     94.037     2.545
177.019     94.033     2.120
179.594     94.033     1.523
182.206     94.026     0.963
184.856     94.027     0.481
187.545     94.051     0.062
190.273     94.120    -0.449
193.041     94.211    -1.392
195.849     94.251    -2.793
198.697     94.206    -4.069
201.587     94.141    -4.767
204.520     94.123    -5.145
207.494     94.164    -5.525
210.512     94.244    -6.142
213.574     94.334    -7.003
216.681     94.434    -8.094
219.833     94.536    -9.456
223.030     94.576   -11.369
226.274     94.541   -13.296
229.565     94.430   -14.966
232.905     94.288   -16.062
236.292     94.196   -16.720
239.729     94.156   -17.492
243.216     94.082   -18.650
246.754     93.931   -19.453
250.343     93.803   -19.599
253.984     93.724   -19.427
257.678     93.729   -19.005
261.426     93.796   -18.708
265.229     93.904   -18.425
269.087     94.102   -18.139
273.001     94.368   -18.902
276.972     94.550   -20.480
281.000     94.613   -21.938
285.088     94.642   -22.998
289.234     94.716   -23.641
293.441     94.849   -24.486
297.709     94.998   -25.766
302.040     95.118   -27.476
306.433     95.172   -29.383
310.890     95.180   -31.167
315.412     95.154   -32.875
320.000     95.106   -34.341
324.655     95.079   -35.521
329.377     95.080   -36.820
334.168     95.078   -38.218
339.028     95.074   -39.638
343.959     95.067   -41.102
348.962     95.058   -42.588
354.038     95.046   -44.118
359.188     95.026   -45.676
364.412     95.002   -47.239
369.713     94.974   -48.807
375.090     94.944   -50.377
380.546     94.910   -51.950
386.081     94.873   -53.523
391.697     94.832   -55.097
397.394     94.788   -56.670
403.175     94.740   -58.240
409.039     94.690   -59.807
414.989     94.636   -61.369
421.025     94.579   -62.926
427.149     94.519   -64.476
433.362     94.457   -66.017
439.665     94.392   -67.548
446.060     94.324   -69.070
452.548     94.254   -70.579
459.131     94.182   -72.074
465.809     94.109   -73.557
472.584     94.034   -75.023
479.458     93.958   -76.475
486.432     93.881   -77.912
493.507     93.805   -79.331
500.686     93.729   -80.734
507.968     93.652   -82.123
515.357     93.577   -83.496
522.853     93.504   -84.856
530.458     93.433   -86.205
538.174     93.364   -87.543
546.002     93.298   -88.875
553.943     93.235   -90.203
562.001     93.175   -91.531
570.175     93.119   -92.861
578.469     93.067   -94.199
586.883     93.018   -95.549
595.419     92.973   -96.913
604.080     92.931   -98.295
612.866     92.893   -99.701
621.780     92.857  -101.132
630.824     92.824  -102.595
640.000     92.793  -104.089
649.309     92.763  -105.619
658.753     92.735  -107.184
668.335     92.706  -108.784
678.056     92.677  -110.420
687.919     92.646  -112.090
697.925     92.614  -113.793
708.077     92.580  -115.525
718.376     92.544  -117.286
728.825     92.504  -119.070
739.426     92.462  -120.876
750.181     92.416  -122.699
761.093     92.368  -124.538
772.163     92.317  -126.388
783.394     92.263  -128.246
794.789     92.207  -130.112
806.349     92.149  -131.984
818.078     92.088  -133.863
829.977     92.026  -135.748
842.050     91.963  -137.642
854.298     91.898  -139.544
866.724     91.830  -141.457
879.330     91.760  -143.380
892.120     91.686  -145.314
905.097     91.608  -147.254
918.262     91.525  -149.197
931.618     91.437  -151.134
945.169     91.341  -153.055
958.917     91.238  -154.947
972.864     91.127  -156.792
987.015     91.010  -158.573
1001.37     90.888  -160.263
1015.94     90.763  -161.851
1030.71     90.639  -163.314
1045.71     90.522  -164.635
1060.92     90.416  -165.826
1076.35     90.328  -166.881
1092.00     90.265  -167.826
1107.89     90.231  -168.698
1124.00     90.232  -169.541
1140.35     90.263  -170.402
1156.94     90.334  -171.358
1173.77     90.425  -172.393
1190.84     90.549  -173.646
1208.16     90.681  -174.985
1225.73     90.829  -176.552
1243.56     90.982  -178.250
1261.65     91.138   179.886
1280.00     91.295   177.909
1298.62     91.454   175.779
1317.51     91.613   173.635
1336.67     91.779   171.346
1356.11     91.952   168.948
1375.84     92.133   166.406
1395.85     92.321   163.686
1416.15     92.510   160.705
1436.75     92.697   157.565
1457.65     92.870   154.114
1478.85     93.025   150.431
1500.36     93.150   146.509
1522.19     93.231   142.360
1544.33     93.265   138.072
1566.79     93.249   133.709
1589.58     93.183   129.340
1612.70     93.068   125.030
1636.16     92.908   120.839
1659.95     92.711   116.810
1684.10     92.485   112.974
1708.60     92.239   109.329
1733.45     91.982   105.852
1758.66     91.717   102.510
1784.24     91.447    99.263
1810.19     91.167    96.084
1836.52     90.876    92.964
1863.24     90.572    89.908
1890.34     90.253    86.929
1917.83     89.925    84.027
1945.73     89.590    81.175
1974.03     89.250    78.313
2002.74     88.896    75.348
2031.87     88.518    72.218
2061.43     88.088    68.888
2091.41     87.575    65.408
2121.83     86.951    61.925
2152.69     86.165    58.787
2184.01     85.275    56.040
2215.77     84.194    54.638
2248.00     83.029    54.387
2280.70     81.806    56.378
2313.87     80.678    60.767
2347.53     79.833    67.251
2381.68     79.471    74.389
2416.32     79.468    80.488
2451.46     79.704    83.672
2487.12     79.875    84.500
2523.30     79.681    83.140
2560.00     78.987    81.573
2597.24     77.660    82.376
2635.01     75.857    90.031
2673.34     74.935   113.302
2712.23     76.094   139.865
2751.68     78.840   152.208
2791.70     81.355   154.355
2832.31     83.305   151.711
2873.50     84.867   147.430
2915.30     86.103   142.155
2957.70     87.062   136.211
3000.72     87.751   129.753
3044.37     88.114   123.176
3088.65     88.170   117.221
3133.58     88.010   112.463
3179.16     87.731   109.514
3225.40     87.475   108.029
3272.31     87.301   107.521
3319.91     87.191   107.569
3368.20     87.122   108.356
3417.19     87.175   110.258
3466.89     87.505   112.799
3517.32     88.146   114.465
3568.48     88.921   114.106
3620.39     89.625   111.911
3673.05     90.182   108.715
3726.47     90.607   105.047
3780.67     90.886   100.953
3835.67     91.025    96.695
3891.46     90.909    93.180
3948.06     90.666    90.750
4005.49     90.557    90.791
4063.75     90.781    91.354
4122.86     91.258    90.385
4182.82     91.721    87.586
4243.66     92.077    83.810
4305.39     92.377    79.265
4368.01     92.554    73.371
4431.55     92.370    66.257
4496.01     91.738    59.645
4561.40     90.720    55.863
4627.75     89.668    54.968
4695.06     88.760    55.578
4763.35     87.782    57.460
4832.64     86.781    63.827
4902.93     86.722    74.717
4974.24     87.493    82.621
5046.60     88.480    85.280
5120.00     89.423    85.765
5194.47     90.302    83.996
5270.03     90.868    80.044
5346.68     91.053    76.251
5424.45     91.116    74.010
5503.35     91.333    72.300
5583.40     91.577    69.222
5664.61     91.615    65.249
5747.01     91.425    61.158
5830.60     90.960    57.818
5915.41     90.253    56.485
6001.45     89.567    58.533
6088.74     89.276    62.268
6177.30     89.313    66.484
6267.15     89.753    70.182
6358.31     90.403    71.135
6450.80     90.938    69.961
6544.62     91.267    68.031
6639.82     91.487    66.294
6736.40     91.690    64.573
6834.38     91.849    62.439
6933.79     91.903    60.174
7034.64     91.873    58.018
7136.96     91.721    56.211
7240.77     91.534    55.603
7346.09     91.457    55.428
7452.94     91.389    55.309
7561.35     91.424    55.671
7671.33     91.536    55.646
7782.91     91.674    55.171
7896.12     91.905    54.472
8010.97     92.006    51.759
8127.49     91.839    49.850
8245.71     91.627    48.124
8365.65     91.206    48.425
8487.33     91.065    50.273
8610.78     91.040    51.669
8736.03     91.169    53.794
8863.09     91.534    55.428
8992.01     92.178    55.817
9122.80     92.748    52.470
9255.50     92.822    47.603
9390.12     92.436    43.720
9526.70     91.785    43.550
9665.27     91.486    46.959
9805.86     91.785    50.304
9948.49     92.387    50.598
10093.2     92.754    48.091
10240.0     92.826    45.605
10388.9     92.804    44.394
10540.1     92.944    43.463
10693.4     93.068    41.317
10848.9     92.970    38.753
11006.7     92.696    37.790
11166.8     92.576    38.326
11329.2     92.656    38.309
11494.0     92.726    37.592
11661.2     92.821    37.755
11830.8     93.081    37.078
12002.9     93.377    33.939
12177.5     93.253    29.934
12354.6     92.628    28.940
12534.3     92.295    31.507
12716.6     92.719    34.014
12901.6     93.199    32.128
13089.2     93.519    28.578
13279.6     93.595    24.682
13472.8     93.364    20.838
13668.8     92.886    18.820
13867.6     92.576    19.759
14069.3     92.758    20.022
14273.9     93.071    17.202
14481.5     92.974    13.335
14692.2     92.721    10.069
14905.9     92.302     6.832
15122.7     91.731     5.229
15342.7     91.277     5.282
15565.8     91.093     5.180
15792.2     90.900     3.440
16021.9     90.543     1.683
16255.0     90.043     0.074
16491.4     89.359     0.994
16731.3     89.230     4.541
16974.7     89.548     3.772
17221.6     89.374    -0.278
17472.1     88.661    -2.295
17726.2     88.003    -0.538
17984.0     87.908     2.328
18245.6     88.194     1.639
18511.0     88.062    -2.663
18780.2     87.292    -5.483
19053.4     86.467    -4.003
19330.5     86.198    -0.984
19611.7     86.288    -1.130
19897.0     86.018    -4.037
20186.4     85.301    -4.673
20480.0     84.825    -2.801
20777.9     84.717    -2.387
21080.1     84.440    -4.564
21386.7     83.741    -6.282
21697.8     83.084    -4.332
22013.4     82.712    -2.849
22333.6     82.392    -3.733
22658.4     81.842    -4.503
22988.0     81.249    -4.419
23322.4     80.688    -4.942
23661.6     79.931    -6.230
24005.8     78.861    -7.112
24355.0     77.577    -4.993
24709.2     76.400    -1.215
25068.6     75.194     3.369
25433.2     73.942    10.644
25803.2     72.921    22.732
26178.5     73.137    35.447
26559.3     73.020    40.869
26945.6     72.487    54.616
27337.5     74.047    73.138
27735.2     76.293    78.550
28138.6     77.785    75.118
28547.9     78.767    70.651
28963.1     79.360    64.936
29384.4     79.324    60.527
29811.8     79.404    57.605
30245.4     79.411    53.948
30685.3     79.142    50.679
31131.7     79.128    48.750
31584.5     79.038    43.792
32043.9     78.529    39.130
32510.0     78.132    35.280
32982.8     77.430    28.898
33462.6     76.197    24.632
33949.3     74.966    22.029
34443.1     73.611    19.517
34944.1     72.090    18.507
35452.4     70.473    17.721
35968.0     68.440    18.857
36491.2     66.238    24.185
37022.0     64.041    33.146
37560.5     62.271    51.049
38106.8     62.150    71.737
38661.1     62.618    83.006
39223.4     63.117    89.647
39793.9     63.566    95.140
