Freq[Hz]     dBSPL  Phase[Deg]
5.00000     42.463  -138.797
5.07273     42.808  -138.985
5.14651     43.152  -139.175
5.22137     43.511  -134.998
5.29732     43.885  -131.233
5.37437     44.303  -128.804
5.45254     44.834  -127.786
5.53185     45.464  -127.883
5.61231     46.091  -128.531
5.69394     46.636  -129.450
5.77676     47.012  -130.673
5.86079     47.273  -132.164
5.94604     47.455  -133.648
6.03252     47.592  -134.825
6.12027     47.692  -135.410
6.20929     47.754  -135.500
6.29961     47.819  -135.213
6.39124     47.967  -134.575
6.48420     48.218  -133.577
6.57851     48.551  -132.394
6.67420     48.946  -131.391
6.77128     49.398  -130.807
6.86977     49.904  -130.628
6.96969     50.433  -130.812
7.07107     50.938  -131.376
7.17392     51.404  -132.318
7.27827     51.835  -133.513
7.38413     52.225  -134.782
7.49154     52.570  -136.058
7.60050     52.870  -137.330
7.71105     53.151  -138.489
7.82321     53.420  -139.493
7.93701     53.683  -140.365
8.05245     53.949  -141.135
8.16958     54.229  -141.827
8.28841     54.519  -142.469
8.40896     54.815  -143.107
8.53128     55.114  -143.779
8.65537     55.411  -144.464
8.78126     55.702  -145.139
8.90899     55.981  -145.786
9.03857     56.256  -146.386
9.17004     56.531  -146.887
9.30342     56.809  -147.305
9.43874     57.101  -147.668
9.57603     57.413  -147.998
9.71532     57.740  -148.348
9.85663     58.079  -148.774
10.0000     58.427  -149.279
10.1455     58.770  -149.873
10.2930     59.101  -150.536
10.4427     59.422  -151.210
10.5946     59.731  -151.864
10.7487     60.035  -152.488
10.9051     60.343  -153.072
11.0637     60.652  -153.636
11.2246     60.965  -154.203
11.3879     61.277  -154.770
11.5535     61.583  -155.318
11.7216     61.885  -155.846
11.8921     62.193  -156.310
12.0650     62.504  -156.755
12.2405     62.834  -157.218
12.4186     63.173  -157.724
12.5992     63.515  -158.348
12.7825     63.849  -159.041
12.9684     64.159  -159.749
13.1570     64.467  -160.453
13.3484     64.768  -161.043
13.5426     65.085  -161.601
13.7395     65.427  -162.226
13.9394     65.787  -163.049
14.1421     66.127  -164.158
14.3478     66.441  -165.383
14.5565     66.684  -166.633
14.7683     66.878  -167.700
14.9831     67.055  -168.372
15.2010     67.275  -168.770
15.4221     67.548  -169.158
15.6464     67.848  -169.732
15.8740     68.137  -170.527
16.1049     68.387  -171.435
16.3392     68.604  -172.317
16.5768     68.808  -173.101
16.8179     69.007  -173.796
17.0626     69.190  -174.399
17.3107     69.348  -174.807
17.5625     69.500  -174.901
17.8180     69.689  -174.683
18.0771     69.943  -174.341
18.3401     70.253  -174.104
18.6068     70.589  -174.111
18.8775     70.930  -174.366
19.1521     71.262  -174.814
19.4306     71.577  -175.374
19.7133     71.871  -175.951
20.0000     72.155  -176.473
20.2909     72.446  -176.938
20.5860     72.750  -177.421
20.8855     73.056  -177.969
21.1893     73.358  -178.571
21.4975     73.655  -179.201
21.8102     73.953  -179.844
22.1274     74.248   179.476
22.4492     74.540   178.777
22.7758     74.825   178.063
23.1071     75.105   177.353
23.4432     75.383   176.657
23.7841     75.659   175.971
24.1301     75.933   175.290
24.4811     76.203   174.637
24.8372     76.471   174.023
25.1984     76.748   173.447
25.5649     77.031   172.864
25.9368     77.316   172.266
26.3141     77.602   171.670
26.6968     77.895   171.077
27.0851     78.198   170.445
27.4791     78.503   169.704
27.8788     78.798   168.877
28.2843     79.074   168.055
28.6957     79.345   167.285
29.1131     79.618   166.560
29.5365     79.897   165.836
29.9661     80.169   165.123
30.4020     80.449   164.445
30.8442     80.741   163.740
31.2929     81.034   162.985
31.7480     81.328   162.177
32.2098     81.622   161.316
32.6783     81.912   160.397
33.1536     82.193   159.434
33.6359     82.467   158.447
34.1251     82.731   157.445
34.6215     82.981   156.474
35.1250     83.223   155.596
35.6359     83.471   154.816
36.1543     83.730   154.085
36.6802     83.998   153.368
37.2137     84.279   152.649
37.7550     84.573   151.883
38.3041     84.872   151.058
38.8613     85.174   150.146
39.4265     85.475   149.198
40.0000     85.781   148.201
40.5818     86.088   147.103
41.1721     86.387   145.913
41.7710     86.676   144.660
42.3785     86.953   143.392
42.9949     87.226   142.140
43.6203     87.501   140.884
44.2548     87.781   139.587
44.8985     88.068   138.208
45.5515     88.356   136.648
46.2141     88.625   134.831
46.8863     88.832   132.817
47.5683     88.961   130.961
48.2602     89.049   129.685
48.9621     89.193   128.924
49.6743     89.388   128.234
50.3968     89.628   127.473
51.1299     89.894   126.576
51.8736     90.175   125.475
52.6281     90.454   124.192
53.3936     90.724   122.796
54.1702     90.986   121.333
54.9581     91.241   119.822
55.7575     91.493   118.261
56.5685     91.742   116.653
57.3914     91.989   114.995
58.2261     92.233   113.267
59.0730     92.469   111.458
59.9323     92.694   109.623
60.8040     92.918   107.747
61.6884     93.130   105.779
62.5857     93.329   103.810
63.4960     93.526   101.857
64.4196     93.731    99.847
65.3566     93.936    97.670
66.3073     94.121    95.262
67.2717     94.257    92.701
68.2502     94.335    90.205
69.2429     94.368    88.021
70.2501     94.402    86.313
71.2719     94.501    84.879
72.3086     94.661    83.216
73.3603     94.826    81.150
74.4274     94.959    78.852
75.5099     95.059    76.481
76.6083     95.136    74.095
77.7226     95.191    71.701
78.8531     95.224    69.315
80.0000     95.234    66.952
81.1636     95.216    64.591
82.3442     95.152    62.357
83.5419     95.063    60.477
84.7570     94.988    58.928
85.9899     94.944    57.563
87.2406     94.934    56.255
88.5096     94.951    54.902
89.7970     94.992    53.353
91.1031     95.029    51.589
92.4282     95.039    49.650
93.7726     95.015    47.715
95.1366     94.973    45.876
96.5204     94.922    44.100
97.9243     94.862    42.335
99.3486     94.787    40.621
100.794     94.701    38.973
102.260     94.600    37.404
103.747     94.488    36.004
105.256     94.385    34.790
106.787     94.300    33.652
108.340     94.231    32.478
109.916     94.159    31.217
111.515     94.074    29.940
113.137     93.969    28.706
114.783     93.847    27.595
116.452     93.735    26.835
118.146     93.652    26.142
119.865     93.610    25.373
121.608     93.579    24.510
123.377     93.550    23.431
125.171     93.506    22.233
126.992     93.418    20.963
128.839     93.297    20.057
130.713     93.180    19.510
132.615     93.113    19.000
134.543     93.096    18.378
136.500     93.088    17.533
138.486     93.069    16.491
140.500     93.030    15.417
142.544     92.986    14.401
144.617     92.951    13.229
146.721     92.867    11.742
148.855     92.713    10.524
151.020     92.545     9.838
153.217     92.425     9.524
155.445     92.364     9.137
157.706     92.319     8.562
160.000     92.294     7.937
162.327     92.269     6.828
164.688     92.168     5.660
167.084     92.036     4.834
169.514     91.905     4.214
171.980     91.777     3.794
174.481     91.681     3.585
177.019     91.624     3.307
179.594     91.571     2.863
182.206     91.509     2.461
184.856     91.455     2.144
187.545     91.423     1.897
190.273     91.435     1.566
193.041     91.468     0.808
195.849     91.450    -0.398
198.697     91.344    -1.473
201.587     91.219    -1.961
204.520     91.140    -2.120
207.494     91.119    -2.273
210.512     91.136    -2.653
213.574     91.162    -3.268
216.681     91.196    -4.103
219.833     91.232    -5.199
223.030     91.206    -6.833
226.274     91.105    -8.473
229.565     90.924    -9.842
232.905     90.715   -10.625
236.292     90.553   -10.957
239.729     90.444   -11.390
243.216     90.298   -12.196
246.754     90.076   -12.632
250.343     89.877   -12.395
253.984     89.726   -11.827
257.678     89.659   -10.990
261.426     89.653   -10.261
265.229     89.688    -9.529
269.087     89.814    -8.776
273.001     90.007    -9.053
276.972     90.119   -10.129
281.000     90.113   -11.065
285.088     90.074   -11.589
289.234     90.080   -11.670
293.441     90.148   -11.934
297.709     90.234   -12.614
302.040     90.290   -13.702
306.433     90.282   -14.962
310.890     90.228   -16.072
315.412     90.140   -17.076
320.000     90.032   -17.814
324.655     89.946   -18.235
329.377     89.889   -18.747
334.168     89.831   -19.330
339.028     89.773   -19.907
343.959     89.715   -20.499
348.962     89.658   -21.087
354.038     89.602   -21.692
359.188     89.542   -22.300
364.412     89.481   -22.890
369.713     89.422   -23.463
375.090     89.364   -24.019
380.546     89.309   -24.560
386.081     89.256   -25.093
391.697     89.206   -25.615
397.394     89.158   -26.134
403.175     89.114   -26.651
409.039     89.072   -27.170
414.989     89.034   -27.695
421.025     88.999   -28.232
427.149     88.966   -28.782
433.362     88.937   -29.354
439.665     88.910   -29.950
446.060     88.884   -30.572
452.548     88.861   -31.227
459.131     88.839   -31.921
465.809     88.816   -32.650
472.584     88.793   -33.423
479.458     88.768   -34.239
486.432     88.742   -35.095
493.507     88.712   -36.000
500.686     88.677   -36.951
507.968     88.638   -37.944
515.357     88.592   -38.980
522.853     88.539   -40.055
530.458     88.478   -41.164
538.174     88.407   -42.302
546.002     88.327   -43.465
553.943     88.235   -44.644
562.001     88.131   -45.830
570.175     88.017   -47.017
578.469     87.889   -48.190
586.883     87.747   -49.338
595.419     87.593   -50.450
604.080     87.427   -51.516
612.866     87.249   -52.517
621.780     87.060   -53.439
630.824     86.860   -54.255
640.000     86.654   -54.969
649.309     86.442   -55.544
658.753     86.228   -55.982
668.335     86.017   -56.273
678.056     85.813   -56.414
687.919     85.620   -56.412
697.925     85.443   -56.277
708.077     85.287   -56.035
718.376     85.156   -55.717
728.825     85.051   -55.365
739.426     84.975   -55.028
750.181     84.927   -54.759
761.093     84.905   -54.614
772.163     84.904   -54.643
783.394     84.917   -54.867
794.789     84.938   -55.299
806.349     84.959   -55.968
818.078     84.975   -56.872
829.977     84.978   -57.988
842.050     84.961   -59.301
854.298     84.919   -60.788
866.724     84.846   -62.405
879.330     84.742   -64.105
892.120     84.597   -65.841
905.097     84.421   -67.555
918.262     84.204   -69.179
931.618     83.954   -70.651
945.169     83.676   -71.905
958.917     83.377   -72.871
972.864     83.068   -73.487
987.015     82.764   -73.727
1001.37     82.483   -73.572
1015.94     82.239   -73.103
1030.71     82.049   -72.422
1045.71     81.922   -71.709
1060.92     81.851   -71.141
1076.35     81.831   -70.924
1092.00     81.839   -71.186
1107.89     81.854   -71.975
1124.00     81.849   -73.344
1140.35     81.807   -75.143
1156.94     81.688   -77.387
1173.77     81.516   -79.806
1190.84     81.211   -82.269
1208.16     80.858   -84.643
1225.73     80.376   -86.413
1243.56     79.828   -87.540
1261.65     79.225   -87.211
1280.00     78.641   -85.278
1298.62     78.287   -80.452
1317.51     77.970   -75.439
1336.67     78.089   -69.319
1356.11     78.475   -64.405
1375.84     79.051   -61.559
1395.85     79.702   -60.913
1416.15     80.323   -62.375
1436.75     80.897   -64.700
1457.65     81.353   -68.160
1478.85     81.714   -72.067
1500.36     81.972   -76.183
1522.19     82.133   -80.192
1544.33     82.238   -83.903
1566.79     82.316   -87.245
1589.58     82.393   -90.245
1612.70     82.493   -93.049
1636.16     82.628   -95.896
1659.95     82.798   -99.059
1684.10     82.985  -102.755
1708.60     83.166  -107.096
1733.45     83.315  -112.066
1758.66     83.412  -117.542
1784.24     83.443  -123.339
1810.19     83.404  -129.255
1836.52     83.302  -135.099
1863.24     83.147  -140.743
1890.34     82.956  -146.156
1917.83     82.739  -151.420
1945.73     82.498  -156.709
1974.03     82.222  -162.241
2002.74     81.873  -168.211
2031.87     81.422  -174.559
2061.43     80.823   178.945
2091.41     80.043   172.884
2121.83     79.087   168.328
2152.69     78.078   168.367
2184.01     77.168   172.659
2215.77     76.919  -175.158
2248.00     77.172  -163.179
2280.70     77.988  -158.311
2313.87     78.917  -160.112
2347.53     79.716  -165.804
2381.68     80.257  -173.516
2416.32     80.575   178.077
2451.46     80.595   169.503
2487.12     80.404   161.178
2523.30     79.947   153.513
2560.00     79.283   146.710
2597.24     78.413   141.249
2635.01     77.373   137.724
2673.34     76.228   138.085
2712.23     75.154   143.324
2751.68     74.490   157.164
2791.70     74.540   177.163
2832.31     75.449  -165.816
2873.50     76.792  -156.525
2915.30     78.304  -155.315
2957.70     79.713  -160.251
3000.72     80.844  -169.039
3044.37     81.571  -179.830
3088.65     81.913   169.150
3133.58     81.948   158.951
3179.16     81.679   150.076
3225.40     81.137   141.517
3272.31     80.237   131.632
3319.91     78.851   118.955
3368.20     77.073   103.653
3417.19     75.913   145.500
3466.89     76.754  -122.227
3517.32     78.922  -143.893
3568.48     80.634  -166.684
3620.39     81.420   171.498
3673.05     81.439   154.517
3726.47     81.105   151.205
3780.67     80.897   159.698
3835.67     80.797   163.369
3891.46     80.392   146.663
3948.06     79.574   123.867
4005.49     78.908   123.306
4063.75     79.699  -128.783
4122.86     81.365  -157.474
4182.82     82.440   174.497
4243.66     82.693   152.484
4305.39     82.695   155.780
4368.01     82.867   172.019
4431.55     82.896   154.079
4496.01     82.169   122.422
4561.40     80.401    74.479
4627.75     78.538   -23.419
4695.06     78.232  -158.427
4763.35     78.694   157.278
4832.64     79.018   146.224
4902.93     79.775  -151.926
4974.24     80.507  -173.444
5046.60     80.133   136.084
5120.00     79.244    55.147
5194.47     79.571   -62.991
5270.03     81.062  -144.434
5346.68     81.992   166.862
5424.45     82.069   151.380
5503.35     81.801   175.968
5583.40     81.299   154.832
5664.61     80.266   101.826
5747.01     79.377   -30.993
5830.60     78.790  -170.785
5915.41     78.303   133.476
6001.45     77.498    59.943
6088.74     77.900  -115.708
6177.30     78.896  -155.834
6267.15     79.223   172.351
6358.31     79.082   125.491
6450.80     79.403   173.489
6544.62     80.113  -142.414
6639.82     80.369   159.934
6736.40     79.923   159.852
6834.38     79.196  -159.692
6933.79     78.292   110.675
7034.64     77.473   -27.003
7136.96     76.948  -168.268
7240.77     76.344    72.146
7346.09     76.469   -65.928
7452.94     76.801   172.317
7561.35     76.712    33.950
7671.33     76.925    35.578
7782.91     77.329   117.793
7896.12     77.546   -40.129
8010.97     77.858  -139.614
8127.49     77.214    44.313
8245.71     76.793  -117.534
8365.65     75.862   109.805
8487.33     75.145   -56.671
8610.78     74.865   141.336
8736.03     74.424   -10.641
8863.09     74.437  -127.972
8992.01     74.546    -7.849
9122.80     74.787  -126.440
9255.50     74.562  -147.363
9390.12     73.803  -150.637
9526.70     72.832  -119.000
9665.27     72.080    95.591
9805.86     71.891   -83.764
9948.49     71.482   -45.660
10093.2     70.860   -76.572
10240.0     70.531   -49.528
10388.9     70.457   -89.410
10540.1     70.151   -54.182
10693.4     69.528  -107.478
10848.9     68.616   -61.962
11006.7     67.833   108.513
11166.8     67.078    25.362
11329.2     66.142    86.131
11494.0     65.410   -16.282
11661.2     64.840    43.508
11830.8     64.375   -25.214
12002.9     63.456    -1.130
12177.5     62.406  -133.172
12354.6     61.677   -84.427
12534.3     60.982  -124.453
12716.6     60.326   -65.198
12901.6     59.689  -167.801
13089.2     59.172   177.411
13279.6     59.221   172.492
13472.8     60.012   -47.974
13668.8     61.374    66.150
13867.6     62.402   177.828
14069.3     62.695   -99.300
14273.9     62.677  -111.401
14481.5     62.609    -0.350
14692.2     62.230    44.891
14905.9     61.960    81.011
15122.7     61.215   116.058
15342.7     59.637   153.486
15565.8     57.356  -162.753
15792.2     54.948  -114.186
16021.9     53.350   -56.454
16255.0     53.088   113.380
16491.4     53.609   123.702
16731.3     54.865   155.817
16974.7     55.718   178.024
17221.6     56.175  -168.107
17472.1     56.398  -150.531
17726.2     56.729  -127.694
17984.0     57.399  -121.165
18245.6     57.418  -107.697
18511.0     56.577   -74.516
18780.2     55.600    83.155
19053.4     55.100   159.290
19330.5     55.030  -176.649
19611.7     54.817   150.240
19897.0     54.673   133.772
20186.4     55.226   124.928
20480.0     56.340   109.767
20777.9     57.556    94.470
21080.1     58.548    76.192
21386.7     59.487    97.646
21697.8     60.695   171.375
22013.4     61.803   157.551
22333.6     62.467    98.821
22658.4     63.126    58.204
22988.0     63.944   102.245
23322.4     64.506    44.105
23661.6     64.801  -157.555
24005.8     65.062  -157.653
24355.0     65.327   135.360
24709.2     65.524  -170.348
25068.6     65.620    83.267
25433.2     65.533    -8.365
25803.2     65.206   -80.950
26178.5     64.670   157.300
26559.3     64.225    -8.678
26945.6     63.851  -118.202
27337.5     63.319    57.562
27735.2     62.545   122.309
28138.6     61.530   -12.173
28547.9     60.597  -107.195
28963.1     60.567   153.480
29384.4     61.310    29.568
29811.8     61.818  -109.288
30245.4     61.653  -103.000
30685.3     60.931   -15.013
31131.7     59.902   112.322
31584.5     58.443   -99.393
32043.9     57.387    41.682
32510.0     56.951   174.186
32982.8     56.656   -39.772
33462.6     56.494    57.622
33949.3     55.756   154.605
34443.1     54.853  -123.416
34944.1     54.151   -56.886
35452.4     53.068     3.268
35968.0     52.138    58.741
36491.2     51.804   123.820
37022.0     51.563  -170.643
37560.5     51.212  -130.938
38106.8     50.331  -116.563
38661.1     48.983  -116.880
39223.4     47.262  -129.691
39793.9     45.681  -148.677
