Freq[Hz]     dBSPL  Phase[Deg]
5.00000     42.463  -138.797
5.07273     42.808  -138.985
5.14651     43.152  -139.175
5.22137     43.511  -134.998
5.29732     43.885  -131.233
5.37437     44.303  -128.804
5.45254     44.834  -127.786
5.53185     45.464  -127.883
5.61231     46.091  -128.531
5.69394     46.636  -129.450
5.77676     47.012  -130.673
5.86079     47.273  -132.164
5.94604     47.455  -133.648
6.03252     47.592  -134.825
6.12027     47.692  -135.410
6.20929     47.754  -135.500
6.29961     47.819  -135.213
6.39124     47.967  -134.575
6.48420     48.218  -133.577
6.57851     48.551  -132.394
6.67420     48.946  -131.391
6.77128     49.398  -130.807
6.86977     49.904  -130.628
6.96969     50.433  -130.812
7.07107     50.938  -131.376
7.17392     51.404  -132.318
7.27827     51.835  -133.513
7.38413     52.225  -134.782
7.49154     52.570  -136.058
7.60050     52.870  -137.330
7.71105     53.151  -138.489
7.82321     53.420  -139.493
7.93701     53.683  -140.365
8.05245     53.949  -141.135
8.16958     54.229  -141.827
8.28841     54.519  -142.469
8.40896     54.815  -143.107
8.53128     55.114  -143.779
8.65537     55.411  -144.464
8.78126     55.702  -145.139
8.90899     55.981  -145.786
9.03857     56.256  -146.386
9.17004     56.531  -146.887
9.30342     56.809  -147.305
9.43874     57.101  -147.668
9.57603     57.413  -147.998
9.71532     57.740  -148.348
9.85663     58.079  -148.774
10.0000     58.427  -149.279
10.1455     58.770  -149.873
10.2930     59.101  -150.536
10.4427     59.422  -151.210
10.5946     59.731  -151.864
10.7487     60.035  -152.488
10.9051     60.343  -153.072
11.0637     60.652  -153.636
11.2246     60.965  -154.203
11.3879     61.277  -154.770
11.5535     61.583  -155.318
11.7216     61.885  -155.846
11.8921     62.193  -156.310
12.0650     62.504  -156.755
12.2405     62.834  -157.218
12.4186     63.173  -157.724
12.5992     63.515  -158.348
12.7825     63.849  -159.041
12.9684     64.159  -159.749
13.1570     64.467  -160.453
13.3484     64.768  -161.043
13.5426     65.085  -161.601
13.7395     65.427  -162.226
13.9394     65.787  -163.049
14.1421     66.127  -164.158
14.3478     66.441  -165.383
14.5565     66.684  -166.633
14.7683     66.878  -167.700
14.9831     67.055  -168.372
15.2010     67.275  -168.770
15.4221     67.548  -169.158
15.6464     67.848  -169.732
15.8740     68.137  -170.527
16.1049     68.387  -171.435
16.3392     68.604  -172.317
16.5768     68.808  -173.101
16.8179     69.007  -173.796
17.0626     69.190  -174.399
17.3107     69.348  -174.807
17.5625     69.500  -174.901
17.8180     69.689  -174.683
18.0771     69.943  -174.341
18.3401     70.253  -174.104
18.6068     70.589  -174.111
18.8775     70.930  -174.366
19.1521     71.262  -174.814
19.4306     71.577  -175.374
19.7133     71.871  -175.951
20.0000     72.155  -176.473
20.2909     72.446  -176.938
20.5860     72.750  -177.421
20.8855     73.056  -177.969
21.1893     73.358  -178.571
21.4975     73.655  -179.201
21.8102     73.953  -179.844
22.1274     74.248   179.476
22.4492     74.540   178.777
22.7758     74.825   178.063
23.1071     75.105   177.353
23.4432     75.383   176.657
23.7841     75.659   175.971
24.1301     75.933   175.290
24.4811     76.203   174.637
24.8372     76.471   174.023
25.1984     76.748   173.447
25.5649     77.031   172.864
25.9368     77.316   172.266
26.3141     77.602   171.670
26.6968     77.895   171.077
27.0851     78.198   170.445
27.4791     78.503   169.704
27.8788     78.798   168.877
28.2843     79.074   168.055
28.6957     79.345   167.285
29.1131     79.618   166.560
29.5365     79.897   165.836
29.9661     80.169   165.123
30.4020     80.449   164.445
30.8442     80.741   163.740
31.2929     81.034   162.985
31.7480     81.328   162.177
32.2098     81.622   161.316
32.6783     81.912   160.397
33.1536     82.193   159.434
33.6359     82.467   158.447
34.1251     82.731   157.445
34.6215     82.981   156.474
35.1250     83.223   155.596
35.6359     83.471   154.816
36.1543     83.730   154.085
36.6802     83.998   153.368
37.2137     84.279   152.649
37.7550     84.573   151.883
38.3041     84.872   151.058
38.8613     85.174   150.146
39.4265     85.475   149.198
40.0000     85.781   148.201
40.5818     86.088   147.103
41.1721     86.387   145.911
41.7710     86.675   144.655
42.3785     86.952   143.384
42.9949     87.225   142.127
43.6203     87.500   140.865
44.2548     87.779   139.562
44.8985     88.065   138.175
45.5515     88.352   136.607
46.2141     88.621   134.781
46.8863     88.826   132.757
47.5683     88.954   130.891
48.2602     89.042   129.604
48.9621     89.184   128.830
49.6743     89.378   128.127
50.3968     89.616   127.352
51.1299     89.881   126.442
51.8736     90.160   125.325
52.6281     90.437   124.027
53.3936     90.705   122.614
54.1702     90.965   121.134
54.9581     91.218   119.605
55.7575     91.468   118.025
56.5685     91.714   116.399
57.3914     91.958   114.721
58.2261     92.200   112.972
59.0730     92.433   111.142
59.9323     92.655   109.285
60.8040     92.876   107.387
61.6884     93.085   105.396
62.5857     93.280   103.402
63.4960     93.474   101.425
64.4196     93.675    99.390
65.3566     93.877    97.187
66.3073     94.058    94.752
67.2717     94.190    92.164
68.2502     94.264    89.640
69.2429     94.293    87.427
70.2501     94.323    85.690
71.2719     94.417    84.225
72.3086     94.573    82.531
73.3603     94.732    80.433
74.4274     94.861    78.102
75.5099     94.956    75.699
76.6083     95.028    73.278
77.7226     95.078    70.850
78.8531     95.106    68.427
80.0000     95.110    66.028
81.1636     95.087    63.629
82.3442     95.017    61.356
83.5419     94.923    59.438
84.7570     94.842    57.848
85.9899     94.792    56.442
87.2406     94.775    55.092
88.5096     94.787    53.696
89.7970     94.821    52.103
91.1031     94.851    50.293
92.4282     94.854    48.309
93.7726     94.824    46.327
95.1366     94.774    44.440
96.5204     94.717    42.614
97.9243     94.649    40.799
99.3486     94.567    39.033
100.794     94.474    37.333
102.260     94.365    35.709
103.747     94.246    34.254
105.256     94.135    32.985
106.787     94.042    31.789
108.340     93.965    30.557
109.916     93.885    29.236
111.515     93.791    27.897
113.137     93.678    26.601
114.783     93.547    25.426
116.452     93.427    24.601
118.146     93.334    23.842
119.865     93.283    23.004
121.608     93.242    22.072
123.377     93.204    20.922
125.171     93.150    19.652
126.992     93.053    18.308
128.839     92.923    17.328
130.713     92.796    16.704
132.615     92.718    16.116
134.543     92.690    15.415
136.500     92.673    14.488
138.486     92.643    13.364
140.500     92.592    12.205
142.544     92.538    11.104
144.617     92.492     9.845
146.721     92.396     8.269
148.855     92.231     6.961
151.020     92.051     6.184
153.217     91.919     5.776
155.445     91.846     5.294
157.706     91.788     4.623
160.000     91.752     3.900
162.327     91.713     2.692
164.688     91.600     1.423
167.084     91.454     0.495
169.514     91.310    -0.229
171.980     91.169    -0.754
174.481     91.059    -1.069
177.019     90.987    -1.454
179.594     90.919    -2.007
182.206     90.843    -2.519
184.856     90.775    -2.947
187.545     90.728    -3.306
190.273     90.725    -3.750
193.041     90.742    -4.621
195.849     90.708    -5.941
198.697     90.587    -7.131
201.587     90.445    -7.734
204.520     90.348    -8.009
207.494     90.310    -8.278
210.512     90.310    -8.774
213.574     90.319    -9.505
216.681     90.335   -10.454
219.833     90.353   -11.665
223.030     90.308   -13.413
226.274     90.187   -15.164
229.565     89.989   -16.645
232.905     89.759   -17.537
236.292     89.578   -17.976
239.729     89.449   -18.515
243.216     89.283   -19.422
246.754     89.040   -19.956
250.343     88.820   -19.815
253.984     88.647   -19.339
257.678     88.558   -18.590
261.426     88.530   -17.947
265.229     88.542   -17.294
269.087     88.645   -16.612
273.001     88.816   -16.952
276.972     88.905   -18.081
281.000     88.876   -19.063
285.088     88.815   -19.621
289.234     88.800   -19.726
293.441     88.845   -20.004
297.709     88.908   -20.687
302.040     88.942   -21.770
306.433     88.911   -23.017
310.890     88.834   -24.104
315.412     88.724   -25.077
320.000     88.592   -25.773
324.655     88.483   -26.141
329.377     88.404   -26.589
334.168     88.323   -27.096
339.028     88.243   -27.585
343.959     88.164   -28.077
348.962     88.086   -28.550
354.038     88.009   -29.027
359.188     87.930   -29.494
364.412     87.854   -29.930
369.713     87.780   -30.335
375.090     87.710   -30.712
380.546     87.644   -31.060
386.081     87.584   -31.392
391.697     87.530   -31.703
397.394     87.480   -32.007
403.175     87.437   -32.302
409.039     87.401   -32.597
414.989     87.372   -32.899
421.025     87.350   -33.216
427.149     87.334   -33.551
433.362     87.325   -33.914
439.665     87.321   -34.313
446.060     87.323   -34.750
452.548     87.330   -35.235
459.131     87.341   -35.776
465.809     87.354   -36.369
472.584     87.369   -37.027
479.458     87.385   -37.746
486.432     87.402   -38.526
493.507     87.416   -39.379
500.686     87.428   -40.300
507.968     87.436   -41.283
515.357     87.439   -42.335
522.853     87.435   -43.449
530.458     87.425   -44.617
538.174     87.406   -45.840
546.002     87.378   -47.113
553.943     87.340   -48.429
562.001     87.290   -49.778
570.175     87.230   -51.152
578.469     87.157   -52.548
586.883     87.071   -53.952
595.419     86.972   -55.355
604.080     86.861   -56.748
612.866     86.737   -58.119
621.780     86.600   -59.458
630.824     86.451   -60.745
640.000     86.291   -61.980
649.309     86.121   -63.138
658.753     85.942   -64.214
668.335     85.759   -65.198
678.056     85.571   -66.083
687.919     85.383   -66.864
697.925     85.197   -67.541
708.077     85.017   -68.116
718.376     84.845   -68.600
728.825     84.685   -69.008
739.426     84.538   -69.363
750.181     84.408   -69.690
761.093     84.295   -70.023
772.163     84.199   -70.402
783.394     84.117   -70.854
794.789     84.047   -71.405
806.349     83.984   -72.085
818.078     83.925   -72.914
829.977     83.865   -73.893
842.050     83.799   -75.025
854.298     83.720   -76.311
866.724     83.624   -77.729
879.330     83.508   -79.247
892.120     83.364   -80.847
905.097     83.197   -82.474
918.262     82.997   -84.090
931.618     82.770   -85.641
945.169     82.516   -87.075
958.917     82.238   -88.331
972.864     81.942   -89.351
987.015     81.640   -90.094
1001.37     81.340   -90.511
1015.94     81.058   -90.624
1030.71     80.806   -90.461
1045.71     80.598   -90.108
1060.92     80.437   -89.696
1076.35     80.328   -89.378
1092.00     80.261   -89.302
1107.89     80.223   -89.567
1124.00     80.194   -90.281
1140.35     80.159   -91.366
1156.94     80.089   -92.897
1173.77     79.990   -94.631
1190.84     79.813   -96.551
1208.16     79.606   -98.462
1225.73     79.320  -100.091
1243.56     78.997  -101.374
1261.65     78.646  -101.879
1280.00     78.309  -101.581
1298.62     78.090   -99.958
1317.51     77.890   -98.252
1336.67     77.905   -96.006
1356.11     78.065   -94.240
1375.84     78.342   -93.493
1395.85     78.680   -94.058
1416.15     79.009   -96.175
1436.75     79.304   -99.022
1457.65     79.496  -102.957
1478.85     79.588  -107.389
1500.36     79.559  -112.080
1522.19     79.388  -116.583
1544.33     79.116  -120.442
1566.79     78.782  -123.231
1589.58     78.454  -124.559
1612.70     78.215  -124.300
1636.16     78.150  -122.861
1659.95     78.310  -121.251
1684.10     78.676  -120.701
1708.60     79.173  -122.036
1733.45     79.706  -125.405
1758.66     80.195  -130.497
1784.24     80.585  -136.845
1810.19     80.850  -143.988
1836.52     80.983  -151.518
1863.24     80.989  -159.089
1890.34     80.883  -166.427
1917.83     80.690  -173.333
1945.73     80.436  -179.718
1974.03     80.146   174.359
2002.74     79.830   168.694
2031.87     79.485   162.993
2061.43     79.086   157.036
2091.41     78.593   150.813
2121.83     77.972   144.628
2152.69     77.185   139.581
2184.01     76.319   135.943
2215.77     75.515   137.836
2248.00     74.940   143.992
2280.70     74.952   154.329
2313.87     75.513   161.456
2347.53     76.359   162.062
2381.68     77.188   157.171
2416.32     77.863   149.558
2451.46     78.238   139.881
2487.12     78.357   129.415
2523.30     78.120   118.524
2560.00     77.574   107.719
2597.24     76.689    97.412
2635.01     75.462    88.065
2673.34     73.828    80.970
2712.23     71.926    77.325
2751.68     70.026    84.335
2791.70     69.091   122.609
2832.31     70.078   163.287
2873.50     72.012  -178.238
2915.30     74.243  -179.176
2957.70     76.221   172.783
3000.72     77.760   160.993
3044.37     78.753   146.933
3088.65     79.225   132.044
3133.58     79.259   117.456
3179.16     78.833   104.395
3225.40     78.038    93.466
3272.31     76.869    84.184
3319.91     75.267    74.072
3368.20     73.281    58.651
3417.19     71.933   -10.104
3466.89     72.986  -128.879
3517.32     75.866  -166.436
3568.48     78.281   167.083
3620.39     79.640   141.304
3673.05     80.009   116.835
3726.47     79.610    97.136
3780.67     78.908    95.910
3835.67     78.313   106.502
3891.46     77.917   106.251
3948.06     77.375    87.098
4005.49     76.198    47.619
4063.75     75.843   -66.240
4122.86     77.766  -173.870
4182.82     79.882   148.172
4243.66     80.811   112.711
4305.39     80.648    80.822
4368.01     79.853    66.638
4431.55     79.288   103.863
4496.01     78.886    92.976
4561.40     77.695    53.174
4627.75     75.591    -6.389
4695.06     74.504  -113.492
4763.35     75.681   153.347
4832.64     76.782   100.026
4902.93     76.887    98.225
4974.24     77.124   142.274
5046.60     77.474   123.466
5120.00     77.108    68.920
5194.47     76.392   -22.301
5270.03     77.200    87.026
5346.68     78.619   139.207
5424.45     79.145    84.480
5503.35     78.434    43.021
5583.40     77.480   109.312
5664.61     76.780    92.460
5747.01     76.068    53.662
5830.60     75.505    59.901
5915.41     75.260   112.834
6001.45     74.841    59.707
6088.74     74.367   -17.565
6177.30     74.907   158.351
6267.15     75.626   119.867
6358.31     75.654    81.142
6450.80     75.640   -29.837
6544.62     76.135  -164.081
6639.82     76.500   109.005
6736.40     75.803    18.912
6834.38     74.830    16.321
6933.79     74.497   120.153
7034.64     73.784     6.841
7136.96     72.862     0.683
7240.77     72.419    92.451
7346.09     72.208   -40.024
7452.94     72.891  -178.100
7561.35     73.118    52.577
7671.33     73.189    56.622
7782.91     73.577   131.376
7896.12     73.413    -1.057
8010.97     73.436  -121.929
8127.49     73.690    71.350
8245.71     72.545   -84.435
8365.65     71.791   122.396
8487.33     70.539   -26.913
8610.78     70.459   148.722
8736.03     70.408    29.595
8863.09     70.437  -108.534
8992.01     70.690    58.048
9122.80     70.240  -106.256
9255.50     70.008   110.362
9390.12     69.284   104.628
9526.70     68.248   109.174
9665.27     67.534   130.233
9805.86     67.212   -42.941
9948.49     66.875   -28.474
10093.2     66.306   -53.614
10240.0     65.868   -17.777
10388.9     65.561   -62.248
10540.1     65.108   -22.265
10693.4     64.457   -79.233
10848.9     63.805   -33.146
11006.7     63.362  -107.559
11166.8     62.577   -26.424
11329.2     61.530   117.340
11494.0     60.503    16.362
11661.2     59.957    75.532
11830.8     59.381     4.973
12002.9     58.760    34.593
12177.5     57.775  -102.823
12354.6     56.627   -55.114
12534.3     55.927   -99.922
12716.6     55.691   -49.720
12901.6     55.271  -152.258
13089.2     54.718  -154.256
13279.6     54.586  -122.343
13472.8     55.053     8.774
13668.8     56.233   146.795
13867.6     57.378   -96.687
14069.3     57.756   -39.312
14273.9     58.015   -44.975
14481.5     57.682    62.351
14692.2     56.969   115.317
14905.9     56.527   155.761
15122.7     55.898  -165.785
15342.7     54.495  -126.122
15565.8     52.092   -85.909
15792.2     49.549   -47.727
16021.9     49.145    -7.617
16255.0     50.002    33.299
16491.4     50.287     6.299
16731.3     50.369    66.229
16974.7     51.166   117.942
17221.6     51.501  -152.878
17472.1     51.459  -104.721
17726.2     51.952   -58.581
17984.0     52.429   -22.085
18245.6     52.369    31.852
18511.0     51.141   -35.367
18780.2     49.928   -43.779
19053.4     49.119   -47.145
19330.5     48.795   -40.533
19611.7     48.875   -33.322
19897.0     49.239   -59.188
20186.4     50.011   -67.702
20480.0     50.844   -65.293
20777.9     51.628   -77.743
21080.1     52.656  -101.776
21386.7     54.140   -52.568
21697.8     55.689  -115.383
22013.4     56.779  -171.573
22333.6     57.258  -142.713
22658.4     57.831   164.265
22988.0     58.465    35.288
23322.4     58.912   -63.988
23661.6     59.169   162.012
24005.8     59.497   104.910
24355.0     59.694   -14.897
24709.2     59.689   -52.662
25068.6     59.704   148.898
25433.2     59.674    92.635
25803.2     59.285    10.677
26178.5     58.706  -135.941
26559.3     58.366   -20.764
26945.6     58.093  -143.743
27337.5     57.632   -45.389
27735.2     56.995   -54.736
28138.6     56.149    58.054
28547.9     55.232   -25.521
28963.1     54.831  -127.286
29384.4     55.131   122.918
29811.8     55.467    -8.511
30245.4     55.448    -6.546
30685.3     54.969    67.024
31131.7     53.861  -142.778
31584.5     52.207     9.868
32043.9     50.922   127.948
32510.0     50.824   -59.338
32982.8     51.226    62.210
33462.6     51.034   171.189
33949.3     49.848   -60.470
34443.1     48.682   -16.626
34944.1     48.208    62.765
35452.4     47.624   136.001
35968.0     46.986  -160.898
36491.2     46.393  -104.509
37022.0     45.776   -57.104
37560.5     45.012   -28.279
38106.8     43.720   -16.686
38661.1     42.143   -16.598
39223.4     40.449   -24.814
39793.9     39.225   -37.191
