Freq[Hz]     dBSPL  Phase[Deg]
5.00000     42.463  -138.797
5.07273     42.808  -138.985
5.14651     43.152  -139.175
5.22137     43.511  -134.998
5.29732     43.885  -131.233
5.37437     44.303  -128.804
5.45254     44.834  -127.786
5.53185     45.464  -127.883
5.61231     46.091  -128.531
5.69394     46.636  -129.450
5.77676     47.012  -130.673
5.86079     47.273  -132.164
5.94604     47.455  -133.648
6.03252     47.592  -134.825
6.12027     47.692  -135.410
6.20929     47.754  -135.500
6.29961     47.819  -135.213
6.39124     47.967  -134.575
6.48420     48.218  -133.577
6.57851     48.551  -132.394
6.67420     48.946  -131.391
6.77128     49.398  -130.807
6.86977     49.904  -130.628
6.96969     50.433  -130.812
7.07107     50.938  -131.376
7.17392     51.404  -132.318
7.27827     51.835  -133.513
7.38413     52.225  -134.782
7.49154     52.570  -136.058
7.60050     52.870  -137.330
7.71105     53.151  -138.489
7.82321     53.420  -139.493
7.93701     53.683  -140.365
8.05245     53.949  -141.135
8.16958     54.229  -141.827
8.28841     54.519  -142.469
8.40896     54.815  -143.107
8.53128     55.114  -143.779
8.65537     55.411  -144.464
8.78126     55.702  -145.139
8.90899     55.981  -145.786
9.03857     56.256  -146.386
9.17004     56.531  -146.887
9.30342     56.809  -147.305
9.43874     57.101  -147.668
9.57603     57.413  -147.998
9.71532     57.740  -148.348
9.85663     58.079  -148.774
10.0000     58.427  -149.279
10.1455     58.770  -149.873
10.2930     59.101  -150.536
10.4427     59.422  -151.210
10.5946     59.731  -151.864
10.7487     60.035  -152.488
10.9051     60.343  -153.072
11.0637     60.652  -153.636
11.2246     60.965  -154.203
11.3879     61.277  -154.770
11.5535     61.583  -155.318
11.7216     61.885  -155.846
11.8921     62.193  -156.310
12.0650     62.504  -156.755
12.2405     62.834  -157.218
12.4186     63.173  -157.724
12.5992     63.515  -158.348
12.7825     63.849  -159.041
12.9684     64.159  -159.749
13.1570     64.467  -160.453
13.3484     64.768  -161.043
13.5426     65.085  -161.601
13.7395     65.427  -162.226
13.9394     65.787  -163.049
14.1421     66.127  -164.158
14.3478     66.441  -165.383
14.5565     66.684  -166.633
14.7683     66.878  -167.700
14.9831     67.055  -168.372
15.2010     67.275  -168.770
15.4221     67.548  -169.158
15.6464     67.848  -169.732
15.8740     68.137  -170.527
16.1049     68.387  -171.435
16.3392     68.604  -172.317
16.5768     68.808  -173.101
16.8179     69.007  -173.796
17.0626     69.190  -174.399
17.3107     69.348  -174.807
17.5625     69.500  -174.901
17.8180     69.689  -174.683
18.0771     69.943  -174.341
18.3401     70.253  -174.104
18.6068     70.589  -174.111
18.8775     70.930  -174.366
19.1521     71.262  -174.814
19.4306     71.577  -175.374
19.7133     71.871  -175.951
20.0000     72.155  -176.473
20.2909     72.446  -176.938
20.5860     72.750  -177.421
20.8855     73.056  -177.969
21.1893     73.358  -178.571
21.4975     73.655  -179.201
21.8102     73.953  -179.844
22.1274     74.248   179.476
22.4492     74.540   178.777
22.7758     74.825   178.063
23.1071     75.105   177.353
23.4432     75.383   176.657
23.7841     75.659   175.971
24.1301     75.933   175.290
24.4811     76.203   174.637
24.8372     76.471   174.023
25.1984     76.748   173.447
25.5649     77.031   172.864
25.9368     77.316   172.266
26.3141     77.602   171.670
26.6968     77.895   171.077
27.0851     78.198   170.445
27.4791     78.503   169.704
27.8788     78.798   168.877
28.2843     79.074   168.055
28.6957     79.345   167.285
29.1131     79.618   166.560
29.5365     79.897   165.836
29.9661     80.169   165.123
30.4020     80.449   164.445
30.8442     80.741   163.740
31.2929     81.034   162.985
31.7480     81.328   162.177
32.2098     81.622   161.316
32.6783     81.912   160.397
33.1536     82.193   159.434
33.6359     82.467   158.447
34.1251     82.731   157.445
34.6215     82.981   156.474
35.1250     83.223   155.596
35.6359     83.471   154.816
36.1543     83.730   154.085
36.6802     83.998   153.368
37.2137     84.279   152.649
37.7550     84.573   151.883
38.3041     84.872   151.058
38.8613     85.174   150.146
39.4265     85.475   149.198
40.0000     85.781   148.201
40.5818     86.088   147.101
41.1721     86.386   145.903
41.7710     86.675   144.638
42.3785     86.951   143.354
42.9949     87.223   142.081
43.6203     87.496   140.800
44.2548     87.775   139.474
44.8985     88.059   138.061
45.5515     88.344   136.465
46.2141     88.610   134.607
46.8863     88.813   132.549
47.5683     88.938   130.646
48.2602     89.022   129.318
48.9621     89.160   128.501
49.6743     89.350   127.753
50.3968     89.584   126.930
51.1299     89.844   125.969
51.8736     90.117   124.798
52.6281     90.388   123.444
53.3936     90.650   121.972
54.1702     90.903   120.431
54.9581     91.149   118.837
55.7575     91.391   117.190
56.5685     91.629   115.494
57.3914     91.864   113.744
58.2261     92.097   111.920
59.0730     92.320   110.012
59.9323     92.532   108.074
60.8040     92.742   106.092
61.6884     92.939   104.013
62.5857     93.123   101.930
63.4960     93.305    99.860
64.4196     93.493    97.729
65.3566     93.681    95.427
66.3073     93.848    92.889
67.2717     93.967    90.195
68.2502     94.025    87.561
69.2429     94.039    85.235
70.2501     94.053    83.381
71.2719     94.131    81.796
72.3086     94.270    79.978
73.3603     94.412    77.752
74.4274     94.523    75.288
75.5099     94.599    72.749
76.6083     94.652    70.187
77.7226     94.683    67.614
78.8531     94.690    65.042
80.0000     94.674    62.488
81.1636     94.630    59.930
82.3442     94.538    57.493
83.5419     94.422    55.405
84.7570     94.318    53.641
85.9899     94.245    52.054
87.2406     94.205    50.519
88.5096     94.193    48.931
89.7970     94.203    47.141
91.1031     94.208    45.128
92.4282     94.186    42.933
93.7726     94.130    40.734
95.1366     94.054    38.624
96.5204     93.970    36.567
97.9243     93.875    34.515
99.3486     93.766    32.505
100.794     93.645    30.551
102.260     93.507    28.668
103.747     93.359    26.945
105.256     93.220    25.397
106.787     93.097    23.916
108.340     92.990    22.389
109.916     92.880    20.765
111.515     92.756    19.113
113.137     92.612    17.494
114.783     92.450    15.988
116.452     92.298    14.819
118.146     92.174    13.708
119.865     92.092    12.506
121.608     92.019    11.200
123.377     91.948     9.664
125.171     91.863     7.996
126.992     91.733     6.243
128.839     91.570     4.841
130.713     91.410     3.784
132.615     91.299     2.749
134.543     91.239     1.589
136.500     91.188     0.190
138.486     91.125    -1.421
140.500     91.042    -3.078
142.544     90.955    -4.694
144.617     90.877    -6.479
146.721     90.748    -8.597
148.855     90.550   -10.461
151.020     90.338   -11.810
153.217     90.175   -12.803
155.445     90.070   -13.885
157.706     89.981   -15.171
160.000     89.914   -16.523
162.327     89.845   -18.376
164.688     89.701   -20.304
167.084     89.527   -21.907
169.514     89.354   -23.320
171.980     89.185   -24.549
174.481     89.047   -25.584
177.019     88.949   -26.702
179.594     88.856   -28.003
182.206     88.756   -29.275
184.856     88.663   -30.477
187.545     88.593   -31.624
190.273     88.568   -32.867
193.041     88.565   -34.551
195.849     88.511   -36.696
198.697     88.373   -38.722
201.587     88.214   -40.170
204.520     88.103   -41.302
207.494     88.052   -42.435
210.512     88.040   -43.804
213.574     88.039   -45.415
216.681     88.047   -47.254
219.833     88.059   -49.358
223.030     88.010   -52.007
226.274     87.888   -54.662
229.565     87.689   -57.050
232.905     87.462   -58.853
236.292     87.286   -60.206
239.729     87.165   -61.659
243.216     87.008   -63.481
246.754     86.778   -64.931
250.343     86.573   -65.704
253.984     86.419   -66.141
257.678     86.349   -66.321
261.426     86.343   -66.611
265.229     86.382   -66.886
269.087     86.513   -67.121
273.001     86.716   -68.364
276.972     86.840   -70.381
281.000     86.850   -72.237
285.088     86.831   -73.653
289.234     86.860   -74.610
293.441     86.953   -75.734
297.709     87.067   -77.263
302.040     87.152   -79.199
306.433     87.174   -81.323
310.890     87.152   -83.318
315.412     87.097   -85.230
320.000     87.021   -86.894
324.655     86.968   -88.264
329.377     86.946   -89.748
334.168     86.923   -91.325
339.028     86.902   -92.919
343.959     86.880   -94.550
348.962     86.860   -96.200
354.038     86.841   -97.892
359.188     86.819   -99.609
364.412     86.796  -101.332
369.713     86.776  -103.062
375.090     86.758  -104.800
380.546     86.742  -106.550
386.081     86.728  -108.309
391.697     86.718  -110.088
397.394     86.711  -111.879
403.175     86.707  -113.696
409.039     86.707  -115.536
414.989     86.711  -117.406
421.025     86.719  -119.311
427.149     86.730  -121.251
433.362     86.745  -123.235
439.665     86.764  -125.269
446.060     86.786  -127.350
452.548     86.811  -129.490
459.131     86.839  -131.697
465.809     86.869  -133.964
472.584     86.901  -136.307
479.458     86.934  -138.722
486.432     86.966  -141.209
493.507     87.000  -143.785
500.686     87.032  -146.448
507.968     87.062  -149.192
515.357     87.088  -152.032
522.853     87.111  -154.964
530.458     87.130  -157.983
538.174     87.142  -161.096
546.002     87.148  -164.307
553.943     87.146  -167.612
562.001     87.134  -171.007
570.175     87.115  -174.481
578.469     87.082  -178.061
586.883     87.038   178.274
595.419     86.981   174.528
604.080     86.911   170.707
612.866     86.825   166.806
621.780     86.724   162.832
630.824     86.603   158.783
640.000     86.465   154.676
649.309     86.306   150.507
658.753     86.126   146.289
668.335     85.923   142.030
678.056     85.698   137.739
687.919     85.447   133.426
697.925     85.171   129.104
708.077     84.867   124.786
718.376     84.536   120.488
728.825     84.175   116.229
739.426     83.784   112.030
750.181     83.362   107.918
761.093     82.908   103.927
772.163     82.422   100.097
783.394     81.908    96.454
794.789     81.368    93.032
806.349     80.806    89.894
818.078     80.226    87.094
829.977     79.637    84.662
842.050     79.050    82.639
854.298     78.478    81.072
866.724     77.940    79.947
879.330     77.446    79.190
892.120     77.026    78.756
905.097     76.669    78.438
918.262     76.397    78.091
931.618     76.198    77.526
945.169     76.061    76.592
958.917     75.970    75.162
972.864     75.907    73.164
987.015     75.850    70.589
1001.37     75.782    67.416
1015.94     75.689    63.717
1030.71     75.557    59.514
1045.71     75.374    54.840
1060.92     75.136    49.771
1076.35     74.831    44.298
1092.00     74.455    38.450
1107.89     74.001    32.253
1124.00     73.455    25.647
1140.35     72.828    18.692
1156.94     72.070    11.171
1173.77     71.232     3.280
1190.84     70.198    -5.625
1208.16     69.086   -14.984
1225.73     67.739   -25.950
1243.56     66.235   -38.230
1261.65     64.505   -53.273
1280.00     62.660   -71.443
1298.62     61.255   -95.661
1317.51     59.975  -120.245
1336.67     60.133  -146.456
1356.11     60.922  -169.707
1375.84     61.857   170.648
1395.85     62.599   153.922
1416.15     62.922   139.442
1436.75     62.972   125.800
1457.65     62.439   113.226
1478.85     61.369   101.148
1500.36     59.569    89.486
1522.19     56.744    78.431
1544.33     55.109   112.281
1566.79     57.396  -165.564
1589.58     61.099  -137.553
1612.70     64.344  -148.390
1636.16     66.798  -159.227
1659.95     68.650  -169.903
1684.10     70.042   179.716
1708.60     71.068   169.757
1733.45     71.790   160.389
1758.66     72.260   151.831
1784.24     72.523   144.349
1810.19     72.637   138.234
1836.52     72.664   133.732
1863.24     72.678   130.892
1890.34     72.743   129.411
1917.83     72.896   128.607
1945.73     73.137   127.682
1974.03     73.428   126.099
2002.74     73.717   123.761
2031.87     73.973   121.089
2061.43     74.188   118.595
2091.41     74.387   116.751
2121.83     74.614   115.690
2152.69     74.914   114.948
2184.01     75.258   113.975
2215.77     75.625   111.628
2248.00     75.959   108.335
2280.70     76.179   103.927
2313.87     76.256    99.328
2347.53     76.201    95.659
2381.68     76.105    94.754
2416.32     76.113    97.149
2451.46     76.473   103.462
2487.12     77.178   109.768
2523.30     78.228   111.792
2560.00     79.359   109.339
2597.24     80.421   103.145
2635.01     81.316    94.563
2673.34     81.952    84.377
2712.23     82.367    73.533
2751.68     82.502    62.423
2791.70     82.401    51.597
2832.31     82.060    41.670
2873.50     81.555    32.991
2915.30     80.920    25.911
2957.70     80.201    20.604
3000.72     79.447    16.945
3044.37     78.705    14.700
3088.65     78.023    13.943
3133.58     77.435    14.800
3179.16     76.982    16.426
3225.40     76.598    16.258
3272.31     76.158    12.709
3319.91     75.536     6.786
3368.20     74.753     3.506
3417.19     74.112    12.778
3466.89     74.031    33.908
3517.32     74.492    43.375
3568.48     74.988    35.955
3620.39     75.177    25.479
3673.05     75.222    25.236
3726.47     75.561    41.274
3780.67     76.295    48.656
3835.67     77.048    41.117
3891.46     77.382    26.171
3948.06     77.431    14.018
4005.49     77.644    28.989
4063.75     78.285    43.234
4122.86     78.955    29.151
4182.82     79.140     6.708
4243.66     78.912    -9.122
4305.39     78.972    18.632
4368.01     79.593    29.955
4431.55     80.067     4.836
4496.01     79.802   -27.856
4561.40     78.816   -50.056
4627.75     77.947   -17.842
4695.06     77.810     6.754
4763.35     77.413   -35.260
4832.64     75.831   -89.083
4902.93     74.052   173.446
4974.24     74.101    64.843
5046.60     75.329    -0.749
5120.00     76.420    -5.202
5194.47     77.654    31.302
5270.03     78.738    10.862
5346.68     78.914   -40.077
5424.45     78.314  -118.623
5503.35     77.962   -15.380
5583.40     78.196   -15.576
5664.61     77.844   -67.715
5747.01     76.900   -60.569
5830.60     75.518   -43.918
5915.41     73.904   -42.416
6001.45     72.257   163.583
6088.74     73.441    45.458
6177.30     75.108   -29.494
6267.15     75.964   -48.580
6358.31     76.704   -20.534
6450.80     77.139   -36.918
6544.62     76.820   -90.795
6639.82     75.969   -81.316
6736.40     75.218   -39.238
6834.38     74.631   -93.276
6933.79     74.203   -85.214
7034.64     74.361    -9.640
7136.96     74.521   -87.615
7240.77     74.107   -68.561
7346.09     73.571   -20.738
7452.94     72.635  -128.704
7561.35     71.228   -81.644
7671.33     69.938   -52.723
7782.91     68.716   -92.780
7896.12     67.507    29.427
8010.97     67.774  -111.231
8127.49     68.653    97.916
8245.71     70.435   -44.563
8365.65     70.070   142.314
8487.33     68.545     1.126
8610.78     66.992  -154.510
8736.03     66.517    -3.417
8863.09     66.694   -87.878
8992.01     66.895    55.725
9122.80     67.970   -72.990
9255.50     67.738   112.795
9390.12     67.102   -41.590
9526.70     65.850   121.742
9665.27     64.522   -70.088
9805.86     64.544   -93.804
9948.49     65.506   -60.088
10093.2     64.964     5.700
10240.0     63.169   -35.134
10388.9     60.845   159.575
10540.1     58.349   -15.205
10693.4     56.568    30.496
10848.9     56.296   -17.548
11006.7     56.302    29.807
11166.8     55.538   -57.328
11329.2     53.001     3.766
11494.0     49.957   -96.602
11661.2     47.422   -41.067
11830.8     46.110  -114.715
12002.9     47.294   -92.506
12177.5     50.272    73.210
12354.6     53.779   174.211
12534.3     56.128    54.486
12716.6     56.707    23.901
12901.6     57.420    91.884
13089.2     58.716    65.937
13279.6     60.462    37.873
13472.8     61.636     9.858
13668.8     61.853   -73.892
13867.6     62.062    -2.653
14069.3     62.487    17.936
14273.9     62.777     8.680
14481.5     63.023   -58.088
14692.2     62.992   -48.122
14905.9     62.237    -6.244
15122.7     61.401    25.613
15342.7     61.227    51.736
15565.8     61.607    25.862
15792.2     61.410  -102.060
16021.9     60.450   -23.345
16255.0     59.504  -170.106
16491.4     58.921  -113.237
16731.3     58.808   -70.085
16974.7     58.469   -33.210
17221.6     57.628   -19.810
17472.1     56.417   -27.465
17726.2     55.401   -71.922
17984.0     55.628   -60.266
18245.6     55.902   -33.598
18511.0     55.273   -93.011
18780.2     54.149  -113.517
19053.4     53.471  -145.440
19330.5     53.185  -160.528
19611.7     52.461  -151.131
19897.0     50.691  -111.226
20186.4     48.160   -99.018
20480.0     46.160  -108.638
20777.9     45.980  -111.238
21080.1     46.721   153.455
21386.7     47.512    -8.491
21697.8     49.619    18.992
22013.4     51.896  -156.289
22333.6     52.955    28.724
22658.4     53.598   -27.401
22988.0     55.080    18.991
23322.4     56.023   160.401
23661.6     56.488    66.049
24005.8     57.015    20.338
24355.0     57.781   -87.068
24709.2     58.022  -170.848
25068.6     57.860    35.080
25433.2     57.451   156.206
25803.2     57.142    61.816
26178.5     57.225   -43.355
26559.3     57.061   117.817
26945.6     57.020    36.346
27337.5     56.673   127.873
27735.2     55.549   -13.277
28138.6     54.095  -134.735
28547.9     52.739   153.042
28963.1     50.747    82.258
29384.4     48.795   -17.808
29811.8     46.733    78.409
30245.4     45.544    27.528
30685.3     45.962    59.531
31131.7     47.422  -123.286
31584.5     48.356   -21.058
32043.9     48.537  -161.403
32510.0     48.269    26.023
32982.8     47.264  -132.721
33462.6     45.488   -18.706
33949.3     43.615    96.815
34443.1     41.447  -163.144
34944.1     39.546   -71.711
35452.4     38.976    12.824
35968.0     39.948    87.035
36491.2     41.451   -14.791
37022.0     41.767    10.956
37560.5     41.797    32.576
38106.8     41.638    46.839
38661.1     41.254    55.047
39223.4     40.465    53.613
39793.9     39.180    38.931
