Freq[Hz]     dBSPL  Phase[Deg]
5.00000     42.463  -138.797
5.07273     42.808  -138.985
5.14651     43.152  -139.175
5.22137     43.511  -134.998
5.29732     43.885  -131.233
5.37437     44.303  -128.804
5.45254     44.834  -127.786
5.53185     45.464  -127.883
5.61231     46.091  -128.531
5.69394     46.636  -129.450
5.77676     47.012  -130.673
5.86079     47.273  -132.164
5.94604     47.455  -133.648
6.03252     47.592  -134.825
6.12027     47.692  -135.410
6.20929     47.754  -135.500
6.29961     47.819  -135.213
6.39124     47.967  -134.575
6.48420     48.218  -133.577
6.57851     48.551  -132.394
6.67420     48.946  -131.391
6.77128     49.398  -130.807
6.86977     49.904  -130.628
6.96969     50.433  -130.812
7.07107     50.938  -131.376
7.17392     51.404  -132.318
7.27827     51.835  -133.513
7.38413     52.225  -134.782
7.49154     52.570  -136.058
7.60050     52.870  -137.330
7.71105     53.151  -138.489
7.82321     53.420  -139.493
7.93701     53.683  -140.365
8.05245     53.949  -141.135
8.16958     54.229  -141.827
8.28841     54.519  -142.469
8.40896     54.815  -143.107
8.53128     55.114  -143.779
8.65537     55.411  -144.464
8.78126     55.702  -145.139
8.90899     55.981  -145.786
9.03857     56.256  -146.386
9.17004     56.531  -146.887
9.30342     56.809  -147.305
9.43874     57.101  -147.668
9.57603     57.413  -147.998
9.71532     57.740  -148.348
9.85663     58.079  -148.774
10.0000     58.427  -149.279
10.1455     58.770  -149.873
10.2930     59.101  -150.536
10.4427     59.422  -151.210
10.5946     59.731  -151.864
10.7487     60.035  -152.488
10.9051     60.343  -153.072
11.0637     60.652  -153.636
11.2246     60.965  -154.203
11.3879     61.277  -154.770
11.5535     61.583  -155.318
11.7216     61.885  -155.846
11.8921     62.193  -156.310
12.0650     62.504  -156.755
12.2405     62.834  -157.218
12.4186     63.173  -157.724
12.5992     63.515  -158.348
12.7825     63.849  -159.041
12.9684     64.159  -159.749
13.1570     64.467  -160.453
13.3484     64.768  -161.043
13.5426     65.085  -161.601
13.7395     65.427  -162.226
13.9394     65.787  -163.049
14.1421     66.127  -164.158
14.3478     66.441  -165.383
14.5565     66.684  -166.633
14.7683     66.878  -167.700
14.9831     67.055  -168.372
15.2010     67.275  -168.770
15.4221     67.548  -169.158
15.6464     67.848  -169.732
15.8740     68.137  -170.527
16.1049     68.387  -171.435
16.3392     68.604  -172.317
16.5768     68.808  -173.101
16.8179     69.007  -173.796
17.0626     69.190  -174.399
17.3107     69.348  -174.807
17.5625     69.500  -174.901
17.8180     69.689  -174.683
18.0771     69.943  -174.341
18.3401     70.253  -174.104
18.6068     70.589  -174.111
18.8775     70.930  -174.366
19.1521     71.262  -174.814
19.4306     71.577  -175.374
19.7133     71.871  -175.951
20.0000     72.155  -176.473
20.2909     72.446  -176.938
20.5860     72.750  -177.421
20.8855     73.056  -177.969
21.1893     73.358  -178.571
21.4975     73.655  -179.201
21.8102     73.953  -179.844
22.1274     74.248   179.476
22.4492     74.540   178.777
22.7758     74.825   178.063
23.1071     75.105   177.353
23.4432     75.383   176.657
23.7841     75.659   175.971
24.1301     75.933   175.290
24.4811     76.203   174.637
24.8372     76.471   174.023
25.1984     76.748   173.447
25.5649     77.031   172.864
25.9368     77.316   172.266
26.3141     77.602   171.670
26.6968     77.895   171.077
27.0851     78.198   170.445
27.4791     78.503   169.704
27.8788     78.798   168.877
28.2843     79.074   168.055
28.6957     79.345   167.285
29.1131     79.618   166.560
29.5365     79.897   165.836
29.9661     80.169   165.123
30.4020     80.449   164.445
30.8442     80.741   163.740
31.2929     81.034   162.985
31.7480     81.328   162.177
32.2098     81.622   161.316
32.6783     81.912   160.397
33.1536     82.193   159.434
33.6359     82.467   158.447
34.1251     82.731   157.445
34.6215     82.981   156.474
35.1250     83.223   155.596
35.6359     83.471   154.816
36.1543     83.730   154.085
36.6802     83.998   153.368
37.2137     84.279   152.649
37.7550     84.573   151.883
38.3041     84.872   151.058
38.8613     85.174   150.146
39.4265     85.475   149.198
40.0000     85.781   148.201
40.5818     86.088   147.103
41.1721     86.387   145.911
41.7710     86.676   144.656
42.3785     86.953   143.385
42.9949     87.226   142.128
43.6203     87.501   140.867
44.2548     87.781   139.564
44.8985     88.068   138.176
45.5515     88.355   136.608
46.2141     88.625   134.781
46.8863     88.831   132.756
47.5683     88.960   130.888
48.2602     89.049   129.598
48.9621     89.192   128.821
49.6743     89.387   128.115
50.3968     89.627   127.335
51.1299     89.893   126.420
51.8736     90.174   125.298
52.6281     90.452   123.992
53.3936     90.722   122.572
54.1702     90.983   121.083
54.9581     91.239   119.544
55.7575     91.490   117.954
56.5685     91.738   116.315
57.3914     91.985   114.624
58.2261     92.229   112.862
59.0730     92.465   111.016
59.9323     92.689   109.141
60.8040     92.912   107.225
61.6884     93.124   105.213
62.5857     93.322   103.198
63.4960     93.519   101.198
64.4196     93.723    99.138
65.3566     93.927    96.909
66.3073     94.111    94.445
67.2717     94.247    91.827
68.2502     94.323    89.271
69.2429     94.356    87.024
70.2501     94.389    85.251
71.2719     94.487    83.748
72.3086     94.646    82.014
73.3603     94.809    79.874
74.4274     94.942    77.498
75.5099     95.040    75.047
76.6083     95.116    72.577
77.7226     95.170    70.097
78.8531     95.201    67.620
80.0000     95.209    65.164
81.1636     95.189    62.705
82.3442     95.123    60.370
83.5419     95.033    58.387
84.7570     94.956    56.728
85.9899     94.910    55.251
87.2406     94.897    53.827
88.5096     94.913    52.354
89.7970     94.951    50.680
91.1031     94.985    48.787
92.4282     94.992    46.715
93.7726     94.966    44.642
95.1366     94.920    42.661
96.5204     94.866    40.738
97.9243     94.803    38.822
99.3486     94.724    36.952
100.794     94.635    35.142
102.260     94.530    33.406
103.747     94.414    31.835
105.256     94.307    30.444
106.787     94.217    29.123
108.340     94.143    27.762
109.916     94.067    26.307
111.515     93.976    24.831
113.137     93.866    23.392
114.783     93.738    22.070
116.452     93.620    21.092
118.146     93.531    20.176
119.865     93.482    19.177
121.608     93.444    18.078
123.377     93.407    16.757
125.171     93.356    15.310
126.992     93.260    13.784
128.839     93.131    12.615
130.713     93.006    11.798
132.615     92.929    11.012
134.543     92.902    10.107
136.500     92.884     8.970
138.486     92.855     7.629
140.500     92.804     6.249
142.544     92.749     4.919
144.617     92.702     3.426
146.721     92.605     1.609
148.855     92.438     0.054
151.020     92.255    -0.977
153.217     92.121    -1.644
155.445     92.045    -2.393
157.706     91.983    -3.337
160.000     91.942    -4.340
162.327     91.899    -5.836
164.688     91.780    -7.399
167.084     91.629    -8.628
169.514     91.477    -9.660
171.980     91.329   -10.501
174.481     91.210   -11.139
177.019     91.130   -11.856
179.594     91.053   -12.747
182.206     90.966   -13.604
184.856     90.885   -14.384
187.545     90.826   -15.105
190.273     90.808   -15.916
193.041     90.811   -17.164
195.849     90.761   -18.868
198.697     90.622   -20.449
201.587     90.462   -21.451
204.520     90.346   -22.133
207.494     90.286   -22.816
210.512     90.263   -23.734
213.574     90.247   -24.893
216.681     90.237   -26.279
219.833     90.227   -27.933
223.030     90.152   -30.131
226.274     90.000   -32.339
229.565     89.767   -34.282
232.905     89.501   -35.643
236.292     89.282   -36.557
239.729     89.111   -37.574
243.216     88.902   -38.965
246.754     88.613   -39.987
250.343     88.343   -40.335
253.984     88.120   -40.352
257.678     87.973   -40.103
261.426     87.886   -39.964
265.229     87.835   -39.812
269.087     87.872   -39.627
273.001     87.972   -40.452
276.972     87.986   -42.056
281.000     87.879   -43.497
285.088     87.736   -44.499
289.234     87.633   -45.030
293.441     87.586   -45.712
297.709     87.552   -46.781
302.040     87.485   -48.230
306.433     87.346   -49.828
310.890     87.154   -51.247
315.412     86.922   -52.529
320.000     86.662   -53.509
324.655     86.417   -54.126
329.377     86.195   -54.784
334.168     85.963   -55.454
339.028     85.726   -56.053
343.959     85.481   -56.590
348.962     85.232   -57.036
354.038     84.978   -57.405
359.188     84.716   -57.668
364.412     84.452   -57.796
369.713     84.189   -57.778
375.090     83.930   -57.605
380.546     83.678   -57.251
386.081     83.435   -56.766
391.697     83.209   -56.082
397.394     82.996   -55.297
403.175     82.809   -54.345
409.039     82.645   -53.278
414.989     82.511   -52.118
421.025     82.409   -50.893
427.149     82.337   -49.642
433.362     82.300   -48.401
439.665     82.296   -47.210
446.060     82.320   -46.096
452.548     82.374   -45.098
459.131     82.453   -44.254
465.809     82.551   -43.554
472.584     82.666   -43.039
479.458     82.792   -42.699
486.432     82.924   -42.521
493.507     83.061   -42.536
500.686     83.198   -42.720
507.968     83.332   -43.052
515.357     83.461   -43.537
522.853     83.583   -44.153
530.458     83.696   -44.878
538.174     83.800   -45.705
546.002     83.893   -46.621
553.943     83.974   -47.608
562.001     84.044   -48.650
570.175     84.106   -49.732
578.469     84.156   -50.853
586.883     84.196   -51.994
595.419     84.229   -53.148
604.080     84.256   -54.309
612.866     84.276   -55.472
621.780     84.293   -56.635
630.824     84.307   -57.798
640.000     84.320   -58.965
649.309     84.334   -60.141
658.753     84.350   -61.337
668.335     84.369   -62.564
678.056     84.391   -63.835
687.919     84.416   -65.165
697.925     84.444   -66.571
708.077     84.473   -68.068
718.376     84.504   -69.672
728.825     84.534   -71.395
739.426     84.560   -73.249
750.181     84.578   -75.245
761.093     84.588   -77.395
772.163     84.585   -79.701
783.394     84.566   -82.148
794.789     84.529   -84.732
806.349     84.471   -87.456
818.078     84.387   -90.310
829.977     84.276   -93.275
842.050     84.134   -96.340
854.298     83.959   -99.492
866.724     83.747  -102.707
879.330     83.498  -105.961
892.120     83.203  -109.231
905.097     82.873  -112.488
918.262     82.494  -115.696
931.618     82.071  -118.823
945.169     81.602  -121.831
958.917     81.088  -124.671
972.864     80.527  -127.292
987.015     79.922  -129.647
1001.37     79.275  -131.656
1015.94     78.594  -133.288
1030.71     77.882  -134.473
1045.71     77.149  -135.141
1060.92     76.404  -135.313
1076.35     75.659  -134.923
1092.00     74.919  -133.999
1107.89     74.193  -132.581
1124.00     73.484  -130.637
1140.35     72.791  -128.254
1156.94     72.120  -125.128
1173.77     71.467  -121.474
1190.84     70.899  -116.166
1208.16     70.384  -110.107
1225.73     70.121  -101.815
1243.56     70.085   -92.377
1261.65     70.455   -82.607
1280.00     71.133   -74.106
1298.62     72.121   -69.353
1317.51     73.121   -64.966
1336.67     74.185   -64.193
1356.11     75.198   -65.130
1375.84     76.127   -67.495
1395.85     76.952   -70.957
1416.15     77.639   -75.381
1436.75     78.249   -80.213
1457.65     78.712   -85.640
1478.85     79.067   -91.366
1500.36     79.303   -97.308
1522.19     79.403  -103.322
1544.33     79.390  -109.241
1566.79     79.269  -114.910
1589.58     79.051  -120.147
1612.70     78.754  -124.751
1636.16     78.403  -128.509
1659.95     78.035  -131.246
1684.10     77.696  -132.897
1708.60     77.433  -133.619
1733.45     77.282  -133.842
1758.66     77.252  -134.188
1784.24     77.323  -135.243
1810.19     77.455  -137.353
1836.52     77.603  -140.586
1863.24     77.725  -144.810
1890.34     77.796  -149.823
1917.83     77.798  -155.411
1945.73     77.725  -161.402
1974.03     77.574  -167.680
2002.74     77.338  -174.196
2031.87     77.026   179.101
2061.43     76.633   172.211
2091.41     76.156   165.157
2121.83     75.592   158.015
2152.69     74.933   150.929
2184.01     74.222   143.950
2215.77     73.437   137.211
2248.00     72.626   130.478
2280.70     71.781   123.250
2313.87     70.893   114.662
2347.53     69.915   103.733
2381.68     68.766    89.194
2416.32     67.445    71.176
2451.46     65.963    47.822
2487.12     64.627    20.455
2523.30     64.096   -10.594
2560.00     64.424   -41.841
2597.24     65.250   -71.165
2635.01     66.028   -97.713
2673.34     66.349  -121.086
2712.23     66.214  -142.216
2751.68     65.484  -160.381
2791.70     64.267  -174.902
2832.31     62.707   178.669
2873.50     61.358  -171.176
2915.30     60.724  -146.369
2957.70     61.173  -119.076
3000.72     62.518  -108.366
3044.37     64.251  -104.032
3088.65     66.072  -104.208
3133.58     67.833  -108.959
3179.16     69.408  -118.159
3225.40     70.746  -130.037
3272.31     71.811  -143.496
3319.91     72.612  -157.392
3368.20     73.194  -170.748
3417.19     73.624   177.128
3466.89     73.976   166.209
3517.32     74.286   155.361
3568.48     74.533   142.853
3620.39     74.638   127.651
3673.05     74.508   110.005
3726.47     74.070    91.163
3780.67     73.306    73.745
3835.67     72.385    59.820
3891.46     71.514    55.622
3948.06     70.828    57.884
4005.49     70.524    54.132
4063.75     70.265    40.869
4122.86     69.701    21.712
4182.82     68.542    -1.233
4243.66     66.594   -29.822
4305.39     64.643   -78.690
4368.01     65.688   148.567
4431.55     69.128   102.163
4496.01     72.096    62.139
4561.40     74.061    27.900
4627.75     75.279    -3.347
4695.06     75.857   -29.820
4763.35     76.039   -52.184
4832.64     75.892   -73.456
4902.93     75.349   -98.138
4974.24     74.454  -124.119
5046.60     73.256  -141.871
5120.00     72.100  -142.763
5194.47     71.229  -141.400
5270.03     70.550  -155.614
5346.68     69.849  -171.328
5424.45     69.167  -175.825
5503.35     68.740  -171.278
5583.40     68.702  -170.566
5664.61     68.923  -179.654
5747.01     69.351   173.080
5830.60     70.068   174.063
5915.41     71.079   177.514
6001.45     72.095   150.899
6088.74     72.708   120.793
6177.30     72.998   103.417
6267.15     73.017    84.068
6358.31     72.533    49.067
6450.80     71.316     8.070
6544.62     69.191   -33.122
6639.82     66.434   -89.793
6736.40     64.259   -70.381
6834.38     63.667    23.497
6933.79     63.486   -51.397
7034.64     62.652   -46.902
7136.96     61.920    16.962
7240.77     61.400   -84.313
7346.09     60.081  -178.017
7452.94     58.461    30.250
7561.35     57.892  -109.670
7671.33     57.680   174.252
7782.91     57.029   119.567
7896.12     56.112    76.568
8010.97     56.414    80.555
8127.49     58.114    84.611
8245.71     59.239    -1.546
8365.65     58.986   -66.079
8487.33     57.928   -92.219
8610.78     56.739   -87.263
8736.03     55.358  -117.594
8863.09     53.002   138.665
8992.01     51.385     4.658
9122.80     52.834  -118.592
9255.50     53.799  -116.637
9390.12     53.633  -167.968
9526.70     52.195   148.272
9665.27     49.191   102.907
9805.86     45.961   -48.527
9948.49     46.979   -22.178
10093.2     51.746   -45.325
10240.0     55.729  -145.925
10388.9     57.964   151.355
10540.1     58.528   100.970
10693.4     57.772    56.438
10848.9     55.311   -23.121
11006.7     51.313    87.064
11166.8     49.550    91.651
11329.2     51.664    50.673
11494.0     54.048    33.060
11661.2     54.567   -32.966
11830.8     53.442   -97.663
12002.9     50.170  -104.909
12177.5     46.835   150.174
12354.6     47.740   -10.258
12534.3     49.219  -112.512
12716.6     48.829  -158.190
12901.6     46.932  -178.999
13089.2     44.616   145.606
13279.6     42.133    92.550
13472.8     41.211    56.259
13668.8     43.016    92.004
13867.6     45.077    21.077
14069.3     46.402   -24.297
14273.9     47.577   -78.394
14481.5     48.627  -112.411
14692.2     49.565  -152.296
14905.9     49.616   153.918
15122.7     48.990   121.195
15342.7     48.637   106.112
15565.8     48.851    77.058
15792.2     48.390    27.637
16021.9     47.001     2.212
16255.0     46.146   -13.947
16491.4     45.567   -47.642
16731.3     43.820  -118.145
16974.7     43.827   -63.614
17221.6     45.542   -96.737
17472.1     46.521  -150.954
17726.2     46.023   132.208
17984.0     43.696    50.177
18245.6     39.586   -55.909
18511.0     35.430   148.969
18780.2     33.956    58.059
19053.4     34.156   -66.730
19330.5     35.386  -168.530
19611.7     36.820    93.384
19897.0     36.422   -28.771
20186.4     33.560    66.173
20480.0     32.431    79.815
20777.9     34.336   -67.113
21080.1     36.242   -28.843
21386.7     36.842   133.267
21697.8     36.070  -132.914
22013.4     35.584   -92.256
22333.6     37.062   -69.249
22658.4     37.945   -53.640
22988.0     36.816    66.691
23322.4     35.646  -151.098
23661.6     36.351   -21.686
24005.8     37.966   148.030
24355.0     37.041   103.679
24709.2     34.542   141.218
25068.6     34.947    71.013
25433.2     38.835   133.496
25803.2     42.616  -116.434
26178.5     43.275  -169.732
26559.3     43.094    56.849
26945.6     44.527   -57.179
27337.5     45.018   -36.787
27735.2     43.913   -78.028
28138.6     42.663   -73.241
28547.9     41.818  -125.843
28963.1     38.486    13.508
29384.4     36.117   -14.009
29811.8     34.296    -9.533
30245.4     32.136   -84.303
30685.3     30.884    -5.771
31131.7     31.601    87.035
31584.5     32.484   116.491
32043.9     32.803   -20.571
32510.0     33.319    88.318
32982.8     33.258   170.261
33462.6     32.018  -150.074
33949.3     29.229  -105.014
34443.1     25.930   -63.140
34944.1     24.549   -32.824
35452.4     23.084     0.127
35968.0     20.577     7.522
36491.2     18.974     7.524
37022.0     19.794    31.339
37560.5     20.923    25.108
38106.8     21.657   -30.851
38661.1     21.181   150.457
39223.4     21.945    83.503
39793.9     22.528   -41.759
