Freq[Hz]     dBSPL  Phase[Deg]
5.00000     42.463  -138.797
5.07273     42.808  -138.985
5.14651     43.152  -139.175
5.22137     43.511  -134.998
5.29732     43.885  -131.233
5.37437     44.303  -128.804
5.45254     44.834  -127.786
5.53185     45.464  -127.883
5.61231     46.091  -128.531
5.69394     46.636  -129.450
5.77676     47.012  -130.673
5.86079     47.273  -132.164
5.94604     47.455  -133.648
6.03252     47.592  -134.825
6.12027     47.692  -135.410
6.20929     47.754  -135.500
6.29961     47.819  -135.213
6.39124     47.967  -134.575
6.48420     48.218  -133.577
6.57851     48.551  -132.394
6.67420     48.946  -131.391
6.77128     49.398  -130.807
6.86977     49.904  -130.628
6.96969     50.433  -130.812
7.07107     50.938  -131.376
7.17392     51.404  -132.318
7.27827     51.835  -133.513
7.38413     52.225  -134.782
7.49154     52.570  -136.058
7.60050     52.870  -137.330
7.71105     53.151  -138.489
7.82321     53.420  -139.493
7.93701     53.683  -140.365
8.05245     53.949  -141.135
8.16958     54.229  -141.827
8.28841     54.519  -142.469
8.40896     54.815  -143.107
8.53128     55.114  -143.779
8.65537     55.411  -144.464
8.78126     55.702  -145.139
8.90899     55.981  -145.786
9.03857     56.256  -146.386
9.17004     56.531  -146.887
9.30342     56.809  -147.305
9.43874     57.101  -147.668
9.57603     57.413  -147.998
9.71532     57.740  -148.348
9.85663     58.079  -148.774
10.0000     58.427  -149.279
10.1455     58.770  -149.873
10.2930     59.101  -150.536
10.4427     59.422  -151.210
10.5946     59.731  -151.864
10.7487     60.035  -152.488
10.9051     60.343  -153.072
11.0637     60.652  -153.636
11.2246     60.965  -154.203
11.3879     61.277  -154.770
11.5535     61.583  -155.318
11.7216     61.885  -155.846
11.8921     62.193  -156.310
12.0650     62.504  -156.755
12.2405     62.834  -157.218
12.4186     63.173  -157.724
12.5992     63.515  -158.348
12.7825     63.849  -159.041
12.9684     64.159  -159.749
13.1570     64.467  -160.453
13.3484     64.768  -161.043
13.5426     65.085  -161.601
13.7395     65.427  -162.226
13.9394     65.787  -163.049
14.1421     66.127  -164.158
14.3478     66.441  -165.383
14.5565     66.684  -166.633
14.7683     66.878  -167.700
14.9831     67.055  -168.372
15.2010     67.275  -168.770
15.4221     67.548  -169.158
15.6464     67.848  -169.732
15.8740     68.137  -170.527
16.1049     68.387  -171.435
16.3392     68.604  -172.317
16.5768     68.808  -173.101
16.8179     69.007  -173.796
17.0626     69.190  -174.399
17.3107     69.348  -174.807
17.5625     69.500  -174.901
17.8180     69.689  -174.683
18.0771     69.943  -174.341
18.3401     70.253  -174.104
18.6068     70.589  -174.111
18.8775     70.930  -174.366
19.1521     71.262  -174.814
19.4306     71.577  -175.374
19.7133     71.871  -175.951
20.0000     72.155  -176.473
20.2909     72.446  -176.938
20.5860     72.750  -177.421
20.8855     73.056  -177.969
21.1893     73.358  -178.571
21.4975     73.655  -179.201
21.8102     73.953  -179.844
22.1274     74.248   179.476
22.4492     74.540   178.777
22.7758     74.825   178.063
23.1071     75.105   177.353
23.4432     75.383   176.657
23.7841     75.659   175.971
24.1301     75.933   175.290
24.4811     76.203   174.637
24.8372     76.471   174.023
25.1984     76.748   173.447
25.5649     77.031   172.864
25.9368     77.316   172.266
26.3141     77.602   171.670
26.6968     77.895   171.077
27.0851     78.198   170.445
27.4791     78.503   169.704
27.8788     78.798   168.877
28.2843     79.074   168.055
28.6957     79.345   167.285
29.1131     79.618   166.560
29.5365     79.897   165.836
29.9661     80.169   165.123
30.4020     80.449   164.445
30.8442     80.741   163.740
31.2929     81.034   162.985
31.7480     81.328   162.177
32.2098     81.622   161.316
32.6783     81.912   160.397
33.1536     82.193   159.434
33.6359     82.467   158.447
34.1251     82.731   157.445
34.6215     82.981   156.474
35.1250     83.223   155.596
35.6359     83.471   154.816
36.1543     83.730   154.085
36.6802     83.998   153.368
37.2137     84.279   152.649
37.7550     84.573   151.883
38.3041     84.872   151.058
38.8613     85.174   150.146
39.4265     85.475   149.198
40.0000     85.781   148.201
40.5818     86.088   147.100
41.1721     86.387   145.900
41.7710     86.675   144.630
42.3785     86.952   143.340
42.9949     87.224   142.061
43.6203     87.499   140.771
44.2548     87.778   139.435
44.8985     88.063   138.011
45.5515     88.349   136.402
46.2141     88.616   134.530
46.8863     88.820   132.457
47.5683     88.946   130.538
48.2602     89.031   129.193
48.9621     89.171   128.358
49.6743     89.362   127.591
50.3968     89.596   126.747
51.1299     89.857   125.764
51.8736     90.132   124.572
52.6281     90.404   123.193
53.3936     90.666   121.698
54.1702     90.920   120.131
54.9581     91.167   118.511
55.7575     91.409   116.838
56.5685     91.648   115.113
57.3914     91.885   113.334
58.2261     92.117   111.481
59.0730     92.341   109.541
59.9323     92.553   107.572
60.8040     92.764   105.557
61.6884     92.962   103.445
62.5857     93.145   101.327
63.4960     93.328    99.221
64.4196     93.515    97.053
65.3566     93.703    94.714
66.3073     93.870    92.137
67.2717     93.988    89.403
68.2502     94.046    86.729
69.2429     94.059    84.361
70.2501     94.073    82.464
71.2719     94.150    80.834
72.3086     94.288    78.970
73.3603     94.429    76.698
74.4274     94.538    74.186
75.5099     94.614    71.597
76.6083     94.665    68.984
77.7226     94.694    66.359
78.8531     94.700    63.732
80.0000     94.682    61.124
81.1636     94.635    58.509
82.3442     94.541    56.013
83.5419     94.423    53.864
84.7570     94.317    52.037
85.9899     94.241    50.386
87.2406     94.198    48.784
88.5096     94.183    47.129
89.7970     94.190    45.268
91.1031     94.192    43.182
92.4282     94.166    40.912
93.7726     94.107    38.635
95.1366     94.027    36.445
96.5204     93.939    34.306
97.9243     93.840    32.168
99.3486     93.727    30.070
100.794     93.601    28.025
102.260     93.460    26.047
103.747     93.307    24.225
105.256     93.162    22.577
106.787     93.034    20.991
108.340     92.922    19.356
109.916     92.807    17.619
111.515     92.677    15.852
113.137     92.528    14.112
114.783     92.360    12.482
116.452     92.202    11.184
118.146     92.072     9.937
119.865     91.982     8.598
121.608     91.903     7.147
123.377     91.825     5.462
125.171     91.733     3.641
126.992     91.595     1.728
128.839     91.425     0.159
130.713     91.258    -1.071
132.615     91.139    -2.282
134.543     91.070    -3.627
136.500     91.011    -5.217
138.486     90.940    -7.026
140.500     90.848    -8.889
142.544     90.752   -10.715
144.617     90.664   -12.720
146.721     90.526   -15.064
148.855     90.319   -17.162
151.020     90.096   -18.752
153.217     89.923   -19.994
155.445     89.808   -21.333
157.706     89.707   -22.883
160.000     89.629   -24.506
162.327     89.548   -26.641
164.688     89.393   -28.858
167.084     89.206   -30.756
169.514     89.021   -32.473
171.980     88.839   -34.014
174.481     88.688   -35.368
177.019     88.577   -36.812
179.594     88.470   -38.445
182.206     88.355   -40.058
184.856     88.248   -41.605
187.545     88.163   -43.105
190.273     88.122   -44.706
193.041     88.103   -46.754
195.849     88.033   -49.266
198.697     87.877   -51.663
201.587     87.701   -53.488
204.520     87.571   -54.999
207.494     87.501   -56.514
210.512     87.470   -58.268
213.574     87.449   -60.264
216.681     87.436   -62.491
219.833     87.426   -64.982
223.030     87.355   -68.020
226.274     87.209   -71.062
229.565     86.987   -73.837
232.905     86.734   -76.026
236.292     86.531   -77.763
239.729     86.383   -79.598
243.216     86.198   -81.800
246.754     85.939   -83.626
250.343     85.703   -84.772
253.984     85.517   -85.581
257.678     85.413   -86.133
261.426     85.372   -86.794
265.229     85.373   -87.434
269.087     85.466   -88.027
273.001     85.630   -89.619
276.972     85.713   -91.975
281.000     85.680   -94.160
285.088     85.617   -95.895
289.234     85.600   -97.162
293.441     85.644   -98.585
297.709     85.707  -100.406
302.040     85.740  -102.625
306.433     85.706  -105.029
310.890     85.624  -107.299
315.412     85.506  -109.480
320.000     85.363  -111.405
324.655     85.239  -113.026
329.377     85.142  -114.747
334.168     85.039  -116.544
339.028     84.933  -118.339
343.959     84.824  -120.150
348.962     84.712  -121.951
354.038     84.595  -123.764
359.188     84.472  -125.566
364.412     84.344  -127.333
369.713     84.215  -129.062
375.090     84.085  -130.746
380.546     83.954  -132.376
386.081     83.824  -133.966
391.697     83.697  -135.490
397.394     83.572  -136.977
403.175     83.453  -138.399
409.039     83.339  -139.769
414.989     83.233  -141.086
421.025     83.137  -142.354
427.149     83.052  -143.583
433.362     82.980  -144.775
439.665     82.923  -145.943
446.060     82.880  -147.099
452.548     82.855  -148.256
459.131     82.850  -149.434
465.809     82.860  -150.643
472.584     82.890  -151.908
479.458     82.936  -153.241
486.432     82.999  -154.652
493.507     83.079  -156.174
500.686     83.174  -157.816
507.968     83.280  -159.579
515.357     83.398  -161.491
522.853     83.524  -163.553
530.458     83.655  -165.761
538.174     83.792  -168.127
546.002     83.931  -170.661
553.943     84.068  -173.355
562.001     84.205  -176.205
570.175     84.339  -179.189
578.469     84.466   177.647
586.883     84.586   174.340
595.419     84.698   170.897
604.080     84.801   167.328
612.866     84.894   163.624
621.780     84.975   159.798
630.824     85.042   155.842
640.000     85.097   151.783
649.309     85.137   147.609
658.753     85.162   143.339
668.335     85.171   138.977
678.056     85.164   134.530
687.919     85.141   130.004
697.925     85.100   125.406
708.077     85.042   120.743
718.376     84.967   116.022
728.825     84.874   111.248
739.426     84.763   106.430
750.181     84.634   101.573
761.093     84.485    96.682
772.163     84.318    91.766
783.394     84.133    86.832
794.789     83.932    81.886
806.349     83.713    76.932
818.078     83.477    71.973
829.977     83.225    67.014
842.050     82.957    62.056
854.298     82.674    57.099
866.724     82.376    52.142
879.330     82.065    47.182
892.120     81.737    42.211
905.097     81.397    37.225
918.262     81.041    32.208
931.618     80.671    27.152
945.169     80.284    22.042
958.917     79.877    16.863
972.864     79.449    11.598
987.015     78.995     6.235
1001.37     78.508     0.754
1015.94     77.985    -4.843
1030.71     77.416   -10.571
1045.71     76.791   -16.425
1060.92     76.105   -22.389
1076.35     75.337   -28.447
1092.00     74.474   -34.549
1107.89     73.499   -40.619
1124.00     72.373   -46.508
1140.35     71.103   -52.073
1156.94     69.588   -56.580
1173.77     67.922   -60.074
1190.84     66.026   -58.189
1208.16     64.155   -52.810
1225.73     63.091   -34.285
1243.56     63.081   -11.076
1261.65     64.424     1.076
1280.00     66.075     3.425
1298.62     67.528    -2.016
1317.51     68.949    -7.832
1336.67     70.035   -17.034
1356.11     70.944   -27.493
1375.84     71.695   -39.026
1395.85     72.322   -51.474
1416.15     72.839   -64.863
1436.75     73.312   -78.712
1457.65     73.728   -93.333
1478.85     74.124  -108.429
1500.36     74.515  -123.946
1522.19     74.914  -139.767
1544.33     75.324  -155.695
1566.79     75.742  -171.595
1589.58     76.156   172.654
1612.70     76.552   157.146
1636.16     76.912   141.956
1659.95     77.219   127.133
1684.10     77.458   112.729
1708.60     77.615    98.768
1733.45     77.676    85.277
1758.66     77.634    72.303
1784.24     77.481    59.906
1810.19     77.213    48.166
1836.52     76.829    37.203
1863.24     76.333    27.178
1890.34     75.738    18.302
1917.83     75.066    10.848
1945.73     74.357     5.140
1974.03     73.668     1.481
2002.74     73.094     0.183
2031.87     72.702     0.652
2061.43     72.554     1.983
2091.41     72.645     2.816
2121.83     72.910     2.163
2152.69     73.254    -0.584
2184.01     73.598    -4.484
2215.77     73.849   -10.000
2248.00     74.014   -16.062
2280.70     74.027   -22.386
2313.87     73.912   -28.179
2347.53     73.713   -32.561
2381.68     73.536   -34.317
2416.32     73.483   -33.704
2451.46     73.728   -31.234
2487.12     74.216   -29.599
2523.30     74.915   -31.427
2560.00     75.638   -36.455
2597.24     76.275   -44.158
2635.01     76.758   -53.556
2673.34     77.012   -63.929
2712.23     77.081   -74.482
2751.68     76.929   -84.670
2791.70     76.615   -94.003
2832.31     76.169  -101.876
2873.50     75.668  -108.292
2915.30     75.152  -113.324
2957.70     74.653  -117.441
3000.72     74.176  -121.547
3044.37     73.670  -126.563
3088.65     73.093  -131.665
3133.58     72.513  -134.355
3179.16     72.163  -129.733
3225.40     72.269  -120.004
3272.31     72.849  -114.054
3319.91     73.627  -118.367
3368.20     74.238  -130.400
3417.19     74.463  -145.675
3466.89     74.257  -160.680
3517.32     73.721  -171.785
3568.48     73.065  -176.103
3620.39     72.460  -176.897
3673.05     71.856   177.154
3726.47     71.026   164.031
3780.67     69.933   153.992
3835.67     68.962   163.987
3891.46     68.788  -165.808
3948.06     69.104  -167.199
4005.49     68.819   164.509
4063.75     67.601   125.328
4122.86     66.674    43.351
4182.82     68.519   -82.057
4243.66     71.172  -125.893
4305.39     72.801  -162.023
4368.01     73.310   167.360
4431.55     72.910   146.002
4496.01     72.016   135.380
4561.40     70.674   123.438
4627.75     69.020    99.833
4695.06     67.741    27.789
4763.35     67.725  -142.571
4832.64     68.477   165.157
4902.93     69.035   117.594
4974.24     70.323  -177.610
5046.60     72.677  -139.863
5120.00     74.708   172.744
5194.47     75.539   126.388
5270.03     74.995    82.864
5346.68     73.327    47.988
5424.45     70.852    34.363
5503.35     68.101    28.779
5583.40     66.339  -126.407
5664.61     66.550   147.354
5747.01     67.738    94.954
5830.60     69.652    99.095
5915.41     72.050   167.878
6001.45     74.054   117.745
6088.74     74.776    70.137
6177.30     74.682    41.124
6267.15     74.595    65.518
6358.31     74.760    61.611
6450.80     74.747    25.468
6544.62     74.426    13.483
6639.82     74.018    20.926
6736.40     73.575    -0.254
6834.38     72.928   -23.584
6933.79     72.200   -10.983
7034.64     71.422   -30.051
7136.96     70.295     0.268
7240.77     68.999    59.553
7346.09     67.651   -64.866
7452.94     66.161   176.021
7561.35     65.613    33.791
7671.33     66.088    39.995
7782.91     67.016   110.090
7896.12     67.964   -45.177
8010.97     67.906  -109.181
8127.49     66.963    39.376
8245.71     66.023  -109.830
8365.65     64.914   113.545
8487.33     63.736  -117.080
8610.78     62.078   149.089
8736.03     61.174   -15.593
8863.09     61.133  -125.901
8992.01     60.719    18.126
9122.80     60.678  -121.737
9255.50     59.802    94.985
9390.12     59.073   -64.260
9526.70     59.459   167.944
9665.27     59.428  -141.744
9805.86     58.453    79.068
9948.49     57.761   -88.250
10093.2     57.470   137.447
10240.0     55.739    -7.010
10388.9     52.694    40.441
10540.1     49.297    -9.105
10693.4     46.399    23.077
10848.9     45.309   -19.436
11006.7     46.088    44.065
11166.8     47.448  -137.002
11329.2     48.188    13.698
11494.0     48.651  -119.397
11661.2     49.473   -95.542
11830.8     49.695  -156.656
12002.9     49.399  -112.052
12177.5     49.693   150.445
12354.6     49.425  -171.844
12534.3     49.873   158.850
12716.6     51.511  -157.935
12901.6     52.982   160.472
13089.2     54.159   138.193
13279.6     54.715   125.350
13472.8     54.975    80.558
13668.8     55.419   -24.299
13867.6     56.147    99.296
14069.3     56.831   133.426
14273.9     57.447   122.106
14481.5     57.855   172.522
14692.2     57.527    41.864
14905.9     56.885   -37.310
15122.7     56.326   -27.635
15342.7     55.950    11.846
15565.8     55.637    34.225
15792.2     55.261    49.865
16021.9     54.596   -39.485
16255.0     53.393    24.983
16491.4     52.477   -67.851
16731.3     51.863   -56.537
16974.7     50.830   -49.704
17221.6     49.017     4.257
17472.1     47.932   107.031
17726.2     48.155  -165.736
17984.0     48.750  -109.215
18245.6     48.929  -126.795
18511.0     48.692   -67.252
18780.2     48.565  -155.590
19053.4     48.020   162.306
19330.5     47.742   147.601
19611.7     47.048   136.378
19897.0     44.596    84.546
20186.4     40.768   111.671
20480.0     38.523    68.624
20777.9     38.051    93.577
21080.1     38.608    67.321
21386.7     40.502  -136.539
21697.8     43.853   -16.457
22013.4     46.494   141.647
22333.6     47.231    33.100
22658.4     46.793   -31.311
22988.0     45.959  -127.652
23322.4     45.643   111.470
23661.6     44.958    45.214
24005.8     45.393    18.360
24355.0     48.254   -81.425
24709.2     50.660  -132.366
25068.6     51.828   131.395
25433.2     52.274    50.549
25803.2     52.764   -19.710
26178.5     52.491  -126.247
26559.3     52.464    48.221
26945.6     53.143   -22.958
27337.5     53.092    90.332
27735.2     52.184   -21.871
28138.6     51.243  -134.836
28547.9     50.361   157.726
28963.1     47.929    36.410
29384.4     43.753   -68.911
29811.8     39.051  -141.043
30245.4     37.289   -39.793
30685.3     39.250   137.649
31131.7     40.872   -50.946
31584.5     41.693    50.145
32043.9     42.519  -100.933
32510.0     42.547    36.292
32982.8     41.356   166.817
33462.6     40.312   -44.039
33949.3     40.120    63.177
34443.1     38.903  -122.313
34944.1     36.151   -42.264
35452.4     32.731    59.915
35968.0     31.139   144.212
36491.2     31.925  -147.967
37022.0     33.308   -97.691
37560.5     33.455   -57.523
38106.8     33.582   -23.013
38661.1     34.159    58.636
39223.4     33.876   109.838
39793.9     33.848   136.497
