Freq[Hz]     dBSPL  Phase[Deg]
5.00000     42.463  -138.797
5.07273     42.808  -138.985
5.14651     43.152  -139.175
5.22137     43.511  -134.998
5.29732     43.885  -131.233
5.37437     44.303  -128.804
5.45254     44.834  -127.786
5.53185     45.464  -127.883
5.61231     46.091  -128.531
5.69394     46.636  -129.450
5.77676     47.012  -130.673
5.86079     47.273  -132.164
5.94604     47.455  -133.648
6.03252     47.592  -134.825
6.12027     47.692  -135.410
6.20929     47.754  -135.500
6.29961     47.819  -135.213
6.39124     47.967  -134.575
6.48420     48.218  -133.577
6.57851     48.551  -132.394
6.67420     48.946  -131.391
6.77128     49.398  -130.807
6.86977     49.904  -130.628
6.96969     50.433  -130.812
7.07107     50.938  -131.376
7.17392     51.404  -132.318
7.27827     51.835  -133.513
7.38413     52.225  -134.782
7.49154     52.570  -136.058
7.60050     52.870  -137.330
7.71105     53.151  -138.489
7.82321     53.420  -139.493
7.93701     53.683  -140.365
8.05245     53.949  -141.135
8.16958     54.229  -141.827
8.28841     54.519  -142.469
8.40896     54.815  -143.107
8.53128     55.114  -143.779
8.65537     55.411  -144.464
8.78126     55.702  -145.139
8.90899     55.981  -145.786
9.03857     56.256  -146.386
9.17004     56.531  -146.887
9.30342     56.809  -147.305
9.43874     57.101  -147.668
9.57603     57.413  -147.998
9.71532     57.740  -148.348
9.85663     58.079  -148.774
10.0000     58.427  -149.279
10.1455     58.770  -149.873
10.2930     59.101  -150.536
10.4427     59.422  -151.210
10.5946     59.731  -151.864
10.7487     60.035  -152.488
10.9051     60.343  -153.072
11.0637     60.652  -153.636
11.2246     60.965  -154.203
11.3879     61.277  -154.770
11.5535     61.583  -155.318
11.7216     61.885  -155.846
11.8921     62.193  -156.310
12.0650     62.504  -156.755
12.2405     62.834  -157.218
12.4186     63.173  -157.724
12.5992     63.515  -158.348
12.7825     63.849  -159.041
12.9684     64.159  -159.749
13.1570     64.467  -160.453
13.3484     64.768  -161.043
13.5426     65.085  -161.601
13.7395     65.427  -162.226
13.9394     65.787  -163.049
14.1421     66.127  -164.158
14.3478     66.441  -165.383
14.5565     66.684  -166.633
14.7683     66.878  -167.700
14.9831     67.055  -168.372
15.2010     67.275  -168.770
15.4221     67.548  -169.158
15.6464     67.848  -169.732
15.8740     68.137  -170.527
16.1049     68.387  -171.435
16.3392     68.604  -172.317
16.5768     68.808  -173.101
16.8179     69.007  -173.796
17.0626     69.190  -174.399
17.3107     69.348  -174.807
17.5625     69.500  -174.901
17.8180     69.689  -174.683
18.0771     69.943  -174.341
18.3401     70.253  -174.104
18.6068     70.589  -174.111
18.8775     70.930  -174.366
19.1521     71.262  -174.814
19.4306     71.577  -175.374
19.7133     71.871  -175.951
20.0000     72.155  -176.473
20.2909     72.446  -176.938
20.5860     72.750  -177.421
20.8855     73.056  -177.969
21.1893     73.358  -178.571
21.4975     73.655  -179.201
21.8102     73.953  -179.844
22.1274     74.248   179.476
22.4492     74.540   178.777
22.7758     74.825   178.063
23.1071     75.105   177.353
23.4432     75.383   176.657
23.7841     75.659   175.971
24.1301     75.933   175.290
24.4811     76.203   174.637
24.8372     76.471   174.023
25.1984     76.748   173.447
25.5649     77.031   172.864
25.9368     77.316   172.266
26.3141     77.602   171.670
26.6968     77.895   171.077
27.0851     78.198   170.445
27.4791     78.503   169.704
27.8788     78.798   168.877
28.2843     79.074   168.055
28.6957     79.345   167.285
29.1131     79.618   166.560
29.5365     79.897   165.836
29.9661     80.169   165.123
30.4020     80.449   164.445
30.8442     80.741   163.740
31.2929     81.034   162.985
31.7480     81.328   162.177
32.2098     81.622   161.316
32.6783     81.912   160.397
33.1536     82.193   159.434
33.6359     82.467   158.447
34.1251     82.731   157.445
34.6215     82.981   156.474
35.1250     83.223   155.596
35.6359     83.471   154.816
36.1543     83.730   154.085
36.6802     83.998   153.368
37.2137     84.279   152.649
37.7550     84.573   151.883
38.3041     84.872   151.058
38.8613     85.174   150.146
39.4265     85.475   149.198
40.0000     85.781   148.201
40.5818     86.088   147.104
41.1721     86.387   145.914
41.7710     86.675   144.662
42.3785     86.952   143.396
42.9949     87.226   142.146
43.6203     87.501   140.892
44.2548     87.781   139.598
44.8985     88.068   138.220
45.5515     88.355   136.663
46.2141     88.625   134.848
46.8863     88.831   132.836
47.5683     88.960   130.981
48.2602     89.049   129.706
48.9621     89.193   128.945
49.6743     89.388   128.256
50.3968     89.628   127.494
51.1299     89.895   126.596
51.8736     90.176   125.493
52.6281     90.455   124.207
53.3936     90.725   122.808
54.1702     90.987   121.340
54.9581     91.244   119.823
55.7575     91.496   118.255
56.5685     91.745   116.639
57.3914     91.993   114.972
58.2261     92.238   113.233
59.0730     92.475   111.412
59.9323     92.701   109.564
60.8040     92.926   107.673
61.6884     93.139   105.688
62.5857     93.338   103.700
63.4960     93.537   101.727
64.4196     93.743    99.696
65.3566     93.950    97.496
66.3073     94.136    95.061
67.2717     94.274    92.473
68.2502     94.353    89.947
69.2429     94.389    87.731
70.2501     94.425    85.989
71.2719     94.526    84.518
72.3086     94.688    82.816
73.3603     94.855    80.709
74.4274     94.991    78.367
75.5099     95.094    75.950
76.6083     95.173    73.514
77.7226     95.232    71.069
78.8531     95.268    68.627
80.0000     95.281    66.207
81.1636     95.267    63.785
82.3442     95.206    61.487
83.5419     95.122    59.541
84.7570     95.051    57.921
85.9899     95.011    56.482
87.2406     95.005    55.097
88.5096     95.028    53.664
89.7970     95.074    52.030
91.1031     95.116    50.179
92.4282     95.131    48.148
93.7726     95.113    46.118
95.1366     95.076    44.179
96.5204     95.032    42.300
97.9243     94.978    40.428
99.3486     94.910    38.602
100.794     94.832    36.837
102.260     94.738    35.147
103.747     94.634    33.623
105.256     94.539    32.279
106.787     94.462    31.006
108.340     94.402    29.694
109.916     94.340    28.289
111.515     94.264    26.863
113.137     94.170    25.474
114.783     94.058    24.204
116.452     93.958    23.279
118.146     93.886    22.416
119.865     93.855    21.472
121.608     93.836    20.427
123.377     93.821    19.161
125.171     93.790    17.771
126.992     93.716    16.302
128.839     93.610    15.191
130.713     93.509    14.433
132.615     93.457    13.706
134.543     93.456    12.861
136.500     93.466    11.785
138.486     93.465    10.506
140.500     93.443     9.188
142.544     93.419     7.922
144.617     93.405     6.493
146.721     93.341     4.741
148.855     93.208     3.252
151.020     93.062     2.287
153.217     92.965     1.686
155.445     92.928     1.006
157.706     92.908     0.129
160.000     92.909    -0.805
162.327     92.910    -2.231
164.688     92.837    -3.724
167.084     92.733    -4.883
169.514     92.632    -5.845
171.980     92.535    -6.616
174.481     92.470    -7.183
177.019     92.446    -7.828
179.594     92.426    -8.649
182.206     92.400    -9.436
184.856     92.382   -10.147
187.545     92.387   -10.798
190.273     92.437   -11.542
193.041     92.509   -12.722
195.849     92.532   -14.361
198.697     92.469   -15.879
201.587     92.387   -16.819
204.520     92.351   -17.442
207.494     92.376   -18.067
210.512     92.440   -18.932
213.574     92.514   -20.041
216.681     92.598   -21.382
219.833     92.684   -22.995
223.030     92.709   -25.159
226.274     92.661   -27.338
229.565     92.535   -29.260
232.905     92.380   -30.608
236.292     92.275   -31.519
239.729     92.223   -32.543
243.216     92.136   -33.952
246.754     91.974   -35.006
250.343     91.835   -35.401
253.984     91.746   -35.478
257.678     91.740   -35.306
261.426     91.798   -35.261
265.229     91.897   -35.226
269.087     92.087   -35.184
273.001     92.345   -36.187
276.972     92.520   -37.998
281.000     92.577   -39.686
285.088     92.601   -40.971
289.234     92.670   -41.834
293.441     92.799   -42.896
297.709     92.946   -44.391
302.040     93.063   -46.316
306.433     93.114   -48.440
310.890     93.120   -50.444
315.412     93.091   -52.376
320.000     93.041   -54.070
324.655     93.012   -55.482
329.377     93.011   -57.018
334.168     93.006   -58.657
339.028     93.001   -60.323
343.959     92.992   -62.037
348.962     92.982   -63.779
354.038     92.969   -65.570
359.188     92.948   -67.395
364.412     92.924   -69.233
369.713     92.896   -71.081
375.090     92.865   -72.940
380.546     92.831   -74.811
386.081     92.794   -76.689
391.697     92.754   -78.580
397.394     92.711   -80.478
403.175     92.664   -82.386
409.039     92.615   -84.303
414.989     92.562   -86.228
421.025     92.506   -88.163
427.149     92.447   -90.104
433.362     92.384   -92.054
439.665     92.318   -94.012
446.060     92.249   -95.976
452.548     92.177   -97.948
459.131     92.100   -99.926
465.809     92.021  -101.910
472.584     91.938  -103.900
479.458     91.851  -105.895
486.432     91.759  -107.893
493.507     91.665  -109.896
500.686     91.566  -111.900
507.968     91.462  -113.905
515.357     91.356  -115.910
522.853     91.243  -117.912
530.458     91.126  -119.909
538.174     91.004  -121.898
546.002     90.877  -123.877
553.943     90.746  -125.841
562.001     90.609  -127.786
570.175     90.468  -129.712
578.469     90.320  -131.605
586.883     90.168  -133.464
595.419     90.012  -135.283
604.080     89.853  -137.059
612.866     89.690  -138.781
621.780     89.525  -140.444
630.824     89.359  -142.032
640.000     89.194  -143.553
649.309     89.031  -144.987
658.753     88.874  -146.340
668.335     88.723  -147.609
678.056     88.582  -148.797
687.919     88.455  -149.910
697.925     88.343  -150.957
708.077     88.250  -151.954
718.376     88.178  -152.920
728.825     88.129  -153.880
739.426     88.104  -154.862
750.181     88.103  -155.896
761.093     88.128  -157.017
772.163     88.175  -158.261
783.394     88.238  -159.641
794.789     88.316  -161.176
806.349     88.404  -162.890
818.078     88.499  -164.796
829.977     88.594  -166.890
842.050     88.686  -169.170
854.298     88.771  -171.641
866.724     88.842  -174.287
879.330     88.898  -177.081
892.120     88.932   179.968
905.097     88.947   176.920
918.262     88.936   173.769
931.618     88.899   170.553
945.169     88.836   167.295
958.917     88.745   164.023
972.864     88.627   160.764
987.015     88.481   157.544
1001.37     88.311   154.393
1015.94     88.117   151.330
1030.71     87.903   148.373
1045.71     87.672   145.548
1060.92     87.428   142.847
1076.35     87.172   140.287
1092.00     86.909   137.864
1107.89     86.640   135.570
1124.00     86.366   133.415
1140.35     86.087   131.376
1156.94     85.802   129.517
1173.77     85.512   127.773
1190.84     85.218   126.342
1208.16     84.925   125.046
1225.73     84.646   124.174
1243.56     84.389   123.590
1261.65     84.191   123.422
1280.00     84.067   123.514
1298.62     84.107   123.665
1317.51     84.163   123.779
1336.67     84.392   123.315
1356.11     84.703   122.130
1375.84     85.066   120.026
1395.85     85.439   116.922
1416.15     85.771   112.643
1436.75     86.061   107.764
1457.65     86.246   101.859
1478.85     86.334    95.295
1500.36     86.301    88.093
1522.19     86.111    80.281
1544.33     85.773    72.020
1566.79     85.279    63.372
1589.58     84.625    54.374
1612.70     83.804    45.028
1636.16     82.818    35.290
1659.95     81.675    25.021
1684.10     80.397    13.967
1708.60     79.036     1.666
1733.45     77.697   -12.537
1758.66     76.567   -29.268
1784.24     75.898   -48.479
1810.19     75.891   -68.817
1836.52     76.518   -88.138
1863.24     77.540  -105.047
1890.34     78.694  -119.403
1917.83     79.800  -131.643
1945.73     80.768  -142.206
1974.03     81.566  -151.357
2002.74     82.188  -159.065
2031.87     82.690  -165.484
2061.43     83.121  -170.578
2091.41     83.552  -174.532
2121.83     84.037  -177.742
2152.69     84.600   179.236
2184.01     85.193   176.080
2215.77     85.771   172.395
2248.00     86.301   168.433
2280.70     86.730   164.259
2313.87     87.062   160.191
2347.53     87.316   156.454
2381.68     87.522   153.207
2416.32     87.714   150.333
2451.46     87.912   147.851
2487.12     88.120   145.579
2523.30     88.343   143.548
2560.00     88.588   141.735
2597.24     88.879   140.128
2635.01     89.239   138.591
2673.34     89.695   136.773
2712.23     90.209   134.426
2751.68     90.746   131.165
2791.70     91.241   127.070
2832.31     91.638   122.210
2873.50     91.928   116.918
2915.30     92.093   111.349
2957.70     92.123   105.690
3000.72     92.009   100.143
3044.37     91.733    95.068
3088.65     91.323    90.838
3133.58     90.839    87.642
3179.16     90.347    85.773
3225.40     89.928    84.947
3272.31     89.639    84.830
3319.91     89.499    84.901
3368.20     89.487    84.657
3417.19     89.548    83.693
3466.89     89.584    81.847
3517.32     89.491    79.424
3568.48     89.207    77.320
3620.39     88.806    76.698
3673.05     88.519    77.965
3726.47     88.554    79.767
3780.67     88.812    79.753
3835.67     89.023    78.128
3891.46     88.885    75.960
3948.06     88.524    74.789
4005.49     88.258    77.031
4063.75     88.424    80.326
4122.86     88.965    81.834
4182.82     89.563    80.947
4243.66     90.078    78.432
4305.39     90.476    74.557
4368.01     90.619    69.283
4431.55     90.295    63.907
4496.01     89.605    60.806
4561.40     88.960    61.699
4627.75     88.717    64.031
4695.06     88.707    64.591
4763.35     88.536    64.843
4832.64     88.364    67.538
4902.93     88.736    70.951
4974.24     89.341    71.772
5046.60     89.804    70.523
5120.00     90.223    69.225
5194.47     90.723    67.097
5270.03     91.088    63.017
5346.68     91.148    58.589
5424.45     91.035    55.133
5503.35     90.925    52.335
5583.40     90.763    49.640
5664.61     90.629    47.715
5747.01     90.579    45.045
5830.60     90.416    41.117
5915.41     89.878    36.776
6001.45     88.970    34.937
6088.74     88.123    36.312
6177.30     87.462    40.052
6267.15     87.278    46.091
6358.31     87.740    50.528
6450.80     88.389    51.361
6544.62     88.883    49.283
6639.82     89.085    45.761
6736.40     88.910    41.946
6834.38     88.356    40.294
6933.79     87.924    42.880
7034.64     88.147    45.790
7136.96     88.496    44.461
7240.77     88.443    41.968
7346.09     88.158    40.951
7452.94     87.925    42.334
7561.35     88.106    44.109
7671.33     88.402    43.913
7782.91     88.607    42.503
7896.12     88.868    40.880
8010.97     88.900    36.985
8127.49     88.668    34.217
8245.71     88.312    30.985
8365.65     87.635    30.783
8487.33     87.252    32.140
8610.78     86.965    34.008
8736.03     87.021    36.344
8863.09     87.159    37.066
8992.01     87.428    37.528
9122.80     87.624    35.330
9255.50     87.573    33.284
9390.12     87.410    30.882
9526.70     87.012    29.842
9665.27     86.685    30.439
9805.86     86.540    32.059
9948.49     86.716    33.220
10093.2     86.916    31.817
10240.0     86.888    29.579
10388.9     86.718    28.420
10540.1     86.694    27.583
10693.4     86.659    25.678
10848.9     86.469    23.173
11006.7     86.117    21.704
11166.8     85.843    21.049
11329.2     85.679    20.035
11494.0     85.458    18.091
11661.2     85.182    17.362
11830.8     85.001    15.406
12002.9     84.809    10.296
12177.5     83.904     4.677
12354.6     82.489     5.244
12534.3     81.562    10.319
12716.6     81.431    14.965
12901.6     81.423    15.667
13089.2     81.335    14.562
13279.6     81.036    12.869
13472.8     80.510    11.256
13668.8     79.878    10.534
13867.6     79.333    10.859
14069.3     78.904    10.531
14273.9     78.443     9.135
14481.5     77.969     7.040
14692.2     77.240     2.833
14905.9     76.021     0.725
15122.7     74.795     1.488
15342.7     73.758     3.385
15565.8     72.886     4.646
15792.2     72.252     4.244
16021.9     71.712    -3.736
16255.0     70.157   -19.240
16491.4     67.322   -33.965
16731.3     65.432   -55.922
16974.7     65.453   -98.974
17221.6     66.112  -135.252
17472.1     67.891  -151.205
17726.2     70.404  -160.249
17984.0     72.713  -168.518
18245.6     74.717  -178.108
18511.0     75.740   169.492
18780.2     75.658   161.146
19053.4     75.589   160.604
19330.5     76.240   161.488
19611.7     77.100   158.396
19897.0     77.424   152.233
20186.4     77.116   149.433
20480.0     77.133   150.758
20777.9     77.640   150.165
21080.1     77.915   145.561
21386.7     77.580   141.092
21697.8     77.207   142.165
22013.4     77.124   142.313
22333.6     76.899   140.469
22658.4     76.466   140.340
22988.0     76.192   143.427
23322.4     76.452   144.808
23661.6     76.528   142.111
24005.8     76.239   139.065
24355.0     75.808   137.793
24709.2     75.628   136.046
25068.6     74.956   130.136
25433.2     73.613   126.243
25803.2     72.036   124.734
26178.5     70.146   124.119
26559.3     67.510   129.215
26945.6     65.001   160.303
27337.5     66.384  -150.137
27735.2     69.325  -137.533
28138.6     71.658  -139.150
28547.9     73.643  -142.322
28963.1     75.058  -150.536
29384.4     75.508  -159.313
29811.8     75.625  -166.934
30245.4     75.363  -174.017
30685.3     74.700  -178.439
31131.7     74.404  -179.864
31584.5     74.087   174.469
32043.9     73.173   169.118
32510.0     72.197   166.782
32982.8     71.134   162.316
33462.6     69.483   160.705
33949.3     67.925   162.477
34443.1     66.443   163.592
34944.1     64.765   165.394
35452.4     62.786   169.150
35968.0     60.763  -178.366
36491.2     60.075  -160.395
37022.0     60.276  -154.241
37560.5     60.113  -154.932
38106.8     59.249  -159.468
38661.1     57.439  -163.673
39223.4     54.674  -167.743
39793.9     51.179  -174.650
