Freq[Hz]     dBSPL  Phase[Deg]
5.00000     42.463  -138.797
5.07273     42.808  -138.985
5.14651     43.152  -139.175
5.22137     43.511  -134.998
5.29732     43.885  -131.233
5.37437     44.303  -128.804
5.45254     44.834  -127.786
5.53185     45.464  -127.883
5.61231     46.091  -128.531
5.69394     46.636  -129.450
5.77676     47.012  -130.673
5.86079     47.273  -132.164
5.94604     47.455  -133.648
6.03252     47.592  -134.825
6.12027     47.692  -135.410
6.20929     47.754  -135.500
6.29961     47.819  -135.213
6.39124     47.967  -134.575
6.48420     48.218  -133.577
6.57851     48.551  -132.394
6.67420     48.946  -131.391
6.77128     49.398  -130.807
6.86977     49.904  -130.628
6.96969     50.433  -130.812
7.07107     50.938  -131.376
7.17392     51.404  -132.318
7.27827     51.835  -133.513
7.38413     52.225  -134.782
7.49154     52.570  -136.058
7.60050     52.870  -137.330
7.71105     53.151  -138.489
7.82321     53.420  -139.493
7.93701     53.683  -140.365
8.05245     53.949  -141.135
8.16958     54.229  -141.827
8.28841     54.519  -142.469
8.40896     54.815  -143.107
8.53128     55.114  -143.779
8.65537     55.411  -144.464
8.78126     55.702  -145.139
8.90899     55.981  -145.786
9.03857     56.256  -146.386
9.17004     56.531  -146.887
9.30342     56.809  -147.305
9.43874     57.101  -147.668
9.57603     57.413  -147.998
9.71532     57.740  -148.348
9.85663     58.079  -148.774
10.0000     58.427  -149.279
10.1455     58.770  -149.873
10.2930     59.101  -150.536
10.4427     59.422  -151.210
10.5946     59.731  -151.864
10.7487     60.035  -152.488
10.9051     60.343  -153.072
11.0637     60.652  -153.636
11.2246     60.965  -154.203
11.3879     61.277  -154.770
11.5535     61.583  -155.318
11.7216     61.885  -155.846
11.8921     62.193  -156.310
12.0650     62.504  -156.755
12.2405     62.834  -157.218
12.4186     63.173  -157.724
12.5992     63.515  -158.348
12.7825     63.849  -159.041
12.9684     64.159  -159.749
13.1570     64.467  -160.453
13.3484     64.768  -161.043
13.5426     65.085  -161.601
13.7395     65.427  -162.226
13.9394     65.787  -163.049
14.1421     66.127  -164.158
14.3478     66.441  -165.383
14.5565     66.684  -166.633
14.7683     66.878  -167.700
14.9831     67.055  -168.372
15.2010     67.275  -168.770
15.4221     67.548  -169.158
15.6464     67.848  -169.732
15.8740     68.137  -170.527
16.1049     68.387  -171.435
16.3392     68.604  -172.317
16.5768     68.808  -173.101
16.8179     69.007  -173.796
17.0626     69.190  -174.399
17.3107     69.348  -174.807
17.5625     69.500  -174.901
17.8180     69.689  -174.683
18.0771     69.943  -174.341
18.3401     70.253  -174.104
18.6068     70.589  -174.111
18.8775     70.930  -174.366
19.1521     71.262  -174.814
19.4306     71.577  -175.374
19.7133     71.871  -175.951
20.0000     72.155  -176.473
20.2909     72.446  -176.938
20.5860     72.750  -177.421
20.8855     73.056  -177.969
21.1893     73.358  -178.571
21.4975     73.655  -179.201
21.8102     73.953  -179.844
22.1274     74.248   179.476
22.4492     74.540   178.777
22.7758     74.825   178.063
23.1071     75.105   177.353
23.4432     75.383   176.657
23.7841     75.659   175.971
24.1301     75.933   175.290
24.4811     76.203   174.637
24.8372     76.471   174.023
25.1984     76.748   173.447
25.5649     77.031   172.864
25.9368     77.316   172.266
26.3141     77.602   171.670
26.6968     77.895   171.077
27.0851     78.198   170.445
27.4791     78.503   169.704
27.8788     78.798   168.877
28.2843     79.074   168.055
28.6957     79.345   167.285
29.1131     79.618   166.560
29.5365     79.897   165.836
29.9661     80.169   165.123
30.4020     80.449   164.445
30.8442     80.741   163.740
31.2929     81.034   162.985
31.7480     81.328   162.177
32.2098     81.622   161.316
32.6783     81.912   160.397
33.1536     82.193   159.434
33.6359     82.467   158.447
34.1251     82.731   157.445
34.6215     82.981   156.474
35.1250     83.223   155.596
35.6359     83.471   154.816
36.1543     83.730   154.085
36.6802     83.998   153.368
37.2137     84.279   152.649
37.7550     84.573   151.883
38.3041     84.872   151.058
38.8613     85.174   150.146
39.4265     85.475   149.198
40.0000     85.781   148.201
40.5818     86.088   147.106
41.1721     86.388   145.925
41.7710     86.679   144.686
42.3785     86.959   143.438
42.9949     87.235   142.211
43.6203     87.515   140.984
44.2548     87.800   139.722
44.8985     88.092   138.381
45.5515     88.386   136.865
46.2141     88.663   135.095
46.8863     88.877   133.133
47.5683     89.015   131.333
48.2602     89.113   130.116
48.9621     89.266   129.417
49.6743     89.473   128.794
50.3968     89.724   128.102
51.1299     90.002   127.280
51.8736     90.295   126.255
52.6281     90.587   125.051
53.3936     90.871   123.738
54.1702     91.147   122.361
54.9581     91.418   120.938
55.7575     91.686   119.468
56.5685     91.951   117.955
57.3914     92.215   116.394
58.2261     92.476   114.766
59.0730     92.730   113.059
59.9323     92.973   111.328
60.8040     93.217   109.560
61.6884     93.448   107.702
62.5857     93.667   105.844
63.4960     93.885   104.006
64.4196     94.110   102.113
65.3566     94.337   100.056
66.3073     94.544    97.769
67.2717     94.703    95.332
68.2502     94.803    92.962
69.2429     94.859    90.907
70.2501     94.917    89.330
71.2719     95.040    88.028
72.3086     95.224    86.501
73.3603     95.414    84.573
74.4274     95.572    82.414
75.5099     95.698    80.187
76.6083     95.800    77.944
77.7226     95.881    75.698
78.8531     95.940    73.460
80.0000     95.977    71.250
81.1636     95.985    69.042
82.3442     95.948    66.965
83.5419     95.886    65.244
84.7570     95.839    63.856
85.9899     95.822    62.654
87.2406     95.839    61.513
88.5096     95.885    60.329
89.7970     95.954    58.951
91.1031     96.019    57.361
92.4282     96.056    55.599
93.7726     96.061    53.843
95.1366     96.046    52.186
96.5204     96.024    50.595
97.9243     95.992    49.018
99.3486     95.945    47.494
100.794     95.888    46.039
102.260     95.814    44.666
103.747     95.731    43.466
105.256     95.655    42.455
106.787     95.598    41.522
108.340     95.556    40.558
109.916     95.512    39.509
111.515     95.454    38.447
113.137     95.376    37.432
114.783     95.281    36.544
116.452     95.195    36.010
118.146     95.138    35.547
119.865     95.122    35.011
121.608     95.116    34.386
123.377     95.112    33.548
125.171     95.093    32.595
126.992     95.029    31.575
128.839     94.933    30.923
130.713     94.839    30.634
132.615     94.794    30.386
134.543     94.799    30.032
136.500     94.813    29.458
138.486     94.815    28.692
140.500     94.796    27.900
142.544     94.773    27.170
144.617     94.757    26.290
146.721     94.691    25.100
148.855     94.555    24.185
151.020     94.403    23.807
153.217     94.299    23.806
155.445     94.254    23.738
157.706     94.223    23.489
160.000     94.211    23.195
162.327     94.198    22.426
164.688     94.108    21.602
167.084     93.987    21.128
169.514     93.865    20.867
171.980     93.746    20.813
174.481     93.656    20.978
177.019     93.606    21.081
179.594     93.557    21.026
182.206     93.499    21.022
184.856     93.448    21.110
187.545     93.417    21.278
190.273     93.428    21.370
193.041     93.459    21.046
195.849     93.438    20.282
198.697     93.329    19.659
201.587     93.198    19.634
204.520     93.111    19.947
207.494     93.081    20.278
210.512     93.088    20.391
213.574     93.103    20.281
216.681     93.124    19.967
219.833     93.145    19.397
223.030     93.102    18.307
226.274     92.984    17.222
229.565     92.785    16.420
232.905     92.555    16.217
236.292     92.372    16.481
239.729     92.239    16.656
243.216     92.069    16.473
246.754     91.822    16.675
250.343     91.595    17.563
253.984     91.417    18.797
257.678     91.321    20.324
261.426     91.286    21.759
265.229     91.292    23.210
269.087     91.387    24.694
273.001     91.549    25.160
276.972     91.628    24.836
281.000     91.591    24.659
285.088     91.520    24.901
289.234     91.496    25.597
293.441     91.533    26.121
297.709     91.589    26.240
302.040     91.618    25.962
306.433     91.583    25.532
310.890     91.506    25.274
315.412     91.398    25.140
320.000     91.272    25.290
324.655     91.171    25.774
329.377     91.103    26.179
334.168     91.038    26.524
339.028     90.976    26.883
343.959     90.917    27.233
348.962     90.863    27.589
354.038     90.813    27.927
359.188     90.763    28.258
364.412     90.715    28.599
369.713     90.672    28.947
375.090     90.633    29.297
380.546     90.598    29.645
386.081     90.567    29.986
391.697     90.539    30.312
397.394     90.513    30.627
403.175     90.490    30.920
409.039     90.468    31.191
414.989     90.448    31.437
421.025     90.427    31.654
427.149     90.405    31.845
433.362     90.382    32.004
439.665     90.356    32.133
446.060     90.327    32.235
452.548     90.294    32.310
459.131     90.255    32.357
465.809     90.210    32.385
472.584     90.158    32.394
479.458     90.099    32.390
486.432     90.032    32.379
493.507     89.955    32.364
500.686     89.870    32.354
507.968     89.775    32.354
515.357     89.671    32.374
522.853     89.555    32.420
530.458     89.431    32.499
538.174     89.298    32.619
546.002     89.155    32.791
553.943     89.004    33.021
562.001     88.846    33.313
570.175     88.682    33.663
578.469     88.513    34.100
586.883     88.341    34.609
595.419     88.166    35.191
604.080     87.991    35.840
612.866     87.817    36.560
621.780     87.645    37.341
630.824     87.477    38.179
640.000     87.312    39.055
649.309     87.153    39.962
658.753     86.996    40.881
668.335     86.843    41.802
678.056     86.692    42.711
687.919     86.540    43.600
697.925     86.384    44.461
708.077     86.223    45.292
718.376     86.053    46.095
728.825     85.870    46.876
739.426     85.673    47.647
750.181     85.456    48.423
761.093     85.219    49.230
772.163     84.956    50.098
783.394     84.670    51.055
794.789     84.361    52.131
806.349     84.028    53.371
818.078     83.672    54.822
829.977     83.298    56.512
842.050     82.911    58.480
854.298     82.519    60.775
866.724     82.129    63.416
879.330     81.753    66.378
892.120     81.406    69.712
905.097     81.090    73.285
918.262     80.821    77.102
931.618     80.600    81.060
945.169     80.427    85.076
958.917     80.302    89.075
972.864     80.217    92.989
987.015     80.162    96.779
1001.37     80.129   100.416
1015.94     80.109   103.910
1030.71     80.093   107.276
1045.71     80.075   110.526
1060.92     80.051   113.703
1076.35     80.016   116.831
1092.00     79.967   119.947
1107.89     79.899   123.086
1124.00     79.809   126.317
1140.35     79.699   129.677
1156.94     79.562   133.344
1173.77     79.411   137.250
1190.84     79.259   141.883
1208.16     79.118   146.830
1225.73     79.051   152.702
1243.56     79.067   159.110
1261.65     79.264   166.053
1280.00     79.638   173.031
1298.62     80.286   179.126
1317.51     80.953  -174.925
1336.67     81.786  -170.644
1356.11     82.644  -167.531
1375.84     83.486  -165.560
1395.85     84.276  -164.573
1416.15     84.973  -164.509
1436.75     85.611  -164.847
1457.65     86.134  -165.760
1478.85     86.568  -166.951
1500.36     86.907  -168.326
1522.19     87.143  -169.750
1544.33     87.299  -171.093
1566.79     87.391  -172.276
1589.58     87.433  -173.244
1612.70     87.445  -173.983
1636.16     87.445  -174.527
1659.95     87.449  -174.966
1684.10     87.466  -175.432
1708.60     87.494  -176.077
1733.45     87.520  -177.035
1758.66     87.523  -178.388
1784.24     87.479   179.854
1810.19     87.365   177.748
1836.52     87.162   175.414
1863.24     86.862   173.010
1890.34     86.466   170.716
1917.83     85.987   168.699
1945.73     85.451   167.080
1974.03     84.891   165.890
2002.74     84.349   165.049
2031.87     83.843   164.309
2061.43     83.379   163.413
2091.41     82.936   162.170
2121.83     82.481   160.559
2152.69     81.990   158.745
2184.01     81.481   156.948
2215.77     80.996   155.466
2248.00     80.574   154.172
2280.70     80.309   152.905
2313.87     80.212   151.169
2347.53     80.249   148.589
2381.68     80.353   145.044
2416.32     80.460   140.980
2451.46     80.548   136.777
2487.12     80.645   132.891
2523.30     80.828   129.661
2560.00     81.145   126.744
2597.24     81.608   123.659
2635.01     82.159   119.934
2673.34     82.681   115.170
2712.23     83.085   109.752
2751.68     83.262   103.993
2791.70     83.205    98.524
2832.31     82.891    93.992
2873.50     82.389    90.679
2915.30     81.716    88.962
2957.70     80.907    89.292
3000.72     80.020    92.343
3044.37     79.315    99.702
3088.65     79.298   110.278
3133.58     80.059   119.958
3179.16     81.305   125.026
3225.40     82.499   125.771
3272.31     83.367   123.477
3319.91     83.813   119.913
3368.20     83.866   116.484
3417.19     83.621   114.143
3466.89     83.198   113.398
3517.32     82.721   114.406
3568.48     82.307   117.155
3620.39     82.102   121.367
3673.05     82.244   126.025
3726.47     82.735   129.469
3780.67     83.393   130.277
3835.67     84.037   129.169
3891.46     84.511   125.784
3948.06     84.864   121.379
4005.49     84.975   115.487
4063.75     84.815   108.571
4122.86     84.263   101.247
4182.82     83.250    94.926
4243.66     81.840    91.697
4305.39     80.422    93.073
4368.01     79.567    98.125
4431.55     79.538   102.063
4496.01     79.774   102.500
4561.40     79.841    99.893
4627.75     79.592    96.301
4695.06     78.950    93.224
4763.35     77.960    91.899
4832.64     76.652    94.754
4902.93     75.818   106.800
4974.24     76.376   121.692
5046.60     78.062   128.532
5120.00     79.589   128.781
5194.47     80.672   126.384
5270.03     81.625   123.438
5346.68     82.482   118.612
5424.45     82.966   111.625
5503.35     82.804   104.386
5583.40     82.157   100.116
5664.61     81.629    99.145
5747.01     81.330    98.212
5830.60     81.093    96.317
5915.41     80.684    93.629
6001.45     80.090    91.161
6088.74     79.237    88.840
6177.30     78.007    89.114
6267.15     76.952    94.603
6358.31     76.784   100.429
6450.80     76.942   102.094
6544.62     76.871   100.819
6639.82     76.520    99.227
6736.40     75.960    97.509
6834.38     75.005    97.094
6933.79     73.970   101.717
7034.64     73.694   108.849
7136.96     73.882   111.482
7240.77     73.667   112.114
7346.09     73.261   115.023
7452.94     73.078   119.787
7561.35     73.371   125.150
7671.33     74.112   128.124
7782.91     74.947   126.904
7896.12     75.412   122.084
8010.97     75.411   115.753
8127.49     74.901   108.116
8245.71     73.610   100.243
8365.65     71.216    96.349
8487.33     68.109   104.585
8610.78     66.033   125.249
8736.03     65.577   142.668
8863.09     65.958   157.865
8992.01     67.147   169.648
9122.80     68.676   174.648
9255.50     69.962   172.922
9390.12     70.492   166.984
9526.70     70.178   160.909
9665.27     69.260   157.080
9805.86     68.101   158.231
9948.49     67.499   161.456
10093.2     66.702   159.580
10240.0     64.866   159.697
10388.9     62.564   173.631
10540.1     62.428  -154.908
10693.4     64.560  -136.072
10848.9     66.765  -137.299
11006.7     67.292  -144.575
11166.8     66.678  -147.898
11329.2     66.071  -145.751
11494.0     65.725  -144.317
11661.2     64.395  -140.735
11830.8     63.465  -130.062
12002.9     64.121  -120.871
12177.5     64.380  -120.871
12354.6     63.201  -119.458
12534.3     62.330  -108.035
12716.6     63.246   -92.669
12901.6     64.260   -88.107
13089.2     64.663   -87.865
13279.6     65.226   -83.643
13472.8     66.129   -81.471
13668.8     66.345   -84.951
13867.6     65.604   -84.495
14069.3     65.285   -79.529
14273.9     65.545   -77.445
14481.5     65.124   -78.030
14692.2     64.410   -74.668
14905.9     64.193   -72.065
15122.7     63.751   -71.219
15342.7     63.137   -68.611
15565.8     62.959   -64.793
15792.2     63.070   -68.358
16021.9     61.949   -76.300
16255.0     59.744   -82.224
16491.4     56.210   -80.804
16731.3     53.654   -27.784
16974.7     56.061     3.374
17221.6     58.444     1.158
17472.1     59.035    -9.488
17726.2     58.016   -18.802
17984.0     55.602   -18.496
18245.6     53.959     0.608
18511.0     54.473     9.109
18780.2     54.436     7.160
19053.4     53.976     4.637
19330.5     53.534    -2.156
19611.7     52.556   -14.126
19897.0     50.873   -30.273
20186.4     48.093   -50.040
20480.0     45.872   -66.214
20777.9     46.853   -78.024
21080.1     49.367   -91.308
21386.7     50.822  -106.231
21697.8     50.720  -111.433
22013.4     51.446  -108.632
22333.6     53.497  -105.874
22658.4     54.838  -106.847
22988.0     55.370  -106.826
23322.4     55.574  -106.068
23661.6     55.214  -104.153
24005.8     54.392   -95.841
24355.0     55.118   -78.804
24709.2     57.121   -68.171
25068.6     58.360   -70.128
25433.2     58.213   -73.583
25803.2     57.251   -68.670
26178.5     58.159   -53.739
26559.3     59.251   -54.455
26945.6     58.565   -59.658
27337.5     57.013   -55.790
27735.2     55.914   -47.622
28138.6     55.100   -41.415
28547.9     53.834   -34.485
28963.1     52.782   -23.303
29384.4     51.839   -13.311
29811.8     51.020    -1.051
30245.4     50.740    13.322
30685.3     50.494    24.960
31131.7     49.317    36.186
31584.5     48.325    46.427
32043.9     47.330    57.765
32510.0     47.143    72.297
32982.8     46.490    76.647
33462.6     44.157    91.636
33949.3     42.663   110.914
34443.1     42.075   123.257
34944.1     41.083   135.122
35452.4     39.922   154.271
35968.0     39.494  -179.911
36491.2     39.794  -159.303
37022.0     39.918  -148.838
37560.5     38.900  -137.969
38106.8     37.412  -115.932
38661.1     36.658   -91.208
39223.4     37.118   -70.288
39793.9     38.130   -49.410
