Freq[Hz]     dBSPL  Phase[Deg]
5.00000     42.463  -138.797
5.07273     42.808  -138.985
5.14651     43.152  -139.175
5.22137     43.511  -134.998
5.29732     43.885  -131.233
5.37437     44.303  -128.804
5.45254     44.834  -127.786
5.53185     45.464  -127.883
5.61231     46.091  -128.531
5.69394     46.636  -129.450
5.77676     47.012  -130.673
5.86079     47.273  -132.164
5.94604     47.455  -133.648
6.03252     47.592  -134.825
6.12027     47.692  -135.410
6.20929     47.754  -135.500
6.29961     47.819  -135.213
6.39124     47.967  -134.575
6.48420     48.218  -133.577
6.57851     48.551  -132.394
6.67420     48.946  -131.391
6.77128     49.398  -130.807
6.86977     49.904  -130.628
6.96969     50.433  -130.812
7.07107     50.938  -131.376
7.17392     51.404  -132.318
7.27827     51.835  -133.513
7.38413     52.225  -134.782
7.49154     52.570  -136.058
7.60050     52.870  -137.330
7.71105     53.151  -138.489
7.82321     53.420  -139.493
7.93701     53.683  -140.365
8.05245     53.949  -141.135
8.16958     54.229  -141.827
8.28841     54.519  -142.469
8.40896     54.815  -143.107
8.53128     55.114  -143.779
8.65537     55.411  -144.464
8.78126     55.702  -145.139
8.90899     55.981  -145.786
9.03857     56.256  -146.386
9.17004     56.531  -146.887
9.30342     56.809  -147.305
9.43874     57.101  -147.668
9.57603     57.413  -147.998
9.71532     57.740  -148.348
9.85663     58.079  -148.774
10.0000     58.427  -149.279
10.1455     58.770  -149.873
10.2930     59.101  -150.536
10.4427     59.422  -151.210
10.5946     59.731  -151.864
10.7487     60.035  -152.488
10.9051     60.343  -153.072
11.0637     60.652  -153.636
11.2246     60.965  -154.203
11.3879     61.277  -154.770
11.5535     61.583  -155.318
11.7216     61.885  -155.846
11.8921     62.193  -156.310
12.0650     62.504  -156.755
12.2405     62.834  -157.218
12.4186     63.173  -157.724
12.5992     63.515  -158.348
12.7825     63.849  -159.041
12.9684     64.159  -159.749
13.1570     64.467  -160.453
13.3484     64.768  -161.043
13.5426     65.085  -161.601
13.7395     65.427  -162.226
13.9394     65.787  -163.049
14.1421     66.127  -164.158
14.3478     66.441  -165.383
14.5565     66.684  -166.633
14.7683     66.878  -167.700
14.9831     67.055  -168.372
15.2010     67.275  -168.770
15.4221     67.548  -169.158
15.6464     67.848  -169.732
15.8740     68.137  -170.527
16.1049     68.387  -171.435
16.3392     68.604  -172.317
16.5768     68.808  -173.101
16.8179     69.007  -173.796
17.0626     69.190  -174.399
17.3107     69.348  -174.807
17.5625     69.500  -174.901
17.8180     69.689  -174.683
18.0771     69.943  -174.341
18.3401     70.253  -174.104
18.6068     70.589  -174.111
18.8775     70.930  -174.366
19.1521     71.262  -174.814
19.4306     71.577  -175.374
19.7133     71.871  -175.951
20.0000     72.155  -176.473
20.2909     72.446  -176.938
20.5860     72.750  -177.421
20.8855     73.056  -177.969
21.1893     73.358  -178.571
21.4975     73.655  -179.201
21.8102     73.953  -179.844
22.1274     74.248   179.476
22.4492     74.540   178.777
22.7758     74.825   178.063
23.1071     75.105   177.353
23.4432     75.383   176.657
23.7841     75.659   175.971
24.1301     75.933   175.290
24.4811     76.203   174.637
24.8372     76.471   174.023
25.1984     76.748   173.447
25.5649     77.031   172.864
25.9368     77.316   172.266
26.3141     77.602   171.670
26.6968     77.895   171.077
27.0851     78.198   170.445
27.4791     78.503   169.704
27.8788     78.798   168.877
28.2843     79.074   168.055
28.6957     79.345   167.285
29.1131     79.618   166.560
29.5365     79.897   165.836
29.9661     80.169   165.123
30.4020     80.449   164.445
30.8442     80.741   163.740
31.2929     81.034   162.985
31.7480     81.328   162.177
32.2098     81.622   161.316
32.6783     81.912   160.397
33.1536     82.193   159.434
33.6359     82.467   158.447
34.1251     82.731   157.445
34.6215     82.981   156.474
35.1250     83.223   155.596
35.6359     83.471   154.816
36.1543     83.730   154.085
36.6802     83.998   153.368
37.2137     84.279   152.649
37.7550     84.573   151.883
38.3041     84.872   151.058
38.8613     85.174   150.146
39.4265     85.475   149.198
40.0000     85.781   148.201
40.5818     86.088   147.106
41.1721     86.388   145.924
41.7710     86.679   144.684
42.3785     86.958   143.434
42.9949     87.235   142.205
43.6203     87.514   140.975
44.2548     87.799   139.709
44.8985     88.091   138.363
45.5515     88.384   136.842
46.2141     88.661   135.066
46.8863     88.875   133.096
47.5683     89.012   131.288
48.2602     89.109   130.062
48.9621     89.262   129.353
49.6743     89.468   128.719
50.3968     89.719   128.015
51.1299     89.996   127.178
51.8736     90.289   126.138
52.6281     90.581   124.918
53.3936     90.864   123.587
54.1702     91.140   122.191
54.9581     91.410   120.747
55.7575     91.677   119.255
56.5685     91.942   117.718
57.3914     92.206   116.132
58.2261     92.467   114.476
59.0730     92.721   112.740
59.9323     92.964   110.979
60.8040     93.207   109.178
61.6884     93.438   107.285
62.5857     93.657   105.392
63.4960     93.876   103.515
64.4196     94.101   101.582
65.3566     94.328    99.482
66.3073     94.535    97.151
67.2717     94.695    94.668
68.2502     94.796    92.249
69.2429     94.853    90.143
70.2501     94.912    88.512
71.2719     95.036    87.155
72.3086     95.222    85.569
73.3603     95.413    83.581
74.4274     95.573    81.359
75.5099     95.700    79.065
76.6083     95.804    76.755
77.7226     95.888    74.437
78.8531     95.950    72.126
80.0000     95.989    69.839
81.1636     96.000    67.551
82.3442     95.966    65.391
83.5419     95.909    63.585
84.7570     95.865    62.108
85.9899     95.852    60.815
87.2406     95.874    59.579
88.5096     95.925    58.297
89.7970     95.998    56.817
91.1031     96.069    55.122
92.4282     96.112    53.252
93.7726     96.123    51.384
95.1366     96.115    49.612
96.5204     96.099    47.901
97.9243     96.075    46.201
99.3486     96.036    44.551
100.794     95.987    42.966
102.260     95.922    41.458
103.747     95.848    40.119
105.256     95.783    38.965
106.787     95.736    37.884
108.340     95.705    36.768
109.916     95.672    35.563
111.515     95.626    34.340
113.137     95.561    33.160
114.783     95.479    32.101
116.452     95.408    31.391
118.146     95.365    30.748
119.865     95.364    30.027
121.608     95.374    29.210
123.377     95.387    28.175
125.171     95.386    27.021
126.992     95.341    25.792
128.839     95.263    24.926
130.713     95.189    24.417
132.615     95.166    23.943
134.543     95.192    23.356
136.500     95.229    22.543
138.486     95.255    21.531
140.500     95.260    20.485
142.544     95.262    19.495
144.617     95.273    18.347
146.721     95.234    16.882
148.855     95.127    15.684
151.020     95.005    15.015
153.217     94.932    14.714
155.445     94.918    14.338
157.706     94.919    13.773
160.000     94.943    13.153
162.327     94.965    12.047
164.688     94.912    10.879
167.084     94.829    10.049
169.514     94.746     9.423
171.980     94.668     8.993
174.481     94.619     8.770
177.019     94.611     8.474
179.594     94.607     8.008
182.206     94.596     7.581
184.856     94.591     7.235
187.545     94.608     6.954
190.273     94.669     6.584
193.041     94.752     5.784
195.849     94.784     4.530
198.697     94.728     3.402
201.587     94.652     2.857
204.520     94.622     2.634
207.494     94.651     2.413
210.512     94.717     1.958
213.574     94.793     1.263
216.681     94.876     0.342
219.833     94.961    -0.847
223.030     94.983    -2.580
226.274     94.929    -4.325
229.565     94.797    -5.806
232.905     94.634    -6.709
236.292     94.519    -7.168
239.729     94.457    -7.735
243.216     94.355    -8.682
246.754     94.179    -9.266
250.343     94.023    -9.186
253.984     93.915    -8.782
257.678     93.890    -8.116
261.426     93.926    -7.566
265.229     94.002    -7.021
269.087     94.166    -6.465
273.001     94.397    -6.947
276.972     94.543    -8.234
281.000     94.569    -9.391
285.088     94.561   -10.141
289.234     94.595   -10.458
293.441     94.689   -10.963
297.709     94.798   -11.890
302.040     94.877   -13.231
306.433     94.889   -14.749
310.890     94.856   -16.122
315.412     94.788   -17.396
320.000     94.698   -18.406
324.655     94.629   -19.104
329.377     94.589   -19.896
334.168     94.545   -20.762
339.028     94.501   -21.622
343.959     94.454   -22.498
348.962     94.407   -23.369
354.038     94.358   -24.254
359.188     94.305   -25.138
364.412     94.248   -25.999
369.713     94.192   -26.834
375.090     94.135   -27.643
380.546     94.080   -28.423
386.081     94.024   -29.182
391.697     93.970   -29.910
397.394     93.918   -30.622
403.175     93.868   -31.307
409.039     93.820   -31.972
414.989     93.776   -32.618
421.025     93.735   -33.248
427.149     93.698   -33.866
433.362     93.666   -34.475
439.665     93.638   -35.077
446.060     93.614   -35.678
452.548     93.594   -36.281
459.131     93.580   -36.891
465.809     93.570   -37.511
472.584     93.564   -38.147
479.458     93.562   -38.800
486.432     93.564   -39.471
493.507     93.569   -40.169
500.686     93.576   -40.893
507.968     93.585   -41.642
515.357     93.597   -42.420
522.853     93.608   -43.227
530.458     93.621   -44.058
538.174     93.633   -44.915
546.002     93.645   -45.797
553.943     93.656   -46.698
562.001     93.666   -47.616
570.175     93.676   -48.547
578.469     93.685   -49.490
586.883     93.694   -50.440
595.419     93.702   -51.393
604.080     93.711   -52.348
612.866     93.721   -53.304
621.780     93.733   -54.259
630.824     93.749   -55.216
640.000     93.767   -56.176
649.309     93.791   -57.144
658.753     93.822   -58.127
668.335     93.858   -59.132
678.056     93.901   -60.170
687.919     93.951   -61.249
697.925     94.008   -62.383
708.077     94.071   -63.583
718.376     94.140   -64.860
728.825     94.212   -66.224
739.426     94.286   -67.684
750.181     94.361   -69.249
761.093     94.433   -70.927
772.163     94.499   -72.719
783.394     94.558   -74.613
794.789     94.607   -76.604
806.349     94.643   -78.690
818.078     94.665   -80.861
829.977     94.670   -83.097
842.050     94.657   -85.385
854.298     94.622   -87.705
866.724     94.567   -90.036
879.330     94.492   -92.354
892.120     94.393   -94.626
905.097     94.279   -96.844
918.262     94.145   -98.967
931.618     93.996  -100.979
945.169     93.837  -102.864
958.917     93.672  -104.605
972.864     93.505  -106.193
987.015     93.344  -107.635
1001.37     93.193  -108.937
1015.94     93.055  -110.131
1030.71     92.936  -111.244
1045.71     92.837  -112.313
1060.92     92.756  -113.376
1076.35     92.694  -114.463
1092.00     92.644  -115.596
1107.89     92.602  -116.780
1124.00     92.565  -118.013
1140.35     92.530  -119.274
1156.94     92.496  -120.535
1173.77     92.463  -121.782
1190.84     92.436  -122.953
1208.16     92.415  -124.092
1225.73     92.416  -125.146
1243.56     92.437  -126.166
1261.65     92.491  -127.189
1280.00     92.574  -128.276
1298.62     92.702  -129.597
1317.51     92.834  -130.949
1336.67     92.993  -132.662
1356.11     93.154  -134.634
1375.84     93.308  -136.869
1395.85     93.444  -139.333
1416.15     93.548  -141.990
1436.75     93.632  -144.712
1457.65     93.680  -147.483
1478.85     93.705  -150.223
1500.36     93.710  -152.886
1522.19     93.704  -155.421
1544.33     93.701  -157.858
1566.79     93.710  -160.237
1589.58     93.732  -162.617
1612.70     93.768  -165.065
1636.16     93.812  -167.636
1659.95     93.854  -170.363
1684.10     93.883  -173.238
1708.60     93.889  -176.230
1733.45     93.868  -179.278
1758.66     93.818   177.687
1784.24     93.742   174.724
1810.19     93.649   171.864
1836.52     93.546   169.108
1863.24     93.437   166.424
1890.34     93.323   163.767
1917.83     93.196   161.104
1945.73     93.046   158.441
1974.03     92.861   155.829
2002.74     92.630   153.398
2031.87     92.359   151.263
2061.43     92.055   149.581
2091.41     91.742   148.459
2121.83     91.444   147.938
2152.69     91.194   148.105
2184.01     90.987   148.673
2215.77     90.894   149.992
2248.00     90.898   151.710
2280.70     91.103   153.836
2313.87     91.538   155.792
2347.53     92.196   156.850
2381.68     93.008   156.197
2416.32     93.848   153.977
2451.46     94.603   149.771
2487.12     95.218   144.391
2523.30     95.591   138.008
2560.00     95.739   131.350
2597.24     95.649   124.913
2635.01     95.351   119.191
2673.34     94.882   114.996
2712.23     94.376   112.356
2751.68     93.988   111.648
2791.70     93.856   111.855
2832.31     94.033   111.647
2873.50     94.361   110.180
2915.30     94.726   107.194
2957.70     95.004   102.836
3000.72     95.112    97.620
3044.37     95.004    92.310
3088.65     94.746    87.564
3133.58     94.439    83.492
3179.16     94.164    79.833
3225.40     93.928    75.866
3272.31     93.650    71.055
3319.91     93.183    65.362
3368.20     92.376    59.496
3417.19     91.133    54.969
3466.89     89.504    54.172
3517.32     87.889    59.714
3568.48     87.099    70.859
3620.39     87.569    80.844
3673.05     88.674    83.985
3726.47     89.605    80.828
3780.67     89.879    73.811
3835.67     89.543    65.715
3891.46     88.116    60.450
3948.06     86.033    59.465
4005.49     84.325    76.304
4063.75     85.005    97.762
4122.86     86.972   104.109
4182.82     88.420   101.763
4243.66     89.258    97.450
4305.39     89.782    92.859
4368.01     90.014    87.741
4431.55     89.827    82.688
4496.01     89.296    79.351
4561.40     88.653    79.150
4627.75     88.143    80.968
4695.06     87.831    84.392
4763.35     87.874    89.712
4832.64     88.638    94.676
4902.93     89.673    93.130
4974.24     90.143    87.511
5046.60     89.702    83.079
5120.00     89.074    83.452
5194.47     88.956    87.023
5270.03     89.237    88.444
5346.68     89.422    88.637
5424.45     89.604    89.501
5503.35     90.005    90.003
5583.40     90.403    88.366
5664.61     90.548    85.752
5747.01     90.474    83.286
5830.60     90.199    81.785
5915.41     89.813    82.139
6001.45     89.581    84.987
6088.74     89.779    87.912
6177.30     90.129    89.164
6267.15     90.441    89.500
6358.31     90.763    89.645
6450.80     91.120    89.099
6544.62     91.418    87.657
6639.82     91.600    85.803
6736.40     91.669    83.748
6834.38     91.553    81.872
6933.79     91.331    81.448
7034.64     91.220    81.903
7136.96     91.118    82.305
7240.77     91.035    83.861
7346.09     91.132    85.802
7452.94     91.342    87.783
7561.35     91.790    89.520
7671.33     92.351    89.595
7782.91     92.842    87.972
7896.12     93.196    85.314
8010.97     93.256    82.364
8127.49     93.230    80.501
8245.71     93.093    78.527
8365.65     92.873    78.565
8487.33     92.803    78.941
8610.78     92.749    79.896
8736.03     92.881    81.485
8863.09     93.207    82.842
8992.01     93.808    83.144
9122.80     94.368    80.083
9255.50     94.515    75.273
9390.12     94.210    71.029
9526.70     93.602    69.868
9665.27     93.211    72.147
9805.86     93.279    74.716
9948.49     93.571    75.389
10093.2     93.747    74.511
10240.0     93.816    73.924
10388.9     93.923    73.702
10540.1     94.086    72.694
10693.4     94.091    70.868
10848.9     93.869    69.827
11006.7     93.686    70.935
11166.8     93.769    72.354
11329.2     93.907    72.520
11494.0     93.992    72.926
11661.2     94.339    73.587
11830.8     94.731    72.321
12002.9     94.925    68.431
12177.5     94.676    64.963
12354.6     94.095    66.565
12534.3     94.020    70.536
12716.6     94.529    72.112
12901.6     94.945    70.638
13089.2     95.274    68.445
13279.6     95.377    65.197
13472.8     95.112    62.210
13668.8     94.682    62.195
13867.6     94.630    64.594
14069.3     94.961    64.964
14273.9     95.214    62.894
14481.5     95.310    61.038
14692.2     95.309    58.000
14905.9     94.954    55.846
15122.7     94.634    56.105
15342.7     94.614    57.037
15565.8     94.787    56.092
15792.2     94.800    53.534
16021.9     94.578    50.612
16255.0     93.997    48.538
16491.4     93.427    51.366
16731.3     93.636    53.878
16974.7     93.819    51.567
17221.6     93.473    48.565
17472.1     92.785    48.133
17726.2     92.249    52.106
17984.0     92.525    56.775
18245.6     93.052    55.541
18511.0     92.891    51.693
18780.2     92.259    51.265
19053.4     91.907    54.951
19330.5     92.235    58.084
19611.7     92.634    56.245
19897.0     92.373    53.089
20186.4     91.872    54.372
20480.0     91.887    57.393
20777.9     92.238    57.291
21080.1     92.217    54.614
21386.7     91.798    54.027
21697.8     91.875    56.066
22013.4     92.102    55.501
22333.6     91.952    52.249
22658.4     91.499    51.556
22988.0     91.362    53.626
23322.4     91.563    52.791
23661.6     91.403    50.020
24005.8     90.921    48.857
24355.0     90.710    50.186
24709.2     90.746    49.509
25068.6     90.399    48.150
25433.2     90.037    49.718
25803.2     90.299    51.656
26178.5     90.551    48.371
26559.3     90.286    45.241
26945.6     89.983    44.471
27337.5     90.005    42.885
27735.2     89.936    39.425
28138.6     89.685    35.554
28547.9     89.380    31.129
28963.1     88.681    26.029
29384.4     87.896    23.980
29811.8     87.303    20.733
30245.4     86.508    16.536
30685.3     85.403    13.857
31131.7     84.472    11.922
31584.5     83.351     9.015
32043.9     82.015     8.175
32510.0     80.901     7.829
32982.8     79.598     6.509
33462.6     78.190     7.411
33949.3     76.904     7.807
34443.1     75.391     8.204
34944.1     73.744    10.384
35452.4     72.028    13.728
35968.0     70.287    20.291
36491.2     68.967    28.196
37022.0     67.823    34.544
37560.5     66.745    40.767
38106.8     65.587    45.458
38661.1     64.150    51.683
39223.4     62.619    60.769
39793.9     61.172    73.705
