Freq[Hz]     dBSPL  Phase[Deg]
5.00000     42.463  -138.797
5.07273     42.808  -138.985
5.14651     43.152  -139.175
5.22137     43.511  -134.998
5.29732     43.885  -131.233
5.37437     44.303  -128.804
5.45254     44.834  -127.786
5.53185     45.464  -127.883
5.61231     46.091  -128.531
5.69394     46.636  -129.450
5.77676     47.012  -130.673
5.86079     47.273  -132.164
5.94604     47.455  -133.648
6.03252     47.592  -134.825
6.12027     47.692  -135.410
6.20929     47.754  -135.500
6.29961     47.819  -135.213
6.39124     47.967  -134.575
6.48420     48.218  -133.577
6.57851     48.551  -132.394
6.67420     48.946  -131.391
6.77128     49.398  -130.807
6.86977     49.904  -130.628
6.96969     50.433  -130.812
7.07107     50.938  -131.376
7.17392     51.404  -132.318
7.27827     51.835  -133.513
7.38413     52.225  -134.782
7.49154     52.570  -136.058
7.60050     52.870  -137.330
7.71105     53.151  -138.489
7.82321     53.420  -139.493
7.93701     53.683  -140.365
8.05245     53.949  -141.135
8.16958     54.229  -141.827
8.28841     54.519  -142.469
8.40896     54.815  -143.107
8.53128     55.114  -143.779
8.65537     55.411  -144.464
8.78126     55.702  -145.139
8.90899     55.981  -145.786
9.03857     56.256  -146.386
9.17004     56.531  -146.887
9.30342     56.809  -147.305
9.43874     57.101  -147.668
9.57603     57.413  -147.998
9.71532     57.740  -148.348
9.85663     58.079  -148.774
10.0000     58.427  -149.279
10.1455     58.770  -149.873
10.2930     59.101  -150.536
10.4427     59.422  -151.210
10.5946     59.731  -151.864
10.7487     60.035  -152.488
10.9051     60.343  -153.072
11.0637     60.652  -153.636
11.2246     60.965  -154.203
11.3879     61.277  -154.770
11.5535     61.583  -155.318
11.7216     61.885  -155.846
11.8921     62.193  -156.310
12.0650     62.504  -156.755
12.2405     62.834  -157.218
12.4186     63.173  -157.724
12.5992     63.515  -158.348
12.7825     63.849  -159.041
12.9684     64.159  -159.749
13.1570     64.467  -160.453
13.3484     64.768  -161.043
13.5426     65.085  -161.601
13.7395     65.427  -162.226
13.9394     65.787  -163.049
14.1421     66.127  -164.158
14.3478     66.441  -165.383
14.5565     66.684  -166.633
14.7683     66.878  -167.700
14.9831     67.055  -168.372
15.2010     67.275  -168.770
15.4221     67.548  -169.158
15.6464     67.848  -169.732
15.8740     68.137  -170.527
16.1049     68.387  -171.435
16.3392     68.604  -172.317
16.5768     68.808  -173.101
16.8179     69.007  -173.796
17.0626     69.190  -174.399
17.3107     69.348  -174.807
17.5625     69.500  -174.901
17.8180     69.689  -174.683
18.0771     69.943  -174.341
18.3401     70.253  -174.104
18.6068     70.589  -174.111
18.8775     70.930  -174.366
19.1521     71.262  -174.814
19.4306     71.577  -175.374
19.7133     71.871  -175.951
20.0000     72.155  -176.473
20.2909     72.446  -176.938
20.5860     72.750  -177.421
20.8855     73.056  -177.969
21.1893     73.358  -178.571
21.4975     73.655  -179.201
21.8102     73.953  -179.844
22.1274     74.248   179.476
22.4492     74.540   178.777
22.7758     74.825   178.063
23.1071     75.105   177.353
23.4432     75.383   176.657
23.7841     75.659   175.971
24.1301     75.933   175.290
24.4811     76.203   174.637
24.8372     76.471   174.023
25.1984     76.748   173.447
25.5649     77.031   172.864
25.9368     77.316   172.266
26.3141     77.602   171.670
26.6968     77.895   171.077
27.0851     78.198   170.445
27.4791     78.503   169.704
27.8788     78.798   168.877
28.2843     79.074   168.055
28.6957     79.345   167.285
29.1131     79.618   166.560
29.5365     79.897   165.836
29.9661     80.169   165.123
30.4020     80.449   164.445
30.8442     80.741   163.740
31.2929     81.034   162.985
31.7480     81.328   162.177
32.2098     81.622   161.316
32.6783     81.912   160.397
33.1536     82.193   159.434
33.6359     82.467   158.447
34.1251     82.731   157.445
34.6215     82.981   156.474
35.1250     83.223   155.596
35.6359     83.471   154.816
36.1543     83.730   154.085
36.6802     83.998   153.368
37.2137     84.279   152.649
37.7550     84.573   151.883
38.3041     84.872   151.058
38.8613     85.174   150.146
39.4265     85.475   149.198
40.0000     85.781   148.201
40.5818     86.088   147.104
41.1721     86.387   145.916
41.7710     86.676   144.666
42.3785     86.953   143.403
42.9949     87.227   142.157
43.6203     87.503   140.908
44.2548     87.784   139.618
44.8985     88.072   138.247
45.5515     88.360   136.696
46.2141     88.631   134.888
46.8863     88.839   132.884
47.5683     88.969   131.038
48.2602     89.060   129.772
48.9621     89.205   129.020
49.6743     89.403   128.341
50.3968     89.645   127.589
51.1299     89.913   126.703
51.8736     90.197   125.611
52.6281     90.478   124.337
53.3936     90.751   122.950
54.1702     91.016   121.495
54.9581     91.274   119.991
55.7575     91.530   118.437
56.5685     91.782   116.836
57.3914     92.033   115.183
58.2261     92.281   113.459
59.0730     92.521   111.654
59.9323     92.750   109.821
60.8040     92.979   107.946
61.6884     93.196   105.978
62.5857     93.399   104.007
63.4960     93.602   102.051
64.4196     93.812   100.037
65.3566     94.023    97.855
66.3073     94.213    95.439
67.2717     94.356    92.870
68.2502     94.440    90.363
69.2429     94.479    88.167
70.2501     94.520    86.445
71.2719     94.626    84.994
72.3086     94.793    83.313
73.3603     94.965    81.227
74.4274     95.107    78.906
75.5099     95.215    76.512
76.6083     95.299    74.098
77.7226     95.363    71.676
78.8531     95.405    69.258
80.0000     95.424    66.862
81.1636     95.415    64.464
82.3442     95.360    62.191
83.5419     95.282    60.270
84.7570     95.216    58.676
85.9899     95.183    57.264
87.2406     95.183    55.906
88.5096     95.212    54.500
89.7970     95.264    52.895
91.1031     95.313    51.071
92.4282     95.335    49.070
93.7726     95.324    47.069
95.1366     95.294    45.161
96.5204     95.256    43.312
97.9243     95.209    41.472
99.3486     95.148    39.679
100.794     95.077    37.947
102.260     94.990    36.291
103.747     94.894    34.801
105.256     94.806    33.492
106.787     94.737    32.255
108.340     94.684    30.979
109.916     94.629    29.611
111.515     94.561    28.223
113.137     94.474    26.874
114.783     94.370    25.644
116.452     94.277    24.759
118.146     94.213    23.938
119.865     94.190    23.035
121.608     94.179    22.034
123.377     94.171    20.811
125.171     94.148    19.466
126.992     94.083    18.042
128.839     93.985    16.978
130.713     93.891    16.268
132.615     93.848    15.589
134.543     93.855    14.793
136.500     93.872    13.768
138.486     93.879    12.540
140.500     93.866    11.275
142.544     93.851    10.062
144.617     93.844     8.687
146.721     93.788     6.990
148.855     93.664     5.557
151.020     93.526     4.649
153.217     93.438     4.106
155.445     93.409     3.484
157.706     93.396     2.668
160.000     93.406     1.795
162.327     93.415     0.430
164.688     93.350    -1.001
167.084     93.254    -2.097
169.514     93.161    -2.994
171.980     93.072    -3.700
174.481     93.015    -4.202
177.019     92.998    -4.780
179.594     92.986    -5.534
182.206     92.967    -6.253
184.856     92.957    -6.895
187.545     92.970    -7.477
190.273     93.027    -8.151
193.041     93.107    -9.261
195.849     93.137   -10.829
198.697     93.080   -12.275
201.587     93.005   -13.144
204.520     92.977   -13.695
207.494     93.008   -14.249
210.512     93.079   -15.041
213.574     93.159   -16.078
216.681     93.250   -17.347
219.833     93.342   -18.888
223.030     93.373   -20.980
226.274     93.331   -23.087
229.565     93.211   -24.937
232.905     93.061   -26.214
236.292     92.962   -27.054
239.729     92.916   -28.008
243.216     92.833   -29.347
246.754     92.676   -30.332
250.343     92.540   -30.659
253.984     92.456   -30.668
257.678     92.454   -30.428
261.426     92.516   -30.315
265.229     92.618   -30.214
269.087     92.811   -30.107
273.001     93.072   -31.047
276.972     93.250   -32.798
281.000     93.309   -34.427
285.088     93.335   -35.655
289.234     93.405   -36.463
293.441     93.536   -37.470
297.709     93.683   -38.913
302.040     93.800   -40.784
306.433     93.852   -42.854
310.890     93.858   -44.803
315.412     93.830   -46.680
320.000     93.780   -48.316
324.655     93.751   -49.669
329.377     93.751   -51.144
334.168     93.746   -52.720
339.028     93.741   -54.322
343.959     93.732   -55.969
348.962     93.721   -57.642
354.038     93.707   -59.363
359.188     93.686   -61.114
364.412     93.660   -62.875
369.713     93.632   -64.644
375.090     93.599   -66.421
380.546     93.564   -68.205
386.081     93.526   -69.994
391.697     93.485   -71.791
397.394     93.440   -73.590
403.175     93.392   -75.395
409.039     93.341   -77.204
414.989     93.287   -79.015
421.025     93.229   -80.830
427.149     93.169   -82.646
433.362     93.106   -84.464
439.665     93.039   -86.282
446.060     92.970   -88.100
452.548     92.898   -89.918
459.131     92.824   -91.735
465.809     92.746   -93.550
472.584     92.666   -95.363
479.458     92.582   -97.172
486.432     92.497   -98.979
493.507     92.408  -100.780
500.686     92.318  -102.577
507.968     92.225  -104.368
515.357     92.129  -106.151
522.853     92.032  -107.927
530.458     91.933  -109.695
538.174     91.831  -111.453
546.002     91.728  -113.199
553.943     91.622  -114.932
562.001     91.514  -116.651
570.175     91.406  -118.357
578.469     91.296  -120.040
586.883     91.185  -121.704
595.419     91.073  -123.346
604.080     90.962  -124.965
612.866     90.851  -126.557
621.780     90.740  -128.121
630.824     90.631  -129.651
640.000     90.525  -131.152
649.309     90.422  -132.617
658.753     90.324  -134.050
668.335     90.232  -135.453
678.056     90.147  -136.828
687.919     90.071  -138.180
697.925     90.003  -139.516
708.077     89.947  -140.843
718.376     89.902  -142.173
728.825     89.870  -143.517
739.426     89.851  -144.888
750.181     89.844  -146.304
761.093     89.850  -147.781
772.163     89.869  -149.338
783.394     89.897  -150.982
794.789     89.933  -152.723
806.349     89.975  -154.577
818.078     90.019  -156.554
829.977     90.064  -158.652
842.050     90.107  -160.873
854.298     90.144  -163.220
866.724     90.172  -165.687
879.330     90.190  -168.255
892.120     90.191  -170.931
905.097     90.179  -173.672
918.262     90.146  -176.480
931.618     90.094  -179.326
945.169     90.022   177.811
958.917     89.930   174.955
972.864     89.816   172.132
987.015     89.683   169.366
1001.37     89.532   166.686
1015.94     89.368   164.108
1030.71     89.190   161.649
1045.71     89.007   159.334
1060.92     88.821   157.149
1076.35     88.636   155.103
1092.00     88.458   153.186
1107.89     88.289   151.376
1124.00     88.133   149.662
1140.35     87.988   148.011
1156.94     87.857   146.429
1173.77     87.735   144.881
1190.84     87.631   143.407
1208.16     87.533   141.961
1225.73     87.457   140.604
1243.56     87.397   139.302
1261.65     87.371   138.067
1280.00     87.381   136.848
1298.62     87.461   135.507
1317.51     87.549   134.137
1336.67     87.709   132.389
1356.11     87.906   130.243
1375.84     88.125   127.584
1395.85     88.347   124.347
1416.15     88.539   120.389
1436.75     88.702   116.051
1457.65     88.789   111.051
1478.85     88.801   105.632
1500.36     88.716    99.830
1522.19     88.501    93.738
1544.33     88.161    87.538
1566.79     87.689    81.374
1589.58     87.081    75.413
1612.70     86.340    69.829
1636.16     85.476    64.815
1659.95     84.511    60.535
1684.10     83.482    57.086
1708.60     82.432    54.404
1733.45     81.400    52.203
1758.66     80.395    49.994
1784.24     79.376    47.204
1810.19     78.247    43.347
1836.52     76.866    38.088
1863.24     75.050    31.093
1890.34     72.569    21.484
1917.83     69.225     5.271
1945.73     65.988   -43.670
1974.03     66.757  -124.136
2002.74     70.160  -150.438
2031.87     73.014  -161.194
2061.43     75.120  -167.600
2091.41     76.780  -171.892
2121.83     78.198  -175.073
2152.69     79.459  -177.910
2184.01     80.641   179.181
2215.77     81.654   175.878
2248.00     82.557   172.411
2280.70     83.296   168.948
2313.87     83.913   165.813
2347.53     84.459   163.204
2381.68     84.997   161.157
2416.32     85.570   159.366
2451.46     86.205   157.514
2487.12     86.872   155.329
2523.30     87.538   152.519
2560.00     88.164   149.219
2597.24     88.727   145.524
2635.01     89.222   141.603
2673.34     89.641   137.593
2712.23     90.015   133.594
2751.68     90.348   129.632
2791.70     90.661   125.644
2832.31     90.958   121.473
2873.50     91.225   117.009
2915.30     91.437   112.187
2957.70     91.560   107.027
3000.72     91.561   101.681
3044.37     91.402    96.532
3088.65     91.113    91.951
3133.58     90.746    88.020
3179.16     90.321    84.805
3225.40     89.843    82.213
3272.31     89.298    80.516
3319.91     88.723    80.264
3368.20     88.260    81.836
3417.19     88.101    84.555
3466.89     88.292    86.630
3517.32     88.630    86.744
3568.48     88.867    85.289
3620.39     88.932    83.599
3673.05     88.933    82.536
3726.47     88.995    81.763
3780.67     89.077    80.381
3835.67     89.086    78.624
3891.46     88.948    77.644
3948.06     88.793    77.835
4005.49     88.964    78.861
4063.75     89.352    78.320
4122.86     89.633    75.671
4182.82     89.638    72.720
4243.66     89.538    71.111
4305.39     89.604    69.907
4368.01     89.749    67.180
4431.55     89.597    62.851
4496.01     89.053    59.476
4561.40     88.373    59.245
4627.75     87.907    60.744
4695.06     87.579    61.670
4763.35     87.106    63.485
4832.64     86.768    69.088
4902.93     87.246    75.041
4974.24     87.970    77.009
5046.60     88.415    76.810
5120.00     88.845    77.587
5194.47     89.551    77.999
5270.03     90.282    75.553
5346.68     90.767    71.599
5424.45     91.066    67.313
5503.35     91.209    62.319
5583.40     90.971    56.964
5664.61     90.376    54.200
5747.01     89.860    53.932
5830.60     89.577    55.125
5915.41     89.553    56.314
6001.45     89.742    56.830
6088.74     89.897    55.145
6177.30     89.750    53.560
6267.15     89.593    54.110
6358.31     89.746    55.054
6450.80     90.052    54.461
6544.62     90.281    52.187
6639.82     90.306    49.278
6736.40     90.152    46.745
6834.38     89.919    45.002
6933.79     89.702    43.779
7034.64     89.460    42.125
7136.96     88.948    40.791
7240.77     88.311    42.663
7346.09     88.005    46.734
7452.94     88.043    51.192
7561.35     88.511    55.212
7671.33     89.217    57.003
7782.91     89.967    56.344
7896.12     90.704    53.422
8010.97     90.925    48.032
8127.49     90.830    44.961
8245.71     90.833    41.958
8365.65     90.663    39.409
8487.33     90.523    36.933
8610.78     90.170    34.835
8736.03     89.865    34.770
8863.09     89.725    35.209
8992.01     89.896    36.028
9122.80     90.169    33.457
9255.50     90.100    29.473
9390.12     89.708    25.421
9526.70     88.937    23.729
9665.27     88.234    25.589
9805.86     87.942    29.411
9948.49     88.134    32.100
10093.2     88.340    31.773
10240.0     88.362    30.894
10388.9     88.316    30.957
10540.1     88.469    31.170
10693.4     88.651    29.710
10848.9     88.607    27.085
11006.7     88.327    25.962
11166.8     88.178    26.267
11329.2     88.216    26.075
11494.0     88.261    24.931
11661.2     88.331    24.217
11830.8     88.466    22.266
12002.9     88.507    17.804
12177.5     88.044    13.184
12354.6     87.226    12.001
12534.3     86.712    13.722
12716.6     86.795    14.999
12901.6     86.859    12.839
13089.2     86.773     9.331
13279.6     86.448     5.828
13472.8     85.857     2.825
13668.8     85.094     1.553
13867.6     84.450     2.864
14069.3     84.203     4.097
14273.9     84.152     3.252
14481.5     83.930     0.759
14692.2     83.513    -2.446
14905.9     82.800    -4.973
15122.7     82.058    -5.253
15342.7     81.530    -4.690
15565.8     81.205    -5.664
15792.2     80.833    -8.320
16021.9     80.363   -12.264
16255.0     79.629   -18.122
16491.4     78.323   -22.781
16731.3     77.198   -23.879
16974.7     76.479   -29.971
17221.6     75.076   -39.924
17472.1     73.095   -48.841
17726.2     71.305   -59.448
17984.0     69.885   -77.249
18245.6     69.071  -103.565
18511.0     69.056  -135.900
18780.2     69.312  -161.259
19053.4     70.113  -173.455
19330.5     71.764  -179.888
19611.7     73.434   171.026
19897.0     74.179   160.783
20186.4     74.293   157.560
20480.0     75.042   159.695
20777.9     76.382   158.901
21080.1     77.360   153.202
21386.7     77.634   147.618
21697.8     77.899   147.843
22013.4     78.482   146.949
22333.6     78.814   142.742
22658.4     78.779   140.690
22988.0     78.914   141.749
23322.4     79.392   140.974
23661.6     79.587   137.740
24005.8     79.380   135.306
24355.0     79.326   137.805
24709.2     79.909   139.619
25068.6     80.339   136.553
25433.2     80.492   134.124
25803.2     80.887   133.169
26178.5     81.425   127.761
26559.3     81.310   120.891
26945.6     80.965   116.372
27337.5     80.850   111.302
27735.2     80.547   103.618
28138.6     79.691    95.347
28547.9     78.478    88.334
28963.1     76.908    82.183
29384.4     74.870    79.210
29811.8     72.691    81.129
30245.4     70.693    86.596
30685.3     69.092    94.323
31131.7     68.155   102.546
31584.5     67.447   103.760
32043.9     65.819   101.795
32510.0     63.151   108.621
32982.8     60.960   130.656
33462.6     60.951   159.950
33949.3     62.236   171.516
34443.1     62.739   173.839
34944.1     62.729  -179.939
35452.4     63.196  -170.087
35968.0     64.376  -161.892
36491.2     65.963  -160.841
37022.0     66.904  -167.477
37560.5     67.047  -174.969
38106.8     66.746   177.485
38661.1     65.985   170.822
39223.4     64.903   165.053
39793.9     63.585   159.500
