Freq[Hz]     dBSPL  Phase[Deg]
5.00000     42.463  -138.797
5.07273     42.808  -138.985
5.14651     43.152  -139.175
5.22137     43.511  -134.998
5.29732     43.885  -131.233
5.37437     44.303  -128.804
5.45254     44.834  -127.786
5.53185     45.464  -127.883
5.61231     46.091  -128.531
5.69394     46.636  -129.450
5.77676     47.012  -130.673
5.86079     47.273  -132.164
5.94604     47.455  -133.648
6.03252     47.592  -134.825
6.12027     47.692  -135.410
6.20929     47.754  -135.500
6.29961     47.819  -135.213
6.39124     47.967  -134.575
6.48420     48.218  -133.577
6.57851     48.551  -132.394
6.67420     48.946  -131.391
6.77128     49.398  -130.807
6.86977     49.904  -130.628
6.96969     50.433  -130.812
7.07107     50.938  -131.376
7.17392     51.404  -132.318
7.27827     51.835  -133.513
7.38413     52.225  -134.782
7.49154     52.570  -136.058
7.60050     52.870  -137.330
7.71105     53.151  -138.489
7.82321     53.420  -139.493
7.93701     53.683  -140.365
8.05245     53.949  -141.135
8.16958     54.229  -141.827
8.28841     54.519  -142.469
8.40896     54.815  -143.107
8.53128     55.114  -143.779
8.65537     55.411  -144.464
8.78126     55.702  -145.139
8.90899     55.981  -145.786
9.03857     56.256  -146.386
9.17004     56.531  -146.887
9.30342     56.809  -147.305
9.43874     57.101  -147.668
9.57603     57.413  -147.998
9.71532     57.740  -148.348
9.85663     58.079  -148.774
10.0000     58.427  -149.279
10.1455     58.770  -149.873
10.2930     59.101  -150.536
10.4427     59.422  -151.210
10.5946     59.731  -151.864
10.7487     60.035  -152.488
10.9051     60.343  -153.072
11.0637     60.652  -153.636
11.2246     60.965  -154.203
11.3879     61.277  -154.770
11.5535     61.583  -155.318
11.7216     61.885  -155.846
11.8921     62.193  -156.310
12.0650     62.504  -156.755
12.2405     62.834  -157.218
12.4186     63.173  -157.724
12.5992     63.515  -158.348
12.7825     63.849  -159.041
12.9684     64.159  -159.749
13.1570     64.467  -160.453
13.3484     64.768  -161.043
13.5426     65.085  -161.601
13.7395     65.427  -162.226
13.9394     65.787  -163.049
14.1421     66.127  -164.158
14.3478     66.441  -165.383
14.5565     66.684  -166.633
14.7683     66.878  -167.700
14.9831     67.055  -168.372
15.2010     67.275  -168.770
15.4221     67.548  -169.158
15.6464     67.848  -169.732
15.8740     68.137  -170.527
16.1049     68.387  -171.435
16.3392     68.604  -172.317
16.5768     68.808  -173.101
16.8179     69.007  -173.796
17.0626     69.190  -174.399
17.3107     69.348  -174.807
17.5625     69.500  -174.901
17.8180     69.689  -174.683
18.0771     69.943  -174.341
18.3401     70.253  -174.104
18.6068     70.589  -174.111
18.8775     70.930  -174.366
19.1521     71.262  -174.814
19.4306     71.577  -175.374
19.7133     71.871  -175.951
20.0000     72.155  -176.473
20.2909     72.446  -176.938
20.5860     72.750  -177.421
20.8855     73.056  -177.969
21.1893     73.358  -178.571
21.4975     73.655  -179.201
21.8102     73.953  -179.844
22.1274     74.248   179.476
22.4492     74.540   178.777
22.7758     74.825   178.063
23.1071     75.105   177.353
23.4432     75.383   176.657
23.7841     75.659   175.971
24.1301     75.933   175.290
24.4811     76.203   174.637
24.8372     76.471   174.023
25.1984     76.748   173.447
25.5649     77.031   172.864
25.9368     77.316   172.266
26.3141     77.602   171.670
26.6968     77.895   171.077
27.0851     78.198   170.445
27.4791     78.503   169.704
27.8788     78.798   168.877
28.2843     79.074   168.055
28.6957     79.345   167.285
29.1131     79.618   166.560
29.5365     79.897   165.836
29.9661     80.169   165.123
30.4020     80.449   164.445
30.8442     80.741   163.740
31.2929     81.034   162.985
31.7480     81.328   162.177
32.2098     81.622   161.316
32.6783     81.912   160.397
33.1536     82.193   159.434
33.6359     82.467   158.447
34.1251     82.731   157.445
34.6215     82.981   156.474
35.1250     83.223   155.596
35.6359     83.471   154.816
36.1543     83.730   154.085
36.6802     83.998   153.368
37.2137     84.279   152.649
37.7550     84.573   151.883
38.3041     84.872   151.058
38.8613     85.174   150.146
39.4265     85.475   149.198
40.0000     85.781   148.201
40.5818     86.088   147.102
41.1721     86.387   145.909
41.7710     86.675   144.650
42.3785     86.952   143.375
42.9949     87.225   142.113
43.6203     87.500   140.845
44.2548     87.780   139.535
44.8985     88.066   138.139
45.5515     88.353   136.561
46.2141     88.622   134.723
46.8863     88.827   132.687
47.5683     88.955   130.807
48.2602     89.043   129.503
48.9621     89.185   128.712
49.6743     89.379   127.992
50.3968     89.618   127.196
51.1299     89.882   126.264
51.8736     90.162   125.124
52.6281     90.439   123.801
53.3936     90.707   122.362
54.1702     90.966   120.853
54.9581     91.220   119.293
55.7575     91.470   117.681
56.5685     91.716   116.020
57.3914     91.961   114.306
58.2261     92.202   112.519
59.0730     92.436   110.648
59.9323     92.657   108.748
60.8040     92.879   106.805
61.6884     93.087   104.766
62.5857     93.283   102.723
63.4960     93.477   100.693
64.4196     93.678    98.604
65.3566     93.879    96.343
66.3073     94.060    93.848
67.2717     94.193    91.197
68.2502     94.266    88.607
69.2429     94.296    86.326
70.2501     94.326    84.516
71.2719     94.420    82.977
72.3086     94.575    81.204
73.3603     94.735    79.025
74.4274     94.864    76.610
75.5099     94.959    74.118
76.6083     95.030    71.605
77.7226     95.081    69.081
78.8531     95.108    66.560
80.0000     95.112    64.058
81.1636     95.089    61.551
82.3442     95.018    59.168
83.5419     94.924    57.134
84.7570     94.843    55.424
85.9899     94.792    53.894
87.2406     94.776    52.416
88.5096     94.787    50.886
89.7970     94.821    49.155
91.1031     94.851    47.203
92.4282     94.853    45.071
93.7726     94.823    42.935
95.1366     94.772    40.890
96.5204     94.714    38.900
97.9243     94.646    36.916
99.3486     94.564    34.976
100.794     94.470    33.095
102.260     94.360    31.285
103.747     94.240    29.638
105.256     94.128    28.169
106.787     94.034    26.767
108.340     93.956    25.324
109.916     93.874    23.785
111.515     93.780    22.221
113.137     93.665    20.692
114.783     93.533    19.278
116.452     93.411    18.206
118.146     93.318    17.193
119.865     93.265    16.094
121.608     93.222    14.892
123.377     93.182    13.465
125.171     93.127    11.911
126.992     93.027    10.273
128.839     92.895     8.990
130.713     92.766     8.056
132.615     92.686     7.149
134.543     92.655     6.120
136.500     92.635     4.856
138.486     92.602     3.385
140.500     92.549     1.872
142.544     92.491     0.405
144.617     92.442    -1.229
146.721     92.342    -3.190
148.855     92.173    -4.892
151.020     91.989    -6.075
153.217     91.853    -6.898
155.445     91.776    -7.805
157.706     91.713    -8.912
160.000     91.670   -10.081
162.327     91.627   -11.748
164.688     91.507   -13.485
167.084     91.356   -14.893
169.514     91.205   -16.108
171.980     91.057   -17.135
174.481     90.939   -17.965
177.019     90.860   -18.875
179.594     90.784   -19.965
182.206     90.699   -21.026
184.856     90.621   -22.014
187.545     90.564   -22.946
190.273     90.550   -23.975
193.041     90.556   -25.443
195.849     90.510   -27.372
198.697     90.376   -29.183
201.587     90.220   -30.419
204.520     90.110   -31.339
207.494     90.056   -32.265
210.512     90.039   -33.430
213.574     90.031   -34.841
216.681     90.029   -36.484
219.833     90.026   -38.399
223.030     89.960   -40.864
226.274     89.817   -43.343
229.565     89.595   -45.562
232.905     89.339   -47.204
236.292     89.131   -48.405
239.729     88.972   -49.714
243.216     88.775   -51.402
246.754     88.500   -52.728
250.343     88.243   -53.386
253.984     88.034   -53.719
257.678     87.903   -53.798
261.426     87.831   -53.994
265.229     87.796   -54.186
269.087     87.849   -54.350
273.001     87.967   -55.533
276.972     87.999   -57.500
281.000     87.909   -59.312
285.088     87.784   -60.692
289.234     87.699   -61.613
293.441     87.670   -62.699
297.709     87.654   -64.184
302.040     87.604   -66.065
306.433     87.482   -68.117
310.890     87.308   -70.018
315.412     87.090   -71.810
320.000     86.844   -73.328
324.655     86.611   -74.516
329.377     86.398   -75.779
334.168     86.173   -77.089
339.028     85.938   -78.365
343.959     85.692   -79.619
348.962     85.436   -80.822
354.038     85.169   -81.988
359.188     84.886   -83.089
364.412     84.591   -84.094
369.713     84.286   -84.989
375.090     83.973   -85.758
380.546     83.649   -86.367
386.081     83.322   -86.850
391.697     82.990   -87.118
397.394     82.657   -87.261
403.175     82.327   -87.172
409.039     82.003   -86.884
414.989     81.692   -86.382
421.025     81.399   -85.658
427.149     81.128   -84.747
433.362     80.888   -83.639
439.665     80.685   -82.368
446.060     80.520   -80.986
452.548     80.401   -79.528
459.131     80.332   -78.053
465.809     80.305   -76.615
472.584     80.327   -75.276
479.458     80.387   -74.078
486.432     80.481   -73.041
493.507     80.606   -72.234
500.686     80.755   -71.659
507.968     80.919   -71.305
515.357     81.095   -71.202
522.853     81.274   -71.328
530.458     81.455   -71.657
538.174     81.632   -72.186
546.002     81.802   -72.905
553.943     81.964   -73.786
562.001     82.115   -74.807
570.175     82.257   -75.937
578.469     82.384   -77.196
586.883     82.499   -78.542
595.419     82.603   -79.960
604.080     82.696   -81.437
612.866     82.778   -82.969
621.780     82.850   -84.544
630.824     82.914   -86.157
640.000     82.970   -87.798
649.309     83.020   -89.469
658.753     83.067   -91.167
668.335     83.110   -92.894
678.056     83.151   -94.654
687.919     83.192   -96.456
697.925     83.232   -98.305
708.077     83.272  -100.214
718.376     83.312  -102.192
728.825     83.352  -104.251
739.426     83.391  -106.401
750.181     83.429  -108.655
761.093     83.460  -111.025
772.163     83.486  -113.520
783.394     83.505  -116.134
794.789     83.513  -118.866
806.349     83.507  -121.726
818.078     83.486  -124.711
829.977     83.446  -127.810
842.050     83.387  -131.017
854.298     83.303  -134.328
866.724     83.195  -137.727
879.330     83.060  -141.194
892.120     82.891  -144.726
905.097     82.696  -148.290
918.262     82.466  -151.874
931.618     82.203  -155.455
945.169     81.906  -159.010
958.917     81.574  -162.515
972.864     81.206  -165.943
987.015     80.804  -169.269
1001.37     80.366  -172.457
1015.94     79.896  -175.489
1030.71     79.394  -178.336
1045.71     78.861   179.044
1060.92     78.302   176.649
1076.35     77.717   174.529
1092.00     77.108   172.708
1107.89     76.479   171.205
1124.00     75.828   170.101
1140.35     75.162   169.368
1156.94     74.480   169.260
1173.77     73.792   169.564
1190.84     73.122   170.953
1208.16     72.471   172.787
1225.73     71.927   175.917
1243.56     71.493   179.813
1261.65     71.300  -175.465
1280.00     71.346  -170.585
1298.62     71.772  -166.692
1317.51     72.224  -162.977
1336.67     72.916  -161.285
1356.11     73.661  -161.006
1375.84     74.408  -162.107
1395.85     75.116  -164.407
1416.15     75.742  -167.875
1436.75     76.316  -171.879
1457.65     76.782  -176.727
1478.85     77.163   177.927
1500.36     77.448   172.128
1522.19     77.618   165.932
1544.33     77.689   159.480
1566.79     77.659   152.846
1589.58     77.526   146.104
1612.70     77.291   139.319
1636.16     76.951   132.573
1659.95     76.507   125.939
1684.10     75.960   119.511
1708.60     75.311   113.382
1733.45     74.563   107.656
1758.66     73.721   102.455
1784.24     72.794    97.927
1810.19     71.793    94.249
1836.52     70.743    91.647
1863.24     69.687    90.378
1890.34     68.700    90.660
1917.83     67.901    92.470
1945.73     67.424    95.269
1974.03     67.357    97.900
2002.74     67.689    98.763
2031.87     68.240    97.191
2061.43     68.862    92.856
2091.41     69.434    85.998
2121.83     69.894    76.991
2152.69     70.198    65.871
2184.01     70.409    53.620
2215.77     70.488    39.427
2248.00     70.525    24.204
2280.70     70.562     7.525
2313.87     70.677   -10.275
2347.53     70.937   -28.892
2381.68     71.401   -47.923
2416.32     72.024   -66.935
2451.46     72.817   -85.540
2487.12     73.682  -103.675
2523.30     74.565  -121.157
2560.00     75.400  -138.150
2597.24     76.141  -154.677
2635.01     76.761  -170.812
2673.34     77.207   173.504
2712.23     77.503   158.182
2751.68     77.596   143.364
2791.70     77.499   129.080
2832.31     77.183   115.558
2873.50     76.677   102.888
2915.30     75.975    91.372
2957.70     75.091    81.397
3000.72     74.063    73.489
3044.37     73.020    68.669
3088.65     72.227    66.902
3133.58     71.878    66.753
3179.16     72.107    66.189
3225.40     72.704    63.502
3272.31     73.460    57.972
3319.91     74.167    49.769
3368.20     74.694    39.463
3417.19     74.959    27.709
3466.89     74.918    15.192
3517.32     74.551     2.661
3568.48     73.875    -9.050
3620.39     72.966   -19.058
3673.05     71.986   -26.691
3726.47     71.181   -32.036
3780.67     70.817   -36.562
3835.67     70.791   -41.888
3891.46     71.059   -50.532
3948.06     71.350   -61.592
4005.49     71.321   -76.274
4063.75     70.810   -92.968
4122.86     69.588  -110.187
4182.82     67.457  -124.617
4243.66     64.538  -127.993
4305.39     63.256  -111.638
4368.01     65.403  -103.411
4431.55     68.056  -116.201
4496.01     69.991  -137.330
4561.40     71.168  -163.478
4627.75     71.861   167.641
4695.06     72.149   136.071
4763.35     72.182   102.421
4832.64     72.020    67.147
4902.93     71.684    31.361
4974.24     71.188    -3.535
5046.60     70.423   -35.600
5120.00     69.405   -63.687
5194.47     68.281   -85.360
5270.03     67.719  -100.116
5346.68     68.184  -112.626
5424.45     69.362  -127.556
5503.35     70.579  -146.693
5583.40     71.430  -168.499
5664.61     71.839   168.453
5747.01     71.849   144.838
5830.60     71.358   121.034
5915.41     70.210    98.029
6001.45     68.200    78.209
6088.74     65.601    72.065
6177.30     65.020    79.489
6267.15     66.699    76.219
6358.31     68.170    60.039
6450.80     68.998    40.393
6544.62     69.526    19.836
6639.82     69.944    -2.652
6736.40     69.990   -27.907
6834.38     69.374   -54.398
6933.79     68.129   -79.814
7034.64     66.586  -103.303
7136.96     65.052  -126.646
7240.77     63.297  -152.142
7346.09     60.607  -177.668
7452.94     56.794   164.472
7561.35     53.274   152.914
7671.33     50.328   138.658
7782.91     48.189   137.101
7896.12     48.523   164.467
8010.97     52.449   129.367
8127.49     55.613    64.438
8245.71     57.974    -3.241
8365.65     59.362   -59.680
8487.33     59.876  -106.289
8610.78     59.703  -144.588
8736.03     58.934  -176.335
8863.09     57.726   159.693
8992.01     57.162   145.236
9122.80     58.069   125.643
9255.50     58.086    96.970
9390.12     56.627    71.124
9526.70     54.948    51.174
9665.27     53.626    32.609
9805.86     52.556    12.244
9948.49     51.182   -12.816
10093.2     48.486   -34.584
10240.0     46.895   -19.151
10388.9     48.444   -14.409
10540.1     50.135   -46.767
10693.4     49.737   -84.971
10848.9     48.009  -116.648
11006.7     46.319  -144.655
11166.8     44.857  -172.140
11329.2     44.564   151.777
11494.0     44.492    99.416
11661.2     43.468    46.825
11830.8     44.453     7.552
12002.9     48.227   -29.937
12177.5     50.719   -73.008
12354.6     50.792  -114.976
12534.3     49.912  -151.889
12716.6     49.178   177.290
12901.6     49.060   147.320
13089.2     48.954   116.792
13279.6     48.911    86.269
13472.8     48.796    52.559
13668.8     48.281    14.194
13867.6     47.481   -29.561
14069.3     46.368   -84.791
14273.9     44.981  -151.894
14481.5     44.196   129.114
14692.2     45.004    68.696
14905.9     46.558    19.581
15122.7     47.736   -24.984
15342.7     47.866   -65.853
15565.8     47.367  -101.012
15792.2     47.267  -133.007
16021.9     46.881  -168.956
16255.0     45.380   162.625
16491.4     45.022   137.660
16731.3     44.875   104.220
16974.7     44.400    66.570
17221.6     43.792    21.859
17472.1     41.345   -28.784
17726.2     36.249   -52.409
17984.0     34.182    14.768
18245.6     38.007     0.522
18511.0     40.440   -44.087
18780.2     40.879   -87.605
19053.4     41.127  -130.387
19330.5     40.222  -179.458
19611.7     38.265   130.376
19897.0     36.182    80.802
20186.4     32.863    48.512
20480.0     29.017    31.669
20777.9     26.476     8.126
21080.1     28.699   -43.692
21386.7     33.515   -98.859
21697.8     34.808  -146.827
22013.4     35.050   158.001
22333.6     38.176    89.222
22658.4     41.465    28.268
22988.0     43.307   -31.028
23322.4     42.051   -88.975
23661.6     38.113  -127.532
24005.8     35.220  -152.187
24355.0     35.853   170.675
24709.2     35.742   154.361
25068.6     37.600   147.890
25433.2     39.651   109.939
25803.2     40.518    60.388
26178.5     41.284     2.094
26559.3     41.434   -65.183
26945.6     41.057  -133.233
27337.5     39.131   158.878
27735.2     35.514   155.737
28138.6     31.962  -144.488
28547.9     29.701   150.963
28963.1     26.788    83.382
29384.4     28.457     7.329
29811.8     30.316   -53.826
30245.4     30.963  -110.976
30685.3     31.181   170.043
31131.7     32.684   -24.152
31584.5     33.199   -42.211
32043.9     33.059   172.249
32510.0     33.965    93.338
32982.8     33.091    26.799
33462.6     31.183   -27.467
33949.3     26.652   -86.386
34443.1     23.060   -94.133
34944.1     24.839  -115.942
35452.4     25.497  -165.343
35968.0     24.144   136.165
36491.2     23.129    70.728
37022.0     21.387   -24.121
37560.5     18.681  -121.961
38106.8     16.607    48.358
38661.1     17.371   -27.186
39223.4     19.305    97.803
39793.9     20.973   113.819
