Freq[Hz]     dBSPL  Phase[Deg]
5.00000     42.463  -138.797
5.07273     42.808  -138.985
5.14651     43.152  -139.175
5.22137     43.511  -134.998
5.29732     43.885  -131.233
5.37437     44.303  -128.804
5.45254     44.834  -127.786
5.53185     45.464  -127.883
5.61231     46.091  -128.531
5.69394     46.636  -129.450
5.77676     47.012  -130.673
5.86079     47.273  -132.164
5.94604     47.455  -133.648
6.03252     47.592  -134.825
6.12027     47.692  -135.410
6.20929     47.754  -135.500
6.29961     47.819  -135.213
6.39124     47.967  -134.575
6.48420     48.218  -133.577
6.57851     48.551  -132.394
6.67420     48.946  -131.391
6.77128     49.398  -130.807
6.86977     49.904  -130.628
6.96969     50.433  -130.812
7.07107     50.938  -131.376
7.17392     51.404  -132.318
7.27827     51.835  -133.513
7.38413     52.225  -134.782
7.49154     52.570  -136.058
7.60050     52.870  -137.330
7.71105     53.151  -138.489
7.82321     53.420  -139.493
7.93701     53.683  -140.365
8.05245     53.949  -141.135
8.16958     54.229  -141.827
8.28841     54.519  -142.469
8.40896     54.815  -143.107
8.53128     55.114  -143.779
8.65537     55.411  -144.464
8.78126     55.702  -145.139
8.90899     55.981  -145.786
9.03857     56.256  -146.386
9.17004     56.531  -146.887
9.30342     56.809  -147.305
9.43874     57.101  -147.668
9.57603     57.413  -147.998
9.71532     57.740  -148.348
9.85663     58.079  -148.774
10.0000     58.427  -149.279
10.1455     58.770  -149.873
10.2930     59.101  -150.536
10.4427     59.422  -151.210
10.5946     59.731  -151.864
10.7487     60.035  -152.488
10.9051     60.343  -153.072
11.0637     60.652  -153.636
11.2246     60.965  -154.203
11.3879     61.277  -154.770
11.5535     61.583  -155.318
11.7216     61.885  -155.846
11.8921     62.193  -156.310
12.0650     62.504  -156.755
12.2405     62.834  -157.218
12.4186     63.173  -157.724
12.5992     63.515  -158.348
12.7825     63.849  -159.041
12.9684     64.159  -159.749
13.1570     64.467  -160.453
13.3484     64.768  -161.043
13.5426     65.085  -161.601
13.7395     65.427  -162.226
13.9394     65.787  -163.049
14.1421     66.127  -164.158
14.3478     66.441  -165.383
14.5565     66.684  -166.633
14.7683     66.878  -167.700
14.9831     67.055  -168.372
15.2010     67.275  -168.770
15.4221     67.548  -169.158
15.6464     67.848  -169.732
15.8740     68.137  -170.527
16.1049     68.387  -171.435
16.3392     68.604  -172.317
16.5768     68.808  -173.101
16.8179     69.007  -173.796
17.0626     69.190  -174.399
17.3107     69.348  -174.807
17.5625     69.500  -174.901
17.8180     69.689  -174.683
18.0771     69.943  -174.341
18.3401     70.253  -174.104
18.6068     70.589  -174.111
18.8775     70.930  -174.366
19.1521     71.262  -174.814
19.4306     71.577  -175.374
19.7133     71.871  -175.951
20.0000     72.155  -176.473
20.2909     72.446  -176.938
20.5860     72.750  -177.421
20.8855     73.056  -177.969
21.1893     73.358  -178.571
21.4975     73.655  -179.201
21.8102     73.953  -179.844
22.1274     74.248   179.476
22.4492     74.540   178.777
22.7758     74.825   178.063
23.1071     75.105   177.353
23.4432     75.383   176.657
23.7841     75.659   175.971
24.1301     75.933   175.290
24.4811     76.203   174.637
24.8372     76.471   174.023
25.1984     76.748   173.447
25.5649     77.031   172.864
25.9368     77.316   172.266
26.3141     77.602   171.670
26.6968     77.895   171.077
27.0851     78.198   170.445
27.4791     78.503   169.704
27.8788     78.798   168.877
28.2843     79.074   168.055
28.6957     79.345   167.285
29.1131     79.618   166.560
29.5365     79.897   165.836
29.9661     80.169   165.123
30.4020     80.449   164.445
30.8442     80.741   163.740
31.2929     81.034   162.985
31.7480     81.328   162.177
32.2098     81.622   161.316
32.6783     81.912   160.397
33.1536     82.193   159.434
33.6359     82.467   158.447
34.1251     82.731   157.445
34.6215     82.981   156.474
35.1250     83.223   155.596
35.6359     83.471   154.816
36.1543     83.730   154.085
36.6802     83.998   153.368
37.2137     84.279   152.649
37.7550     84.573   151.883
38.3041     84.872   151.058
38.8613     85.174   150.146
39.4265     85.475   149.198
40.0000     85.781   148.201
40.5818     86.088   147.108
41.1721     86.389   145.930
41.7710     86.681   144.697
42.3785     86.962   143.458
42.9949     87.241   142.242
43.6203     87.522   141.029
44.2548     87.810   139.782
44.8985     88.105   138.458
45.5515     88.403   136.962
46.2141     88.683   135.213
46.8863     88.901   133.274
47.5683     89.043   131.499
48.2602     89.146   130.309
48.9621     89.305   129.639
49.6743     89.516   129.046
50.3968     89.773   128.387
51.1299     90.057   127.597
51.8736     90.357   126.607
52.6281     90.655   125.440
53.3936     90.946   124.164
54.1702     91.229   122.826
54.9581     91.507   121.443
55.7575     91.782   120.015
56.5685     92.055   118.544
57.3914     92.327   117.027
58.2261     92.597   115.444
59.0730     92.860   113.783
59.9323     93.112   112.100
60.8040     93.364   110.380
61.6884     93.605   108.571
62.5857     93.833   106.764
63.4960     94.061   104.978
64.4196     94.296   103.137
65.3566     94.533   101.134
66.3073     94.749    98.902
67.2717     94.919    96.520
68.2502     95.030    94.207
69.2429     95.097    92.209
70.2501     95.166    90.690
71.2719     95.299    89.448
72.3086     95.495    87.981
73.3603     95.696    86.114
74.4274     95.866    84.017
75.5099     96.003    81.852
76.6083     96.117    79.674
77.7226     96.211    77.492
78.8531     96.282    75.320
80.0000     96.330    73.176
81.1636     96.352    71.036
82.3442     96.327    69.026
83.5419     96.278    67.375
84.7570     96.243    66.056
85.9899     96.240    64.926
87.2406     96.270    63.856
88.5096     96.329    62.745
89.7970     96.410    61.440
91.1031     96.489    59.925
92.4282     96.540    58.238
93.7726     96.558    56.559
95.1366     96.557    54.979
96.5204     96.549    53.466
97.9243     96.530    51.968
99.3486     96.498    50.525
100.794     96.455    49.152
102.260     96.396    47.861
103.747     96.326    46.744
105.256     96.266    45.817
106.787     96.222    44.968
108.340     96.196    44.090
109.916     96.166    43.129
111.515     96.123    42.155
113.137     96.060    41.230
114.783     95.980    40.432
116.452     95.910    39.989
118.146     95.868    39.619
119.865     95.867    39.177
121.608     95.877    38.645
123.377     95.889    37.903
125.171     95.886    37.047
126.992     95.839    36.125
128.839     95.758    35.572
130.713     95.681    35.383
132.615     95.653    35.236
134.543     95.674    34.984
136.500     95.706    34.513
138.486     95.725    33.851
140.500     95.723    33.164
142.544     95.717    32.540
144.617     95.720    31.767
146.721     95.671    30.685
148.855     95.553    29.879
151.020     95.420    29.611
153.217     95.335    29.720
155.445     95.309    29.765
157.706     95.297    29.628
160.000     95.306    29.447
162.327     95.312    28.790
164.688     95.244    28.081
167.084     95.142    27.721
169.514     95.042    27.575
171.980     94.944    27.636
174.481     94.877    27.915
177.019     94.848    28.133
179.594     94.821    28.193
182.206     94.787    28.302
184.856     94.759    28.505
187.545     94.752    28.785
190.273     94.788    28.990
193.041     94.845    28.776
195.849     94.849    28.122
198.697     94.766    27.606
201.587     94.662    27.687
204.520     94.602    28.103
207.494     94.600    28.535
210.512     94.636    28.746
213.574     94.680    28.730
216.681     94.730    28.505
219.833     94.782    28.022
223.030     94.771    27.012
226.274     94.684    26.003
229.565     94.518    25.271
232.905     94.320    25.132
236.292     94.171    25.451
239.729     94.073    25.675
243.216     93.938    25.533
246.754     93.726    25.765
250.343     93.535    26.675
253.984     93.393    27.921
257.678     93.333    29.448
261.426     93.335    30.872
265.229     93.378    32.300
269.087     93.510    33.747
273.001     93.709    34.162
276.972     93.824    33.773
281.000     93.821    33.518
285.088     93.784    33.670
289.234     93.792    34.259
293.441     93.860    34.662
297.709     93.946    34.646
302.040     94.002    34.220
306.433     93.995    33.626
310.890     93.943    33.188
315.412     93.857    32.858
320.000     93.752    32.798
324.655     93.669    33.056
329.377     93.616    33.224
334.168     93.561    33.321
339.028     93.507    33.423
343.959     93.452    33.509
348.962     93.398    33.597
354.038     93.343    33.664
359.188     93.283    33.727
364.412     93.221    33.805
369.713     93.158    33.898
375.090     93.095    34.006
380.546     93.031    34.130
386.081     92.966    34.264
391.697     92.900    34.414
397.394     92.833    34.572
403.175     92.764    34.743
409.039     92.694    34.924
414.989     92.622    35.117
421.025     92.548    35.320
427.149     92.472    35.534
433.362     92.394    35.759
439.665     92.312    35.997
446.060     92.228    36.247
452.548     92.141    36.512
459.131     92.050    36.793
465.809     91.955    37.091
472.584     91.856    37.409
479.458     91.754    37.747
486.432     91.648    38.107
493.507     91.536    38.496
500.686     91.421    38.913
507.968     91.301    39.360
515.357     91.176    39.843
522.853     91.046    40.363
530.458     90.913    40.921
538.174     90.775    41.520
546.002     90.631    42.167
553.943     90.484    42.863
562.001     90.333    43.608
570.175     90.177    44.400
578.469     90.015    45.261
586.883     89.851    46.183
595.419     89.681    47.171
604.080     89.508    48.226
612.866     89.331    49.363
621.780     89.149    50.587
630.824     88.965    51.919
640.000     88.778    53.351
649.309     88.591    54.914
658.753     88.404    56.610
668.335     88.222    58.449
678.056     88.047    60.440
687.919     87.883    62.589
697.925     87.735    64.893
708.077     87.608    67.342
718.376     87.508    69.917
728.825     87.440    72.584
739.426     87.407    75.302
750.181     87.412    78.016
761.093     87.456    80.662
772.163     87.537    83.173
783.394     87.645    85.508
794.789     87.774    87.633
806.349     87.917    89.507
818.078     88.063    91.112
829.977     88.204    92.465
842.050     88.331    93.574
854.298     88.435    94.457
866.724     88.507    95.156
879.330     88.546    95.726
892.120     88.538    96.206
905.097     88.493    96.669
918.262     88.399    97.174
931.618     88.261    97.788
945.169     88.083    98.576
958.917     87.870    99.608
972.864     87.628   100.944
987.015     87.374   102.617
1001.37     87.119   104.658
1015.94     86.879   107.016
1030.71     86.667   109.638
1045.71     86.492   112.409
1060.92     86.349   115.208
1076.35     86.231   117.919
1092.00     86.119   120.466
1107.89     85.990   122.849
1124.00     85.813   125.131
1140.35     85.580   127.447
1156.94     85.248   130.145
1173.77     84.858   133.234
1190.84     84.387   137.848
1208.16     83.913   143.195
1225.73     83.566   150.821
1243.56     83.408   159.743
1261.65     83.674   169.530
1280.00     84.297   178.678
1298.62     85.272  -174.984
1317.51     86.257  -168.941
1336.67     87.280  -165.843
1356.11     88.224  -164.096
1375.84     89.056  -163.384
1395.85     89.768  -163.355
1416.15     90.344  -163.765
1436.75     90.854  -164.299
1457.65     91.256  -164.912
1478.85     91.596  -165.492
1500.36     91.885  -166.000
1522.19     92.134  -166.438
1544.33     92.359  -166.870
1566.79     92.562  -167.357
1589.58     92.740  -167.947
1612.70     92.886  -168.666
1636.16     92.992  -169.505
1659.95     93.048  -170.419
1684.10     93.052  -171.338
1708.60     93.005  -172.181
1733.45     92.918  -172.879
1758.66     92.801  -173.399
1784.24     92.669  -173.759
1810.19     92.534  -174.027
1836.52     92.398  -174.304
1863.24     92.255  -174.682
1890.34     92.090  -175.208
1917.83     91.888  -175.862
1945.73     91.634  -176.554
1974.03     91.326  -177.143
2002.74     90.972  -177.446
2031.87     90.599  -177.394
2061.43     90.245  -176.967
2091.41     89.942  -176.303
2121.83     89.710  -175.648
2152.69     89.555  -175.349
2184.01     89.434  -175.363
2215.77     89.345  -176.064
2248.00     89.261  -177.149
2280.70     89.175  -178.770
2313.87     89.085   179.170
2347.53     88.991   176.689
2381.68     88.891   173.784
2416.32     88.784   170.601
2451.46     88.676   167.171
2487.12     88.581   163.654
2523.30     88.534   160.080
2560.00     88.551   156.392
2597.24     88.641   152.443
2635.01     88.783   148.115
2673.34     88.935   143.313
2712.23     89.054   138.281
2751.68     89.102   133.279
2791.70     89.085   128.635
2832.31     89.024   124.573
2873.50     88.939   120.940
2915.30     88.813   117.657
2957.70     88.606   114.707
3000.72     88.253   112.335
3044.37     87.704   111.697
3088.65     87.117   114.066
3133.58     86.784   119.289
3179.16     87.018   125.729
3225.40     87.682   130.605
3272.31     88.505   132.722
3319.91     89.205   132.560
3368.20     89.668   131.354
3417.19     89.909   130.152
3466.89     90.003   129.539
3517.32     90.035   129.659
3568.48     90.068   130.364
3620.39     90.132   131.374
3673.05     90.227   132.435
3726.47     90.339   133.427
3780.67     90.469   134.369
3835.67     90.625   135.253
3891.46     90.850   135.723
3948.06     91.118   135.716
4005.49     91.368   134.471
4063.75     91.529   132.310
4122.86     91.555   129.543
4182.82     91.448   126.480
4243.66     91.220   123.232
4305.39     90.874   119.846
4368.01     90.383   116.436
4431.55     89.710   113.324
4496.01     88.873   110.956
4561.40     87.895   110.313
4627.75     86.922   111.677
4695.06     86.199   115.000
4763.35     85.796   118.823
4832.64     85.678   122.254
4902.93     85.827   124.722
4974.24     86.121   125.647
5046.60     86.333   124.332
5120.00     86.278   122.420
5194.47     85.962   121.825
5270.03     85.701   123.501
5346.68     85.697   126.167
5424.45     85.961   128.757
5503.35     86.493   130.442
5583.40     87.206   129.726
5664.61     87.731   125.710
5747.01     87.825   120.151
5830.60     87.396   114.639
5915.41     86.491   111.065
6001.45     85.326   110.987
6088.74     84.313   114.905
6177.30     83.770   121.252
6267.15     83.908   126.828
6358.31     84.300   127.135
6450.80     84.157   123.468
6544.62     83.118   120.198
6639.82     81.463   122.121
6736.40     79.932   131.028
6834.38     79.314   144.187
6933.79     79.786   154.691
7034.64     80.491   158.062
7136.96     80.643   157.682
7240.77     80.194   158.104
7346.09     79.494   161.986
7452.94     79.044   169.617
7561.35     79.326   178.946
7671.33     80.329  -174.126
7782.91     81.695  -172.274
7896.12     82.884  -176.300
8010.97     83.351   175.283
8127.49     82.827   166.100
8245.71     81.376   159.914
8365.65     79.283   161.081
8487.33     77.428   171.228
8610.78     76.589  -174.717
8736.03     76.740  -159.882
8863.09     77.879  -147.349
8992.01     79.612  -140.861
9122.80     81.254  -141.427
9255.50     82.106  -147.645
9390.12     81.846  -153.947
9526.70     80.948  -155.309
9665.27     80.186  -151.745
9805.86     80.006  -146.492
9948.49     80.221  -144.064
10093.2     80.184  -144.490
10240.0     79.838  -145.616
10388.9     79.147  -146.383
10540.1     78.086  -145.719
10693.4     76.733  -141.026
10848.9     75.641  -131.027
11006.7     75.479  -118.603
11166.8     76.049  -110.396
11329.2     76.455  -107.696
11494.0     76.485  -106.097
11661.2     76.316  -102.048
11830.8     76.270   -99.468
12002.9     76.029  -100.538
12177.5     74.978  -100.892
12354.6     73.436   -89.374
12534.3     72.974   -73.308
12716.6     73.815   -60.558
12901.6     74.584   -54.833
13089.2     75.111   -51.206
13279.6     75.279   -48.005
13472.8     75.103   -43.244
13668.8     75.096   -35.351
13867.6     75.716   -28.728
14069.3     76.191   -27.351
14273.9     76.100   -27.930
14481.5     75.481   -25.448
14692.2     74.949   -20.158
14905.9     74.545   -13.149
15122.7     74.663    -4.675
15342.7     75.335     1.649
15565.8     76.060     2.585
15792.2     76.143    -0.008
16021.9     75.488    -2.606
16255.0     74.045    -3.108
16491.4     71.875     8.268
16731.3     71.753    33.164
16974.7     73.206    42.768
17221.6     74.080    43.301
17472.1     74.287    41.932
17726.2     73.873    40.785
17984.0     73.079    43.022
18245.6     72.641    46.639
18511.0     72.094    46.893
18780.2     70.806    48.612
19053.4     69.532    54.952
19330.5     68.889    60.249
19611.7     68.294    60.175
19897.0     66.892    56.007
20186.4     64.116    53.471
20480.0     60.497    56.134
20777.9     56.989    55.376
21080.1     54.761    27.450
21386.7     54.947   -26.998
21697.8     57.856   -47.276
22013.4     60.909   -53.752
22333.6     63.689   -51.138
22658.4     65.906   -48.775
22988.0     67.750   -44.021
23322.4     69.818   -38.078
23661.6     71.659   -35.662
24005.8     72.800   -34.580
24355.0     73.918   -28.763
24709.2     75.737   -23.443
25068.6     77.106   -24.878
25433.2     77.728   -26.458
25803.2     78.434   -25.151
26178.5     79.041   -27.767
26559.3     78.673   -29.260
26945.6     78.164   -25.923
27337.5     78.264   -22.975
27735.2     78.044   -22.521
28138.6     77.315   -20.039
28547.9     76.769   -15.330
28963.1     76.245   -12.749
29384.4     75.544    -9.400
29811.8     74.804    -8.571
30245.4     73.368    -9.050
30685.3     70.827    -5.173
31131.7     68.251     5.638
31584.5     65.613    19.407
32043.9     62.920    49.226
32510.0     62.984    83.884
32982.8     63.703    95.725
33462.6     63.439   104.204
33949.3     62.351   115.243
34443.1     61.026   132.291
34944.1     60.378   153.154
35452.4     60.205   170.615
35968.0     59.928  -171.165
36491.2     60.508  -151.506
37022.0     61.419  -140.358
37560.5     61.604  -134.590
38106.8     60.828  -130.673
38661.1     58.910  -122.683
39223.4     56.631  -103.576
39793.9     54.612   -80.452
