Freq[Hz]     dBSPL  Phase[Deg]
5.00000     42.463  -138.797
5.07273     42.808  -138.985
5.14651     43.152  -139.175
5.22137     43.511  -134.998
5.29732     43.885  -131.233
5.37437     44.303  -128.804
5.45254     44.834  -127.786
5.53185     45.464  -127.883
5.61231     46.091  -128.531
5.69394     46.636  -129.450
5.77676     47.012  -130.673
5.86079     47.273  -132.164
5.94604     47.455  -133.648
6.03252     47.592  -134.825
6.12027     47.692  -135.410
6.20929     47.754  -135.500
6.29961     47.819  -135.213
6.39124     47.967  -134.575
6.48420     48.218  -133.577
6.57851     48.551  -132.394
6.67420     48.946  -131.391
6.77128     49.398  -130.807
6.86977     49.904  -130.628
6.96969     50.433  -130.812
7.07107     50.938  -131.376
7.17392     51.404  -132.318
7.27827     51.835  -133.513
7.38413     52.225  -134.782
7.49154     52.570  -136.058
7.60050     52.870  -137.330
7.71105     53.151  -138.489
7.82321     53.420  -139.493
7.93701     53.683  -140.365
8.05245     53.949  -141.135
8.16958     54.229  -141.827
8.28841     54.519  -142.469
8.40896     54.815  -143.107
8.53128     55.114  -143.779
8.65537     55.411  -144.464
8.78126     55.702  -145.139
8.90899     55.981  -145.786
9.03857     56.256  -146.386
9.17004     56.531  -146.887
9.30342     56.809  -147.305
9.43874     57.101  -147.668
9.57603     57.413  -147.998
9.71532     57.740  -148.348
9.85663     58.079  -148.774
10.0000     58.427  -149.279
10.1455     58.770  -149.873
10.2930     59.101  -150.536
10.4427     59.422  -151.210
10.5946     59.731  -151.864
10.7487     60.035  -152.488
10.9051     60.343  -153.072
11.0637     60.652  -153.636
11.2246     60.965  -154.203
11.3879     61.277  -154.770
11.5535     61.583  -155.318
11.7216     61.885  -155.846
11.8921     62.193  -156.310
12.0650     62.504  -156.755
12.2405     62.834  -157.218
12.4186     63.173  -157.724
12.5992     63.515  -158.348
12.7825     63.849  -159.041
12.9684     64.159  -159.749
13.1570     64.467  -160.453
13.3484     64.768  -161.043
13.5426     65.085  -161.601
13.7395     65.427  -162.226
13.9394     65.787  -163.049
14.1421     66.127  -164.158
14.3478     66.441  -165.383
14.5565     66.684  -166.633
14.7683     66.878  -167.700
14.9831     67.055  -168.372
15.2010     67.275  -168.770
15.4221     67.548  -169.158
15.6464     67.848  -169.732
15.8740     68.137  -170.527
16.1049     68.387  -171.435
16.3392     68.604  -172.317
16.5768     68.808  -173.101
16.8179     69.007  -173.796
17.0626     69.190  -174.399
17.3107     69.348  -174.807
17.5625     69.500  -174.901
17.8180     69.689  -174.683
18.0771     69.943  -174.341
18.3401     70.253  -174.104
18.6068     70.589  -174.111
18.8775     70.930  -174.366
19.1521     71.262  -174.814
19.4306     71.577  -175.374
19.7133     71.871  -175.951
20.0000     72.155  -176.473
20.2909     72.446  -176.938
20.5860     72.750  -177.421
20.8855     73.056  -177.969
21.1893     73.358  -178.571
21.4975     73.655  -179.201
21.8102     73.953  -179.844
22.1274     74.248   179.476
22.4492     74.540   178.777
22.7758     74.825   178.063
23.1071     75.105   177.353
23.4432     75.383   176.657
23.7841     75.659   175.971
24.1301     75.933   175.290
24.4811     76.203   174.637
24.8372     76.471   174.023
25.1984     76.748   173.447
25.5649     77.031   172.864
25.9368     77.316   172.266
26.3141     77.602   171.670
26.6968     77.895   171.077
27.0851     78.198   170.445
27.4791     78.503   169.704
27.8788     78.798   168.877
28.2843     79.074   168.055
28.6957     79.345   167.285
29.1131     79.618   166.560
29.5365     79.897   165.836
29.9661     80.169   165.123
30.4020     80.449   164.445
30.8442     80.741   163.740
31.2929     81.034   162.985
31.7480     81.328   162.177
32.2098     81.622   161.316
32.6783     81.912   160.397
33.1536     82.193   159.434
33.6359     82.467   158.447
34.1251     82.731   157.445
34.6215     82.981   156.474
35.1250     83.223   155.596
35.6359     83.471   154.816
36.1543     83.730   154.085
36.6802     83.998   153.368
37.2137     84.279   152.649
37.7550     84.573   151.883
38.3041     84.872   151.058
38.8613     85.174   150.146
39.4265     85.475   149.198
40.0000     85.781   148.201
40.5818     86.088   147.106
41.1721     86.388   145.924
41.7710     86.679   144.683
42.3785     86.958   143.433
42.9949     87.235   142.202
43.6203     87.514   140.972
44.2548     87.798   139.704
44.8985     88.090   138.357
45.5515     88.384   136.835
46.2141     88.660   135.057
46.8863     88.873   133.085
47.5683     89.010   131.275
48.2602     89.108   130.047
48.9621     89.260   129.335
49.6743     89.466   128.699
50.3968     89.716   127.992
51.1299     89.993   127.152
51.8736     90.286   126.109
52.6281     90.577   124.886
53.3936     90.860   123.552
54.1702     91.136   122.152
54.9581     91.406   120.704
55.7575     91.672   119.208
56.5685     91.937   117.667
57.3914     92.200   116.076
58.2261     92.461   114.416
59.0730     92.714   112.676
59.9323     92.957   110.910
60.8040     93.199   109.104
61.6884     93.430   107.206
62.5857     93.648   105.307
63.4960     93.866   103.425
64.4196     94.092   101.486
65.3566     94.318    99.380
66.3073     94.525    97.043
67.2717     94.684    94.553
68.2502     94.784    92.128
69.2429     94.841    90.015
70.2501     94.899    88.378
71.2719     95.022    87.013
72.3086     95.208    85.420
73.3603     95.398    83.424
74.4274     95.557    81.195
75.5099     95.684    78.893
76.6083     95.788    76.574
77.7226     95.871    74.248
78.8531     95.932    71.928
80.0000     95.970    69.632
81.1636     95.981    67.336
82.3442     95.946    65.167
83.5419     95.888    63.351
84.7570     95.843    61.864
85.9899     95.830    60.561
87.2406     95.851    59.315
88.5096     95.901    58.022
89.7970     95.974    56.532
91.1031     96.044    54.826
92.4282     96.086    52.945
93.7726     96.097    51.065
95.1366     96.088    49.281
96.5204     96.072    47.558
97.9243     96.046    45.846
99.3486     96.007    44.184
100.794     95.957    42.585
102.260     95.892    41.064
103.747     95.817    39.712
105.256     95.751    38.544
106.787     95.703    37.450
108.340     95.671    36.319
109.916     95.638    35.100
111.515     95.591    33.862
113.137     95.525    32.667
114.783     95.443    31.593
116.452     95.371    30.868
118.146     95.328    30.208
119.865     95.326    29.471
121.608     95.335    28.638
123.377     95.347    27.586
125.171     95.345    26.415
126.992     95.299    25.169
128.839     95.221    24.285
130.713     95.147    23.758
132.615     95.122    23.266
134.543     95.148    22.661
136.500     95.184    21.829
138.486     95.209    20.798
140.500     95.214    19.733
142.544     95.216    18.723
144.617     95.226    17.555
146.721     95.187    16.069
148.855     95.078    14.850
151.020     94.956    14.160
153.217     94.882    13.839
155.445     94.868    13.442
157.706     94.869    12.854
160.000     94.892    12.213
162.327     94.913    11.085
164.688     94.860     9.894
167.084     94.776     9.042
169.514     94.693     8.392
171.980     94.614     7.938
174.481     94.566     7.692
177.019     94.557     7.373
179.594     94.553     6.883
182.206     94.540     6.431
184.856     94.536     6.060
187.545     94.553     5.754
190.273     94.615     5.360
193.041     94.697     4.534
195.849     94.728     3.254
198.697     94.673     2.101
201.587     94.597     1.529
204.520     94.567     1.280
207.494     94.596     1.032
210.512     94.662     0.550
213.574     94.738    -0.172
216.681     94.822    -1.120
219.833     94.907    -2.337
223.030     94.929    -4.098
226.274     94.876    -5.870
229.565     94.744    -7.380
232.905     94.582    -8.311
236.292     94.468    -8.799
239.729     94.405    -9.395
243.216     94.306   -10.371
246.754     94.130   -10.985
250.343     93.975   -10.935
253.984     93.869   -10.561
257.678     93.845    -9.925
261.426     93.883    -9.407
265.229     93.960    -8.894
269.087     94.125    -8.369
273.001     94.358    -8.883
276.972     94.505   -10.203
281.000     94.533   -11.393
285.088     94.527   -12.175
289.234     94.564   -12.526
293.441     94.659   -13.065
297.709     94.771   -14.026
302.040     94.852   -15.403
306.433     94.867   -16.958
310.890     94.836   -18.369
315.412     94.771   -19.683
320.000     94.684   -20.735
324.655     94.617   -21.476
329.377     94.580   -22.314
334.168     94.539   -23.226
339.028     94.498   -24.136
343.959     94.454   -25.063
348.962     94.410   -25.987
354.038     94.363   -26.928
359.188     94.312   -27.870
364.412     94.259   -28.791
369.713     94.205   -29.689
375.090     94.151   -30.564
380.546     94.097   -31.412
386.081     94.044   -32.242
391.697     93.991   -33.043
397.394     93.940   -33.830
403.175     93.892   -34.592
409.039     93.846   -35.337
414.989     93.802   -36.064
421.025     93.761   -36.777
427.149     93.724   -37.479
433.362     93.690   -38.172
439.665     93.661   -38.861
446.060     93.635   -39.548
452.548     93.614   -40.237
459.131     93.597   -40.933
465.809     93.584   -41.639
472.584     93.575   -42.358
479.458     93.569   -43.095
486.432     93.566   -43.849
493.507     93.567   -44.628
500.686     93.569   -45.431
507.968     93.574   -46.258
515.357     93.580   -47.114
522.853     93.587   -47.996
530.458     93.594   -48.902
538.174     93.601   -49.832
546.002     93.608   -50.786
553.943     93.614   -51.760
562.001     93.619   -52.749
570.175     93.623   -53.750
578.469     93.626   -54.763
586.883     93.628   -55.782
595.419     93.631   -56.803
604.080     93.633   -57.826
612.866     93.636   -58.847
621.780     93.642   -59.866
630.824     93.649   -60.883
640.000     93.661   -61.901
649.309     93.677   -62.923
658.753     93.698   -63.954
668.335     93.727   -65.002
678.056     93.762   -66.076
687.919     93.804   -67.186
697.925     93.853   -68.344
708.077     93.909   -69.560
718.376     93.972   -70.846
728.825     94.039   -72.214
739.426     94.109   -73.673
750.181     94.181   -75.232
761.093     94.252   -76.900
772.163     94.319   -78.681
783.394     94.381   -80.564
794.789     94.434   -82.544
806.349     94.476   -84.623
818.078     94.506   -86.790
829.977     94.521   -89.028
842.050     94.518   -91.325
854.298     94.497   -93.665
866.724     94.457   -96.026
879.330     94.398   -98.387
892.120     94.316  -100.720
905.097     94.219  -103.013
918.262     94.104  -105.231
931.618     93.974  -107.361
945.169     93.833  -109.384
958.917     93.685  -111.284
972.864     93.532  -113.053
987.015     93.381  -114.694
1001.37     93.237  -116.207
1015.94     93.103  -117.618
1030.71     92.982  -118.945
1045.71     92.877  -120.217
1060.92     92.785  -121.464
1076.35     92.709  -122.709
1092.00     92.645  -123.969
1107.89     92.588  -125.249
1124.00     92.537  -126.546
1140.35     92.491  -127.844
1156.94     92.447  -129.115
1173.77     92.407  -130.356
1190.84     92.381  -131.504
1208.16     92.362  -132.614
1225.73     92.371  -133.639
1243.56     92.404  -134.634
1261.65     92.475  -135.647
1280.00     92.581  -136.741
1298.62     92.735  -138.107
1317.51     92.893  -139.509
1336.67     93.081  -141.316
1356.11     93.274  -143.413
1375.84     93.458  -145.807
1395.85     93.624  -148.465
1416.15     93.755  -151.361
1436.75     93.866  -154.347
1457.65     93.935  -157.424
1478.85     93.974  -160.501
1500.36     93.986  -163.523
1522.19     93.976  -166.424
1544.33     93.959  -169.207
1566.79     93.943  -171.888
1589.58     93.935  -174.506
1612.70     93.938  -177.112
1636.16     93.950  -179.760
1659.95     93.967   177.505
1684.10     93.982   174.668
1708.60     93.986   171.733
1733.45     93.973   168.728
1758.66     93.941   165.698
1784.24     93.891   162.683
1810.19     93.825   159.707
1836.52     93.749   156.775
1863.24     93.663   153.871
1890.34     93.567   150.970
1917.83     93.457   148.057
1945.73     93.323   145.139
1974.03     93.158   142.258
2002.74     92.952   139.509
2031.87     92.710   136.971
2061.43     92.436   134.752
2091.41     92.141   132.929
2121.83     91.838   131.549
2152.69     91.537   130.758
2184.01     91.243   130.364
2215.77     90.997   130.930
2248.00     90.817   132.148
2280.70     90.816   134.304
2313.87     91.074   136.807
2347.53     91.621   138.742
2381.68     92.403   138.973
2416.32     93.261   137.464
2451.46     94.065   133.646
2487.12     94.736   128.425
2523.30     95.161   121.947
2560.00     95.349   115.017
2597.24     95.279   108.136
2635.01     94.975   101.824
2673.34     94.449    96.932
2712.23     93.830    93.652
2751.68     93.262    92.687
2791.70     92.934    93.273
2832.31     92.981    94.047
2873.50     93.264    93.661
2915.30     93.657    91.581
2957.70     94.005    87.764
3000.72     94.185    82.715
3044.37     94.121    77.285
3088.65     93.864    72.334
3133.58     93.524    68.153
3179.16     93.202    64.622
3225.40     92.934    60.954
3272.31     92.654    56.450
3319.91     92.204    50.885
3368.20     91.398    44.881
3417.19     90.091    40.050
3466.89     88.286    39.351
3517.32     86.440    46.895
3568.48     85.710    62.428
3620.39     86.715    75.586
3673.05     88.410    78.513
3726.47     89.744    73.665
3780.67     90.272    64.633
3835.67     90.121    54.417
3891.46     88.786    46.580
3948.06     86.719    42.523
4005.49     84.653    56.677
4063.75     84.971    79.484
4122.86     87.004    86.664
4182.82     88.527    83.295
4243.66     89.312    77.470
4305.39     89.685    71.608
4368.01     89.725    65.628
4431.55     89.322    59.896
4496.01     88.494    56.031
4561.40     87.426    56.453
4627.75     86.496    60.777
4695.06     86.093    68.598
4763.35     86.485    78.022
4832.64     87.825    84.222
4902.93     89.166    81.613
4974.24     89.753    75.173
5046.60     89.399    71.015
5120.00     89.011    72.243
5194.47     89.344    76.065
5270.03     90.136    76.140
5346.68     90.759    73.211
5424.45     91.135    69.361
5503.35     91.333    65.021
5583.40     91.257    60.273
5664.61     90.876    56.555
5747.01     90.351    54.139
5830.60     89.712    53.348
5915.41     89.014    54.824
6001.45     88.483    59.890
6088.74     88.673    66.342
6177.30     89.306    70.075
6267.15     89.964    71.451
6358.31     90.657    72.104
6450.80     91.484    71.314
6544.62     92.263    67.753
6639.82     92.652    61.895
6736.40     92.502    56.226
6834.38     92.022    53.284
6933.79     91.669    53.157
7034.64     91.573    52.934
7136.96     91.364    52.190
7240.77     91.097    53.464
7346.09     91.081    55.862
7452.94     91.277    58.360
7561.35     91.798    60.568
7671.33     92.509    60.635
7782.91     93.154    58.268
7896.12     93.575    54.490
8010.97     93.705    50.621
8127.49     93.747    47.302
8245.71     93.599    43.600
8365.65     93.259    41.801
8487.33     92.972    40.801
8610.78     92.623    41.097
8736.03     92.495    43.567
8863.09     92.784    46.180
8992.01     93.463    46.818
9122.80     94.049    43.667
9255.50     94.194    38.904
9390.12     93.908    35.014
9526.70     93.415    34.258
9665.27     93.229    36.316
9805.86     93.481    37.801
9948.49     93.866    37.012
10093.2     94.046    34.622
10240.0     94.052    32.726
10388.9     94.064    31.525
10540.1     94.129    29.892
10693.4     94.049    27.697
10848.9     93.765    26.585
11006.7     93.577    27.797
11166.8     93.713    29.129
11329.2     93.904    28.797
11494.0     94.035    28.708
11661.2     94.436    28.723
11830.8     94.873    26.709
12002.9     95.087    21.885
12177.5     94.830    17.591
12354.6     94.260    18.655
12534.3     94.221    21.951
12716.6     94.753    22.651
12901.6     95.193    20.368
13089.2     95.562    17.396
13279.6     95.700    13.037
13472.8     95.428     8.767
13668.8     94.945     7.668
13867.6     94.837     9.279
14069.3     95.143     8.986
14273.9     95.383     6.173
14481.5     95.472     3.468
14692.2     95.436    -0.541
14905.9     95.001    -3.423
15122.7     94.619    -3.270
15342.7     94.623    -2.239
15565.8     94.896    -3.597
15792.2     94.986    -7.123
16021.9     94.780   -10.954
16255.0     94.223   -13.685
16491.4     93.735   -11.243
16731.3     94.115    -9.689
16974.7     94.406   -13.789
17221.6     94.058   -18.717
17472.1     93.288   -20.575
17726.2     92.724   -17.176
17984.0     93.104   -13.545
18245.6     93.667   -16.768
18511.0     93.399   -22.379
18780.2     92.636   -23.677
19053.4     92.233   -20.514
19330.5     92.566   -18.110
19611.7     92.970   -20.949
19897.0     92.691   -25.051
20186.4     92.199   -24.529
20480.0     92.259   -22.410
20777.9     92.667   -23.706
21080.1     92.669   -27.857
21386.7     92.218   -29.913
21697.8     92.252   -28.910
22013.4     92.470   -30.457
22333.6     92.350   -34.905
22658.4     91.909   -36.918
22988.0     91.782   -36.193
23322.4     91.973   -38.603
23661.6     91.751   -42.792
24005.8     91.180   -44.774
24355.0     91.066   -43.794
24709.2     91.299   -46.150
25068.6     90.979   -50.356
25433.2     90.473   -51.475
25803.2     90.516   -50.989
26178.5     90.626   -55.180
26559.3     90.285   -58.811
26945.6     90.039   -59.932
27337.5     90.201   -63.158
27735.2     90.139   -68.965
28138.6     89.793   -74.567
28547.9     89.468   -80.084
28963.1     88.860   -87.582
29384.4     87.951   -92.351
29811.8     87.147   -97.985
30245.4     86.048  -103.979
30685.3     84.568  -106.984
31131.7     83.443  -108.425
31584.5     82.165  -111.566
32043.9     80.562  -111.592
32510.0     79.337  -108.947
32982.8     78.323  -108.227
33462.6     77.300  -106.955
33949.3     76.335  -106.659
34443.1     75.215  -105.844
34944.1     74.202  -104.430
35452.4     73.087  -104.336
35968.0     71.729  -101.640
36491.2     70.722   -97.426
37022.0     69.769   -95.368
37560.5     68.763   -92.488
38106.8     67.737   -90.793
38661.1     66.450   -87.222
39223.4     65.268   -80.896
39793.9     64.295   -72.781
