Freq[Hz]     dBSPL  Phase[Deg]
5.00000     42.463  -138.797
5.07273     42.808  -138.985
5.14651     43.152  -139.175
5.22137     43.511  -134.998
5.29732     43.885  -131.233
5.37437     44.303  -128.804
5.45254     44.834  -127.786
5.53185     45.464  -127.883
5.61231     46.091  -128.531
5.69394     46.636  -129.450
5.77676     47.012  -130.673
5.86079     47.273  -132.164
5.94604     47.455  -133.648
6.03252     47.592  -134.825
6.12027     47.692  -135.410
6.20929     47.754  -135.500
6.29961     47.819  -135.213
6.39124     47.967  -134.575
6.48420     48.218  -133.577
6.57851     48.551  -132.394
6.67420     48.946  -131.391
6.77128     49.398  -130.807
6.86977     49.904  -130.628
6.96969     50.433  -130.812
7.07107     50.938  -131.376
7.17392     51.404  -132.318
7.27827     51.835  -133.513
7.38413     52.225  -134.782
7.49154     52.570  -136.058
7.60050     52.870  -137.330
7.71105     53.151  -138.489
7.82321     53.420  -139.493
7.93701     53.683  -140.365
8.05245     53.949  -141.135
8.16958     54.229  -141.827
8.28841     54.519  -142.469
8.40896     54.815  -143.107
8.53128     55.114  -143.779
8.65537     55.411  -144.464
8.78126     55.702  -145.139
8.90899     55.981  -145.786
9.03857     56.256  -146.386
9.17004     56.531  -146.887
9.30342     56.809  -147.305
9.43874     57.101  -147.668
9.57603     57.413  -147.998
9.71532     57.740  -148.348
9.85663     58.079  -148.774
10.0000     58.427  -149.279
10.1455     58.770  -149.873
10.2930     59.101  -150.536
10.4427     59.422  -151.210
10.5946     59.731  -151.864
10.7487     60.035  -152.488
10.9051     60.343  -153.072
11.0637     60.652  -153.636
11.2246     60.965  -154.203
11.3879     61.277  -154.770
11.5535     61.583  -155.318
11.7216     61.885  -155.846
11.8921     62.193  -156.310
12.0650     62.504  -156.755
12.2405     62.834  -157.218
12.4186     63.173  -157.724
12.5992     63.515  -158.348
12.7825     63.849  -159.041
12.9684     64.159  -159.749
13.1570     64.467  -160.453
13.3484     64.768  -161.043
13.5426     65.085  -161.601
13.7395     65.427  -162.226
13.9394     65.787  -163.049
14.1421     66.127  -164.158
14.3478     66.441  -165.383
14.5565     66.684  -166.633
14.7683     66.878  -167.700
14.9831     67.055  -168.372
15.2010     67.275  -168.770
15.4221     67.548  -169.158
15.6464     67.848  -169.732
15.8740     68.137  -170.527
16.1049     68.387  -171.435
16.3392     68.604  -172.317
16.5768     68.808  -173.101
16.8179     69.007  -173.796
17.0626     69.190  -174.399
17.3107     69.348  -174.807
17.5625     69.500  -174.901
17.8180     69.689  -174.683
18.0771     69.943  -174.341
18.3401     70.253  -174.104
18.6068     70.589  -174.111
18.8775     70.930  -174.366
19.1521     71.262  -174.814
19.4306     71.577  -175.374
19.7133     71.871  -175.951
20.0000     72.155  -176.473
20.2909     72.446  -176.938
20.5860     72.750  -177.421
20.8855     73.056  -177.969
21.1893     73.358  -178.571
21.4975     73.655  -179.201
21.8102     73.953  -179.844
22.1274     74.248   179.476
22.4492     74.540   178.777
22.7758     74.825   178.063
23.1071     75.105   177.353
23.4432     75.383   176.657
23.7841     75.659   175.971
24.1301     75.933   175.290
24.4811     76.203   174.637
24.8372     76.471   174.023
25.1984     76.748   173.447
25.5649     77.031   172.864
25.9368     77.316   172.266
26.3141     77.602   171.670
26.6968     77.895   171.077
27.0851     78.198   170.445
27.4791     78.503   169.704
27.8788     78.798   168.877
28.2843     79.074   168.055
28.6957     79.345   167.285
29.1131     79.618   166.560
29.5365     79.897   165.836
29.9661     80.169   165.123
30.4020     80.449   164.445
30.8442     80.741   163.740
31.2929     81.034   162.985
31.7480     81.328   162.177
32.2098     81.622   161.316
32.6783     81.912   160.397
33.1536     82.193   159.434
33.6359     82.467   158.447
34.1251     82.731   157.445
34.6215     82.981   156.474
35.1250     83.223   155.596
35.6359     83.471   154.816
36.1543     83.730   154.085
36.6802     83.998   153.368
37.2137     84.279   152.649
37.7550     84.573   151.883
38.3041     84.872   151.058
38.8613     85.174   150.146
39.4265     85.475   149.198
40.0000     85.781   148.201
40.5818     86.088   147.100
41.1721     86.387   145.899
41.7710     86.675   144.629
42.3785     86.952   143.338
42.9949     87.225   142.056
43.6203     87.500   140.765
44.2548     87.779   139.427
44.8985     88.065   138.000
45.5515     88.351   136.388
46.2141     88.619   134.514
46.8863     88.823   132.437
47.5683     88.949   130.514
48.2602     89.035   129.165
48.9621     89.175   128.326
49.6743     89.367   127.554
50.3968     89.602   126.705
51.1299     89.863   125.718
51.8736     90.139   124.520
52.6281     90.412   123.136
53.3936     90.675   121.634
54.1702     90.929   120.061
54.9581     91.177   118.434
55.7575     91.421   116.754
56.5685     91.660   115.022
57.3914     91.898   113.235
58.2261     92.132   111.373
59.0730     92.357   109.426
59.9323     92.570   107.447
60.8040     92.782   105.423
61.6884     92.980   103.302
62.5857     93.165   101.174
63.4960     93.349    99.058
64.4196     93.538    96.880
65.3566     93.727    94.529
66.3073     93.895    91.940
67.2717     94.015    89.195
68.2502     94.074    86.508
69.2429     94.088    84.127
70.2501     94.103    82.217
71.2719     94.182    80.573
72.3086     94.321    78.695
73.3603     94.464    76.407
74.4274     94.575    73.880
75.5099     94.652    71.274
76.6083     94.705    68.645
77.7226     94.735    66.002
78.8531     94.743    63.357
80.0000     94.727    60.730
81.1636     94.682    58.096
82.3442     94.590    55.580
83.5419     94.473    53.411
84.7570     94.369    51.562
85.9899     94.296    49.889
87.2406     94.255    48.263
88.5096     94.242    46.583
89.7970     94.251    44.698
91.1031     94.255    42.586
92.4282     94.231    40.290
93.7726     94.174    37.985
95.1366     94.097    35.766
96.5204     94.011    33.596
97.9243     93.914    31.428
99.3486     93.803    29.297
100.794     93.680    27.218
102.260     93.541    25.206
103.747     93.391    23.349
105.256     93.249    21.663
106.787     93.123    20.038
108.340     93.014    18.363
109.916     92.901    16.586
111.515     92.774    14.775
113.137     92.627    12.991
114.783     92.462    11.313
116.452     92.307     9.967
118.146     92.180     8.671
119.865     92.094     7.279
121.608     92.017     5.775
123.377     91.943     4.035
125.171     91.853     2.158
126.992     91.718     0.184
128.839     91.551    -1.446
130.713     91.387    -2.738
132.615     91.272    -4.017
134.543     91.206    -5.429
136.500     91.150    -7.090
138.486     91.083    -8.971
140.500     90.994   -10.908
142.544     90.901   -12.812
144.617     90.817   -14.896
146.721     90.682   -17.323
148.855     90.478   -19.505
151.020     90.259   -21.182
153.217     90.088   -22.513
155.445     89.977   -23.945
157.706     89.880   -25.590
160.000     89.805   -27.312
162.327     89.728   -29.545
164.688     89.576   -31.864
167.084     89.393   -33.866
169.514     89.211   -35.690
171.980     89.032   -37.340
174.481     88.885   -38.804
177.019     88.777   -40.362
179.594     88.673   -42.111
182.206     88.561   -43.839
184.856     88.457   -45.507
187.545     88.375   -47.126
190.273     88.337   -48.849
193.041     88.321   -51.020
195.849     88.254   -53.656
198.697     88.100   -56.180
201.587     87.927   -58.131
204.520     87.800   -59.769
207.494     87.732   -61.413
210.512     87.703   -63.296
213.574     87.683   -65.422
216.681     87.672   -67.780
219.833     87.663   -70.402
223.030     87.593   -73.572
226.274     87.449   -76.748
229.565     87.227   -79.656
232.905     86.975   -81.979
236.292     86.773   -83.852
239.729     86.623   -85.823
243.216     86.437   -88.163
246.754     86.177   -90.129
250.343     85.939   -91.417
253.984     85.751   -92.368
257.678     85.645   -93.066
261.426     85.600   -93.874
265.229     85.598   -94.665
269.087     85.686   -95.411
273.001     85.844   -97.161
276.972     85.921   -99.679
281.000     85.880  -102.030
285.088     85.810  -103.935
289.234     85.783  -105.377
293.441     85.818  -106.983
297.709     85.869  -108.990
302.040     85.890  -111.401
306.433     85.843  -114.002
310.890     85.746  -116.474
315.412     85.611  -118.863
320.000     85.451  -121.001
324.655     85.308  -122.840
329.377     85.189  -124.783
334.168     85.063  -126.807
339.028     84.933  -128.832
343.959     84.795  -130.875
348.962     84.651  -132.912
354.038     84.501  -134.960
359.188     84.340  -136.998
364.412     84.173  -138.999
369.713     83.999  -140.956
375.090     83.821  -142.862
380.546     83.637  -144.701
386.081     83.451  -146.489
391.697     83.261  -148.186
397.394     83.070  -149.830
403.175     82.880  -151.375
409.039     82.691  -152.833
414.989     82.508  -154.197
421.025     82.330  -155.461
427.149     82.161  -156.636
433.362     82.004  -157.711
439.665     81.863  -158.695
446.060     81.737  -159.607
452.548     81.633  -160.451
459.131     81.553  -161.245
465.809     81.496  -162.019
472.584     81.467  -162.794
479.458     81.465  -163.597
486.432     81.488  -164.452
493.507     81.540  -165.399
500.686     81.618  -166.463
507.968     81.718  -167.656
515.357     81.839  -169.019
522.853     81.976  -170.560
530.458     82.128  -172.279
538.174     82.289  -174.194
546.002     82.458  -176.321
553.943     82.630  -178.648
562.001     82.805   178.829
570.175     82.977   176.140
578.469     83.144   173.227
586.883     83.305   170.141
595.419     83.459   166.891
604.080     83.603   163.492
612.866     83.737   159.934
621.780     83.858   156.235
630.824     83.965   152.388
640.000     84.059   148.426
649.309     84.137   144.338
658.753     84.200   140.145
668.335     84.247   135.855
678.056     84.278   131.476
687.919     84.294   127.016
697.925     84.292   122.482
708.077     84.274   117.884
718.376     84.239   113.228
728.825     84.188   108.522
739.426     84.120   103.774
750.181     84.036    98.988
761.093     83.935    94.171
772.163     83.819    89.329
783.394     83.689    84.470
794.789     83.544    79.596
806.349     83.386    74.711
818.078     83.215    69.815
829.977     83.032    64.911
842.050     82.838    59.998
854.298     82.632    55.073
866.724     82.415    50.132
879.330     82.188    45.172
892.120     81.950    40.182
905.097     81.703    35.162
918.262     81.443    30.096
931.618     81.172    24.980
945.169     80.888    19.804
958.917     80.589    14.559
972.864     80.272     9.239
987.015     79.934     3.839
1001.37     79.573    -1.648
1015.94     79.185    -7.213
1030.71     78.766   -12.860
1045.71     78.309   -18.575
1060.92     77.815   -24.346
1076.35     77.271   -30.151
1092.00     76.675   -35.962
1107.89     76.020   -41.733
1124.00     75.294   -47.399
1140.35     74.503   -52.914
1156.94     73.611   -58.051
1173.77     72.659   -62.886
1190.84     71.580   -66.630
1208.16     70.460   -69.815
1225.73     69.277   -70.815
1243.56     68.113   -69.950
1261.65     67.152   -65.585
1280.00     66.552   -58.611
1298.62     66.766   -51.698
1317.51     67.044   -45.203
1336.67     67.884   -43.711
1356.11     68.823   -45.572
1375.84     69.757   -50.284
1395.85     70.622   -57.196
1416.15     71.375   -66.097
1436.75     72.067   -75.910
1457.65     72.651   -87.204
1478.85     73.166   -99.449
1500.36     73.617  -112.644
1522.19     74.015  -126.811
1544.33     74.387  -141.720
1566.79     74.746  -157.247
1589.58     75.103  -173.265
1612.70     75.462   170.368
1636.16     75.825   153.806
1659.95     76.183   137.189
1684.10     76.525   120.672
1708.60     76.833   104.359
1733.45     77.091    88.340
1758.66     77.280    72.694
1784.24     77.383    57.485
1810.19     77.388    42.775
1836.52     77.285    28.633
1863.24     77.066    15.148
1890.34     76.726     2.417
1917.83     76.270    -9.417
1945.73     75.702   -20.180
1974.03     75.041   -29.677
2002.74     74.308   -37.520
2031.87     73.549   -43.670
2061.43     72.820   -47.887
2091.41     72.184   -50.183
2121.83     71.703   -50.835
2152.69     71.468   -50.333
2184.01     71.390   -49.552
2215.77     71.587   -49.373
2248.00     71.904   -50.060
2280.70     72.333   -52.455
2313.87     72.779   -56.472
2347.53     73.172   -61.846
2381.68     73.455   -68.113
2416.32     73.637   -74.536
2451.46     73.706   -80.218
2487.12     73.748   -84.557
2523.30     73.881   -86.498
2560.00     74.202   -87.069
2597.24     74.757   -87.962
2635.01     75.489   -91.025
2673.34     76.269   -97.807
2712.23     76.965  -107.188
2751.68     77.445  -118.926
2791.70     77.671  -131.776
2832.31     77.589  -144.856
2873.50     77.263  -157.137
2915.30     76.734  -167.594
2957.70     76.090  -175.085
3000.72     75.473  -178.613
3044.37     75.079  -179.140
3088.65     74.923   179.295
3133.58     74.887   175.477
3179.16     74.898   170.380
3225.40     74.941   165.799
3272.31     75.047   161.785
3319.91     75.201   156.331
3368.20     75.283   147.010
3417.19     75.093   133.317
3466.89     74.445   116.710
3517.32     73.251   100.056
3568.48     71.719    91.206
3620.39     70.597   111.104
3673.05     70.651   142.846
3726.47     71.536   142.617
3780.67     72.373   130.073
3835.67     72.975   118.256
3891.46     73.288   109.989
3948.06     73.490   101.790
4005.49     73.303    85.098
4063.75     72.528    61.974
4122.86     71.041    36.218
4182.82     69.579    28.353
4243.66     69.918   119.962
4305.39     71.412   105.136
4368.01     72.568    73.906
4431.55     72.731    43.279
4496.01     72.059    15.682
4561.40     70.463    -8.466
4627.75     68.010   -35.056
4695.06     64.563   -81.530
4763.35     62.112  -158.142
4832.64     63.932   118.866
4902.93     66.154    64.045
4974.24     67.050    17.792
5046.60     67.534    34.157
5120.00     68.702    64.593
5194.47     70.279    46.003
5270.03     71.107     4.263
5346.68     70.742   -37.550
5424.45     69.006   -80.341
5503.35     65.705  -130.709
5583.40     63.352   162.031
5664.61     65.670    93.865
5747.01     68.300    34.710
5830.60     69.706   -14.133
5915.41     69.973   -44.745
6001.45     69.968   -24.653
6088.74     70.412   -19.394
6177.30     70.706   -58.048
6267.15     70.673   -86.820
6358.31     70.873   -58.856
6450.80     71.171   -61.832
6544.62     70.920  -116.785
6639.82     70.079   -61.602
6736.40     69.814    23.263
6834.38     70.778   -82.376
6933.79     71.863  -119.823
7034.64     72.294  -143.188
7136.96     71.992   179.140
7240.77     71.055   161.287
7346.09     69.548   156.435
7452.94     67.117    90.372
7561.35     64.648   -24.290
7671.33     63.964  -145.594
7782.91     64.688    90.637
7896.12     64.991   -21.354
8010.97     65.107   140.720
8127.49     64.717    91.963
8245.71     63.513   106.910
8365.65     61.727    12.171
8487.33     61.932  -132.360
8610.78     64.123   137.967
8736.03     65.770   119.084
8863.09     66.233    71.200
8992.01     65.640    -1.848
9122.80     64.823   111.941
9255.50     64.047     3.039
9390.12     63.060  -129.176
9526.70     62.272    16.578
9665.27     61.581    -9.382
9805.86     61.270    46.429
9948.49     60.878  -100.957
10093.2     60.053   -61.164
10240.0     59.151   -83.108
10388.9     57.759   -33.071
10540.1     55.946   -84.452
10693.4     54.060  -169.912
10848.9     52.180  -176.175
11006.7     50.416   -73.207
11166.8     48.733   122.539
11329.2     46.785    36.879
11494.0     45.487  -169.629
11661.2     45.164   -86.969
11830.8     45.341  -137.131
12002.9     46.724   -83.072
12177.5     47.111   -38.426
12354.6     47.325    37.000
12534.3     48.724    -3.337
12716.6     51.017    47.033
12901.6     52.624   -61.795
13089.2     53.745   -88.560
13279.6     54.508    44.199
13472.8     54.794  -173.147
13668.8     54.802   -93.515
13867.6     54.950     2.644
14069.3     55.684    72.552
14273.9     56.753    59.102
14481.5     57.108   141.803
14692.2     56.297   161.562
14905.9     55.580  -175.170
15122.7     55.200  -142.537
15342.7     55.011  -100.474
15565.8     54.961   -56.711
15792.2     55.236   -24.220
16021.9     55.181    21.384
16255.0     54.278    86.279
16491.4     54.087   176.459
16731.3     54.453   -52.594
16974.7     54.043   -58.508
17221.6     52.468   -32.324
17472.1     50.260    31.385
17726.2     48.712    83.487
17984.0     48.487   117.304
18245.6     48.101   137.912
18511.0     47.678  -172.770
18780.2     47.490  -129.281
19053.4     47.075   -76.961
19330.5     46.613   -18.776
19611.7     45.439    60.677
19897.0     43.114    65.376
20186.4     40.758    44.920
20480.0     39.456     3.290
20777.9     39.117   -54.774
21080.1     40.192   -51.157
21386.7     42.902   -28.421
21697.8     45.810   -98.038
22013.4     48.207  -149.804
22333.6     49.750   178.667
22658.4     50.917   156.539
22988.0     52.099   104.069
23322.4     52.758    52.535
23661.6     52.562    -4.342
24005.8     51.952   -24.753
24355.0     51.086  -160.214
24709.2     50.231   152.185
25068.6     49.561   -37.139
25433.2     49.284  -114.816
25803.2     49.475   178.515
26178.5     49.876   110.361
26559.3     49.708   -61.689
26945.6     48.875  -107.081
27337.5     47.132     3.392
27735.2     45.425   -46.987
28138.6     44.404    41.978
28547.9     43.301   -52.835
28963.1     42.630  -109.772
29384.4     41.987   136.273
29811.8     40.033    44.521
30245.4     38.849   -81.315
30685.3     40.575    29.497
31131.7     41.658  -142.269
31584.5     41.317   -40.659
32043.9     41.869    50.041
32510.0     42.714  -152.587
32982.8     41.984   -12.903
33462.6     40.723  -144.030
33949.3     38.925   -70.293
34443.1     35.868    38.805
34944.1     32.037   152.891
35452.4     30.086  -146.274
35968.0     31.406   -55.652
36491.2     32.997    10.618
37022.0     32.937    95.489
37560.5     31.928  -178.438
38106.8     31.341  -110.657
38661.1     32.131   -63.541
39223.4     33.871   -64.586
39793.9     34.941   -49.855
