Freq[Hz]     dBSPL  Phase[Deg]
5.00000     42.463  -138.797
5.07273     42.808  -138.985
5.14651     43.152  -139.175
5.22137     43.511  -134.998
5.29732     43.885  -131.233
5.37437     44.303  -128.804
5.45254     44.834  -127.786
5.53185     45.464  -127.883
5.61231     46.091  -128.531
5.69394     46.636  -129.450
5.77676     47.012  -130.673
5.86079     47.273  -132.164
5.94604     47.455  -133.648
6.03252     47.592  -134.825
6.12027     47.692  -135.410
6.20929     47.754  -135.500
6.29961     47.819  -135.213
6.39124     47.967  -134.575
6.48420     48.218  -133.577
6.57851     48.551  -132.394
6.67420     48.946  -131.391
6.77128     49.398  -130.807
6.86977     49.904  -130.628
6.96969     50.433  -130.812
7.07107     50.938  -131.376
7.17392     51.404  -132.318
7.27827     51.835  -133.513
7.38413     52.225  -134.782
7.49154     52.570  -136.058
7.60050     52.870  -137.330
7.71105     53.151  -138.489
7.82321     53.420  -139.493
7.93701     53.683  -140.365
8.05245     53.949  -141.135
8.16958     54.229  -141.827
8.28841     54.519  -142.469
8.40896     54.815  -143.107
8.53128     55.114  -143.779
8.65537     55.411  -144.464
8.78126     55.702  -145.139
8.90899     55.981  -145.786
9.03857     56.256  -146.386
9.17004     56.531  -146.887
9.30342     56.809  -147.305
9.43874     57.101  -147.668
9.57603     57.413  -147.998
9.71532     57.740  -148.348
9.85663     58.079  -148.774
10.0000     58.427  -149.279
10.1455     58.770  -149.873
10.2930     59.101  -150.536
10.4427     59.422  -151.210
10.5946     59.731  -151.864
10.7487     60.035  -152.488
10.9051     60.343  -153.072
11.0637     60.652  -153.636
11.2246     60.965  -154.203
11.3879     61.277  -154.770
11.5535     61.583  -155.318
11.7216     61.885  -155.846
11.8921     62.193  -156.310
12.0650     62.504  -156.755
12.2405     62.834  -157.218
12.4186     63.173  -157.724
12.5992     63.515  -158.348
12.7825     63.849  -159.041
12.9684     64.159  -159.749
13.1570     64.467  -160.453
13.3484     64.768  -161.043
13.5426     65.085  -161.601
13.7395     65.427  -162.226
13.9394     65.787  -163.049
14.1421     66.127  -164.158
14.3478     66.441  -165.383
14.5565     66.684  -166.633
14.7683     66.878  -167.700
14.9831     67.055  -168.372
15.2010     67.275  -168.770
15.4221     67.548  -169.158
15.6464     67.848  -169.732
15.8740     68.137  -170.527
16.1049     68.387  -171.435
16.3392     68.604  -172.317
16.5768     68.808  -173.101
16.8179     69.007  -173.796
17.0626     69.190  -174.399
17.3107     69.348  -174.807
17.5625     69.500  -174.901
17.8180     69.689  -174.683
18.0771     69.943  -174.341
18.3401     70.253  -174.104
18.6068     70.589  -174.111
18.8775     70.930  -174.366
19.1521     71.262  -174.814
19.4306     71.577  -175.374
19.7133     71.871  -175.951
20.0000     72.155  -176.473
20.2909     72.446  -176.938
20.5860     72.750  -177.421
20.8855     73.056  -177.969
21.1893     73.358  -178.571
21.4975     73.655  -179.201
21.8102     73.953  -179.844
22.1274     74.248   179.476
22.4492     74.540   178.777
22.7758     74.825   178.063
23.1071     75.105   177.353
23.4432     75.383   176.657
23.7841     75.659   175.971
24.1301     75.933   175.290
24.4811     76.203   174.637
24.8372     76.471   174.023
25.1984     76.748   173.447
25.5649     77.031   172.864
25.9368     77.316   172.266
26.3141     77.602   171.670
26.6968     77.895   171.077
27.0851     78.198   170.445
27.4791     78.503   169.704
27.8788     78.798   168.877
28.2843     79.074   168.055
28.6957     79.345   167.285
29.1131     79.618   166.560
29.5365     79.897   165.836
29.9661     80.169   165.123
30.4020     80.449   164.445
30.8442     80.741   163.740
31.2929     81.034   162.985
31.7480     81.328   162.177
32.2098     81.622   161.316
32.6783     81.912   160.397
33.1536     82.193   159.434
33.6359     82.467   158.447
34.1251     82.731   157.445
34.6215     82.981   156.474
35.1250     83.223   155.596
35.6359     83.471   154.816
36.1543     83.730   154.085
36.6802     83.998   153.368
37.2137     84.279   152.649
37.7550     84.573   151.883
38.3041     84.872   151.058
38.8613     85.174   150.146
39.4265     85.475   149.198
40.0000     85.781   148.201
40.5818     86.088   147.101
41.1721     86.386   145.905
41.7710     86.675   144.642
42.3785     86.951   143.360
42.9949     87.224   142.090
43.6203     87.498   140.813
44.2548     87.776   139.492
44.8985     88.061   138.084
45.5515     88.347   136.493
46.2141     88.615   134.640
46.8863     88.818   132.588
47.5683     88.944   130.691
48.2602     89.030   129.371
48.9621     89.170   128.561
49.6743     89.361   127.821
50.3968     89.597   127.005
51.1299     89.858   126.052
51.8736     90.134   124.891
52.6281     90.408   123.545
53.3936     90.672   122.082
54.1702     90.927   120.550
54.9581     91.176   118.966
55.7575     91.421   117.329
56.5685     91.663   115.642
57.3914     91.902   113.902
58.2261     92.138   112.089
59.0730     92.365   110.191
59.9323     92.581   108.263
60.8040     92.796   106.292
61.6884     92.998   104.225
62.5857     93.186   102.153
63.4960     93.373   100.094
64.4196     93.567    97.974
65.3566     93.760    95.684
66.3073     93.933    93.158
67.2717     94.058    90.476
68.2502     94.122    87.855
69.2429     94.142    85.542
70.2501     94.163    83.701
71.2719     94.248    82.128
72.3086     94.394    80.323
73.3603     94.544    78.110
74.4274     94.662    75.660
75.5099     94.746    73.134
76.6083     94.807    70.587
77.7226     94.846    68.028
78.8531     94.862    65.470
80.0000     94.855    62.932
81.1636     94.819    60.388
82.3442     94.737    57.967
83.5419     94.630    55.895
84.7570     94.537    54.146
85.9899     94.473    52.577
87.2406     94.443    51.058
88.5096     94.442    49.487
89.7970     94.462    47.714
91.1031     94.479    45.719
92.4282     94.467    43.543
93.7726     94.423    41.363
95.1366     94.358    39.273
96.5204     94.285    37.237
97.9243     94.203    35.205
99.3486     94.106    33.216
100.794     93.997    31.285
102.260     93.872    29.423
103.747     93.737    27.723
105.256     93.610    26.200
106.787     93.501    24.743
108.340     93.407    23.242
109.916     93.311    21.645
111.515     93.200    20.021
113.137     93.071    18.430
114.783     92.923    16.953
116.452     92.785    15.815
118.146     92.676    14.733
119.865     92.607    13.564
121.608     92.549    12.291
123.377     92.493    10.790
125.171     92.422     9.158
126.992     92.307     7.441
128.839     92.159     6.077
130.713     92.014     5.058
132.615     91.919     4.064
134.543     91.873     2.946
136.500     91.838     1.589
138.486     91.791     0.022
140.500     91.723    -1.590
142.544     91.651    -3.158
144.617     91.587    -4.896
146.721     91.474    -6.966
148.855     91.291    -8.781
151.020     91.093   -10.078
153.217     90.944   -11.019
155.445     90.854   -12.048
157.706     90.779   -13.281
160.000     90.726   -14.580
162.327     90.670   -16.379
164.688     90.540   -18.253
167.084     90.379   -19.802
169.514     90.218   -21.160
171.980     90.061   -22.336
174.481     89.936   -23.318
177.019     89.849   -24.384
179.594     89.766   -25.634
182.206     89.676   -26.858
184.856     89.592   -28.013
187.545     89.531   -29.115
190.273     89.514   -30.317
193.041     89.517   -31.963
195.849     89.470   -34.073
198.697     89.336   -36.069
201.587     89.182   -37.493
204.520     89.073   -38.604
207.494     89.023   -39.724
210.512     89.012   -41.087
213.574     89.009   -42.697
216.681     89.014   -44.545
219.833     89.022   -46.665
223.030     88.966   -49.340
226.274     88.836   -52.030
229.565     88.627   -54.464
232.905     88.388   -56.324
236.292     88.197   -57.745
239.729     88.058   -59.279
243.216     87.883   -61.195
246.754     87.631   -62.751
250.343     87.401   -63.644
253.984     87.219   -64.216
257.678     87.120   -64.544
261.426     87.080   -64.995
265.229     87.081   -65.447
269.087     87.171   -65.875
273.001     87.329   -67.330
276.972     87.405   -69.573
281.000     87.361   -71.672
285.088     87.285   -73.344
289.234     87.251   -74.574
293.441     87.277   -75.983
297.709     87.318   -77.810
302.040     87.327   -80.053
306.433     87.268   -82.495
310.890     87.157   -84.817
315.412     87.008   -87.067
320.000     86.832   -89.077
324.655     86.671   -90.802
329.377     86.535   -92.647
334.168     86.388   -94.590
339.028     86.234   -96.553
343.959     86.072   -98.556
348.962     85.902  -100.577
354.038     85.721  -102.636
359.188     85.527  -104.713
364.412     85.322  -106.786
369.713     85.106  -108.850
375.090     84.879  -110.901
380.546     84.639  -112.933
386.081     84.391  -114.948
391.697     84.128  -116.930
397.394     83.857  -118.892
403.175     83.572  -120.811
409.039     83.274  -122.689
414.989     82.966  -124.517
421.025     82.644  -126.285
427.149     82.312  -127.995
433.362     81.967  -129.628
439.665     81.610  -131.175
446.060     81.244  -132.638
452.548     80.867  -133.997
459.131     80.481  -135.233
465.809     80.088  -136.360
472.584     79.689  -137.345
479.458     79.286  -138.192
486.432     78.881  -138.905
493.507     78.477  -139.449
500.686     78.076  -139.835
507.968     77.682  -140.073
515.357     77.298  -140.150
522.853     76.927  -140.083
530.458     76.572  -139.897
538.174     76.234  -139.600
546.002     75.918  -139.214
553.943     75.623  -138.769
562.001     75.347  -138.292
570.175     75.090  -137.805
578.469     74.854  -137.333
586.883     74.633  -136.892
595.419     74.424  -136.489
604.080     74.222  -136.125
612.866     74.028  -135.803
621.780     73.837  -135.509
630.824     73.647  -135.226
640.000     73.456  -134.932
649.309     73.264  -134.593
658.753     73.072  -134.178
668.335     72.882  -133.657
678.056     72.698  -132.999
687.919     72.526  -132.179
697.925     72.373  -131.183
708.077     72.247  -130.008
718.376     72.156  -128.673
728.825     72.109  -127.214
739.426     72.114  -125.691
750.181     72.175  -124.181
761.093     72.296  -122.781
772.163     72.473  -121.592
783.394     72.695  -120.672
794.789     72.956  -120.066
806.349     73.247  -119.834
818.078     73.559  -120.000
829.977     73.882  -120.544
842.050     74.208  -121.460
854.298     74.529  -122.745
866.724     74.839  -124.363
879.330     75.136  -126.264
892.120     75.410  -128.471
905.097     75.667  -130.881
918.262     75.899  -133.524
931.618     76.107  -136.352
945.169     76.289  -139.345
958.917     76.445  -142.485
972.864     76.573  -145.753
987.015     76.675  -149.127
1001.37     76.747  -152.596
1015.94     76.791  -156.132
1030.71     76.805  -159.721
1045.71     76.789  -163.333
1060.92     76.744  -166.944
1076.35     76.668  -170.520
1092.00     76.562  -174.020
1107.89     76.430  -177.398
1124.00     76.274   179.418
1140.35     76.101   176.442
1156.94     75.920   173.845
1173.77     75.742   171.497
1190.84     75.598   169.730
1208.16     75.476   168.172
1225.73     75.441   167.087
1243.56     75.474   166.183
1261.65     75.622   165.292
1280.00     75.867   164.159
1298.62     76.245   162.155
1317.51     76.632   160.039
1336.67     77.100   156.674
1356.11     77.584   152.445
1375.84     78.062   147.326
1395.85     78.514   141.364
1416.15     78.910   134.501
1436.75     79.268   127.196
1457.65     79.544   119.145
1478.85     79.751   110.616
1500.36     79.875   101.630
1522.19     79.896    92.214
1544.33     79.820    82.504
1566.79     79.642    72.586
1589.58     79.357    62.553
1612.70     78.960    52.519
1636.16     78.446    42.636
1659.95     77.816    33.094
1684.10     77.075    24.171
1708.60     76.243    16.222
1733.45     75.360     9.690
1758.66     74.497     5.041
1784.24     73.763     2.490
1810.19     73.272     1.569
1836.52     73.090     0.943
1863.24     73.192    -0.983
1890.34     73.476    -5.159
1917.83     73.824   -11.673
1945.73     74.137   -20.121
1974.03     74.359   -29.985
2002.74     74.443   -40.836
2031.87     74.393   -52.185
2061.43     74.203   -63.728
2091.41     73.877   -75.185
2121.83     73.434   -86.319
2152.69     72.875   -96.849
2184.01     72.259  -106.956
2215.77     71.557  -116.241
2248.00     70.814  -125.062
2280.70     70.010  -133.168
2313.87     69.157  -140.410
2347.53     68.281  -146.170
2381.68     67.485  -148.977
2416.32     66.896  -148.614
2451.46     66.808  -145.218
2487.12     67.154  -143.018
2523.30     67.889  -146.570
2560.00     68.671  -155.408
2597.24     69.308  -168.726
2635.01     69.681   174.793
2673.34     69.642   155.554
2712.23     69.226   134.476
2751.68     68.275   111.105
2791.70     66.779    85.333
2832.31     64.615    55.784
2873.50     62.090    21.856
2915.30     59.979   -15.814
2957.70     59.340   -53.998
3000.72     60.774   -85.804
3044.37     62.756  -106.759
3088.65     64.608  -121.825
3133.58     66.249  -136.423
3179.16     67.539  -153.077
3225.40     68.406  -171.436
3272.31     68.780   169.871
3319.91     68.712   153.621
3368.20     68.452   144.956
3417.19     68.452   148.177
3466.89     69.022   154.862
3517.32     69.931   149.384
3568.48     70.677   133.760
3620.39     70.973   115.202
3673.05     70.836    99.203
3726.47     70.519    91.157
3780.67     70.336    88.965
3835.67     70.242    83.668
3891.46     69.836    65.112
3948.06     68.989    40.358
4005.49     67.410    20.215
4063.75     66.606    85.203
4122.86     68.189   121.884
4182.82     70.301    88.441
4243.66     71.467    55.096
4305.39     71.621    23.502
4368.01     70.845    -3.625
4431.55     69.294   -21.777
4496.01     67.198   -36.167
4561.40     65.037   -74.029
4627.75     64.739  -168.207
4695.06     67.797   103.235
4763.35     70.775    58.430
4832.64     72.477    19.715
4902.93     72.887   -13.889
4974.24     72.610   -38.759
5046.60     72.195   -38.937
5120.00     72.277   -25.603
5194.47     73.061   -20.050
5270.03     74.132   -29.580
5346.68     75.022   -48.543
5424.45     75.495   -72.481
5503.35     75.444   -95.994
5583.40     74.917  -115.623
5664.61     74.005  -133.606
5747.01     72.911  -146.770
5830.60     71.840  -151.363
5915.41     71.083  -146.678
6001.45     70.948  -139.849
6088.74     71.511  -122.013
6177.30     71.994  -150.363
6267.15     71.852   164.753
6358.31     71.478   173.751
6450.80     71.510  -169.119
6544.62     71.736   164.539
6639.82     71.629   126.052
6736.40     71.299   126.673
6834.38     71.094   131.136
6933.79     70.948   103.923
7034.64     70.825   113.836
7136.96     70.479    90.949
7240.77     69.321    14.645
7346.09     67.925    52.239
7452.94     67.663   106.056
7561.35     68.243    68.269
7671.33     68.763    63.144
7782.91     68.787    23.726
7896.12     67.912   -21.832
8010.97     66.427   116.839
8127.49     65.232   -26.955
8245.71     63.938  -128.633
8365.65     62.966   -11.367
8487.33     62.105   -70.602
8610.78     60.583  -142.163
8736.03     59.706    26.171
8863.09     60.071   -23.210
8992.01     60.126   167.767
9122.80     59.138   -48.288
9255.50     56.841   163.836
9390.12     54.437     0.688
9526.70     54.065   -83.557
9665.27     54.095    12.394
9805.86     54.151  -173.572
9948.49     54.149    -1.395
10093.2     53.571    46.495
10240.0     52.257     6.211
10388.9     51.830    54.901
10540.1     52.981    -3.882
10693.4     54.115    49.698
10848.9     53.853    -1.645
11006.7     52.563    42.149
11166.8     51.323   -45.095
11329.2     50.891    28.415
11494.0     50.740   149.529
11661.2     50.973  -137.633
11830.8     50.872   145.084
12002.9     50.099  -124.752
12177.5     51.040   165.604
12354.6     51.551    37.053
12534.3     50.601   -62.554
12716.6     49.193    -5.576
12901.6     48.501  -123.735
13089.2     48.166  -172.874
13279.6     48.454   167.810
13472.8     49.194   -55.652
13668.8     50.229    66.506
13867.6     50.772  -176.181
14069.3     50.765  -106.565
14273.9     50.736  -107.340
14481.5     49.694    13.751
14692.2     49.061   -94.240
14905.9     48.919  -153.933
15122.7     48.320  -145.581
15342.7     46.716   -94.193
15565.8     43.852   -33.287
15792.2     39.461    14.659
16021.9     34.505    68.056
16255.0     34.246    96.042
16491.4     37.375   166.248
16731.3     39.645  -126.459
16974.7     42.118  -129.274
17221.6     43.563   -25.337
17472.1     44.953    53.466
17726.2     45.600    40.472
17984.0     45.267    13.511
18245.6     44.776   -40.995
18511.0     44.016     2.436
18780.2     43.825  -135.826
19053.4     44.033  -154.830
19330.5     43.597   167.644
19611.7     42.549   158.475
19897.0     41.057    81.322
20186.4     40.342    39.896
20480.0     40.902    37.356
20777.9     42.137     5.287
21080.1     43.228   -42.451
21386.7     44.002   -57.744
21697.8     44.456   -94.709
22013.4     44.984  -113.995
22333.6     46.240  -122.375
22658.4     47.766  -161.058
22988.0     48.643   109.124
23322.4     49.033    33.280
23661.6     49.773   119.883
24005.8     50.833    48.088
24355.0     51.697    10.704
24709.2     52.259   -50.598
25068.6     52.318    -5.245
25433.2     52.003    38.473
25803.2     51.469   -53.352
26178.5     51.147  -137.104
26559.3     50.930    53.589
26945.6     50.080   104.592
27337.5     48.428   -43.623
27735.2     46.860  -126.543
28138.6     45.509   -45.936
28547.9     44.262  -107.525
28963.1     44.989  -157.114
29384.4     46.456    -5.165
29811.8     47.173   -60.352
30245.4     47.147   -61.159
30685.3     46.489   -12.737
31131.7     45.258   109.306
31584.5     44.240   -96.493
32043.9     43.767    18.672
32510.0     43.156  -174.061
32982.8     42.081   -44.485
33462.6     40.715    64.315
33949.3     39.267   -91.139
34443.1     38.744  -128.968
34944.1     38.367    -1.699
35452.4     37.606   -58.700
35968.0     36.992   103.141
36491.2     36.655    43.563
37022.0     36.242  -103.036
37560.5     35.443    59.640
38106.8     34.506  -139.150
38661.1     33.502  -122.780
39223.4     32.235   150.270
39793.9     31.161    78.737
