Freq[Hz]     dBSPL  Phase[Deg]
5.00000     42.463  -138.797
5.07273     42.808  -138.985
5.14651     43.152  -139.175
5.22137     43.511  -134.998
5.29732     43.885  -131.233
5.37437     44.303  -128.804
5.45254     44.834  -127.786
5.53185     45.464  -127.883
5.61231     46.091  -128.531
5.69394     46.636  -129.450
5.77676     47.012  -130.673
5.86079     47.273  -132.164
5.94604     47.455  -133.648
6.03252     47.592  -134.825
6.12027     47.692  -135.410
6.20929     47.754  -135.500
6.29961     47.819  -135.213
6.39124     47.967  -134.575
6.48420     48.218  -133.577
6.57851     48.551  -132.394
6.67420     48.946  -131.391
6.77128     49.398  -130.807
6.86977     49.904  -130.628
6.96969     50.433  -130.812
7.07107     50.938  -131.376
7.17392     51.404  -132.318
7.27827     51.835  -133.513
7.38413     52.225  -134.782
7.49154     52.570  -136.058
7.60050     52.870  -137.330
7.71105     53.151  -138.489
7.82321     53.420  -139.493
7.93701     53.683  -140.365
8.05245     53.949  -141.135
8.16958     54.229  -141.827
8.28841     54.519  -142.469
8.40896     54.815  -143.107
8.53128     55.114  -143.779
8.65537     55.411  -144.464
8.78126     55.702  -145.139
8.90899     55.981  -145.786
9.03857     56.256  -146.386
9.17004     56.531  -146.887
9.30342     56.809  -147.305
9.43874     57.101  -147.668
9.57603     57.413  -147.998
9.71532     57.740  -148.348
9.85663     58.079  -148.774
10.0000     58.427  -149.279
10.1455     58.770  -149.873
10.2930     59.101  -150.536
10.4427     59.422  -151.210
10.5946     59.731  -151.864
10.7487     60.035  -152.488
10.9051     60.343  -153.072
11.0637     60.652  -153.636
11.2246     60.965  -154.203
11.3879     61.277  -154.770
11.5535     61.583  -155.318
11.7216     61.885  -155.846
11.8921     62.193  -156.310
12.0650     62.504  -156.755
12.2405     62.834  -157.218
12.4186     63.173  -157.724
12.5992     63.515  -158.348
12.7825     63.849  -159.041
12.9684     64.159  -159.749
13.1570     64.467  -160.453
13.3484     64.768  -161.043
13.5426     65.085  -161.601
13.7395     65.427  -162.226
13.9394     65.787  -163.049
14.1421     66.127  -164.158
14.3478     66.441  -165.383
14.5565     66.684  -166.633
14.7683     66.878  -167.700
14.9831     67.055  -168.372
15.2010     67.275  -168.770
15.4221     67.548  -169.158
15.6464     67.848  -169.732
15.8740     68.137  -170.527
16.1049     68.387  -171.435
16.3392     68.604  -172.317
16.5768     68.808  -173.101
16.8179     69.007  -173.796
17.0626     69.190  -174.399
17.3107     69.348  -174.807
17.5625     69.500  -174.901
17.8180     69.689  -174.683
18.0771     69.943  -174.341
18.3401     70.253  -174.104
18.6068     70.589  -174.111
18.8775     70.930  -174.366
19.1521     71.262  -174.814
19.4306     71.577  -175.374
19.7133     71.871  -175.951
20.0000     72.155  -176.473
20.2909     72.446  -176.938
20.5860     72.750  -177.421
20.8855     73.056  -177.969
21.1893     73.358  -178.571
21.4975     73.655  -179.201
21.8102     73.953  -179.844
22.1274     74.248   179.476
22.4492     74.540   178.777
22.7758     74.825   178.063
23.1071     75.105   177.353
23.4432     75.383   176.657
23.7841     75.659   175.971
24.1301     75.933   175.290
24.4811     76.203   174.637
24.8372     76.471   174.023
25.1984     76.748   173.447
25.5649     77.031   172.864
25.9368     77.316   172.266
26.3141     77.602   171.670
26.6968     77.895   171.077
27.0851     78.198   170.445
27.4791     78.503   169.704
27.8788     78.798   168.877
28.2843     79.074   168.055
28.6957     79.345   167.285
29.1131     79.618   166.560
29.5365     79.897   165.836
29.9661     80.169   165.123
30.4020     80.449   164.445
30.8442     80.741   163.740
31.2929     81.034   162.985
31.7480     81.328   162.177
32.2098     81.622   161.316
32.6783     81.912   160.397
33.1536     82.193   159.434
33.6359     82.467   158.447
34.1251     82.731   157.445
34.6215     82.981   156.474
35.1250     83.223   155.596
35.6359     83.471   154.816
36.1543     83.730   154.085
36.6802     83.998   153.368
37.2137     84.279   152.649
37.7550     84.573   151.883
38.3041     84.872   151.058
38.8613     85.174   150.146
39.4265     85.475   149.198
40.0000     85.781   148.201
40.5818     86.088   147.103
41.1721     86.386   145.912
41.7710     86.675   144.658
42.3785     86.952   143.389
42.9949     87.224   142.135
43.6203     87.499   140.876
44.2548     87.778   139.576
44.8985     88.064   138.192
45.5515     88.350   136.628
46.2141     88.619   134.805
46.8863     88.824   132.785
47.5683     88.952   130.922
48.2602     89.039   129.637
48.9621     89.181   128.866
49.6743     89.375   128.167
50.3968     89.613   127.393
51.1299     89.877   126.485
51.8736     90.156   125.369
52.6281     90.433   124.071
53.3936     90.701   122.659
54.1702     90.961   121.178
54.9581     91.214   119.647
55.7575     91.464   118.064
56.5685     91.710   116.434
57.3914     91.955   114.752
58.2261     92.196   112.998
59.0730     92.430   111.161
59.9323     92.652   109.296
60.8040     92.874   107.389
61.6884     93.083   105.387
62.5857     93.279   103.382
63.4960     93.474   101.391
64.4196     93.675    99.342
65.3566     93.878    97.123
66.3073     94.060    94.670
67.2717     94.193    92.062
68.2502     94.268    89.516
69.2429     94.298    87.281
70.2501     94.330    85.518
71.2719     94.425    84.026
72.3086     94.583    82.303
73.3603     94.744    80.174
74.4274     94.875    77.810
75.5099     94.972    75.370
76.6083     95.046    72.911
77.7226     95.099    70.443
78.8531     95.129    67.977
80.0000     95.136    65.533
81.1636     95.115    63.086
82.3442     95.048    60.763
83.5419     94.958    58.791
84.7570     94.880    57.145
85.9899     94.834    55.679
87.2406     94.821    54.267
88.5096     94.837    52.806
89.7970     94.876    51.144
91.1031     94.911    49.263
92.4282     94.918    47.203
93.7726     94.893    45.142
95.1366     94.849    43.173
96.5204     94.797    41.261
97.9243     94.736    39.357
99.3486     94.660    37.499
100.794     94.574    35.701
102.260     94.472    33.976
103.747     94.360    32.416
105.256     94.257    31.037
106.787     94.172    29.727
108.340     94.104    28.378
109.916     94.033    26.934
111.515     93.948    25.469
113.137     93.846    24.041
114.783     93.725    22.730
116.452     93.615    21.763
118.146     93.535    20.858
119.865     93.495    19.869
121.608     93.467    18.780
123.377     93.442    17.469
125.171     93.402    16.032
126.992     93.319    14.515
128.839     93.204    13.356
130.713     93.092    12.549
132.615     93.031    11.771
134.543     93.020    10.874
136.500     93.020     9.746
138.486     93.009     8.413
140.500     92.978     7.041
142.544     92.944     5.719
144.617     92.920     4.233
146.721     92.846     2.423
148.855     92.704     0.874
151.020     92.547    -0.151
153.217     92.440    -0.812
155.445     92.393    -1.555
157.706     92.363    -2.495
160.000     92.354    -3.493
162.327     92.345    -4.985
164.688     92.261    -6.544
167.084     92.147    -7.771
169.514     92.036    -8.801
171.980     91.929    -9.641
174.481     91.854   -10.278
177.019     91.820   -10.995
179.594     91.790   -11.887
182.206     91.753   -12.746
184.856     91.726   -13.530
187.545     91.721   -14.255
190.273     91.761   -15.073
193.041     91.824   -16.328
195.849     91.837   -18.043
198.697     91.765   -19.636
201.587     91.673   -20.652
204.520     91.628   -21.350
207.494     91.644   -22.052
210.512     91.699   -22.993
213.574     91.764   -24.178
216.681     91.839   -25.596
219.833     91.918   -27.284
223.030     91.935   -29.524
226.274     91.878   -31.778
229.565     91.744   -33.774
232.905     91.582   -35.196
236.292     91.470   -36.179
239.729     91.411   -37.275
243.216     91.317   -38.756
246.754     91.149   -39.879
250.343     91.003   -40.343
253.984     90.909   -40.488
257.678     90.897   -40.384
261.426     90.950   -40.406
265.229     91.044   -40.436
269.087     91.228   -40.457
273.001     91.482   -41.520
276.972     91.653   -43.390
281.000     91.707   -45.132
285.088     91.729   -46.469
289.234     91.796   -47.383
293.441     91.924   -48.493
297.709     92.069   -50.035
302.040     92.185   -52.005
306.433     92.236   -54.176
310.890     92.241   -56.229
315.412     92.212   -58.211
320.000     92.162   -59.956
324.655     92.133   -61.421
329.377     92.133   -63.012
334.168     92.128   -64.707
339.028     92.123   -66.432
343.959     92.116   -68.206
348.962     92.107   -70.011
354.038     92.094   -71.868
359.188     92.076   -73.762
364.412     92.054   -75.671
369.713     92.028   -77.595
375.090     92.000   -79.533
380.546     91.969   -81.487
386.081     91.935   -83.453
391.697     91.898   -85.437
397.394     91.859   -87.432
403.175     91.816   -89.443
409.039     91.770   -91.469
414.989     91.721   -93.511
421.025     91.668   -95.568
427.149     91.613   -97.639
433.362     91.554   -99.727
439.665     91.492  -101.831
446.060     91.426  -103.950
452.548     91.356  -106.086
459.131     91.282  -108.239
465.809     91.205  -110.406
472.584     91.123  -112.591
479.458     91.036  -114.791
486.432     90.944  -117.004
493.507     90.847  -119.234
500.686     90.744  -121.477
507.968     90.635  -123.732
515.357     90.520  -125.998
522.853     90.399  -128.272
530.458     90.270  -130.551
538.174     90.133  -132.833
546.002     89.988  -135.113
553.943     89.834  -137.386
562.001     89.671  -139.646
570.175     89.500  -141.892
578.469     89.318  -144.106
586.883     89.126  -146.285
595.419     88.925  -148.419
604.080     88.715  -150.503
612.866     88.495  -152.518
621.780     88.267  -154.453
630.824     88.030  -156.283
640.000     87.788  -158.012
649.309     87.542  -159.603
658.753     87.295  -161.055
668.335     87.052  -162.356
678.056     86.816  -163.496
687.919     86.591  -164.474
697.925     86.385  -165.294
708.077     86.203  -165.969
718.376     86.050  -166.524
728.825     85.932  -166.995
739.426     85.853  -167.425
750.181     85.816  -167.871
761.093     85.822  -168.395
772.163     85.868  -169.064
783.394     85.948  -169.915
794.789     86.053  -170.981
806.349     86.180  -172.308
818.078     86.322  -173.915
829.977     86.468  -175.797
842.050     86.613  -177.953
854.298     86.748   179.614
866.724     86.868   176.929
879.330     86.970   174.030
892.120     87.044   170.905
905.097     87.094   167.635
918.262     87.111   164.210
931.618     87.096   160.676
945.169     87.047   157.061
958.917     86.962   153.393
972.864     86.842   149.704
987.015     86.687   146.021
1001.37     86.495   142.375
1015.94     86.271   138.788
1030.71     86.015   135.279
1045.71     85.728   131.879
1060.92     85.414   128.585
1076.35     85.071   125.421
1092.00     84.701   122.391
1107.89     84.306   119.505
1124.00     83.879   116.792
1140.35     83.424   114.245
1156.94     82.925   111.999
1173.77     82.399   109.967
1190.84     81.819   108.589
1208.16     81.222   107.518
1225.73     80.607   107.506
1243.56     80.012   108.282
1261.65     79.520   110.337
1280.00     79.195   113.282
1298.62     79.279   116.573
1317.51     79.402   119.765
1336.67     79.913   121.445
1356.11     80.556   121.462
1375.84     81.246   119.649
1395.85     81.905   116.125
1416.15     82.455   110.858
1436.75     82.929   104.766
1457.65     83.242    97.321
1478.85     83.425    89.012
1500.36     83.460    79.838
1522.19     83.323    69.726
1544.33     83.039    58.781
1566.79     82.621    46.957
1589.58     82.087    34.155
1612.70     81.470    20.242
1636.16     80.826     5.105
1659.95     80.233   -11.268
1684.10     79.789   -28.624
1708.60     79.581   -46.396
1733.45     79.656   -63.766
1758.66     79.992   -79.975
1784.24     80.519   -94.611
1810.19     81.153  -107.655
1836.52     81.817  -119.308
1863.24     82.452  -129.822
1890.34     83.016  -139.406
1917.83     83.481  -148.156
1945.73     83.832  -156.063
1974.03     84.071  -163.040
2002.74     84.215  -168.839
2031.87     84.319  -173.478
2061.43     84.449  -176.928
2091.41     84.674  -179.485
2121.83     85.031   178.302
2152.69     85.507   175.711
2184.01     86.021   172.673
2215.77     86.498   168.692
2248.00     86.906   164.299
2280.70     87.176   159.586
2313.87     87.310   154.974
2347.53     87.320   150.789
2381.68     87.226   147.378
2416.32     87.079   144.742
2451.46     86.917   143.325
2487.12     86.796   142.899
2523.30     86.822   143.690
2560.00     87.057   145.049
2597.24     87.549   146.273
2635.01     88.258   146.570
2673.34     89.091   145.023
2712.23     89.907   141.961
2751.68     90.599   137.347
2791.70     91.125   131.893
2832.31     91.458   126.027
2873.50     91.644   120.140
2915.30     91.692   114.403
2957.70     91.618   108.952
3000.72     91.430   103.902
3044.37     91.125    99.569
3088.65     90.757    96.230
3133.58     90.406    93.841
3179.16     90.155    92.151
3225.40     90.013    90.397
3272.31     89.917    88.040
3319.91     89.755    84.996
3368.20     89.435    81.733
3417.19     88.931    78.992
3466.89     88.279    77.473
3517.32     87.558    77.750
3568.48     86.904    80.325
3620.39     86.555    85.117
3673.05     86.726    90.329
3726.47     87.307    93.125
3780.67     87.831    92.370
3835.67     88.089    90.255
3891.46     87.967    89.715
3948.06     87.795    91.592
4005.49     88.275    95.358
4063.75     89.194    96.127
4122.86     89.983    92.802
4182.82     90.333    87.986
4243.66     90.352    84.171
4305.39     90.344    81.704
4368.01     90.408    79.488
4431.55     90.436    76.847
4496.01     90.388    74.404
4561.40     90.334    72.142
4627.75     90.244    69.342
4695.06     89.864    66.460
4763.35     89.231    66.055
4832.64     88.808    69.909
4902.93     89.158    73.692
4974.24     89.694    74.108
5046.60     90.000    72.949
5120.00     90.305    72.492
5194.47     90.811    71.534
5270.03     91.300    68.351
5346.68     91.579    64.184
5424.45     91.717    59.897
5503.35     91.748    55.063
5583.40     91.503    49.915
5664.61     91.032    46.243
5747.01     90.542    43.433
5830.60     89.997    41.208
5915.41     89.324    39.879
6001.45     88.637    40.859
6088.74     88.148    42.642
6177.30     87.702    45.926
6267.15     87.698    51.649
6358.31     88.329    55.081
6450.80     89.006    54.408
6544.62     89.354    51.451
6639.82     89.409    48.874
6736.40     89.417    47.257
6834.38     89.479    45.646
6933.79     89.529    43.466
7034.64     89.471    40.768
7136.96     89.250    38.509
7240.77     89.058    37.240
7346.09     88.893    35.231
7452.94     88.476    33.776
7561.35     88.164    34.890
7671.33     88.196    36.046
7782.91     88.442    35.224
7896.12     88.652    31.744
8010.97     88.243    27.177
8127.49     87.677    26.784
8245.71     87.427    25.544
8365.65     86.935    24.819
8487.33     86.582    25.003
8610.78     86.273    25.317
8736.03     86.067    24.985
8863.09     85.633    25.193
8992.01     85.486    28.983
9122.80     85.815    28.760
9255.50     85.880    25.406
9390.12     85.462    21.458
9526.70     84.678    21.029
9665.27     84.161    23.526
9805.86     84.095    26.468
9948.49     84.400    26.842
10093.2     84.479    23.678
10240.0     84.185    20.150
10388.9     83.678    18.394
10540.1     83.320    17.436
10693.4     82.955    15.391
10848.9     82.371    12.725
11006.7     81.543    12.127
11166.8     80.854    13.243
11329.2     80.455    14.223
11494.0     80.045    13.198
11661.2     79.446    12.699
11830.8     78.788    12.127
12002.9     78.114    11.847
12177.5     77.187    12.284
12354.6     76.128    14.394
12534.3     75.238    18.792
12716.6     74.774    22.432
12901.6     74.334    22.442
13089.2     73.757    20.077
13279.6     72.551    17.293
13472.8     70.653    16.551
13668.8     68.334    20.651
13867.6     66.152    35.122
14069.3     65.364    60.656
14273.9     66.162    88.451
14481.5     67.316    97.955
14692.2     67.970   104.558
14905.9     68.975   112.715
15122.7     69.811   115.858
15342.7     70.212   116.860
15565.8     70.471   119.414
15792.2     70.754   118.229
16021.9     69.853   117.290
16255.0     68.788   126.571
16491.4     68.592   140.542
16731.3     69.417   155.605
16974.7     71.194   163.301
17221.6     72.353   161.876
17472.1     72.952   162.943
17726.2     73.883   165.193
17984.0     74.952   165.159
18245.6     76.058   161.855
18511.0     76.454   154.045
18780.2     75.918   149.329
19053.4     75.476   150.897
19330.5     75.705   152.791
19611.7     76.147   150.247
19897.0     76.013   144.136
20186.4     75.141   141.363
20480.0     74.440   142.995
20777.9     74.176   143.587
21080.1     73.742   140.980
21386.7     72.782   138.999
21697.8     71.720   142.198
22013.4     70.915   145.805
22333.6     70.158   147.799
22658.4     69.290   151.622
22988.0     68.602   155.397
23322.4     67.831   157.627
23661.6     66.874   158.311
24005.8     65.442   156.159
24355.0     63.236   150.136
24709.2     60.437   131.935
25068.6     61.517   -51.386
25433.2     66.069   -54.008
25803.2     70.314   -58.036
26178.5     73.270   -69.418
26559.3     74.549   -81.534
26945.6     75.215   -87.598
27337.5     76.290   -90.865
27735.2     77.354   -96.693
28138.6     78.105  -104.031
28547.9     78.752  -111.910
28963.1     78.953  -123.115
29384.4     78.370  -132.514
29811.8     77.696  -140.177
30245.4     76.777  -148.064
30685.3     75.321  -154.376
31131.7     73.789  -155.778
31584.5     72.377  -158.430
32043.9     70.574  -160.276
32510.0     68.625  -157.674
32982.8     66.852  -154.707
33462.6     64.921  -149.728
33949.3     63.079  -142.109
34443.1     61.290  -132.971
34944.1     59.722  -121.607
35452.4     58.131  -112.538
35968.0     56.118   -97.167
36491.2     54.938   -67.551
37022.0     55.516   -41.750
37560.5     56.824   -25.792
38106.8     58.343   -16.240
38661.1     59.681   -11.708
39223.4     60.707   -12.691
39793.9     61.362   -16.368
