Freq[Hz]     dBSPL  Phase[Deg]
5.00000     42.463  -138.797
5.07273     42.808  -138.985
5.14651     43.152  -139.175
5.22137     43.511  -134.998
5.29732     43.885  -131.233
5.37437     44.303  -128.804
5.45254     44.834  -127.786
5.53185     45.464  -127.883
5.61231     46.091  -128.531
5.69394     46.636  -129.450
5.77676     47.012  -130.673
5.86079     47.273  -132.164
5.94604     47.455  -133.648
6.03252     47.592  -134.825
6.12027     47.692  -135.410
6.20929     47.754  -135.500
6.29961     47.819  -135.213
6.39124     47.967  -134.575
6.48420     48.218  -133.577
6.57851     48.551  -132.394
6.67420     48.946  -131.391
6.77128     49.398  -130.807
6.86977     49.904  -130.628
6.96969     50.433  -130.812
7.07107     50.938  -131.376
7.17392     51.404  -132.318
7.27827     51.835  -133.513
7.38413     52.225  -134.782
7.49154     52.570  -136.058
7.60050     52.870  -137.330
7.71105     53.151  -138.489
7.82321     53.420  -139.493
7.93701     53.683  -140.365
8.05245     53.949  -141.135
8.16958     54.229  -141.827
8.28841     54.519  -142.469
8.40896     54.815  -143.107
8.53128     55.114  -143.779
8.65537     55.411  -144.464
8.78126     55.702  -145.139
8.90899     55.981  -145.786
9.03857     56.256  -146.386
9.17004     56.531  -146.887
9.30342     56.809  -147.305
9.43874     57.101  -147.668
9.57603     57.413  -147.998
9.71532     57.740  -148.348
9.85663     58.079  -148.774
10.0000     58.427  -149.279
10.1455     58.770  -149.873
10.2930     59.101  -150.536
10.4427     59.422  -151.210
10.5946     59.731  -151.864
10.7487     60.035  -152.488
10.9051     60.343  -153.072
11.0637     60.652  -153.636
11.2246     60.965  -154.203
11.3879     61.277  -154.770
11.5535     61.583  -155.318
11.7216     61.885  -155.846
11.8921     62.193  -156.310
12.0650     62.504  -156.755
12.2405     62.834  -157.218
12.4186     63.173  -157.724
12.5992     63.515  -158.348
12.7825     63.849  -159.041
12.9684     64.159  -159.749
13.1570     64.467  -160.453
13.3484     64.768  -161.043
13.5426     65.085  -161.601
13.7395     65.427  -162.226
13.9394     65.787  -163.049
14.1421     66.127  -164.158
14.3478     66.441  -165.383
14.5565     66.684  -166.633
14.7683     66.878  -167.700
14.9831     67.055  -168.372
15.2010     67.275  -168.770
15.4221     67.548  -169.158
15.6464     67.848  -169.732
15.8740     68.137  -170.527
16.1049     68.387  -171.435
16.3392     68.604  -172.317
16.5768     68.808  -173.101
16.8179     69.007  -173.796
17.0626     69.190  -174.399
17.3107     69.348  -174.807
17.5625     69.500  -174.901
17.8180     69.689  -174.683
18.0771     69.943  -174.341
18.3401     70.253  -174.104
18.6068     70.589  -174.111
18.8775     70.930  -174.366
19.1521     71.262  -174.814
19.4306     71.577  -175.374
19.7133     71.871  -175.951
20.0000     72.155  -176.473
20.2909     72.446  -176.938
20.5860     72.750  -177.421
20.8855     73.056  -177.969
21.1893     73.358  -178.571
21.4975     73.655  -179.201
21.8102     73.953  -179.844
22.1274     74.248   179.476
22.4492     74.540   178.777
22.7758     74.825   178.063
23.1071     75.105   177.353
23.4432     75.383   176.657
23.7841     75.659   175.971
24.1301     75.933   175.290
24.4811     76.203   174.637
24.8372     76.471   174.023
25.1984     76.748   173.447
25.5649     77.031   172.864
25.9368     77.316   172.266
26.3141     77.602   171.670
26.6968     77.895   171.077
27.0851     78.198   170.445
27.4791     78.503   169.704
27.8788     78.798   168.877
28.2843     79.074   168.055
28.6957     79.345   167.285
29.1131     79.618   166.560
29.5365     79.897   165.836
29.9661     80.169   165.123
30.4020     80.449   164.445
30.8442     80.741   163.740
31.2929     81.034   162.985
31.7480     81.328   162.177
32.2098     81.622   161.316
32.6783     81.912   160.397
33.1536     82.193   159.434
33.6359     82.467   158.447
34.1251     82.731   157.445
34.6215     82.981   156.474
35.1250     83.223   155.596
35.6359     83.471   154.816
36.1543     83.730   154.085
36.6802     83.998   153.368
37.2137     84.279   152.649
37.7550     84.573   151.883
38.3041     84.872   151.058
38.8613     85.174   150.146
39.4265     85.475   149.198
40.0000     85.781   148.201
40.5818     86.088   147.106
41.1721     86.388   145.922
41.7710     86.678   144.680
42.3785     86.958   143.428
42.9949     87.234   142.195
43.6203     87.512   140.961
44.2548     87.796   139.690
44.8985     88.088   138.339
45.5515     88.381   136.812
46.2141     88.656   135.029
46.8863     88.869   133.053
47.5683     89.005   131.237
48.2602     89.101   130.002
48.9621     89.253   129.284
49.6743     89.457   128.641
50.3968     89.707   127.927
51.1299     89.983   127.080
51.8736     90.274   126.029
52.6281     90.564   124.799
53.3936     90.846   123.456
54.1702     91.120   122.047
54.9581     91.389   120.592
55.7575     91.654   119.087
56.5685     91.917   117.537
57.3914     92.179   115.936
58.2261     92.438   114.267
59.0730     92.690   112.517
59.9323     92.931   110.741
60.8040     93.172   108.925
61.6884     93.401   107.017
62.5857     93.617   105.108
63.4960     93.834   103.216
64.4196     94.057   101.266
65.3566     94.282    99.150
66.3073     94.486    96.802
67.2717     94.644    94.302
68.2502     94.742    91.865
69.2429     94.797    89.741
70.2501     94.853    88.093
71.2719     94.974    86.717
72.3086     95.158    85.113
73.3603     95.346    83.106
74.4274     95.504    80.865
75.5099     95.628    78.552
76.6083     95.730    76.221
77.7226     95.811    73.884
78.8531     95.870    71.552
80.0000     95.907    69.245
81.1636     95.915    66.937
82.3442     95.879    64.756
83.5419     95.818    62.928
84.7570     95.772    61.430
85.9899     95.757    60.115
87.2406     95.776    58.857
88.5096     95.823    57.552
89.7970     95.895    56.051
91.1031     95.963    54.333
92.4282     96.004    52.440
93.7726     96.012    50.549
95.1366     96.001    48.753
96.5204     95.984    47.019
97.9243     95.956    45.295
99.3486     95.916    43.621
100.794     95.864    42.011
102.260     95.798    40.479
103.747     95.721    39.115
105.256     95.654    37.936
106.787     95.605    36.830
108.340     95.573    35.689
109.916     95.538    34.458
111.515     95.490    33.210
113.137     95.424    32.004
114.783     95.340    30.919
116.452     95.267    30.184
118.146     95.224    29.514
119.865     95.221    28.766
121.608     95.231    27.923
123.377     95.243    26.861
125.171     95.241    25.680
126.992     95.195    24.425
128.839     95.117    23.531
130.713     95.044    22.995
132.615     95.020    22.494
134.543     95.047    21.879
136.500     95.085    21.039
138.486     95.111    19.999
140.500     95.118    18.926
142.544     95.121    17.908
144.617     95.133    16.732
146.721     95.097    15.238
148.855     94.991    14.012
151.020     94.872    13.314
153.217     94.802    12.985
155.445     94.792    12.581
157.706     94.797    11.986
160.000     94.824    11.338
162.327     94.851    10.202
164.688     94.804     9.004
167.084     94.725     8.145
169.514     94.648     7.488
171.980     94.576     7.027
174.481     94.536     6.773
177.019     94.535     6.445
179.594     94.539     5.947
182.206     94.536     5.487
184.856     94.540     5.107
187.545     94.569     4.791
190.273     94.640     4.386
193.041     94.735     3.549
195.849     94.778     2.257
198.697     94.736     1.090
201.587     94.674     0.503
204.520     94.659     0.237
207.494     94.702    -0.028
210.512     94.785    -0.530
213.574     94.878    -1.274
216.681     94.980    -2.247
219.833     95.084    -3.490
223.030     95.125    -5.282
226.274     95.093    -7.088
229.565     94.984    -8.635
232.905     94.844    -9.607
236.292     94.754   -10.140
239.729     94.717   -10.786
243.216     94.642   -11.817
246.754     94.494   -12.493
250.343     94.367   -12.511
253.984     94.289   -12.211
257.678     94.295   -11.658
261.426     94.364   -11.230
265.229     94.474   -10.815
269.087     94.672   -10.399
273.001     94.939   -11.032
276.972     95.122   -12.480
281.000     95.186   -13.810
285.088     95.216   -14.743
289.234     95.290   -15.260
293.441     95.423   -15.979
297.709     95.573   -17.134
302.040     95.693   -18.719
306.433     95.748   -20.499
310.890     95.757   -22.155
315.412     95.731   -23.733
320.000     95.684   -25.069
324.655     95.658   -26.116
329.377     95.660   -27.282
334.168     95.659   -28.545
339.028     95.656   -29.830
343.959     95.650   -31.157
348.962     95.641   -32.504
354.038     95.630   -33.895
359.188     95.611   -35.313
364.412     95.588   -36.734
369.713     95.561   -38.158
375.090     95.531   -39.584
380.546     95.497   -41.010
386.081     95.460   -42.436
391.697     95.419   -43.859
397.394     95.375   -45.281
403.175     95.326   -46.697
409.039     95.275   -48.107
414.989     95.220   -49.510
421.025     95.161   -50.903
427.149     95.100   -52.287
433.362     95.035   -53.657
439.665     94.968   -55.012
446.060     94.897   -56.353
452.548     94.824   -57.676
459.131     94.750   -58.977
465.809     94.673   -60.260
472.584     94.595   -61.519
479.458     94.516   -62.755
486.432     94.436   -63.970
493.507     94.357   -65.157
500.686     94.279   -66.320
507.968     94.202   -67.460
515.357     94.128   -68.577
522.853     94.055   -69.672
530.458     93.987   -70.750
538.174     93.923   -71.813
546.002     93.863   -72.865
553.943     93.808   -73.912
562.001     93.759   -74.960
570.175     93.715   -76.013
578.469     93.679   -77.082
586.883     93.648   -78.171
595.419     93.622   -79.288
604.080     93.601   -80.435
612.866     93.585   -81.624
621.780     93.572   -82.858
630.824     93.563   -84.149
640.000     93.556   -85.491
649.309     93.549   -86.897
658.753     93.542   -88.362
668.335     93.533   -89.887
678.056     93.521   -91.469
687.919     93.504   -93.108
697.925     93.481   -94.797
708.077     93.452   -96.532
718.376     93.415   -98.305
728.825     93.369  -100.109
739.426     93.315  -101.935
750.181     93.251  -103.773
761.093     93.177  -105.614
772.163     93.093  -107.444
783.394     93.002  -109.255
794.789     92.903  -111.040
806.349     92.797  -112.788
818.078     92.685  -114.493
829.977     92.569  -116.151
842.050     92.450  -117.761
854.298     92.330  -119.318
866.724     92.211  -120.826
879.330     92.092  -122.293
892.120     91.977  -123.716
905.097     91.864  -125.112
918.262     91.753  -126.478
931.618     91.645  -127.822
945.169     91.538  -129.143
958.917     91.431  -130.439
972.864     91.324  -131.701
987.015     91.216  -132.916
1001.37     91.108  -134.065
1015.94     91.000  -135.131
1030.71     90.895  -136.092
1045.71     90.800  -136.926
1060.92     90.717  -137.634
1076.35     90.655  -138.208
1092.00     90.621  -138.671
1107.89     90.621  -139.060
1124.00     90.663  -139.432
1140.35     90.741  -139.841
1156.94     90.867  -140.395
1173.77     91.017  -141.066
1190.84     91.204  -142.056
1208.16     91.399  -143.171
1225.73     91.604  -144.612
1243.56     91.808  -146.232
1261.65     92.001  -148.065
1280.00     92.182  -150.018
1298.62     92.344  -152.061
1317.51     92.504  -154.105
1336.67     92.657  -156.135
1356.11     92.814  -158.127
1375.84     92.987  -160.090
1395.85     93.184  -162.067
1416.15     93.419  -164.159
1436.75     93.675  -166.367
1457.65     93.965  -168.881
1478.85     94.273  -171.701
1500.36     94.589  -174.907
1522.19     94.894  -178.593
1544.33     95.172   177.311
1566.79     95.409   172.849
1589.58     95.596   168.073
1612.70     95.722   163.048
1636.16     95.781   157.849
1659.95     95.769   152.553
1684.10     95.683   147.247
1708.60     95.522   142.012
1733.45     95.290   136.928
1758.66     94.990   132.072
1784.24     94.629   127.518
1810.19     94.213   123.333
1836.52     93.753   119.578
1863.24     93.258   116.303
1890.34     92.744   113.547
1917.83     92.224   111.331
1945.73     91.716   109.651
1974.03     91.238   108.469
2002.74     90.807   107.743
2031.87     90.429   107.322
2061.43     90.109   107.106
2091.41     89.842   106.995
2121.83     89.618   106.936
2152.69     89.432   106.946
2184.01     89.269   107.019
2215.77     89.152   107.271
2248.00     89.074   107.630
2280.70     89.069   108.094
2313.87     89.143   108.508
2347.53     89.298   108.684
2381.68     89.528   108.370
2416.32     89.798   107.544
2451.46     90.083   105.931
2487.12     90.350   103.716
2523.30     90.555   100.776
2560.00     90.677    97.371
2597.24     90.687    93.656
2635.01     90.577    89.866
2673.34     90.316    86.378
2712.23     89.953    83.460
2751.68     89.510    81.666
2791.70     89.091    81.084
2832.31     88.828    81.568
2873.50     88.760    82.166
2915.30     88.875    82.172
2957.70     89.098    80.948
3000.72     89.309    78.263
3044.37     89.379    74.334
3088.65     89.265    69.776
3133.58     88.988    64.975
3179.16     88.529    59.995
3225.40     87.878    54.787
3272.31     86.946    49.342
3319.91     85.584    44.056
3368.20     83.587    40.365
3417.19     80.809    42.775
3466.89     77.994    63.067
3517.32     77.524   101.175
3568.48     80.039   125.510
3620.39     82.749   130.036
3673.05     84.758   128.334
3726.47     86.168   124.749
3780.67     87.115   121.086
3835.67     87.858   118.027
3891.46     88.575   115.986
3948.06     89.394   114.094
4005.49     90.295   110.099
4063.75     90.992   103.908
4122.86     91.255    96.631
4182.82     91.081    90.323
4243.66     90.719    86.505
4305.39     90.523    84.167
4368.01     90.481    81.034
4431.55     90.194    76.341
4496.01     89.452    72.599
4561.40     88.466    73.216
4627.75     87.769    77.459
4695.06     87.584    81.883
4763.35     87.553    85.999
4832.64     87.811    91.807
4902.93     88.770    95.793
4974.24     89.792    94.983
5046.60     90.242    91.083
5120.00     90.287    88.524
5194.47     90.336    88.747
5270.03     90.739    89.561
5346.68     91.382    88.875
5424.45     92.080    85.881
5503.35     92.566    80.220
5583.40     92.525    73.275
5664.61     91.940    68.262
5747.01     91.219    66.001
5830.60     90.554    66.085
5915.41     90.054    67.540
6001.45     89.710    69.962
6088.74     89.563    73.073
6177.30     89.657    76.843
6267.15     90.088    80.084
6358.31     90.669    81.055
6450.80     91.147    80.453
6544.62     91.480    79.582
6639.82     91.824    79.140
6736.40     92.300    78.195
6834.38     92.775    75.547
6933.79     93.061    71.698
7034.64     93.143    67.366
7136.96     92.948    62.824
7240.77     92.430    59.403
7346.09     91.707    58.180
7452.94     90.956    60.670
7561.35     90.786    66.734
7671.33     91.262    71.344
7782.91     92.000    72.212
7896.12     92.630    70.103
8010.97     92.779    66.118
8127.49     92.576    64.535
8245.71     92.561    64.366
8365.65     92.640    63.953
8487.33     92.746    62.567
8610.78     92.563    61.060
8736.03     92.345    62.270
8863.09     92.455    64.525
8992.01     92.983    66.144
9122.80     93.597    64.019
9255.50     93.834    59.609
9390.12     93.621    55.231
9526.70     93.032    53.411
9665.27     92.520    55.267
9805.86     92.474    58.907
9948.49     92.873    60.957
10093.2     93.257    60.206
10240.0     93.453    58.750
10388.9     93.539    57.707
10540.1     93.662    56.760
10693.4     93.717    55.149
10848.9     93.577    53.720
11006.7     93.356    54.417
11166.8     93.439    56.636
11329.2     93.818    57.140
11494.0     94.140    56.147
11661.2     94.367    55.417
11830.8     94.683    53.958
12002.9     94.970    50.556
12177.5     94.892    46.622
12354.6     94.351    46.108
12534.3     94.160    48.949
12716.6     94.699    50.736
12901.6     95.137    48.114
13089.2     95.354    44.176
13279.6     95.352    40.438
13472.8     95.085    37.056
13668.8     94.594    35.598
13867.6     94.287    37.270
14069.3     94.474    38.247
14273.9     94.778    36.161
14481.5     94.700    33.340
14692.2     94.515    31.403
14905.9     94.197    29.494
15122.7     93.797    29.657
15342.7     93.660    31.436
15565.8     93.921    31.980
15792.2     94.117    29.457
16021.9     94.022    26.483
16255.0     93.692    23.872
16491.4     93.186    23.984
16731.3     93.196    26.267
16974.7     93.533    24.439
17221.6     93.356    19.736
17472.1     92.622    17.215
17726.2     91.876    19.104
17984.0     91.765    23.504
18245.6     92.218    23.948
18511.0     92.214    19.828
18780.2     91.533    18.152
19053.4     91.008    21.551
19330.5     91.202    25.297
19611.7     91.671    24.550
19897.0     91.637    20.833
20186.4     91.125    20.305
20480.0     90.974    22.731
20777.9     91.278    23.108
21080.1     91.385    20.036
21386.7     90.991    17.330
21697.8     90.749    19.127
22013.4     90.843    19.338
22333.6     90.796    16.075
22658.4     90.381    13.918
22988.0     89.982    14.724
23322.4     89.987    14.844
23661.6     89.830    12.494
24005.8     89.322    10.868
24355.0     88.931    12.786
24709.2     89.011    14.560
25068.6     89.029    12.902
25433.2     88.810    12.390
25803.2     89.005    13.543
26178.5     89.391     9.923
26559.3     89.257     4.927
26945.6     88.934     1.503
27337.5     88.775    -2.367
27735.2     88.451    -7.962
28138.6     87.777   -13.305
28547.9     87.005   -17.464
28963.1     86.205   -22.512
29384.4     85.048   -26.752
29811.8     83.823   -30.225
30245.4     82.351   -33.261
30685.3     80.502   -33.185
31131.7     78.909   -28.326
31584.5     77.716   -23.553
32043.9     76.751   -17.493
32510.0     76.372   -13.088
32982.8     75.799   -13.569
33462.6     74.743   -12.062
33949.3     73.847    -8.455
34443.1     73.081    -5.831
34944.1     72.346    -3.526
35452.4     71.516    -3.013
35968.0     70.228    -0.759
36491.2     69.160     5.593
37022.0     68.422     9.412
37560.5     67.522    13.013
38106.8     66.607    16.608
38661.1     65.480    21.022
39223.4     64.474    28.227
39793.9     63.592    35.822
