Freq[Hz]     dBSPL  Phase[Deg]
5.00000     42.463  -138.797
5.07273     42.808  -138.985
5.14651     43.152  -139.175
5.22137     43.511  -134.998
5.29732     43.885  -131.233
5.37437     44.303  -128.804
5.45254     44.834  -127.786
5.53185     45.464  -127.883
5.61231     46.091  -128.531
5.69394     46.636  -129.450
5.77676     47.012  -130.673
5.86079     47.273  -132.164
5.94604     47.455  -133.648
6.03252     47.592  -134.825
6.12027     47.692  -135.410
6.20929     47.754  -135.500
6.29961     47.819  -135.213
6.39124     47.967  -134.575
6.48420     48.218  -133.577
6.57851     48.551  -132.394
6.67420     48.946  -131.391
6.77128     49.398  -130.807
6.86977     49.904  -130.628
6.96969     50.433  -130.812
7.07107     50.938  -131.376
7.17392     51.404  -132.318
7.27827     51.835  -133.513
7.38413     52.225  -134.782
7.49154     52.570  -136.058
7.60050     52.870  -137.330
7.71105     53.151  -138.489
7.82321     53.420  -139.493
7.93701     53.683  -140.365
8.05245     53.949  -141.135
8.16958     54.229  -141.827
8.28841     54.519  -142.469
8.40896     54.815  -143.107
8.53128     55.114  -143.779
8.65537     55.411  -144.464
8.78126     55.702  -145.139
8.90899     55.981  -145.786
9.03857     56.256  -146.386
9.17004     56.531  -146.887
9.30342     56.809  -147.305
9.43874     57.101  -147.668
9.57603     57.413  -147.998
9.71532     57.740  -148.348
9.85663     58.079  -148.774
10.0000     58.427  -149.279
10.1455     58.770  -149.873
10.2930     59.101  -150.536
10.4427     59.422  -151.210
10.5946     59.731  -151.864
10.7487     60.035  -152.488
10.9051     60.343  -153.072
11.0637     60.652  -153.636
11.2246     60.965  -154.203
11.3879     61.277  -154.770
11.5535     61.583  -155.318
11.7216     61.885  -155.846
11.8921     62.193  -156.310
12.0650     62.504  -156.755
12.2405     62.834  -157.218
12.4186     63.173  -157.724
12.5992     63.515  -158.348
12.7825     63.849  -159.041
12.9684     64.159  -159.749
13.1570     64.467  -160.453
13.3484     64.768  -161.043
13.5426     65.085  -161.601
13.7395     65.427  -162.226
13.9394     65.787  -163.049
14.1421     66.127  -164.158
14.3478     66.441  -165.383
14.5565     66.684  -166.633
14.7683     66.878  -167.700
14.9831     67.055  -168.372
15.2010     67.275  -168.770
15.4221     67.548  -169.158
15.6464     67.848  -169.732
15.8740     68.137  -170.527
16.1049     68.387  -171.435
16.3392     68.604  -172.317
16.5768     68.808  -173.101
16.8179     69.007  -173.796
17.0626     69.190  -174.399
17.3107     69.348  -174.807
17.5625     69.500  -174.901
17.8180     69.689  -174.683
18.0771     69.943  -174.341
18.3401     70.253  -174.104
18.6068     70.589  -174.111
18.8775     70.930  -174.366
19.1521     71.262  -174.814
19.4306     71.577  -175.374
19.7133     71.871  -175.951
20.0000     72.155  -176.473
20.2909     72.446  -176.938
20.5860     72.750  -177.421
20.8855     73.056  -177.969
21.1893     73.358  -178.571
21.4975     73.655  -179.201
21.8102     73.953  -179.844
22.1274     74.248   179.476
22.4492     74.540   178.777
22.7758     74.825   178.063
23.1071     75.105   177.353
23.4432     75.383   176.657
23.7841     75.659   175.971
24.1301     75.933   175.290
24.4811     76.203   174.637
24.8372     76.471   174.023
25.1984     76.748   173.447
25.5649     77.031   172.864
25.9368     77.316   172.266
26.3141     77.602   171.670
26.6968     77.895   171.077
27.0851     78.198   170.445
27.4791     78.503   169.704
27.8788     78.798   168.877
28.2843     79.074   168.055
28.6957     79.345   167.285
29.1131     79.618   166.560
29.5365     79.897   165.836
29.9661     80.169   165.123
30.4020     80.449   164.445
30.8442     80.741   163.740
31.2929     81.034   162.985
31.7480     81.328   162.177
32.2098     81.622   161.316
32.6783     81.912   160.397
33.1536     82.193   159.434
33.6359     82.467   158.447
34.1251     82.731   157.445
34.6215     82.981   156.474
35.1250     83.223   155.596
35.6359     83.471   154.816
36.1543     83.730   154.085
36.6802     83.998   153.368
37.2137     84.279   152.649
37.7550     84.573   151.883
38.3041     84.872   151.058
38.8613     85.174   150.146
39.4265     85.475   149.198
40.0000     85.781   148.201
40.5818     86.088   147.104
41.1721     86.387   145.915
41.7710     86.676   144.664
42.3785     86.953   143.399
42.9949     87.227   142.151
43.6203     87.503   140.900
44.2548     87.784   139.609
44.8985     88.071   138.235
45.5515     88.359   136.683
46.2141     88.630   134.873
46.8863     88.837   132.867
47.5683     88.967   131.021
48.2602     89.058   129.754
48.9621     89.202   129.003
49.6743     89.399   128.324
50.3968     89.641   127.574
51.1299     89.908   126.689
51.8736     90.191   125.600
52.6281     90.472   124.331
53.3936     90.744   122.948
54.1702     91.007   121.499
54.9581     91.265   120.002
55.7575     91.520   118.456
56.5685     91.771   116.864
57.3914     92.020   115.223
58.2261     92.267   113.511
59.0730     92.506   111.719
59.9323     92.733   109.902
60.8040     92.960   108.044
61.6884     93.176   106.095
62.5857     93.377   104.144
63.4960     93.578   102.211
64.4196     93.786   100.221
65.3566     93.995    98.065
66.3073     94.183    95.677
67.2717     94.324    93.138
68.2502     94.405    90.664
69.2429     94.442    88.502
70.2501     94.480    86.818
71.2719     94.583    85.406
72.3086     94.747    83.767
73.3603     94.916    81.726
74.4274     95.054    79.452
75.5099     95.159    77.108
76.6083     95.240    74.747
77.7226     95.301    72.380
78.8531     95.338    70.020
80.0000     95.353    67.686
81.1636     95.340    65.352
82.3442     95.281    63.147
83.5419     95.198    61.297
84.7570     95.128    59.777
85.9899     95.090    58.442
87.2406     95.085    57.165
88.5096     95.109    55.844
89.7970     95.156    54.327
91.1031     95.199    52.595
92.4282     95.214    50.690
93.7726     95.197    48.788
95.1366     95.160    46.984
96.5204     95.116    45.243
97.9243     95.062    43.514
99.3486     94.994    41.836
100.794     94.915    40.225
102.260     94.821    38.693
103.747     94.716    37.332
105.256     94.620    36.157
106.787     94.542    35.058
108.340     94.480    33.925
109.916     94.416    32.705
111.515     94.338    31.469
113.137     94.241    30.277
114.783     94.127    29.210
116.452     94.023    28.493
118.146     93.948    27.845
119.865     93.914    27.120
121.608     93.890    26.303
123.377     93.870    25.270
125.171     93.835    24.119
126.992     93.755    22.897
128.839     93.644    22.040
130.713     93.535    21.542
132.615     93.477    21.081
134.543     93.468    20.510
136.500     93.470    19.716
138.486     93.460    18.725
140.500     93.430    17.703
142.544     93.397    16.740
144.617     93.372    15.622
146.721     93.297    14.189
148.855     93.153    13.026
151.020     92.995    12.395
153.217     92.885    12.136
155.445     92.835    11.806
157.706     92.800    11.287
160.000     92.786    10.719
162.327     92.771     9.668
164.688     92.681     8.558
167.084     92.560     7.789
169.514     92.440     7.228
171.980     92.324     6.866
174.481     92.240     6.716
177.019     92.194     6.496
179.594     92.152     6.110
182.206     92.103     5.767
184.856     92.061     5.509
187.545     92.042     5.320
190.273     92.065     5.046
193.041     92.111     4.347
195.849     92.105     3.197
198.697     92.013     2.178
201.587     91.901     1.746
204.520     91.834     1.641
207.494     91.826     1.542
210.512     91.857     1.214
213.574     91.896     0.651
216.681     91.944    -0.133
219.833     91.994    -1.182
223.030     91.981    -2.769
226.274     91.893    -4.363
229.565     91.728    -5.690
232.905     91.531    -6.433
236.292     91.384    -6.727
239.729     91.289    -7.126
243.216     91.157    -7.899
246.754     90.950    -8.306
250.343     90.765    -8.044
253.984     90.629    -7.454
257.678     90.575    -6.597
261.426     90.583    -5.853
265.229     90.632    -5.110
269.087     90.771    -4.351
273.001     90.979    -4.628
276.972     91.103    -5.709
281.000     91.109    -6.658
285.088     91.083    -7.198
289.234     91.101    -7.304
293.441     91.180    -7.598
297.709     91.276    -8.313
302.040     91.342    -9.442
306.433     91.344   -10.749
310.890     91.299   -11.909
315.412     91.220   -12.970
320.000     91.121   -13.769
324.655     91.043   -14.257
329.377     90.995   -14.842
334.168     90.943   -15.503
339.028     90.892   -16.163
343.959     90.840   -16.844
348.962     90.787   -17.525
354.038     90.733   -18.229
359.188     90.675   -18.940
364.412     90.615   -19.637
369.713     90.555   -20.320
375.090     90.495   -20.989
380.546     90.435   -21.645
386.081     90.376   -22.292
391.697     90.318   -22.929
397.394     90.260   -23.561
403.175     90.203   -24.187
409.039     90.148   -24.812
414.989     90.093   -25.437
421.025     90.040   -26.067
427.149     89.987   -26.703
433.362     89.936   -27.349
439.665     89.885   -28.008
446.060     89.834   -28.682
452.548     89.783   -29.375
459.131     89.732   -30.092
465.809     89.679   -30.829
472.584     89.625   -31.593
479.458     89.569   -32.383
486.432     89.509   -33.198
493.507     89.445   -34.041
500.686     89.377   -34.911
507.968     89.303   -35.804
515.357     89.222   -36.719
522.853     89.133   -37.652
530.458     89.037   -38.596
538.174     88.931   -39.547
546.002     88.815   -40.496
553.943     88.689   -41.434
562.001     88.552   -42.351
570.175     88.405   -43.242
578.469     88.244   -44.081
586.883     88.074   -44.859
595.419     87.893   -45.563
604.080     87.704   -46.185
612.866     87.508   -46.698
621.780     87.306   -47.091
630.824     87.102   -47.331
640.000     86.898   -47.431
649.309     86.701   -47.359
658.753     86.515   -47.127
668.335     86.345   -46.744
678.056     86.197   -46.226
687.919     86.075   -45.603
697.925     85.984   -44.916
708.077     85.927   -44.214
718.376     85.903   -43.554
728.825     85.911   -42.994
739.426     85.949   -42.588
750.181     86.010   -42.388
761.093     86.089   -42.442
772.163     86.177   -42.772
783.394     86.265   -43.365
794.789     86.347   -44.214
806.349     86.415   -45.323
818.078     86.462   -46.671
829.977     86.483   -48.215
842.050     86.473   -49.927
854.298     86.427   -51.769
866.724     86.341   -53.689
879.330     86.216   -55.636
892.120     86.043   -57.542
905.097     85.836   -59.364
918.262     85.587   -61.011
931.618     85.304   -62.421
945.169     84.997   -63.529
958.917     84.675   -64.263
972.864     84.354   -64.572
987.015     84.050   -64.457
1001.37     83.784   -63.939
1015.94     83.571   -63.146
1030.71     83.424   -62.238
1045.71     83.344   -61.438
1060.92     83.318   -60.920
1076.35     83.332   -60.876
1092.00     83.360   -61.385
1107.89     83.376   -62.440
1124.00     83.351   -64.035
1140.35     83.276   -65.991
1156.94     83.107   -68.242
1173.77     82.877   -70.561
1190.84     82.508   -72.616
1208.16     82.091   -74.447
1225.73     81.563   -75.223
1243.56     80.995   -75.026
1261.65     80.443   -72.864
1280.00     79.999   -68.847
1298.62     79.936   -62.689
1317.51     79.919   -56.529
1336.67     80.355   -51.290
1356.11     80.975   -48.077
1375.84     81.681   -47.095
1395.85     82.383   -48.022
1416.15     82.999   -50.564
1436.75     83.555   -53.732
1457.65     83.984   -57.679
1478.85     84.322   -61.905
1500.36     84.567   -66.230
1522.19     84.727   -70.439
1544.33     84.837   -74.435
1566.79     84.917   -78.204
1589.58     84.985   -81.798
1612.70     85.051   -85.333
1636.16     85.121   -88.954
1659.95     85.189   -92.807
1684.10     85.244   -96.974
1708.60     85.271  -101.469
1733.45     85.256  -106.218
1758.66     85.193  -111.081
1784.24     85.081  -115.881
1810.19     84.929  -120.455
1836.52     84.753  -124.695
1863.24     84.573  -128.615
1890.34     84.402  -132.365
1917.83     84.240  -136.202
1945.73     84.072  -140.396
1974.03     83.867  -145.116
2002.74     83.577  -150.359
2031.87     83.176  -155.795
2061.43     82.638  -160.875
2091.41     81.978  -164.698
2121.83     81.268  -166.037
2152.69     80.716  -162.976
2184.01     80.365  -157.383
2215.77     80.525  -151.174
2248.00     80.925  -147.189
2280.70     81.505  -147.619
2313.87     82.055  -151.026
2347.53     82.480  -156.087
2381.68     82.737  -161.834
2416.32     82.865  -167.682
2451.46     82.831  -173.439
2487.12     82.680  -179.184
2523.30     82.357   174.907
2560.00     81.863   168.877
2597.24     81.155   163.101
2635.01     80.233   158.365
2673.34     79.125   157.165
2712.23     78.054   161.960
2751.68     77.467   179.008
2791.70     77.699  -159.167
2832.31     78.702  -146.525
2873.50     79.953  -142.314
2915.30     81.200  -144.401
2957.70     82.252  -150.131
3000.72     83.020  -157.866
3044.37     83.451  -166.119
3088.65     83.612  -173.340
3133.58     83.597  -178.916
3179.16     83.436   176.716
3225.40     83.118   171.522
3272.31     82.548   164.172
3319.91     81.653   155.648
3368.20     80.621   153.876
3417.19     80.109   178.691
3466.89     80.717  -142.932
3517.32     81.997  -142.856
3568.48     83.047  -156.646
3620.39     83.542  -170.567
3673.05     83.631  -177.408
3726.47     83.635  -173.776
3780.67     83.688  -172.021
3835.67     83.644  -178.549
3891.46     83.179   167.332
3948.06     82.462   154.684
4005.49     82.408  -160.267
4063.75     83.334  -134.103
4122.86     84.415  -152.316
4182.82     84.958  -172.221
4243.66     85.098  -178.823
4305.39     85.337  -162.785
4368.01     85.687  -164.356
4431.55     85.599   173.149
4496.01     84.785   145.758
4561.40     83.409   135.646
4627.75     82.255  -176.842
4695.06     81.799  -172.774
4763.35     81.597   167.444
4832.64     81.853  -157.510
4902.93     82.831  -122.353
4974.24     83.442  -160.890
5046.60     82.992   154.399
5120.00     82.538    45.199
5194.47     83.192   -76.950
5270.03     84.327  -136.439
5346.68     84.964  -164.677
5424.45     85.156  -157.734
5503.35     85.168  -153.929
5583.40     84.818  -179.796
5664.61     84.029   172.506
5747.01     83.217  -173.822
5830.60     82.416  -169.755
5915.41     81.578   172.862
6001.45     80.940  -133.573
6088.74     81.555  -101.742
6177.30     82.402  -128.115
6267.15     82.672  -158.621
6358.31     82.756  -138.232
6450.80     83.228  -110.653
6544.62     83.865  -127.521
6639.82     84.168  -144.158
6736.40     84.056  -132.516
6834.38     83.490  -160.132
6933.79     82.470    95.857
7034.64     81.605   -59.894
7136.96     81.043  -166.171
7240.77     80.561    65.220
7346.09     80.582   -79.881
7452.94     80.625   161.458
7561.35     80.823    15.967
7671.33     81.219    21.128
7782.91     81.616   106.591
7896.12     82.173   -56.984
8010.97     82.349  -135.745
8127.49     81.789    24.097
8245.71     81.332  -118.033
8365.65     80.532    54.537
8487.33     80.063   -67.575
8610.78     79.410   136.373
8736.03     78.969   -17.336
8863.09     79.031  -120.120
8992.01     79.302    -9.804
9122.80     79.621  -105.600
9255.50     79.464   -69.711
9390.12     78.986   -88.191
9526.70     78.066   -98.377
9665.27     77.312    -0.255
9805.86     76.913  -111.428
9948.49     76.474   -82.232
10093.2     75.990  -107.021
10240.0     75.682   -72.252
10388.9     75.547  -111.215
10540.1     75.468   -76.148
10693.4     74.984    95.215
10848.9     74.141    35.936
11006.7     73.302    78.741
11166.8     72.663    -0.507
11329.2     71.689    56.672
11494.0     70.835   -42.411
11661.2     70.325    10.214
11830.8     69.957   -57.302
12002.9     69.444   -34.520
12177.5     68.366   129.461
12354.6     67.215  -123.311
12534.3     66.281   103.673
12716.6     65.564    41.573
12901.6     64.924   132.328
13089.2     64.382   132.588
13279.6     64.371   153.244
13472.8     65.123   -71.874
13668.8     66.651    44.045
13867.6     67.881   141.396
14069.3     68.296  -156.626
14273.9     68.315  -164.498
14481.5     68.270   -54.623
14692.2     68.200    -4.325
14905.9     68.086    42.785
15122.7     67.328    83.525
15342.7     65.718   117.008
15565.8     63.457   152.654
15792.2     61.038  -159.758
16021.9     59.597  -108.703
16255.0     59.522  -154.232
16491.4     59.765   100.580
16731.3     61.024   163.831
16974.7     62.094  -165.302
17221.6     62.840  -126.160
17472.1     63.065  -112.984
17726.2     63.155   -90.948
17984.0     63.832   -88.290
18245.6     64.131  -103.999
18511.0     63.596  -114.098
18780.2     62.692  -122.356
19053.4     62.138  -126.513
19330.5     62.217  -127.300
19611.7     62.209  -141.398
19897.0     61.930  -145.372
20186.4     61.983  -119.197
20480.0     62.757  -111.444
20777.9     63.964  -125.945
21080.1     65.069  -145.948
21386.7     66.022   136.534
21697.8     67.228   115.303
22013.4     68.450   -23.185
22333.6     69.310    -4.199
22658.4     69.974   -31.381
22988.0     70.766   -96.357
23322.4     71.508  -128.721
23661.6     72.024   142.593
24005.8     72.388   159.734
24355.0     72.715    56.628
24709.2     73.026     1.905
25068.6     73.201  -102.672
25433.2     73.110  -161.011
25803.2     72.748   126.504
26178.5     72.221    54.009
26559.3     71.820  -130.096
26945.6     71.531   105.046
27337.5     71.153    19.037
27735.2     70.471    74.963
28138.6     69.389   -11.426
28547.9     68.332   144.300
28963.1     68.267    34.507
29384.4     68.882   -81.967
29811.8     69.464     7.529
30245.4     69.416   -51.690
30685.3     68.724   -56.173
31131.7     67.781    54.481
31584.5     66.284   124.216
32043.9     65.111   -48.826
32510.0     65.050    68.775
32982.8     64.882  -160.430
33462.6     64.581   -74.135
33949.3     63.850    14.026
34443.1     63.032    84.597
34944.1     62.767   151.431
35452.4     62.196  -140.460
35968.0     61.385   -78.245
36491.2     60.980   -22.709
37022.0     60.567    26.508
37560.5     60.078    65.539
38106.8     59.271    94.922
38661.1     57.967   111.996
39223.4     56.392   113.639
39793.9     54.960   107.962
