Freq[Hz]     dBSPL  Phase[Deg]
5.00000     42.463  -138.797
5.07273     42.808  -138.985
5.14651     43.152  -139.175
5.22137     43.511  -134.998
5.29732     43.885  -131.233
5.37437     44.303  -128.804
5.45254     44.834  -127.786
5.53185     45.464  -127.883
5.61231     46.091  -128.531
5.69394     46.636  -129.450
5.77676     47.012  -130.673
5.86079     47.273  -132.164
5.94604     47.455  -133.648
6.03252     47.592  -134.825
6.12027     47.692  -135.410
6.20929     47.754  -135.500
6.29961     47.819  -135.213
6.39124     47.967  -134.575
6.48420     48.218  -133.577
6.57851     48.551  -132.394
6.67420     48.946  -131.391
6.77128     49.398  -130.807
6.86977     49.904  -130.628
6.96969     50.433  -130.812
7.07107     50.938  -131.376
7.17392     51.404  -132.318
7.27827     51.835  -133.513
7.38413     52.225  -134.782
7.49154     52.570  -136.058
7.60050     52.870  -137.330
7.71105     53.151  -138.489
7.82321     53.420  -139.493
7.93701     53.683  -140.365
8.05245     53.949  -141.135
8.16958     54.229  -141.827
8.28841     54.519  -142.469
8.40896     54.815  -143.107
8.53128     55.114  -143.779
8.65537     55.411  -144.464
8.78126     55.702  -145.139
8.90899     55.981  -145.786
9.03857     56.256  -146.386
9.17004     56.531  -146.887
9.30342     56.809  -147.305
9.43874     57.101  -147.668
9.57603     57.413  -147.998
9.71532     57.740  -148.348
9.85663     58.079  -148.774
10.0000     58.427  -149.279
10.1455     58.770  -149.873
10.2930     59.101  -150.536
10.4427     59.422  -151.210
10.5946     59.731  -151.864
10.7487     60.035  -152.488
10.9051     60.343  -153.072
11.0637     60.652  -153.636
11.2246     60.965  -154.203
11.3879     61.277  -154.770
11.5535     61.583  -155.318
11.7216     61.885  -155.846
11.8921     62.193  -156.310
12.0650     62.504  -156.755
12.2405     62.834  -157.218
12.4186     63.173  -157.724
12.5992     63.515  -158.348
12.7825     63.849  -159.041
12.9684     64.159  -159.749
13.1570     64.467  -160.453
13.3484     64.768  -161.043
13.5426     65.085  -161.601
13.7395     65.427  -162.226
13.9394     65.787  -163.049
14.1421     66.127  -164.158
14.3478     66.441  -165.383
14.5565     66.684  -166.633
14.7683     66.878  -167.700
14.9831     67.055  -168.372
15.2010     67.275  -168.770
15.4221     67.548  -169.158
15.6464     67.848  -169.732
15.8740     68.137  -170.527
16.1049     68.387  -171.435
16.3392     68.604  -172.317
16.5768     68.808  -173.101
16.8179     69.007  -173.796
17.0626     69.190  -174.399
17.3107     69.348  -174.807
17.5625     69.500  -174.901
17.8180     69.689  -174.683
18.0771     69.943  -174.341
18.3401     70.253  -174.104
18.6068     70.589  -174.111
18.8775     70.930  -174.366
19.1521     71.262  -174.814
19.4306     71.577  -175.374
19.7133     71.871  -175.951
20.0000     72.155  -176.473
20.2909     72.446  -176.938
20.5860     72.750  -177.421
20.8855     73.056  -177.969
21.1893     73.358  -178.571
21.4975     73.655  -179.201
21.8102     73.953  -179.844
22.1274     74.248   179.476
22.4492     74.540   178.777
22.7758     74.825   178.063
23.1071     75.105   177.353
23.4432     75.383   176.657
23.7841     75.659   175.971
24.1301     75.933   175.290
24.4811     76.203   174.637
24.8372     76.471   174.023
25.1984     76.748   173.447
25.5649     77.031   172.864
25.9368     77.316   172.266
26.3141     77.602   171.670
26.6968     77.895   171.077
27.0851     78.198   170.445
27.4791     78.503   169.704
27.8788     78.798   168.877
28.2843     79.074   168.055
28.6957     79.345   167.285
29.1131     79.618   166.560
29.5365     79.897   165.836
29.9661     80.169   165.123
30.4020     80.449   164.445
30.8442     80.741   163.740
31.2929     81.034   162.985
31.7480     81.328   162.177
32.2098     81.622   161.316
32.6783     81.912   160.397
33.1536     82.193   159.434
33.6359     82.467   158.447
34.1251     82.731   157.445
34.6215     82.981   156.474
35.1250     83.223   155.596
35.6359     83.471   154.816
36.1543     83.730   154.085
36.6802     83.998   153.368
37.2137     84.279   152.649
37.7550     84.573   151.883
38.3041     84.872   151.058
38.8613     85.174   150.146
39.4265     85.475   149.198
40.0000     85.781   148.201
40.5818     86.088   147.102
41.1721     86.386   145.906
41.7710     86.675   144.644
42.3785     86.951   143.365
42.9949     87.224   142.098
43.6203     87.498   140.823
44.2548     87.777   139.505
44.8985     88.062   138.101
45.5515     88.348   136.515
46.2141     88.615   134.668
46.8863     88.819   132.622
47.5683     88.945   130.731
48.2602     89.031   129.417
48.9621     89.171   128.614
49.6743     89.363   127.882
50.3968     89.599   127.075
51.1299     89.861   126.130
51.8736     90.137   124.978
52.6281     90.411   123.641
53.3936     90.676   122.189
54.1702     90.932   120.668
54.9581     91.182   119.095
55.7575     91.427   117.470
56.5685     91.669   115.796
57.3914     91.910   114.069
58.2261     92.146   112.270
59.0730     92.375   110.386
59.9323     92.591   108.474
60.8040     92.807   106.518
61.6884     93.010   104.467
62.5857     93.200   102.412
63.4960     93.388   100.371
64.4196     93.582    98.270
65.3566     93.777    95.999
66.3073     93.951    93.493
67.2717     94.077    90.832
68.2502     94.143    88.232
69.2429     94.164    85.942
70.2501     94.186    84.124
71.2719     94.272    82.576
72.3086     94.420    80.796
73.3603     94.571    78.610
74.4274     94.691    76.187
75.5099     94.777    73.689
76.6083     94.839    71.170
77.7226     94.880    68.642
78.8531     94.898    66.116
80.0000     94.893    63.610
81.1636     94.859    61.101
82.3442     94.778    58.715
83.5419     94.674    56.679
84.7570     94.582    54.968
85.9899     94.520    53.438
87.2406     94.492    51.959
88.5096     94.492    50.431
89.7970     94.515    48.701
91.1031     94.534    46.751
92.4282     94.524    44.623
93.7726     94.481    42.491
95.1366     94.419    40.450
96.5204     94.349    38.466
97.9243     94.268    36.489
99.3486     94.173    34.556
100.794     94.066    32.682
102.260     93.943    30.881
103.747     93.810    29.242
105.256     93.685    27.783
106.787     93.578    26.393
108.340     93.486    24.961
109.916     93.391    23.434
111.515     93.283    21.883
113.137     93.155    20.369
114.783     93.009    18.970
116.452     92.873    17.913
118.146     92.765    16.916
119.865     92.698    15.834
121.608     92.641    14.650
123.377     92.587    13.241
125.171     92.518    11.705
126.992     92.404    10.086
128.839     92.257     8.824
130.713     92.113     7.911
132.615     92.019     7.025
134.543     91.974     6.019
136.500     91.939     4.778
138.486     91.893     3.330
140.500     91.825     1.839
142.544     91.753     0.397
144.617     91.690    -1.212
146.721     91.576    -3.147
148.855     91.393    -4.824
151.020     91.195    -5.981
153.217     91.045    -6.777
155.445     90.954    -7.658
157.706     90.878    -8.737
160.000     90.823    -9.878
162.327     90.767   -11.517
164.688     90.634   -13.226
167.084     90.470   -14.606
169.514     90.307   -15.791
171.980     90.148   -16.790
174.481     90.018   -17.590
177.019     89.928   -18.472
179.594     89.842   -19.533
182.206     89.746   -20.563
184.856     89.658   -21.521
187.545     89.592   -22.424
190.273     89.568   -23.422
193.041     89.566   -24.860
195.849     89.512   -26.759
198.697     89.371   -28.540
201.587     89.209   -29.745
204.520     89.092   -30.636
207.494     89.033   -31.530
210.512     89.012   -32.665
213.574     88.999   -34.046
216.681     88.994   -35.659
219.833     88.989   -37.543
223.030     88.921   -39.979
226.274     88.779   -42.428
229.565     88.557   -44.617
232.905     88.303   -46.230
236.292     88.096   -47.402
239.729     87.941   -48.682
243.216     87.749   -50.343
246.754     87.480   -51.641
250.343     87.231   -52.273
253.984     87.030   -52.581
257.678     86.909   -52.637
261.426     86.848   -52.813
265.229     86.826   -52.986
269.087     86.893   -53.132
273.001     87.027   -54.300
276.972     87.076   -56.253
281.000     87.006   -58.055
285.088     86.902   -59.427
289.234     86.841   -60.346
293.441     86.838   -61.435
297.709     86.849   -62.931
302.040     86.827   -64.831
306.433     86.734   -66.913
310.890     86.590   -68.856
315.412     86.405   -70.706
320.000     86.193   -72.295
324.655     85.995   -73.574
329.377     85.819   -74.948
334.168     85.632   -76.391
339.028     85.436   -77.823
343.959     85.232   -79.262
348.962     85.017   -80.681
354.038     84.791   -82.098
359.188     84.550   -83.489
364.412     84.298   -84.826
369.713     84.036   -86.101
375.090     83.762   -87.302
380.546     83.476   -88.410
386.081     83.184   -89.443
391.697     82.879   -90.344
397.394     82.569   -91.166
403.175     82.250   -91.838
409.039     81.926   -92.373
414.989     81.599   -92.753
421.025     81.271   -92.960
427.149     80.945   -93.006
433.362     80.626   -92.857
439.665     80.317   -92.513
446.060     80.022   -91.994
452.548     79.746   -91.289
459.131     79.497   -90.403
465.809     79.274   -89.389
472.584     79.087   -88.255
479.458     78.935   -87.049
486.432     78.817   -85.813
493.507     78.742   -84.591
500.686     78.704   -83.434
507.968     78.699   -82.374
515.357     78.725   -81.463
522.853     78.779   -80.724
530.458     78.851   -80.161
538.174     78.939   -79.795
546.002     79.037   -79.640
553.943     79.141   -79.678
562.001     79.245   -79.897
570.175     79.348   -80.266
578.469     79.444   -80.819
586.883     79.533   -81.504
595.419     79.613   -82.302
604.080     79.683   -83.193
612.866     79.742   -84.171
621.780     79.789   -85.213
630.824     79.824   -86.307
640.000     79.850   -87.431
649.309     79.864   -88.573
658.753     79.870   -89.719
668.335     79.870   -90.860
678.056     79.864   -91.987
687.919     79.856   -93.095
697.925     79.847   -94.183
708.077     79.839   -95.252
718.376     79.834   -96.306
728.825     79.835   -97.354
739.426     79.842   -98.408
750.181     79.857   -99.482
761.093     79.883  -100.595
772.163     79.917  -101.768
783.394     79.960  -103.014
794.789     80.010  -104.346
806.349     80.066  -105.786
818.078     80.127  -107.350
829.977     80.191  -109.040
842.050     80.253  -110.865
854.298     80.313  -112.837
866.724     80.367  -114.952
879.330     80.414  -117.198
892.120     80.448  -119.597
905.097     80.472  -122.101
918.262     80.480  -124.732
931.618     80.472  -127.466
945.169     80.447  -130.290
958.917     80.402  -133.193
972.864     80.338  -136.160
987.015     80.253  -139.175
1001.37     80.147  -142.224
1015.94     80.020  -145.287
1030.71     79.872  -148.353
1045.71     79.702  -151.396
1060.92     79.514  -154.408
1076.35     79.306  -157.366
1092.00     79.081  -160.252
1107.89     78.839  -163.047
1124.00     78.583  -165.723
1140.35     78.317  -168.280
1156.94     78.041  -170.639
1173.77     77.764  -172.868
1190.84     77.492  -174.786
1208.16     77.226  -176.580
1225.73     76.989  -178.031
1243.56     76.777  -179.278
1261.65     76.621   179.737
1280.00     76.522   178.890
1298.62     76.535   178.017
1317.51     76.559   177.115
1336.67     76.701   175.779
1356.11     76.904   173.925
1375.84     77.158   171.386
1395.85     77.440   168.062
1416.15     77.722   163.745
1436.75     77.992   158.892
1457.65     78.216   153.075
1478.85     78.386   146.602
1500.36     78.484   139.473
1522.19     78.478   131.703
1544.33     78.364   123.478
1566.79     78.132   114.912
1589.58     77.769   106.131
1612.70     77.261    97.293
1636.16     76.594    88.625
1659.95     75.760    80.445
1684.10     74.759    73.258
1708.60     73.618    67.846
1733.45     72.425    65.390
1758.66     71.368    67.222
1784.24     70.723    73.388
1810.19     70.688    80.778
1836.52     71.196    84.944
1863.24     71.981    84.241
1890.34     72.797    79.618
1917.83     73.506    72.482
1945.73     74.056    63.894
1974.03     74.441    54.559
2002.74     74.658    44.960
2031.87     74.751    35.432
2061.43     74.739    26.178
2091.41     74.647    17.268
2121.83     74.498     8.668
2152.69     74.290     0.256
2184.01     74.045    -8.117
2215.77     73.706   -16.469
2248.00     73.298   -24.692
2280.70     72.776   -32.322
2313.87     72.170   -38.612
2347.53     71.559   -42.467
2381.68     71.119   -42.576
2416.32     70.957   -40.268
2451.46     71.252   -38.070
2487.12     71.810   -38.762
2523.30     72.483   -44.292
2560.00     73.063   -52.874
2597.24     73.444   -63.503
2635.01     73.591   -75.062
2673.34     73.462   -86.526
2712.23     73.149   -97.164
2751.68     72.678  -106.103
2791.70     72.147  -113.634
2832.31     71.576  -121.141
2873.50     70.887  -130.497
2915.30     69.923  -142.860
2957.70     68.449  -159.120
3000.72     66.158   179.927
3044.37     62.838   144.189
3088.65     61.901    51.136
3133.58     64.550   -24.699
3179.16     67.507   -56.250
3225.40     69.399   -80.557
3272.31     70.297  -101.274
3319.91     70.486  -117.451
3368.20     70.289  -126.468
3417.19     70.043  -127.849
3466.89     69.914  -128.057
3517.32     69.773  -134.317
3568.48     69.462  -143.274
3620.39     69.271  -139.133
3673.05     69.863  -114.246
3726.47     71.279  -102.465
3780.67     72.650  -117.014
3835.67     73.562  -138.499
3891.46     73.554  -160.040
3948.06     73.065  -178.489
4005.49     72.489  -174.099
4063.75     72.423  -156.173
4122.86     72.698  -163.943
4182.82     72.649   175.768
4243.66     72.104   159.066
4305.39     71.625   171.563
4368.01     71.639  -172.496
4431.55     71.674   168.786
4496.01     71.168   140.539
4561.40     70.646   135.056
4627.75     71.169  -145.933
4695.06     72.570  -167.003
4763.35     73.427   157.721
4832.64     73.265   124.424
4902.93     72.383   111.467
4974.24     71.635   127.850
5046.60     71.577   134.814
5120.00     72.080   137.735
5194.47     73.086   148.587
5270.03     74.141   136.608
5346.68     74.667   106.541
5424.45     74.413    73.616
5503.35     73.496    52.037
5583.40     72.555    68.189
5664.61     72.049    71.434
5747.01     71.682    59.589
5830.60     71.379    49.983
5915.41     71.219    58.206
6001.45     71.405    71.692
6088.74     71.355    38.161
6177.30     70.824   -10.627
6267.15     70.649    47.109
6358.31     71.100    64.836
6450.80     71.360     3.102
6544.62     71.341    11.954
6639.82     71.391    40.382
6736.40     71.169   -17.507
6834.38     70.048    16.297
6933.79     68.592   111.677
7034.64     67.511   -33.264
7136.96     66.514  -150.312
7240.77     66.094    65.002
7346.09     65.855   -55.012
7452.94     64.501  -175.856
7561.35     63.703    46.367
7671.33     63.886    50.328
7782.91     64.324   120.438
7896.12     64.732   -38.093
8010.97     64.038  -125.865
8127.49     62.920    44.531
8245.71     62.637   -90.507
8365.65     60.881   139.345
8487.33     59.630   -13.733
8610.78     60.310  -139.064
8736.03     61.831   -11.251
8863.09     63.086   -65.590
8992.01     63.061  -142.939
9122.80     61.957    63.877
9255.50     61.183  -114.562
9390.12     61.046    76.906
9526.70     61.132   -28.407
9665.27     60.795    94.756
9805.86     60.605   -84.764
9948.49     60.669   -49.850
10093.2     60.730   -79.636
10240.0     60.260   -38.201
10388.9     59.494   -78.791
10540.1     58.885   -37.749
10693.4     58.505   -94.909
10848.9     58.065   -45.037
11006.7     57.414   120.083
11166.8     56.416    54.297
11329.2     55.120   114.284
11494.0     54.295    33.127
11661.2     53.972    97.499
11830.8     53.149    59.138
12002.9     51.477    95.623
12177.5     49.239   -11.447
12354.6     47.010    65.163
12534.3     45.545   -18.222
12716.6     44.332   -61.383
12901.6     43.082    21.981
13089.2     41.779   -20.566
13279.6     41.975   -53.798
13472.8     44.011    51.194
13668.8     46.118   160.896
13867.6     47.392   -77.589
14069.3     48.257     8.267
14273.9     48.709    10.130
14481.5     48.869   107.873
14692.2     48.643   155.965
14905.9     48.050  -161.285
15122.7     47.663  -113.198
15342.7     47.590   -22.117
15565.8     47.530    15.944
15792.2     47.168  -155.289
16021.9     46.320  -110.309
16255.0     46.230   -40.228
16491.4     45.883    26.107
16731.3     45.579    27.061
16974.7     45.505    96.720
17221.6     45.515   179.113
17472.1     44.285  -105.729
17726.2     42.605  -173.563
17984.0     41.412  -110.338
18245.6     41.161   -52.991
18511.0     41.262  -127.841
18780.2     40.979   161.186
19053.4     40.759  -134.196
19330.5     41.514   -48.146
19611.7     42.565     6.514
19897.0     43.500    49.995
20186.4     44.402    46.455
20480.0     45.348    19.991
20777.9     46.235    -3.639
21080.1     47.050   -26.308
21386.7     47.882   -18.168
21697.8     48.564   -74.169
22013.4     48.801  -153.696
22333.6     48.520   142.337
22658.4     48.372    50.167
22988.0     48.080   -41.732
23322.4     47.864  -150.842
23661.6     48.968   122.420
24005.8     50.545    99.163
24355.0     51.946    -2.020
24709.2     53.467    81.144
25068.6     54.523    92.073
25433.2     54.930     0.137
25803.2     54.854  -172.511
26178.5     54.563    61.190
26559.3     54.085   -81.396
26945.6     53.140  -148.265
27337.5     51.138   -40.027
27735.2     48.388  -165.013
28138.6     45.608    67.465
28547.9     44.017   -32.820
28963.1     46.432    68.958
29384.4     48.447   -10.925
29811.8     49.389    94.224
30245.4     49.371    50.191
30685.3     48.498    80.903
31131.7     47.005  -125.987
31584.5     45.855     6.824
32043.9     45.408    75.912
32510.0     44.680   171.356
32982.8     43.272   -37.479
33462.6     41.660    73.220
33949.3     39.862  -137.163
34443.1     39.254   -73.051
34944.1     39.551    23.137
35452.4     39.784    58.250
35968.0     39.639   100.620
36491.2     39.435   144.296
37022.0     39.181  -154.152
37560.5     38.420  -132.347
38106.8     37.328  -136.395
38661.1     35.619  -138.997
39223.4     33.029  -168.249
39793.9     30.666   173.277
