Freq[Hz]     dBSPL  Phase[Deg]
5.00000     42.463  -138.797
5.07273     42.808  -138.985
5.14651     43.152  -139.175
5.22137     43.511  -134.998
5.29732     43.885  -131.233
5.37437     44.303  -128.804
5.45254     44.834  -127.786
5.53185     45.464  -127.883
5.61231     46.091  -128.531
5.69394     46.636  -129.450
5.77676     47.012  -130.673
5.86079     47.273  -132.164
5.94604     47.455  -133.648
6.03252     47.592  -134.825
6.12027     47.692  -135.410
6.20929     47.754  -135.500
6.29961     47.819  -135.213
6.39124     47.967  -134.575
6.48420     48.218  -133.577
6.57851     48.551  -132.394
6.67420     48.946  -131.391
6.77128     49.398  -130.807
6.86977     49.904  -130.628
6.96969     50.433  -130.812
7.07107     50.938  -131.376
7.17392     51.404  -132.318
7.27827     51.835  -133.513
7.38413     52.225  -134.782
7.49154     52.570  -136.058
7.60050     52.870  -137.330
7.71105     53.151  -138.489
7.82321     53.420  -139.493
7.93701     53.683  -140.365
8.05245     53.949  -141.135
8.16958     54.229  -141.827
8.28841     54.519  -142.469
8.40896     54.815  -143.107
8.53128     55.114  -143.779
8.65537     55.411  -144.464
8.78126     55.702  -145.139
8.90899     55.981  -145.786
9.03857     56.256  -146.386
9.17004     56.531  -146.887
9.30342     56.809  -147.305
9.43874     57.101  -147.668
9.57603     57.413  -147.998
9.71532     57.740  -148.348
9.85663     58.079  -148.774
10.0000     58.427  -149.279
10.1455     58.770  -149.873
10.2930     59.101  -150.536
10.4427     59.422  -151.210
10.5946     59.731  -151.864
10.7487     60.035  -152.488
10.9051     60.343  -153.072
11.0637     60.652  -153.636
11.2246     60.965  -154.203
11.3879     61.277  -154.770
11.5535     61.583  -155.318
11.7216     61.885  -155.846
11.8921     62.193  -156.310
12.0650     62.504  -156.755
12.2405     62.834  -157.218
12.4186     63.173  -157.724
12.5992     63.515  -158.348
12.7825     63.849  -159.041
12.9684     64.159  -159.749
13.1570     64.467  -160.453
13.3484     64.768  -161.043
13.5426     65.085  -161.601
13.7395     65.427  -162.226
13.9394     65.787  -163.049
14.1421     66.127  -164.158
14.3478     66.441  -165.383
14.5565     66.684  -166.633
14.7683     66.878  -167.700
14.9831     67.055  -168.372
15.2010     67.275  -168.770
15.4221     67.548  -169.158
15.6464     67.848  -169.732
15.8740     68.137  -170.527
16.1049     68.387  -171.435
16.3392     68.604  -172.317
16.5768     68.808  -173.101
16.8179     69.007  -173.796
17.0626     69.190  -174.399
17.3107     69.348  -174.807
17.5625     69.500  -174.901
17.8180     69.689  -174.683
18.0771     69.943  -174.341
18.3401     70.253  -174.104
18.6068     70.589  -174.111
18.8775     70.930  -174.366
19.1521     71.262  -174.814
19.4306     71.577  -175.374
19.7133     71.871  -175.951
20.0000     72.155  -176.473
20.2909     72.446  -176.938
20.5860     72.750  -177.421
20.8855     73.056  -177.969
21.1893     73.358  -178.571
21.4975     73.655  -179.201
21.8102     73.953  -179.844
22.1274     74.248   179.476
22.4492     74.540   178.777
22.7758     74.825   178.063
23.1071     75.105   177.353
23.4432     75.383   176.657
23.7841     75.659   175.971
24.1301     75.933   175.290
24.4811     76.203   174.637
24.8372     76.471   174.023
25.1984     76.748   173.447
25.5649     77.031   172.864
25.9368     77.316   172.266
26.3141     77.602   171.670
26.6968     77.895   171.077
27.0851     78.198   170.445
27.4791     78.503   169.704
27.8788     78.798   168.877
28.2843     79.074   168.055
28.6957     79.345   167.285
29.1131     79.618   166.560
29.5365     79.897   165.836
29.9661     80.169   165.123
30.4020     80.449   164.445
30.8442     80.741   163.740
31.2929     81.034   162.985
31.7480     81.328   162.177
32.2098     81.622   161.316
32.6783     81.912   160.397
33.1536     82.193   159.434
33.6359     82.467   158.447
34.1251     82.731   157.445
34.6215     82.981   156.474
35.1250     83.223   155.596
35.6359     83.471   154.816
36.1543     83.730   154.085
36.6802     83.998   153.368
37.2137     84.279   152.649
37.7550     84.573   151.883
38.3041     84.872   151.058
38.8613     85.174   150.146
39.4265     85.475   149.198
40.0000     85.781   148.201
40.5818     86.088   147.106
41.1721     86.388   145.924
41.7710     86.679   144.683
42.3785     86.958   143.433
42.9949     87.234   142.203
43.6203     87.513   140.973
44.2548     87.798   139.707
44.8985     88.090   138.361
45.5515     88.383   136.839
46.2141     88.660   135.062
46.8863     88.873   133.093
47.5683     89.010   131.284
48.2602     89.107   130.058
48.9621     89.259   129.349
49.6743     89.465   128.715
50.3968     89.715   128.011
51.1299     89.992   127.175
51.8736     90.285   126.136
52.6281     90.576   124.917
53.3936     90.859   123.588
54.1702     91.134   122.193
54.9581     91.404   120.751
55.7575     91.670   119.261
56.5685     91.934   117.726
57.3914     92.198   116.142
58.2261     92.458   114.490
59.0730     92.712   112.757
59.9323     92.954   111.000
60.8040     93.196   109.203
61.6884     93.427   107.315
62.5857     93.645   105.426
63.4960     93.863   103.555
64.4196     94.088   101.627
65.3566     94.314    99.534
66.3073     94.521    97.209
67.2717     94.680    94.733
68.2502     94.780    92.322
69.2429     94.836    90.224
70.2501     94.895    88.602
71.2719     95.017    87.254
72.3086     95.202    85.678
73.3603     95.392    83.699
74.4274     95.552    81.488
75.5099     95.678    79.206
76.6083     95.782    76.907
77.7226     95.865    74.602
78.8531     95.926    72.304
80.0000     95.964    70.030
81.1636     95.974    67.757
82.3442     95.939    65.612
83.5419     95.881    63.821
84.7570     95.836    62.361
85.9899     95.822    61.084
87.2406     95.843    59.865
88.5096     95.893    58.601
89.7970     95.966    57.141
91.1031     96.035    55.465
92.4282     96.077    53.615
93.7726     96.088    51.768
95.1366     96.079    50.017
96.5204     96.062    48.328
97.9243     96.037    46.651
99.3486     95.997    45.024
100.794     95.947    43.463
102.260     95.881    41.980
103.747     95.806    40.667
105.256     95.740    39.539
106.787     95.692    38.486
108.340     95.660    37.398
109.916     95.626    36.221
111.515     95.579    35.028
113.137     95.513    33.878
114.783     95.430    32.849
116.452     95.358    32.172
118.146     95.315    31.560
119.865     95.312    30.872
121.608     95.322    30.089
123.377     95.334    29.089
125.171     95.331    27.970
126.992     95.284    26.777
128.839     95.206    25.948
130.713     95.131    25.476
132.615     95.106    25.041
134.543     95.132    24.493
136.500     95.168    23.719
138.486     95.192    22.748
140.500     95.196    21.743
142.544     95.197    20.795
144.617     95.207    19.690
146.721     95.167    18.267
148.855     95.059    17.113
151.020     94.935    16.489
153.217     94.861    16.233
155.445     94.846    15.904
157.706     94.847    15.384
160.000     94.869    14.812
162.327     94.890    13.754
164.688     94.835    12.634
167.084     94.750    11.854
169.514     94.666    11.276
171.980     94.586    10.896
174.481     94.537    10.724
177.019     94.528    10.480
179.594     94.522    10.066
182.206     94.508     9.691
184.856     94.503     9.397
187.545     94.518     9.169
190.273     94.578     8.853
193.041     94.659     8.107
195.849     94.689     6.907
198.697     94.632     5.834
201.587     94.555     5.343
204.520     94.523     5.176
207.494     94.549     5.010
210.512     94.614     4.611
213.574     94.687     3.972
216.681     94.768     3.107
219.833     94.851     1.975
223.030     94.870     0.298
226.274     94.814    -1.390
229.565     94.680    -2.815
232.905     94.514    -3.661
236.292     94.397    -4.063
239.729     94.330    -4.573
243.216     94.226    -5.463
246.754     94.047    -5.991
250.343     93.888    -5.854
253.984     93.777    -5.393
257.678     93.748    -4.670
261.426     93.780    -4.063
265.229     93.852    -3.462
269.087     94.012    -2.848
273.001     94.239    -3.274
276.972     94.380    -4.506
281.000     94.402    -5.608
285.088     94.389    -6.304
289.234     94.418    -6.567
293.441     94.506    -7.018
297.709     94.610    -7.891
302.040     94.683    -9.177
306.433     94.689   -10.640
310.890     94.649   -11.956
315.412     94.575   -13.172
320.000     94.478   -14.122
324.655     94.401   -14.759
329.377     94.353   -15.487
334.168     94.301   -16.287
339.028     94.247   -17.080
343.959     94.191   -17.886
348.962     94.134   -18.683
354.038     94.075   -19.493
359.188     94.010   -20.297
364.412     93.943   -21.075
369.713     93.876   -21.823
375.090     93.808   -22.542
380.546     93.739   -23.226
386.081     93.671   -23.885
391.697     93.605   -24.507
397.394     93.539   -25.109
403.175     93.475   -25.678
409.039     93.414   -26.221
414.989     93.356   -26.739
421.025     93.301   -27.235
427.149     93.250   -27.714
433.362     93.203   -28.175
439.665     93.161   -28.625
446.060     93.123   -29.067
452.548     93.089   -29.504
459.131     93.061   -29.943
465.809     93.037   -30.385
472.584     93.018   -30.837
479.458     93.003   -31.300
486.432     92.991   -31.776
493.507     92.983   -32.272
500.686     92.979   -32.788
507.968     92.976   -33.323
515.357     92.975   -33.881
522.853     92.975   -34.460
530.458     92.977   -35.058
538.174     92.979   -35.674
546.002     92.981   -36.306
553.943     92.983   -36.951
562.001     92.986   -37.605
570.175     92.988   -38.264
578.469     92.991   -38.927
586.883     92.995   -39.590
595.419     93.001   -40.250
604.080     93.010   -40.907
612.866     93.021   -41.561
621.780     93.038   -42.214
630.824     93.059   -42.870
640.000     93.087   -43.533
649.309     93.123   -44.213
658.753     93.168   -44.921
668.335     93.221   -45.667
678.056     93.282   -46.464
687.919     93.353   -47.326
697.925     93.430   -48.267
708.077     93.514   -49.301
718.376     93.601   -50.438
728.825     93.692   -51.690
739.426     93.781   -53.064
750.181     93.868   -54.565
761.093     93.948   -56.200
772.163     94.018   -57.965
783.394     94.075   -59.843
794.789     94.118   -61.825
806.349     94.142   -63.904
818.078     94.146   -66.064
829.977     94.127   -68.280
842.050     94.084   -70.534
854.298     94.014   -72.798
866.724     93.917   -75.042
879.330     93.795   -77.239
892.120     93.643   -79.340
905.097     93.473   -81.339
918.262     93.281   -83.177
931.618     93.074   -84.836
945.169     92.857   -86.294
958.917     92.639   -87.533
972.864     92.429   -88.548
987.015     92.234   -89.360
1001.37     92.064   -89.997
1015.94     91.924   -90.520
1030.71     91.819   -90.990
1045.71     91.748   -91.485
1060.92     91.706   -92.059
1076.35     91.686   -92.773
1092.00     91.681   -93.652
1107.89     91.677   -94.691
1124.00     91.667   -95.883
1140.35     91.646   -97.167
1156.94     91.602   -98.500
1173.77     91.547   -99.827
1190.84     91.468  -101.028
1208.16     91.384  -102.158
1225.73     91.300  -103.054
1243.56     91.224  -103.794
1261.65     91.177  -104.329
1280.00     91.162  -104.749
1298.62     91.214  -105.140
1317.51     91.273  -105.543
1336.67     91.395  -106.120
1356.11     91.548  -106.895
1375.84     91.722  -107.905
1395.85     91.907  -109.149
1416.15     92.098  -110.637
1436.75     92.289  -112.239
1457.65     92.481  -114.020
1478.85     92.676  -115.918
1500.36     92.877  -117.945
1522.19     93.088  -120.158
1544.33     93.307  -122.586
1566.79     93.528  -125.274
1589.58     93.742  -128.255
1612.70     93.937  -131.538
1636.16     94.100  -135.103
1659.95     94.219  -138.899
1684.10     94.285  -142.838
1708.60     94.293  -146.823
1733.45     94.247  -150.749
1758.66     94.155  -154.518
1784.24     94.028  -158.069
1810.19     93.884  -161.391
1836.52     93.738  -164.525
1863.24     93.594  -167.559
1890.34     93.452  -170.591
1917.83     93.297  -173.688
1945.73     93.109  -176.852
1974.03     92.869  -179.999
2002.74     92.559   177.074
2031.87     92.187   174.564
2061.43     91.773   172.724
2091.41     91.360   171.701
2121.83     91.002   171.453
2152.69     90.759   171.760
2184.01     90.590   172.212
2215.77     90.527   172.609
2248.00     90.502   172.958
2280.70     90.523   173.381
2313.87     90.610   174.033
2347.53     90.814   174.824
2381.68     91.182   175.260
2416.32     91.660   174.956
2451.46     92.201   173.201
2487.12     92.703   170.301
2523.30     93.058   166.215
2560.00     93.240   161.659
2597.24     93.226   157.129
2635.01     93.043   153.132
2673.34     92.732   150.360
2712.23     92.409   148.787
2751.68     92.195   148.582
2791.70     92.172   148.930
2832.31     92.365   148.918
2873.50     92.662   148.017
2915.30     92.986   146.058
2957.70     93.257   143.139
3000.72     93.415   139.616
3044.37     93.435   136.021
3088.65     93.368   132.750
3133.58     93.277   129.788
3179.16     93.190   126.890
3225.40     93.085   123.728
3272.31     92.903   120.220
3319.91     92.577   116.656
3368.20     92.086   113.632
3417.19     91.477   111.738
3466.89     90.841   111.217
3517.32     90.257   111.906
3568.48     89.760   113.650
3620.39     89.411   116.526
3673.05     89.344   120.138
3726.47     89.615   122.960
3780.67     90.020   123.253
3835.67     90.325   121.822
3891.46     90.269   119.704
3948.06     90.001   118.285
4005.49     89.716   119.280
4063.75     89.641   121.307
4122.86     89.782   122.994
4182.82     90.045   124.004
4243.66     90.431   124.142
4305.39     90.860   122.533
4368.01     91.100   118.891
4431.55     90.910   114.670
4496.01     90.409   111.951
4561.40     89.840   111.451
4627.75     89.319   111.777
4695.06     88.670   113.367
4763.35     88.084   118.792
4832.64     88.286   127.546
4902.93     89.261   130.524
4974.24     89.878   128.396
5046.60     89.771   126.944
5120.00     89.703   129.113
5194.47     90.184   131.875
5270.03     90.791   131.045
5346.68     91.114   128.882
5424.45     91.311   127.260
5503.35     91.572   125.252
5583.40     91.671   121.739
5664.61     91.434   118.504
5747.01     91.048   116.232
5830.60     90.544   114.914
5915.41     89.904   114.711
6001.45     89.135   116.968
6088.74     88.677   122.913
6177.30     88.839   129.384
6267.15     89.413   133.321
6358.31     90.018   134.207
6450.80     90.428   133.369
6544.62     90.602   132.321
6639.82     90.703   131.925
6736.40     90.831   131.236
6834.38     90.803   129.863
6933.79     90.611   129.386
7034.64     90.433   129.372
7136.96     90.093   129.623
7240.77     89.721   132.361
7346.09     89.637   136.000
7452.94     89.710   139.565
7561.35     90.037   142.863
7671.33     90.467   144.808
7782.91     90.885   145.563
7896.12     91.330   145.146
8010.97     91.406   143.536
8127.49     91.425   143.926
8245.71     91.480   143.282
8365.65     91.340   143.763
8487.33     91.260   144.991
8610.78     91.261   147.412
8736.03     91.535   149.678
8863.09     91.918   151.003
8992.01     92.470   151.012
9122.80     92.838   148.037
9255.50     92.772   144.234
9390.12     92.257   141.381
9526.70     91.453   142.692
9665.27     91.056   148.090
9805.86     91.281   152.985
9948.49     91.733   154.880
10093.2     91.975   154.993
10240.0     92.124   155.517
10388.9     92.342   156.160
10540.1     92.595   155.414
10693.4     92.603   153.709
10848.9     92.338   152.937
11006.7     92.086   154.288
11166.8     92.023   155.965
11329.2     91.995   157.052
11494.0     91.944   158.446
11661.2     92.162   160.372
11830.8     92.414   160.283
12002.9     92.395   157.374
12177.5     91.897   155.831
12354.6     91.312   159.209
12534.3     91.231   163.816
12716.6     91.582   165.906
12901.6     91.793   165.785
13089.2     91.919   165.208
13279.6     91.875   163.669
13472.8     91.497   162.262
13668.8     90.929   163.534
13867.6     90.655   167.132
14069.3     90.686   169.193
14273.9     90.617   169.512
14481.5     90.491   170.746
14692.2     90.396   170.886
14905.9     90.033   171.362
15122.7     89.696   173.841
15342.7     89.623   176.831
15565.8     89.745   177.935
15792.2     89.751   177.293
16021.9     89.528   175.750
16255.0     88.923   174.923
16491.4     88.337   178.019
16731.3     88.322  -179.809
16974.7     88.219   178.408
17221.6     87.562   175.815
17472.1     86.454   175.918
17726.2     85.399  -179.251
17984.0     85.051  -173.460
18245.6     84.921  -172.768
18511.0     84.134  -173.739
18780.2     82.923  -170.499
19053.4     82.041  -163.413
19330.5     81.749  -157.291
19611.7     81.523  -155.253
19897.0     80.800  -154.329
20186.4     79.795  -150.182
20480.0     79.055  -144.395
20777.9     78.528  -140.434
21080.1     77.709  -138.353
21386.7     76.422  -134.656
21697.8     75.135  -125.761
22013.4     74.080  -116.465
22333.6     73.137  -106.749
22658.4     72.306   -95.258
22988.0     71.830   -81.910
23322.4     71.879   -70.811
23661.6     71.756   -63.586
24005.8     71.231   -55.722
24355.0     70.974   -40.939
24709.2     71.695   -27.489
25068.6     72.123   -24.095
25433.2     71.692   -20.465
25803.2     70.992   -12.679
26178.5     70.045    -0.222
26559.3     70.512    25.726
26945.6     72.924    44.200
27337.5     74.724    43.385
27735.2     75.276    40.676
28138.6     75.233    43.084
28547.9     75.459    49.223
28963.1     76.013    53.024
29384.4     76.656    56.513
29811.8     77.212    55.993
30245.4     77.245    54.268
30685.3     76.950    55.528
31131.7     77.057    55.607
31584.5     76.676    52.546
32043.9     75.862    51.163
32510.0     75.072    50.212
32982.8     73.995    48.222
33462.6     72.619    46.112
33949.3     70.795    43.738
34443.1     68.535    42.433
34944.1     66.006    38.370
35452.4     62.673    26.500
35968.0     59.032   -13.688
36491.2     59.349   -95.471
37022.0     62.085  -124.147
37560.5     64.193  -133.905
38106.8     65.490  -139.673
38661.1     66.062  -143.608
39223.4     65.862  -145.380
39793.9     65.358  -145.305
