Freq[Hz]     dBSPL  Phase[Deg]
5.00000     42.463  -138.797
5.07273     42.808  -138.985
5.14651     43.152  -139.175
5.22137     43.511  -134.998
5.29732     43.885  -131.233
5.37437     44.303  -128.804
5.45254     44.834  -127.786
5.53185     45.464  -127.883
5.61231     46.091  -128.531
5.69394     46.636  -129.450
5.77676     47.012  -130.673
5.86079     47.273  -132.164
5.94604     47.455  -133.648
6.03252     47.592  -134.825
6.12027     47.692  -135.410
6.20929     47.754  -135.500
6.29961     47.819  -135.213
6.39124     47.967  -134.575
6.48420     48.218  -133.577
6.57851     48.551  -132.394
6.67420     48.946  -131.391
6.77128     49.398  -130.807
6.86977     49.904  -130.628
6.96969     50.433  -130.812
7.07107     50.938  -131.376
7.17392     51.404  -132.318
7.27827     51.835  -133.513
7.38413     52.225  -134.782
7.49154     52.570  -136.058
7.60050     52.870  -137.330
7.71105     53.151  -138.489
7.82321     53.420  -139.493
7.93701     53.683  -140.365
8.05245     53.949  -141.135
8.16958     54.229  -141.827
8.28841     54.519  -142.469
8.40896     54.815  -143.107
8.53128     55.114  -143.779
8.65537     55.411  -144.464
8.78126     55.702  -145.139
8.90899     55.981  -145.786
9.03857     56.256  -146.386
9.17004     56.531  -146.887
9.30342     56.809  -147.305
9.43874     57.101  -147.668
9.57603     57.413  -147.998
9.71532     57.740  -148.348
9.85663     58.079  -148.774
10.0000     58.427  -149.279
10.1455     58.770  -149.873
10.2930     59.101  -150.536
10.4427     59.422  -151.210
10.5946     59.731  -151.864
10.7487     60.035  -152.488
10.9051     60.343  -153.072
11.0637     60.652  -153.636
11.2246     60.965  -154.203
11.3879     61.277  -154.770
11.5535     61.583  -155.318
11.7216     61.885  -155.846
11.8921     62.193  -156.310
12.0650     62.504  -156.755
12.2405     62.834  -157.218
12.4186     63.173  -157.724
12.5992     63.515  -158.348
12.7825     63.849  -159.041
12.9684     64.159  -159.749
13.1570     64.467  -160.453
13.3484     64.768  -161.043
13.5426     65.085  -161.601
13.7395     65.427  -162.226
13.9394     65.787  -163.049
14.1421     66.127  -164.158
14.3478     66.441  -165.383
14.5565     66.684  -166.633
14.7683     66.878  -167.700
14.9831     67.055  -168.372
15.2010     67.275  -168.770
15.4221     67.548  -169.158
15.6464     67.848  -169.732
15.8740     68.137  -170.527
16.1049     68.387  -171.435
16.3392     68.604  -172.317
16.5768     68.808  -173.101
16.8179     69.007  -173.796
17.0626     69.190  -174.399
17.3107     69.348  -174.807
17.5625     69.500  -174.901
17.8180     69.689  -174.683
18.0771     69.943  -174.341
18.3401     70.253  -174.104
18.6068     70.589  -174.111
18.8775     70.930  -174.366
19.1521     71.262  -174.814
19.4306     71.577  -175.374
19.7133     71.871  -175.951
20.0000     72.155  -176.473
20.2909     72.446  -176.938
20.5860     72.750  -177.421
20.8855     73.056  -177.969
21.1893     73.358  -178.571
21.4975     73.655  -179.201
21.8102     73.953  -179.844
22.1274     74.248   179.476
22.4492     74.540   178.777
22.7758     74.825   178.063
23.1071     75.105   177.353
23.4432     75.383   176.657
23.7841     75.659   175.971
24.1301     75.933   175.290
24.4811     76.203   174.637
24.8372     76.471   174.023
25.1984     76.748   173.447
25.5649     77.031   172.864
25.9368     77.316   172.266
26.3141     77.602   171.670
26.6968     77.895   171.077
27.0851     78.198   170.445
27.4791     78.503   169.704
27.8788     78.798   168.877
28.2843     79.074   168.055
28.6957     79.345   167.285
29.1131     79.618   166.560
29.5365     79.897   165.836
29.9661     80.169   165.123
30.4020     80.449   164.445
30.8442     80.741   163.740
31.2929     81.034   162.985
31.7480     81.328   162.177
32.2098     81.622   161.316
32.6783     81.912   160.397
33.1536     82.193   159.434
33.6359     82.467   158.447
34.1251     82.731   157.445
34.6215     82.981   156.474
35.1250     83.223   155.596
35.6359     83.471   154.816
36.1543     83.730   154.085
36.6802     83.998   153.368
37.2137     84.279   152.649
37.7550     84.573   151.883
38.3041     84.872   151.058
38.8613     85.174   150.146
39.4265     85.475   149.198
40.0000     85.781   148.201
40.5818     86.088   147.101
41.1721     86.386   145.904
41.7710     86.675   144.640
42.3785     86.952   143.357
42.9949     87.224   142.086
43.6203     87.499   140.807
44.2548     87.778   139.483
44.8985     88.063   138.072
45.5515     88.349   136.477
46.2141     88.617   134.621
46.8863     88.822   132.564
47.5683     88.949   130.662
48.2602     89.035   129.336
48.9621     89.176   128.520
49.6743     89.368   127.773
50.3968     89.605   126.950
51.1299     89.867   125.988
51.8736     90.144   124.818
52.6281     90.419   123.462
53.3936     90.685   121.989
54.1702     90.941   120.445
54.9581     91.192   118.849
55.7575     91.438   117.198
56.5685     91.681   115.498
57.3914     91.922   113.743
58.2261     92.160   111.913
59.0730     92.389   109.998
59.9323     92.607   108.053
60.8040     92.824   106.062
61.6884     93.028   103.975
62.5857     93.219   101.881
63.4960     93.408    99.800
64.4196     93.604    97.656
65.3566     93.800    95.341
66.3073     93.975    92.788
67.2717     94.102    90.078
68.2502     94.170    87.427
69.2429     94.193    85.083
70.2501     94.216    83.209
71.2719     94.304    81.602
72.3086     94.453    79.761
73.3603     94.606    77.512
74.4274     94.728    75.022
75.5099     94.816    72.455
76.6083     94.880    69.864
77.7226     94.923    67.261
78.8531     94.943    64.656
80.0000     94.939    62.069
81.1636     94.907    59.475
82.3442     94.829    57.000
83.5419     94.727    54.872
84.7570     94.637    53.066
85.9899     94.579    51.435
87.2406     94.553    49.853
88.5096     94.556    48.218
89.7970     94.581    46.376
91.1031     94.603    44.311
92.4282     94.596    42.061
93.7726     94.557    39.805
95.1366     94.498    37.634
96.5204     94.430    35.516
97.9243     94.353    33.398
99.3486     94.262    31.320
100.794     94.159    29.296
102.260     94.040    27.340
103.747     93.911    25.541
105.256     93.790    23.915
106.787     93.687    22.352
108.340     93.600    20.741
109.916     93.511    19.028
111.515     93.407    17.286
113.137     93.284    15.573
114.783     93.143    13.970
116.452     93.013    12.701
118.146     92.911    11.485
119.865     92.850    10.176
121.608     92.800     8.759
123.377     92.752     7.109
125.171     92.689     5.326
126.992     92.583     3.449
128.839     92.443     1.922
130.713     92.307     0.737
132.615     92.221    -0.430
134.543     92.184    -1.726
136.500     92.158    -3.265
138.486     92.120    -5.020
140.500     92.062    -6.825
142.544     92.000    -8.592
144.617     91.947   -10.534
146.721     91.843   -12.811
148.855     91.671   -14.840
151.020     91.485   -16.357
153.217     91.346   -17.521
155.445     91.268   -18.780
157.706     91.204   -20.247
160.000     91.162   -21.784
162.327     91.119   -23.828
164.688     91.001   -25.950
167.084     90.852   -27.752
169.514     90.704   -29.368
171.980     90.560   -30.807
174.481     90.447   -32.054
177.019     90.375   -33.391
179.594     90.305   -34.914
182.206     90.229   -36.416
184.856     90.160   -37.852
187.545     90.113   -39.238
190.273     90.110   -40.727
193.041     90.128   -42.662
195.849     90.096   -45.065
198.697     89.978   -47.354
201.587     89.839   -49.074
204.520     89.747   -50.483
207.494     89.713   -51.900
210.512     89.717   -53.563
213.574     89.732   -55.474
216.681     89.754   -57.622
219.833     89.778   -60.043
223.030     89.740   -63.020
226.274     89.628   -66.012
229.565     89.436   -68.747
232.905     89.215   -70.908
236.292     89.042   -72.631
239.729     88.921   -74.465
243.216     88.764   -76.681
246.754     88.531   -78.538
250.343     88.319   -79.733
253.984     88.156   -80.605
257.678     88.075   -81.235
261.426     88.054   -81.989
265.229     88.074   -82.744
269.087     88.183   -83.477
273.001     88.361   -85.238
276.972     88.453   -87.789
281.000     88.428   -90.199
285.088     88.369   -92.186
289.234     88.352   -93.735
293.441     88.395   -95.470
297.709     88.452   -97.627
302.040     88.478  -100.206
306.433     88.434  -102.990
310.890     88.341  -105.661
315.412     88.208  -108.266
320.000     88.050  -110.637
324.655     87.907  -112.729
329.377     87.787  -114.947
334.168     87.659  -117.270
339.028     87.523  -119.619
343.959     87.380  -122.014
348.962     87.227  -124.433
354.038     87.066  -126.895
359.188     86.890  -129.382
364.412     86.703  -131.869
369.713     86.506  -134.352
375.090     86.297  -136.826
380.546     86.076  -139.285
386.081     85.846  -141.728
391.697     85.601  -144.141
397.394     85.347  -146.532
403.175     85.079  -148.878
409.039     84.800  -151.178
414.989     84.508  -153.423
421.025     84.204  -155.597
427.149     83.888  -157.700
433.362     83.562  -159.707
439.665     83.224  -161.605
446.060     82.878  -163.393
452.548     82.524  -165.042
459.131     82.164  -166.524
465.809     81.802  -167.855
472.584     81.440  -168.989
479.458     81.084  -169.930
486.432     80.736  -170.684
493.507     80.405  -171.208
500.686     80.095  -171.525
507.968     79.812  -171.664
515.357     79.567  -171.630
522.853     79.362  -171.476
530.458     79.200  -171.257
538.174     79.086  -171.028
546.002     79.022  -170.863
553.943     79.004  -170.827
562.001     79.028  -170.973
570.175     79.084  -171.313
578.469     79.176  -171.969
586.883     79.290  -172.912
595.419     79.418  -174.144
604.080     79.557  -175.655
612.866     79.699  -177.470
621.780     79.840  -179.567
630.824     79.974   178.041
640.000     80.099   175.415
649.309     80.211   172.535
658.753     80.307   169.443
668.335     80.387   166.153
678.056     80.448   162.684
687.919     80.489   159.048
697.925     80.509   155.261
708.077     80.507   151.337
718.376     80.483   147.286
728.825     80.437   143.122
739.426     80.367   138.855
750.181     80.272   134.493
761.093     80.153   130.042
772.163     80.008   125.514
783.394     79.838   120.921
794.789     79.643   116.272
806.349     79.422   111.569
818.078     79.173   106.820
829.977     78.897   102.035
842.050     78.593    97.221
854.298     78.257    92.384
866.724     77.888    87.537
879.330     77.488    82.688
892.120     77.046    77.855
905.097     76.573    73.047
918.262     76.055    68.293
931.618     75.494    63.614
945.169     74.886    59.042
958.917     74.226    54.624
972.864     73.510    50.422
987.015     72.736    46.510
1001.37     71.896    43.028
1015.94     70.995    40.096
1030.71     70.034    37.950
1045.71     69.027    36.965
1060.92     68.009    37.406
1076.35     67.045    39.929
1092.00     66.243    44.873
1107.89     65.722    52.000
1124.00     65.626    60.178
1140.35     65.891    67.754
1156.94     66.527    72.654
1173.77     67.303    75.750
1190.84     68.185    75.596
1208.16     69.070    74.490
1225.73     69.915    71.406
1243.56     70.720    67.416
1261.65     71.455    62.363
1280.00     72.132    56.613
1298.62     72.711    49.887
1317.51     73.281    43.079
1336.67     73.750    35.427
1356.11     74.155    27.294
1375.84     74.489    18.683
1395.85     74.749     9.611
1416.15     74.916     0.029
1436.75     75.029    -9.816
1457.65     75.038   -20.128
1478.85     74.965   -30.763
1500.36     74.798   -41.726
1522.19     74.515   -53.025
1544.33     74.121   -64.588
1566.79     73.612   -76.371
1589.58     72.979   -88.332
1612.70     72.211  -100.422
1636.16     71.296  -112.581
1659.95     70.223  -124.740
1684.10     68.975  -136.793
1708.60     67.532  -148.625
1733.45     65.872  -160.080
1758.66     63.967  -170.936
1784.24     61.780   179.131
1810.19     59.267   170.655
1836.52     56.400   164.776
1863.24     53.284   165.067
1890.34     50.576  -168.964
1917.83     49.606  -111.551
1945.73     50.633   -83.373
1974.03     52.397   -79.216
2002.74     54.062   -80.476
2031.87     55.522   -82.922
2061.43     56.839   -85.474
2091.41     58.114   -87.698
2121.83     59.427   -89.828
2152.69     60.825   -93.076
2184.01     62.262   -97.545
2215.77     63.690  -105.072
2248.00     65.063  -114.337
2280.70     66.290  -125.847
2313.87     67.340  -138.817
2347.53     68.188  -152.735
2381.68     68.801  -167.121
2416.32     69.230   178.532
2451.46     69.432   164.904
2487.12     69.500   152.446
2523.30     69.476   142.463
2560.00     69.491   135.205
2597.24     69.654   130.496
2635.01     70.025   126.757
2673.34     70.623   121.130
2712.23     71.310   112.725
2751.68     71.979   100.878
2791.70     72.526    86.765
2832.31     72.864    70.938
2873.50     72.995    54.249
2915.30     72.896    37.089
2957.70     72.562    19.908
3000.72     71.996     3.222
3044.37     71.208   -12.138
3088.65     70.254   -25.844
3133.58     69.175   -38.675
3179.16     67.905   -52.516
3225.40     66.312   -69.585
3272.31     64.143   -92.199
3319.91     61.243  -125.939
3368.20     58.819   166.525
3417.19     59.266    74.822
3466.89     62.092    19.574
3517.32     64.255   -17.828
3568.48     65.238   -52.523
3620.39     65.117   -87.212
3673.05     63.863  -123.542
3726.47     61.314  -164.627
3780.67     59.126   143.476
3835.67     59.467    86.241
3891.46     63.927    35.186
3948.06     67.957    -7.565
4005.49     70.625   -44.998
4063.75     72.440   -81.475
4122.86     73.505  -117.781
4182.82     73.901  -153.626
4243.66     73.688   171.888
4305.39     72.990   139.878
4368.01     71.858   111.067
4431.55     70.303    83.206
4496.01     68.308    51.199
4561.40     65.531    10.025
4627.75     61.835   -40.820
4695.06     57.125  -103.915
4763.35     52.778  -174.229
4832.64     50.430   114.093
4902.93     50.782    33.106
4974.24     54.623   -51.052
5046.60     59.424  -113.766
5120.00     62.941  -164.742
5194.47     64.857   145.404
5270.03     65.153    91.678
5346.68     63.856    29.940
5424.45     62.100   -53.588
5503.35     63.282   116.186
5583.40     66.493   121.298
5664.61     68.564    62.134
5747.01     69.392    11.613
5830.60     69.139   -31.007
5915.41     68.071   -64.527
6001.45     66.458   -88.041
6088.74     64.522  -103.403
6177.30     62.213  -118.279
6267.15     59.475  -160.488
6358.31     59.783   122.883
6450.80     63.164    37.779
6544.62     66.622   -40.804
6639.82     68.095  -112.941
6736.40     67.598   175.620
6834.38     65.193    98.140
6933.79     61.401    -7.119
7034.64     58.373  -135.855
7136.96     57.894   136.632
7240.77     58.284   123.539
7346.09     58.373   134.137
7452.94     57.380    66.310
7561.35     54.501   -31.669
7671.33     52.070  -151.209
7782.91     51.897   111.480
7896.12     53.567    94.018
8010.97     55.135   100.667
8127.49     56.211    34.348
8245.71     56.487    41.179
8365.65     55.550   -23.072
8487.33     53.152  -127.534
8610.78     51.510    34.922
8736.03     52.565   -43.162
8863.09     53.905   -41.124
8992.01     54.670   -75.571
9122.80     53.943  -140.735
9255.50     51.287   135.691
9390.12     49.519    13.432
9526.70     50.583   -26.586
9665.27     50.193   134.655
9805.86     48.472   -38.970
9948.49     47.290   158.486
10093.2     47.084   167.341
10240.0     47.145   155.001
10388.9     46.706    76.681
10540.1     46.589   -93.320
10693.4     47.011   -13.380
10848.9     46.185    20.898
11006.7     44.818    95.245
11166.8     45.240    66.214
11329.2     45.611    22.474
11494.0     44.675   -28.450
11661.2     42.526    23.796
11830.8     41.674   -28.623
12002.9     41.926   -88.483
12177.5     41.042   158.862
12354.6     39.590    20.919
12534.3     37.809   -16.614
12716.6     37.050    85.518
12901.6     39.067   -40.850
13089.2     41.485   -91.368
13279.6     42.392  -138.368
13472.8     42.846  -163.644
13668.8     44.599   173.880
13867.6     46.882   160.417
14069.3     47.731   120.666
14273.9     47.432    90.346
14481.5     45.754    16.128
14692.2     42.658     3.833
14905.9     41.257   -33.139
15122.7     40.842    54.633
15342.7     41.819   100.117
15565.8     44.102   -37.432
15792.2     45.379  -113.038
16021.9     45.341  -141.114
16255.0     45.370  -160.740
16491.4     45.215   151.714
16731.3     44.752   131.892
16974.7     43.927    64.060
17221.6     42.926    56.784
17472.1     41.735    -4.810
17726.2     38.802  -104.548
17984.0     34.387    67.280
18245.6     34.429    30.349
18511.0     36.272  -101.513
18780.2     36.691   108.322
19053.4     36.854  -140.325
19330.5     36.219   128.748
19611.7     35.267   109.063
19897.0     35.215    81.620
20186.4     34.265   -70.686
20480.0     31.054   -29.324
20777.9     28.109    93.417
21080.1     29.888  -168.000
21386.7     33.886    22.841
21697.8     35.683    89.859
22013.4     37.359   138.002
22333.6     38.494  -151.869
22658.4     37.665   -75.681
22988.0     35.597  -134.100
23322.4     35.096   115.433
23661.6     35.313    18.012
24005.8     34.240   102.336
24355.0     32.604   -10.579
24709.2     32.678   -75.100
25068.6     34.342    67.384
25433.2     35.366   -16.577
25803.2     34.576   177.099
26178.5     32.944    55.287
26559.3     32.011  -123.219
26945.6     32.443     9.617
27337.5     33.003  -119.508
27735.2     34.025    45.368
28138.6     35.336    96.060
28547.9     35.474   -24.718
28963.1     33.425   104.217
29384.4     30.332  -139.030
29811.8     29.056   -29.657
30245.4     29.316    69.946
30685.3     29.182   165.168
31131.7     29.709   -99.298
31584.5     32.825   -15.670
32043.9     37.011    54.812
32510.0     39.395   167.764
32982.8     39.914  -134.228
33462.6     38.510  -128.474
33949.3     35.290  -111.155
34443.1     31.394   -52.432
34944.1     27.607  -111.017
35452.4     24.576    64.520
35968.0     23.672  -106.174
36491.2     23.652   -22.134
37022.0     21.232   -35.341
37560.5     18.597  -153.881
38106.8     16.458   -46.319
38661.1     15.506    41.191
39223.4     16.937   -74.446
39793.9     18.224   166.059
