Freq[Hz]     dBSPL  Phase[Deg]
5.00000     42.463  -138.797
5.07273     42.808  -138.985
5.14651     43.152  -139.175
5.22137     43.511  -134.998
5.29732     43.885  -131.233
5.37437     44.303  -128.804
5.45254     44.834  -127.786
5.53185     45.464  -127.883
5.61231     46.091  -128.531
5.69394     46.636  -129.450
5.77676     47.012  -130.673
5.86079     47.273  -132.164
5.94604     47.455  -133.648
6.03252     47.592  -134.825
6.12027     47.692  -135.410
6.20929     47.754  -135.500
6.29961     47.819  -135.213
6.39124     47.967  -134.575
6.48420     48.218  -133.577
6.57851     48.551  -132.394
6.67420     48.946  -131.391
6.77128     49.398  -130.807
6.86977     49.904  -130.628
6.96969     50.433  -130.812
7.07107     50.938  -131.376
7.17392     51.404  -132.318
7.27827     51.835  -133.513
7.38413     52.225  -134.782
7.49154     52.570  -136.058
7.60050     52.870  -137.330
7.71105     53.151  -138.489
7.82321     53.420  -139.493
7.93701     53.683  -140.365
8.05245     53.949  -141.135
8.16958     54.229  -141.827
8.28841     54.519  -142.469
8.40896     54.815  -143.107
8.53128     55.114  -143.779
8.65537     55.411  -144.464
8.78126     55.702  -145.139
8.90899     55.981  -145.786
9.03857     56.256  -146.386
9.17004     56.531  -146.887
9.30342     56.809  -147.305
9.43874     57.101  -147.668
9.57603     57.413  -147.998
9.71532     57.740  -148.348
9.85663     58.079  -148.774
10.0000     58.427  -149.279
10.1455     58.770  -149.873
10.2930     59.101  -150.536
10.4427     59.422  -151.210
10.5946     59.731  -151.864
10.7487     60.035  -152.488
10.9051     60.343  -153.072
11.0637     60.652  -153.636
11.2246     60.965  -154.203
11.3879     61.277  -154.770
11.5535     61.583  -155.318
11.7216     61.885  -155.846
11.8921     62.193  -156.310
12.0650     62.504  -156.755
12.2405     62.834  -157.218
12.4186     63.173  -157.724
12.5992     63.515  -158.348
12.7825     63.849  -159.041
12.9684     64.159  -159.749
13.1570     64.467  -160.453
13.3484     64.768  -161.043
13.5426     65.085  -161.601
13.7395     65.427  -162.226
13.9394     65.787  -163.049
14.1421     66.127  -164.158
14.3478     66.441  -165.383
14.5565     66.684  -166.633
14.7683     66.878  -167.700
14.9831     67.055  -168.372
15.2010     67.275  -168.770
15.4221     67.548  -169.158
15.6464     67.848  -169.732
15.8740     68.137  -170.527
16.1049     68.387  -171.435
16.3392     68.604  -172.317
16.5768     68.808  -173.101
16.8179     69.007  -173.796
17.0626     69.190  -174.399
17.3107     69.348  -174.807
17.5625     69.500  -174.901
17.8180     69.689  -174.683
18.0771     69.943  -174.341
18.3401     70.253  -174.104
18.6068     70.589  -174.111
18.8775     70.930  -174.366
19.1521     71.262  -174.814
19.4306     71.577  -175.374
19.7133     71.871  -175.951
20.0000     72.155  -176.473
20.2909     72.446  -176.938
20.5860     72.750  -177.421
20.8855     73.056  -177.969
21.1893     73.358  -178.571
21.4975     73.655  -179.201
21.8102     73.953  -179.844
22.1274     74.248   179.476
22.4492     74.540   178.777
22.7758     74.825   178.063
23.1071     75.105   177.353
23.4432     75.383   176.657
23.7841     75.659   175.971
24.1301     75.933   175.290
24.4811     76.203   174.637
24.8372     76.471   174.023
25.1984     76.748   173.447
25.5649     77.031   172.864
25.9368     77.316   172.266
26.3141     77.602   171.670
26.6968     77.895   171.077
27.0851     78.198   170.445
27.4791     78.503   169.704
27.8788     78.798   168.877
28.2843     79.074   168.055
28.6957     79.345   167.285
29.1131     79.618   166.560
29.5365     79.897   165.836
29.9661     80.169   165.123
30.4020     80.449   164.445
30.8442     80.741   163.740
31.2929     81.034   162.985
31.7480     81.328   162.177
32.2098     81.622   161.316
32.6783     81.912   160.397
33.1536     82.193   159.434
33.6359     82.467   158.447
34.1251     82.731   157.445
34.6215     82.981   156.474
35.1250     83.223   155.596
35.6359     83.471   154.816
36.1543     83.730   154.085
36.6802     83.998   153.368
37.2137     84.279   152.649
37.7550     84.573   151.883
38.3041     84.872   151.058
38.8613     85.174   150.146
39.4265     85.475   149.198
40.0000     85.781   148.201
40.5818     86.088   147.100
41.1721     86.386   145.901
41.7710     86.675   144.633
42.3785     86.951   143.345
42.9949     87.224   142.068
43.6203     87.498   140.781
44.2548     87.776   139.448
44.8985     88.061   138.028
45.5515     88.347   136.424
46.2141     88.614   134.557
46.8863     88.817   132.489
47.5683     88.942   130.575
48.2602     89.027   129.236
48.9621     89.166   128.407
49.6743     89.357   127.647
50.3968     89.591   126.810
51.1299     89.851   125.835
51.8736     90.125   124.650
52.6281     90.396   123.280
53.3936     90.658   121.793
54.1702     90.911   120.235
54.9581     91.158   118.624
55.7575     91.400   116.960
56.5685     91.638   115.245
57.3914     91.874   113.476
58.2261     92.106   111.633
59.0730     92.330   109.705
59.9323     92.541   107.746
60.8040     92.751   105.743
61.6884     92.948   103.643
62.5857     93.132   101.537
63.4960     93.313    99.443
64.4196     93.501    97.289
65.3566     93.688    94.962
66.3073     93.855    92.399
67.2717     93.972    89.680
68.2502     94.030    87.019
69.2429     94.043    84.666
70.2501     94.056    82.785
71.2719     94.132    81.171
72.3086     94.270    79.323
73.3603     94.411    77.067
74.4274     94.520    74.572
75.5099     94.595    72.000
76.6083     94.646    69.406
77.7226     94.675    66.799
78.8531     94.681    64.192
80.0000     94.663    61.603
81.1636     94.616    59.007
82.3442     94.522    56.533
83.5419     94.404    54.406
84.7570     94.298    52.601
85.9899     94.222    50.974
87.2406     94.179    49.395
88.5096     94.164    47.764
89.7970     94.171    45.929
91.1031     94.173    43.868
92.4282     94.147    41.627
93.7726     94.088    39.377
95.1366     94.009    37.215
96.5204     93.921    35.106
97.9243     93.822    32.999
99.3486     93.709    30.932
100.794     93.584    28.920
102.260     93.442    26.976
103.747     93.290    25.190
105.256     93.145    23.579
106.787     93.018    22.030
108.340     92.906    20.434
109.916     92.791    18.738
111.515     92.662    17.013
113.137     92.513    15.317
114.783     92.345    13.732
116.452     92.188    12.481
118.146     92.059    11.282
119.865     91.969     9.994
121.608     91.890     8.595
123.377     91.814     6.964
125.171     91.722     5.199
126.992     91.585     3.343
128.839     91.415     1.835
130.713     91.248     0.668
132.615     91.130    -0.479
134.543     91.062    -1.756
136.500     91.004    -3.277
138.486     90.933    -5.012
140.500     90.841    -6.799
142.544     90.746    -8.548
144.617     90.659   -10.474
146.721     90.522   -12.736
148.855     90.315   -14.748
151.020     90.093   -16.249
153.217     89.920   -17.399
155.445     89.806   -18.644
157.706     89.706   -20.098
160.000     89.629   -21.622
162.327     89.549   -23.653
164.688     89.394   -25.764
167.084     89.209   -27.555
169.514     89.024   -29.160
171.980     88.843   -30.588
174.481     88.693   -31.823
177.019     88.583   -33.148
179.594     88.477   -34.660
182.206     88.362   -36.148
184.856     88.256   -37.568
187.545     88.173   -38.939
190.273     88.133   -40.409
193.041     88.115   -42.323
195.849     88.046   -44.700
198.697     87.891   -46.961
201.587     87.717   -48.647
204.520     87.589   -50.018
207.494     87.520   -51.392
210.512     87.491   -53.004
213.574     87.471   -54.856
216.681     87.460   -56.938
219.833     87.452   -59.284
223.030     87.383   -62.175
226.274     87.240   -65.071
229.565     87.021   -67.698
232.905     86.771   -69.738
236.292     86.572   -71.325
239.729     86.427   -73.009
243.216     86.245   -75.059
246.754     85.992   -76.732
250.343     85.760   -77.724
253.984     85.579   -78.377
257.678     85.481   -78.771
261.426     85.446   -79.270
265.229     85.454   -79.748
269.087     85.555   -80.176
273.001     85.727   -81.602
276.972     85.819   -83.789
281.000     85.796   -85.803
285.088     85.743   -87.365
289.234     85.738   -88.455
293.441     85.796   -89.698
297.709     85.873   -91.335
302.040     85.922   -93.367
306.433     85.905   -95.580
310.890     85.842   -97.654
315.412     85.744   -99.634
320.000     85.624  -101.356
324.655     85.525  -102.769
329.377     85.455  -104.281
334.168     85.382  -105.868
339.028     85.310  -107.453
343.959     85.236  -109.055
348.962     85.162  -110.652
354.038     85.088  -112.264
359.188     85.009  -113.875
364.412     84.932  -115.463
369.713     84.856  -117.025
375.090     84.783  -118.561
380.546     84.713  -120.069
386.081     84.647  -121.557
391.697     84.588  -123.019
397.394     84.533  -124.469
403.175     84.486  -125.901
409.039     84.447  -127.324
414.989     84.418  -128.744
421.025     84.398  -130.168
427.149     84.387  -131.603
433.362     84.388  -133.060
439.665     84.401  -134.549
446.060     84.424  -136.076
452.548     84.458  -137.654
459.131     84.504  -139.301
465.809     84.559  -141.013
472.584     84.625  -142.812
479.458     84.699  -144.701
486.432     84.780  -146.680
493.507     84.869  -148.776
500.686     84.962  -150.987
507.968     85.060  -153.309
515.357     85.160  -155.762
522.853     85.260  -158.342
530.458     85.361  -161.042
538.174     85.459  -163.871
546.002     85.555  -166.836
553.943     85.645  -169.929
562.001     85.728  -173.146
570.175     85.806  -176.470
578.469     85.875  -179.938
586.883     85.933   176.479
595.419     85.981   172.786
604.080     86.019   168.991
612.866     86.043   165.087
621.780     86.055   161.081
630.824     86.049   156.969
640.000     86.031   152.772
649.309     85.995   148.480
658.753     85.941   144.108
668.335     85.870   139.661
678.056     85.780   135.144
687.919     85.672   130.565
697.925     85.542   125.930
708.077     85.393   121.245
718.376     85.222   116.520
728.825     85.030   111.761
739.426     84.815   106.979
750.181     84.578   102.181
761.093     84.315    97.380
772.163     84.028    92.587
783.394     83.719    87.814
794.789     83.387    83.070
806.349     83.032    78.370
818.078     82.653    73.729
829.977     82.252    69.156
842.050     81.831    64.664
854.298     81.388    60.271
866.724     80.927    55.987
879.330     80.450    51.812
892.120     79.957    47.779
905.097     79.452    43.854
918.262     78.937    40.068
931.618     78.414    36.403
945.169     77.885    32.851
958.917     77.351    29.403
972.864     76.812    26.046
987.015     76.269    22.762
1001.37     75.718    19.544
1015.94     75.161    16.381
1030.71     74.592    13.273
1045.71     74.011    10.244
1060.92     73.416     7.302
1076.35     72.806     4.499
1092.00     72.183     1.886
1107.89     71.554    -0.495
1124.00     70.930    -2.558
1140.35     70.322    -4.340
1156.94     69.763    -5.761
1173.77     69.244    -7.018
1190.84     68.838    -8.241
1208.16     68.478    -9.563
1225.73     68.239   -11.513
1243.56     68.064   -14.067
1261.65     67.961   -17.770
1280.00     67.893   -22.535
1298.62     67.848   -29.178
1317.51     67.803   -36.002
1336.67     67.767   -44.734
1356.11     67.746   -54.634
1375.84     67.760   -65.693
1395.85     67.841   -77.795
1416.15     68.046   -90.857
1436.75     68.331  -104.279
1457.65     68.776  -118.072
1478.85     69.335  -131.858
1500.36     69.998  -145.417
1522.19     70.734  -158.509
1544.33     71.492  -171.143
1566.79     72.242   176.662
1589.58     72.958   164.865
1612.70     73.619   153.406
1636.16     74.208   142.232
1659.95     74.711   131.293
1684.10     75.115   120.577
1708.60     75.409   110.084
1733.45     75.586    99.843
1758.66     75.639    89.929
1784.24     75.563    80.452
1810.19     75.361    71.568
1836.52     75.041    63.483
1863.24     74.623    56.440
1890.34     74.141    50.682
1917.83     73.642    46.373
1945.73     73.184    43.472
1974.03     72.809    41.616
2002.74     72.546    40.144
2031.87     72.359    38.417
2061.43     72.201    36.162
2091.41     72.022    33.623
2121.83     71.803    31.429
2152.69     71.593    30.667
2184.01     71.433    31.044
2215.77     71.492    32.995
2248.00     71.704    34.811
2280.70     72.093    34.887
2313.87     72.510    32.604
2347.53     72.833    28.407
2381.68     72.968    23.373
2416.32     72.950    18.815
2451.46     72.825    16.830
2487.12     72.779    18.095
2523.30     73.083    22.992
2560.00     73.756    27.025
2597.24     74.689    27.002
2635.01     75.660    22.250
2673.34     76.428    13.487
2712.23     76.935     2.937
2751.68     77.062    -8.488
2791.70     76.858   -19.366
2832.31     76.358   -27.850
2873.50     75.772   -32.448
2915.30     75.278   -32.535
2957.70     75.055   -29.451
3000.72     75.166   -27.888
3044.37     75.409   -31.771
3088.65     75.535   -38.612
3133.58     75.501   -45.402
3179.16     75.370   -49.915
3225.40     75.265   -52.625
3272.31     75.211   -56.131
3319.91     75.095   -63.218
3368.20     74.719   -74.048
3417.19     73.939   -86.023
3466.89     72.803   -93.930
3517.32     71.660   -89.724
3568.48     70.979   -75.449
3620.39     70.784   -70.177
3673.05     70.643   -76.171
3726.47     70.429   -77.425
3780.67     70.609   -63.362
3835.67     71.171   -50.202
3891.46     71.721   -61.378
3948.06     71.860   -81.129
4005.49     71.339   -95.503
4063.75     71.471   -56.482
4122.86     73.277   -15.925
4182.82     75.446   -36.749
4243.66     76.949   -60.056
4305.39     77.816   -79.210
4368.01     78.247   -92.092
4431.55     78.356  -105.077
4496.01     78.044  -125.195
4561.40     76.934  -152.706
4627.75     75.111   179.623
4695.06     73.328  -166.266
4763.35     72.658  -100.108
4832.64     72.732  -133.895
4902.93     72.588  -151.300
4974.24     72.894  -109.442
5046.60     73.808  -103.481
5120.00     74.183  -144.785
5194.47     73.319   169.178
5270.03     72.060    62.166
5346.68     71.837   -64.501
5424.45     72.379  -139.244
5503.35     72.816  -157.161
5583.40     73.206  -134.104
5664.61     73.318  -156.826
5747.01     73.008   161.102
5830.60     72.789   166.657
5915.41     73.250  -123.474
6001.45     73.984  -171.414
6088.74     74.068   159.230
6177.30     74.151  -170.002
6267.15     74.313   177.282
6358.31     74.041   138.804
6450.80     73.505   143.199
6544.62     73.000   155.964
6639.82     72.359   125.093
6736.40     71.283    75.217
6834.38     70.320    81.646
6933.79     70.242   135.686
7034.64     71.009   134.945
7136.96     72.157  -178.429
7240.77     72.706   111.326
7346.09     72.293    -6.513
7452.94     71.689  -168.574
7561.35     70.909    75.587
7671.33     69.621   -50.503
7782.91     68.210  -114.349
7896.12     67.254    23.526
8010.97     66.501  -129.313
8127.49     66.365    86.144
8245.71     64.785   -35.017
8365.65     61.470   111.280
8487.33     59.333   -12.840
8610.78     60.948   162.881
8736.03     62.656    47.711
8863.09     63.833   -92.221
8992.01     65.049    62.796
9122.80     64.988   -66.122
9255.50     64.108    78.043
9390.12     62.212   -38.278
9526.70     59.664   109.295
9665.27     58.835    51.925
9805.86     59.755   111.703
9948.49     59.809   -36.123
10093.2     57.547    17.835
10240.0     55.046   -24.640
10388.9     54.432   161.698
10540.1     54.955    -0.944
10693.4     54.859    38.857
10848.9     53.692    -7.417
11006.7     51.053    37.068
11166.8     49.092   -55.940
11329.2     50.537     2.299
11494.0     52.375  -114.513
11661.2     52.763   -25.014
11830.8     53.848   -14.378
12002.9     57.308    86.968
12177.5     59.158    15.812
12354.6     57.064    94.071
12534.3     53.351    57.397
12716.6     51.794   -66.826
12901.6     53.752   164.568
13089.2     56.126   125.784
13279.6     57.238   104.424
13472.8     57.289    85.633
13668.8     57.418   -15.050
13867.6     58.068   103.014
14069.3     58.249   174.347
14273.9     57.679   167.294
14481.5     57.037   -63.481
14692.2     57.101   -53.996
14905.9     56.976   -18.496
15122.7     56.578    16.279
15342.7     56.119    50.893
15565.8     55.594    87.834
15792.2     54.630   128.617
16021.9     53.601   167.060
16255.0     53.442  -147.569
16491.4     53.478   -98.431
16731.3     53.892   -45.953
16974.7     54.106     6.561
17221.6     53.337    68.699
17472.1     51.854   131.571
17726.2     51.522  -165.225
17984.0     52.593  -105.351
18245.6     53.167   -57.179
18511.0     52.700   -11.557
18780.2     52.155  -149.031
19053.4     51.713  -178.702
19330.5     51.037   159.748
19611.7     49.423   125.755
19897.0     46.162    53.486
20186.4     41.149    26.521
20480.0     37.615    16.236
20777.9     38.285    -3.032
21080.1     40.679   -29.463
21386.7     42.686   160.161
21697.8     44.541  -151.414
22013.4     45.943    62.542
22333.6     46.252    88.636
22658.4     47.252    25.409
22988.0     49.892   -71.572
23322.4     51.743  -149.974
23661.6     52.886    78.665
24005.8     54.459    48.560
24355.0     55.443   -73.337
24709.2     55.148   -75.363
25068.6     54.308   142.199
25433.2     54.410   116.480
25803.2     55.069    38.274
26178.5     54.731   -61.312
26559.3     53.896    99.497
26945.6     52.690    19.595
27337.5     51.033   110.962
27735.2     49.716   -29.549
28138.6     49.473  -147.446
28547.9     49.082   152.323
28963.1     46.763    86.901
29384.4     42.635   -28.098
29811.8     40.201  -130.923
30245.4     41.711   -30.684
30685.3     45.038   166.545
31131.7     45.900   -38.522
31584.5     44.477    51.550
32043.9     44.284   -88.072
32510.0     47.929    55.154
32982.8     49.154  -146.260
33462.6     47.139   -15.001
33949.3     43.173   120.882
34443.1     38.529  -137.082
34944.1     35.938   -42.182
35452.4     36.951    58.770
35968.0     38.654   160.278
36491.2     38.709   -81.876
37022.0     37.975   -29.045
37560.5     38.241    18.404
38106.8     38.285    52.012
38661.1     36.800    87.274
39223.4     35.467   125.945
39793.9     35.886   174.426
