Freq[Hz]     dBSPL  Phase[Deg]
5.00000     42.463  -138.797
5.07273     42.808  -138.985
5.14651     43.152  -139.175
5.22137     43.511  -134.998
5.29732     43.885  -131.233
5.37437     44.303  -128.804
5.45254     44.834  -127.786
5.53185     45.464  -127.883
5.61231     46.091  -128.531
5.69394     46.636  -129.450
5.77676     47.012  -130.673
5.86079     47.273  -132.164
5.94604     47.455  -133.648
6.03252     47.592  -134.825
6.12027     47.692  -135.410
6.20929     47.754  -135.500
6.29961     47.819  -135.213
6.39124     47.967  -134.575
6.48420     48.218  -133.577
6.57851     48.551  -132.394
6.67420     48.946  -131.391
6.77128     49.398  -130.807
6.86977     49.904  -130.628
6.96969     50.433  -130.812
7.07107     50.938  -131.376
7.17392     51.404  -132.318
7.27827     51.835  -133.513
7.38413     52.225  -134.782
7.49154     52.570  -136.058
7.60050     52.870  -137.330
7.71105     53.151  -138.489
7.82321     53.420  -139.493
7.93701     53.683  -140.365
8.05245     53.949  -141.135
8.16958     54.229  -141.827
8.28841     54.519  -142.469
8.40896     54.815  -143.107
8.53128     55.114  -143.779
8.65537     55.411  -144.464
8.78126     55.702  -145.139
8.90899     55.981  -145.786
9.03857     56.256  -146.386
9.17004     56.531  -146.887
9.30342     56.809  -147.305
9.43874     57.101  -147.668
9.57603     57.413  -147.998
9.71532     57.740  -148.348
9.85663     58.079  -148.774
10.0000     58.427  -149.279
10.1455     58.770  -149.873
10.2930     59.101  -150.536
10.4427     59.422  -151.210
10.5946     59.731  -151.864
10.7487     60.035  -152.488
10.9051     60.343  -153.072
11.0637     60.652  -153.636
11.2246     60.965  -154.203
11.3879     61.277  -154.770
11.5535     61.583  -155.318
11.7216     61.885  -155.846
11.8921     62.193  -156.310
12.0650     62.504  -156.755
12.2405     62.834  -157.218
12.4186     63.173  -157.724
12.5992     63.515  -158.348
12.7825     63.849  -159.041
12.9684     64.159  -159.749
13.1570     64.467  -160.453
13.3484     64.768  -161.043
13.5426     65.085  -161.601
13.7395     65.427  -162.226
13.9394     65.787  -163.049
14.1421     66.127  -164.158
14.3478     66.441  -165.383
14.5565     66.684  -166.633
14.7683     66.878  -167.700
14.9831     67.055  -168.372
15.2010     67.275  -168.770
15.4221     67.548  -169.158
15.6464     67.848  -169.732
15.8740     68.137  -170.527
16.1049     68.387  -171.435
16.3392     68.604  -172.317
16.5768     68.808  -173.101
16.8179     69.007  -173.796
17.0626     69.190  -174.399
17.3107     69.348  -174.807
17.5625     69.500  -174.901
17.8180     69.689  -174.683
18.0771     69.943  -174.341
18.3401     70.253  -174.104
18.6068     70.589  -174.111
18.8775     70.930  -174.366
19.1521     71.262  -174.814
19.4306     71.577  -175.374
19.7133     71.871  -175.951
20.0000     72.155  -176.473
20.2909     72.446  -176.938
20.5860     72.750  -177.421
20.8855     73.056  -177.969
21.1893     73.358  -178.571
21.4975     73.655  -179.201
21.8102     73.953  -179.844
22.1274     74.248   179.476
22.4492     74.540   178.777
22.7758     74.825   178.063
23.1071     75.105   177.353
23.4432     75.383   176.657
23.7841     75.659   175.971
24.1301     75.933   175.290
24.4811     76.203   174.637
24.8372     76.471   174.023
25.1984     76.748   173.447
25.5649     77.031   172.864
25.9368     77.316   172.266
26.3141     77.602   171.670
26.6968     77.895   171.077
27.0851     78.198   170.445
27.4791     78.503   169.704
27.8788     78.798   168.877
28.2843     79.074   168.055
28.6957     79.345   167.285
29.1131     79.618   166.560
29.5365     79.897   165.836
29.9661     80.169   165.123
30.4020     80.449   164.445
30.8442     80.741   163.740
31.2929     81.034   162.985
31.7480     81.328   162.177
32.2098     81.622   161.316
32.6783     81.912   160.397
33.1536     82.193   159.434
33.6359     82.467   158.447
34.1251     82.731   157.445
34.6215     82.981   156.474
35.1250     83.223   155.596
35.6359     83.471   154.816
36.1543     83.730   154.085
36.6802     83.998   153.368
37.2137     84.279   152.649
37.7550     84.573   151.883
38.3041     84.872   151.058
38.8613     85.174   150.146
39.4265     85.475   149.198
40.0000     85.781   148.201
40.5818     86.088   147.100
41.1721     86.387   145.900
41.7710     86.675   144.630
42.3785     86.952   143.340
42.9949     87.225   142.059
43.6203     87.500   140.769
44.2548     87.779   139.432
44.8985     88.065   138.007
45.5515     88.351   136.397
46.2141     88.619   134.524
46.8863     88.824   132.449
47.5683     88.950   130.527
48.2602     89.036   129.180
48.9621     89.177   128.342
49.6743     89.369   127.572
50.3968     89.605   126.724
51.1299     89.866   125.738
51.8736     90.142   124.541
52.6281     90.416   123.159
53.3936     90.680   121.658
54.1702     90.935   120.085
54.9581     91.184   118.460
55.7575     91.429   116.779
56.5685     91.669   115.048
57.3914     91.908   113.261
58.2261     92.143   111.400
59.0730     92.369   109.452
59.9323     92.584   107.473
60.8040     92.797   105.448
61.6884     92.998   103.325
62.5857     93.184   101.196
63.4960     93.369    99.078
64.4196     93.561    96.898
65.3566     93.752    94.545
66.3073     93.922    91.954
67.2717     94.044    89.205
68.2502     94.106    86.514
69.2429     94.123    84.129
70.2501     94.140    82.214
71.2719     94.222    80.566
72.3086     94.364    78.682
73.3603     94.510    76.389
74.4274     94.624    73.855
75.5099     94.705    71.242
76.6083     94.761    68.606
77.7226     94.795    65.955
78.8531     94.807    63.303
80.0000     94.794    60.666
81.1636     94.754    58.021
82.3442     94.666    55.495
83.5419     94.554    53.314
84.7570     94.454    51.454
85.9899     94.385    49.769
87.2406     94.349    48.130
88.5096     94.341    46.437
89.7970     94.355    44.535
91.1031     94.365    42.408
92.4282     94.347    40.096
93.7726     94.296    37.774
95.1366     94.224    35.536
96.5204     94.144    33.349
97.9243     94.054    31.160
99.3486     93.950    29.009
100.794     93.834    26.909
102.260     93.701    24.874
103.747     93.558    22.994
105.256     93.423    21.284
106.787     93.306    19.634
108.340     93.204    17.931
109.916     93.099    16.126
111.515     92.980    14.287
113.137     92.842    12.474
114.783     92.686    10.766
116.452     92.540     9.389
118.146     92.422     8.060
119.865     92.345     6.634
121.608     92.278     5.096
123.377     92.214     3.319
125.171     92.134     1.404
126.992     92.010    -0.607
128.839     91.854    -2.276
130.713     91.701    -3.609
132.615     91.597    -4.928
134.543     91.543    -6.383
136.500     91.499    -8.087
138.486     91.444   -10.011
140.500     91.367   -11.993
142.544     91.288   -13.943
144.617     91.217   -16.075
146.721     91.096   -18.549
148.855     90.905   -20.779
151.020     90.701   -22.505
153.217     90.545   -23.886
155.445     90.449   -25.368
157.706     90.367   -27.063
160.000     90.308   -28.834
162.327     90.248   -31.120
164.688     90.112   -33.490
167.084     89.946   -35.544
169.514     89.781   -37.421
171.980     89.621   -39.123
174.481     89.491   -40.639
177.019     89.402   -42.249
179.594     89.317   -44.048
182.206     89.225   -45.831
184.856     89.141   -47.549
187.545     89.079   -49.220
190.273     89.062   -50.996
193.041     89.067   -53.219
195.849     89.021   -55.909
198.697     88.890   -58.486
201.587     88.740   -60.492
204.520     88.636   -62.185
207.494     88.592   -63.885
210.512     88.586   -65.825
213.574     88.591   -68.010
216.681     88.605   -70.429
219.833     88.622   -73.113
223.030     88.578   -76.350
226.274     88.460   -79.594
229.565     88.264   -82.575
232.905     88.040   -84.976
236.292     87.865   -86.930
239.729     87.743   -88.988
243.216     87.587   -91.421
246.754     87.355   -93.487
250.343     87.146   -94.882
253.984     86.987   -95.948
257.678     86.912   -96.767
261.426     86.898   -97.705
265.229     86.927   -98.635
269.087     87.046   -99.536
273.001     87.235  -101.456
276.972     87.342  -104.159
281.000     87.332  -106.714
285.088     87.291  -108.840
289.234     87.296  -110.527
293.441     87.360  -112.397
297.709     87.441  -114.689
302.040     87.492  -117.404
306.433     87.475  -120.328
310.890     87.410  -123.143
315.412     87.307  -125.896
320.000     87.180  -128.420
324.655     87.070  -130.670
329.377     86.987  -133.052
334.168     86.895  -135.543
339.028     86.800  -138.067
343.959     86.697  -140.643
348.962     86.588  -143.249
354.038     86.473  -145.907
359.188     86.346  -148.597
364.412     86.211  -151.297
369.713     86.070  -154.002
375.090     85.919  -156.711
380.546     85.761  -159.419
386.081     85.596  -162.124
391.697     85.422  -164.820
397.394     85.243  -167.507
403.175     85.054  -170.175
409.039     84.858  -172.823
414.989     84.655  -175.445
421.025     84.444  -178.033
427.149     84.227   179.414
433.362     84.004   176.907
439.665     83.775   174.454
446.060     83.542   172.054
452.548     83.306   169.720
459.131     83.067   167.464
465.809     82.828   165.277
472.584     82.590   163.180
479.458     82.354   161.166
486.432     82.123   159.234
493.507     81.898   157.401
500.686     81.684   155.655
507.968     81.481   153.987
515.357     81.293   152.396
522.853     81.123   150.863
530.458     80.969   149.370
538.174     80.837   147.898
546.002     80.727   146.420
553.943     80.640   144.910
562.001     80.574   143.341
570.175     80.526   141.703
578.469     80.502   139.935
586.883     80.495   138.035
595.419     80.502   135.989
604.080     80.521   133.793
612.866     80.551   131.418
621.780     80.587   128.865
630.824     80.629   126.111
640.000     80.671   123.188
649.309     80.712   120.072
658.753     80.750   116.784
668.335     80.782   113.333
678.056     80.806   109.727
687.919     80.822   105.975
697.925     80.827   102.087
708.077     80.822    98.073
718.376     80.804    93.944
728.825     80.774    89.710
739.426     80.730    85.381
750.181     80.673    80.965
761.093     80.602    76.468
772.163     80.515    71.898
783.394     80.417    67.268
794.789     80.305    62.583
806.349     80.179    57.844
818.078     80.039    53.053
829.977     79.887    48.214
842.050     79.722    43.326
854.298     79.542    38.385
866.724     79.348    33.390
879.330     79.142    28.341
892.120     78.917    23.220
905.097     78.678    18.042
918.262     78.420    12.786
931.618     78.141     7.455
945.169     77.841     2.047
958.917     77.514    -3.441
972.864     77.158    -9.006
987.015     76.769   -14.641
1001.37     76.340   -20.336
1015.94     75.869   -26.065
1030.71     75.349   -31.810
1045.71     74.771   -37.516
1060.92     74.134   -43.147
1076.35     73.427   -48.606
1092.00     72.643   -53.779
1107.89     71.782   -58.511
1124.00     70.836   -62.458
1140.35     69.830   -65.444
1156.94     68.789   -66.163
1173.77     67.766   -65.063
1190.84     67.000   -58.171
1208.16     66.397   -49.059
1225.73     66.384   -36.842
1243.56     66.743   -26.179
1261.65     67.490   -20.885
1280.00     68.381   -19.501
1298.62     69.294   -22.263
1317.51     70.198   -25.275
1336.67     71.004   -30.605
1356.11     71.726   -36.854
1375.84     72.355   -43.872
1395.85     72.892   -51.525
1416.15     73.317   -59.812
1436.75     73.680   -68.415
1457.65     73.929   -77.564
1478.85     74.090   -87.092
1500.36     74.152   -97.016
1522.19     74.091  -107.376
1544.33     73.914  -118.111
1566.79     73.613  -129.206
1589.58     73.172  -140.665
1612.70     72.578  -152.502
1636.16     71.807  -164.749
1659.95     70.828  -177.486
1684.10     69.601   169.160
1708.60     68.060   154.898
1733.45     66.102   139.140
1758.66     63.552   120.632
1784.24     60.146    96.661
1810.19     56.180    63.057
1836.52     54.890    21.451
1863.24     57.874   -15.841
1890.34     61.379   -42.246
1917.83     63.976   -61.270
1945.73     65.907   -76.556
1974.03     67.394   -89.993
2002.74     68.542  -102.482
2031.87     69.451  -114.602
2061.43     70.146  -126.593
2091.41     70.647  -138.574
2121.83     70.960  -150.542
2152.69     71.058  -162.355
2184.01     71.026  -173.966
2215.77     70.759   175.267
2248.00     70.370   165.409
2280.70     69.845   157.815
2313.87     69.311   153.892
2347.53     68.950   155.525
2381.68     69.024   162.639
2416.32     69.519   169.894
2451.46     70.469   171.480
2487.12     71.580   167.987
2523.30     72.694   159.844
2560.00     73.702   149.593
2597.24     74.562   138.073
2635.01     75.271   125.942
2673.34     75.815   113.545
2712.23     76.241   101.050
2751.68     76.527    88.341
2791.70     76.686    75.185
2832.31     76.676    61.195
2873.50     76.483    46.303
2915.30     76.051    30.428
2957.70     75.315    13.590
3000.72     74.190    -4.075
3044.37     72.469   -22.403
3088.65     69.986   -41.258
3133.58     66.866   -58.513
3179.16     64.975    42.671
3225.40     66.097    99.894
3272.31     69.041    73.557
3319.91     71.677    55.829
3368.20     73.619    38.310
3417.19     75.001    20.497
3466.89     75.934     2.350
3517.32     76.487   -15.908
3568.48     76.704   -34.013
3620.39     76.609   -51.882
3673.05     76.194   -69.811
3726.47     75.401   -88.333
3780.67     74.027  -107.742
3835.67     72.124  -127.082
3891.46     69.655  -129.401
3948.06     67.251  -106.027
4005.49     68.261   -59.012
4063.75     70.777   -68.269
4122.86     72.855   -84.506
4182.82     74.452   -98.077
4243.66     75.869  -110.009
4305.39     77.171  -125.128
4368.01     78.203  -145.179
4431.55     78.742  -168.931
4496.01     78.760   166.104
4561.40     78.112   141.238
4627.75     76.858   117.022
4695.06     74.749    93.680
4763.35     71.726    74.008
4832.64     68.226    81.334
4902.93     67.840   132.479
4974.24     69.887   132.672
5046.60     71.594   112.223
5120.00     72.727    96.515
5194.47     73.842    85.838
5270.03     75.100    69.544
5346.68     76.019    44.672
5424.45     76.247    14.678
5503.35     75.623   -16.533
5583.40     74.221   -46.632
5664.61     72.157   -77.199
5747.01     69.522  -113.890
5830.60     66.479  -163.770
5915.41     63.837   129.551
6001.45     63.639    55.666
6088.74     64.770     0.984
6177.30     65.192   -35.715
6267.15     65.281   -55.514
6358.31     65.065   -82.868
6450.80     63.807  -129.383
6544.62     61.327   164.438
6639.82     60.663    86.096
6736.40     63.891    13.972
6834.38     67.462   -44.320
6933.79     69.266  -105.040
7034.64     69.326  -172.866
7136.96     68.067   109.547
7240.77     66.752   -22.964
7346.09     66.593  -162.462
7452.94     67.005   153.746
7561.35     66.622    99.444
7671.33     65.171     5.222
7782.91     63.640   -28.885
7896.12     63.527    98.148
8010.97     64.274     2.320
8127.49     65.082   143.216
8245.71     65.765    20.621
8365.65     65.032   -71.499
8487.33     62.674   -93.845
8610.78     58.749  -146.997
8736.03     57.009   114.897
8863.09     59.685    40.391
8992.01     61.904   -28.414
9122.80     61.691  -119.610
9255.50     59.204   135.624
9390.12     56.469   -59.763
9526.70     55.847  -139.129
9665.27     56.227  -151.660
9805.86     56.694  -155.803
9948.49     55.967   124.125
10093.2     54.302   -70.806
10240.0     54.652   166.983
10388.9     55.798   111.378
10540.1     55.053    51.099
10693.4     52.870   -40.568
10848.9     51.508   -95.138
11006.7     51.823   -18.690
11166.8     52.187    73.603
11329.2     51.659   102.840
11494.0     50.723   135.961
11661.2     50.377   141.142
11830.8     50.436    99.044
12002.9     50.093    40.871
12177.5     49.251   -25.107
12354.6     47.711    57.187
12534.3     46.087    19.495
12716.6     44.896   -63.271
12901.6     44.250  -114.686
13089.2     43.838  -149.363
13279.6     45.412    90.971
13472.8     47.778    52.348
13668.8     49.145  -175.584
13867.6     49.943  -127.267
14069.3     50.886  -157.187
14273.9     51.602   157.870
14481.5     51.848   137.350
14692.2     52.584   143.974
14905.9     52.033  -159.350
15122.7     51.105  -105.124
15342.7     50.742  -100.226
15565.8     51.126   -81.705
15792.2     51.391    25.817
16021.9     50.073  -110.617
16255.0     48.682   122.096
16491.4     48.782    -0.346
16731.3     49.764  -143.092
16974.7     49.657   117.754
17221.6     48.280  -132.071
17472.1     46.434   130.382
17726.2     45.809   168.820
17984.0     45.983   -30.341
18245.6     45.171     8.889
18511.0     42.661     1.269
18780.2     41.531   -79.268
19053.4     42.875  -164.086
19330.5     42.423  -122.457
19611.7     40.782    59.510
19897.0     40.787    66.018
20186.4     40.935   -47.072
20480.0     38.444    60.139
20777.9     35.909  -169.194
21080.1     36.514   150.135
21386.7     38.497  -134.820
21697.8     40.537  -114.876
22013.4     42.445    35.976
22333.6     43.438    77.827
22658.4     44.102   -26.797
22988.0     44.139  -168.174
23322.4     44.384    -5.835
23661.6     46.031    51.593
24005.8     47.422    33.396
24355.0     49.120    -1.335
24709.2     49.735   -54.173
25068.6     48.415  -117.187
25433.2     47.423   113.852
25803.2     46.270   -40.587
26178.5     46.523    95.906
26559.3     48.220   -83.086
26945.6     48.870    -7.728
27337.5     48.700  -123.387
27735.2     47.695  -111.761
28138.6     45.645  -121.701
28547.9     44.075  -103.185
28963.1     43.566  -129.703
29384.4     43.741   144.217
29811.8     42.587   -11.422
30245.4     40.156   -65.001
30685.3     37.420   -12.732
31131.7     37.304    63.222
31584.5     37.766   -25.223
32043.9     37.440   -87.605
32510.0     37.734    87.641
32982.8     37.834    12.902
33462.6     36.568    12.973
33949.3     35.984   -25.710
34443.1     35.820   104.156
34944.1     34.093  -113.256
35452.4     31.765   -14.897
35968.0     32.036    62.394
36491.2     34.045   101.002
37022.0     34.580    66.679
37560.5     33.817     1.216
38106.8     32.997   -33.865
38661.1     32.697    86.570
39223.4     32.066  -175.105
39793.9     31.372   151.572
