Freq[Hz]     dBSPL  Phase[Deg]
5.00000     42.463  -138.797
5.07273     42.808  -138.985
5.14651     43.152  -139.175
5.22137     43.511  -134.998
5.29732     43.885  -131.233
5.37437     44.303  -128.804
5.45254     44.834  -127.786
5.53185     45.464  -127.883
5.61231     46.091  -128.531
5.69394     46.636  -129.450
5.77676     47.012  -130.673
5.86079     47.273  -132.164
5.94604     47.455  -133.648
6.03252     47.592  -134.825
6.12027     47.692  -135.410
6.20929     47.754  -135.500
6.29961     47.819  -135.213
6.39124     47.967  -134.575
6.48420     48.218  -133.577
6.57851     48.551  -132.394
6.67420     48.946  -131.391
6.77128     49.398  -130.807
6.86977     49.904  -130.628
6.96969     50.433  -130.812
7.07107     50.938  -131.376
7.17392     51.404  -132.318
7.27827     51.835  -133.513
7.38413     52.225  -134.782
7.49154     52.570  -136.058
7.60050     52.870  -137.330
7.71105     53.151  -138.489
7.82321     53.420  -139.493
7.93701     53.683  -140.365
8.05245     53.949  -141.135
8.16958     54.229  -141.827
8.28841     54.519  -142.469
8.40896     54.815  -143.107
8.53128     55.114  -143.779
8.65537     55.411  -144.464
8.78126     55.702  -145.139
8.90899     55.981  -145.786
9.03857     56.256  -146.386
9.17004     56.531  -146.887
9.30342     56.809  -147.305
9.43874     57.101  -147.668
9.57603     57.413  -147.998
9.71532     57.740  -148.348
9.85663     58.079  -148.774
10.0000     58.427  -149.279
10.1455     58.770  -149.873
10.2930     59.101  -150.536
10.4427     59.422  -151.210
10.5946     59.731  -151.864
10.7487     60.035  -152.488
10.9051     60.343  -153.072
11.0637     60.652  -153.636
11.2246     60.965  -154.203
11.3879     61.277  -154.770
11.5535     61.583  -155.318
11.7216     61.885  -155.846
11.8921     62.193  -156.310
12.0650     62.504  -156.755
12.2405     62.834  -157.218
12.4186     63.173  -157.724
12.5992     63.515  -158.348
12.7825     63.849  -159.041
12.9684     64.159  -159.749
13.1570     64.467  -160.453
13.3484     64.768  -161.043
13.5426     65.085  -161.601
13.7395     65.427  -162.226
13.9394     65.787  -163.049
14.1421     66.127  -164.158
14.3478     66.441  -165.383
14.5565     66.684  -166.633
14.7683     66.878  -167.700
14.9831     67.055  -168.372
15.2010     67.275  -168.770
15.4221     67.548  -169.158
15.6464     67.848  -169.732
15.8740     68.137  -170.527
16.1049     68.387  -171.435
16.3392     68.604  -172.317
16.5768     68.808  -173.101
16.8179     69.007  -173.796
17.0626     69.190  -174.399
17.3107     69.348  -174.807
17.5625     69.500  -174.901
17.8180     69.689  -174.683
18.0771     69.943  -174.341
18.3401     70.253  -174.104
18.6068     70.589  -174.111
18.8775     70.930  -174.366
19.1521     71.262  -174.814
19.4306     71.577  -175.374
19.7133     71.871  -175.951
20.0000     72.155  -176.473
20.2909     72.446  -176.938
20.5860     72.750  -177.421
20.8855     73.056  -177.969
21.1893     73.358  -178.571
21.4975     73.655  -179.201
21.8102     73.953  -179.844
22.1274     74.248   179.476
22.4492     74.540   178.777
22.7758     74.825   178.063
23.1071     75.105   177.353
23.4432     75.383   176.657
23.7841     75.659   175.971
24.1301     75.933   175.290
24.4811     76.203   174.637
24.8372     76.471   174.023
25.1984     76.748   173.447
25.5649     77.031   172.864
25.9368     77.316   172.266
26.3141     77.602   171.670
26.6968     77.895   171.077
27.0851     78.198   170.445
27.4791     78.503   169.704
27.8788     78.798   168.877
28.2843     79.074   168.055
28.6957     79.345   167.285
29.1131     79.618   166.560
29.5365     79.897   165.836
29.9661     80.169   165.123
30.4020     80.449   164.445
30.8442     80.741   163.740
31.2929     81.034   162.985
31.7480     81.328   162.177
32.2098     81.622   161.316
32.6783     81.912   160.397
33.1536     82.193   159.434
33.6359     82.467   158.447
34.1251     82.731   157.445
34.6215     82.981   156.474
35.1250     83.223   155.596
35.6359     83.471   154.816
36.1543     83.730   154.085
36.6802     83.998   153.368
37.2137     84.279   152.649
37.7550     84.573   151.883
38.3041     84.872   151.058
38.8613     85.174   150.146
39.4265     85.475   149.198
40.0000     85.781   148.201
40.5818     86.088   147.101
41.1721     86.386   145.903
41.7710     86.675   144.638
42.3785     86.951   143.353
42.9949     87.224   142.080
43.6203     87.498   140.799
44.2548     87.776   139.472
44.8985     88.061   138.059
45.5515     88.347   136.461
46.2141     88.614   134.602
46.8863     88.818   132.542
47.5683     88.944   130.637
48.2602     89.029   129.308
48.9621     89.169   128.488
49.6743     89.360   127.738
50.3968     89.595   126.911
51.1299     89.856   125.947
51.8736     90.132   124.773
52.6281     90.405   123.414
53.3936     90.668   121.938
54.1702     90.923   120.391
54.9581     91.172   118.792
55.7575     91.416   117.139
56.5685     91.656   115.436
57.3914     91.895   113.679
58.2261     92.130   111.848
59.0730     92.356   109.931
59.9323     92.571   107.984
60.8040     92.785   105.993
61.6884     92.986   103.905
62.5857     93.173   101.811
63.4960     93.359    99.729
64.4196     93.550    97.586
65.3566     93.743    95.271
66.3073     93.914    92.719
67.2717     94.037    90.011
68.2502     94.100    87.362
69.2429     94.118    85.020
70.2501     94.138    83.149
71.2719     94.220    81.546
72.3086     94.364    79.709
73.3603     94.512    77.463
74.4274     94.629    74.979
75.5099     94.711    72.417
76.6083     94.770    69.832
77.7226     94.807    67.235
78.8531     94.821    64.637
80.0000     94.812    62.057
81.1636     94.774    59.471
82.3442     94.689    57.005
83.5419     94.580    54.887
84.7570     94.484    53.090
85.9899     94.419    51.470
87.2406     94.387    49.900
88.5096     94.383    48.275
89.7970     94.401    46.447
91.1031     94.415    44.395
92.4282     94.401    42.159
93.7726     94.354    39.916
95.1366     94.288    37.761
96.5204     94.213    35.659
97.9243     94.128    33.557
99.3486     94.028    31.497
100.794     93.918    29.491
102.260     93.791    27.552
103.747     93.653    25.773
105.256     93.524    24.167
106.787     93.413    22.624
108.340     93.318    21.034
109.916     93.219    19.343
111.515     93.107    17.623
113.137     92.976    15.933
114.783     92.826    14.353
116.452     92.687    13.109
118.146     92.577    11.918
119.865     92.507    10.635
121.608     92.448     9.243
123.377     92.391     7.620
125.171     92.320     5.863
126.992     92.204     4.015
128.839     92.056     2.516
130.713     91.912     1.358
132.615     91.816     0.221
134.543     91.771    -1.046
136.500     91.737    -2.555
138.486     91.691    -4.279
140.500     91.623    -6.053
142.544     91.553    -7.788
144.617     91.492    -9.699
146.721     91.381   -11.945
148.855     91.201   -13.941
151.020     91.007   -15.426
153.217     90.862   -16.559
155.445     90.776   -17.784
157.706     90.705   -19.217
160.000     90.657   -20.720
162.327     90.608   -22.730
164.688     90.484   -24.819
167.084     90.329   -26.587
169.514     90.176   -28.168
171.980     90.027   -29.570
174.481     89.910   -30.782
177.019     89.833   -32.084
179.594     89.760   -33.570
182.206     89.681   -35.034
184.856     89.609   -36.432
187.545     89.560   -37.780
190.273     89.556   -39.230
193.041     89.575   -41.125
195.849     89.543   -43.487
198.697     89.424   -45.734
201.587     89.288   -47.411
204.520     89.198   -48.777
207.494     89.167   -50.150
210.512     89.176   -51.765
213.574     89.195   -53.629
216.681     89.223   -55.728
219.833     89.254   -58.098
223.030     89.224   -61.023
226.274     89.120   -63.961
229.565     88.939   -66.640
232.905     88.729   -68.744
236.292     88.569   -70.408
239.729     88.462   -72.181
243.216     88.320   -74.335
246.754     88.104   -76.127
250.343     87.910   -77.255
253.984     87.766   -78.060
257.678     87.706   -78.620
261.426     87.708   -79.304
265.229     87.752   -79.987
269.087     87.887   -80.647
273.001     88.091   -82.334
276.972     88.214   -84.810
281.000     88.220   -87.144
285.088     88.193   -89.055
289.234     88.213   -90.531
293.441     88.292   -92.192
297.709     88.389   -94.278
302.040     88.455   -96.788
306.433     88.455   -99.506
310.890     88.407  -102.114
315.412     88.322  -104.661
320.000     88.214  -106.977
324.655     88.124  -109.021
329.377     88.061  -111.197
334.168     87.992  -113.484
339.028     87.918  -115.805
343.959     87.840  -118.182
348.962     87.757  -120.593
354.038     87.668  -123.059
359.188     87.570  -125.564
364.412     87.465  -128.086
369.713     87.353  -130.621
375.090     87.236  -133.170
380.546     87.112  -135.731
386.081     86.983  -138.300
391.697     86.846  -140.879
397.394     86.705  -143.463
403.175     86.558  -146.052
409.039     86.404  -148.644
414.989     86.244  -151.237
421.025     86.079  -153.829
427.149     85.908  -156.418
433.362     85.731  -159.001
439.665     85.549  -161.578
446.060     85.363  -164.146
452.548     85.173  -166.704
459.131     84.978  -169.248
465.809     84.780  -171.780
472.584     84.578  -174.297
479.458     84.374  -176.800
486.432     84.169  -179.289
493.507     83.961   178.237
500.686     83.753   175.776
507.968     83.546   173.324
515.357     83.339   170.881
522.853     83.133   168.439
530.458     82.929   165.997
538.174     82.728   163.546
546.002     82.528   161.080
553.943     82.332   158.590
562.001     82.139   156.069
570.175     81.948   153.514
578.469     81.760   150.901
586.883     81.572   148.230
595.419     81.387   145.494
604.080     81.202   142.690
612.866     81.015   139.801
621.780     80.826   136.826
630.824     80.633   133.748
640.000     80.435   130.581
649.309     80.230   127.306
658.753     80.015   123.932
668.335     79.790   120.461
678.056     79.552   116.897
687.919     79.299   113.244
697.925     79.031   109.510
708.077     78.745   105.704
718.376     78.438   101.839
728.825     78.112    97.929
739.426     77.762    93.990
750.181     77.389    90.043
761.093     76.990    86.112
772.163     76.566    82.230
783.394     76.119    78.422
794.789     75.648    74.718
806.349     75.157    71.162
818.078     74.647    67.798
829.977     74.124    64.655
842.050     73.593    61.775
854.298     73.060    59.203
866.724     72.537    56.955
879.330     72.030    55.006
892.120     71.555    53.378
905.097     71.111    51.928
918.262     70.713    50.605
931.618     70.357    49.266
945.169     70.043    47.786
958.917     69.766    46.040
972.864     69.515    43.934
987.015     69.279    41.427
1001.37     69.045    38.489
1015.94     68.799    35.179
1030.71     68.534    31.543
1045.71     68.238    27.672
1060.92     67.913    23.679
1076.35     67.551    19.679
1092.00     67.160    15.808
1107.89     66.746    12.195
1124.00     66.323     9.001
1140.35     65.906     6.224
1156.94     65.523     4.035
1173.77     65.172     2.137
1190.84     64.905     0.445
1208.16     64.669    -1.310
1225.73     64.503    -3.658
1243.56     64.364    -6.578
1261.65     64.230   -10.482
1280.00     64.069   -15.151
1298.62     63.809   -20.744
1317.51     63.536   -26.381
1336.67     63.119   -32.197
1356.11     62.613   -37.388
1375.84     62.051   -40.979
1395.85     61.533   -41.383
1416.15     61.322   -35.370
1436.75     61.389   -26.492
1457.65     62.063   -16.622
1478.85     63.121   -11.499
1500.36     64.424   -13.002
1522.19     65.758   -19.642
1544.33     67.002   -28.896
1566.79     68.119   -39.871
1589.58     69.089   -52.021
1612.70     69.908   -64.988
1636.16     70.575   -78.520
1659.95     71.092   -92.436
1684.10     71.461  -106.566
1708.60     71.687  -120.771
1733.45     71.771  -134.899
1758.66     71.719  -148.773
1784.24     71.538  -162.174
1810.19     71.244  -174.841
1836.52     70.859   173.553
1863.24     70.419   163.367
1890.34     69.972   154.890
1917.83     69.570   148.149
1945.73     69.262   142.688
1974.03     69.069   137.541
2002.74     68.985   131.545
2031.87     68.959   124.286
2061.43     68.940   115.833
2091.41     68.892   106.790
2121.83     68.809    97.997
2152.69     68.731    90.676
2184.01     68.691    84.592
2215.77     68.814    80.464
2248.00     69.057    76.422
2280.70     69.459    70.690
2313.87     69.920    62.206
2347.53     70.342    51.078
2381.68     70.627    37.900
2416.32     70.755    23.795
2451.46     70.645     9.517
2487.12     70.364    -3.905
2523.30     69.932   -14.473
2560.00     69.519   -20.750
2597.24     69.294   -22.146
2635.01     69.371   -21.379
2673.34     69.782   -24.431
2712.23     70.301   -32.267
2751.68     70.751   -44.557
2791.70     71.006   -58.602
2832.31     71.000   -72.752
2873.50     70.803   -85.676
2915.30     70.457   -96.630
2957.70     70.032  -105.436
3000.72     69.586  -113.008
3044.37     69.113  -121.685
3088.65     68.540  -131.836
3133.58     67.867  -141.240
3179.16     67.254  -144.880
3225.40     67.006  -141.086
3272.31     67.288  -137.344
3319.91     67.906  -143.204
3368.20     68.424  -158.904
3417.19     68.488  -179.774
3466.89     67.910   157.462
3517.32     66.611   135.566
3568.48     64.634   119.212
3620.39     62.327   119.229
3673.05     60.564   138.148
3726.47     60.252   154.826
3780.67     61.548   165.506
3835.67     63.586   172.725
3891.46     65.784   163.035
3948.06     67.682   142.813
4005.49     68.635   115.510
4063.75     68.708    86.573
4122.86     67.845    59.306
4182.82     66.245    40.505
4243.66     64.827    47.532
4305.39     64.910    59.647
4368.01     65.971    48.303
4431.55     66.724    26.398
4496.01     66.832     3.640
4561.40     66.162   -18.033
4627.75     64.809   -38.909
4695.06     62.582   -56.681
4763.35     60.287   -55.084
4832.64     60.279   -12.940
4902.93     62.913   -15.016
4974.24     65.055   -39.092
5046.60     65.894   -67.192
5120.00     65.742   -94.501
5194.47     64.584  -118.771
5270.03     62.609  -135.853
5346.68     60.506  -138.703
5424.45     59.349  -131.301
5503.35     59.700  -130.001
5583.40     60.711  -137.989
5664.61     61.572  -153.001
5747.01     61.923  -173.676
5830.60     61.691   165.053
5915.41     61.073   149.813
6001.45     60.582   141.053
6088.74     59.799   111.859
6177.30     59.045   111.112
6267.15     60.439   156.180
6358.31     62.487   125.035
6450.80     63.217    68.960
6544.62     62.828    41.230
6639.82     62.699    49.763
6736.40     63.165    35.429
6834.38     63.061   -24.919
6933.79     62.192   -46.512
7034.64     61.149   -33.465
7136.96     59.781  -105.722
7240.77     58.432   -74.458
7346.09     58.507     4.425
7452.94     59.075  -101.613
7561.35     58.752   -29.225
7671.33     58.565    10.244
7782.91     58.990  -120.968
7896.12     59.478   161.246
8010.97     59.645   166.044
8127.49     59.771   168.183
8245.71     59.274    87.144
8365.65     57.798    66.824
8487.33     56.342    10.702
8610.78     56.319   149.263
8736.03     56.898    58.807
8863.09     57.116   -60.155
8992.01     57.356    55.064
9122.80     56.788   -42.226
9255.50     55.243   123.942
9390.12     54.607   -27.131
9526.70     53.904   -99.079
9665.27     53.545    -9.995
9805.86     53.607   -93.629
9948.49     53.049  -165.604
10093.2     52.207   145.045
10240.0     51.102    15.608
10388.9     50.457    70.197
10540.1     49.696    95.518
10693.4     49.020   114.362
10848.9     48.708   130.115
11006.7     48.255   100.834
11166.8     47.874    42.083
11329.2     47.588    37.739
11494.0     46.951     1.877
11661.2     45.944    -7.333
11830.8     45.787   -19.580
12002.9     45.356   -42.140
12177.5     44.278   -70.600
12354.6     43.485    89.469
12534.3     42.158    30.647
12716.6     40.959  -122.532
12901.6     41.883   179.974
13089.2     43.663   149.732
13279.6     43.637    55.459
13472.8     42.840    37.422
13668.8     42.761    85.251
13867.6     42.851   -75.352
14069.3     43.309  -113.684
14273.9     44.802    42.729
14481.5     44.662   110.091
14692.2     42.765   128.204
14905.9     40.940   122.154
15122.7     38.859   114.594
15342.7     37.151   145.709
15565.8     36.818  -159.686
15792.2     37.784  -164.201
16021.9     39.140   172.743
16255.0     39.998    89.371
16491.4     38.852    36.300
16731.3     37.821  -138.761
16974.7     38.365    63.961
17221.6     38.502   112.296
17472.1     38.411   154.391
17726.2     37.724  -125.975
17984.0     37.794   -10.403
18245.6     37.667    11.125
18511.0     36.351   -11.266
18780.2     35.778   -76.635
19053.4     36.108  -145.236
19330.5     36.311   127.324
19611.7     35.949    43.090
19897.0     35.709    67.062
20186.4     36.355   147.323
20480.0     37.167    48.353
20777.9     38.534  -100.450
21080.1     40.862   159.462
21386.7     43.147  -129.972
21697.8     44.012   -51.088
22013.4     44.692   156.463
22333.6     45.248    50.003
22658.4     45.643    98.410
22988.0     46.205  -110.665
23322.4     46.633    28.415
23661.6     47.070  -146.779
24005.8     47.355   -12.580
24355.0     47.248    37.408
24709.2     47.127    70.239
25068.6     47.282    44.646
25433.2     47.257   -32.711
25803.2     46.397  -176.114
26178.5     46.140     6.761
26559.3     46.320  -114.652
26945.6     46.455    65.547
27337.5     46.189   -17.811
27735.2     45.633   -77.690
28138.6     45.000   -65.436
28547.9     44.279    45.248
28963.1     43.320   -39.316
29384.4     43.294    56.156
29811.8     43.487   136.110
30245.4     43.474   166.487
30685.3     43.409   127.647
31131.7     42.738   174.513
31584.5     41.512   123.288
32043.9     41.508  -113.195
32510.0     40.766  -172.934
32982.8     37.540   136.986
33462.6     37.380  -170.747
33949.3     38.310   122.692
34443.1     37.976    11.298
34944.1     36.730    -0.039
35452.4     35.054  -132.439
35968.0     33.677   -64.680
36491.2     33.193   -95.294
37022.0     32.906   -99.598
37560.5     32.044   -48.561
38106.8     31.556   140.506
38661.1     31.099   -41.204
39223.4     28.885    14.121
39793.9     27.409    -7.323
