Freq[Hz]     dBSPL  Phase[Deg]
5.00000     42.463  -138.797
5.07273     42.808  -138.985
5.14651     43.152  -139.175
5.22137     43.511  -134.998
5.29732     43.885  -131.233
5.37437     44.303  -128.804
5.45254     44.834  -127.786
5.53185     45.464  -127.883
5.61231     46.091  -128.531
5.69394     46.636  -129.450
5.77676     47.012  -130.673
5.86079     47.273  -132.164
5.94604     47.455  -133.648
6.03252     47.592  -134.825
6.12027     47.692  -135.410
6.20929     47.754  -135.500
6.29961     47.819  -135.213
6.39124     47.967  -134.575
6.48420     48.218  -133.577
6.57851     48.551  -132.394
6.67420     48.946  -131.391
6.77128     49.398  -130.807
6.86977     49.904  -130.628
6.96969     50.433  -130.812
7.07107     50.938  -131.376
7.17392     51.404  -132.318
7.27827     51.835  -133.513
7.38413     52.225  -134.782
7.49154     52.570  -136.058
7.60050     52.870  -137.330
7.71105     53.151  -138.489
7.82321     53.420  -139.493
7.93701     53.683  -140.365
8.05245     53.949  -141.135
8.16958     54.229  -141.827
8.28841     54.519  -142.469
8.40896     54.815  -143.107
8.53128     55.114  -143.779
8.65537     55.411  -144.464
8.78126     55.702  -145.139
8.90899     55.981  -145.786
9.03857     56.256  -146.386
9.17004     56.531  -146.887
9.30342     56.809  -147.305
9.43874     57.101  -147.668
9.57603     57.413  -147.998
9.71532     57.740  -148.348
9.85663     58.079  -148.774
10.0000     58.427  -149.279
10.1455     58.770  -149.873
10.2930     59.101  -150.536
10.4427     59.422  -151.210
10.5946     59.731  -151.864
10.7487     60.035  -152.488
10.9051     60.343  -153.072
11.0637     60.652  -153.636
11.2246     60.965  -154.203
11.3879     61.277  -154.770
11.5535     61.583  -155.318
11.7216     61.885  -155.846
11.8921     62.193  -156.310
12.0650     62.504  -156.755
12.2405     62.834  -157.218
12.4186     63.173  -157.724
12.5992     63.515  -158.348
12.7825     63.849  -159.041
12.9684     64.159  -159.749
13.1570     64.467  -160.453
13.3484     64.768  -161.043
13.5426     65.085  -161.601
13.7395     65.427  -162.226
13.9394     65.787  -163.049
14.1421     66.127  -164.158
14.3478     66.441  -165.383
14.5565     66.684  -166.633
14.7683     66.878  -167.700
14.9831     67.055  -168.372
15.2010     67.275  -168.770
15.4221     67.548  -169.158
15.6464     67.848  -169.732
15.8740     68.137  -170.527
16.1049     68.387  -171.435
16.3392     68.604  -172.317
16.5768     68.808  -173.101
16.8179     69.007  -173.796
17.0626     69.190  -174.399
17.3107     69.348  -174.807
17.5625     69.500  -174.901
17.8180     69.689  -174.683
18.0771     69.943  -174.341
18.3401     70.253  -174.104
18.6068     70.589  -174.111
18.8775     70.930  -174.366
19.1521     71.262  -174.814
19.4306     71.577  -175.374
19.7133     71.871  -175.951
20.0000     72.155  -176.473
20.2909     72.446  -176.938
20.5860     72.750  -177.421
20.8855     73.056  -177.969
21.1893     73.358  -178.571
21.4975     73.655  -179.201
21.8102     73.953  -179.844
22.1274     74.248   179.476
22.4492     74.540   178.777
22.7758     74.825   178.063
23.1071     75.105   177.353
23.4432     75.383   176.657
23.7841     75.659   175.971
24.1301     75.933   175.290
24.4811     76.203   174.637
24.8372     76.471   174.023
25.1984     76.748   173.447
25.5649     77.031   172.864
25.9368     77.316   172.266
26.3141     77.602   171.670
26.6968     77.895   171.077
27.0851     78.198   170.445
27.4791     78.503   169.704
27.8788     78.798   168.877
28.2843     79.074   168.055
28.6957     79.345   167.285
29.1131     79.618   166.560
29.5365     79.897   165.836
29.9661     80.169   165.123
30.4020     80.449   164.445
30.8442     80.741   163.740
31.2929     81.034   162.985
31.7480     81.328   162.177
32.2098     81.622   161.316
32.6783     81.912   160.397
33.1536     82.193   159.434
33.6359     82.467   158.447
34.1251     82.731   157.445
34.6215     82.981   156.474
35.1250     83.223   155.596
35.6359     83.471   154.816
36.1543     83.730   154.085
36.6802     83.998   153.368
37.2137     84.279   152.649
37.7550     84.573   151.883
38.3041     84.872   151.058
38.8613     85.174   150.146
39.4265     85.475   149.198
40.0000     85.781   148.201
40.5818     86.088   147.108
41.1721     86.390   145.933
41.7710     86.682   144.703
42.3785     86.964   143.468
42.9949     87.244   142.257
43.6203     87.526   141.050
44.2548     87.816   139.810
44.8985     88.113   138.495
45.5515     88.412   137.007
46.2141     88.694   135.268
46.8863     88.915   133.338
47.5683     89.059   131.574
48.2602     89.164   130.395
48.9621     89.325   129.736
49.6743     89.540   129.155
50.3968     89.800   128.507
51.1299     90.087   127.730
51.8736     90.390   126.753
52.6281     90.692   125.599
53.3936     90.987   124.336
54.1702     91.274   123.011
54.9581     91.556   121.641
55.7575     91.835   120.226
56.5685     92.112   118.768
57.3914     92.388   117.264
58.2261     92.663   115.693
59.0730     92.930   114.045
59.9323     93.186   112.374
60.8040     93.443   110.667
61.6884     93.689   108.870
62.5857     93.922   107.074
63.4960     94.155   105.299
64.4196     94.396   103.469
65.3566     94.638   101.476
66.3073     94.860    99.254
67.2717     95.035    96.883
68.2502     95.151    94.578
69.2429     95.224    92.589
70.2501     95.299    91.079
71.2719     95.438    89.844
72.3086     95.640    88.384
73.3603     95.847    86.523
74.4274     96.023    84.433
75.5099     96.167    82.273
76.6083     96.287    80.100
77.7226     96.387    77.922
78.8531     96.465    75.753
80.0000     96.520    73.612
81.1636     96.547    71.474
82.3442     96.529    69.466
83.5419     96.487    67.815
84.7570     96.459    66.496
85.9899     96.462    65.365
87.2406     96.500    64.294
88.5096     96.565    63.180
89.7970     96.655    61.873
91.1031     96.740    60.353
92.4282     96.798    58.662
93.7726     96.824    56.977
95.1366     96.830    55.391
96.5204     96.830    53.871
97.9243     96.819    52.365
99.3486     96.794    50.913
100.794     96.759    49.530
102.260     96.707    48.228
103.747     96.646    47.099
105.256     96.593    46.160
106.787     96.558    45.299
108.340     96.540    44.406
109.916     96.519    43.430
111.515     96.484    42.440
113.137     96.430    41.498
114.783     96.358    40.681
116.452     96.297    40.220
118.146     96.264    39.829
119.865     96.272    39.366
121.608     96.291    38.813
123.377     96.312    38.048
125.171     96.319    37.167
126.992     96.281    36.219
128.839     96.210    35.640
130.713     96.142    35.423
132.615     96.124    35.247
134.543     96.156    34.965
136.500     96.198    34.464
138.486     96.228    33.769
140.500     96.236    33.048
142.544     96.241    32.390
144.617     96.254    31.580
146.721     96.217    30.460
148.855     96.110    29.615
151.020     95.989    29.306
153.217     95.916    29.374
155.445     95.901    29.374
157.706     95.902    29.192
160.000     95.923    28.964
162.327     95.943    28.259
164.688     95.886    27.500
167.084     95.798    27.087
169.514     95.711    26.887
171.980     95.628    26.892
174.481     95.574    27.113
177.019     95.560    27.271
179.594     95.548    27.268
182.206     95.529    27.313
184.856     95.516    27.449
187.545     95.525    27.660
190.273     95.577    27.792
193.041     95.649    27.504
195.849     95.671    26.771
198.697     95.604    26.176
201.587     95.518    26.173
204.520     95.477    26.503
207.494     95.493    26.844
210.512     95.547    26.962
213.574     95.610    26.849
216.681     95.681    26.523
219.833     95.753    25.936
223.030     95.762    24.818
226.274     95.695    23.696
229.565     95.550    22.847
232.905     95.375    22.586
236.292     95.247    22.779
239.729     95.171    22.872
243.216     95.058    22.593
246.754     94.869    22.684
250.343     94.702    23.448
253.984     94.582    24.541
257.678     94.547    25.909
261.426     94.573    27.167
265.229     94.640    28.423
269.087     94.796    29.693
273.001     95.019    29.925
276.972     95.159    29.348
281.000     95.179    28.900
285.088     95.166    28.854
289.234     95.198    29.238
293.441     95.289    29.429
297.709     95.397    29.196
302.040     95.476    28.545
306.433     95.490    27.718
310.890     95.460    27.036
315.412     95.396    26.453
320.000     95.311    26.131
324.655     95.248    26.117
329.377     95.215    26.003
334.168     95.179    25.810
339.028     95.143    25.612
343.959     95.105    25.390
348.962     95.065    25.162
354.038     95.025    24.906
359.188     94.978    24.638
364.412     94.928    24.380
369.713     94.876    24.131
375.090     94.821    23.893
380.546     94.763    23.666
386.081     94.704    23.448
391.697     94.640    23.244
397.394     94.575    23.048
403.175     94.506    22.867
409.039     94.433    22.698
414.989     94.357    22.545
421.025     94.277    22.408
427.149     94.194    22.288
433.362     94.106    22.190
439.665     94.013    22.114
446.060     93.916    22.062
452.548     93.815    22.038
459.131     93.709    22.049
465.809     93.598    22.091
472.584     93.482    22.175
479.458     93.362    22.302
486.432     93.238    22.470
493.507     93.109    22.696
500.686     92.977    22.978
507.968     92.842    23.317
515.357     92.704    23.724
522.853     92.564    24.201
530.458     92.424    24.745
538.174     92.283    25.364
546.002     92.143    26.062
553.943     92.005    26.838
562.001     91.870    27.690
570.175     91.738    28.607
578.469     91.613    29.611
586.883     91.493    30.683
595.419     91.381    31.820
604.080     91.275    33.013
612.866     91.178    34.267
621.780     91.090    35.573
630.824     91.012    36.933
640.000     90.943    38.334
649.309     90.885    39.780
658.753     90.838    41.265
668.335     90.802    42.784
678.056     90.778    44.336
687.919     90.768    45.916
697.925     90.772    47.518
708.077     90.792    49.134
718.376     90.829    50.752
728.825     90.884    52.356
739.426     90.959    53.927
750.181     91.054    55.440
761.093     91.169    56.865
772.163     91.304    58.168
783.394     91.451    59.334
794.789     91.611    60.343
806.349     91.778    61.163
818.078     91.947    61.778
829.977     92.113    62.189
842.050     92.270    62.394
854.298     92.411    62.387
866.724     92.530    62.187
879.330     92.623    61.828
892.120     92.678    61.308
905.097     92.701    60.699
918.262     92.679    60.015
931.618     92.614    59.313
945.169     92.502    58.641
958.917     92.343    58.059
972.864     92.136    57.633
987.015     91.887    57.425
1001.37     91.597    57.522
1015.94     91.282    57.961
1030.71     90.950    58.801
1045.71     90.620    60.072
1060.92     90.307    61.715
1076.35     90.029    63.689
1092.00     89.795    65.863
1107.89     89.606    68.095
1124.00     89.453    70.241
1140.35     89.316    72.240
1156.94     89.166    74.016
1173.77     88.994    75.693
1190.84     88.735    77.436
1208.16     88.441    79.308
1225.73     88.049    81.931
1243.56     87.615    85.304
1261.65     87.190    90.226
1280.00     86.873    96.590
1298.62     86.975   104.520
1317.51     87.128   112.437
1336.67     87.794   119.465
1356.11     88.658   124.725
1375.84     89.599   127.978
1395.85     90.510   129.442
1416.15     91.296   129.321
1436.75     91.997   128.566
1457.65     92.523   126.998
1478.85     92.918   125.127
1500.36     93.175   123.151
1522.19     93.293   121.346
1544.33     93.313   119.893
1566.79     93.264   118.903
1589.58     93.178   118.426
1612.70     93.087   118.427
1636.16     93.019   118.781
1659.95     92.987   119.293
1684.10     92.988   119.756
1708.60     93.003   120.018
1733.45     93.004   120.028
1758.66     92.964   119.851
1784.24     92.867   119.637
1810.19     92.711   119.578
1836.52     92.511   119.856
1863.24     92.295   120.576
1890.34     92.099   121.723
1917.83     91.953   123.143
1945.73     91.870   124.584
1974.03     91.839   125.792
2002.74     91.828   126.562
2031.87     91.799   126.927
2061.43     91.722   126.977
2091.41     91.582   126.899
2121.83     91.378   126.871
2152.69     91.121   127.055
2184.01     90.840   127.385
2215.77     90.533   127.941
2248.00     90.212   128.579
2280.70     89.863   129.302
2313.87     89.474   130.128
2347.53     89.035   131.158
2381.68     88.540   132.593
2416.32     88.004   134.500
2451.46     87.437   137.285
2487.12     86.881   140.924
2523.30     86.417   145.847
2560.00     86.133   151.655
2597.24     86.111   157.769
2635.01     86.357   163.302
2673.34     86.814   167.058
2712.23     87.313   169.157
2751.68     87.735   169.452
2791.70     88.017   168.712
2832.31     88.129   167.363
2873.50     88.107   165.814
2915.30     87.950   164.229
2957.70     87.656   162.800
3000.72     87.215   161.822
3044.37     86.639   162.136
3088.65     86.081   164.439
3133.58     85.746   168.319
3179.16     85.820   172.404
3225.40     86.181   174.960
3272.31     86.629   175.332
3319.91     86.967   174.061
3368.20     87.133   172.251
3417.19     87.192   170.770
3466.89     87.261   169.829
3517.32     87.419   169.028
3568.48     87.667   167.849
3620.39     87.963   166.072
3673.05     88.283   163.673
3726.47     88.612   160.559
3780.67     88.900   156.484
3835.67     89.114   151.748
3891.46     89.131   146.423
3948.06     89.012   141.028
4005.49     88.662   136.212
4063.75     88.123   132.413
4122.86     87.406   130.649
4182.82     86.701   132.328
4243.66     86.472   137.446
4305.39     86.931   142.085
4368.01     87.714   143.280
4431.55     88.291   141.485
4496.01     88.570   139.258
4561.40     88.628   137.742
4627.75     88.578   136.931
4695.06     88.392   137.401
4763.35     88.218   140.165
4832.64     88.414   145.263
4902.93     89.199   149.177
4974.24     90.145   150.408
5046.60     91.024   149.233
5120.00     91.810   146.681
5194.47     92.428   142.565
5270.03     92.746   137.377
5346.68     92.768   132.158
5424.45     92.562   127.352
5503.35     92.136   123.044
5583.40     91.465   119.785
5664.61     90.636   118.395
5747.01     89.750   118.662
5830.60     88.895   121.125
5915.41     88.246   125.918
6001.45     88.112   131.273
6088.74     88.150   133.905
6177.30     88.096   136.521
6267.15     88.221   139.379
6358.31     88.462   140.594
6450.80     88.633   140.604
6544.62     88.695   139.766
6639.82     88.560   138.162
6736.40     88.080   137.103
6834.38     87.419   139.022
6933.79     87.089   143.993
7034.64     87.351   148.544
7136.96     87.883   149.900
7240.77     88.285   148.248
7346.09     88.298   144.891
7452.94     87.797   142.145
7561.35     87.014   142.940
7671.33     86.479   146.692
7782.91     86.355   150.762
7896.12     86.401   152.677
8010.97     86.116   154.320
8127.49     85.823   159.429
8245.71     86.102   166.124
8365.65     86.901   170.280
8487.33     87.719   170.645
8610.78     88.148   168.642
8736.03     88.186   167.407
8863.09     88.254   167.920
8992.01     88.591   168.140
9122.80     88.851   165.712
9255.50     88.662   161.975
9390.12     87.904   159.955
9526.70     86.991   162.911
9665.27     86.607   169.414
9805.86     86.948   175.280
9948.49     87.585   176.925
10093.2     87.885   175.424
10240.0     87.867   173.715
10388.9     87.708   172.653
10540.1     87.501   171.338
10693.4     87.085   169.715
10848.9     86.369   168.879
11006.7     85.457   171.078
11166.8     84.845   176.003
11329.2     84.720   179.770
11494.0     84.587  -178.581
11661.2     84.176  -175.323
11830.8     84.089  -172.235
12002.9     84.271  -173.360
12177.5     83.767  -176.882
12354.6     82.257  -174.855
12534.3     81.224  -166.259
12716.6     81.449  -157.748
12901.6     81.558  -155.844
13089.2     81.265  -155.528
13279.6     80.809  -154.164
13472.8     80.048  -151.477
13668.8     79.156  -144.050
13867.6     79.128  -132.673
14069.3     79.882  -127.471
14273.9     80.397  -128.010
14481.5     80.254  -128.543
14692.2     80.148  -127.556
14905.9     80.022  -128.825
15122.7     79.648  -131.121
15342.7     79.027  -134.664
15565.8     77.995  -140.144
15792.2     76.013  -145.826
16021.9     73.173  -148.406
16255.0     69.532  -147.322
16491.4     65.282  -125.882
16731.3     64.353   -56.790
16974.7     64.706   -41.845
17221.6     65.369   -10.275
17472.1     68.265    11.210
17726.2     70.637    12.998
17984.0     71.666    11.076
18245.6     72.015    12.953
18511.0     72.245    16.703
18780.2     72.188    23.255
19053.4     72.613    34.373
19330.5     73.845    43.197
19611.7     75.087    46.039
19897.0     75.618    45.543
20186.4     75.512    48.050
20480.0     75.761    53.392
20777.9     76.423    56.047
21080.1     76.708    54.631
21386.7     76.299    53.276
21697.8     75.797    55.768
22013.4     75.448    57.005
22333.6     74.623    55.874
22658.4     73.040    57.640
22988.0     71.166    70.580
23322.4     71.185    87.997
23661.6     71.810    91.749
24005.8     71.299    89.818
24355.0     69.821    94.692
24709.2     69.170   100.383
25068.6     68.114    91.091
25433.2     65.564    67.024
25803.2     63.401   -16.904
26178.5     67.743   -65.517
26559.3     72.214   -80.524
26945.6     75.058   -93.443
27337.5     76.728  -102.703
27735.2     78.087  -109.313
28138.6     79.191  -115.107
28547.9     79.966  -121.312
28963.1     79.960  -127.838
29384.4     79.278  -131.645
29811.8     78.441  -133.685
30245.4     77.436  -134.660
30685.3     76.284  -133.602
31131.7     75.409  -131.201
31584.5     74.420  -128.947
32043.9     73.318  -124.504
32510.0     72.506  -121.838
32982.8     70.675  -122.662
33462.6     67.395  -114.867
33949.3     64.180   -95.036
34443.1     62.268   -68.449
34944.1     61.835   -44.168
35452.4     61.711   -25.856
35968.0     61.433    -6.517
36491.2     61.753    11.378
37022.0     62.093    22.490
37560.5     62.117    29.335
38106.8     61.221    33.506
38661.1     59.388    44.760
39223.4     58.078    67.435
39793.9     57.613    92.111
