Freq[Hz]     dBSPL  Phase[Deg]
5.00000     42.463  -138.797
5.07273     42.808  -138.985
5.14651     43.152  -139.175
5.22137     43.511  -134.998
5.29732     43.885  -131.233
5.37437     44.303  -128.804
5.45254     44.834  -127.786
5.53185     45.464  -127.883
5.61231     46.091  -128.531
5.69394     46.636  -129.450
5.77676     47.012  -130.673
5.86079     47.273  -132.164
5.94604     47.455  -133.648
6.03252     47.592  -134.825
6.12027     47.692  -135.410
6.20929     47.754  -135.500
6.29961     47.819  -135.213
6.39124     47.967  -134.575
6.48420     48.218  -133.577
6.57851     48.551  -132.394
6.67420     48.946  -131.391
6.77128     49.398  -130.807
6.86977     49.904  -130.628
6.96969     50.433  -130.812
7.07107     50.938  -131.376
7.17392     51.404  -132.318
7.27827     51.835  -133.513
7.38413     52.225  -134.782
7.49154     52.570  -136.058
7.60050     52.870  -137.330
7.71105     53.151  -138.489
7.82321     53.420  -139.493
7.93701     53.683  -140.365
8.05245     53.949  -141.135
8.16958     54.229  -141.827
8.28841     54.519  -142.469
8.40896     54.815  -143.107
8.53128     55.114  -143.779
8.65537     55.411  -144.464
8.78126     55.702  -145.139
8.90899     55.981  -145.786
9.03857     56.256  -146.386
9.17004     56.531  -146.887
9.30342     56.809  -147.305
9.43874     57.101  -147.668
9.57603     57.413  -147.998
9.71532     57.740  -148.348
9.85663     58.079  -148.774
10.0000     58.427  -149.279
10.1455     58.770  -149.873
10.2930     59.101  -150.536
10.4427     59.422  -151.210
10.5946     59.731  -151.864
10.7487     60.035  -152.488
10.9051     60.343  -153.072
11.0637     60.652  -153.636
11.2246     60.965  -154.203
11.3879     61.277  -154.770
11.5535     61.583  -155.318
11.7216     61.885  -155.846
11.8921     62.193  -156.310
12.0650     62.504  -156.755
12.2405     62.834  -157.218
12.4186     63.173  -157.724
12.5992     63.515  -158.348
12.7825     63.849  -159.041
12.9684     64.159  -159.749
13.1570     64.467  -160.453
13.3484     64.768  -161.043
13.5426     65.085  -161.601
13.7395     65.427  -162.226
13.9394     65.787  -163.049
14.1421     66.127  -164.158
14.3478     66.441  -165.383
14.5565     66.684  -166.633
14.7683     66.878  -167.700
14.9831     67.055  -168.372
15.2010     67.275  -168.770
15.4221     67.548  -169.158
15.6464     67.848  -169.732
15.8740     68.137  -170.527
16.1049     68.387  -171.435
16.3392     68.604  -172.317
16.5768     68.808  -173.101
16.8179     69.007  -173.796
17.0626     69.190  -174.399
17.3107     69.348  -174.807
17.5625     69.500  -174.901
17.8180     69.689  -174.683
18.0771     69.943  -174.341
18.3401     70.253  -174.104
18.6068     70.589  -174.111
18.8775     70.930  -174.366
19.1521     71.262  -174.814
19.4306     71.577  -175.374
19.7133     71.871  -175.951
20.0000     72.155  -176.473
20.2909     72.446  -176.938
20.5860     72.750  -177.421
20.8855     73.056  -177.969
21.1893     73.358  -178.571
21.4975     73.655  -179.201
21.8102     73.953  -179.844
22.1274     74.248   179.476
22.4492     74.540   178.777
22.7758     74.825   178.063
23.1071     75.105   177.353
23.4432     75.383   176.657
23.7841     75.659   175.971
24.1301     75.933   175.290
24.4811     76.203   174.637
24.8372     76.471   174.023
25.1984     76.748   173.447
25.5649     77.031   172.864
25.9368     77.316   172.266
26.3141     77.602   171.670
26.6968     77.895   171.077
27.0851     78.198   170.445
27.4791     78.503   169.704
27.8788     78.798   168.877
28.2843     79.074   168.055
28.6957     79.345   167.285
29.1131     79.618   166.560
29.5365     79.897   165.836
29.9661     80.169   165.123
30.4020     80.449   164.445
30.8442     80.741   163.740
31.2929     81.034   162.985
31.7480     81.328   162.177
32.2098     81.622   161.316
32.6783     81.912   160.397
33.1536     82.193   159.434
33.6359     82.467   158.447
34.1251     82.731   157.445
34.6215     82.981   156.474
35.1250     83.223   155.596
35.6359     83.471   154.816
36.1543     83.730   154.085
36.6802     83.998   153.368
37.2137     84.279   152.649
37.7550     84.573   151.883
38.3041     84.872   151.058
38.8613     85.174   150.146
39.4265     85.475   149.198
40.0000     85.781   148.201
40.5818     86.088   147.102
41.1721     86.386   145.906
41.7710     86.675   144.644
42.3785     86.952   143.365
42.9949     87.224   142.098
43.6203     87.499   140.823
44.2548     87.778   139.505
44.8985     88.064   138.101
45.5515     88.350   136.514
46.2141     88.618   134.666
46.8863     88.823   132.618
47.5683     88.950   130.725
48.2602     89.037   129.409
48.9621     89.178   128.603
49.6743     89.371   127.867
50.3968     89.608   127.056
51.1299     89.871   126.107
51.8736     90.149   124.949
52.6281     90.425   123.607
53.3936     90.691   122.149
54.1702     90.949   120.619
54.9581     91.201   119.039
55.7575     91.448   117.404
56.5685     91.692   115.721
57.3914     91.935   113.983
58.2261     92.174   112.171
59.0730     92.404   110.274
59.9323     92.624   108.348
60.8040     92.842   106.377
61.6884     93.048   104.310
62.5857     93.240   102.237
63.4960     93.432   100.177
64.4196     93.629    98.055
65.3566     93.828    95.763
66.3073     94.005    93.233
67.2717     94.135    90.548
68.2502     94.204    87.922
69.2429     94.230    85.603
70.2501     94.256    83.755
71.2719     94.346    82.176
72.3086     94.498    80.363
73.3603     94.653    78.142
74.4274     94.778    75.683
75.5099     94.869    73.146
76.6083     94.936    70.587
77.7226     94.982    68.016
78.8531     95.005    65.445
80.0000     95.004    62.892
81.1636     94.976    60.333
82.3442     94.901    57.896
83.5419     94.802    55.806
84.7570     94.716    54.038
85.9899     94.661    52.448
87.2406     94.639    50.909
88.5096     94.645    49.316
89.7970     94.674    47.519
91.1031     94.699    45.499
92.4282     94.697    43.297
93.7726     94.661    41.089
95.1366     94.606    38.970
96.5204     94.542    36.903
97.9243     94.469    34.840
99.3486     94.382    32.818
100.794     94.283    30.852
102.260     94.168    28.955
103.747     94.043    27.217
105.256     93.926    25.655
106.787     93.827    24.158
108.340     93.744    22.616
109.916     93.658    20.974
111.515     93.558    19.304
113.137     93.439    17.667
114.783     93.303    16.141
116.452     93.176    14.953
118.146     93.078    13.820
119.865     93.021    12.597
121.608     92.974    11.269
123.377     92.930     9.711
125.171     92.871     8.021
126.992     92.768     6.244
128.839     92.632     4.817
130.713     92.500     3.735
132.615     92.416     2.676
134.543     92.383     1.491
136.500     92.360     0.066
138.486     92.325    -1.572
140.500     92.269    -3.256
142.544     92.210    -4.898
144.617     92.159    -6.713
146.721     92.058    -8.859
148.855     91.887   -10.751
151.020     91.703   -12.129
153.217     91.566   -13.152
155.445     91.489   -14.265
157.706     91.427   -15.583
160.000     91.386   -16.968
162.327     91.344   -18.855
164.688     91.226   -20.819
167.084     91.077   -22.458
169.514     90.929   -23.909
171.980     90.784   -25.178
174.481     90.671   -26.253
177.019     90.596   -27.416
179.594     90.525   -28.762
182.206     90.447   -30.084
184.856     90.375   -31.339
187.545     90.325   -32.541
190.273     90.319   -33.845
193.041     90.334   -35.593
195.849     90.297   -37.807
198.697     90.174   -39.907
201.587     90.030   -41.436
204.520     89.931   -42.653
207.494     89.891   -43.880
210.512     89.888   -45.350
213.574     89.894   -47.069
216.681     89.908   -49.026
219.833     89.922   -51.255
223.030     89.874   -54.041
226.274     89.751   -56.843
229.565     89.548   -59.389
232.905     89.314   -61.362
236.292     89.128   -62.897
239.729     88.994   -64.545
243.216     88.822   -66.576
246.754     88.573   -68.249
250.343     88.345   -69.259
253.984     88.165   -69.949
257.678     88.064   -70.394
261.426     88.024   -70.964
265.229     88.024   -71.534
269.087     88.112   -72.084
273.001     88.266   -73.660
276.972     88.335   -76.027
281.000     88.285   -78.249
285.088     88.200   -80.047
289.234     88.156   -81.403
293.441     88.171   -82.939
297.709     88.200   -84.892
302.040     88.195   -87.260
306.433     88.121   -89.825
310.890     87.994   -92.267
315.412     87.827   -94.633
320.000     87.633   -96.755
324.655     87.453   -98.587
329.377     87.294  -100.533
334.168     87.125  -102.570
339.028     86.947  -104.619
343.959     86.758  -106.697
348.962     86.560  -108.782
354.038     86.349  -110.892
359.188     86.123  -113.004
364.412     85.883  -115.094
369.713     85.631  -117.153
375.090     85.365  -119.174
380.546     85.084  -121.141
386.081     84.792  -123.063
391.697     84.482  -124.902
397.394     84.164  -126.686
403.175     83.828  -128.364
409.039     83.480  -129.939
414.989     83.120  -131.390
421.025     82.747  -132.692
427.149     82.364  -133.846
433.362     81.974  -134.805
439.665     81.577  -135.547
446.060     81.180  -136.076
452.548     80.785  -136.347
459.131     80.400  -136.321
465.809     80.029  -136.040
472.584     79.684  -135.452
479.458     79.370  -134.598
486.432     79.091  -133.516
493.507     78.865  -132.210
500.686     78.695  -130.775
507.968     78.579  -129.286
515.357     78.526  -127.839
522.853     78.530  -126.526
530.458     78.583  -125.407
538.174     78.680  -124.554
546.002     78.815  -124.030
553.943     78.975  -123.840
562.001     79.152  -123.982
570.175     79.340  -124.411
578.469     79.531  -125.213
586.883     79.719  -126.295
595.419     79.901  -127.631
604.080     80.073  -129.188
612.866     80.233  -130.965
621.780     80.378  -132.930
630.824     80.505  -135.073
640.000     80.617  -137.347
649.309     80.710  -139.752
658.753     80.786  -142.258
668.335     80.846  -144.848
678.056     80.889  -147.509
687.919     80.917  -150.228
697.925     80.929  -152.994
708.077     80.928  -155.798
718.376     80.914  -158.632
728.825     80.888  -161.490
739.426     80.851  -164.368
750.181     80.804  -167.264
761.093     80.748  -170.179
772.163     80.683  -173.113
783.394     80.611  -176.067
794.789     80.533  -179.044
806.349     80.448   177.951
818.078     80.356   174.912
829.977     80.257   171.838
842.050     80.151   168.726
854.298     80.037   165.570
866.724     79.913   162.370
879.330     79.782   159.131
892.120     79.637   155.850
905.097     79.483   152.541
918.262     79.316   149.206
931.618     79.136   145.858
945.169     78.942   142.508
958.917     78.735   139.172
972.864     78.514   135.866
987.015     78.280   132.605
1001.37     78.034   129.414
1015.94     77.777   126.306
1030.71     77.511   123.300
1045.71     77.238   120.426
1060.92     76.960   117.686
1076.35     76.683   115.112
1092.00     76.408   112.724
1107.89     76.141   110.530
1124.00     75.889   108.574
1140.35     75.656   106.822
1156.94     75.459   105.360
1173.77     75.287   104.059
1190.84     75.184   103.031
1208.16     75.110   102.071
1225.73     75.119   101.161
1243.56     75.181   100.174
1261.65     75.318    98.896
1280.00     75.508    97.236
1298.62     75.762    94.720
1317.51     76.020    92.112
1336.67     76.309    88.500
1356.11     76.595    84.244
1375.84     76.868    79.346
1395.85     77.112    73.856
1416.15     77.311    67.764
1436.75     77.480    61.393
1457.65     77.588    54.588
1478.85     77.650    47.550
1500.36     77.657    40.334
1522.19     77.606    33.040
1544.33     77.509    25.779
1566.79     77.375    18.634
1589.58     77.213    11.677
1612.70     77.035     4.951
1636.16     76.855    -1.528
1659.95     76.686    -7.808
1684.10     76.540   -13.982
1708.60     76.425   -20.204
1733.45     76.341   -26.653
1758.66     76.283   -33.497
1784.24     76.243   -40.852
1810.19     76.208   -48.779
1836.52     76.165   -57.267
1863.24     76.103   -66.256
1890.34     76.014   -75.654
1917.83     75.892   -85.346
1945.73     75.738   -95.203
1974.03     75.553  -105.106
2002.74     75.345  -114.934
2031.87     75.123  -124.612
2061.43     74.898  -134.090
2091.41     74.682  -143.390
2121.83     74.485  -152.580
2152.69     74.316  -161.809
2184.01     74.164  -171.130
2215.77     74.040   179.234
2248.00     73.930   169.393
2280.70     73.835   159.271
2313.87     73.754   148.975
2347.53     73.694   138.584
2381.68     73.667   128.078
2416.32     73.672   117.359
2451.46     73.723   105.996
2487.12     73.803    93.782
2523.30     73.898    79.965
2560.00     73.976    64.513
2597.24     74.006    47.225
2635.01     73.964    28.178
2673.34     73.811     7.184
2712.23     73.564   -15.211
2751.68     73.201   -39.196
2791.70     72.754   -64.368
2832.31     72.248   -90.577
2873.50     71.725  -117.374
2915.30     71.201  -144.505
2957.70     70.682  -171.705
3000.72     70.151   161.283
3044.37     69.531   134.637
3088.65     68.721   108.276
3133.58     67.637    82.043
3179.16     66.122    55.855
3225.40     64.258    30.010
3272.31     62.731    43.064
3319.91     62.832    97.790
3368.20     64.791   121.160
3417.19     67.171    94.748
3466.89     69.054    67.699
3517.32     70.324    41.136
3568.48     71.048    15.714
3620.39     71.310    -7.971
3673.05     71.182   -29.498
3726.47     70.729   -48.757
3780.67     70.014   -65.225
3835.67     69.220   -78.271
3891.46     68.744   -78.558
3948.06     68.719   -66.779
4005.49     69.660   -62.252
4063.75     70.906   -75.712
4122.86     71.954   -97.881
4182.82     72.561  -123.180
4243.66     72.645  -149.720
4305.39     72.205  -177.386
4368.01     71.128   152.642
4431.55     69.157   118.063
4496.01     66.098    76.186
4561.40     62.016     9.811
4627.75     59.835   -87.922
4695.06     62.342  -160.137
4763.35     64.332   149.588
4832.64     64.742   105.180
4902.93     63.665    61.804
4974.24     61.597    15.438
5046.60     59.288   -39.810
5120.00     58.579   -99.478
5194.47     59.895  -153.082
5270.03     61.693   172.079
5346.68     63.490   158.223
5424.45     65.260   145.352
5503.35     66.633   116.878
5583.40     67.114    80.798
5664.61     66.492    47.344
5747.01     65.208    25.118
5830.60     63.961    21.991
5915.41     63.654    35.075
6001.45     64.748    32.205
6088.74     65.769     5.519
6177.30     66.062   -23.997
6267.15     66.057   -40.146
6358.31     66.336   -50.894
6450.80     66.536   -76.539
6544.62     65.892  -116.688
6639.82     63.846  -159.123
6736.40     61.087  -158.682
6834.38     59.940  -123.691
6933.79     61.010  -160.136
7034.64     61.441   139.204
7136.96     60.634    67.335
7240.77     59.542    -8.526
7346.09     59.160   -70.200
7452.94     59.537  -111.483
7561.35     60.047  -145.736
7671.33     60.441  -173.640
7782.91     60.828   164.226
7896.12     61.287   138.934
8010.97     61.515   112.029
8127.49     61.344    83.791
8245.71     60.288    44.131
8365.65     58.098    16.883
8487.33     56.062     8.003
8610.78     54.415   -32.270
8736.03     52.077  -104.701
8863.09     51.114   157.572
8992.01     52.840    76.858
9122.80     54.534    33.295
9255.50     55.345    -7.209
9390.12     54.473   -71.169
9526.70     51.385  -153.939
9665.27     48.455    86.190
9805.86     48.615   -38.226
9948.49     49.234  -122.672
10093.2     48.706  -141.895
10240.0     47.782   147.445
10388.9     47.444   -17.529
10540.1     47.760    70.279
10693.4     47.017   113.999
10848.9     45.734    -1.458
11006.7     46.435    91.864
11166.8     46.870    61.805
11329.2     45.115  -108.256
11494.0     43.360    54.506
11661.2     44.241   -84.889
11830.8     46.200  -157.718
12002.9     47.871   -40.635
12177.5     47.956  -109.260
12354.6     45.650   -50.757
12534.3     42.107   -99.519
12716.6     38.599   -27.709
12901.6     38.792  -131.791
13089.2     40.863  -154.584
13279.6     43.594    57.571
13472.8     45.709     3.889
13668.8     46.520   139.179
13867.6     46.527  -179.253
14069.3     45.583   164.205
14273.9     43.908  -162.454
14481.5     42.319   -32.452
14692.2     43.213   -45.204
14905.9     45.356    50.231
15122.7     47.273    56.152
15342.7     48.446    26.616
15565.8     48.826    58.718
15792.2     47.932    -3.170
16021.9     45.628   -97.715
16255.0     42.008   -25.029
16491.4     39.489  -152.714
16731.3     40.031   -26.144
16974.7     41.650   -66.816
17221.6     43.788    20.029
17472.1     44.688   146.996
17726.2     43.992  -152.706
17984.0     42.524   -79.883
18245.6     40.395    15.906
18511.0     37.280     0.457
18780.2     34.911   -43.771
19053.4     35.792   149.802
19330.5     37.289    63.333
19611.7     37.944    43.930
19897.0     37.825    10.447
20186.4     35.883   -88.278
20480.0     33.614   -17.819
20777.9     32.423    30.111
21080.1     31.948   -65.973
21386.7     33.543   109.595
21697.8     36.387   157.072
22013.4     37.200     6.767
22333.6     34.968    16.443
22658.4     31.837    26.412
22988.0     31.926    12.181
23322.4     36.120    41.475
23661.6     39.296   -85.771
24005.8     41.561  -121.002
24355.0     41.664   116.358
24709.2     38.853   -18.110
25068.6     37.124    79.821
25433.2     38.642   -74.585
25803.2     40.761    52.070
26178.5     41.584   151.761
26559.3     39.726  -150.636
26945.6     36.422   -98.686
27337.5     34.886   -27.435
27735.2     34.708   -59.134
28138.6     35.251  -103.851
28547.9     35.428  -130.740
28963.1     33.863  -177.218
29384.4     30.749  -179.138
29811.8     30.035  -146.087
30245.4     31.714   147.163
30685.3     34.098   -34.479
31131.7     33.739   119.861
31584.5     33.791  -128.300
32043.9     36.210    18.606
32510.0     38.075   -66.591
32982.8     37.763   168.318
33462.6     34.821    93.228
33949.3     29.669   -74.864
34443.1     25.827    -8.034
34944.1     23.123    -8.282
35452.4     21.938   -30.515
35968.0     21.084   -23.258
36491.2     20.524    -8.748
37022.0     20.307    -9.733
37560.5     19.885     5.416
38106.8     19.694   143.111
38661.1     19.844    14.377
39223.4     20.872   -89.021
39793.9     21.922   -56.508
