Freq[Hz]     dBSPL  Phase[Deg]
5.00000     42.463  -138.797
5.07273     42.808  -138.985
5.14651     43.152  -139.175
5.22137     43.511  -134.998
5.29732     43.885  -131.233
5.37437     44.303  -128.804
5.45254     44.834  -127.786
5.53185     45.464  -127.883
5.61231     46.091  -128.531
5.69394     46.636  -129.450
5.77676     47.012  -130.673
5.86079     47.273  -132.164
5.94604     47.455  -133.648
6.03252     47.592  -134.825
6.12027     47.692  -135.410
6.20929     47.754  -135.500
6.29961     47.819  -135.213
6.39124     47.967  -134.575
6.48420     48.218  -133.577
6.57851     48.551  -132.394
6.67420     48.946  -131.391
6.77128     49.398  -130.807
6.86977     49.904  -130.628
6.96969     50.433  -130.812
7.07107     50.938  -131.376
7.17392     51.404  -132.318
7.27827     51.835  -133.513
7.38413     52.225  -134.782
7.49154     52.570  -136.058
7.60050     52.870  -137.330
7.71105     53.151  -138.489
7.82321     53.420  -139.493
7.93701     53.683  -140.365
8.05245     53.949  -141.135
8.16958     54.229  -141.827
8.28841     54.519  -142.469
8.40896     54.815  -143.107
8.53128     55.114  -143.779
8.65537     55.411  -144.464
8.78126     55.702  -145.139
8.90899     55.981  -145.786
9.03857     56.256  -146.386
9.17004     56.531  -146.887
9.30342     56.809  -147.305
9.43874     57.101  -147.668
9.57603     57.413  -147.998
9.71532     57.740  -148.348
9.85663     58.079  -148.774
10.0000     58.427  -149.279
10.1455     58.770  -149.873
10.2930     59.101  -150.536
10.4427     59.422  -151.210
10.5946     59.731  -151.864
10.7487     60.035  -152.488
10.9051     60.343  -153.072
11.0637     60.652  -153.636
11.2246     60.965  -154.203
11.3879     61.277  -154.770
11.5535     61.583  -155.318
11.7216     61.885  -155.846
11.8921     62.193  -156.310
12.0650     62.504  -156.755
12.2405     62.834  -157.218
12.4186     63.173  -157.724
12.5992     63.515  -158.348
12.7825     63.849  -159.041
12.9684     64.159  -159.749
13.1570     64.467  -160.453
13.3484     64.768  -161.043
13.5426     65.085  -161.601
13.7395     65.427  -162.226
13.9394     65.787  -163.049
14.1421     66.127  -164.158
14.3478     66.441  -165.383
14.5565     66.684  -166.633
14.7683     66.878  -167.700
14.9831     67.055  -168.372
15.2010     67.275  -168.770
15.4221     67.548  -169.158
15.6464     67.848  -169.732
15.8740     68.137  -170.527
16.1049     68.387  -171.435
16.3392     68.604  -172.317
16.5768     68.808  -173.101
16.8179     69.007  -173.796
17.0626     69.190  -174.399
17.3107     69.348  -174.807
17.5625     69.500  -174.901
17.8180     69.689  -174.683
18.0771     69.943  -174.341
18.3401     70.253  -174.104
18.6068     70.589  -174.111
18.8775     70.930  -174.366
19.1521     71.262  -174.814
19.4306     71.577  -175.374
19.7133     71.871  -175.951
20.0000     72.155  -176.473
20.2909     72.446  -176.938
20.5860     72.750  -177.421
20.8855     73.056  -177.969
21.1893     73.358  -178.571
21.4975     73.655  -179.201
21.8102     73.953  -179.844
22.1274     74.248   179.476
22.4492     74.540   178.777
22.7758     74.825   178.063
23.1071     75.105   177.353
23.4432     75.383   176.657
23.7841     75.659   175.971
24.1301     75.933   175.290
24.4811     76.203   174.637
24.8372     76.471   174.023
25.1984     76.748   173.447
25.5649     77.031   172.864
25.9368     77.316   172.266
26.3141     77.602   171.670
26.6968     77.895   171.077
27.0851     78.198   170.445
27.4791     78.503   169.704
27.8788     78.798   168.877
28.2843     79.074   168.055
28.6957     79.345   167.285
29.1131     79.618   166.560
29.5365     79.897   165.836
29.9661     80.169   165.123
30.4020     80.449   164.445
30.8442     80.741   163.740
31.2929     81.034   162.985
31.7480     81.328   162.177
32.2098     81.622   161.316
32.6783     81.912   160.397
33.1536     82.193   159.434
33.6359     82.467   158.447
34.1251     82.731   157.445
34.6215     82.981   156.474
35.1250     83.223   155.596
35.6359     83.471   154.816
36.1543     83.730   154.085
36.6802     83.998   153.368
37.2137     84.279   152.649
37.7550     84.573   151.883
38.3041     84.872   151.058
38.8613     85.174   150.146
39.4265     85.475   149.198
40.0000     85.781   148.201
40.5818     86.088   147.106
41.1721     86.388   145.922
41.7710     86.678   144.679
42.3785     86.957   143.426
42.9949     87.233   142.192
43.6203     87.511   140.957
44.2548     87.795   139.686
44.8985     88.085   138.334
45.5515     88.377   136.806
46.2141     88.652   135.023
46.8863     88.864   133.046
47.5683     88.999   131.230
48.2602     89.095   129.996
48.9621     89.245   129.279
49.6743     89.449   128.637
50.3968     89.696   127.925
51.1299     89.971   127.081
51.8736     90.261   126.033
52.6281     90.550   124.807
53.3936     90.830   123.469
54.1702     91.102   122.065
54.9581     91.368   120.615
55.7575     91.632   119.118
56.5685     91.892   117.575
57.3914     92.151   115.984
58.2261     92.408   114.325
59.0730     92.657   112.585
59.9323     92.896   110.821
60.8040     93.134   109.019
61.6884     93.360   107.125
62.5857     93.573   105.231
63.4960     93.786   103.355
64.4196     94.005   101.424
65.3566     94.226    99.327
66.3073     94.427    97.000
67.2717     94.580    94.521
68.2502     94.674    92.109
69.2429     94.724    90.010
70.2501     94.775    88.388
71.2719     94.891    87.040
72.3086     95.069    85.466
73.3603     95.252    83.490
74.4274     95.404    81.282
75.5099     95.522    79.004
76.6083     95.617    76.710
77.7226     95.691    74.411
78.8531     95.743    72.119
80.0000     95.772    69.854
81.1636     95.774    67.591
82.3442     95.728    65.455
83.5419     95.660    63.677
84.7570     95.604    62.228
85.9899     95.580    60.966
87.2406     95.589    59.762
88.5096     95.627    58.515
89.7970     95.688    57.072
91.1031     95.745    55.416
92.4282     95.774    53.587
93.7726     95.771    51.762
95.1366     95.748    50.036
96.5204     95.717    48.373
97.9243     95.676    46.723
99.3486     95.622    45.126
100.794     95.555    43.595
102.260     95.473    42.145
103.747     95.381    40.867
105.256     95.297    39.776
106.787     95.231    38.762
108.340     95.180    37.715
109.916     95.127    36.582
111.515     95.060    35.434
113.137     94.973    34.332
114.783     94.869    33.355
116.452     94.774    32.731
118.146     94.708    32.175
119.865     94.682    31.546
121.608     94.667    30.825
123.377     94.653    29.891
125.171     94.624    28.839
126.992     94.551    27.719
128.839     94.445    26.965
130.713     94.341    26.572
132.615     94.286    26.219
134.543     94.281    25.757
136.500     94.285    25.075
138.486     94.277    24.198
140.500     94.248    23.293
142.544     94.214    22.449
144.617     94.188    21.453
146.721     94.111    20.145
148.855     93.963    19.111
151.020     93.801    18.611
153.217     93.686    18.487
155.445     93.629    18.295
157.706     93.587    17.919
160.000     93.564    17.497
162.327     93.539    16.597
164.688     93.438    15.642
167.084     93.304    15.035
169.514     93.170    14.639
171.980     93.039    14.448
174.481     92.937    14.474
177.019     92.873    14.438
179.594     92.810    14.241
182.206     92.739    14.094
184.856     92.674    14.039
187.545     92.630    14.062
190.273     92.627    14.008
193.041     92.644    13.537
195.849     92.607    12.625
198.697     92.482    11.854
201.587     92.336    11.679
204.520     92.233    11.843
207.494     92.186    12.025
210.512     92.177    11.990
213.574     92.175    11.731
216.681     92.178    11.268
219.833     92.181    10.552
223.030     92.120     9.317
226.274     91.983     8.088
229.565     91.765     7.144
232.905     91.514     6.802
236.292     91.310     6.930
239.729     91.158     6.974
243.216     90.965     6.663
246.754     90.697     6.741
250.343     90.448     7.512
253.984     90.247     8.635
257.678     90.128    10.055
261.426     90.069    11.391
265.229     90.051    12.751
269.087     90.122    14.154
273.001     90.261    14.551
276.972     90.316    14.167
281.000     90.255    13.942
285.088     90.162    14.148
289.234     90.115    14.822
293.441     90.130    15.336
297.709     90.165    15.456
302.040     90.174    15.190
306.433     90.121    14.784
310.890     90.025    14.562
315.412     89.900    14.476
320.000     89.758    14.684
324.655     89.643    15.237
329.377     89.564    15.722
334.168     89.488    16.155
339.028     89.419    16.610
343.959     89.356    17.061
348.962     89.301    17.523
354.038     89.252    17.967
359.188     89.206    18.404
364.412     89.167    18.848
369.713     89.136    19.292
375.090     89.111    19.729
380.546     89.094    20.150
386.081     89.083    20.553
391.697     89.079    20.921
397.394     89.078    21.266
403.175     89.082    21.565
409.039     89.090    21.823
414.989     89.099    22.034
421.025     89.109    22.193
427.149     89.118    22.308
433.362     89.127    22.369
439.665     89.132    22.379
446.060     89.134    22.345
452.548     89.130    22.265
459.131     89.120    22.141
465.809     89.104    21.986
472.584     89.078    21.799
479.458     89.044    21.590
486.432     89.001    21.365
493.507     88.947    21.131
500.686     88.882    20.899
507.968     88.807    20.675
515.357     88.720    20.471
522.853     88.624    20.297
530.458     88.517    20.160
538.174     88.402    20.070
546.002     88.277    20.040
553.943     88.146    20.074
562.001     88.010    20.179
570.175     87.870    20.347
578.469     87.729    20.606
586.883     87.588    20.937
595.419     87.451    21.335
604.080     87.317    21.791
612.866     87.191    22.298
621.780     87.072    22.841
630.824     86.963    23.399
640.000     86.863    23.953
649.309     86.773    24.476
658.753     86.690    24.949
668.335     86.611    25.352
678.056     86.535    25.669
687.919     86.457    25.887
697.925     86.374    25.999
708.077     86.281    26.003
718.376     86.173    25.901
728.825     86.046    25.703
739.426     85.897    25.421
750.181     85.721    25.073
761.093     85.511    24.684
772.163     85.265    24.287
783.394     84.983    23.917
794.789     84.663    23.608
806.349     84.301    23.406
818.078     83.897    23.364
829.977     83.453    23.523
842.050     82.971    23.938
854.298     82.453    24.683
866.724     81.907    25.813
879.330     81.343    27.340
892.120     80.770    29.398
905.097     80.202    31.860
918.262     79.655    34.832
931.618     79.140    38.226
945.169     78.667    41.982
958.917     78.245    46.030
972.864     77.873    50.294
987.015     77.551    54.708
1001.37     77.276    59.246
1015.94     77.044    63.892
1030.71     76.856    68.656
1045.71     76.723    73.528
1060.92     76.643    78.469
1076.35     76.630    83.398
1092.00     76.684    88.195
1107.89     76.796    92.736
1124.00     76.950    96.885
1140.35     77.122   100.668
1156.94     77.282   103.989
1173.77     77.423   107.100
1190.84     77.499   110.059
1208.16     77.550   113.057
1225.73     77.548   116.454
1243.56     77.534   120.267
1261.65     77.557   124.854
1280.00     77.668   130.029
1298.62     78.020   135.546
1317.51     78.397   141.014
1336.67     79.027   145.640
1356.11     79.754   149.191
1375.84     80.519   151.497
1395.85     81.261   152.616
1416.15     81.915   152.583
1436.75     82.505   152.060
1457.65     82.959   150.868
1478.85     83.306   149.410
1500.36     83.539   147.849
1522.19     83.651   146.435
1544.33     83.682   145.346
1566.79     83.661   144.694
1589.58     83.623   144.524
1612.70     83.606   144.784
1636.16     83.642   145.306
1659.95     83.752   145.820
1684.10     83.933   146.021
1708.60     84.162   145.642
1733.45     84.403   144.525
1758.66     84.616   142.632
1784.24     84.766   140.023
1810.19     84.826   136.818
1836.52     84.777   133.169
1863.24     84.612   129.237
1890.34     84.327   125.180
1917.83     83.925   121.151
1945.73     83.418   117.286
1974.03     82.817   113.701
2002.74     82.141   110.523
2031.87     81.420   107.751
2061.43     80.681   105.403
2091.41     79.952   103.427
2121.83     79.259   101.732
2152.69     78.639   100.212
2184.01     78.076    98.726
2215.77     77.648    97.075
2248.00     77.310    95.182
2280.70     77.107    92.733
2313.87     77.008    89.624
2347.53     76.983    85.849
2381.68     77.003    81.541
2416.32     77.046    77.047
2451.46     77.127    72.689
2487.12     77.266    68.650
2523.30     77.536    65.034
2560.00     77.942    61.460
2597.24     78.471    57.512
2635.01     79.060    52.855
2673.34     79.605    47.186
2712.23     80.036    40.846
2751.68     80.247    34.018
2791.70     80.217    27.227
2832.31     79.891    21.058
2873.50     79.314    15.992
2915.30     78.496    12.655
2957.70     77.493    11.787
3000.72     76.425    14.234
3044.37     75.633    20.816
3088.65     75.449    29.520
3133.58     75.824    37.550
3179.16     76.598    43.060
3225.40     77.500    46.066
3272.31     78.399    46.737
3319.91     79.200    45.363
3368.20     79.813    42.194
3417.19     80.142    37.672
3466.89     80.106    32.576
3517.32     79.671    28.048
3568.48     78.898    25.511
3620.39     77.999    26.263
3673.05     77.348    30.380
3726.47     77.254    35.777
3780.67     77.704    39.204
3835.67     78.356    40.262
3891.46     78.989    37.767
3948.06     79.512    33.550
4005.49     79.739    27.349
4063.75     79.668    20.185
4122.86     79.232    12.794
4182.82     78.391     6.362
4243.66     77.186     2.836
4305.39     75.992     4.376
4368.01     75.589    10.648
4431.55     76.440    14.629
4496.01     77.660    12.349
4561.40     78.578     4.389
4627.75     79.001    -5.981
4695.06     78.857   -16.813
4763.35     78.300   -26.987
4832.64     77.367   -36.049
4902.93     75.927   -42.838
4974.24     74.053   -45.142
5046.60     72.347   -37.552
5120.00     71.812   -25.883
5194.47     72.471   -18.772
5270.03     73.179   -17.904
5346.68     73.625   -18.981
5424.45     73.898   -21.011
5503.35     73.890   -24.252
5583.40     73.394   -26.590
5664.61     72.824   -24.298
5747.01     72.808   -20.426
5830.60     73.308   -18.290
5915.41     73.916   -20.284
6001.45     74.215   -24.481
6088.74     74.330   -29.176
6177.30     74.305   -34.866
6267.15     74.043   -40.814
6358.31     73.730   -46.106
6450.80     73.533   -52.276
6544.62     73.263   -60.714
6639.82     72.638   -70.791
6736.40     71.728   -81.335
6834.38     70.779   -94.064
6933.79     69.581  -112.961
7034.64     67.572  -142.488
7136.96     65.098   161.431
7240.77     64.131    82.431
7346.09     65.322    30.859
7452.94     66.701     5.279
7561.35     67.117   -12.508
7671.33     66.634   -24.102
7782.91     65.833   -29.508
7896.12     65.384   -31.357
8010.97     64.851   -34.074
8127.49     64.210   -33.452
8245.71     63.868   -33.891
8365.65     63.052   -33.342
8487.33     62.633   -27.323
8610.78     63.202   -24.319
8736.03     63.635   -29.014
8863.09     63.318   -37.189
8992.01     62.058   -47.507
9122.80     59.179   -52.432
9255.50     56.974    -9.869
9390.12     59.960    28.351
9526.70     62.525    17.742
9665.27     63.118     4.577
9805.86     62.939    -3.424
9948.49     62.841    -6.728
10093.2     63.470   -10.700
10240.0     63.668   -21.690
10388.9     62.529   -34.834
10540.1     60.245   -45.070
10693.4     57.098   -33.630
10848.9     55.471     0.027
11006.7     56.717    19.231
11166.8     58.646    21.332
11329.2     59.984    17.417
11494.0     60.727    10.508
11661.2     60.385     3.504
11830.8     59.643    -0.895
12002.9     58.686     1.644
12177.5     58.332     3.891
12354.6     58.353     5.933
12534.3     58.411     7.194
12716.6     58.393     7.708
12901.6     58.156     8.563
13089.2     57.753    10.497
13279.6     57.915    12.481
13472.8     58.415    12.346
13668.8     58.793    10.102
13867.6     59.023     6.870
14069.3     58.808     3.128
14273.9     58.255     3.509
14481.5     59.115     2.878
14692.2     59.955    -6.638
14905.9     60.124   -20.439
15122.7     58.935   -36.188
15342.7     56.097   -46.284
15565.8     52.604   -41.331
15792.2     50.954   -22.023
16021.9     52.663   -11.403
16255.0     53.411   -27.307
16491.4     51.115   -47.262
16731.3     46.735   -46.353
16974.7     45.067    -1.044
17221.6     45.979     3.397
17472.1     45.338    -4.152
17726.2     43.198    -0.268
17984.0     43.516    33.254
18245.6     46.175    31.366
18511.0     47.302    11.620
18780.2     47.094    -9.981
19053.4     45.738   -38.788
19330.5     43.576   -78.661
19611.7     41.631   -34.076
19897.0     40.697    24.165
20186.4     40.559   -33.999
20480.0     40.337   -86.336
20777.9     39.451  -123.175
21080.1     39.455  -137.003
21386.7     41.472  -136.656
21697.8     44.504  -137.263
22013.4     47.085  -144.680
22333.6     48.094  -161.028
22658.4     48.230  -176.784
22988.0     47.376   174.725
23322.4     47.102   179.122
23661.6     48.157  -178.375
24005.8     49.178   175.403
24355.0     49.452   166.376
24709.2     49.048   161.701
25068.6     48.973   166.959
25433.2     49.429   165.831
25803.2     49.036   160.368
26178.5     48.556   173.600
26559.3     49.239   163.303
26945.6     48.673   142.954
27337.5     46.718   146.532
27735.2     46.274   162.275
28138.6     46.557   160.344
28547.9     45.857   153.420
28963.1     43.927   156.420
29384.4     42.969   167.625
29811.8     41.855  -176.705
30245.4     41.382  -159.557
30685.3     40.697  -169.015
31131.7     38.335  -162.530
31584.5     38.245  -125.094
32043.9     38.592  -130.548
32510.0     37.633  -127.442
32982.8     35.907  -125.319
33462.6     34.276  -143.561
33949.3     33.497  -154.020
34443.1     33.725  -136.667
34944.1     33.130  -127.140
35452.4     31.525  -119.391
35968.0     31.192  -107.141
36491.2     31.756  -105.036
37022.0     32.052  -107.183
37560.5     31.496  -107.900
38106.8     29.574  -107.803
38661.1     26.733   -95.334
39223.4     25.628   -67.716
39793.9     25.954   -36.097
