Freq[Hz]     dBSPL  Phase[Deg]
5.00000     42.463  -138.797
5.07273     42.808  -138.985
5.14651     43.152  -139.175
5.22137     43.511  -134.998
5.29732     43.885  -131.233
5.37437     44.303  -128.804
5.45254     44.834  -127.786
5.53185     45.464  -127.883
5.61231     46.091  -128.531
5.69394     46.636  -129.450
5.77676     47.012  -130.673
5.86079     47.273  -132.164
5.94604     47.455  -133.648
6.03252     47.592  -134.825
6.12027     47.692  -135.410
6.20929     47.754  -135.500
6.29961     47.819  -135.213
6.39124     47.967  -134.575
6.48420     48.218  -133.577
6.57851     48.551  -132.394
6.67420     48.946  -131.391
6.77128     49.398  -130.807
6.86977     49.904  -130.628
6.96969     50.433  -130.812
7.07107     50.938  -131.376
7.17392     51.404  -132.318
7.27827     51.835  -133.513
7.38413     52.225  -134.782
7.49154     52.570  -136.058
7.60050     52.870  -137.330
7.71105     53.151  -138.489
7.82321     53.420  -139.493
7.93701     53.683  -140.365
8.05245     53.949  -141.135
8.16958     54.229  -141.827
8.28841     54.519  -142.469
8.40896     54.815  -143.107
8.53128     55.114  -143.779
8.65537     55.411  -144.464
8.78126     55.702  -145.139
8.90899     55.981  -145.786
9.03857     56.256  -146.386
9.17004     56.531  -146.887
9.30342     56.809  -147.305
9.43874     57.101  -147.668
9.57603     57.413  -147.998
9.71532     57.740  -148.348
9.85663     58.079  -148.774
10.0000     58.427  -149.279
10.1455     58.770  -149.873
10.2930     59.101  -150.536
10.4427     59.422  -151.210
10.5946     59.731  -151.864
10.7487     60.035  -152.488
10.9051     60.343  -153.072
11.0637     60.652  -153.636
11.2246     60.965  -154.203
11.3879     61.277  -154.770
11.5535     61.583  -155.318
11.7216     61.885  -155.846
11.8921     62.193  -156.310
12.0650     62.504  -156.755
12.2405     62.834  -157.218
12.4186     63.173  -157.724
12.5992     63.515  -158.348
12.7825     63.849  -159.041
12.9684     64.159  -159.749
13.1570     64.467  -160.453
13.3484     64.768  -161.043
13.5426     65.085  -161.601
13.7395     65.427  -162.226
13.9394     65.787  -163.049
14.1421     66.127  -164.158
14.3478     66.441  -165.383
14.5565     66.684  -166.633
14.7683     66.878  -167.700
14.9831     67.055  -168.372
15.2010     67.275  -168.770
15.4221     67.548  -169.158
15.6464     67.848  -169.732
15.8740     68.137  -170.527
16.1049     68.387  -171.435
16.3392     68.604  -172.317
16.5768     68.808  -173.101
16.8179     69.007  -173.796
17.0626     69.190  -174.399
17.3107     69.348  -174.807
17.5625     69.500  -174.901
17.8180     69.689  -174.683
18.0771     69.943  -174.341
18.3401     70.253  -174.104
18.6068     70.589  -174.111
18.8775     70.930  -174.366
19.1521     71.262  -174.814
19.4306     71.577  -175.374
19.7133     71.871  -175.951
20.0000     72.155  -176.473
20.2909     72.446  -176.938
20.5860     72.750  -177.421
20.8855     73.056  -177.969
21.1893     73.358  -178.571
21.4975     73.655  -179.201
21.8102     73.953  -179.844
22.1274     74.248   179.476
22.4492     74.540   178.777
22.7758     74.825   178.063
23.1071     75.105   177.353
23.4432     75.383   176.657
23.7841     75.659   175.971
24.1301     75.933   175.290
24.4811     76.203   174.637
24.8372     76.471   174.023
25.1984     76.748   173.447
25.5649     77.031   172.864
25.9368     77.316   172.266
26.3141     77.602   171.670
26.6968     77.895   171.077
27.0851     78.198   170.445
27.4791     78.503   169.704
27.8788     78.798   168.877
28.2843     79.074   168.055
28.6957     79.345   167.285
29.1131     79.618   166.560
29.5365     79.897   165.836
29.9661     80.169   165.123
30.4020     80.449   164.445
30.8442     80.741   163.740
31.2929     81.034   162.985
31.7480     81.328   162.177
32.2098     81.622   161.316
32.6783     81.912   160.397
33.1536     82.193   159.434
33.6359     82.467   158.447
34.1251     82.731   157.445
34.6215     82.981   156.474
35.1250     83.223   155.596
35.6359     83.471   154.816
36.1543     83.730   154.085
36.6802     83.998   153.368
37.2137     84.279   152.649
37.7550     84.573   151.883
38.3041     84.872   151.058
38.8613     85.174   150.146
39.4265     85.475   149.198
40.0000     85.781   148.201
40.5818     86.088   147.102
41.1721     86.386   145.907
41.7710     86.674   144.646
42.3785     86.950   143.368
42.9949     87.222   142.102
43.6203     87.496   140.830
44.2548     87.774   139.514
44.8985     88.058   138.113
45.5515     88.343   136.529
46.2141     88.610   134.685
46.8863     88.812   132.642
47.5683     88.937   130.755
48.2602     89.022   129.444
48.9621     89.161   128.645
49.6743     89.351   127.917
50.3968     89.586   127.113
51.1299     89.846   126.172
51.8736     90.121   125.024
52.6281     90.393   123.691
53.3936     90.656   122.244
54.1702     90.910   120.726
54.9581     91.157   119.157
55.7575     91.401   117.536
56.5685     91.641   115.866
57.3914     91.879   114.143
58.2261     92.113   112.347
59.0730     92.339   110.468
59.9323     92.553   108.559
60.8040     92.767   106.606
61.6884     92.967   104.559
62.5857     93.154   102.507
63.4960     93.340   100.469
64.4196     93.531    98.371
65.3566     93.724    96.102
66.3073     93.895    93.599
67.2717     94.018    90.940
68.2502     94.081    88.342
69.2429     94.099    86.053
70.2501     94.119    84.236
71.2719     94.202    82.689
72.3086     94.346    80.909
73.3603     94.495    78.724
74.4274     94.612    76.301
75.5099     94.695    73.802
76.6083     94.754    71.282
77.7226     94.792    68.753
78.8531     94.807    66.225
80.0000     94.798    63.717
81.1636     94.761    61.205
82.3442     94.678    58.816
83.5419     94.570    56.776
84.7570     94.475    55.061
85.9899     94.411    53.526
87.2406     94.380    52.042
88.5096     94.377    50.508
89.7970     94.397    48.772
91.1031     94.413    46.815
92.4282     94.401    44.678
93.7726     94.355    42.538
95.1366     94.290    40.488
96.5204     94.218    38.494
97.9243     94.135    36.506
99.3486     94.037    34.561
100.794     93.929    32.675
102.260     93.804    30.861
103.747     93.669    29.209
105.256     93.542    27.736
106.787     93.433    26.330
108.340     93.340    24.882
109.916     93.245    23.337
111.515     93.135    21.769
113.137     93.007    20.235
114.783     92.860    18.816
116.452     92.724    17.739
118.146     92.617    16.720
119.865     92.550    15.615
121.608     92.494    14.407
123.377     92.441    12.974
125.171     92.373    11.412
126.992     92.261     9.768
128.839     92.117     8.477
130.713     91.976     7.536
132.615     91.885     6.621
134.543     91.844     5.584
136.500     91.814     4.312
138.486     91.772     2.832
140.500     91.709     1.309
142.544     91.644    -0.166
144.617     91.587    -1.809
146.721     91.481    -3.780
148.855     91.306    -5.492
151.020     91.117    -6.684
153.217     90.977    -7.517
155.445     90.897    -8.435
157.706     90.832    -9.552
160.000     90.790   -10.730
162.327     90.746   -12.406
164.688     90.629   -14.152
167.084     90.481   -15.569
169.514     90.335   -16.792
171.980     90.193   -17.827
174.481     90.083   -18.663
177.019     90.014   -19.579
179.594     89.949   -20.674
182.206     89.878   -21.738
184.856     89.814   -22.728
187.545     89.775   -23.661
190.273     89.780   -24.688
193.041     89.808   -26.153
195.849     89.786   -28.077
198.697     89.679   -29.880
201.587     89.553   -31.107
204.520     89.474   -32.015
207.494     89.456   -32.926
210.512     89.477   -34.074
213.574     89.510   -35.464
216.681     89.552   -37.085
219.833     89.598   -38.973
223.030     89.583   -41.409
226.274     89.495   -43.856
229.565     89.332   -46.040
232.905     89.139   -47.645
236.292     88.998   -48.806
239.729     88.911   -50.074
243.216     88.789   -51.720
246.754     88.595   -53.001
250.343     88.424   -53.616
253.984     88.305   -53.904
257.678     88.270   -53.941
261.426     88.299   -54.096
265.229     88.372   -54.250
269.087     88.537   -54.382
273.001     88.774   -55.541
276.972     88.929   -57.493
281.000     88.970   -59.304
285.088     88.980   -60.695
289.234     89.038   -61.650
293.441     89.158   -62.789
297.709     89.297   -64.352
302.040     89.408   -66.336
306.433     89.455   -68.519
310.890     89.458   -70.583
315.412     89.427   -72.575
320.000     89.376   -74.331
324.655     89.347   -75.805
329.377     89.348   -77.406
334.168     89.347   -79.112
339.028     89.346   -80.848
343.959     89.344   -82.636
348.962     89.342   -84.456
354.038     89.339   -86.332
359.188     89.330   -88.247
364.412     89.320   -90.182
369.713     89.309   -92.136
375.090     89.297   -94.111
380.546     89.284   -96.111
386.081     89.270   -98.130
391.697     89.256  -100.179
397.394     89.240  -102.246
403.175     89.225  -104.345
409.039     89.208  -106.473
414.989     89.190  -108.631
421.025     89.171  -110.824
427.149     89.152  -113.048
433.362     89.131  -115.312
439.665     89.108  -117.616
446.060     89.084  -119.957
452.548     89.057  -122.343
459.131     89.029  -124.779
465.809     88.998  -127.257
472.584     88.963  -129.787
479.458     88.925  -132.368
486.432     88.884  -134.996
493.507     88.837  -137.683
500.686     88.786  -140.427
507.968     88.728  -143.224
515.357     88.664  -146.081
522.853     88.592  -148.997
530.458     88.513  -151.967
538.174     88.424  -154.994
546.002     88.324  -158.079
553.943     88.214  -161.220
562.001     88.091  -164.412
570.175     87.958  -167.647
578.469     87.808  -170.936
586.883     87.643  -174.265
595.419     87.461  -177.629
604.080     87.264   178.980
612.866     87.047   175.566
621.780     86.811   172.139
630.824     86.551   168.711
640.000     86.269   165.293
649.309     85.962   161.904
658.753     85.629   158.563
668.335     85.270   155.291
678.056     84.885   152.113
687.919     84.473   149.060
697.925     84.033   146.168
708.077     83.568   143.479
718.376     83.079   141.040
728.825     82.571   138.904
739.426     82.050   137.126
750.181     81.525   135.770
761.093     81.010   134.906
772.163     80.523   134.562
783.394     80.082   134.685
794.789     79.703   135.211
806.349     79.407   136.052
818.078     79.207   137.021
829.977     79.102   137.911
842.050     79.085   138.528
854.298     79.146   138.676
866.724     79.262   138.241
879.330     79.409   137.223
892.120     79.566   135.495
905.097     79.715   133.275
918.262     79.841   130.475
931.618     79.932   127.217
945.169     79.982   123.561
958.917     79.982   119.557
972.864     79.925   115.262
987.015     79.812   110.733
1001.37     79.635   106.001
1015.94     79.395   101.121
1030.71     79.086    96.114
1045.71     78.706    91.013
1060.92     78.255    85.839
1076.35     77.722    80.598
1092.00     77.104    75.296
1107.89     76.394    69.936
1124.00     75.563    64.483
1140.35     74.620    58.939
1156.94     73.474    53.213
1173.77     72.187    47.354
1190.84     70.472    41.096
1208.16     68.550    34.649
1225.73     65.821    27.421
1243.56     62.412    19.353
1261.65     58.788    -5.871
1280.00     59.404  -168.324
1298.62     63.067  -177.871
1317.51     66.603   172.587
1336.67     68.892   162.954
1356.11     70.623   152.977
1375.84     71.906   142.509
1395.85     72.832   131.440
1416.15     73.406   119.510
1436.75     73.805   107.036
1457.65     73.900    93.369
1478.85     73.791    78.607
1500.36     73.478    62.405
1522.19     72.999    44.110
1544.33     72.510    23.701
1566.79     72.198     1.395
1589.58     72.253   -22.007
1612.70     72.744   -45.250
1636.16     73.576   -67.104
1659.95     74.556   -86.856
1684.10     75.510  -104.340
1708.60     76.337  -119.735
1733.45     76.997  -133.264
1758.66     77.485  -145.083
1784.24     77.818  -155.270
1810.19     78.025  -163.855
1836.52     78.144  -170.862
1863.24     78.215  -176.376
1890.34     78.277   179.414
1917.83     78.360   176.241
1945.73     78.481   173.813
1974.03     78.652   171.899
2002.74     78.885   170.379
2031.87     79.179   169.089
2061.43     79.541   167.806
2091.41     79.962   166.123
2121.83     80.411   163.583
2152.69     80.822   159.664
2184.01     81.177   154.907
2215.77     81.348   148.935
2248.00     81.379   142.645
2280.70     81.180   136.586
2313.87     80.792   131.889
2347.53     80.302   130.150
2381.68     79.927   133.951
2416.32     79.850   142.349
2451.46     80.352   152.401
2487.12     81.226   159.018
2523.30     82.328   159.432
2560.00     83.408   156.248
2597.24     84.362   150.712
2635.01     85.154   143.884
2673.34     85.739   136.267
2712.23     86.165   128.362
2751.68     86.402   120.433
2791.70     86.489   112.833
2832.31     86.439   105.936
2873.50     86.303    99.724
2915.30     86.093    94.097
2957.70     85.820    88.792
3000.72     85.480    83.482
3044.37     85.048    78.256
3088.65     84.533    73.823
3133.58     83.969    70.601
3179.16     83.370    68.337
3225.40     82.719    65.616
3272.31     81.954    61.646
3319.91     81.026    57.589
3368.20     80.007    57.920
3417.19     79.153    68.382
3466.89     78.744    84.952
3517.32     78.791    94.001
3568.48     79.149    98.588
3620.39     79.869   111.156
3673.05     81.027   125.750
3726.47     82.348   125.535
3780.67     83.350   113.216
3835.67     83.985    98.414
3891.46     84.183    90.352
3948.06     84.287    91.077
4005.49     84.603    97.963
4063.75     84.933    90.552
4122.86     84.905    72.934
4182.82     84.426    56.656
4243.66     83.925    64.299
4305.39     83.968    91.680
4368.01     84.344    84.534
4431.55     84.382    63.078
4496.01     83.962    46.655
4561.40     83.343    54.332
4627.75     82.767    63.525
4695.06     82.084    42.770
4763.35     81.485    38.928
4832.64     81.762   124.556
4902.93     82.798   102.916
4974.24     83.484    65.920
5046.60     83.835    69.897
5120.00     84.511   100.142
5194.47     85.394    91.004
5270.03     85.619    50.915
5346.68     85.027    17.679
5424.45     84.116    42.743
5503.35     83.410    53.611
5583.40     82.740    19.394
5664.61     82.147    54.078
5747.01     81.720    61.587
5830.60     81.223    22.466
5915.41     80.545    -3.484
6001.45     80.471   118.504
6088.74     81.025    61.112
6177.30     81.242    37.728
6267.15     81.668    83.656
6358.31     82.489    83.944
6450.80     83.181    64.177
6544.62     83.470    51.301
6639.82     83.396    41.530
6736.40     83.138    41.173
6834.38     82.811    38.319
6933.79     82.373    31.912
7034.64     81.776    23.224
7136.96     81.211    38.468
7240.77     80.944    82.495
7346.09     80.491    16.256
7452.94     79.397  -102.681
7561.35     78.470   -66.489
7671.33     78.138   -34.422
7782.91     78.351   -87.693
7896.12     78.920    41.192
8010.97     78.592   -50.080
8127.49     78.019    91.391
8245.71     77.523   -33.312
8365.65     77.185   102.583
8487.33     76.754     5.504
8610.78     75.989  -157.592
8736.03     75.916    12.531
8863.09     75.822   -71.688
8992.01     76.346    64.793
9122.80     77.028   -64.728
9255.50     77.347    79.225
9390.12     76.837   -21.833
9526.70     75.981   113.145
9665.27     75.226   -39.397
9805.86     74.507   -54.949
9948.49     74.029    -5.752
10093.2     73.162    37.117
10240.0     71.926     8.529
10388.9     70.717    56.727
10540.1     69.570    15.336
10693.4     68.275    59.218
10848.9     67.049     7.655
11006.7     65.700    47.152
11166.8     64.151   -34.277
11329.2     62.586    15.183
11494.0     60.725   -91.557
11661.2     59.059   -41.972
11830.8     58.059  -119.640
12002.9     58.541  -102.709
12177.5     59.331    57.951
12354.6     60.481   154.056
12534.3     62.557    19.004
12716.6     65.449   -55.467
12901.6     67.703    10.543
13089.2     69.541   -36.618
13279.6     70.836   -35.077
13472.8     71.510   114.788
13668.8     71.693  -171.784
13867.6     71.897  -167.356
14069.3     72.591   119.254
14273.9     73.411   138.611
14481.5     73.530   143.348
14692.2     73.341   167.821
14905.9     72.974   170.999
15122.7     72.285   174.037
15342.7     71.680   169.635
15565.8     71.507   149.582
15792.2     71.338   140.980
16021.9     70.832   142.400
16255.0     70.403   147.942
16491.4     69.488   147.947
16731.3     69.166   174.226
16974.7     69.382   172.624
17221.6     69.112   166.134
17472.1     68.471   164.363
17726.2     67.675   161.078
17984.0     67.378   176.350
18245.6     67.653   163.919
18511.0     67.591   139.243
18780.2     66.818   136.224
19053.4     65.765   159.499
19330.5     65.086  -179.501
19611.7     64.547   169.650
19897.0     63.414   122.636
20186.4     61.391   102.207
20480.0     59.424    99.574
20777.9     58.553    99.011
21080.1     58.835     7.741
21386.7     59.701     2.971
21697.8     61.433    57.455
22013.4     63.388    33.810
22333.6     64.810   -36.137
22658.4     65.740  -102.819
22988.0     66.529   151.770
23322.4     67.740    45.700
23661.6     68.780   -36.308
24005.8     69.325   -60.806
24355.0     69.782  -164.166
24709.2     70.600   163.312
25068.6     70.809    29.749
25433.2     70.352   -46.350
25803.2     70.009   -98.834
26178.5     70.209  -145.181
26559.3     70.199    16.636
26945.6     70.120  -113.437
27337.5     69.938    72.981
27735.2     69.280   -76.368
28138.6     68.061   159.816
28547.9     66.585    95.897
28963.1     64.713   106.100
29384.4     62.178    -4.121
29811.8     59.738    82.991
30245.4     58.734    24.715
30685.3     59.936    47.652
31131.7     61.781  -160.260
31584.5     62.504   -14.355
32043.9     62.172   102.833
32510.0     61.364   -48.160
32982.8     60.128   106.776
33462.6     58.415  -118.449
33949.3     56.933    -0.585
34443.1     55.297   101.933
34944.1     53.640  -161.902
35452.4     53.260   -71.972
35968.0     54.044    35.672
36491.2     55.203   148.684
37022.0     55.404  -142.183
37560.5     54.787   -94.229
38106.8     54.141   -57.962
38661.1     53.349   -24.347
39223.4     52.914    -6.769
39793.9     52.717   -13.136
