Freq[Hz]     dBSPL  Phase[Deg]
5.00000     42.463  -138.797
5.07273     42.808  -138.985
5.14651     43.152  -139.175
5.22137     43.511  -134.998
5.29732     43.885  -131.233
5.37437     44.303  -128.804
5.45254     44.834  -127.786
5.53185     45.464  -127.883
5.61231     46.091  -128.531
5.69394     46.636  -129.450
5.77676     47.012  -130.673
5.86079     47.273  -132.164
5.94604     47.455  -133.648
6.03252     47.592  -134.825
6.12027     47.692  -135.410
6.20929     47.754  -135.500
6.29961     47.819  -135.213
6.39124     47.967  -134.575
6.48420     48.218  -133.577
6.57851     48.551  -132.394
6.67420     48.946  -131.391
6.77128     49.398  -130.807
6.86977     49.904  -130.628
6.96969     50.433  -130.812
7.07107     50.938  -131.376
7.17392     51.404  -132.318
7.27827     51.835  -133.513
7.38413     52.225  -134.782
7.49154     52.570  -136.058
7.60050     52.870  -137.330
7.71105     53.151  -138.489
7.82321     53.420  -139.493
7.93701     53.683  -140.365
8.05245     53.949  -141.135
8.16958     54.229  -141.827
8.28841     54.519  -142.469
8.40896     54.815  -143.107
8.53128     55.114  -143.779
8.65537     55.411  -144.464
8.78126     55.702  -145.139
8.90899     55.981  -145.786
9.03857     56.256  -146.386
9.17004     56.531  -146.887
9.30342     56.809  -147.305
9.43874     57.101  -147.668
9.57603     57.413  -147.998
9.71532     57.740  -148.348
9.85663     58.079  -148.774
10.0000     58.427  -149.279
10.1455     58.770  -149.873
10.2930     59.101  -150.536
10.4427     59.422  -151.210
10.5946     59.731  -151.864
10.7487     60.035  -152.488
10.9051     60.343  -153.072
11.0637     60.652  -153.636
11.2246     60.965  -154.203
11.3879     61.277  -154.770
11.5535     61.583  -155.318
11.7216     61.885  -155.846
11.8921     62.193  -156.310
12.0650     62.504  -156.755
12.2405     62.834  -157.218
12.4186     63.173  -157.724
12.5992     63.515  -158.348
12.7825     63.849  -159.041
12.9684     64.159  -159.749
13.1570     64.467  -160.453
13.3484     64.768  -161.043
13.5426     65.085  -161.601
13.7395     65.427  -162.226
13.9394     65.787  -163.049
14.1421     66.127  -164.158
14.3478     66.441  -165.383
14.5565     66.684  -166.633
14.7683     66.878  -167.700
14.9831     67.055  -168.372
15.2010     67.275  -168.770
15.4221     67.548  -169.158
15.6464     67.848  -169.732
15.8740     68.137  -170.527
16.1049     68.387  -171.435
16.3392     68.604  -172.317
16.5768     68.808  -173.101
16.8179     69.007  -173.796
17.0626     69.190  -174.399
17.3107     69.348  -174.807
17.5625     69.500  -174.901
17.8180     69.689  -174.683
18.0771     69.943  -174.341
18.3401     70.253  -174.104
18.6068     70.589  -174.111
18.8775     70.930  -174.366
19.1521     71.262  -174.814
19.4306     71.577  -175.374
19.7133     71.871  -175.951
20.0000     72.155  -176.473
20.2909     72.446  -176.938
20.5860     72.750  -177.421
20.8855     73.056  -177.969
21.1893     73.358  -178.571
21.4975     73.655  -179.201
21.8102     73.953  -179.844
22.1274     74.248   179.476
22.4492     74.540   178.777
22.7758     74.825   178.063
23.1071     75.105   177.353
23.4432     75.383   176.657
23.7841     75.659   175.971
24.1301     75.933   175.290
24.4811     76.203   174.637
24.8372     76.471   174.023
25.1984     76.748   173.447
25.5649     77.031   172.864
25.9368     77.316   172.266
26.3141     77.602   171.670
26.6968     77.895   171.077
27.0851     78.198   170.445
27.4791     78.503   169.704
27.8788     78.798   168.877
28.2843     79.074   168.055
28.6957     79.345   167.285
29.1131     79.618   166.560
29.5365     79.897   165.836
29.9661     80.169   165.123
30.4020     80.449   164.445
30.8442     80.741   163.740
31.2929     81.034   162.985
31.7480     81.328   162.177
32.2098     81.622   161.316
32.6783     81.912   160.397
33.1536     82.193   159.434
33.6359     82.467   158.447
34.1251     82.731   157.445
34.6215     82.981   156.474
35.1250     83.223   155.596
35.6359     83.471   154.816
36.1543     83.730   154.085
36.6802     83.998   153.368
37.2137     84.279   152.649
37.7550     84.573   151.883
38.3041     84.872   151.058
38.8613     85.174   150.146
39.4265     85.475   149.198
40.0000     85.781   148.201
40.5818     86.088   147.100
41.1721     86.386   145.902
41.7710     86.675   144.635
42.3785     86.951   143.349
42.9949     87.223   142.073
43.6203     87.497   140.788
44.2548     87.776   139.459
44.8985     88.060   138.041
45.5515     88.345   136.440
46.2141     88.612   134.577
46.8863     88.815   132.512
47.5683     88.940   130.603
48.2602     89.025   129.268
48.9621     89.164   128.444
49.6743     89.354   127.689
50.3968     89.588   126.857
51.1299     89.847   125.887
51.8736     90.121   124.709
52.6281     90.393   123.345
53.3936     90.655   121.864
54.1702     90.907   120.312
54.9581     91.154   118.708
55.7575     91.396   117.051
56.5685     91.633   115.344
57.3914     91.869   113.583
58.2261     92.101   111.747
59.0730     92.325   109.827
59.9323     92.536   107.876
60.8040     92.746   105.882
61.6884     92.944   103.791
62.5857     93.127   101.694
63.4960     93.309    99.610
64.4196     93.496    97.465
65.3566     93.684    95.148
66.3073     93.851    92.595
67.2717     93.969    89.886
68.2502     94.026    87.237
69.2429     94.039    84.896
70.2501     94.053    83.025
71.2719     94.130    81.423
72.3086     94.268    79.587
73.3603     94.409    77.344
74.4274     94.519    74.862
75.5099     94.595    72.304
76.6083     94.646    69.723
77.7226     94.676    67.130
78.8531     94.682    64.538
80.0000     94.664    61.964
81.1636     94.618    59.385
82.3442     94.525    56.926
83.5419     94.407    54.816
84.7570     94.302    53.028
85.9899     94.228    51.418
87.2406     94.186    49.858
88.5096     94.171    48.245
89.7970     94.179    46.429
91.1031     94.183    44.389
92.4282     94.158    42.168
93.7726     94.100    39.940
95.1366     94.022    37.800
96.5204     93.935    35.714
97.9243     93.838    33.631
99.3486     93.726    31.589
100.794     93.602    29.602
102.260     93.462    27.684
103.747     93.311    25.926
105.256     93.168    24.343
106.787     93.043    22.824
108.340     92.933    21.259
109.916     92.819    19.595
111.515     92.692    17.902
113.137     92.545    16.240
114.783     92.379    14.690
116.452     92.223    13.477
118.146     92.096    12.317
119.865     92.009    11.067
121.608     91.932     9.710
123.377     91.858     8.121
125.171     91.768     6.401
126.992     91.633     4.591
128.839     91.466     3.132
130.713     91.301     2.014
132.615     91.186     0.918
134.543     91.120    -0.306
136.500     91.064    -1.770
138.486     90.997    -3.450
140.500     90.908    -5.177
142.544     90.816    -6.865
144.617     90.731    -8.726
146.721     90.597   -10.921
148.855     90.393   -12.865
151.020     90.175   -14.296
153.217     90.005   -15.374
155.445     89.895   -16.543
157.706     89.799   -17.919
160.000     89.725   -19.363
162.327     89.649   -21.311
164.688     89.498   -23.336
167.084     89.316   -25.039
169.514     89.135   -26.554
171.980     88.959   -27.889
174.481     88.813   -29.030
177.019     88.707   -30.257
179.594     88.605   -31.668
182.206     88.496   -33.055
184.856     88.394   -34.372
187.545     88.316   -35.637
190.273     88.281   -36.998
193.041     88.269   -38.804
195.849     88.205   -41.069
198.697     88.056   -43.217
201.587     87.888   -44.790
204.520     87.766   -46.046
207.494     87.703   -47.303
210.512     87.680   -48.798
213.574     87.667   -50.533
216.681     87.663   -52.496
219.833     87.663   -54.724
223.030     87.601   -57.495
226.274     87.466   -60.272
229.565     87.254   -62.781
232.905     87.014   -64.703
236.292     86.823   -66.172
239.729     86.687   -67.738
243.216     86.516   -69.672
246.754     86.271   -71.230
250.343     86.050   -72.108
253.984     85.880   -72.647
257.678     85.794   -72.927
261.426     85.771   -73.313
265.229     85.792   -73.680
269.087     85.905   -74.000
273.001     86.091   -75.320
276.972     86.198   -77.407
281.000     86.189   -79.324
285.088     86.151   -80.793
289.234     86.163   -81.794
293.441     86.237   -82.952
297.709     86.331   -84.509
302.040     86.398   -86.464
306.433     86.400   -88.603
310.890     86.356   -90.605
315.412     86.280   -92.519
320.000     86.183   -94.177
324.655     86.108   -95.534
329.377     86.063   -96.995
334.168     86.017   -98.539
339.028     85.971  -100.091
343.959     85.926  -101.669
348.962     85.882  -103.254
354.038     85.839  -104.867
359.188     85.793  -106.494
364.412     85.748  -108.113
369.713     85.705  -109.725
375.090     85.665  -111.330
380.546     85.629  -112.930
386.081     85.597  -114.529
391.697     85.570  -116.129
397.394     85.547  -117.733
403.175     85.531  -119.347
409.039     85.520  -120.974
414.989     85.516  -122.620
421.025     85.518  -124.293
427.149     85.528  -125.993
433.362     85.544  -127.734
439.665     85.568  -129.521
446.060     85.598  -131.357
452.548     85.635  -133.252
459.131     85.678  -135.219
465.809     85.727  -137.251
472.584     85.780  -139.367
479.458     85.839  -141.567
486.432     85.900  -143.847
493.507     85.964  -146.231
500.686     86.029  -148.715
507.968     86.095  -151.295
515.357     86.160  -153.987
522.853     86.223  -156.786
530.458     86.283  -159.687
538.174     86.339  -162.697
546.002     86.390  -165.823
553.943     86.435  -169.056
562.001     86.471  -172.395
570.175     86.501  -175.825
578.469     86.520  -179.378
586.883     86.528   176.971
595.419     86.525   173.227
604.080     86.510   169.395
612.866     86.481   165.469
621.780     86.438   161.458
630.824     86.378   157.357
640.000     86.303   153.184
649.309     86.209   148.934
658.753     86.097   144.618
668.335     85.966   140.243
678.056     85.815   135.816
687.919     85.642   131.344
697.925     85.448   126.836
708.077     85.231   122.300
718.376     84.989   117.747
728.825     84.724   113.188
739.426     84.434   108.636
750.181     84.118   104.104
761.093     83.774    99.610
772.163     83.403    95.174
783.394     83.006    90.810
794.789     82.585    86.535
806.349     82.138    82.377
818.078     81.667    78.362
829.977     81.175    74.506
842.050     80.663    70.833
854.298     80.136    67.378
866.724     79.598    64.159
879.330     79.055    61.169
892.120     78.516    58.466
905.097     77.983    55.968
918.262     77.468    53.712
931.618     76.976    51.634
945.169     76.512    49.683
958.917     76.079    47.797
972.864     75.679    45.899
987.015     75.308    43.918
1001.37     74.963    41.775
1015.94     74.635    39.433
1030.71     74.317    36.842
1045.71     74.001    33.976
1060.92     73.677    30.848
1076.35     73.338    27.433
1092.00     72.978    23.740
1107.89     72.593    19.788
1124.00     72.174    15.539
1140.35     71.723    11.044
1156.94     71.224     6.179
1173.77     70.694     1.084
1190.84     70.090    -4.568
1208.16     69.458   -10.447
1225.73     68.742   -17.022
1243.56     67.970   -24.083
1261.65     67.109   -31.995
1280.00     66.176   -40.717
1298.62     65.142   -51.095
1317.51     64.102   -61.654
1336.67     63.047   -74.210
1356.11     62.092   -88.006
1375.84     61.361  -102.721
1395.85     60.973  -117.579
1416.15     61.052  -131.176
1436.75     61.361  -143.605
1457.65     62.028  -153.412
1478.85     62.889  -161.301
1500.36     63.919  -167.481
1522.19     65.088  -172.666
1544.33     66.327  -177.834
1566.79     67.583   176.546
1589.58     68.804   170.234
1612.70     69.947   163.160
1636.16     70.975   155.386
1659.95     71.863   147.034
1684.10     72.593   138.266
1708.60     73.153   129.245
1733.45     73.536   120.144
1758.66     73.736   111.160
1784.24     73.756   102.516
1810.19     73.601    94.476
1836.52     73.286    87.359
1863.24     72.841    81.543
1890.34     72.315    77.409
1917.83     71.779    75.245
1945.73     71.314    75.029
1974.03     70.992    76.262
2002.74     70.857    78.047
2031.87     70.871    79.599
2061.43     70.999    80.670
2091.41     71.213    81.463
2121.83     71.507    82.190
2152.69     71.903    82.584
2184.01     72.353    82.502
2215.77     72.839    80.789
2248.00     73.293    77.994
2280.70     73.629    73.816
2313.87     73.802    69.097
2347.53     73.802    64.824
2381.68     73.685    62.611
2416.32     73.595    63.226
2451.46     73.784    68.120
2487.12     74.325    74.283
2523.30     75.295    77.672
2560.00     76.419    76.784
2597.24     77.519    71.932
2635.01     78.473    64.483
2673.34     79.178    55.400
2712.23     79.675    45.766
2751.68     79.924    36.081
2791.70     79.982    26.834
2832.31     79.867    18.402
2873.50     79.641    10.696
2915.30     79.314     3.612
2957.70     78.894    -3.052
3000.72     78.373    -9.445
3044.37     77.738   -14.878
3088.65     77.075   -17.516
3133.58     76.543   -16.151
3179.16     76.326   -12.224
3225.40     76.356   -11.386
3272.31     76.408   -16.759
3319.91     76.169   -27.578
3368.20     75.422   -40.702
3417.19     74.199   -50.469
3466.89     73.023   -41.235
3517.32     72.769   -10.467
3568.48     73.528     1.651
3620.39     74.349    -9.808
3673.05     74.607   -25.004
3726.47     74.307   -35.583
3780.67     73.825   -34.494
3835.67     73.423   -28.829
3891.46     73.187   -29.760
3948.06     72.951   -35.900
4005.49     73.213   -17.727
4063.75     74.422    14.238
4122.86     76.064     6.480
4182.82     77.273   -13.048
4243.66     77.878   -30.120
4305.39     78.273   -34.522
4368.01     78.765   -32.348
4431.55     79.150   -46.923
4496.01     78.937   -73.288
4561.40     77.667  -106.301
4627.75     75.684  -132.580
4695.06     74.245   -89.039
4763.35     73.955   -55.507
4832.64     73.573   -97.162
4902.93     72.487   173.548
4974.24     72.156    35.313
5046.60     72.915   -42.545
5120.00     73.629   -86.913
5194.47     74.602   -31.814
5270.03     76.214   -16.881
5346.68     77.460   -59.220
5424.45     77.748   -98.987
5503.35     77.295  -108.564
5583.40     76.766   -94.290
5664.61     75.907  -123.402
5747.01     74.649   178.668
5830.60     73.609    69.573
5915.41     73.375   -85.011
6001.45     73.214  -143.053
6088.74     72.758   102.129
6177.30     73.241   -61.742
6267.15     74.003  -110.645
6358.31     74.473  -113.315
6450.80     74.819  -106.701
6544.62     74.762  -132.288
6639.82     73.870   176.054
6736.40     72.527    61.004
6834.38     71.791   -99.522
6933.79     71.911  -154.271
7034.64     72.372  -151.796
7136.96     72.858  -128.365
7240.77     72.843   157.731
7346.09     72.534   171.766
7452.94     72.102  -158.428
7561.35     70.685    99.773
7671.33     68.710   -37.759
7782.91     66.852   -99.556
7896.12     65.465    38.035
8010.97     65.903  -105.327
8127.49     66.628   124.680
8245.71     66.024   -58.900
8365.65     64.715   111.004
8487.33     63.410     1.128
8610.78     64.316  -146.464
8736.03     65.109    15.198
8863.09     66.085   -85.190
8992.01     66.333    76.062
9122.80     66.034   -82.781
9255.50     65.225   116.348
9390.12     62.544   -14.548
9526.70     60.478   131.857
9665.27     60.878   -53.623
9805.86     61.819   -71.507
9948.49     61.869   -50.901
10093.2     61.141    -0.874
10240.0     60.006   -32.323
10388.9     59.020   164.764
10540.1     57.216     3.615
10693.4     55.100    51.459
10848.9     54.029    -8.638
11006.7     53.572    35.168
11166.8     52.316   -55.026
11329.2     50.777    -5.147
11494.0     51.024  -104.508
11661.2     51.100   -42.677
11830.8     50.015  -121.436
12002.9     47.951  -103.737
12177.5     47.113   123.864
12354.6     48.965   -28.593
12534.3     50.587  -115.140
12716.6     51.914   -61.591
12901.6     54.025   171.000
13089.2     56.403   127.600
13279.6     57.807    92.287
13472.8     58.112    76.560
13668.8     58.235   -31.212
13867.6     59.135   -19.069
14069.3     60.274  -170.872
14273.9     61.045  -176.562
14481.5     61.102   -85.247
14692.2     60.456   -38.414
14905.9     59.738    -0.087
15122.7     59.209    36.913
15342.7     58.929    73.547
15565.8     58.663   109.590
15792.2     58.083   145.670
16021.9     57.450  -173.863
16255.0     56.987  -132.740
16491.4     56.237   -88.250
16731.3     55.555   -40.556
16974.7     55.211    12.347
17221.6     54.855    66.172
17472.1     54.375   122.825
17726.2     53.730  -170.751
17984.0     53.357   -96.946
18245.6     53.067   -28.367
18511.0     52.168    25.179
18780.2     51.042    55.322
19053.4     50.586   131.852
19330.5     50.200   160.965
19611.7     49.021   135.709
19897.0     47.354    78.333
20186.4     45.932    51.622
20480.0     45.178    37.761
20777.9     44.900    27.916
21080.1     44.721   106.555
21386.7     45.291  -145.423
21697.8     47.679  -119.695
22013.4     49.256   109.244
22333.6     49.224   130.395
22658.4     50.045    61.100
22988.0     52.222   -49.637
23322.4     53.984  -160.622
23661.6     54.668   100.496
24005.8     55.182    67.994
24355.0     55.935   -69.415
24709.2     55.804  -118.201
25068.6     55.197   145.198
25433.2     54.914   132.795
25803.2     55.414    62.840
26178.5     56.144   -35.522
26559.3     56.532   123.520
26945.6     56.285   -11.596
27337.5     55.807   -99.581
27735.2     55.174    -9.634
28138.6     54.398  -137.423
28547.9     53.887   146.915
28963.1     52.952    92.456
29384.4     51.121   -18.006
29811.8     48.909    72.467
30245.4     46.907   173.151
30685.3     45.769   179.278
31131.7     46.050   -29.948
31584.5     47.678    49.728
32043.9     48.612  -102.674
32510.0     47.722    58.668
32982.8     45.006  -141.016
33462.6     40.259    -7.482
33949.3     37.144   128.761
34443.1     37.636  -124.339
34944.1     38.176   -34.579
35452.4     38.523    53.529
35968.0     38.694   146.096
36491.2     39.667  -101.900
37022.0     40.811     0.234
37560.5     41.102    44.018
38106.8     40.029    70.585
38661.1     37.537    95.876
39223.4     35.252   115.140
39793.9     34.793   141.921
