Freq[Hz]     dBSPL  Phase[Deg]
5.00000     42.463  -138.797
5.07273     42.808  -138.985
5.14651     43.152  -139.175
5.22137     43.511  -134.998
5.29732     43.885  -131.233
5.37437     44.303  -128.804
5.45254     44.834  -127.786
5.53185     45.464  -127.883
5.61231     46.091  -128.531
5.69394     46.636  -129.450
5.77676     47.012  -130.673
5.86079     47.273  -132.164
5.94604     47.455  -133.648
6.03252     47.592  -134.825
6.12027     47.692  -135.410
6.20929     47.754  -135.500
6.29961     47.819  -135.213
6.39124     47.967  -134.575
6.48420     48.218  -133.577
6.57851     48.551  -132.394
6.67420     48.946  -131.391
6.77128     49.398  -130.807
6.86977     49.904  -130.628
6.96969     50.433  -130.812
7.07107     50.938  -131.376
7.17392     51.404  -132.318
7.27827     51.835  -133.513
7.38413     52.225  -134.782
7.49154     52.570  -136.058
7.60050     52.870  -137.330
7.71105     53.151  -138.489
7.82321     53.420  -139.493
7.93701     53.683  -140.365
8.05245     53.949  -141.135
8.16958     54.229  -141.827
8.28841     54.519  -142.469
8.40896     54.815  -143.107
8.53128     55.114  -143.779
8.65537     55.411  -144.464
8.78126     55.702  -145.139
8.90899     55.981  -145.786
9.03857     56.256  -146.386
9.17004     56.531  -146.887
9.30342     56.809  -147.305
9.43874     57.101  -147.668
9.57603     57.413  -147.998
9.71532     57.740  -148.348
9.85663     58.079  -148.774
10.0000     58.427  -149.279
10.1455     58.770  -149.873
10.2930     59.101  -150.536
10.4427     59.422  -151.210
10.5946     59.731  -151.864
10.7487     60.035  -152.488
10.9051     60.343  -153.072
11.0637     60.652  -153.636
11.2246     60.965  -154.203
11.3879     61.277  -154.770
11.5535     61.583  -155.318
11.7216     61.885  -155.846
11.8921     62.193  -156.310
12.0650     62.504  -156.755
12.2405     62.834  -157.218
12.4186     63.173  -157.724
12.5992     63.515  -158.348
12.7825     63.849  -159.041
12.9684     64.159  -159.749
13.1570     64.467  -160.453
13.3484     64.768  -161.043
13.5426     65.085  -161.601
13.7395     65.427  -162.226
13.9394     65.787  -163.049
14.1421     66.127  -164.158
14.3478     66.441  -165.383
14.5565     66.684  -166.633
14.7683     66.878  -167.700
14.9831     67.055  -168.372
15.2010     67.275  -168.770
15.4221     67.548  -169.158
15.6464     67.848  -169.732
15.8740     68.137  -170.527
16.1049     68.387  -171.435
16.3392     68.604  -172.317
16.5768     68.808  -173.101
16.8179     69.007  -173.796
17.0626     69.190  -174.399
17.3107     69.348  -174.807
17.5625     69.500  -174.901
17.8180     69.689  -174.683
18.0771     69.943  -174.341
18.3401     70.253  -174.104
18.6068     70.589  -174.111
18.8775     70.930  -174.366
19.1521     71.262  -174.814
19.4306     71.577  -175.374
19.7133     71.871  -175.951
20.0000     72.155  -176.473
20.2909     72.446  -176.938
20.5860     72.750  -177.421
20.8855     73.056  -177.969
21.1893     73.358  -178.571
21.4975     73.655  -179.201
21.8102     73.953  -179.844
22.1274     74.248   179.476
22.4492     74.540   178.777
22.7758     74.825   178.063
23.1071     75.105   177.353
23.4432     75.383   176.657
23.7841     75.659   175.971
24.1301     75.933   175.290
24.4811     76.203   174.637
24.8372     76.471   174.023
25.1984     76.748   173.447
25.5649     77.031   172.864
25.9368     77.316   172.266
26.3141     77.602   171.670
26.6968     77.895   171.077
27.0851     78.198   170.445
27.4791     78.503   169.704
27.8788     78.798   168.877
28.2843     79.074   168.055
28.6957     79.345   167.285
29.1131     79.618   166.560
29.5365     79.897   165.836
29.9661     80.169   165.123
30.4020     80.449   164.445
30.8442     80.741   163.740
31.2929     81.034   162.985
31.7480     81.328   162.177
32.2098     81.622   161.316
32.6783     81.912   160.397
33.1536     82.193   159.434
33.6359     82.467   158.447
34.1251     82.731   157.445
34.6215     82.981   156.474
35.1250     83.223   155.596
35.6359     83.471   154.816
36.1543     83.730   154.085
36.6802     83.998   153.368
37.2137     84.279   152.649
37.7550     84.573   151.883
38.3041     84.872   151.058
38.8613     85.174   150.146
39.4265     85.475   149.198
40.0000     85.781   148.201
40.5818     86.088   147.100
41.1721     86.387   145.899
41.7710     86.676   144.628
42.3785     86.952   143.337
42.9949     87.225   142.055
43.6203     87.500   140.762
44.2548     87.780   139.423
44.8985     88.065   137.996
45.5515     88.352   136.383
46.2141     88.620   134.507
46.8863     88.825   132.429
47.5683     88.951   130.504
48.2602     89.038   129.153
48.9621     89.178   128.312
49.6743     89.370   127.538
50.3968     89.606   126.687
51.1299     89.868   125.697
51.8736     90.144   124.496
52.6281     90.417   123.109
53.3936     90.681   121.605
54.1702     90.936   120.028
54.9581     91.185   118.398
55.7575     91.429   116.714
56.5685     91.669   114.978
57.3914     91.907   113.187
58.2261     92.142   111.321
59.0730     92.368   109.369
59.9323     92.582   107.385
60.8040     92.795   105.356
61.6884     92.995   103.230
62.5857     93.180   101.096
63.4960     93.365    98.974
64.4196     93.555    96.790
65.3566     93.746    94.432
66.3073     93.915    91.837
67.2717     94.036    89.084
68.2502     94.096    86.390
69.2429     94.112    84.001
70.2501     94.129    82.083
71.2719     94.208    80.430
72.3086     94.349    78.543
73.3603     94.494    76.247
74.4274     94.607    73.710
75.5099     94.685    71.094
76.6083     94.740    68.454
77.7226     94.772    65.801
78.8531     94.782    63.145
80.0000     94.768    60.505
81.1636     94.725    57.858
82.3442     94.635    55.330
83.5419     94.520    53.146
84.7570     94.418    51.284
85.9899     94.347    49.596
87.2406     94.309    47.956
88.5096     94.297    46.261
89.7970     94.309    44.358
91.1031     94.316    42.229
92.4282     94.295    39.916
93.7726     94.240    37.592
95.1366     94.166    35.352
96.5204     94.082    33.165
97.9243     93.989    30.975
99.3486     93.881    28.823
100.794     93.761    26.722
102.260     93.625    24.686
103.747     93.478    22.805
105.256     93.339    21.095
106.787     93.217    19.445
108.340     93.111    17.741
109.916     93.002    15.936
111.515     92.879    14.097
113.137     92.736    12.282
114.783     92.575    10.575
116.452     92.423     9.197
118.146     92.300     7.869
119.865     92.218     6.442
121.608     92.146     4.903
123.377     92.076     3.126
125.171     91.991     1.210
126.992     91.861    -0.803
128.839     91.698    -2.473
130.713     91.539    -3.807
132.615     91.429    -5.129
134.543     91.368    -6.585
136.500     91.318    -8.290
138.486     91.255   -10.218
140.500     91.172   -12.204
142.544     91.085   -14.158
144.617     91.006   -16.293
146.721     90.878   -18.772
148.855     90.679   -21.008
151.020     90.467   -22.739
153.217     90.303   -24.127
155.445     90.198   -25.616
157.706     90.108   -27.320
160.000     90.039   -29.101
162.327     89.969   -31.395
164.688     89.824   -33.774
167.084     89.648   -35.841
169.514     89.474   -37.729
171.980     89.303   -39.444
174.481     89.163   -40.973
177.019     89.063   -42.597
179.594     88.967   -44.413
182.206     88.864   -46.209
184.856     88.768   -47.945
187.545     88.695   -49.634
190.273     88.666   -51.426
193.041     88.659   -53.667
195.849     88.601   -56.376
198.697     88.456   -58.969
201.587     88.293   -60.993
204.520     88.175   -62.704
207.494     88.117   -64.420
210.512     88.098   -66.378
213.574     88.089   -68.578
216.681     88.088   -71.012
219.833     88.090   -73.709
223.030     88.030   -76.958
226.274     87.897   -80.212
229.565     87.685   -83.202
232.905     87.444   -85.608
236.292     87.253   -87.566
239.729     87.114   -89.625
243.216     86.940   -92.055
246.754     86.691   -94.115
250.343     86.465   -95.500
253.984     86.288   -96.554
257.678     86.193   -97.357
261.426     86.160   -98.275
265.229     86.169   -99.181
269.087     86.269  -100.050
273.001     86.438  -101.932
276.972     86.526  -104.589
281.000     86.496  -107.090
285.088     86.435  -109.155
289.234     86.418  -110.770
293.441     86.462  -112.559
297.709     86.523  -114.761
302.040     86.553  -117.379
306.433     86.515  -120.198
310.890     86.426  -122.900
315.412     86.301  -125.531
320.000     86.149  -127.924
324.655     86.014  -130.032
329.377     85.903  -132.261
334.168     85.785  -134.586
339.028     85.660  -136.930
343.959     85.528  -139.310
348.962     85.389  -141.704
354.038     85.243  -144.130
359.188     85.084  -146.567
364.412     84.917  -148.991
369.713     84.741  -151.396
375.090     84.558  -153.775
380.546     84.365  -156.117
386.081     84.166  -158.427
391.697     83.958  -160.679
397.394     83.745  -162.894
403.175     83.525  -165.037
409.039     83.301  -167.110
414.989     83.071  -169.103
421.025     82.839  -171.001
427.149     82.605  -172.808
433.362     82.373  -174.501
439.665     82.143  -176.074
446.060     81.919  -177.534
452.548     81.704  -178.865
459.131     81.501   179.941
465.809     81.313   178.856
472.584     81.144   177.891
479.458     80.998   177.020
486.432     80.875   176.218
493.507     80.783   175.470
500.686     80.722   174.734
507.968     80.690   173.977
515.357     80.691   173.152
522.853     80.723   172.222
530.458     80.782   171.161
538.174     80.866   169.930
546.002     80.973   168.492
553.943     81.098   166.837
562.001     81.237   164.958
570.175     81.385   162.878
578.469     81.541   160.519
586.883     81.698   157.934
595.419     81.854   155.135
604.080     82.008   152.136
612.866     82.155   148.927
621.780     82.296   145.526
630.824     82.424   141.928
640.000     82.542   138.176
649.309     82.646   134.255
658.753     82.736   130.195
668.335     82.811   126.008
678.056     82.871   121.703
687.919     82.914   117.294
697.925     82.941   112.792
708.077     82.951   108.207
718.376     82.944   103.551
728.825     82.921    98.833
739.426     82.880    94.064
750.181     82.824    89.253
761.093     82.749    84.408
772.163     82.659    79.538
783.394     82.554    74.652
794.789     82.436    69.757
806.349     82.304    64.854
818.078     82.159    59.949
829.977     82.002    55.043
842.050     81.834    50.134
854.298     81.655    45.220
866.724     81.466    40.296
879.330     81.268    35.356
892.120     81.060    30.384
905.097     80.843    25.379
918.262     80.614    20.319
931.618     80.374    15.195
945.169     80.120     9.996
958.917     79.850     4.709
972.864     79.561    -0.675
987.015     79.250    -6.159
1001.37     78.911   -11.752
1015.94     78.542   -17.435
1030.71     78.137   -23.207
1045.71     77.689   -29.037
1060.92     77.195   -34.896
1076.35     76.647   -40.736
1092.00     76.040   -46.484
1107.89     75.370   -52.046
1124.00     74.630   -57.247
1140.35     73.831   -61.994
1156.94     72.966   -65.685
1173.77     72.075   -68.547
1190.84     71.215   -68.625
1208.16     70.400   -67.404
1225.73     69.837   -62.284
1243.56     69.510   -55.222
1261.65     69.588   -47.971
1280.00     69.952   -43.014
1298.62     70.579   -43.065
1317.51     71.215   -43.520
1336.67     71.893   -47.812
1356.11     72.522   -53.713
1375.84     73.076   -60.936
1395.85     73.540   -69.206
1416.15     73.891   -78.482
1436.75     74.179   -88.247
1457.65     74.350   -98.854
1478.85     74.435  -110.053
1500.36     74.427  -121.892
1522.19     74.314  -134.483
1544.33     74.116  -147.769
1566.79     73.839  -161.777
1589.58     73.493  -176.543
1612.70     73.095   167.895
1636.16     72.667   151.525
1659.95     72.244   134.363
1684.10     71.866   116.513
1708.60     71.575    98.125
1733.45     71.404    79.431
1758.66     71.364    60.718
1784.24     71.437    42.274
1810.19     71.586    24.341
1836.52     71.764     7.099
1863.24     71.925    -9.335
1890.34     72.034   -24.897
1917.83     72.067   -39.530
1945.73     72.008   -53.161
1974.03     71.854   -65.695
2002.74     71.601   -76.810
2031.87     71.279   -86.376
2061.43     70.926   -93.905
2091.41     70.604   -98.969
2121.83     70.390  -101.485
2152.69     70.384  -102.291
2184.01     70.513  -103.031
2215.77     70.835  -105.927
2248.00     71.203  -110.574
2280.70     71.551  -117.610
2313.87     71.800  -126.034
2347.53     71.910  -134.987
2381.68     71.867  -143.343
2416.32     71.744  -150.188
2451.46     71.640  -153.253
2487.12     71.692  -152.641
2523.30     72.102  -149.249
2560.00     72.818  -148.005
2597.24     73.739  -151.444
2635.01     74.701  -159.442
2673.34     75.539  -171.153
2712.23     76.200   175.289
2751.68     76.585   160.274
2791.70     76.695   144.587
2832.31     76.469   128.689
2873.50     75.942   113.144
2915.30     75.093    98.631
2957.70     73.929    86.273
3000.72     72.506    78.000
3044.37     71.088    79.850
3088.65     70.258    94.440
3133.58     70.303   110.132
3179.16     71.217   117.411
3225.40     72.533   117.981
3272.31     73.970   113.300
3319.91     75.316   103.845
3368.20     76.419    90.032
3417.19     77.170    72.860
3466.89     77.486    53.555
3517.32     77.315    33.347
3568.48     76.629    13.496
3620.39     75.417    -4.587
3673.05     73.681   -19.430
3726.47     71.442   -29.843
3780.67     69.048   -29.352
3835.67     67.476    -5.137
3891.46     68.784    38.493
3948.06     71.631    43.703
4005.49     74.034    24.718
4063.75     75.610     1.439
4122.86     76.375   -22.211
4182.82     76.489   -43.777
4243.66     76.161   -61.231
4305.39     75.671   -75.005
4368.01     75.144   -88.157
4431.55     74.511  -103.817
4496.01     73.619  -120.830
4561.40     72.311  -136.461
4627.75     70.658  -149.187
4695.06     68.690  -158.465
4763.35     66.577  -163.601
4832.64     64.654  -160.039
4902.93     63.706  -152.170
4974.24     63.556  -150.904
5046.60     64.126  -150.321
5120.00     65.248  -150.951
5194.47     66.480  -164.162
5270.03     66.841   167.991
5346.68     65.798   131.969
5424.45     63.058    88.910
5503.35     58.593    23.568
5583.40     55.815   -68.880
5664.61     57.703  -105.794
5747.01     60.498  -123.739
5830.60     62.711  -142.095
5915.41     64.021  -163.083
6001.45     64.940  -172.313
6088.74     66.633  -168.077
6177.30     68.376   171.625
6267.15     69.162   136.057
6358.31     68.643    97.417
6450.80     67.263    68.774
6544.62     65.846    62.640
6639.82     65.390    82.423
6736.40     66.140   100.660
6834.38     67.281    79.009
6933.79     67.917    35.467
7034.64     67.997    18.050
7136.96     67.606     7.414
7240.77     66.276   -65.528
7346.09     64.073   175.238
7452.94     62.229    26.766
7561.35     61.338    72.506
7671.33     61.753   108.936
7782.91     62.996   -25.075
7896.12     63.200   -95.107
8010.97     61.230    57.144
8127.49     57.930  -146.163
8245.71     56.698    39.496
8365.65     58.772   -76.894
8487.33     59.396   171.392
8610.78     58.625   -55.836
8736.03     57.767  -150.091
8863.09     58.165   150.444
8992.01     60.412   -48.477
9122.80     62.093  -151.721
9255.50     61.512   115.070
9390.12     59.173   -11.691
9526.70     58.557  -171.723
9665.27     60.044   163.427
9805.86     60.853   125.521
9948.49     60.665   109.515
10093.2     59.435    46.164
10240.0     57.766    72.969
10388.9     57.025    33.372
10540.1     57.379    32.845
10693.4     57.265   -69.934
10848.9     56.091   -63.145
11006.7     54.347     3.559
11166.8     52.940   -14.242
11329.2     51.116   -80.203
11494.0     47.571   156.296
11661.2     42.582   134.543
11830.8     39.207   138.068
12002.9     38.548   -21.506
12177.5     40.319  -135.836
12354.6     45.130    26.292
12534.3     49.030    16.126
12716.6     51.163   -95.664
12901.6     52.598  -134.232
13089.2     53.925  -104.383
13279.6     55.034   -54.110
13472.8     55.799    89.015
13668.8     56.171    68.316
13867.6     56.062   -32.649
14069.3     56.134    76.791
14273.9     56.961    79.992
14481.5     57.771   143.156
14692.2     57.126    -1.878
14905.9     55.934    51.978
15122.7     55.265   119.681
15342.7     55.079   129.671
15565.8     54.517   108.675
15792.2     53.091    25.275
16021.9     51.341   -49.357
16255.0     50.262   128.891
16491.4     50.213   -28.447
16731.3     50.979   102.399
16974.7     51.108   149.837
17221.6     50.309  -121.374
17472.1     49.500   -21.974
17726.2     49.560  -151.945
17984.0     49.406   -59.746
18245.6     48.143   -87.426
18511.0     46.069    86.912
18780.2     44.512    -3.969
19053.4     43.254  -134.647
19330.5     42.345    68.693
19611.7     41.988    53.444
19897.0     40.893   105.325
20186.4     38.628   -65.746
20480.0     37.229   174.542
20777.9     38.598   101.288
21080.1     40.836    79.586
21386.7     42.443   -45.687
21697.8     44.305   -56.646
22013.4     45.699   -80.720
22333.6     45.620    95.007
22658.4     45.585   -19.687
22988.0     46.230   106.501
23322.4     47.369     1.997
23661.6     48.424    81.405
24005.8     49.988    81.931
24355.0     50.897   105.812
24709.2     50.373   128.963
25068.6     49.599    24.153
25433.2     49.307   -14.588
25803.2     49.100   -52.773
26178.5     48.953   -41.110
26559.3     48.256  -162.336
26945.6     47.843  -136.002
27337.5     47.530   136.440
27735.2     47.000   136.212
28138.6     46.616   179.933
28547.9     45.805   110.779
28963.1     44.248  -176.392
29384.4     42.385   126.961
29811.8     41.021   155.725
30245.4     39.483   -30.285
30685.3     37.259   132.598
31131.7     37.517   110.959
31584.5     39.370   -41.029
32043.9     39.033    70.171
32510.0     35.727   -62.266
32982.8     34.730    14.184
33462.6     34.678    24.625
33949.3     32.998    59.172
34443.1     31.908   -79.824
34944.1     32.431   152.937
35452.4     33.463   -26.222
35968.0     33.959    89.428
36491.2     34.464   151.441
37022.0     33.972    53.658
37560.5     32.930  -133.028
38106.8     32.105    -4.750
38661.1     32.179   159.108
39223.4     33.248   165.208
39793.9     33.855  -136.625
