"SPL Vertical"
"On-Axis"		"10°"		"-10°"		"20°"		"-20°"		"30°"		"-30°"		"40°"		"-40°"		"50°"		"-50°"		"60°"		"-60°"		"70°"		"-70°"		"80°"		"-80°"		"90°"		"-90°"		"100°"		"-100°"		"110°"		"-110°"		"120°"		"-120°"		"130°"		"-130°"		"140°"		"-140°"		"150°"		"-150°"		"160°"		"-160°"		"170°"		"-170°"		"180°"
"Frequency / Hz"	"Sound Pressure Level / dB (re 20 µPa/V)  [2.83  V @ 1. m]"	"Frequency / Hz"	"Sound Pressure Level / dB (re 20 µPa/V)  [2.83  V @ 1. m]"	"Frequency / Hz"	"Sound Pressure Level / dB (re 20 µPa/V)  [2.83  V @ 1. m]"	"Frequency / Hz"	"Sound Pressure Level / dB (re 20 µPa/V)  [2.83  V @ 1. m]"	"Frequency / Hz"	"Sound Pressure Level / dB (re 20 µPa/V)  [2.83  V @ 1. m]"	"Frequency / Hz"	"Sound Pressure Level / dB (re 20 µPa/V)  [2.83  V @ 1. m]"	"Frequency / Hz"	"Sound Pressure Level / dB (re 20 µPa/V)  [2.83  V @ 1. m]"	"Frequency / Hz"	"Sound Pressure Level / dB (re 20 µPa/V)  [2.83  V @ 1. m]"	"Frequency / Hz"	"Sound Pressure Level / dB (re 20 µPa/V)  [2.83  V @ 1. m]"	"Frequency / Hz"	"Sound Pressure Level / dB (re 20 µPa/V)  [2.83  V @ 1. m]"	"Frequency / Hz"	"Sound Pressure Level / dB (re 20 µPa/V)  [2.83  V @ 1. m]"	"Frequency / Hz"	"Sound Pressure Level / dB (re 20 µPa/V)  [2.83  V @ 1. m]"	"Frequency / Hz"	"Sound Pressure Level / dB (re 20 µPa/V)  [2.83  V @ 1. m]"	"Frequency / Hz"	"Sound Pressure Level / dB (re 20 µPa/V)  [2.83  V @ 1. m]"	"Frequency / Hz"	"Sound Pressure Level / dB (re 20 µPa/V)  [2.83  V @ 1. m]"	"Frequency / Hz"	"Sound Pressure Level / dB (re 20 µPa/V)  [2.83  V @ 1. m]"	"Frequency / Hz"	"Sound Pressure Level / dB (re 20 µPa/V)  [2.83  V @ 1. m]"	"Frequency / Hz"	"Sound Pressure Level / dB (re 20 µPa/V)  [2.83  V @ 1. m]"	"Frequency / Hz"	"Sound Pressure Level / dB (re 20 µPa/V)  [2.83  V @ 1. m]"	"Frequency / Hz"	"Sound Pressure Level / dB (re 20 µPa/V)  [2.83  V @ 1. m]"	"Frequency / Hz"	"Sound Pressure Level / dB (re 20 µPa/V)  [2.83  V @ 1. m]"	"Frequency / Hz"	"Sound Pressure Level / dB (re 20 µPa/V)  [2.83  V @ 1. m]"	"Frequency / Hz"	"Sound Pressure Level / dB (re 20 µPa/V)  [2.83  V @ 1. m]"	"Frequency / Hz"	"Sound Pressure Level / dB (re 20 µPa/V)  [2.83  V @ 1. m]"	"Frequency / Hz"	"Sound Pressure Level / dB (re 20 µPa/V)  [2.83  V @ 1. m]"	"Frequency / Hz"	"Sound Pressure Level / dB (re 20 µPa/V)  [2.83  V @ 1. m]"	"Frequency / Hz"	"Sound Pressure Level / dB (re 20 µPa/V)  [2.83  V @ 1. m]"	"Frequency / Hz"	"Sound Pressure Level / dB (re 20 µPa/V)  [2.83  V @ 1. m]"	"Frequency / Hz"	"Sound Pressure Level / dB (re 20 µPa/V)  [2.83  V @ 1. m]"	"Frequency / Hz"	"Sound Pressure Level / dB (re 20 µPa/V)  [2.83  V @ 1. m]"	"Frequency / Hz"	"Sound Pressure Level / dB (re 20 µPa/V)  [2.83  V @ 1. m]"	"Frequency / Hz"	"Sound Pressure Level / dB (re 20 µPa/V)  [2.83  V @ 1. m]"	"Frequency / Hz"	"Sound Pressure Level / dB (re 20 µPa/V)  [2.83  V @ 1. m]"	"Frequency / Hz"	"Sound Pressure Level / dB (re 20 µPa/V)  [2.83  V @ 1. m]"	"Frequency / Hz"	"Sound Pressure Level / dB (re 20 µPa/V)  [2.83  V @ 1. m]"	"Frequency / Hz"	"Sound Pressure Level / dB (re 20 µPa/V)  [2.83  V @ 1. m]"
20.5078	58.3498	20.5078	57.635	20.5078	59.0979	20.5078	56.9668	20.5078	59.8551	20.5078	56.3491	20.5078	60.5878	20.5078	55.7795	20.5078	61.2537	20.5078	55.2533	20.5078	61.8051	20.5078	54.7686	20.5078	62.1904	20.5078	54.3296	20.5078	62.3569	20.5078	53.9498	20.5078	62.2537	20.5078	53.6523	20.5078	61.8377	20.5078	53.4677	20.5078	61.0819	20.5078	53.4257	20.5078	59.9924	20.5078	53.5436	20.5078	58.6399	20.5078	53.8119	20.5078	57.2115	20.5078	54.1889	20.5078	56.0275	20.5078	54.6064	20.5078	55.3763	20.5078	54.9845	20.5078	55.233	20.5078	55.2498	20.5078	55.3116	20.5078	55.3555
21.9727	58.2799	21.9727	58.4982	21.9727	58.1228	21.9727	58.7517	21.9727	58.0634	21.9727	59.026	21.9727	58.1428	21.9727	59.3155	21.9727	58.3936	21.9727	59.6209	21.9727	58.8264	21.9727	59.9455	21.9727	59.4245	21.9727	60.2938	21.9727	60.151	21.9727	60.6692	21.9727	60.9608	21.9727	61.0742	21.9727	61.8073	21.9727	61.5092	21.9727	62.6442	21.9727	61.9722	21.9727	63.4259	21.9727	62.4587	21.9727	64.1105	21.9727	62.9604	21.9727	64.665	21.9727	63.4649	21.9727	65.0674	21.9727	63.9554	21.9727	65.3081	21.9727	64.4108	21.9727	65.3887	21.9727	64.807	21.9727	65.3196	21.9727	65.1183
23.4375	50.3043	23.4375	49.2047	23.4375	51.4589	23.4375	48.2244	23.4375	52.6064	23.4375	47.4239	23.4375	53.688	23.4375	46.8502	23.4375	54.6464	23.4375	46.5275	23.4375	55.4249	23.4375	46.4542	23.4375	55.9675	23.4375	46.6084	23.4375	56.2229	23.4375	46.9564	23.4375	56.1507	23.4375	47.4611	23.4375	55.7341	23.4375	48.0861	23.4375	55.0033	23.4375	48.7968	23.4375	54.0758	23.4375	49.5596	23.4375	53.1944	23.4375	50.3401	23.4375	52.6615	23.4375	51.1022	23.4375	52.6015	23.4375	51.8069	23.4375	52.8405	23.4375	52.413	23.4375	53.111	23.4375	52.8781	23.4375	53.2401	23.4375	53.163
24.9023	47.5484	24.9023	47.1039	24.9023	48.1376	24.9023	46.8224	24.9023	48.859	24.9023	46.7201	24.9023	49.7085	24.9023	46.8036	24.9023	50.685	24.9023	47.0657	24.9023	51.7739	24.9023	47.4857	24.9023	52.9316	24.9023	48.0338	24.9023	54.0836	24.9023	48.6772	24.9023	55.1396	24.9023	49.3857	24.9023	56.0179	24.9023	50.1344	24.9023	56.6668	24.9023	50.9042	24.9023	57.0739	24.9023	51.6803	24.9023	57.2634	24.9023	52.4506	24.9023	57.2812	24.9023	53.2041	24.9023	57.1729	24.9023	53.9295	24.9023	56.9664	24.9023	54.6141	24.9023	56.6699	24.9023	55.244	24.9023	56.2821	24.9023	55.8042
26.3672	55.7893	26.3672	55.2471	26.3672	56.3793	26.3672	54.7648	26.3672	57.0036	26.3672	54.3531	26.3672	57.6457	26.3672	54.0222	26.3672	58.2852	26.3672	53.7808	26.3672	58.8957	26.3672	53.635	26.3672	59.4444	26.3672	53.5884	26.3672	59.8936	26.3672	53.6414	26.3672	60.2062	26.3672	53.7917	26.3672	60.3535	26.3672	54.0349	26.3672	60.326	26.3672	54.3641	26.3672	60.1417	26.3672	54.7701	26.3672	59.8472	26.3672	55.24	26.3672	59.5051	26.3672	55.7566	26.3672	59.1682	26.3672	56.2979	26.3672	58.8543	26.3672	56.8377	26.3672	58.5446	26.3672	57.3489	26.3672	58.2047	26.3672	57.8084
27.832	52.3119	27.832	52.1264	27.832	52.5097	27.832	51.9577	27.832	52.7183	27.832	51.8126	27.832	52.9414	27.832	51.699	27.832	53.1893	27.832	51.6248	27.832	53.4806	27.832	51.5969	27.832	53.8384	27.832	51.621	27.832	54.277	27.832	51.7029	27.832	54.7841	27.832	51.8492	27.832	55.3171	27.832	52.0692	27.832	55.8205	27.832	52.3729	27.832	56.2512	27.832	52.7687	27.832	56.589	27.832	53.2573	27.832	56.8292	27.832	53.8266	27.832	56.966	27.832	54.4493	27.832	56.9853	27.832	55.0849	27.832	56.8695	27.832	55.6859	27.832	56.608	27.832	56.206
29.2969	55.2165	29.2969	54.8376	29.2969	55.6124	29.2969	54.4791	29.2969	56.0254	29.2969	54.1484	29.2969	56.4564	29.2969	53.8575	29.2969	56.9054	29.2969	53.6212	29.2969	57.3688	29.2969	53.4553	29.2969	57.8376	29.2969	53.3751	29.2969	58.2963	29.2969	53.3934	29.2969	58.7236	29.2969	53.5198	29.2969	59.0961	29.2969	53.7595	29.2969	59.393	29.2969	54.1124	29.2969	59.6011	29.2969	54.5714	29.2969	59.7151	29.2969	55.1217	29.2969	59.734	29.2969	55.7408	29.2969	59.6556	29.2969	56.4	29.2969	59.4748	29.2969	57.0666	29.2969	59.1859	29.2969	57.7068	29.2969	58.7881	29.2969	58.2893
30.7617	52.2253	30.7617	51.7429	30.7617	52.7047	30.7617	51.2664	30.7617	53.1704	30.7617	50.8043	30.7617	53.6075	30.7617	50.3653	30.7617	53.996	30.7617	49.958	30.7617	54.3119	30.7617	49.5896	30.7617	54.5327	30.7617	49.2666	30.7617	54.6449	30.7617	48.995	30.7617	54.6525	30.7617	48.7829	30.7617	54.5796	30.7617	48.643	30.7617	54.4615	30.7617	48.5941	30.7617	54.3247	30.7617	48.6596	30.7617	54.1712	30.7617	48.8624	30.7617	53.978	30.7617	49.2148	30.7617	53.7125	30.7617	49.7091	30.7617	53.3496	30.7617	50.3149	30.7617	52.8796	30.7617	50.9849	30.7617	52.3105	30.7617	51.6663
32.2266	53.1124	32.2266	52.8884	32.2266	53.3423	32.2266	52.6836	32.2266	53.5608	32.2266	52.5066	32.2266	53.7484	32.2266	52.361	32.2266	53.8866	32.2266	52.2457	32.2266	53.9628	32.2266	52.1566	32.2266	53.977	32.2266	52.0881	32.2266	53.9463	32.2266	52.0337	32.2266	53.9012	32.2266	51.9873	32.2266	53.87	32.2266	51.9431	32.2266	53.859	32.2266	51.8961	32.2266	53.8447	32.2266	51.8438	32.2266	53.7861	32.2266	51.7881	32.2266	53.6463	32.2266	51.7382	32.2266	53.4097	32.2266	51.7129	32.2266	53.0887	32.2266	51.7398	32.2266	52.7209	32.2266	51.8484	32.2266	52.3594	32.2266	52.057
33.6914	53.6964	33.6914	53.3646	33.6914	54.0139	33.6914	53.026	33.6914	54.3076	33.6914	52.6859	33.6914	54.5649	33.6914	52.3471	33.6914	54.7681	33.6914	52.0095	33.6914	54.8922	33.6914	51.6699	33.6914	54.9042	33.6914	51.3231	33.6914	54.7657	33.6914	50.9627	33.6914	54.441	33.6914	50.5838	33.6914	53.9084	33.6914	50.1842	33.6914	53.1733	33.6914	49.7672	33.6914	52.2787	33.6914	49.3441	33.6914	51.3069	33.6914	48.9352	33.6914	50.3664	33.6914	48.5697	33.6914	49.5575	33.6914	48.2801	33.6914	48.9353	33.6914	48.0931	33.6914	48.4998	33.6914	48.0212	33.6914	48.2193	33.6914	48.0638
35.1562	56.0119	35.1562	55.7204	35.1562	56.3416	35.1562	55.4739	35.1562	56.7019	35.1562	55.278	35.1562	57.0845	35.1562	55.1359	35.1562	57.4791	35.1562	55.0478	35.1562	57.8724	35.1562	55.0104	35.1562	58.2469	35.1562	55.0174	35.1562	58.5797	35.1562	55.0605	35.1562	58.8432	35.1562	55.1303	35.1562	59.007	35.1562	55.2177	35.1562	59.0435	35.1562	55.3145	35.1562	58.9348	35.1562	55.4146	35.1562	58.6809	35.1562	55.5148	35.1562	58.3043	35.1562	55.6161	35.1562	57.849	35.1562	55.7247	35.1562	57.3707	35.1562	55.8529	35.1562	56.9227	35.1562	56.0186	35.1562	56.5419	35.1562	56.2424
36.6211	59.351	36.6211	59.2421	36.6211	59.4455	36.6211	59.1262	36.6211	59.5179	36.6211	59.0104	36.6211	59.562	36.6211	58.8996	36.6211	59.5751	36.6211	58.7973	36.6211	59.5592	36.6211	58.7051	36.6211	59.5206	36.6211	58.6229	36.6211	59.4668	36.6211	58.5497	36.6211	59.4006	36.6211	58.4836	36.6211	59.3164	36.6211	58.4221	36.6211	59.2026	36.6211	58.3628	36.6211	59.049	36.6211	58.3033	36.6211	58.855	36.6211	58.242	36.6211	58.6346	36.6211	58.1782	36.6211	58.4136	36.6211	58.1137	36.6211	58.2218	36.6211	58.0532	36.6211	58.0826	36.6211	58.0055	36.6211	58.005	36.6211	57.9841
38.0859	61.224	38.0859	61.0478	38.0859	61.3905	38.0859	60.872	38.0859	61.5357	38.0859	60.7039	38.0859	61.6476	38.0859	60.5484	38.0859	61.7168	38.0859	60.4084	38.0859	61.7386	38.0859	60.285	38.0859	61.715	38.0859	60.1783	38.0859	61.6539	38.0859	60.0869	38.0859	61.5633	38.0859	60.0089	38.0859	61.4445	38.0859	59.9412	38.0859	61.2887	38.0859	59.8806	38.0859	61.0829	38.0859	59.8234	38.0859	60.8225	38.0859	59.7663	38.0859	60.5214	38.0859	59.7073	38.0859	60.2122	38.0859	59.6474	38.0859	59.936	38.0859	59.5918	38.0859	59.7264	38.0859	59.5522	38.0859	59.5986	38.0859	59.547
39.5508	62.8939	39.5508	62.6939	39.5508	63.077	39.5508	62.4843	39.5508	63.2331	39.5508	62.2698	39.5508	63.3497	39.5508	62.0533	39.5508	63.4141	39.5508	61.837	39.5508	63.4167	39.5508	61.6228	39.5508	63.3561	39.5508	61.4133	39.5508	63.2417	39.5508	61.2113	39.5508	63.0902	39.5508	61.0199	39.5508	62.9153	39.5508	60.8423	39.5508	62.7156	39.5508	60.6811	39.5508	62.4749	39.5508	60.5388	39.5508	62.1761	39.5508	60.4178	39.5508	61.8198	39.5508	60.3211	39.5508	61.4312	39.5508	60.2536	39.5508	61.0526	39.5508	60.2228	39.5508	60.7264	39.5508	60.2402	39.5508	60.4801	39.5508	60.3208
41.0156	65.6493	41.0156	65.3659	41.0156	65.9128	41.0156	65.0728	41.0156	66.1424	41.0156	64.7767	41.0156	66.3202	41.0156	64.4824	41.0156	66.425	41.0156	64.1926	41.0156	66.4348	41.0156	63.909	41.0156	66.3314	41.0156	63.6328	41.0156	66.1044	41.0156	63.365	41.0156	65.7554	41.0156	63.1064	41.0156	65.2984	41.0156	62.8577	41.0156	64.7578	41.0156	62.6201	41.0156	64.1648	41.0156	62.3946	41.0156	63.555	41.0156	62.183	41.0156	62.9675	41.0156	61.9878	41.0156	62.4443	41.0156	61.8136	41.0156	62.0239	41.0156	61.6683	41.0156	61.7314	41.0156	61.5649	41.0156	61.5701	41.0156	61.5235
42.4805	66.5011	42.4805	66.2074	42.4805	66.7837	42.4805	65.9129	42.4805	67.0416	42.4805	65.6259	42.4805	67.2587	42.4805	65.3528	42.4805	67.417	42.4805	65.0991	42.4805	67.4996	42.4805	64.8697	42.4805	67.4947	42.4805	64.6692	42.4805	67.3995	42.4805	64.5015	42.4805	67.2227	42.4805	64.3702	42.4805	66.9833	42.4805	64.2777	42.4805	66.7055	42.4805	64.2253	42.4805	66.4125	42.4805	64.2133	42.4805	66.122	42.4805	64.2402	42.4805	65.8455	42.4805	64.3028	42.4805	65.5906	42.4805	64.3965	42.4805	65.3611	42.4805	64.5153	42.4805	65.1567	42.4805	64.6534	42.4805	64.9734	42.4805	64.8065
43.9453	68.5849	43.9453	68.252	43.9453	68.9041	43.9453	67.9162	43.9453	69.196	43.9453	67.5862	43.9453	69.4443	43.9453	67.2691	43.9453	69.6305	43.9453	66.9708	43.9453	69.7359	43.9453	66.6969	43.9453	69.7443	43.9453	66.4525	43.9453	69.6466	43.9453	66.2429	43.9453	69.4448	43.9453	66.0728	43.9453	69.1541	43.9453	65.9466	43.9453	68.8019	43.9453	65.8674	43.9453	68.422	43.9453	65.8367	43.9453	68.0469	43.9453	65.8539	43.9453	67.7	43.9453	65.9161	43.9453	67.3924	43.9453	66.0177	43.9453	67.1245	43.9453	66.1517	43.9453	66.8898	43.9453	66.3102	43.9453	66.6795	43.9453	66.487
45.4102	69.9663	45.4102	69.6937	45.4102	70.2229	45.4102	69.4164	45.4102	70.4503	45.4102	69.1438	45.4102	70.6335	45.4102	68.8838	45.4102	70.7571	45.4102	68.6426	45.4102	70.8069	45.4102	68.4253	45.4102	70.7735	45.4102	68.2356	45.4102	70.6554	45.4102	68.0763	45.4102	70.4615	45.4102	67.9492	45.4102	70.2102	45.4102	67.8553	45.4102	69.9257	45.4102	67.7949	45.4102	69.6324	45.4102	67.7673	45.4102	69.3492	45.4102	67.7713	45.4102	69.0879	45.4102	67.8048	45.4102	68.8539	45.4102	67.865	45.4102	68.6481	45.4102	67.9483	45.4102	68.4682	45.4102	68.0516	45.4102	68.3108	45.4102	68.1726
46.875	71.6979	46.875	71.3849	46.875	72.0019	46.875	71.0745	46.875	72.2834	46.875	70.7764	46.875	72.5267	46.875	70.4985	46.875	72.7147	46.875	70.2471	46.875	72.8311	46.875	70.0277	46.875	72.8626	46.875	69.8441	46.875	72.8029	46.875	69.6994	46.875	72.6559	46.875	69.5955	46.875	72.4362	46.875	69.533	46.875	72.1672	46.875	69.5114	46.875	71.8751	46.875	69.5291	46.875	71.5826	46.875	69.5831	46.875	71.305	46.875	69.6694	46.875	71.0497	46.875	69.7832	46.875	70.8183	46.875	69.919	46.875	70.6085	46.875	70.0718	46.875	70.4162	46.875	70.2379
48.3398	73.0614	48.3398	72.76	48.3398	73.3491	48.3398	72.4548	48.3398	73.6115	48.3398	72.1545	48.3398	73.8354	48.3398	71.8666	48.3398	74.0061	48.3398	71.598	48.3398	74.109	48.3398	71.3546	48.3398	74.1315	48.3398	71.1417	48.3398	74.0666	48.3398	70.9635	48.3398	73.9157	48.3398	70.8232	48.3398	73.6902	48.3398	70.7231	48.3398	73.4099	48.3398	70.6637	48.3398	73.0987	48.3398	70.6448	48.3398	72.7787	48.3398	70.6647	48.3398	72.4666	48.3398	70.7209	48.3398	72.1728	48.3398	70.8102	48.3398	71.9028	48.3398	70.9291	48.3398	71.6584	48.3398	71.0747	48.3398	71.4394	48.3398	71.245
51.2695	76.0143	51.2695	75.7037	51.2695	76.3027	51.2695	75.3813	51.2695	76.5572	51.2695	75.056	51.2695	76.7643	51.2695	74.7362	51.2695	76.9092	51.2695	74.4292	51.2695	76.9772	51.2695	74.1422	51.2695	76.9557	51.2695	73.8817	51.2695	76.8377	51.2695	73.6534	51.2695	76.6254	51.2695	73.4622	51.2695	76.3315	51.2695	73.3118	51.2695	75.9789	51.2695	73.2047	51.2695	75.5964	51.2695	73.1418	51.2695	75.2121	51.2695	73.1225	51.2695	74.8486	51.2695	73.1449	51.2695	74.5195	51.2695	73.2057	51.2695	74.2302	51.2695	73.301	51.2695	73.9802	51.2695	73.4273	51.2695	73.7656	51.2695	73.5821
52.7344	77.2813	52.7344	76.9682	52.7344	77.5719	52.7344	76.6431	52.7344	77.8276	52.7344	76.3157	52.7344	78.0344	52.7344	75.9946	52.7344	78.177	52.7344	75.6877	52.7344	78.2404	52.7344	75.4026	52.7344	78.2129	52.7344	75.1461	52.7344	78.0895	52.7344	74.9244	52.7344	77.8757	52.7344	74.7424	52.7344	77.5884	52.7344	74.604	52.7344	77.2536	52.7344	74.5114	52.7344	76.9001	52.7344	74.4652	52.7344	76.5532	52.7344	74.4645	52.7344	76.229	52.7344	74.5066	52.7344	75.9341	52.7344	74.5878	52.7344	75.6687	52.7344	74.7035	52.7344	75.4297	52.7344	74.849	52.7344	75.2139	52.7344	75.0201
54.1992	78.4764	54.1992	78.1546	54.1992	78.7809	54.1992	77.8269	54.1992	79.0553	54.1992	77.5032	54.1992	79.2848	54.1992	77.192	54.1992	79.4535	54.1992	76.9012	54.1992	79.5457	54.1992	76.6374	54.1992	79.5486	54.1992	76.4065	54.1992	79.4565	54.1992	76.2131	54.1992	79.2741	54.1992	76.0608	54.1992	79.0183	54.1992	75.9519	54.1992	78.7153	54.1992	75.8875	54.1992	78.3933	54.1992	75.8672	54.1992	78.0748	54.1992	75.8898	54.1992	77.7725	54.1992	75.9529	54.1992	77.49	54.1992	76.0533	54.1992	77.2262	54.1992	76.1873	54.1992	76.9797	54.1992	76.3508	54.1992	76.7504	54.1992	76.5397
55.6641	79.7048	55.6641	79.4023	55.6641	79.9893	55.6641	79.0923	55.6641	80.244	55.6641	78.7838	55.6641	80.4556	55.6641	78.4849	55.6641	80.6101	55.6641	78.2029	55.6641	80.6942	55.6641	77.9446	55.6641	80.6983	55.6641	77.7159	55.6641	80.6194	55.6641	77.5221	55.6641	80.4635	55.6641	77.3678	55.6641	80.2458	55.6641	77.2564	55.6641	79.9873	55.6641	77.1898	55.6641	79.7091	55.6641	77.169	55.6641	79.4273	55.6641	77.1934	55.6641	79.1505	55.6641	77.2613	55.6641	78.8812	55.6641	77.37	55.6641	78.6197	55.6641	77.5156	55.6641	78.3667	55.6641	77.6936	55.6641	78.1247	55.6641	77.8985
58.5938	82.1211	58.5938	81.7969	58.5938	82.4262	58.5938	81.465	58.5938	82.6995	58.5938	81.136	58.5938	82.9272	58.5938	80.8189	58.5938	83.0954	58.5938	80.5216	58.5938	83.1909	58.5938	80.2512	58.5938	83.2041	58.5938	80.0133	58.5938	83.132	58.5938	79.8128	58.5938	82.9803	58.5938	79.6535	58.5938	82.7623	58.5938	79.538	58.5938	82.4962	58.5938	79.468	58.5938	82.1998	58.5938	79.4439	58.5938	81.8879	58.5938	79.4652	58.5938	81.5717	58.5938	79.5303	58.5938	81.2599	58.5938	79.6369	58.5938	80.9592	58.5938	79.782	58.5938	80.6753	58.5938	79.962	58.5938	80.4121	58.5938	80.1732
60.0586	83.1935	60.0586	82.877	60.0586	83.488	60.0586	82.5496	60.0586	83.7483	60.0586	82.2215	60.0586	83.9617	60.0586	81.9024	60.0586	84.1151	60.0586	81.6011	60.0586	84.1964	60.0586	81.3254	60.0586	84.1966	60.0586	81.0823	60.0586	84.1131	60.0586	80.8774	60.0586	83.9513	60.0586	80.7151	60.0586	83.725	60.0586	80.5985	60.0586	83.453	60.0586	80.529	60.0586	83.1546	60.0586	80.5068	60.0586	82.8462	60.0586	80.5307	60.0586	82.5395	60.0586	80.5983	60.0586	82.2424	60.0586	80.7061	60.0586	81.9601	60.0586	80.8497	60.0586	81.6954	60.0586	81.0245	60.0586	81.4502	60.0586	81.2258
62.9883	85.1551	62.9883	84.842	62.9883	85.4485	62.9883	84.5204	62.9883	85.7097	62.9883	84.2005	62.9883	85.9251	62.9883	83.8917	62.9883	86.0807	62.9883	83.6023	62.9883	86.1632	62.9883	83.3399	62.9883	86.163	62.9883	83.1108	62.9883	86.0773	62.9883	82.9202	62.9883	85.9127	62.9883	82.7716	62.9883	85.6857	62.9883	82.6674	62.9883	85.4183	62.9883	82.608	62.9883	85.1318	62.9883	82.593	62.9883	84.8418	62.9883	82.6206	62.9883	84.5568	62.9883	82.6884	62.9883	84.2803	62.9883	82.7936	62.9883	84.0139	62.9883	82.9329	62.9883	83.7596	62.9883	83.103	62.9883	83.5204	62.9883	83.3002
64.4531	86.0687	64.4531	85.7525	64.4531	86.3659	64.4531	85.4282	64.4531	86.6322	64.4531	85.1059	64.4531	86.855	64.4531	84.7948	64.4531	87.0213	64.4531	84.5032	64.4531	87.1195	64.4531	84.2387	64.4531	87.1408	64.4531	84.0076	64.4531	87.0824	64.4531	83.8153	64.4531	86.9491	64.4531	83.6657	64.4531	86.7534	64.4531	83.5612	64.4531	86.5118	64.4531	83.5032	64.4531	86.2409	64.4531	83.4912	64.4531	85.9536	64.4531	83.5242	64.4531	85.6586	64.4531	83.6	64.4531	85.362	64.4531	83.7161	64.4531	85.0696	64.4531	83.8696	64.4531	84.7872	64.4531	84.0574	64.4531	84.5207	64.4531	84.2758
67.3828	87.9458	67.3828	87.6197	67.3828	88.2458	67.3828	87.2787	67.3828	88.5079	67.3828	86.9335	67.3828	88.7196	67.3828	86.5943	67.3828	88.8689	67.3828	86.2706	67.3828	88.9448	67.3828	85.971	67.3828	88.9401	67.3828	85.7036	67.3828	88.8535	67.3828	85.475	67.3828	88.6914	67.3828	85.2908	67.3828	88.4676	67.3828	85.1552	67.3828	88.1996	67.3828	85.0705	67.3828	87.904	67.3828	85.0379	67.3828	87.5937	67.3828	85.0566	67.3828	87.2779	67.3828	85.125	67.3828	86.9631	67.3828	85.2401	67.3828	86.655	67.3828	85.3979	67.3828	86.3588	67.3828	85.5939	67.3828	86.0798	67.3828	85.823
68.8477	88.7962	68.8477	88.4717	68.8477	89.0946	68.8477	88.1328	68.8477	89.3547	68.8477	87.7906	68.8477	89.5638	68.8477	87.4553	68.8477	89.7094	68.8477	87.1367	68.8477	89.7807	68.8477	86.8436	68.8477	89.7703	68.8477	86.5837	68.8477	89.6777	68.8477	86.3636	68.8477	89.5105	68.8477	86.1883	68.8477	89.2839	68.8477	86.0614	68.8477	89.0168	68.8477	85.9846	68.8477	88.7267	68.8477	85.9584	68.8477	88.4265	68.8477	85.9817	68.8477	88.1241	68.8477	86.0523	68.8477	87.8246	68.8477	86.1673	68.8477	87.5318	68.8477	86.3226	68.8477	87.2498	68.8477	86.5138	68.8477	86.9828	68.8477	86.7357
71.7773	90.3396	71.7773	90.0148	71.7773	90.6369	71.7773	89.6743	71.7773	90.894	71.7773	89.3297	71.7773	91.0985	71.7773	88.9921	71.7773	91.2384	71.7773	88.6715	71.7773	91.3035	71.7773	88.3772	71.7773	91.2878	71.7773	88.1173	71.7773	91.1914	71.7773	87.8982	71.7773	91.0227	71.7773	87.7246	71.7773	90.7964	71.7773	87.5996	71.7773	90.53	71.7773	87.5242	71.7773	90.239	71.7773	87.498	71.7773	89.935	71.7773	87.5193	71.7773	89.6262	71.7773	87.5854	71.7773	89.3195	71.7773	87.6932	71.7773	89.0213	71.7773	87.8395	71.7773	88.7376	71.7773	88.0206	71.7773	88.4735	71.7773	88.2332
74.707	91.818	74.707	91.4934	74.707	92.1104	74.707	91.1485	74.707	92.3587	74.707	90.7948	74.707	92.5508	74.707	90.4433	74.707	92.6754	74.707	90.1046	74.707	92.7238	74.707	89.7886	74.707	92.6911	74.707	89.5045	74.707	92.5791	74.707	89.2604	74.707	92.3969	74.707	89.0628	74.707	92.1598	74.707	88.9167	74.707	91.8848	74.707	88.8248	74.707	91.5866	74.707	88.7881	74.707	91.2766	74.707	88.8051	74.707	90.9632	74.707	88.8729	74.707	90.6536	74.707	88.9871	74.707	90.3538	74.707	89.1426	74.707	90.0683	74.707	89.3336	74.707	89.8009	74.707	89.5546
77.6367	93.0508	77.6367	92.7278	77.6367	93.3417	77.6367	92.3845	77.6367	93.5885	77.6367	92.0323	77.6367	93.7792	77.6367	91.682	77.6367	93.9031	77.6367	91.3436	77.6367	93.9513	77.6367	91.0264	77.6367	93.9198	77.6367	90.739	77.6367	93.8109	77.6367	90.4884	77.6367	93.6341	77.6367	90.2808	77.6367	93.404	77.6367	90.1208	77.6367	93.1357	77.6367	90.0117	77.6367	92.8408	77.6367	89.9553	77.6367	92.5271	77.6367	89.9522	77.6367	92.2007	77.6367	90.0015	77.6367	91.8692	77.6367	90.1013	77.6367	91.5416	77.6367	90.2486	77.6367	91.2273	77.6367	90.4396	77.6367	90.9345	77.6367	90.67
79.1016	93.5587	79.1016	93.2282	79.1016	93.8579	79.1016	92.8781	79.1016	94.1136	79.1016	92.5199	79.1016	94.3139	79.1016	92.1643	79.1016	94.4476	79.1016	91.8212	79.1016	94.5057	79.1016	91.5	79.1016	94.4834	79.1016	91.2087	79.1016	94.3822	79.1016	90.9545	79.1016	94.2104	79.1016	90.7431	79.1016	93.9813	79.1016	90.5793	79.1016	93.7086	79.1016	90.4662	79.1016	93.404	79.1016	90.4061	79.1016	93.0757	79.1016	90.3997	79.1016	92.7319	79.1016	90.4469	79.1016	92.3822	79.1016	90.5462	79.1016	92.0374	79.1016	90.6952	79.1016	91.7078	79.1016	90.8905	79.1016	91.4022	79.1016	91.1279
82.0312	94.374	82.0312	94.0411	82.0312	94.6766	82.0312	93.6909	82.0312	94.9358	82.0312	93.3364	82.0312	95.1393	82.0312	92.9897	82.0312	95.2765	82.0312	92.6621	82.0312	95.34	82.0312	92.3635	82.0312	95.3273	82.0312	92.1023	82.0312	95.2428	82.0312	91.8846	82.0312	95.0972	82.0312	91.7148	82.0312	94.904	82.0312	91.5951	82.0312	94.6752	82.0312	91.5263	82.0312	94.4177	82.0312	91.5076	82.0312	94.1354	82.0312	91.5376	82.0312	93.833	82.0312	91.6142	82.0312	93.5182	82.0312	91.7351	82.0312	93.2014	82.0312	91.8977	82.0312	92.8929	82.0312	92.099	82.0312	92.6018	82.0312	92.3352
84.9609	95.2118	84.9609	94.8603	84.9609	95.5275	84.9609	94.487	84.9609	95.7937	84.9609	94.1063	84.9609	95.9983	84.9609	93.7323	84.9609	96.1311	84.9609	93.3784	84.9609	96.186	84.9609	93.0572	84.9609	96.1631	84.9609	92.7795	84.9609	96.0703	84.9609	92.554	84.9609	95.923	84.9609	92.3868	84.9609	95.7394	84.9609	92.2811	84.9609	95.5336	84.9609	92.2372	84.9609	95.31	84.9609	92.2532	84.9609	95.0667	84.9609	92.325	84.9609	94.8011	84.9609	92.4477	84.9609	94.5151	84.9609	92.6154	84.9609	94.2158	84.9609	92.8222	84.9609	93.9123	84.9609	93.0617	84.9609	93.6137	84.9609	93.3278
87.8906	96.2257	87.8906	95.8803	87.8906	96.5294	87.8906	95.5065	87.8906	96.7785	87.8906	95.1174	87.8906	96.9608	87.8906	94.7258	87.8906	97.0659	87.8906	94.3441	87.8906	97.0866	87.8906	93.9839	87.8906	97.0209	87.8906	93.6559	87.8906	96.8745	87.8906	93.3699	87.8906	96.6615	87.8906	93.1343	87.8906	96.4016	87.8906	92.9559	87.8906	96.1145	87.8906	92.8396	87.8906	95.8136	87.8906	92.788	87.8906	95.5053	87.8906	92.8012	87.8906	95.1921	87.8906	92.8765	87.8906	94.8764	87.8906	93.0091	87.8906	94.5618	87.8906	93.1919	87.8906	94.253	87.8906	93.4165	87.8906	93.955	87.8906	93.6737
90.8203	96.6875	90.8203	96.3509	90.8203	96.9864	90.8203	95.9889	90.8203	97.2361	90.8203	95.6143	90.8203	97.426	90.8203	95.2394	90.8203	97.5476	90.8203	94.8761	90.8203	97.5956	90.8203	94.5352	90.8203	97.5691	90.8203	94.2263	90.8203	97.4729	90.8203	93.9577	90.8203	97.3174	90.8203	93.7361	90.8203	97.1147	90.8203	93.5666	90.8203	96.8743	90.8203	93.453	90.8203	96.6006	90.8203	93.3978	90.8203	96.2952	90.8203	93.4021	90.8203	95.9618	90.8203	93.4657	90.8203	95.6092	90.8203	93.587	90.8203	95.2498	90.8203	93.7626	90.8203	94.897	90.8203	93.9879	90.8203	94.5628	90.8203	94.257
95.2148	97.3379	95.2148	96.9745	95.2148	97.6589	95.2148	96.5837	95.2148	97.9239	95.2148	96.1809	95.2148	98.1209	95.2148	95.7813	95.2148	98.241	95.2148	95.3997	95.2148	98.2801	95.2148	95.0497	95.2148	98.2405	95.2148	94.7432	95.2148	98.1329	95.2148	94.4896	95.2148	97.9743	95.2148	94.2955	95.2148	97.7831	95.2148	94.1651	95.2148	97.571	95.2148	94.0994	95.2148	97.34	95.2148	94.0979	95.2148	97.0856	95.2148	94.1577	95.2148	96.8043	95.2148	94.2751	95.2148	96.4982	95.2148	94.4449	95.2148	96.1749	95.2148	94.6614	95.2148	95.8447	95.2148	94.9177	95.2148	95.5184	95.2148	95.2063
98.1445	97.7766	98.1445	97.4059	98.1445	98.1003	98.1445	97.0035	98.1445	98.3632	98.1445	96.5856	98.1445	98.5535	98.1445	96.1682	98.1445	98.6628	98.1445	95.7673	98.1445	98.6878	98.1445	95.3978	98.1445	98.6321	98.1445	95.0728	98.1445	98.5078	98.1445	94.8034	98.1445	98.3334	98.1445	94.5973	98.1445	98.1285	98.1445	94.4596	98.1445	97.9058	98.1445	94.3921	98.1445	97.6677	98.1445	94.3939	98.1445	97.4103	98.1445	94.4615	98.1445	97.1302	98.1445	94.5896	98.1445	96.8291	98.1445	94.7715	98.1445	96.5129	98.1445	94.9991	98.1445	96.1898	98.1445	95.2638	98.1445	95.8681	98.1445	95.5565
101.074	98.1146	101.074	97.7332	101.074	98.4436	101.074	97.3153	101.074	98.7058	101.074	96.8778	101.074	98.8894	101.074	96.4379	101.074	98.9863	101.074	96.0126	101.074	98.9941	101.074	95.6182	101.074	98.918	101.074	95.2691	101.074	98.7726	101.074	94.9776	101.074	98.5792	101.074	94.7526	101.074	98.3595	101.074	94.5999	101.074	98.1268	101.074	94.5216	101.074	97.8819	101.074	94.5167	101.074	97.6186	101.074	94.5816	101.074	97.3314	101.074	94.7104	101.074	97.021	101.074	94.8955	101.074	96.6938	101.074	95.1288	101.074	96.3588	101.074	95.401	101.074	96.0253	101.074	95.7029
105.469	98.8171	105.469	98.4255	105.469	99.1452	105.469	97.9869	105.469	99.3954	105.469	97.5193	105.469	99.5563	105.469	97.0414	105.469	99.6211	105.469	96.5717	105.469	99.5896	105.469	96.1284	105.469	99.4707	105.469	95.7275	105.469	99.2833	105.469	95.3825	105.469	99.053	105.469	95.1037	105.469	98.8032	105.469	94.8978	105.469	98.5446	105.469	94.7684	105.469	98.2725	105.469	94.716	105.469	97.9758	105.469	94.7389	105.469	97.6476	105.469	94.8337	105.469	97.2905	105.469	94.9952	105.469	96.9149	105.469	95.2171	105.469	96.5339	105.469	95.4918	105.469	96.1613	105.469	95.81
108.398	99.2723	108.398	98.8836	108.398	99.5959	108.398	98.4463	108.398	99.8397	108.398	97.9781	108.398	99.992	108.398	97.4977	108.398	100.045	108.398	97.0243	108.398	99.9995	108.398	96.5766	108.398	99.8636	108.398	96.172	108.398	99.659	108.398	95.8255	108.398	99.4161	108.398	95.5486	108.398	99.1641	108.398	95.349	108.398	98.9179	108.398	95.2302	108.398	98.6726	108.398	95.1922	108.398	98.412	108.398	95.2322	108.398	98.1222	108.398	95.3452	108.398	97.7999	108.398	95.5244	108.398	97.4515	108.398	95.7621	108.398	97.0886	108.398	96.0488	108.398	96.7248	108.398	96.3738
112.793	99.6273	112.793	99.2301	112.793	99.9571	112.793	98.7822	112.793	100.204	112.793	98.3017	112.793	100.358	112.793	97.8071	112.793	100.409	112.793	97.3173	112.793	100.359	112.793	96.8506	112.793	100.217	112.793	96.4248	112.793	100.005	112.793	96.0556	112.793	99.7552	112.793	95.7564	112.793	99.4965	112.793	95.5372	112.793	99.2449	112.793	95.4045	112.793	98.9959	112.793	95.3606	112.793	98.733	112.793	95.4039	112.793	98.4418	112.793	95.529	112.793	98.1177	112.793	95.7275	112.793	97.7651	112.793	95.9887	112.793	97.394	112.793	96.2998	112.793	97.0168	112.793	96.6473
117.188	99.884	117.188	99.4752	117.188	100.221	117.188	99.0136	117.188	100.471	117.188	98.5197	117.188	100.62	117.188	98.0147	117.188	100.661	117.188	97.5203	117.188	100.593	117.188	97.057	117.188	100.428	117.188	96.6435	117.188	100.187	117.188	96.295	117.188	99.9065	117.188	96.0227	117.188	99.621	117.188	95.8334	117.188	99.352	117.188	95.7293	117.188	99.0992	117.188	95.7091	117.188	98.847	117.188	95.7682	117.188	98.5787	117.188	95.8996	117.188	98.286	117.188	96.0947	117.188	97.9692	117.188	96.3433	117.188	97.6348	117.188	96.6341	117.188	97.2927	117.188	96.9548
120.117	100.104	120.117	99.6899	120.117	100.441	120.117	99.216	120.117	100.685	120.117	98.7021	120.117	100.825	120.117	98.1696	120.117	100.857	120.117	97.6411	120.117	100.781	120.117	97.1394	120.117	100.612	120.117	96.6865	120.117	100.373	120.117	96.3016	120.117	100.101	120.117	96.0002	120.117	99.825	120.117	95.7924	120.117	99.5628	120.117	95.6821	120.117	99.3093	120.117	95.6676	120.117	99.0484	120.117	95.7423	120.117	98.7658	120.117	95.896	120.117	98.456	120.117	96.1165	120.117	98.1211	120.117	96.3908	120.117	97.7682	120.117	96.7058	120.117	97.407	120.117	97.0488
124.512	100.416	124.512	100	124.512	100.754	124.512	99.5264	124.512	101	124.512	99.0153	124.512	101.14	124.512	98.4886	124.512	101.169	124.512	97.9682	124.512	101.089	124.512	97.4755	124.512	100.915	124.512	97.0303	124.512	100.676	124.512	96.6498	124.512	100.41	124.512	96.3483	124.512	100.155	124.512	96.1359	124.512	99.9248	124.512	96.0186	124.512	99.7097	124.512	95.9975	124.512	99.4847	124.512	96.0697	124.512	99.2285	124.512	96.2277	124.512	98.9325	124.512	96.4609	124.512	98.5984	124.512	96.7558	124.512	98.2347	124.512	97.0971	124.512	97.8532	124.512	97.4686
128.906	100.559	128.906	100.127	128.906	100.91	128.906	99.6327	128.906	101.164	128.906	99.0978	128.906	101.309	128.906	98.5453	128.906	101.34	128.906	97.999	128.906	101.26	128.906	97.4824	128.906	101.085	128.906	97.0176	128.906	100.846	128.906	96.6239	128.906	100.58	128.906	96.3169	128.906	100.326	128.906	96.1072	128.906	100.097	128.906	96.0003	128.906	99.8828	128.906	95.9965	128.906	99.6584	128.906	96.0909	128.906	99.4025	128.906	96.2743	128.906	99.1058	128.906	96.5339	128.906	98.7692	128.906	96.8543	128.906	98.3998	128.906	97.2186	128.906	98.0084	128.906	97.6092
133.301	100.693	133.301	100.256	133.301	101.046	133.301	99.7541	133.301	101.299	133.301	99.21	133.301	101.439	133.301	98.6472	133.301	101.461	133.301	98.0899	133.301	101.371	133.301	97.5616	133.301	101.186	133.301	97.084	133.301	100.937	133.301	96.6759	133.301	100.668	133.301	96.3524	133.301	100.416	133.301	96.125	133.301	100.195	133.301	96.0006	133.301	99.9894	133.301	95.9822	133.301	99.7706	133.301	96.0675	133.301	99.5147	133.301	96.2495	133.301	99.2124	133.301	96.5162	133.301	98.8651	133.301	96.8514	133.301	98.4804	133.301	97.2359	133.301	98.07	133.301	97.6489
139.16	100.752	139.16	100.305	139.16	101.107	139.16	99.7847	139.16	101.351	139.16	99.2156	139.16	101.475	139.16	98.6233	139.16	101.474	139.16	98.035	139.16	101.354	139.16	97.4775	139.16	101.135	139.16	96.9753	139.16	100.854	139.16	96.5492	139.16	100.557	139.16	96.2149	139.16	100.283	139.16	95.9823	139.16	100.048	139.16	95.856	139.16	99.8329	139.16	95.8356	139.16	99.606	139.16	95.9166	139.16	99.3423	139.16	96.091	139.16	99.0322	139.16	96.3473	139.16	98.6775	139.16	96.6713	139.16	98.287	139.16	97.0462	139.16	97.8734	139.16	97.4535
143.555	100.707	143.555	100.244	143.555	101.073	143.555	99.7077	143.555	101.325	143.555	99.1214	143.555	101.45	143.555	98.5126	143.555	101.444	143.555	97.9091	143.555	101.313	143.555	97.338	143.555	101.077	143.555	96.8236	143.555	100.772	143.555	96.3859	143.555	100.449	143.555	96.0398	143.555	100.151	143.555	95.7949	143.555	99.8951	143.555	95.656	143.555	99.6624	143.555	95.6234	143.555	99.419	143.555	95.6935	143.555	99.1394	143.555	95.8589	143.555	98.8151	143.555	96.1086	143.555	98.449	143.555	96.4285	143.555	98.0504	143.555	96.8016	143.555	97.6317	143.555	97.2092
147.949	100.464	147.949	99.9741	147.949	100.855	147.949	99.409	147.949	101.131	147.949	98.7942	147.949	101.28	147.949	98.1584	147.949	101.298	147.949	97.532	147.949	101.192	147.949	96.9445	147.949	100.98	147.949	96.4223	147.949	100.698	147.949	95.9864	147.949	100.391	147.949	95.6509	147.949	100.101	147.949	95.4232	147.949	99.8402	147.949	95.3051	147.949	99.5921	147.949	95.2939	147.949	99.3251	147.949	95.3836	147.949	99.0164	147.949	95.5653	147.949	98.6605	147.949	95.8281	147.949	98.2638	147.949	96.1584	147.949	97.8383	147.949	96.5414	147.949	97.3985	147.949	96.9604
153.809	100.449	153.809	99.9546	153.809	100.827	153.809	99.3646	153.809	101.073	153.809	98.7062	153.809	101.18	153.809	98.0121	153.809	101.149	153.809	97.3191	153.809	100.994	153.809	96.6658	153.809	100.743	153.809	96.0882	153.809	100.439	153.809	95.615	153.809	100.135	153.809	95.2646	153.809	99.8644	153.809	95.0434	153.809	99.6319	153.809	94.9487	153.809	99.4107	153.809	94.9715	153.809	99.1676	153.809	95.0999	153.809	98.8823	153.809	95.3213	153.809	98.5485	153.809	95.6221	153.809	98.1685	153.809	95.988	153.809	97.7494	153.809	96.4026	153.809	97.3034	153.809	96.8478
159.668	100.671	159.668	100.211	159.668	101.005	159.668	99.6451	159.668	101.196	159.668	98.9974	159.668	101.234	159.668	98.2979	159.668	101.119	159.668	97.5809	159.668	100.863	159.668	96.8843	159.668	100.504	159.668	96.247	159.668	100.105	159.668	95.7059	159.668	99.7449	159.668	95.2911	159.668	99.4795	159.668	95.0231	159.668	99.3058	159.668	94.9094	159.668	99.1712	159.668	94.9453	159.668	99.0189	159.668	95.1147	159.668	98.8188	159.668	95.3944	159.668	98.5649	159.668	95.757	159.668	98.2593	159.668	96.1747	159.668	97.9043	159.668	96.621	159.668	97.5048	159.668	97.0714
165.527	100.753	165.527	100.212	165.527	101.165	165.527	99.5655	165.527	101.427	165.527	98.8393	165.527	101.525	165.527	98.0639	165.527	101.454	165.527	97.2735	165.527	101.224	165.527	96.5064	165.527	100.869	165.527	95.8031	165.527	100.448	165.527	95.203	165.527	100.043	165.527	94.7395	165.527	99.7189	165.527	94.4354	165.527	99.487	165.527	94.2997	165.527	99.2971	165.527	94.3279	165.527	99.084	165.527	94.5037	165.527	98.8089	165.527	94.8032	165.527	98.4664	165.527	95.1976	165.527	98.0683	165.527	95.6568	165.527	97.6275	165.527	96.1519	165.527	97.154	165.527	96.6575
171.387	100.698	171.387	100.129	171.387	101.127	171.387	99.4491	171.387	101.394	171.387	98.6867	171.387	101.483	171.387	97.8726	171.387	101.389	171.387	97.038	171.387	101.124	171.387	96.2154	171.387	100.724	171.387	95.4388	171.387	100.258	171.387	94.7447	171.387	99.8149	171.387	94.1703	171.387	99.474	171.387	93.7507	171.387	99.2489	171.387	93.5126	171.387	99.0822	171.387	93.4682	171.387	98.895	171.387	93.6116	171.387	98.6341	171.387	93.9209	171.387	98.2806	171.387	94.3634	171.387	97.837	171.387	94.902	171.387	97.3159	171.387	95.4996	171.387	96.7361	171.387	96.1214
177.246	100.12	177.246	99.4883	177.246	100.609	177.246	98.7424	177.246	100.936	177.246	97.9167	177.246	101.089	177.246	97.0515	177.246	101.065	177.246	96.19	177.246	100.871	177.246	95.3745	177.246	100.531	177.246	94.6432	177.246	100.096	177.246	94.0271	177.246	99.6405	177.246	93.5489	177.246	99.2439	177.246	93.224	177.246	98.9441	177.246	93.0609	177.246	98.7132	177.246	93.0612	177.246	98.4872	177.246	93.2188	177.246	98.211	177.246	93.5202	177.246	97.8562	177.246	93.9451	177.246	97.4149	177.246	94.4681	177.246	96.8926	177.246	95.059	177.246	96.3064	177.246	95.6838
183.105	99.7466	183.105	99.1315	183.105	100.222	183.105	98.3991	183.105	100.541	183.105	97.5772	183.105	100.692	183.105	96.6997	183.105	100.675	183.105	95.8068	183.105	100.502	183.105	94.942	183.105	100.204	183.105	94.1499	183.105	99.835	183.105	93.4721	183.105	99.458	183.105	92.945	183.105	99.1263	183.105	92.5978	183.105	98.853	183.105	92.4493	183.105	98.6099	183.105	92.5047	183.105	98.3551	183.105	92.7519	183.105	98.0577	183.105	93.1628	183.105	97.7021	183.105	93.6978	183.105	97.2802	183.105	94.3126	183.105	96.7881	183.105	94.9638	183.105	96.2284	183.105	95.6129
188.965	99.8291	188.965	99.1704	188.965	100.314	188.965	98.3654	188.965	100.607	188.965	97.4475	188.965	100.701	188.965	96.455	188.965	100.602	188.965	95.4305	188.965	100.341	188.965	94.4191	188.965	99.9745	188.965	93.4672	188.965	99.582	188.965	92.6204	188.965	99.2471	188.965	91.9236	188.965	99.0109	188.965	91.4197	188.965	98.8431	188.965	91.1457	188.965	98.6673	188.965	91.1253	188.965	98.4166	188.965	91.3595	188.965	98.0606	188.965	91.8226	188.965	97.5977	188.965	92.4665	188.965	97.037	188.965	93.23	188.965	96.3886	188.965	94.051	188.965	95.663	188.965	94.8753
196.289	100.395	196.289	99.767	196.289	100.833	196.289	98.9717	196.289	101.067	196.289	98.0374	196.289	101.091	196.289	96.9976	196.289	100.915	196.289	95.8893	196.289	100.566	196.289	94.7524	196.289	100.105	196.289	93.6294	196.289	99.6221	196.289	92.5671	196.289	99.2236	196.289	91.6192	196.289	98.968	196.289	90.8482	196.289	98.8206	196.289	90.3203	196.289	98.6843	196.289	90.0913	196.289	98.4684	196.289	90.1874	196.289	98.1191	196.289	90.5948	196.289	97.6111	196.289	91.2649	196.289	96.9377	196.289	92.1294	196.289	96.1119	196.289	93.1143	196.289	95.1662	196.289	94.1481
203.613	100.211	203.613	99.5972	203.613	100.628	203.613	98.8188	203.613	100.826	203.613	97.9163	203.613	100.791	203.613	96.9379	203.613	100.524	203.613	95.935	203.613	100.047	203.613	94.9551	203.613	99.4178	203.613	94.0346	203.613	98.7535	203.613	93.1957	203.613	98.2074	203.613	92.4501	203.613	97.8805	203.613	91.8081	203.613	97.7352	203.613	91.2886	203.613	97.6467	203.613	90.9254	203.613	97.5161	203.613	90.7674	203.613	97.2946	203.613	90.8686	203.613	96.9447	203.613	91.2635	203.613	96.4243	203.613	91.9408	203.613	95.7112	203.613	92.8328	203.613	94.8256	203.613	93.8331
210.938	99.9221	210.938	99.2021	210.938	100.439	210.938	98.3069	210.938	100.734	210.938	97.2748	210.938	100.792	210.938	96.1585	210.938	100.608	210.938	95.0238	210.938	100.19	210.938	93.9437	210.938	99.5739	210.938	92.9838	210.938	98.8468	210.938	92.1882	210.938	98.151	210.938	91.5738	210.938	97.6257	210.938	91.1374	210.938	97.294	210.938	90.8691	210.938	97.0508	210.938	90.7637	210.938	96.7848	210.938	90.8242	210.938	96.4548	210.938	91.0589	210.938	96.0582	210.938	91.4721	210.938	95.5806	210.938	92.0519	210.938	94.9973	210.938	92.7612	210.938	94.3045	210.938	93.5372
218.262	99.198	218.262	98.5053	218.262	99.7062	218.262	97.649	218.262	100.012	218.262	96.6553	218.262	100.103	218.262	95.5602	218.262	99.9749	218.262	94.414	218.262	99.6401	218.262	93.2847	218.262	99.1401	218.262	92.2537	218.262	98.5593	218.262	91.4018	218.262	98.0184	218.262	90.7862	218.262	97.6121	218.262	90.4214	218.262	97.324	218.262	90.2808	218.262	97.0378	218.262	90.3181	218.262	96.6437	218.262	90.4924	218.262	96.113	218.262	90.7819	218.262	95.489	218.262	91.1802	218.262	94.8343	218.262	91.6813	218.262	94.1839	218.262	92.2645	218.262	93.5392	218.262	92.8948
225.586	98.8722	225.586	98.1663	225.586	99.3686	225.586	97.2866	225.586	99.6285	225.586	96.2763	225.586	99.6362	225.586	95.1861	225.586	99.3934	225.586	94.0731	225.586	98.9315	225.586	92.9996	225.586	98.3294	225.586	92.0285	225.586	97.7286	225.586	91.2171	225.586	97.3016	225.586	90.6075	225.586	97.1372	225.586	90.2164	225.586	97.1538	225.586	90.0337	225.586	97.1813	225.586	90.032	225.586	97.0923	225.586	90.188	225.586	96.8358	225.586	90.4984	225.586	96.4042	225.586	90.9778	225.586	95.8081	225.586	91.6334	225.586	95.0702	225.586	92.4377	225.586	94.2267	225.586	93.3274
232.91	98.7619	232.91	97.9918	232.91	99.2938	232.91	97.0206	232.91	99.5609	232.91	95.8983	232.91	99.5465	232.91	94.6889	232.91	99.2469	232.91	93.4677	232.91	98.6799	232.91	92.3126	232.91	97.9055	232.91	91.2913	232.91	97.0595	232.91	90.4511	232.91	96.3599	232.91	89.815	232.91	95.9828	232.91	89.3846	232.91	95.8801	232.91	89.1426	232.91	95.8384	232.91	89.0584	232.91	95.6921	232.91	89.1011	232.91	95.386	232.91	89.2605	232.91	94.916	232.91	89.5625	232.91	94.2832	232.91	90.0569	232.91	93.4967	232.91	90.7673	232.91	92.5929	232.91	91.6472
241.699	97.8886	241.699	97.0238	241.699	98.5109	241.699	95.9482	241.699	98.8631	241.699	94.6995	241.699	98.9233	241.699	93.3265	241.699	98.6808	241.699	91.8953	241.699	98.1453	241.699	90.4953	241.699	97.3676	241.699	89.2395	241.699	96.4781	241.699	88.2519	241.699	95.7044	241.699	87.6305	241.699	95.2534	241.699	87.4009	241.699	95.0979	241.699	87.5008	241.699	95.01	241.699	87.8153	241.699	94.8	241.699	88.2333	241.699	94.4091	241.699	88.685	241.699	93.8582	241.699	89.1536	241.699	93.1906	241.699	89.6645	241.699	92.4509	241.699	90.2546	241.699	91.6836	241.699	90.9362
250.488	97.3049	250.488	96.1916	250.488	98.1137	250.488	94.8083	250.488	98.5943	250.488	93.2051	250.488	98.7338	250.488	91.4547	250.488	98.5329	250.488	89.6569	250.488	98.0144	250.488	87.9346	250.488	97.2407	250.488	86.4175	250.488	96.3505	250.488	85.2239	250.488	95.5759	250.488	84.4512	250.488	95.1202	250.488	84.16	250.488	94.9439	250.488	84.336	250.488	94.8152	250.488	84.869	250.488	94.5502	250.488	85.5981	250.488	94.0874	250.488	86.3892	250.488	93.4269	250.488	87.1773	250.488	92.5935	250.488	87.9647	250.488	91.6415	250.488	88.7894	250.488	90.6481	250.488	89.6841
259.277	97.3008	259.277	96.2057	259.277	98.0725	259.277	94.8045	259.277	98.5113	259.277	93.1279	259.277	98.6138	259.277	91.2272	259.277	98.3838	259.277	89.185	259.277	97.8383	259.277	87.1237	259.277	97.0304	259.277	85.2035	259.277	96.1035	259.277	83.5961	259.277	95.3379	259.277	82.4423	259.277	95.0034	259.277	81.8268	259.277	95.0478	259.277	81.7814	259.277	95.1719	259.277	82.2747	259.277	95.1644	259.277	83.196	259.277	94.9613	259.277	84.3943	259.277	94.5311	259.277	85.7478	259.277	93.8295	259.277	87.1898	259.277	92.8376	259.277	88.6822	259.277	91.5923	259.277	90.1756
268.066	97.8433	268.066	96.8699	268.066	98.5326	268.066	95.6349	268.066	98.921	268.066	94.1711	268.066	98.9945	268.066	92.5272	268.066	98.741	268.066	90.7696	268.066	98.1541	268.066	88.9771	268.066	97.2542	268.066	87.2269	268.066	96.1455	268.066	85.5804	268.066	95.0976	268.066	84.0916	268.066	94.4628	268.066	82.8556	268.066	94.3035	268.066	82.0738	268.066	94.3228	268.066	82.0015	268.066	94.2577	268.066	82.6883	268.066	94.0223	268.066	83.8794	268.066	93.5909	268.066	85.2766	268.066	92.9283	268.066	86.7223	268.066	92.0146	268.066	88.1639	268.066	90.8738	268.066	89.5665
276.855	98.7653	276.855	97.648	276.855	99.5787	276.855	96.2449	276.855	100.069	276.855	94.5808	276.855	100.217	276.855	92.6992	276.855	100.008	276.855	90.6754	276.855	99.4379	276.855	88.6238	276.855	98.5326	276.855	86.6954	276.855	97.3882	276.855	85.0613	276.855	96.2531	276.855	83.8791	276.855	95.489	276.855	83.2431	276.855	95.2131	276.855	83.1498	276.855	95.147	276.855	83.5069	276.855	95.0112	276.855	84.1815	276.855	94.7282	276.855	85.0639	276.855	94.2928	276.855	86.115	276.855	93.6618	276.855	87.3522	276.855	92.775	276.855	88.7613	276.855	91.6146	276.855	90.2348
287.109	99.4	287.109	98.4345	287.109	100.095	287.109	97.2309	287.109	100.493	287.109	95.8237	287.109	100.578	287.109	94.2487	287.109	100.347	287.109	92.5452	287.109	99.8104	287.109	90.7575	287.109	98.9965	287.109	88.9355	287.109	97.9945	287.109	87.1386	287.109	97.0267	287.109	85.4581	287.109	96.3848	287.109	84.0812	287.109	96.0982	287.109	83.3517	287.109	95.8679	287.109	83.554	287.109	95.4478	287.109	84.4933	287.109	94.8214	287.109	85.684	287.109	94.0781	287.109	86.8329	287.109	93.2636	287.109	87.9174	287.109	92.3541	287.109	89.0245	287.109	91.3194	287.109	90.1821
297.363	99.3137	297.363	98.2669	297.363	100.059	297.363	96.9367	297.363	100.488	297.363	95.3527	297.363	100.585	297.363	93.569	297.363	100.341	297.363	91.6758	297.363	99.76	297.363	89.8009	297.363	98.8776	297.363	88.0846	297.363	97.8246	297.363	86.6248	297.363	96.8993	297.363	85.4292	297.363	96.4196	297.363	84.4384	297.363	96.3217	297.363	83.6373	297.363	96.2276	297.363	83.1702	297.363	95.8791	297.363	83.2732	297.363	95.2324	297.363	83.9781	297.363	94.3311	297.363	85.0545	297.363	93.2179	297.363	86.2936	297.363	91.9284	297.363	87.631	297.363	90.5145	297.363	89.0542
307.617	99.4	307.617	98.1535	307.617	100.34	307.617	96.6547	307.617	100.928	307.617	94.962	307.617	101.135	307.617	93.1387	307.617	100.949	307.617	91.2574	307.617	100.367	307.617	89.3931	307.617	99.397	307.617	87.598	307.617	98.0939	307.617	85.8676	307.617	96.6807	307.617	84.1378	307.617	95.5928	307.617	82.3674	307.617	95.1034	307.617	80.7604	307.617	94.9674	307.617	80.0154	307.617	94.8059	307.617	80.7036	307.617	94.4225	307.617	82.2739	307.617	93.7475	307.617	83.9842	307.617	92.7735	307.617	85.5965	307.617	91.5471	307.617	87.1374	307.617	90.1478	307.617	88.6577
319.336	99.4076	319.336	98.1621	319.336	100.218	319.336	96.489	319.336	100.603	319.336	94.4225	319.336	100.579	319.336	92.0441	319.336	100.165	319.336	89.5126	319.336	99.3876	319.336	87.0879	319.336	98.3202	319.336	85.0864	319.336	97.1607	319.336	83.7242	319.336	96.2439	319.336	82.9556	319.336	95.7744	319.336	82.51	319.336	95.5795	319.336	82.0942	319.336	95.4214	319.336	81.56	319.336	95.2652	319.336	81.0101	319.336	95.0857	319.336	80.9291	319.336	94.7099	319.336	82.0053	319.336	93.9602	319.336	84.205	319.336	92.7752	319.336	86.7695	319.336	91.1667	319.336	89.1524
329.59	99.1066	329.59	97.7275	329.59	100.067	329.59	95.9337	329.59	100.606	329.59	93.7491	329.59	100.718	329.59	91.2495	329.59	100.387	329.59	88.6116	329.59	99.601	329.59	86.1444	329.59	98.3715	329.59	84.2003	329.59	96.8369	329.59	82.9513	329.59	95.4587	329.59	82.302	329.59	94.8403	329.59	82.0481	329.59	94.8396	329.59	82.0415	329.59	94.842	329.59	82.2286	329.59	94.6742	329.59	82.5831	329.59	94.4563	329.59	83.0556	329.59	94.1221	329.59	83.6771	329.59	93.4304	329.59	84.6973	329.59	92.229	329.59	86.3593	329.59	90.5235	329.59	88.4576
341.309	99.3628	341.309	97.9322	341.309	100.362	341.309	96.0655	341.309	100.927	341.309	93.7737	341.309	101.047	341.309	91.1326	341.309	100.706	341.309	88.3741	341.309	99.8947	341.309	85.951	341.309	98.6258	341.309	84.3036	341.309	97.0198	341.309	83.4006	341.309	95.5382	341.309	82.8535	341.309	94.9115	341.309	82.3503	341.309	95.0515	341.309	81.803	341.309	95.1485	341.309	81.3529	341.309	94.8826	341.309	81.2666	341.309	94.4644	341.309	81.7114	341.309	94.0931	341.309	82.7799	341.309	93.6221	341.309	84.6036	341.309	92.7678	341.309	86.9853	341.309	91.3591	341.309	89.3776
353.027	99.0225	353.027	97.2558	353.027	100.269	353.027	95.0022	353.027	100.982	353.027	92.3512	353.027	101.164	353.027	89.5361	353.027	100.839	353.027	87.0364	353.027	100.04	353.027	85.3951	353.027	98.794	353.027	84.6371	353.027	97.1454	353.027	84.263	353.027	95.3563	353.027	83.8072	353.027	94.1431	353.027	83.0526	353.027	93.9249	353.027	82.0623	353.027	94.0852	353.027	81.2474	353.027	94.0805	353.027	81.0597	353.027	93.8272	353.027	81.2508	353.027	93.3155	353.027	81.2512	353.027	92.4435	353.027	81.3782	353.027	91.0473	353.027	83.0816	353.027	88.9565	353.027	86.1244
366.211	97.9923	366.211	96.3885	366.211	99.1887	366.211	94.4031	366.211	99.9672	366.211	92.137	366.211	100.311	366.211	89.8471	366.211	100.199	366.211	87.9144	366.211	99.6117	366.211	86.5459	366.211	98.5424	366.211	85.5906	366.211	97.0835	366.211	84.81	366.211	95.6486	366.211	84.0747	366.211	94.8545	366.211	83.3207	366.211	94.5302	366.211	82.5504	366.211	93.917	366.211	81.9157	366.211	92.8179	366.211	81.6016	366.211	91.6469	366.211	81.4159	366.211	90.6827	366.211	80.8065	366.211	89.6659	366.211	79.6998	366.211	88.2418	366.211	80.1097	366.211	86.1232	366.211	83.1244
379.395	97.4406	379.395	95.6637	379.395	98.7362	379.395	93.4903	379.395	99.5187	379.395	91.1287	379.395	99.7837	379.395	88.9713	379.395	99.5535	379.395	87.4426	379.395	98.8738	379.395	86.6559	379.395	97.7929	379.395	86.4399	379.395	96.3842	379.395	86.5712	379.395	94.9404	379.395	86.776	379.395	94.0899	379.395	86.7554	379.395	93.9797	379.395	86.3055	379.395	93.9327	379.395	85.4454	379.395	93.4927	379.395	84.5727	379.395	92.6113	379.395	84.2476	379.395	91.2946	379.395	84.2949	379.395	89.5025	379.395	83.9675	379.395	87.2077	379.395	83.0568	379.395	84.5809	379.395	82.7719
392.578	97.7922	392.578	96.3966	392.578	98.7679	392.578	94.6093	392.578	99.3198	392.578	92.5149	392.578	99.4664	392.578	90.3214	392.578	99.2442	392.578	88.3892	392.578	98.6826	392.578	87.046	392.578	97.7812	392.578	86.3324	392.578	96.5866	392.578	86.075	392.578	95.4123	392.578	86.0278	392.578	94.7321	392.578	85.9017	392.578	94.3418	392.578	85.4858	392.578	93.5574	392.578	84.8061	392.578	92.3017	392.578	84.168	392.578	91.2163	392.578	83.8587	392.578	90.5102	392.578	83.6823	392.578	89.5182	392.578	83.2003	392.578	87.7639	392.578	82.546	392.578	85.3173	392.578	83.0703
405.762	97.4798	405.762	95.5925	405.762	98.8737	405.762	93.3329	405.762	99.7289	405.762	90.9741	405.762	100.045	405.762	88.992	405.762	99.849	405.762	87.7776	405.762	99.1595	405.762	87.1724	405.762	97.9712	405.762	86.7247	405.762	96.3807	405.762	86.1816	405.762	94.9433	405.762	85.5422	405.762	94.4165	405.762	84.9285	405.762	94.3909	405.762	84.4914	405.762	94.0588	405.762	84.3725	405.762	93.3729	405.762	84.613	405.762	92.5158	405.762	85.0209	405.762	91.3395	405.762	85.2482	405.762	89.6811	405.762	85.0629	405.762	87.7104	405.762	84.634	405.762	85.8474	405.762	84.6976
420.41	98.0277	420.41	95.8216	420.41	99.5984	420.41	93.0223	420.41	100.546	420.41	89.8524	420.41	100.904	420.41	86.9001	420.41	100.715	420.41	84.911	420.41	99.9967	420.41	84.0795	420.41	98.7002	420.41	84.0137	420.41	96.7724	420.41	84.0555	420.41	94.6309	420.41	83.5905	420.41	93.6692	420.41	82.2819	420.41	94.0222	420.41	80.2723	420.41	94.2442	420.41	79.3158	420.41	93.9164	420.41	81.2374	420.41	93.1814	420.41	83.5037	420.41	92.0067	420.41	84.4793	420.41	90.2874	420.41	83.8989	420.41	88.0197	420.41	82.2608	420.41	85.1657	420.41	82.3405
435.059	97.1057	435.059	94.7867	435.059	98.8324	435.059	92.0551	435.059	99.9119	435.059	89.3276	435.059	100.375	435.059	87.2508	435.059	100.299	435.059	86.0477	435.059	99.7262	435.059	85.1944	435.059	98.586	435.059	84.2482	435.059	96.8039	435.059	83.2355	435.059	94.7626	435.059	82.3544	435.059	93.5955	435.059	81.507	435.059	93.2903	435.059	80.3447	435.059	92.6518	435.059	79.1422	435.059	91.6336	435.059	79.6967	435.059	90.8304	435.059	82.0007	435.059	89.9651	435.059	83.9226	435.059	88.4156	435.059	84.6844	435.059	86.1449	435.059	84.3041	435.059	83.9601	435.059	83.4719
451.172	98.3621	451.172	96.2691	451.172	99.8797	451.172	93.7418	451.172	100.817	451.172	91.2994	451.172	101.198	451.172	89.7442	451.172	101.036	451.172	89.0625	451.172	100.291	451.172	88.4697	451.172	98.8301	451.172	87.5854	451.172	96.4913	451.172	86.6097	451.172	93.8724	451.172	85.9572	451.172	93.4401	451.172	85.6391	451.172	94.3939	451.172	85.1152	451.172	94.1852	451.172	83.8041	451.172	92.7308	451.172	81.8601	451.172	91.4417	451.172	81.7729	451.172	91.017	451.172	83.9901	451.172	90.262	451.172	85.5714	451.172	88.6065	451.172	85.9251	451.172	86.6835	451.172	85.8203
465.82	97.6046	465.82	95.5835	465.82	99.2	465.82	93.6837	465.82	100.184	465.82	92.6386	465.82	100.586	465.82	92.4646	465.82	100.519	465.82	92.455	465.82	100.027	465.82	92.1208	465.82	98.985	465.82	91.4045	465.82	97.2049	465.82	90.5351	465.82	94.9412	465.82	89.782	465.82	93.6153	465.82	89.085	465.82	93.5095	465.82	88.0256	465.82	92.7877	465.82	86.3139	465.82	90.9341	465.82	84.7994	465.82	89.2866	465.82	85.529	465.82	89.1233	465.82	87.3662	465.82	89.1629	465.82	88.4425	465.82	88.4603	465.82	88.4343	465.82	87.603	465.82	87.7624
483.398	98.5545	483.398	97.1525	483.398	99.7052	483.398	95.7311	483.398	100.498	483.398	94.5827	483.398	100.881	483.398	93.7938	483.398	100.81	483.398	93.1524	483.398	100.222	483.398	92.4172	483.398	98.9965	483.398	91.5627	483.398	96.9726	483.398	90.7959	483.398	94.5093	483.398	90.27	483.398	93.6647	483.398	89.7324	483.398	94.5153	483.398	88.6751	483.398	94.6741	483.398	86.687	483.398	93.5931	483.398	83.9548	483.398	91.5586	483.398	83.1547	483.398	89.1493	483.398	85.331	483.398	87.6139	483.398	86.9362	483.398	87.0668	483.398	87.053	483.398	86.4482	483.398	86.3988
499.512	99.2853	499.512	97.56	499.512	100.637	499.512	95.7555	499.512	101.494	499.512	94.2784	499.512	101.863	499.512	93.3328	499.512	101.811	499.512	92.6904	499.512	101.323	499.512	91.9376	499.512	100.185	499.512	90.7852	499.512	97.9929	499.512	89.2522	499.512	94.6167	499.512	87.8368	499.512	92.7749	499.512	87.1518	499.512	94.1855	499.512	86.9043	499.512	94.6665	499.512	86.125	499.512	93.3878	499.512	83.9108	499.512	90.9653	499.512	81.0566	499.512	88.4605	499.512	83.5661	499.512	87.0388	499.512	86.9403	499.512	86.7693	499.512	88.2493	499.512	87.1778	499.512	87.996
517.09	98.7602	517.09	96.788	517.09	100.421	517.09	94.917	517.09	101.551	517.09	93.5656	517.09	102.067	517.09	92.6926	517.09	101.992	517.09	91.9208	517.09	101.376	517.09	91.08	517.09	100.11	517.09	90.3291	517.09	97.8171	517.09	89.8787	517.09	94.4907	517.09	89.6471	517.09	93.0284	517.09	89.3677	517.09	94.0057	517.09	88.9685	517.09	93.8727	517.09	88.5513	517.09	92.6186	517.09	87.994	517.09	91.1608	517.09	86.9781	517.09	89.1888	517.09	85.4696	517.09	86.037	517.09	83.8633	517.09	82.2444	517.09	82.3526	517.09	80.0654	517.09	80.7425
536.133	99.5797	536.133	98.8405	536.133	100.251	536.133	98.0448	536.133	100.809	536.133	97.1578	536.133	101.161	536.133	96.125	536.133	101.136	536.133	94.9208	536.133	100.551	536.133	93.5921	536.133	99.2484	536.133	92.2871	536.133	97.0701	536.133	91.1765	536.133	94.5197	536.133	90.2301	536.133	93.7478	536.133	89.3035	536.133	93.7569	536.133	88.5855	536.133	92.54	536.133	88.2527	536.133	91.1357	536.133	87.6531	536.133	90.0181	536.133	86.059	536.133	88.568	536.133	84.5892	536.133	87.8436	536.133	86.3368	536.133	88.1461	536.133	88.7017	536.133	89.0537	536.133	89.5593
555.176	99.1002	555.176	97.7959	555.176	100.089	555.176	96.4786	555.176	100.677	555.176	95.5074	555.176	100.933	555.176	94.9553	555.176	100.873	555.176	94.5589	555.176	100.329	555.176	94.0415	555.176	99.078	555.176	93.3181	555.176	96.996	555.176	92.4576	555.176	94.6645	555.176	91.4811	555.176	94.0466	555.176	90.2626	555.176	94.397	555.176	88.8709	555.176	93.7439	555.176	87.79	555.176	91.8583	555.176	87.0237	555.176	88.6942	555.176	85.8724	555.176	84.9263	555.176	84.2293	555.176	83.0187	555.176	83.6885	555.176	82.8811	555.176	84.8939	555.176	84.3561	555.176	85.4472
574.219	100.091	574.219	98.8501	574.219	101.295	574.219	97.6777	574.219	102.218	574.219	96.4819	574.219	102.689	574.219	95.2484	574.219	102.578	574.219	94.1925	574.219	101.68	574.219	93.5213	574.219	99.784	574.219	93.0936	574.219	96.7884	574.219	92.5173	574.219	93.5141	574.219	91.4752	574.219	93.3828	574.219	89.8647	574.219	94.9484	574.219	88.0488	574.219	95.3867	574.219	87.1019	574.219	94.2558	574.219	87.1882	574.219	91.6317	574.219	86.8455	574.219	88.1096	574.219	85.6506	574.219	85.4051	574.219	86.6051	574.219	85.9789	574.219	89.2175	574.219	88.5122	574.219	90.0055
594.727	99.4335	594.727	98.8679	594.727	100.227	594.727	98.1907	594.727	101.193	594.727	97.1369	594.727	102.009	594.727	95.8865	594.727	102.34	594.727	94.8861	594.727	101.83	594.727	94.2886	594.727	100.155	594.727	93.8304	594.727	96.9643	594.727	93.1307	594.727	92.0575	594.727	91.9057	594.727	90.733	594.727	90.0874	594.727	92.909	594.727	88.1592	594.727	93.0825	594.727	87.6666	594.727	91.5777	594.727	88.7074	594.727	89.0006	594.727	89.1404	594.727	85.3549	594.727	87.4398	594.727	82.3245	594.727	83.4561	594.727	82.646	594.727	84.6456	594.727	85.3568	594.727	86.7802
615.234	100.535	615.234	99.3961	615.234	101.111	615.234	97.7254	615.234	101.419	615.234	96.091	615.234	101.661	615.234	95.2	615.234	101.681	615.234	95.0234	615.234	101.204	615.234	95.049	615.234	100.065	615.234	94.6598	615.234	98.1195	615.234	93.3753	615.234	95.2916	615.234	91.4231	615.234	92.4569	615.234	90.091	615.234	91.2533	615.234	89.6405	615.234	91.5606	615.234	88.6596	615.234	91.5509	615.234	87.647	615.234	88.9393	615.234	88.269	615.234	83.1581	615.234	88.1478	615.234	80.0276	615.234	84.9679	615.234	82.1703	615.234	80.6978	615.234	83.8256	615.234	83.1965
637.207	100.101	637.207	99.2701	637.207	100.733	637.207	98.3035	637.207	101.311	637.207	97.4512	637.207	101.865	637.207	96.8283	637.207	102.057	637.207	96.1845	637.207	101.469	637.207	95.2444	637.207	99.8288	637.207	94.0816	637.207	97.0274	637.207	93.0277	637.207	94.2067	637.207	92.2318	637.207	93.554	637.207	91.4595	637.207	93.0388	637.207	90.3701	637.207	92.3367	637.207	88.6108	637.207	92.2932	637.207	85.8505	637.207	91.6468	637.207	83.4036	637.207	89.8956	637.207	84.5323	637.207	87.5475	637.207	86.298	637.207	86.1716	637.207	86.8787	637.207	86.3174	637.207	86.7356
659.18	98.6649	659.18	97.8924	659.18	99.9209	659.18	97.573	659.18	101.245	659.18	97.3439	659.18	102.11	659.18	96.8993	659.18	102.248	659.18	96.1739	659.18	101.55	659.18	95.2773	659.18	99.7874	659.18	94.416	659.18	96.8085	659.18	93.8461	659.18	93.6018	659.18	93.5521	659.18	92.221	659.18	92.949	659.18	91.9215	659.18	91.3841	659.18	93.0522	659.18	88.9065	659.18	93.9254	659.18	87.3273	659.18	92.3896	659.18	87.7413	659.18	87.2021	659.18	86.9289	659.18	74.7533	659.18	82.955	659.18	66.5605	659.18	82.4172	659.18	78.928	659.18	83.5947
682.617	99.0105	682.617	98.7846	682.617	99.0412	682.617	98.1145	682.617	99.3964	682.617	97.2792	682.617	100.12	682.617	96.4916	682.617	100.721	682.617	95.5947	682.617	100.645	682.617	94.6597	682.617	99.3424	682.617	93.8764	682.617	96.3916	682.617	92.9665	682.617	92.6356	682.617	91.8218	682.617	91.0473	682.617	91.2154	682.617	89.4712	682.617	91.124	682.617	89.5179	682.617	90.142	682.617	92.3131	682.617	88.0157	682.617	91.1307	682.617	87.8374	682.617	86.365	682.617	89.2566	682.617	83.6715	682.617	87.6377	682.617	85.6823	682.617	82.0482	682.617	86.7672	682.617	84.5222
707.52	97.1532	707.52	96.3873	707.52	98.1645	707.52	96.5459	707.52	98.7629	707.52	97.1554	707.52	99.1133	707.52	97.2423	707.52	99.4323	707.52	96.3071	707.52	99.4273	707.52	94.4457	707.52	98.5531	707.52	92.1137	707.52	96.2654	707.52	90.1303	707.52	92.8758	707.52	89.3184	707.52	90.8422	707.52	88.6803	707.52	88.822	707.52	87.3115	707.52	84.8014	707.52	86.2471	707.52	79.475	707.52	85.4512	707.52	80.3501	707.52	83.8829	707.52	81.8079	707.52	84.4459	707.52	83.5762	707.52	86.3668	707.52	69.1499	707.52	85.647	707.52	83.0837	707.52	85.2353
732.422	97.301	732.422	97.3826	732.422	97.5885	732.422	97.2675	732.422	98.7591	732.422	96.9272	732.422	100.036	732.422	96.3768	732.422	100.591	732.422	95.5915	732.422	100.377	732.422	94.7756	732.422	99.1928	732.422	94.2177	732.422	96.4598	732.422	93.698	732.422	92.3117	732.422	92.8568	732.422	90.125	732.422	92.0185	732.422	90.5378	732.422	91.3259	732.422	90.4442	732.422	90.163	732.422	91.5938	732.422	87.828	732.422	90.9323	732.422	83.7236	732.422	83.781	732.422	83.1184	732.422	70.1246	732.422	83.2833	732.422	75.6683	732.422	77.8283	732.422	80.9142	732.422	77.8381
757.324	97.8438	757.324	97.7006	757.324	98.1422	757.324	97.5431	757.324	98.6962	757.324	97.2103	757.324	99.5426	757.324	96.6996	757.324	100.316	757.324	96.2816	757.324	100.304	757.324	95.82	757.324	98.9427	757.324	94.6874	757.324	96.1225	757.324	92.7336	757.324	93.1062	757.324	91.0667	757.324	90.8776	757.324	90.4631	757.324	85.507	757.324	89.9029	757.324	86.7126	757.324	89.778	757.324	89.1858	757.324	90.2133	757.324	89.5816	757.324	89.3755	757.324	89.0441	757.324	87.7349	757.324	86.4743	757.324	86.9323	757.324	81.3127	757.324	84.8178	757.324	80.9177	757.324	80.4311
785.156	99.2951	785.156	98.1024	785.156	99.4926	785.156	97.795	785.156	98.7187	785.156	98.337	785.156	99.0249	785.156	98.3983	785.156	100.37	785.156	97.577	785.156	100.695	785.156	95.8604	785.156	99.4208	785.156	93.9248	785.156	96.7763	785.156	92.6594	785.156	93.5128	785.156	91.8037	785.156	91.3942	785.156	91.4055	785.156	90.3623	785.156	91.4901	785.156	87.6911	785.156	91.7096	785.156	85.589	785.156	91.4514	785.156	82.7939	785.156	88.9273	785.156	77.9954	785.156	85.5527	785.156	79.0126	785.156	87.3807	785.156	85.8084	785.156	82.4907	785.156	79.8083	785.156	43.2476
811.523	99.2502	811.523	98.5586	811.523	100.255	811.523	98.3824	811.523	101.275	811.523	98.5148	811.523	102.036	811.523	98.6876	811.523	102.391	811.523	98.5514	811.523	102.023	811.523	97.6761	811.523	100.166	811.523	96.4643	811.523	96.2712	811.523	95.7305	811.523	92.7653	811.523	95.5818	811.523	92.1954	811.523	95.5929	811.523	90.0111	811.523	94.8387	811.523	83.788	811.523	93.7052	811.523	92.007	811.523	93.5596	811.523	93.1709	811.523	91.8127	811.523	86.7426	811.523	88.7	811.523	89.4446	811.523	80.9701	811.523	82.0789	811.523	69.3735	811.523	81.9914	811.523	79.088
840.82	98.326	840.82	98.8987	840.82	99.0464	840.82	98.9183	840.82	100.508	840.82	98.0859	840.82	101.164	840.82	97.3439	840.82	101.043	840.82	97.2583	840.82	100.354	840.82	97.1507	840.82	98.5194	840.82	95.8124	840.82	94.8461	840.82	92.2794	840.82	89.1672	840.82	85.7715	840.82	89.0473	840.82	80.124	840.82	93.9271	840.82	81.0632	840.82	92.571	840.82	81.415	840.82	76.6315	840.82	84.0643	840.82	87.6109	840.82	88.7693	840.82	88.1814	840.82	89.0677	840.82	89.8615	840.82	83.8885	840.82	86.0228	840.82	87.9606	840.82	81.7715	840.82	81.7384
870.117	99.8049	870.117	99.7543	870.117	99.1024	870.117	98.3492	870.117	100.025	870.117	97.8826	870.117	101.552	870.117	99.2544	870.117	102.195	870.117	99.492	870.117	101.237	870.117	97.6397	870.117	98.2261	870.117	93.9178	870.117	94.6617	870.117	90.3353	870.117	93.3864	870.117	89.228	870.117	93.53	870.117	90.7205	870.117	94.1343	870.117	93.0084	870.117	92.5242	870.117	93.2534	870.117	83.6304	870.117	92.8277	870.117	68.9277	870.117	93.2035	870.117	84.1152	870.117	90.2258	870.117	85.9294	870.117	83.5515	870.117	79.5262	870.117	83.6836	870.117	74.6765	870.117	82.542
900.879	99.0284	900.879	96.6135	900.879	101.061	900.879	96.9955	900.879	100.852	900.879	97.7489	900.879	99.628	900.879	97.1914	900.879	99.4823	900.879	95.877	900.879	99.7585	900.879	95.4474	900.879	98.1039	900.879	95.869	900.879	93.4824	900.879	95.5668	900.879	88.9075	900.879	93.4286	900.879	86.6383	900.879	89.3307	900.879	90.6018	900.879	84.2852	900.879	94.262	900.879	83.0262	900.879	91.9789	900.879	81.7946	900.879	81.1254	900.879	82.6708	900.879	74.5041	900.879	84.7968	900.879	83.8137	900.879	84.2485	900.879	85.7841	900.879	82.4882	900.879	77.4413	900.879	78.8943
933.105	97.7422	933.105	97.3229	933.105	98.582	933.105	95.8511	933.105	99.7495	933.105	94.8347	933.105	99.2767	933.105	95.9973	933.105	98.2726	933.105	96.4648	933.105	97.4948	933.105	94.9277	933.105	95.4197	933.105	91.9336	933.105	90.5417	933.105	88.9921	933.105	84.1025	933.105	89.1474	933.105	88.8446	933.105	90.1092	933.105	89.8837	933.105	88.7269	933.105	80.8462	933.105	87.828	933.105	81.913	933.105	89.06	933.105	77.8795	933.105	88.4302	933.105	78.7706	933.105	85.6927	933.105	85.2806	933.105	82.5661	933.105	81.4966	933.105	81.6296	933.105	67.0181	933.105	78.2841
965.332	98.0321	965.332	95.7061	965.332	99.8447	965.332	94.4173	965.332	99.8642	965.332	94.4837	965.332	98.6054	965.332	93.9595	965.332	98.3074	965.332	93.3672	965.332	98.3156	965.332	93.738	965.332	96.2188	965.332	94.1592	965.332	92.7475	965.332	93.4794	965.332	88.8964	965.332	91.4388	965.332	84.366	965.332	89.5708	965.332	84.5051	965.332	89.9351	965.332	86.6822	965.332	88.1524	965.332	80.7727	965.332	82.9738	965.332	59.1564	965.332	87.3672	965.332	59.5485	965.332	86.7956	965.332	76.2028	965.332	82.5762	965.332	77.2476	965.332	82.2168	965.332	78.6044	965.332	61.2015
1,000.49	97.5766	1,000.49	94.6914	1,000.49	99.5616	1,000.49	91.344	1,000.49	100.257	1,000.49	91.3074	1,000.49	98.8451	1,000.49	92.9584	1,000.49	95.6934	1,000.49	92.9545	1,000.49	93.2735	1,000.49	90.9977	1,000.49	92.8962	1,000.49	87.3958	1,000.49	91.5357	1,000.49	88.1905	1,000.49	87.931	1,000.49	90.2594	1,000.49	81.9985	1,000.49	89.2408	1,000.49	86.6553	1,000.49	85.9419	1,000.49	84.052	1,000.49	85.0725	1,000.49	83.8504	1,000.49	84.9691	1,000.49	79.674	1,000.49	84.6057	1,000.49	76.2271	1,000.49	86.8453	1,000.49	80.4319	1,000.49	79.4204	1,000.49	77.701	1,000.49	80.1524	1,000.49	80.3377	1,000.49	54.3256
1,035.64	97.8701	1,035.64	95.3832	1,035.64	99.1739	1,035.64	89.7031	1,035.64	99.1836	1,035.64	83.3646	1,035.64	97.675	1,035.64	88.5437	1,035.64	95.8322	1,035.64	90.6552	1,035.64	94.3329	1,035.64	91.1816	1,035.64	91.4754	1,035.64	90.1682	1,035.64	88.3703	1,035.64	87.44	1,035.64	86.5882	1,035.64	85.3711	1,035.64	85.4476	1,035.64	85.133	1,035.64	85.5955	1,035.64	86.328	1,035.64	84.4205	1,035.64	88.6647	1,035.64	82.2135	1,035.64	88.0769	1,035.64	81.0769	1,035.64	85.9981	1,035.64	72.7555	1,035.64	84.9936	1,035.64	77.7933	1,035.64	82.219	1,035.64	76.5692	1,035.64	69.3233	1,035.64	66.708	1,035.64	60.4387
1,072.27	99.4894	1,072.27	96.5907	1,072.27	100.01	1,072.27	90.4075	1,072.27	98.6013	1,072.27	74.4691	1,072.27	95.4395	1,072.27	84.0637	1,072.27	92.6593	1,072.27	89.7816	1,072.27	92.6683	1,072.27	90.7913	1,072.27	91.3278	1,072.27	89.5438	1,072.27	86.5836	1,072.27	87.9743	1,072.27	81.5676	1,072.27	87.3295	1,072.27	79.7499	1,072.27	89.242	1,072.27	78.0091	1,072.27	88.9352	1,072.27	86.7659	1,072.27	84.038	1,072.27	83.6686	1,072.27	83.6413	1,072.27	83.3088	1,072.27	80.3186	1,072.27	77.8681	1,072.27	80.8451	1,072.27	60.2105	1,072.27	75.2251	1,072.27	78.2553	1,072.27	68.7893	1,072.27	76.6047	1,072.27	70.0322
1,108.89	99.5792	1,108.89	96.8596	1,108.89	99.8562	1,108.89	92.7937	1,108.89	98.4758	1,108.89	85.8819	1,108.89	97.1753	1,108.89	83.1787	1,108.89	94.7106	1,108.89	88.8313	1,108.89	91.341	1,108.89	90.6409	1,108.89	90.2492	1,108.89	91.0571	1,108.89	87.3529	1,108.89	90.0865	1,108.89	81.3985	1,108.89	87.6558	1,108.89	75.476	1,108.89	83.0919	1,108.89	77.9527	1,108.89	80.1494	1,108.89	77.4669	1,108.89	82.8091	1,108.89	66.4163	1,108.89	85.0121	1,108.89	72.496	1,108.89	88.4061	1,108.89	73.3301	1,108.89	84.6043	1,108.89	77.4279	1,108.89	80.7222	1,108.89	77.3856	1,108.89	73.3081	1,108.89	74.9489	1,108.89	77.3962
1,148.44	99.294	1,148.44	98.8826	1,148.44	97.5444	1,148.44	95.0547	1,148.44	95.8593	1,148.44	90.9332	1,148.44	93.9874	1,148.44	89.1572	1,148.44	91.2567	1,148.44	88.9841	1,148.44	89.5559	1,148.44	90.1329	1,148.44	88.298	1,148.44	88.4806	1,148.44	88.286	1,148.44	86.4046	1,148.44	86.6245	1,148.44	87.5683	1,148.44	81.6689	1,148.44	89.7592	1,148.44	78.1957	1,148.44	88.571	1,148.44	82.4771	1,148.44	88.9792	1,148.44	84.9018	1,148.44	88.3096	1,148.44	84.9275	1,148.44	83.0186	1,148.44	78.846	1,148.44	81.6835	1,148.44	72.5773	1,148.44	78.6954	1,148.44	79.7348	1,148.44	76.3014	1,148.44	79.242	1,148.44	79.2314
1,189.45	99.0828	1,189.45	99.3475	1,189.45	97.5766	1,189.45	97.3243	1,189.45	95.0847	1,189.45	93.3845	1,189.45	94.0749	1,189.45	90.3321	1,189.45	94.116	1,189.45	91.5838	1,189.45	91.0467	1,189.45	91.3045	1,189.45	90.9726	1,189.45	90.8678	1,189.45	90.5614	1,189.45	91.7038	1,189.45	88.4386	1,189.45	89.9315	1,189.45	85.1939	1,189.45	87.9144	1,189.45	77.0739	1,189.45	87.6022	1,189.45	43.1594	1,189.45	87.2171	1,189.45	60.784	1,189.45	88.3527	1,189.45	68.1821	1,189.45	87.4659	1,189.45	73.1314	1,189.45	88.4926	1,189.45	75.4627	1,189.45	81.6289	1,189.45	80.469	1,189.45	81.3649	1,189.45	71.3731	1,189.45	74.9962
1,230.47	99.8224	1,230.47	101.248	1,230.47	96.4385	1,230.47	98.9956	1,230.47	94.7169	1,230.47	93.361	1,230.47	94.9189	1,230.47	90.7276	1,230.47	93.0389	1,230.47	92.1915	1,230.47	93.5907	1,230.47	93.2632	1,230.47	95.0828	1,230.47	92.6302	1,230.47	92.2417	1,230.47	89.4779	1,230.47	89.7866	1,230.47	87.7723	1,230.47	87.899	1,230.47	83.1493	1,230.47	83.4125	1,230.47	83.3796	1,230.47	63.3843	1,230.47	82.3748	1,230.47	82.2275	1,230.47	87.4661	1,230.47	83.0566	1,230.47	88.198	1,230.47	76.4448	1,230.47	81.9121	1,230.47	78.1582	1,230.47	78.5943	1,230.47	84.9302	1,230.47	77.1073	1,230.47	84.0155	1,230.47	82.0457
1,274.41	100.6	1,274.41	101.47	1,274.41	96.7757	1,274.41	98.3798	1,274.41	94.8344	1,274.41	94.8565	1,274.41	95.6188	1,274.41	94.5283	1,274.41	93.8536	1,274.41	93.8502	1,274.41	93.1754	1,274.41	92.1345	1,274.41	97.355	1,274.41	88.3855	1,274.41	95.6928	1,274.41	92.2287	1,274.41	87.5829	1,274.41	92.7881	1,274.41	85.9307	1,274.41	88.3827	1,274.41	83.5663	1,274.41	88.5847	1,274.41	80.6273	1,274.41	87.5117	1,274.41	77.9687	1,274.41	88.1332	1,274.41	71.2538	1,274.41	87.7036	1,274.41	81.0669	1,274.41	86.8941	1,274.41	70.8083	1,274.41	87.1621	1,274.41	70.5463	1,274.41	85.7315	1,274.41	75.239	1,274.41	75.523
1,319.82	100.274	1,319.82	101.135	1,319.82	96.4736	1,319.82	99.0435	1,319.82	96.1673	1,319.82	96.1527	1,319.82	95.2342	1,319.82	94.605	1,319.82	92.2924	1,319.82	94.5666	1,319.82	95.2545	1,319.82	92.2626	1,319.82	96.9816	1,319.82	91.764	1,319.82	94.2561	1,319.82	87.9012	1,319.82	90.3758	1,319.82	73.5685	1,319.82	92.4095	1,319.82	78.6196	1,319.82	86.039	1,319.82	82.3768	1,319.82	85.8423	1,319.82	87.4624	1,319.82	81.6565	1,319.82	86.8056	1,319.82	80.3097	1,319.82	86.9502	1,319.82	84.0829	1,319.82	85.9336	1,319.82	81.2347	1,319.82	88.8456	1,319.82	86.622	1,319.82	80.2506	1,319.82	80.598	1,319.82	72.4091
1,366.7	99.3449	1,366.7	101.005	1,366.7	96.9642	1,366.7	99.9407	1,366.7	96.8582	1,366.7	96.619	1,366.7	93.6608	1,366.7	95.9975	1,366.7	93.0294	1,366.7	94.5001	1,366.7	95.9007	1,366.7	93.2952	1,366.7	98.3462	1,366.7	93.8889	1,366.7	97.8712	1,366.7	94.5501	1,366.7	88.786	1,366.7	93.979	1,366.7	90.4699	1,366.7	92.8459	1,366.7	86.2174	1,366.7	93.2277	1,366.7	79.5784	1,366.7	89.4812	1,366.7	83.9885	1,366.7	89.8189	1,366.7	81.8095	1,366.7	88.5255	1,366.7	82.8045	1,366.7	84.8998	1,366.7	83.6342	1,366.7	84.6378	1,366.7	79.7777	1,366.7	85.9794	1,366.7	82.6569	1,366.7	86.7405
1,413.57	100.625	1,413.57	100.445	1,413.57	97.3104	1,413.57	98.91	1,413.57	95.0825	1,413.57	97.1918	1,413.57	95.0997	1,413.57	97.6337	1,413.57	95.2296	1,413.57	95.6201	1,413.57	95.8196	1,413.57	89.2509	1,413.57	97.0996	1,413.57	93.2611	1,413.57	94.9012	1,413.57	94.4984	1,413.57	89.6457	1,413.57	87.439	1,413.57	85.2482	1,413.57	64.285	1,413.57	81.4823	1,413.57	82.9071	1,413.57	78.9707	1,413.57	75.557	1,413.57	85.2456	1,413.57	80.6727	1,413.57	80.5803	1,413.57	89.0837	1,413.57	85.0808	1,413.57	89.8935	1,413.57	83.2191	1,413.57	84.4738	1,413.57	85.0219	1,413.57	83.7915	1,413.57	71.9491	1,413.57	85.1966
1,463.38	99.3576	1,463.38	99.9472	1,463.38	98.9094	1,463.38	99.3535	1,463.38	97.3277	1,463.38	98.196	1,463.38	93.7719	1,463.38	97.469	1,463.38	92.6544	1,463.38	96.2204	1,463.38	97.1851	1,463.38	96.9412	1,463.38	99.7488	1,463.38	95.9848	1,463.38	97.5951	1,463.38	90.8597	1,463.38	89.9277	1,463.38	91.0168	1,463.38	82.695	1,463.38	86.9971	1,463.38	85.9735	1,463.38	86.5959	1,463.38	79.6033	1,463.38	87.5272	1,463.38	86.2428	1,463.38	89.4782	1,463.38	77.5212	1,463.38	85.2767	1,463.38	86.5022	1,463.38	89.7716	1,463.38	68.8497	1,463.38	87.6299	1,463.38	75.5802	1,463.38	85.4403	1,463.38	87.1343	1,463.38	78.3516
1,516.11	99.7244	1,516.11	99.8495	1,516.11	96.1199	1,516.11	97.3516	1,516.11	98.6411	1,516.11	96.9266	1,516.11	98.1029	1,516.11	98.5355	1,516.11	97.6323	1,516.11	99.5773	1,516.11	99.7261	1,516.11	96.9055	1,516.11	100.098	1,516.11	94.0548	1,516.11	97.3316	1,516.11	95.6642	1,516.11	90.7409	1,516.11	91.5314	1,516.11	84.9722	1,516.11	87.2931	1,516.11	89.279	1,516.11	91.1328	1,516.11	79.9945	1,516.11	86.9944	1,516.11	82.0338	1,516.11	85.9428	1,516.11	84.0538	1,516.11	89.6128	1,516.11	86.5676	1,516.11	92.8135	1,516.11	83.1038	1,516.11	91.4527	1,516.11	81.662	1,516.11	88.8243	1,516.11	76.7428	1,516.11	73.8446
1,568.85	98.2265	1,568.85	98.6283	1,568.85	96.0702	1,568.85	97.7741	1,568.85	96.044	1,568.85	97.2871	1,568.85	97.4856	1,568.85	97.331	1,568.85	95.9534	1,568.85	96.172	1,568.85	98.3351	1,568.85	95.9083	1,568.85	100.157	1,568.85	95.769	1,568.85	97.9537	1,568.85	94.8651	1,568.85	94.0865	1,568.85	95.246	1,568.85	82.5404	1,568.85	93.5042	1,568.85	86.1527	1,568.85	91.7324	1,568.85	74.5014	1,568.85	89.701	1,568.85	80.5183	1,568.85	85.108	1,568.85	85.4237	1,568.85	76.6817	1,568.85	83.6057	1,568.85	83.7977	1,568.85	82.5809	1,568.85	85.3549	1,568.85	82.2506	1,568.85	84.3923	1,568.85	79.5085	1,568.85	80.5327
1,624.51	97.6893	1,624.51	98.0088	1,624.51	96.0821	1,624.51	97.5102	1,624.51	95.6352	1,624.51	96.2277	1,624.51	97.3053	1,624.51	96.0921	1,624.51	96.9481	1,624.51	97.8473	1,624.51	98.243	1,624.51	97.239	1,624.51	98.6786	1,624.51	93.8674	1,624.51	98.2145	1,624.51	92.6839	1,624.51	91.565	1,624.51	89.1932	1,624.51	88.3975	1,624.51	93.9298	1,624.51	87.2434	1,624.51	90.5063	1,624.51	78.7042	1,624.51	83.5939	1,624.51	71.9735	1,624.51	87.4723	1,624.51	82.0426	1,624.51	86.2006	1,624.51	86.7266	1,624.51	85.4435	1,624.51	82.506	1,624.51	84.2152	1,624.51	75.1986	1,624.51	79.9397	1,624.51	80.1176	1,624.51	81.4627
1,681.64	97.9771	1,681.64	98.0326	1,681.64	97.3891	1,681.64	98.4072	1,681.64	96.5637	1,681.64	97.5642	1,681.64	97.5989	1,681.64	97.9313	1,681.64	98.8277	1,681.64	97.4702	1,681.64	97.3054	1,681.64	97.035	1,681.64	100.981	1,681.64	96.0649	1,681.64	98.1867	1,681.64	93.6704	1,681.64	93.1361	1,681.64	92.6522	1,681.64	85.67	1,681.64	83.1555	1,681.64	79.6655	1,681.64	76.6589	1,681.64	86.3748	1,681.64	89.4138	1,681.64	82.7939	1,681.64	86.8441	1,681.64	84.4986	1,681.64	85.8121	1,681.64	82.7269	1,681.64	88.9597	1,681.64	70.1486	1,681.64	88.531	1,681.64	79.0794	1,681.64	82.1977	1,681.64	82.1207	1,681.64	72.0706
1,741.7	98.9825	1,741.7	98.7943	1,741.7	97.7086	1,741.7	98.1335	1,741.7	95.4052	1,741.7	97.2892	1,741.7	98.9355	1,741.7	96.9751	1,741.7	99.7122	1,741.7	97.5357	1,741.7	99.005	1,741.7	97.2715	1,741.7	99.0166	1,741.7	94.4281	1,741.7	100.103	1,741.7	92.1483	1,741.7	95.484	1,741.7	92.9992	1,741.7	86.5881	1,741.7	90.4931	1,741.7	83.9148	1,741.7	91.1361	1,741.7	82.2682	1,741.7	83.4125	1,741.7	67.8182	1,741.7	85.7469	1,741.7	80.0264	1,741.7	85.1499	1,741.7	76.9872	1,741.7	79.1981	1,741.7	78.7037	1,741.7	79.3095	1,741.7	76.6791	1,741.7	86.3456	1,741.7	72.1719	1,741.7	84.1139
1,803.22	98.19	1,803.22	98.4129	1,803.22	99.6544	1,803.22	99.2095	1,803.22	96.634	1,803.22	97.739	1,803.22	97.6758	1,803.22	96.8404	1,803.22	99.9545	1,803.22	96.7058	1,803.22	97.3125	1,803.22	96.4701	1,803.22	100.104	1,803.22	95.5695	1,803.22	100.176	1,803.22	93.0146	1,803.22	92.1629	1,803.22	90.8024	1,803.22	89.4222	1,803.22	91.0413	1,803.22	80.6208	1,803.22	85.096	1,803.22	84.2432	1,803.22	85.6311	1,803.22	77.6489	1,803.22	82.9394	1,803.22	75.1888	1,803.22	86.3762	1,803.22	79.1088	1,803.22	86.226	1,803.22	80.3615	1,803.22	88.0647	1,803.22	79.2032	1,803.22	81.1013	1,803.22	77.4578	1,803.22	67.9475
1,866.21	98.1135	1,866.21	97.5201	1,866.21	100.24	1,866.21	98.836	1,866.21	97.831	1,866.21	98.8749	1,866.21	98.1939	1,866.21	99.2733	1,866.21	99.5934	1,866.21	97.2767	1,866.21	98.1672	1,866.21	95.7992	1,866.21	99.1556	1,866.21	94.7459	1,866.21	98.7417	1,866.21	93.4498	1,866.21	95.1473	1,866.21	92.6364	1,866.21	78.1954	1,866.21	89.7619	1,866.21	82.1873	1,866.21	86.888	1,866.21	78.3763	1,866.21	86.3223	1,866.21	83.3442	1,866.21	82.5906	1,866.21	68.7724	1,866.21	85.6372	1,866.21	71.4015	1,866.21	85.0088	1,866.21	80.7581	1,866.21	82.2749	1,866.21	77.5405	1,866.21	84.1498	1,866.21	76.4059	1,866.21	74.3355
1,932.13	97.566	1,932.13	96.9062	1,932.13	99.44	1,932.13	97.3681	1,932.13	98.6139	1,932.13	98.6323	1,932.13	96.8649	1,932.13	98.8138	1,932.13	99.2163	1,932.13	96.9663	1,932.13	98.0331	1,932.13	95.9268	1,932.13	98.8111	1,932.13	93.8994	1,932.13	99.3661	1,932.13	92.5891	1,932.13	88.7762	1,932.13	89.2446	1,932.13	90.5666	1,932.13	88.002	1,932.13	75.729	1,932.13	82.9861	1,932.13	79.8702	1,932.13	81.6705	1,932.13	64.7075	1,932.13	86.5504	1,932.13	69.2563	1,932.13	85.5119	1,932.13	79.9835	1,932.13	83.9326	1,932.13	79.5286	1,932.13	72.2966	1,932.13	83.3223	1,932.13	75.3352	1,932.13	79.9187	1,932.13	80.6311
1,999.51	97.2242	1,999.51	97.2191	1,999.51	99.2938	1,999.51	96.9799	1,999.51	99.7929	1,999.51	97.4021	1,999.51	97.2386	1,999.51	98.4922	1,999.51	98.2477	1,999.51	97.6252	1,999.51	98.6572	1,999.51	95.6876	1,999.51	98.4918	1,999.51	95.2312	1,999.51	95.2422	1,999.51	92.9224	1,999.51	93.4753	1,999.51	92.7889	1,999.51	83.402	1,999.51	90.2224	1,999.51	68.5325	1,999.51	88.1777	1,999.51	79.2561	1,999.51	84.8036	1,999.51	82.2411	1,999.51	82.8586	1,999.51	70.0986	1,999.51	86.1803	1,999.51	73.2554	1,999.51	86.1308	1,999.51	78.3318	1,999.51	84.8788	1,999.51	76.7283	1,999.51	84.3132	1,999.51	73.506	1,999.51	80.5194
2,069.82	97.9313	2,069.82	97.0062	2,069.82	99.2502	2,069.82	97.7998	2,069.82	99.2111	2,069.82	97.9136	2,069.82	99.2625	2,069.82	97.8082	2,069.82	97.2038	2,069.82	98.096	2,069.82	98.5198	2,069.82	96.4788	2,069.82	98.9089	2,069.82	93.9263	2,069.82	98.2244	2,069.82	92.0897	2,069.82	87.1177	2,069.82	90.3555	2,069.82	89.3967	2,069.82	87.3674	2,069.82	67.825	2,069.82	86.7268	2,069.82	62.063	2,069.82	87.5924	2,069.82	72.7292	2,069.82	85.6232	2,069.82	76.1133	2,069.82	85.1291	2,069.82	74.5162	2,069.82	86.0578	2,069.82	78.7192	2,069.82	81.5299	2,069.82	81.6307	2,069.82	80.4338	2,069.82	73.4286	2,069.82	73.1575
2,143.07	98.6033	2,143.07	98.102	2,143.07	99.923	2,143.07	97.6235	2,143.07	98.5835	2,143.07	96.5816	2,143.07	98.4147	2,143.07	96.7072	2,143.07	97.7711	2,143.07	97.3895	2,143.07	97.626	2,143.07	96.3049	2,143.07	100.42	2,143.07	94.6097	2,143.07	96.1579	2,143.07	92.4575	2,143.07	94.8447	2,143.07	90.389	2,143.07	88.1381	2,143.07	87.8135	2,143.07	83.2591	2,143.07	86.5381	2,143.07	78.0904	2,143.07	81.0699	2,143.07	82.2819	2,143.07	82.2733	2,143.07	77.1501	2,143.07	85.7693	2,143.07	68.7327	2,143.07	83.0565	2,143.07	78.7189	2,143.07	79.1032	2,143.07	76.2531	2,143.07	71.4933	2,143.07	82.9844	2,143.07	75.4105
2,219.24	97.9238	2,219.24	97.1773	2,219.24	99.7889	2,219.24	97.0806	2,219.24	98.7466	2,219.24	95.972	2,219.24	96.8789	2,219.24	95.5808	2,219.24	97.3134	2,219.24	95.9917	2,219.24	96.7057	2,219.24	96.2263	2,219.24	98.8526	2,219.24	94.1326	2,219.24	96.1918	2,219.24	92.1072	2,219.24	88.2628	2,219.24	91.7223	2,219.24	91.2253	2,219.24	90.548	2,219.24	84.0596	2,219.24	85.9855	2,219.24	67.3634	2,219.24	82.2834	2,219.24	71.8527	2,219.24	81.8165	2,219.24	81.738	2,219.24	83.0633	2,219.24	76.4169	2,219.24	85.551	2,219.24	79.9232	2,219.24	70.1735	2,219.24	79.8161	2,219.24	79.8805	2,219.24	70.7204	2,219.24	75.4879
2,296.88	97.9239	2,296.88	96.2947	2,296.88	99.9607	2,296.88	97.8056	2,296.88	100.732	2,296.88	97.6745	2,296.88	96.635	2,296.88	97.4492	2,296.88	97.4301	2,296.88	96.2848	2,296.88	95.7118	2,296.88	96.2189	2,296.88	97.2774	2,296.88	95.0838	2,296.88	96.8427	2,296.88	92.9325	2,296.88	94.6616	2,296.88	87.8847	2,296.88	84.9184	2,296.88	84.3789	2,296.88	84.0464	2,296.88	79.0026	2,296.88	79.2552	2,296.88	82.8071	2,296.88	84.0978	2,296.88	81.0677	2,296.88	78.74	2,296.88	85.7803	2,296.88	65.6269	2,296.88	83.4445	2,296.88	78.6236	2,296.88	76.5268	2,296.88	81.0485	2,296.88	78.7207	2,296.88	78.8048	2,296.88	75.3183
2,378.91	98.1998	2,378.91	97.4517	2,378.91	99.847	2,378.91	97.2531	2,378.91	101.865	2,378.91	97.5317	2,378.91	98.214	2,378.91	98.3619	2,378.91	98.027	2,378.91	97.773	2,378.91	96.8194	2,378.91	97.0754	2,378.91	98.8476	2,378.91	95.7771	2,378.91	97.5494	2,378.91	90.3912	2,378.91	94.696	2,378.91	88.3821	2,378.91	90.7059	2,378.91	88.0158	2,378.91	81.5184	2,378.91	83.7678	2,378.91	74.9943	2,378.91	83.4575	2,378.91	80.7659	2,378.91	82.8732	2,378.91	79.0416	2,378.91	81.8426	2,378.91	76.0808	2,378.91	84.3108	2,378.91	77.5221	2,378.91	81.2936	2,378.91	82.7188	2,378.91	79.6925	2,378.91	80.8531	2,378.91	77.6629
2,462.4	99.6566	2,462.4	99.9636	2,462.4	98.9559	2,462.4	99.2059	2,462.4	101.301	2,462.4	98.2678	2,462.4	99.1151	2,462.4	98.8572	2,462.4	96.9634	2,462.4	98.5557	2,462.4	97.9566	2,462.4	95.9397	2,462.4	97.7166	2,462.4	93.4	2,462.4	99.0182	2,462.4	92.676	2,462.4	93.4102	2,462.4	90.7086	2,462.4	88.7659	2,462.4	80.614	2,462.4	84.7184	2,462.4	85.6457	2,462.4	76.012	2,462.4	83.2166	2,462.4	81.0832	2,462.4	78.1342	2,462.4	77.3646	2,462.4	81.6906	2,462.4	76.1756	2,462.4	81.5088	2,462.4	82.0189	2,462.4	79.655	2,462.4	81.7501	2,462.4	81.8724	2,462.4	80.6033	2,462.4	81.8512
2,548.83	101.358	2,548.83	100.379	2,548.83	100.083	2,548.83	99.6623	2,548.83	99.9604	2,548.83	98.2729	2,548.83	98.8896	2,548.83	98.3406	2,548.83	97.8576	2,548.83	99.0863	2,548.83	96.5892	2,548.83	95.7329	2,548.83	97.7322	2,548.83	92.767	2,548.83	97.6774	2,548.83	89.7931	2,548.83	96.5992	2,548.83	88.6866	2,548.83	87.2216	2,548.83	85.7099	2,548.83	85.4246	2,548.83	83.8599	2,548.83	76.6292	2,548.83	76.4104	2,548.83	78.863	2,548.83	82.5333	2,548.83	81.934	2,548.83	79.4284	2,548.83	77.0848	2,548.83	77.3544	2,548.83	80.533	2,548.83	78.5773	2,548.83	82.0139	2,548.83	80.7879	2,548.83	77.3782	2,548.83	74.6172
2,639.65	100.916	2,639.65	100.105	2,639.65	101.179	2,639.65	100.163	2,639.65	100.842	2,639.65	99.2159	2,639.65	98.0834	2,639.65	98.8736	2,639.65	97.7943	2,639.65	98.1085	2,639.65	97.7027	2,639.65	96.0421	2,639.65	97.0758	2,639.65	93.2994	2,639.65	99.1971	2,639.65	91.8399	2,639.65	93.636	2,639.65	92.3036	2,639.65	88.5132	2,639.65	87.1047	2,639.65	82.6971	2,639.65	86.1406	2,639.65	79.5352	2,639.65	78.5732	2,639.65	85.1335	2,639.65	82.2661	2,639.65	82.3145	2,639.65	79.097	2,639.65	64.7307	2,639.65	74.8304	2,639.65	78.9024	2,639.65	79.9463	2,639.65	83.3856	2,639.65	80.6909	2,639.65	83.1101	2,639.65	84.1313
2,731.93	99.2919	2,731.93	98.7029	2,731.93	100	2,731.93	97.7541	2,731.93	100.88	2,731.93	98.4549	2,731.93	98.1792	2,731.93	97.8494	2,731.93	96.6223	2,731.93	96.0706	2,731.93	97.6097	2,731.93	95.8914	2,731.93	97.55	2,731.93	94.0713	2,731.93	98.0392	2,731.93	90.6969	2,731.93	91.2716	2,731.93	85.8647	2,731.93	86.7585	2,731.93	89.9112	2,731.93	86.7616	2,731.93	77.9901	2,731.93	78.3379	2,731.93	82.1908	2,731.93	82.5072	2,731.93	80.802	2,731.93	80.496	2,731.93	80.4119	2,731.93	81.4345	2,731.93	78.8019	2,731.93	80.228	2,731.93	75.5564	2,731.93	82.7048	2,731.93	62.8505	2,731.93	81.7868	2,731.93	78.7238
2,828.61	98.7716	2,828.61	98.8449	2,828.61	98.43	2,828.61	98.0157	2,828.61	100.414	2,828.61	97.9046	2,828.61	99.4674	2,828.61	97.1108	2,828.61	96.2923	2,828.61	94.5458	2,828.61	97.6385	2,828.61	94.3666	2,828.61	98.2832	2,828.61	93.6144	2,828.61	97.8499	2,828.61	90.65	2,828.61	86.7611	2,828.61	90.5811	2,828.61	72.6408	2,828.61	84.8578	2,828.61	73.5655	2,828.61	87.0083	2,828.61	78.2912	2,828.61	67.9559	2,828.61	80.2378	2,828.61	80.3462	2,828.61	82.1438	2,828.61	77.9904	2,828.61	76.5841	2,828.61	73.1263	2,828.61	79.0392	2,828.61	72.5053	2,828.61	83.0713	2,828.61	65.528	2,828.61	79.6886	2,828.61	81.3612
2,928.22	99.0782	2,928.22	98.6657	2,928.22	97.7928	2,928.22	98.4764	2,928.22	99.7233	2,928.22	97.104	2,928.22	99.6287	2,928.22	95.9802	2,928.22	97.2778	2,928.22	96.5436	2,928.22	97.3472	2,928.22	95.2001	2,928.22	96.9919	2,928.22	93.2441	2,928.22	98.704	2,928.22	91.7189	2,928.22	91.6148	2,928.22	87.0121	2,928.22	80.13	2,928.22	88.6543	2,928.22	83.5825	2,928.22	73.6546	2,928.22	61.5694	2,928.22	74.9036	2,928.22	75.5779	2,928.22	75.791	2,928.22	79.7859	2,928.22	76.4653	2,928.22	79.216	2,928.22	72.4462	2,928.22	78.9279	2,928.22	74.1087	2,928.22	80.237	2,928.22	77.3797	2,928.22	80.014	2,928.22	78.6266
3,030.76	99.7638	3,030.76	99.4715	3,030.76	98.3779	3,030.76	98.9643	3,030.76	98.7977	3,030.76	97.954	3,030.76	101.054	3,030.76	94.8662	3,030.76	98.5922	3,030.76	96.2345	3,030.76	97.9728	3,030.76	95.4522	3,030.76	95.8447	3,030.76	93.2034	3,030.76	99.1118	3,030.76	90.8307	3,030.76	95.4412	3,030.76	87.286	3,030.76	90.2973	3,030.76	80.4482	3,030.76	85.1594	3,030.76	80.4772	3,030.76	82.1421	3,030.76	74.1865	3,030.76	80.9864	3,030.76	79.9082	3,030.76	83.5864	3,030.76	72.3333	3,030.76	80.2983	3,030.76	72.6509	3,030.76	73.8133	3,030.76	77.8342	3,030.76	81.5782	3,030.76	76.3693	3,030.76	80.4895	3,030.76	80.1706
3,137.7	100.012	3,137.7	99.2187	3,137.7	99.3117	3,137.7	98.8489	3,137.7	98.4652	3,137.7	97.2782	3,137.7	99.6653	3,137.7	95.4819	3,137.7	98.6783	3,137.7	95.6894	3,137.7	97.1969	3,137.7	95.4167	3,137.7	96.341	3,137.7	92.7489	3,137.7	99.0398	3,137.7	88.9684	3,137.7	97.3967	3,137.7	81.9591	3,137.7	90.1154	3,137.7	82.8871	3,137.7	81.9996	3,137.7	80.1904	3,137.7	81.1201	3,137.7	70.2853	3,137.7	72.8418	3,137.7	69.8448	3,137.7	79.7727	3,137.7	75.8566	3,137.7	80.053	3,137.7	74.8682	3,137.7	72.6094	3,137.7	68.2517	3,137.7	78.0816	3,137.7	81.0784	3,137.7	81.5731	3,137.7	79.864
3,249.02	99.9154	3,249.02	99.0345	3,249.02	99.3604	3,249.02	98.4058	3,249.02	99.2744	3,249.02	95.8336	3,249.02	99.2643	3,249.02	96.7085	3,249.02	98.9833	3,249.02	95.7591	3,249.02	97.8961	3,249.02	95.9407	3,249.02	97.3538	3,249.02	90.8633	3,249.02	99.2987	3,249.02	88.871	3,249.02	95.8278	3,249.02	85.729	3,249.02	85.0269	3,249.02	77.7597	3,249.02	79.6186	3,249.02	82.2706	3,249.02	81.391	3,249.02	73.466	3,249.02	76.0191	3,249.02	56.9173	3,249.02	78.1685	3,249.02	74.8703	3,249.02	77.6474	3,249.02	75.5224	3,249.02	74.6636	3,249.02	59.8558	3,249.02	80.8236	3,249.02	79.3554	3,249.02	82.547	3,249.02	75.0185
3,363.28	99.229	3,363.28	99.31	3,363.28	98.9729	3,363.28	97.5154	3,363.28	98.9171	3,363.28	95.2701	3,363.28	100.634	3,363.28	95.6085	3,363.28	100.071	3,363.28	95.3604	3,363.28	99.6793	3,363.28	93.4341	3,363.28	99.99	3,363.28	91.2674	3,363.28	99.9146	3,363.28	88.6289	3,363.28	95.4916	3,363.28	87.6477	3,363.28	89.8808	3,363.28	83.7963	3,363.28	84.7238	3,363.28	81.3051	3,363.28	83.3247	3,363.28	69.7614	3,363.28	80.7994	3,363.28	75.6187	3,363.28	82.2051	3,363.28	64.061	3,363.28	78.3951	3,363.28	75.8789	3,363.28	76.6595	3,363.28	76.1313	3,363.28	77.0613	3,363.28	79.4593	3,363.28	82.878	3,363.28	69.1775
3,481.93	99.4435	3,481.93	99.7425	3,481.93	98.9164	3,481.93	97.9487	3,481.93	98.7705	3,481.93	96.1756	3,481.93	100.127	3,481.93	94.976	3,481.93	98.8525	3,481.93	95.2417	3,481.93	99.2293	3,481.93	92.2863	3,481.93	99.5629	3,481.93	91.5683	3,481.93	99.0021	3,481.93	87.4009	3,481.93	94.8754	3,481.93	84.272	3,481.93	91.3681	3,481.93	81.8432	3,481.93	84.9821	3,481.93	75.0895	3,481.93	77.1242	3,481.93	76.0819	3,481.93	82.9104	3,481.93	80.5557	3,481.93	82.5605	3,481.93	73.0649	3,481.93	79.6027	3,481.93	80.4408	3,481.93	76.5241	3,481.93	79.3211	3,481.93	75.7867	3,481.93	68.549	3,481.93	82.2538	3,481.93	73.8663
3,604.98	98.955	3,604.98	99.6017	3,604.98	99.5262	3,604.98	98.5509	3,604.98	99.43	3,604.98	97.0326	3,604.98	100.867	3,604.98	94.52	3,604.98	98.6158	3,604.98	92.887	3,604.98	98.1543	3,604.98	91.7752	3,604.98	99.2953	3,604.98	90.8002	3,604.98	97.1502	3,604.98	88.9837	3,604.98	92.787	3,604.98	83.1891	3,604.98	92.0038	3,604.98	79.0962	3,604.98	86.7649	3,604.98	80.7302	3,604.98	82.1376	3,604.98	71.4348	3,604.98	83.6577	3,604.98	73.1763	3,604.98	80.2666	3,604.98	66.9647	3,604.98	81.3305	3,604.98	78.3191	3,604.98	74.7618	3,604.98	75.7042	3,604.98	75.2359	3,604.98	73.0512	3,604.98	81.2283	3,604.98	74.4725
3,732.42	99.4222	3,732.42	100.092	3,732.42	99.0373	3,732.42	97.5951	3,732.42	98.7532	3,732.42	96.575	3,732.42	100.291	3,732.42	94.5138	3,732.42	98.6615	3,732.42	91.4391	3,732.42	97.7379	3,732.42	91.3836	3,732.42	99.4717	3,732.42	88.3193	3,732.42	95.2042	3,732.42	88.3219	3,732.42	94.2659	3,732.42	79.9842	3,732.42	89.866	3,732.42	81.2975	3,732.42	86.9593	3,732.42	71.8532	3,732.42	80.2855	3,732.42	67.9935	3,732.42	80.7212	3,732.42	66.6848	3,732.42	78.4229	3,732.42	66.8586	3,732.42	79.6318	3,732.42	65.2133	3,732.42	69.8631	3,732.42	68.3332	3,732.42	75.4292	3,732.42	79.5313	3,732.42	78.7142	3,732.42	73.7282
3,864.26	100.315	3,864.26	99.6727	3,864.26	99.9797	3,864.26	97.5347	3,864.26	98.5569	3,864.26	95.9687	3,864.26	99.1057	3,864.26	93.2775	3,864.26	98.5591	3,864.26	91.9109	3,864.26	97.1149	3,864.26	89.9431	3,864.26	96.0783	3,864.26	86.7819	3,864.26	96.429	3,864.26	82.5945	3,864.26	94.1844	3,864.26	82.0122	3,864.26	81.3131	3,864.26	75.3311	3,864.26	84.7794	3,864.26	69.7156	3,864.26	78.9988	3,864.26	73.7411	3,864.26	79.7626	3,864.26	69.7186	3,864.26	76.696	3,864.26	66.1267	3,864.26	79.1024	3,864.26	76.1353	3,864.26	64.0015	3,864.26	75.4059	3,864.26	77.0407	3,864.26	74.7688	3,864.26	78.6023	3,864.26	75.7548
4,000.49	98.5822	4,000.49	97.5445	4,000.49	99.5326	4,000.49	97.4435	4,000.49	98.447	4,000.49	95.3382	4,000.49	98.1846	4,000.49	90.5265	4,000.49	97.5169	4,000.49	90.9625	4,000.49	95.6346	4,000.49	88.0546	4,000.49	93.6682	4,000.49	82.4969	4,000.49	95.9409	4,000.49	82.1152	4,000.49	93.9116	4,000.49	82.3062	4,000.49	72.9912	4,000.49	77.2855	4,000.49	75.8938	4,000.49	72.8528	4,000.49	79.9828	4,000.49	61.2887	4,000.49	78.5081	4,000.49	67.8439	4,000.49	70.2579	4,000.49	71.2366	4,000.49	77.85	4,000.49	65.5389	4,000.49	64.3834	4,000.49	61.4472	4,000.49	76.007	4,000.49	60.0078	4,000.49	75.148	4,000.49	77.1801
4,141.11	97.9843	4,141.11	97.7272	4,141.11	98.9346	4,141.11	97.0011	4,141.11	98.8406	4,141.11	94.675	4,141.11	97.5013	4,141.11	91.6063	4,141.11	96.7539	4,141.11	89.1258	4,141.11	94.4006	4,141.11	86.3549	4,141.11	91.8758	4,141.11	82.3666	4,141.11	93.5872	4,141.11	82.5979	4,141.11	93.2831	4,141.11	79.0592	4,141.11	80.9483	4,141.11	78.9806	4,141.11	77.4561	4,141.11	74.4088	4,141.11	81.0686	4,141.11	62.1554	4,141.11	79.5718	4,141.11	66.5172	4,141.11	73.4849	4,141.11	70.609	4,141.11	73.4308	4,141.11	73.3502	4,141.11	72.2238	4,141.11	74.2401	4,141.11	75.0783	4,141.11	62.6505	4,141.11	75.427	4,141.11	72.4091
4,287.6	98.3556	4,287.6	97.3481	4,287.6	98.3114	4,287.6	97.1657	4,287.6	97.7929	4,287.6	93.5394	4,287.6	96.9702	4,287.6	90.5326	4,287.6	96.4501	4,287.6	87.5469	4,287.6	93.9109	4,287.6	85.1007	4,287.6	90.3635	4,287.6	83.0653	4,287.6	92.1074	4,287.6	80.7937	4,287.6	93.8202	4,287.6	76.9126	4,287.6	77.4865	4,287.6	75.5578	4,287.6	69.5268	4,287.6	69.6052	4,287.6	75.3027	4,287.6	72.2981	4,287.6	73.3508	4,287.6	67.6187	4,287.6	69.2426	4,287.6	60.5909	4,287.6	76.2418	4,287.6	67.2935	4,287.6	71.5838	4,287.6	63.3728	4,287.6	68.2829	4,287.6	69.557	4,287.6	75.1405	4,287.6	69.855
4,438.48	97.6499	4,438.48	97.0285	4,438.48	98.553	4,438.48	96.2357	4,438.48	97.713	4,438.48	93.3329	4,438.48	95.8553	4,438.48	89.6113	4,438.48	95.0692	4,438.48	87.2769	4,438.48	91.4296	4,438.48	83.9188	4,438.48	92.2092	4,438.48	80.9477	4,438.48	93.7503	4,438.48	73.849	4,438.48	94.0364	4,438.48	78.687	4,438.48	72.6887	4,438.48	69.9142	4,438.48	63.4206	4,438.48	70.6722	4,438.48	74.3091	4,438.48	58.2192	4,438.48	74.5721	4,438.48	63.3358	4,438.48	71.6929	4,438.48	65.0355	4,438.48	72.856	4,438.48	55.3787	4,438.48	71.2099	4,438.48	63.1975	4,438.48	71.1408	4,438.48	71.3429	4,438.48	76.1736	4,438.48	72.512
4,595.21	97.8278	4,595.21	96.0966	4,595.21	98.8363	4,595.21	95.3996	4,595.21	97.5629	4,595.21	91.6626	4,595.21	96.1062	4,595.21	89.946	4,595.21	95.3141	4,595.21	83.8907	4,595.21	90.803	4,595.21	82.9361	4,595.21	94.4314	4,595.21	80.3617	4,595.21	94.2234	4,595.21	79.5235	4,595.21	94.3524	4,595.21	76.0894	4,595.21	78.6006	4,595.21	74.6673	4,595.21	78.7091	4,595.21	71.959	4,595.21	70.9504	4,595.21	69.2664	4,595.21	76.4544	4,595.21	63.1247	4,595.21	70.0214	4,595.21	67.1796	4,595.21	75.4477	4,595.21	53.419	4,595.21	72.6749	4,595.21	56.2492	4,595.21	71.3765	4,595.21	63.888	4,595.21	74.2502	4,595.21	69.6243
4,756.35	97.5676	4,756.35	96.9702	4,756.35	99.0723	4,756.35	95.9414	4,756.35	98.7401	4,756.35	93.6203	4,756.35	96.6878	4,756.35	88.1597	4,756.35	96.3025	4,756.35	85.3249	4,756.35	91.8765	4,756.35	81.5709	4,756.35	93.999	4,756.35	82.9567	4,756.35	95.0898	4,756.35	80.8326	4,756.35	92.2451	4,756.35	73.88	4,756.35	87.7587	4,756.35	77.4102	4,756.35	78.2971	4,756.35	67.3229	4,756.35	72.1088	4,756.35	72.3096	4,756.35	77.9073	4,756.35	66.482	4,756.35	65.9539	4,756.35	65.7472	4,756.35	73.9685	4,756.35	66.6895	4,756.35	72.0849	4,756.35	67.2203	4,756.35	70.5827	4,756.35	67.1622	4,756.35	75.3668	4,756.35	70.5374
4,924.8	98.9582	4,924.8	98.2719	4,924.8	99.3655	4,924.8	95.3472	4,924.8	99.2706	4,924.8	93.9774	4,924.8	97.7255	4,924.8	88.0741	4,924.8	95.1712	4,924.8	86.7041	4,924.8	96.8586	4,924.8	83.688	4,924.8	94.6913	4,924.8	83.4982	4,924.8	92.4198	4,924.8	77.9508	4,924.8	89.4748	4,924.8	76.3079	4,924.8	85.7401	4,924.8	70.9676	4,924.8	73.4248	4,924.8	71.7075	4,924.8	74.7608	4,924.8	65.8565	4,924.8	73.8654	4,924.8	59.4619	4,924.8	77.2849	4,924.8	64.3832	4,924.8	75.2525	4,924.8	71.1087	4,924.8	72.9819	4,924.8	61.2769	4,924.8	74.6065	4,924.8	70.9315	4,924.8	73.5223	4,924.8	73.5018
5,097.66	99.1647	5,097.66	97.4631	5,097.66	99.9294	5,097.66	95.4119	5,097.66	98.9252	5,097.66	93.3546	5,097.66	97.826	5,097.66	87.9093	5,097.66	96.8096	5,097.66	84.0481	5,097.66	96.7382	5,097.66	84.8592	5,097.66	92.8685	5,097.66	78.3814	5,097.66	90.5457	5,097.66	80.5699	5,097.66	90.2319	5,097.66	66.2714	5,097.66	84.9568	5,097.66	72.8292	5,097.66	69.5961	5,097.66	62.5079	5,097.66	77.2783	5,097.66	66.1773	5,097.66	75.1738	5,097.66	64.5665	5,097.66	72.8484	5,097.66	62.7701	5,097.66	74.5302	5,097.66	58.2754	5,097.66	70.2306	5,097.66	67.4049	5,097.66	73.2381	5,097.66	72.4978	5,097.66	75.3206	5,097.66	68.1885
5,277.83	97.9165	5,277.83	96.3512	5,277.83	98.9667	5,277.83	94.5125	5,277.83	98.5021	5,277.83	92.0418	5,277.83	96.9113	5,277.83	87.2884	5,277.83	95.5155	5,277.83	84.6817	5,277.83	92.5608	5,277.83	83.0276	5,277.83	91.6681	5,277.83	77.95	5,277.83	86.6728	5,277.83	75.9135	5,277.83	92.4603	5,277.83	74.3364	5,277.83	84.8615	5,277.83	56.2588	5,277.83	55.0011	5,277.83	69.8859	5,277.83	70.992	5,277.83	60.2727	5,277.83	76.8631	5,277.83	55.2103	5,277.83	75.5157	5,277.83	61.2537	5,277.83	64.286	5,277.83	64.9589	5,277.83	73.5845	5,277.83	63.4097	5,277.83	72.1223	5,277.83	67.5142	5,277.83	70.8575	5,277.83	68.6656
5,463.87	98.1382	5,463.87	96.2816	5,463.87	98.4684	5,463.87	94.9619	5,463.87	98.892	5,463.87	90.9905	5,463.87	97.3407	5,463.87	86.3196	5,463.87	95.3704	5,463.87	84.0909	5,463.87	90.7568	5,463.87	80.3599	5,463.87	90.1953	5,463.87	73.0357	5,463.87	91.3412	5,463.87	65.2723	5,463.87	87.5565	5,463.87	71.684	5,463.87	82.5118	5,463.87	64.4558	5,463.87	74.6544	5,463.87	65.4481	5,463.87	75.0665	5,463.87	59.1682	5,463.87	71.1223	5,463.87	66.2958	5,463.87	69.2823	5,463.87	64.5301	5,463.87	70.489	5,463.87	59.073	5,463.87	70.0642	5,463.87	58.9757	5,463.87	71.8144	5,463.87	66.9934	5,463.87	71.0345	5,463.87	69.7513
5,657.23	98.6693	5,657.23	96.5153	5,657.23	98.6035	5,657.23	94.8217	5,657.23	98.5113	5,657.23	90.5875	5,657.23	98.0696	5,657.23	86.3983	5,657.23	96.3486	5,657.23	83.9684	5,657.23	92.2385	5,657.23	75.09	5,657.23	85.0292	5,657.23	68.8264	5,657.23	90.2867	5,657.23	73.0599	5,657.23	84.9215	5,657.23	72.6301	5,657.23	71.6362	5,657.23	68.9034	5,657.23	75.3681	5,657.23	61.7537	5,657.23	76.636	5,657.23	69.5993	5,657.23	68.6368	5,657.23	58.7998	5,657.23	74.0332	5,657.23	62.6447	5,657.23	65.9187	5,657.23	61.8998	5,657.23	72.2164	5,657.23	52.7936	5,657.23	68.7026	5,657.23	72.2862	5,657.23	71.9843	5,657.23	69.3347
5,856.45	99.1607	5,856.45	97.0498	5,856.45	99.8074	5,856.45	95.1426	5,856.45	99.3672	5,856.45	89.7984	5,856.45	98.0403	5,856.45	85.796	5,856.45	97.1152	5,856.45	80.4494	5,856.45	95.3343	5,856.45	70.1395	5,856.45	87.9867	5,856.45	68.6326	5,856.45	92.47	5,856.45	73.1534	5,856.45	90.7545	5,856.45	70.4929	5,856.45	79.7464	5,856.45	65.4134	5,856.45	74.3626	5,856.45	66.9213	5,856.45	78.0999	5,856.45	63.659	5,856.45	76.0596	5,856.45	56.4328	5,856.45	73.3851	5,856.45	50.6262	5,856.45	70.3112	5,856.45	62.6391	5,856.45	71.4983	5,856.45	66.3862	5,856.45	71.2836	5,856.45	65.0771	5,856.45	70.9339	5,856.45	69.4117
6,062.99	99.5104	6,062.99	98.2166	6,062.99	100.263	6,062.99	95.3483	6,062.99	100.333	6,062.99	90.5073	6,062.99	98.2076	6,062.99	86.6775	6,062.99	97.8645	6,062.99	75.1886	6,062.99	95.8286	6,062.99	63.4953	6,062.99	90.9625	6,062.99	77.5213	6,062.99	91.2951	6,062.99	78.2972	6,062.99	92.0571	6,062.99	78.1373	6,062.99	86.9241	6,062.99	72.3971	6,062.99	77.3652	6,062.99	71.5253	6,062.99	69.879	6,062.99	64.4308	6,062.99	75.4489	6,062.99	67.1554	6,062.99	72.1548	6,062.99	63.3359	6,062.99	62.2856	6,062.99	58.8264	6,062.99	72.0237	6,062.99	68.1931	6,062.99	72.7967	6,062.99	61.0875	6,062.99	68.5214	6,062.99	70.558
6,276.86	100.223	6,276.86	97.9265	6,276.86	100.4	6,276.86	94.9153	6,276.86	100.583	6,276.86	89.9748	6,276.86	99.6204	6,276.86	85.1198	6,276.86	96.8857	6,276.86	74.9742	6,276.86	96.2327	6,276.86	75.4847	6,276.86	94.0338	6,276.86	78.7367	6,276.86	93.3886	6,276.86	81.7851	6,276.86	91.086	6,276.86	73.174	6,276.86	86.6394	6,276.86	70.701	6,276.86	79.4755	6,276.86	66.7581	6,276.86	73.8913	6,276.86	62.89	6,276.86	71.1569	6,276.86	63.0224	6,276.86	66.7677	6,276.86	68.3575	6,276.86	71.0668	6,276.86	65.1634	6,276.86	73.4802	6,276.86	56.298	6,276.86	69.0421	6,276.86	70.1374	6,276.86	72.2517	6,276.86	70.5589
6,498.05	99.3034	6,498.05	97.8255	6,498.05	100.42	6,498.05	93.8881	6,498.05	100.911	6,498.05	89.9611	6,498.05	99.8305	6,498.05	82.3446	6,498.05	96.5239	6,498.05	67.8626	6,498.05	95.1209	6,498.05	76.1458	6,498.05	94.4374	6,498.05	80.99	6,498.05	92.2217	6,498.05	76.4337	6,498.05	93.3903	6,498.05	75.993	6,498.05	86.8998	6,498.05	70.6641	6,498.05	70.0896	6,498.05	69.4423	6,498.05	76.6483	6,498.05	57.7998	6,498.05	68.5898	6,498.05	63.6953	6,498.05	69.8867	6,498.05	64.9932	6,498.05	71.3206	6,498.05	52.0631	6,498.05	70.1243	6,498.05	61.5185	6,498.05	72.7901	6,498.05	65.8916	6,498.05	71.0356	6,498.05	69.6119
6,726.56	98.8957	6,726.56	97.5161	6,726.56	99.7	6,726.56	91.8945	6,726.56	100.068	6,726.56	89.2928	6,726.56	99.4955	6,726.56	79.6816	6,726.56	96.5373	6,726.56	69.5499	6,726.56	95.1602	6,726.56	81.1991	6,726.56	92.7485	6,726.56	77.9256	6,726.56	80.7857	6,726.56	77.7537	6,726.56	89.1731	6,726.56	74.0979	6,726.56	85.033	6,726.56	69.0124	6,726.56	76.2251	6,726.56	55.1028	6,726.56	63.3244	6,726.56	60.0416	6,726.56	66.4928	6,726.56	66.3317	6,726.56	71.5076	6,726.56	66.1062	6,726.56	67.7956	6,726.56	53.93	6,726.56	68.6665	6,726.56	55.9511	6,726.56	71.5802	6,726.56	65.7665	6,726.56	68.8564	6,726.56	69.9071
6,963.87	98.2954	6,963.87	95.5897	6,963.87	98.7638	6,963.87	91.1847	6,963.87	99.0517	6,963.87	86.7117	6,963.87	98.486	6,963.87	78.6697	6,963.87	96.5415	6,963.87	75.2306	6,963.87	93.9941	6,963.87	80.8732	6,963.87	86.3542	6,963.87	77.135	6,963.87	87.539	6,963.87	69.9697	6,963.87	84.982	6,963.87	70.4062	6,963.87	79.1003	6,963.87	67.4356	6,963.87	70.656	6,963.87	68.1753	6,963.87	73.3765	6,963.87	60.9415	6,963.87	69.6613	6,963.87	64.0879	6,963.87	68.6803	6,963.87	56.203	6,963.87	64.6761	6,963.87	56.9411	6,963.87	66.1872	6,963.87	57.5848	6,963.87	68.1509	6,963.87	65.2068	6,963.87	67.4797	6,963.87	68.5747
7,209.96	97.849	7,209.96	95.9327	7,209.96	98.3349	7,209.96	91.2642	7,209.96	98.8412	7,209.96	86.8386	7,209.96	96.9362	7,209.96	78.1106	7,209.96	96.2033	7,209.96	78.4446	7,209.96	93.5294	7,209.96	78.4619	7,209.96	85.287	7,209.96	75.4672	7,209.96	89.4569	7,209.96	76.8302	7,209.96	89.6429	7,209.96	72.9931	7,209.96	70.0033	7,209.96	64.2342	7,209.96	69.636	7,209.96	62.0891	7,209.96	62.4131	7,209.96	59.2265	7,209.96	65.7241	7,209.96	62.5203	7,209.96	71.3802	7,209.96	59.8886	7,209.96	62.9502	7,209.96	59.7876	7,209.96	63.3012	7,209.96	56.3998	7,209.96	67.9238	7,209.96	58.7475	7,209.96	65.8033	7,209.96	66.2488
7,464.84	98.4914	7,464.84	95.8048	7,464.84	98.2004	7,464.84	91.1387	7,464.84	98.5743	7,464.84	86.9918	7,464.84	97.5378	7,464.84	77.498	7,464.84	95.2696	7,464.84	77.9728	7,464.84	92.1603	7,464.84	76.0072	7,464.84	89.9603	7,464.84	78.9944	7,464.84	88.3632	7,464.84	77.0206	7,464.84	89.5126	7,464.84	72.6074	7,464.84	76.1805	7,464.84	69.8588	7,464.84	52.8125	7,464.84	66.9106	7,464.84	69.889	7,464.84	58.3256	7,464.84	68.254	7,464.84	62.9963	7,464.84	69.3855	7,464.84	53.9094	7,464.84	51.345	7,464.84	66.3382	7,464.84	60.0538	7,464.84	54.7965	7,464.84	66.8045	7,464.84	64.5756	7,464.84	60.6239	7,464.84	66.9078
7,727.05	98.0191	7,727.05	95.88	7,727.05	98.8568	7,727.05	92.2007	7,727.05	98.323	7,727.05	87.9639	7,727.05	97.2961	7,727.05	69.0918	7,727.05	94.5836	7,727.05	73.8645	7,727.05	90.8619	7,727.05	76.7902	7,727.05	91.5612	7,727.05	77.9089	7,727.05	86.993	7,727.05	80.2348	7,727.05	87.4031	7,727.05	76.3187	7,727.05	72.2466	7,727.05	67.8096	7,727.05	62.7194	7,727.05	66.1061	7,727.05	68.6424	7,727.05	61.7971	7,727.05	72.2287	7,727.05	58.279	7,727.05	69.3539	7,727.05	58.2159	7,727.05	52.6249	7,727.05	66.2543	7,727.05	55.6111	7,727.05	63.2068	7,727.05	66.0979	7,727.05	59.547	7,727.05	64.7396	7,727.05	67.4593
7,999.51	97.3812	7,999.51	95.1864	7,999.51	97.415	7,999.51	92.0374	7,999.51	96.7212	7,999.51	86.919	7,999.51	95.7028	7,999.51	70.2215	7,999.51	93.1166	7,999.51	61.9181	7,999.51	89.6116	7,999.51	74.4805	7,999.51	88.086	7,999.51	78.1128	7,999.51	72.5682	7,999.51	75.537	7,999.51	80.8048	7,999.51	69.9976	7,999.51	76.5333	7,999.51	66.7865	7,999.51	51.7787	7,999.51	60.8899	7,999.51	65.92	7,999.51	54.3061	7,999.51	68.8996	7,999.51	56.3184	7,999.51	64.7784	7,999.51	62.3477	7,999.51	58.1576	7,999.51	59.6008	7,999.51	56.2003	7,999.51	61.2456	7,999.51	65.6303	7,999.51	64.2786	7,999.51	63.0444	7,999.51	63.3251
8,282.23	98.2124	8,282.23	96.4057	8,282.23	98.458	8,282.23	93.8417	8,282.23	96.6557	8,282.23	88.6186	8,282.23	95.6423	8,282.23	79.1304	8,282.23	92.1271	8,282.23	66.5319	8,282.23	89.6954	8,282.23	73.867	8,282.23	85.0356	8,282.23	76.4196	8,282.23	83.7288	8,282.23	73.9013	8,282.23	81.1671	8,282.23	70.351	8,282.23	74.4961	8,282.23	65.3075	8,282.23	69.175	8,282.23	61.5279	8,282.23	60.6996	8,282.23	55.2501	8,282.23	61.6162	8,282.23	58.8664	8,282.23	63.121	8,282.23	57.4091	8,282.23	57.6683	8,282.23	66.2629	8,282.23	57.1245	8,282.23	57.2789	8,282.23	66.0371	8,282.23	60.8444	8,282.23	59.1317	8,282.23	67.4003
8,573.73	99.2829	8,573.73	98.3515	8,573.73	98.8959	8,573.73	96.3971	8,573.73	97.0003	8,573.73	91.6718	8,573.73	94.951	8,573.73	85.9969	8,573.73	92.3372	8,573.73	78.4776	8,573.73	90.7894	8,573.73	71.847	8,573.73	84.5797	8,573.73	72.9614	8,573.73	83.5785	8,573.73	73.0639	8,573.73	82.5739	8,573.73	64.9876	8,573.73	70.162	8,573.73	68.0688	8,573.73	67.9559	8,573.73	65.5687	8,573.73	66.4218	8,573.73	59.6623	8,573.73	68.6958	8,573.73	53.2379	8,573.73	64.0697	8,573.73	63.5074	8,573.73	53.3761	8,573.73	63.0006	8,573.73	51.034	8,573.73	62.3352	8,573.73	67.9113	8,573.73	59.5782	8,573.73	64.8575	8,573.73	65.2357
8,876.95	98.2623	8,876.95	97.9016	8,876.95	97.4734	8,876.95	97.601	8,876.95	95.3039	8,876.95	94.1851	8,876.95	94.3895	8,876.95	90.0596	8,876.95	93.1516	8,876.95	85.0008	8,876.95	88.8332	8,876.95	78.5079	8,876.95	86.5477	8,876.95	73.7251	8,876.95	84.1307	8,876.95	68.1013	8,876.95	80.8111	8,876.95	67.4909	8,876.95	60.43	8,876.95	61.6165	8,876.95	59.5709	8,876.95	61.696	8,876.95	64.3769	8,876.95	56.4315	8,876.95	60.7366	8,876.95	60.7245	8,876.95	51.7285	8,876.95	68.1476	8,876.95	57.8979	8,876.95	52.6275	8,876.95	51.7005	8,876.95	61.3878	8,876.95	63.2855	8,876.95	69.3132	8,876.95	47.1644	8,876.95	67.9513
9,188.96	97.7463	9,188.96	97.5516	9,188.96	98.2486	9,188.96	96.3223	9,188.96	97.3687	9,188.96	94.2664	9,188.96	95.6368	9,188.96	90.1241	9,188.96	94.2148	9,188.96	86.9338	9,188.96	89.6873	9,188.96	81.6542	9,188.96	90.7504	9,188.96	77.9	9,188.96	84.3532	9,188.96	72.8438	9,188.96	84.8001	9,188.96	67.7017	9,188.96	67.4174	9,188.96	61.3608	9,188.96	68.5248	9,188.96	54.8338	9,188.96	65.0992	9,188.96	57.9854	9,188.96	67.696	9,188.96	62.0127	9,188.96	62.05	9,188.96	62.4183	9,188.96	64.344	9,188.96	59.1266	9,188.96	63.2941	9,188.96	56.0618	9,188.96	56.1664	9,188.96	58.4694	9,188.96	51.0361	9,188.96	65.7574
9,514.16	99.9416	9,514.16	98.9505	9,514.16	100.641	9,514.16	96.8321	9,514.16	99.3752	9,514.16	93.8856	9,514.16	96.3676	9,514.16	89.1543	9,514.16	95.7326	9,514.16	85.8092	9,514.16	92.7783	9,514.16	78.6161	9,514.16	90.1326	9,514.16	75.7588	9,514.16	84.8033	9,514.16	69.095	9,514.16	85.1965	9,514.16	68.4194	9,514.16	68.719	9,514.16	62.417	9,514.16	68.95	9,514.16	42.4358	9,514.16	66.1395	9,514.16	61.6505	9,514.16	61.9519	9,514.16	65.2233	9,514.16	60.7324	9,514.16	68.5857	9,514.16	67.2273	9,514.16	61.4472	9,514.16	60.608	9,514.16	51.4958	9,514.16	65.6335	9,514.16	65.2335	9,514.16	57.1658	9,514.16	69.9315
9,849.61	101.149	9,849.61	100.472	9,849.61	100.791	9,849.61	98.2338	9,849.61	98.9813	9,849.61	93.8293	9,849.61	95.2745	9,849.61	87.5527	9,849.61	93.7779	9,849.61	82.0155	9,849.61	91.8776	9,849.61	74.4659	9,849.61	87.2929	9,849.61	70.8932	9,849.61	84.1328	9,849.61	69.3616	9,849.61	78.8762	9,849.61	65.9792	9,849.61	70.8375	9,849.61	64.9369	9,849.61	66.7039	9,849.61	55.725	9,849.61	62.9666	9,849.61	64.8348	9,849.61	65.6059	9,849.61	60.4208	9,849.61	61.6826	9,849.61	69.8346	9,849.61	59.9094	9,849.61	61.8443	9,849.61	64.0794	9,849.61	63.7846	9,849.61	65.1621	9,849.61	51.854	9,849.61	60.43	9,849.61	63.7971
10,196.8	100.624	10,196.8	101.156	10,196.8	99.0184	10,196.8	99.6032	10,196.8	95.9273	10,196.8	95.3746	10,196.8	92.9892	10,196.8	89.3857	10,196.8	92.2328	10,196.8	83.3557	10,196.8	89.6876	10,196.8	76.5531	10,196.8	87.1096	10,196.8	58.1307	10,196.8	87.7593	10,196.8	62.2799	10,196.8	80.8244	10,196.8	66.0308	10,196.8	66.2934	10,196.8	51.0929	10,196.8	67.3447	10,196.8	56.7295	10,196.8	55.6594	10,196.8	49.1011	10,196.8	47.1189	10,196.8	44.1946	10,196.8	55.0408	10,196.8	71.0159	10,196.8	60.9014	10,196.8	62.3296	10,196.8	62.8557	10,196.8	59.0879	10,196.8	67.4571	10,196.8	52.9959	10,196.8	64.1407	10,196.8	65.4305
10,555.7	99.3176	10,555.7	100.353	10,555.7	97.2771	10,555.7	98.7018	10,555.7	93.8876	10,555.7	95.4698	10,555.7	93.1033	10,555.7	90.1442	10,555.7	92.0296	10,555.7	84.0512	10,555.7	91.4972	10,555.7	78.1873	10,555.7	87.728	10,555.7	61.863	10,555.7	87.1436	10,555.7	67.8947	10,555.7	83.2434	10,555.7	68.8903	10,555.7	62.2086	10,555.7	63.7782	10,555.7	64.3982	10,555.7	56.0183	10,555.7	52.04	10,555.7	67.718	10,555.7	61.3147	10,555.7	55.115	10,555.7	61.8862	10,555.7	69.5739	10,555.7	59.0017	10,555.7	66.2017	10,555.7	64.1712	10,555.7	63.5451	10,555.7	64.5538	10,555.7	55.3554	10,555.7	63.2044	10,555.7	57.8499
10,927.7	98.6888	10,927.7	99.5722	10,927.7	96.7223	10,927.7	97.6042	10,927.7	93.3378	10,927.7	93.9663	10,927.7	91.8134	10,927.7	88.4996	10,927.7	91.0958	10,927.7	82.0396	10,927.7	91.6341	10,927.7	75.3197	10,927.7	90.3177	10,927.7	56.7777	10,927.7	80.6619	10,927.7	65.5608	10,927.7	81.5857	10,927.7	52.826	10,927.7	69.8099	10,927.7	50.6965	10,927.7	66.2485	10,927.7	59.8687	10,927.7	65.3178	10,927.7	62.3904	10,927.7	65.4496	10,927.7	62.7295	10,927.7	61.3004	10,927.7	70.1383	10,927.7	52.6709	10,927.7	65.1755	10,927.7	62.6533	10,927.7	63.9217	10,927.7	63.4091	10,927.7	61.3317	10,927.7	61.8813	10,927.7	56.556
11,313	99.5746	11,313	100.016	11,313	97.3081	11,313	97.0786	11,313	94.2816	11,313	93.4816	11,313	89.0434	11,313	85.9936	11,313	88.7516	11,313	80.8286	11,313	90.7362	11,313	72.8489	11,313	89.7868	11,313	67.1725	11,313	83.7358	11,313	67.5083	11,313	71.8257	11,313	64.5258	11,313	70.1965	11,313	57.3256	11,313	61.0658	11,313	58.5895	11,313	66.1354	11,313	65.3775	11,313	53.4609	11,313	56.8084	11,313	51.13	11,313	69.5677	11,313	55.5695	11,313	60.2236	11,313	62.5803	11,313	64.2945	11,313	65.9854	11,313	69.9671	11,313	63.7381	11,313	58.124
11,712.9	101.242	11,712.9	101.316	11,712.9	98.3227	11,712.9	97.6576	11,712.9	92.412	11,712.9	93.0247	11,712.9	89.7682	11,712.9	82.042	11,712.9	91.2515	11,712.9	77.31	11,712.9	92.1564	11,712.9	70.3638	11,712.9	88.3437	11,712.9	69.3676	11,712.9	86.1483	11,712.9	65.5826	11,712.9	77.7628	11,712.9	61.3305	11,712.9	71.3587	11,712.9	44.3542	11,712.9	55.577	11,712.9	42.8681	11,712.9	53.1348	11,712.9	57.947	11,712.9	65.1029	11,712.9	57.4274	11,712.9	66.7174	11,712.9	68.2664	11,712.9	62.14	11,712.9	66.1611	11,712.9	64.1901	11,712.9	69.9454	11,712.9	68.2042	11,712.9	67.6801	11,712.9	66.0248	11,712.9	55.8982
12,126	100.97	12,126	101.288	12,126	97.2123	12,126	97.7825	12,126	85.0536	12,126	92.5218	12,126	90.5247	12,126	79.0035	12,126	92.6146	12,126	73.6977	12,126	91.3918	12,126	61.1007	12,126	90.2023	12,126	70.2043	12,126	83.1729	12,126	54.1876	12,126	67.2644	12,126	66.1975	12,126	64.7367	12,126	51.8511	12,126	65.9479	12,126	65.2177	12,126	56.5575	12,126	62.8651	12,126	66.7527	12,126	52.7105	12,126	64.0821	12,126	70.5683	12,126	58.1428	12,126	66.1463	12,126	62.2006	12,126	69.5738	12,126	66.6118	12,126	64.6488	12,126	68.3037	12,126	50.6465
12,553.7	99.5944	12,553.7	99.6867	12,553.7	94.9398	12,553.7	96.5565	12,553.7	85.6758	12,553.7	90.0623	12,553.7	89.865	12,553.7	77.2673	12,553.7	92.6769	12,553.7	64.1673	12,553.7	90.562	12,553.7	69.621	12,553.7	89.8907	12,553.7	69.454	12,553.7	84.8255	12,553.7	48.2277	12,553.7	71.6115	12,553.7	62.7526	12,553.7	72.9333	12,553.7	51.9844	12,553.7	61.3666	12,553.7	62.8326	12,553.7	64.9299	12,553.7	59.2936	12,553.7	68.5479	12,553.7	42.9291	12,553.7	64.865	12,553.7	66.8848	12,553.7	64.4582	12,553.7	65.8484	12,553.7	60.4522	12,553.7	69.9306	12,553.7	63.5747	12,553.7	66.5064	12,553.7	67.438	12,553.7	60.3739
12,996.1	98.3649	12,996.1	98.5318	12,996.1	94.0922	12,996.1	94.536	12,996.1	86.7872	12,996.1	87.0919	12,996.1	89.6963	12,996.1	73.5541	12,996.1	92.2936	12,996.1	61.553	12,996.1	90.5953	12,996.1	71.1099	12,996.1	86.2347	12,996.1	63.1066	12,996.1	82.282	12,996.1	58.3545	12,996.1	66.2125	12,996.1	62.0234	12,996.1	74.9604	12,996.1	52.6976	12,996.1	60.3849	12,996.1	45.0968	12,996.1	59.628	12,996.1	48.6215	12,996.1	61.5872	12,996.1	54.5717	12,996.1	61.4459	12,996.1	64.5465	12,996.1	61.9238	12,996.1	61.2813	12,996.1	56.4962	12,996.1	66.8679	12,996.1	51.7175	12,996.1	60.9804	12,996.1	65.5297	12,996.1	49.3276
13,454.6	98.4756	13,454.6	98.4043	13,454.6	94.49	13,454.6	93.6557	13,454.6	83.5706	13,454.6	85.4377	13,454.6	88.9917	13,454.6	68.2583	13,454.6	90.3707	13,454.6	67.1493	13,454.6	88.1724	13,454.6	64.9186	13,454.6	84.6067	13,454.6	70.7031	13,454.6	81.3662	13,454.6	66.4859	13,454.6	70.4271	13,454.6	63.4709	13,454.6	73.1535	13,454.6	54.4556	13,454.6	57.1859	13,454.6	48.6332	13,454.6	52.3269	13,454.6	45.6548	13,454.6	59.4413	13,454.6	54.4297	13,454.6	61.1799	13,454.6	64.8737	13,454.6	65.1531	13,454.6	60.9849	13,454.6	53.1331	13,454.6	65.1435	13,454.6	40.1103	13,454.6	59.7683	13,454.6	66.4778	13,454.6	56.9083
13,929.2	99.673	13,929.2	99.1165	13,929.2	96.1453	13,929.2	94.209	13,929.2	83.6587	13,929.2	86.4632	13,929.2	88.7046	13,929.2	75.3251	13,929.2	90.8865	13,929.2	71.0644	13,929.2	87.8566	13,929.2	67.62	13,929.2	85.7907	13,929.2	72.7253	13,929.2	82.0769	13,929.2	62.8364	13,929.2	65.834	13,929.2	59.0147	13,929.2	77.7251	13,929.2	55.2303	13,929.2	56.1652	13,929.2	49.9189	13,929.2	63.5375	13,929.2	51.2281	13,929.2	55.5272	13,929.2	58.7181	13,929.2	62.0175	13,929.2	61.7344	13,929.2	68.8669	13,929.2	50.421	13,929.2	58.8505	13,929.2	65.7801	13,929.2	56.5502	13,929.2	65.6407	13,929.2	63.3251	13,929.2	52.0732
14,419.9	99.6791	14,419.9	99.4677	14,419.9	95.767	14,419.9	95.5051	14,419.9	87.1876	14,419.9	89.5553	14,419.9	89.7021	14,419.9	82.2472	14,419.9	89.2437	14,419.9	78.5526	14,419.9	86.8971	14,419.9	76.4335	14,419.9	85.1619	14,419.9	68.064	14,419.9	80.0914	14,419.9	67.8474	14,419.9	73.401	14,419.9	65.7897	14,419.9	78.2372	14,419.9	50.4611	14,419.9	57.9605	14,419.9	59.4525	14,419.9	63.1521	14,419.9	58.1809	14,419.9	51.1187	14,419.9	62.6416	14,419.9	59.0105	14,419.9	63.9875	14,419.9	68.6142	14,419.9	62.186	14,419.9	59.2723	14,419.9	64.6506	14,419.9	58.4976	14,419.9	62.0243	14,419.9	66.6457	14,419.9	58.7023
14,928.2	97.9621	14,928.2	98.1497	14,928.2	94.5495	14,928.2	95.0812	14,928.2	88.6433	14,928.2	90.4486	14,928.2	88.8445	14,928.2	85.1466	14,928.2	86.911	14,928.2	82.7921	14,928.2	84.284	14,928.2	77.1346	14,928.2	80.6171	14,928.2	72.8145	14,928.2	80.8758	14,928.2	70.9667	14,928.2	69.6485	14,928.2	64.9154	14,928.2	76.3903	14,928.2	58.9503	14,928.2	59.035	14,928.2	44.0707	14,928.2	57.0833	14,928.2	56.9164	14,928.2	52.3074	14,928.2	62.6533	14,928.2	54.0797	14,928.2	62.0021	14,928.2	67.6897	14,928.2	56.4028	14,928.2	55.0167	14,928.2	62.6775	14,928.2	65.5078	14,928.2	60.3428	14,928.2	63.077	14,928.2	64.7033
15,455.6	97.9079	15,455.6	97.7393	15,455.6	95.651	15,455.6	95.6862	15,455.6	90.1287	15,455.6	92.8912	15,455.6	87.9025	15,455.6	88.1318	15,455.6	87.2371	15,455.6	85.9016	15,455.6	82.5784	15,455.6	78.8432	15,455.6	79.9157	15,455.6	77.0561	15,455.6	73.1147	15,455.6	69.0851	15,455.6	65.1689	15,455.6	67.5537	15,455.6	75.4766	15,455.6	62.871	15,455.6	60.8476	15,455.6	54.1075	15,455.6	61.0228	15,455.6	47.4437	15,455.6	64.0738	15,455.6	64.4771	15,455.6	57.4336	15,455.6	59.7867	15,455.6	69.3483	15,455.6	56.2807	15,455.6	54.4578	15,455.6	61.6699	15,455.6	66.5755	15,455.6	56.4901	15,455.6	64.9488	15,455.6	65.0137
16,000.5	99.7831	16,000.5	99.7737	16,000.5	97.3742	16,000.5	98.1283	16,000.5	92.6895	16,000.5	96.5971	16,000.5	88.7428	16,000.5	91.4444	16,000.5	88.0056	16,000.5	88.8308	16,000.5	81.236	16,000.5	81.2537	16,000.5	79.5909	16,000.5	80.4573	16,000.5	73.165	16,000.5	76.2348	16,000.5	52.2068	16,000.5	72.3367	16,000.5	76.326	16,000.5	67.9326	16,000.5	66.8495	16,000.5	47.22	16,000.5	64.5127	16,000.5	64.257	16,000.5	68.5907	16,000.5	58.917	16,000.5	62.8382	16,000.5	53.237	16,000.5	71.0849	16,000.5	54.7865	16,000.5	62.7158	16,000.5	65.6581	16,000.5	70.611	16,000.5	60.642	16,000.5	62.1644	16,000.5	67.4105
16,564.5	98.4028	16,564.5	98.6201	16,564.5	96.6561	16,564.5	97.8943	16,564.5	94.0006	16,564.5	95.8216	16,564.5	89.604	16,564.5	90.446	16,564.5	86.6145	16,564.5	86.8917	16,564.5	79.4142	16,564.5	79.4903	16,564.5	76.94	16,564.5	80.0451	16,564.5	71.8038	16,564.5	75.5812	16,564.5	58.5927	16,564.5	69.1965	16,564.5	76.9658	16,564.5	65.1753	16,564.5	67.1755	16,564.5	46.3155	16,564.5	65.0346	16,564.5	59.3873	16,564.5	67.7037	16,564.5	60.8077	16,564.5	59.1748	16,564.5	59.8371	16,564.5	70.8023	16,564.5	60.5828	16,564.5	66.2218	16,564.5	67.3042	16,564.5	69.0502	16,564.5	67.5342	16,564.5	59.4918	16,564.5	65.5367
17,148.9	94.7189	17,148.9	94.942	17,148.9	94.1048	17,148.9	94.5419	17,148.9	92.3813	17,148.9	91.575	17,148.9	88.6204	17,148.9	85.5704	17,148.9	84.3279	17,148.9	82.3174	17,148.9	74.2875	17,148.9	74.1048	17,148.9	73.7872	17,148.9	75.7209	17,148.9	70.9922	17,148.9	69.9651	17,148.9	50.7609	17,148.9	64.9823	17,148.9	73.037	17,148.9	60.9846	17,148.9	66.0481	17,148.9	48.0834	17,148.9	63.8661	17,148.9	50.3553	17,148.9	67.579	17,148.9	54.9283	17,148.9	57.0902	17,148.9	60.2972	17,148.9	66.5441	17,148.9	57.766	17,148.9	67.6738	17,148.9	60.1021	17,148.9	66.3202	17,148.9	62.7263	17,148.9	63.1885	17,148.9	58.8187
17,752.4	92.4049	17,752.4	93.3182	17,752.4	93.8961	17,752.4	93.2557	17,752.4	93.6986	17,752.4	88.8564	17,752.4	90.7418	17,752.4	81.898	17,752.4	85.7164	17,752.4	77.5855	17,752.4	74.0855	17,752.4	65.1369	17,752.4	70.7663	17,752.4	69.671	17,752.4	67.095	17,752.4	62.3369	17,752.4	62.2737	17,752.4	59.416	17,752.4	74.0714	17,752.4	50.3659	17,752.4	66.1395	17,752.4	52.8309	17,752.4	60.3383	17,752.4	47.8785	17,752.4	70.8548	17,752.4	51.1849	17,752.4	62.9725	17,752.4	63.0567	17,752.4	61.4074	17,752.4	60.7378	17,752.4	68.7312	17,752.4	58.5154	17,752.4	69.0356	17,752.4	60.1095	17,752.4	63.9515	17,752.4	60.3182
18,379.4	91.6917	18,379.4	93.305	18,379.4	95.0457	18,379.4	94.1125	18,379.4	95.864	18,379.4	88.6869	18,379.4	92.4318	18,379.4	81.2436	18,379.4	87.4636	18,379.4	78.1315	18,379.4	77.3841	18,379.4	64.9999	18,379.4	69.104	18,379.4	60.0013	18,379.4	70.4178	18,379.4	51.4422	18,379.4	61.4663	18,379.4	55.3505	18,379.4	74.0957	18,379.4	59.6908	18,379.4	65.9889	18,379.4	52.1905	18,379.4	62.7177	18,379.4	52.816	18,379.4	72.0197	18,379.4	57.7217	18,379.4	63.7341	18,379.4	55.7568	18,379.4	64.9939	18,379.4	31.8865	18,379.4	71.2836	18,379.4	60.6048	18,379.4	70.7212	18,379.4	65.2201	18,379.4	66.3128	18,379.4	54.2943
19,026.9	91.4129	19,026.9	92.3524	19,026.9	94.9441	19,026.9	94.2956	19,026.9	95.4935	19,026.9	89.7201	19,026.9	91.4541	19,026.9	83.0984	19,026.9	86.4712	19,026.9	80.0054	19,026.9	77.2132	19,026.9	68.9832	19,026.9	71.3627	19,026.9	67.6108	19,026.9	70.2228	19,026.9	64.3333	19,026.9	67.0087	19,026.9	57.752	19,026.9	74.0678	19,026.9	54.0703	19,026.9	62.3845	19,026.9	53.9991	19,026.9	61.6875	19,026.9	48.7086	19,026.9	69.9907	19,026.9	59.2304	19,026.9	65.2274	19,026.9	64.3047	19,026.9	65	19,026.9	61.0098	19,026.9	71.6184	19,026.9	60.8656	19,026.9	69.9125	19,026.9	57.7182	19,026.9	63.9323	19,026.9	60.9354
19,697.8	91.0715	19,697.8	92.3121	19,697.8	94.2877	19,697.8	91.7199	19,697.8	95.3413	19,697.8	87.5638	19,697.8	90.9518	19,697.8	80.0855	19,697.8	84.2011	19,697.8	79.137	19,697.8	72.2591	19,697.8	66.6201	19,697.8	70.8468	19,697.8	66.27	19,697.8	69.8914	19,697.8	61.4161	19,697.8	70.488	19,697.8	55.003	19,697.8	73.488	19,697.8	55.5966	19,697.8	56.3911	19,697.8	53.0555	19,697.8	57.5446	19,697.8	54.7342	19,697.8	63.4126	19,697.8	60.1755	19,697.8	61.8795	19,697.8	62.7383	19,697.8	66.0838	19,697.8	61.9007	19,697.8	69.5145	19,697.8	60.208	19,697.8	67.7	19,697.8	61.4523	19,697.8	67.1875	19,697.8	67.4513
19,999.5	90.5422	19,999.5	92.3083	19,999.5	95.0941	19,999.5	91.0619	19,999.5	96.5457	19,999.5	87.7875	19,999.5	92.1202	19,999.5	77.5161	19,999.5	83.4886	19,999.5	78.8629	19,999.5	62.0119	19,999.5	69.1414	19,999.5	71.9734	19,999.5	65.9881	19,999.5	68.7851	19,999.5	59.1453	19,999.5	71.7761	19,999.5	52.902	19,999.5	75.8375	19,999.5	52.0448	19,999.5	55.1801	19,999.5	55.2324	19,999.5	68.313	19,999.5	58.255	19,999.5	62.3338	19,999.5	56.1616	19,999.5	48.555	19,999.5	61.9525	19,999.5	69.1103	19,999.5	58.6517	19,999.5	70.3073	19,999.5	64.5376	19,999.5	70.1932	19,999.5	67.0366	19,999.5	72.8793	19,999.5	68.5862
