"SPL Horizontal"
"On-Axis"		"10°"		"-10°"		"20°"		"-20°"		"30°"		"-30°"		"40°"		"-40°"		"50°"		"-50°"		"60°"		"-60°"		"70°"		"-70°"		"80°"		"-80°"		"90°"		"-90°"		"100°"		"-100°"		"110°"		"-110°"		"120°"		"-120°"		"130°"		"-130°"		"140°"		"-140°"		"150°"		"-150°"		"160°"		"-160°"		"170°"		"-170°"		"180°"
"Frequency / Hz"	"Sound Pressure Level / dB (re 20 µPa/V)  [2.83  V @ 1. m]"	"Frequency / Hz"	"Sound Pressure Level / dB (re 20 µPa/V)  [2.83  V @ 1. m]"	"Frequency / Hz"	"Sound Pressure Level / dB (re 20 µPa/V)  [2.83  V @ 1. m]"	"Frequency / Hz"	"Sound Pressure Level / dB (re 20 µPa/V)  [2.83  V @ 1. m]"	"Frequency / Hz"	"Sound Pressure Level / dB (re 20 µPa/V)  [2.83  V @ 1. m]"	"Frequency / Hz"	"Sound Pressure Level / dB (re 20 µPa/V)  [2.83  V @ 1. m]"	"Frequency / Hz"	"Sound Pressure Level / dB (re 20 µPa/V)  [2.83  V @ 1. m]"	"Frequency / Hz"	"Sound Pressure Level / dB (re 20 µPa/V)  [2.83  V @ 1. m]"	"Frequency / Hz"	"Sound Pressure Level / dB (re 20 µPa/V)  [2.83  V @ 1. m]"	"Frequency / Hz"	"Sound Pressure Level / dB (re 20 µPa/V)  [2.83  V @ 1. m]"	"Frequency / Hz"	"Sound Pressure Level / dB (re 20 µPa/V)  [2.83  V @ 1. m]"	"Frequency / Hz"	"Sound Pressure Level / dB (re 20 µPa/V)  [2.83  V @ 1. m]"	"Frequency / Hz"	"Sound Pressure Level / dB (re 20 µPa/V)  [2.83  V @ 1. m]"	"Frequency / Hz"	"Sound Pressure Level / dB (re 20 µPa/V)  [2.83  V @ 1. m]"	"Frequency / Hz"	"Sound Pressure Level / dB (re 20 µPa/V)  [2.83  V @ 1. m]"	"Frequency / Hz"	"Sound Pressure Level / dB (re 20 µPa/V)  [2.83  V @ 1. m]"	"Frequency / Hz"	"Sound Pressure Level / dB (re 20 µPa/V)  [2.83  V @ 1. m]"	"Frequency / Hz"	"Sound Pressure Level / dB (re 20 µPa/V)  [2.83  V @ 1. m]"	"Frequency / Hz"	"Sound Pressure Level / dB (re 20 µPa/V)  [2.83  V @ 1. m]"	"Frequency / Hz"	"Sound Pressure Level / dB (re 20 µPa/V)  [2.83  V @ 1. m]"	"Frequency / Hz"	"Sound Pressure Level / dB (re 20 µPa/V)  [2.83  V @ 1. m]"	"Frequency / Hz"	"Sound Pressure Level / dB (re 20 µPa/V)  [2.83  V @ 1. m]"	"Frequency / Hz"	"Sound Pressure Level / dB (re 20 µPa/V)  [2.83  V @ 1. m]"	"Frequency / Hz"	"Sound Pressure Level / dB (re 20 µPa/V)  [2.83  V @ 1. m]"	"Frequency / Hz"	"Sound Pressure Level / dB (re 20 µPa/V)  [2.83  V @ 1. m]"	"Frequency / Hz"	"Sound Pressure Level / dB (re 20 µPa/V)  [2.83  V @ 1. m]"	"Frequency / Hz"	"Sound Pressure Level / dB (re 20 µPa/V)  [2.83  V @ 1. m]"	"Frequency / Hz"	"Sound Pressure Level / dB (re 20 µPa/V)  [2.83  V @ 1. m]"	"Frequency / Hz"	"Sound Pressure Level / dB (re 20 µPa/V)  [2.83  V @ 1. m]"	"Frequency / Hz"	"Sound Pressure Level / dB (re 20 µPa/V)  [2.83  V @ 1. m]"	"Frequency / Hz"	"Sound Pressure Level / dB (re 20 µPa/V)  [2.83  V @ 1. m]"	"Frequency / Hz"	"Sound Pressure Level / dB (re 20 µPa/V)  [2.83  V @ 1. m]"	"Frequency / Hz"	"Sound Pressure Level / dB (re 20 µPa/V)  [2.83  V @ 1. m]"	"Frequency / Hz"	"Sound Pressure Level / dB (re 20 µPa/V)  [2.83  V @ 1. m]"	"Frequency / Hz"	"Sound Pressure Level / dB (re 20 µPa/V)  [2.83  V @ 1. m]"	"Frequency / Hz"	"Sound Pressure Level / dB (re 20 µPa/V)  [2.83  V @ 1. m]"
20.5078	58.3498	20.5078	58.5071	20.5078	58.2112	20.5078	58.6854	20.5078	58.0768	20.5078	58.8773	20.5078	57.9227	20.5078	59.0701	20.5078	57.7214	20.5078	59.2502	20.5078	57.4463	20.5078	59.4054	20.5078	57.0722	20.5078	59.5245	20.5078	56.5685	20.5078	59.5973	20.5078	55.8857	20.5078	59.6135	20.5078	54.933	20.5078	59.5627	20.5078	53.5427	20.5078	59.4343	20.5078	51.394	20.5078	59.2183	20.5078	47.7526	20.5078	58.9059	20.5078	39.8402	20.5078	58.4901	20.5078	36.2813	20.5078	57.9638	20.5078	46.8483	20.5078	57.3093	20.5078	51.2079	20.5078	56.4771	20.5078	53.7317	20.5078	55.3555
21.9727	58.2799	21.9727	58.8334	21.9727	57.7899	21.9727	59.4295	21.9727	57.3855	21.9727	60.0483	21.9727	57.0903	21.9727	60.6705	21.9727	56.9293	21.9727	61.2778	21.9727	56.9284	21.9727	61.8528	21.9727	57.1117	21.9727	62.3812	21.9727	57.4958	21.9727	62.8528	21.9727	58.0828	21.9727	63.2642	21.9727	58.8537	21.9727	63.6195	21.9727	59.7657	21.9727	63.9291	21.9727	60.7566	21.9727	64.2058	21.9727	61.7544	21.9727	64.4597	21.9727	62.6897	21.9727	64.6932	21.9727	63.5062	21.9727	64.8978	21.9727	64.1661	21.9727	65.0551	21.9727	64.652	21.9727	65.1386	21.9727	64.9643	21.9727	65.1183
23.4375	50.3043	23.4375	50.4989	23.4375	50.1199	23.4375	50.6964	23.4375	49.9443	23.4375	50.8878	23.4375	49.7624	23.4375	51.0671	23.4375	49.5422	23.4375	51.2336	23.4375	49.2368	23.4375	51.3902	23.4375	48.7914	23.4375	51.5411	23.4375	48.1632	23.4375	51.6878	23.4375	47.3712	23.4375	51.8284	23.4375	46.6072	23.4375	51.9607	23.4375	46.3336	23.4375	52.0872	23.4375	46.9697	23.4375	52.2182	23.4375	48.3023	23.4375	52.3694	23.4375	49.7779	23.4375	52.552	23.4375	51.0527	23.4375	52.7609	23.4375	52.0158	23.4375	52.9674	23.4375	52.6631	23.4375	53.1217	23.4375	53.0291	23.4375	53.163
24.9023	47.5484	24.9023	47.8906	24.9023	47.4868	24.9023	48.4185	24.9023	47.749	24.9023	49.0393	24.9023	48.2878	24.9023	49.686	24.9023	48.989	24.9023	50.3174	24.9023	49.7337	24.9023	50.9106	24.9023	50.4411	24.9023	51.4563	24.9023	51.0782	24.9023	51.957	24.9023	51.6508	24.9023	52.4243	24.9023	52.187	24.9023	52.875	24.9023	52.7176	24.9023	53.3244	24.9023	53.2582	24.9023	53.7806	24.9023	53.8037	24.9023	54.2408	24.9023	54.334	24.9023	54.6907	24.9023	54.8239	24.9023	55.1055	24.9023	55.2456	24.9023	55.4524	24.9023	55.5681	24.9023	55.6956	24.9023	55.761	24.9023	55.8042
26.3672	55.7893	26.3672	55.8484	26.3672	55.7554	26.3672	55.9231	26.3672	55.755	26.3672	56.0059	26.3672	55.7898	26.3672	56.0935	26.3672	55.8507	26.3672	56.1865	26.3672	55.9191	26.3672	56.2872	26.3672	55.9725	26.3672	56.3991	26.3672	55.994	26.3672	56.524	26.3672	55.9807	26.3672	56.6617	26.3672	55.9498	26.3672	56.8102	26.3672	55.9383	26.3672	56.9669	26.3672	55.993	26.3672	57.1293	26.3672	56.1524	26.3672	57.2954	26.3672	56.4244	26.3672	57.4605	26.3672	56.7765	26.3672	57.6152	26.3672	57.1466	26.3672	57.742	26.3672	57.4686	26.3672	57.816	26.3672	57.6953	26.3672	57.8084
27.832	52.3119	27.832	52.4736	27.832	52.1586	27.832	52.6349	27.832	52.0319	27.832	52.7934	27.832	51.9613	27.832	52.9496	27.832	51.9851	27.832	53.1037	27.832	52.1426	27.832	53.2536	27.832	52.461	27.832	53.396	27.832	52.9396	27.832	53.5278	27.832	53.543	27.832	53.6516	27.832	54.2078	27.832	53.7783	27.832	54.8616	27.832	53.9281	27.832	55.4427	27.832	54.1251	27.832	55.9117	27.832	54.3878	27.832	56.2536	27.832	54.7195	27.832	56.4703	27.832	55.1037	27.832	56.5697	27.832	55.5069	27.832	56.5569	27.832	55.8875	27.832	56.4341	27.832	56.206
29.2969	55.2165	29.2969	55.5689	29.2969	54.8493	29.2969	55.8975	29.2969	54.4853	29.2969	56.1991	29.2969	54.1532	29.2969	56.4729	29.2969	53.8916	29.2969	56.718	29.2969	53.7444	29.2969	56.9317	29.2969	53.7504	29.2969	57.1098	29.2969	53.9331	29.2969	57.2491	29.2969	54.2906	29.2969	57.3508	29.2969	54.7939	29.2969	57.4239	29.2969	55.393	29.2969	57.4845	29.2969	56.0281	29.2969	57.5523	29.2969	56.6425	29.2969	57.6434	29.2969	57.1908	29.2969	57.765	29.2969	57.6424	29.2969	57.9121	29.2969	57.9797	29.2969	58.0671	29.2969	58.196	29.2969	58.2034	29.2969	58.2946	29.2969	58.2893
30.7617	52.2253	30.7617	52.2259	30.7617	52.2206	30.7617	52.2279	30.7617	52.2046	30.7617	52.2355	30.7617	52.1673	30.7617	52.2523	30.7617	52.0967	30.7617	52.2804	30.7617	51.9819	30.7617	52.3172	30.7617	51.8165	30.7617	52.3545	30.7617	51.603	30.7617	52.3799	30.7617	51.3551	30.7617	52.3817	30.7617	51.0987	30.7617	52.3543	30.7617	50.8701	30.7617	52.2997	30.7617	50.71	30.7617	52.2253	30.7617	50.6532	30.7617	52.1397	30.7617	50.7141	30.7617	52.0504	30.7617	50.876	30.7617	51.9617	30.7617	51.0955	30.7617	51.8739	30.7617	51.3213	30.7617	51.7801	30.7617	51.5159	30.7617	51.6663
32.2266	53.1124	32.2266	52.8172	32.2266	53.3772	32.2266	52.4962	32.2266	53.6096	32.2266	52.159	32.2266	53.8099	32.2266	51.8209	32.2266	53.9794	32.2266	51.5037	32.2266	54.1206	32.2266	51.2325	32.2266	54.2365	32.2266	51.0307	32.2266	54.3304	32.2266	50.9127	32.2266	54.404	32.2266	50.8794	32.2266	54.4543	32.2266	50.9167	32.2266	54.4697	32.2266	51.0002	32.2266	54.429	32.2266	51.1029	32.2266	54.3064	32.2266	51.2054	32.2266	54.0815	32.2266	51.3034	32.2266	53.751	32.2266	51.4104	32.2266	53.3362	32.2266	51.5532	32.2266	52.8806	32.2266	51.7619	32.2266	52.4386	32.2266	52.057
33.6914	53.6964	33.6914	53.3999	33.6914	53.9412	33.6914	53.0561	33.6914	54.1282	33.6914	52.6686	33.6914	54.2491	33.6914	52.2423	33.6914	54.2933	33.6914	51.7851	33.6914	54.2483	33.6914	51.3087	33.6914	54.1012	33.6914	50.827	33.6914	53.8403	33.6914	50.3537	33.6914	53.4603	33.6914	49.9001	33.6914	52.9679	33.6914	49.4748	33.6914	52.3854	33.6914	49.0848	33.6914	51.748	33.6914	48.7358	33.6914	51.094	33.6914	48.4335	33.6914	50.4519	33.6914	48.1847	33.6914	49.8387	33.6914	48.0014	33.6914	49.2683	33.6914	47.9034	33.6914	48.7622	33.6914	47.9167	33.6914	48.3508	33.6914	48.0638
35.1562	56.0119	35.1562	55.6296	35.1562	56.4243	35.1562	55.2937	35.1562	56.8484	35.1562	55.0154	35.1562	57.2658	35.1562	54.7996	35.1562	57.6596	35.1562	54.6444	35.1562	58.0157	35.1562	54.5421	35.1562	58.3222	35.1562	54.4823	35.1562	58.5698	35.1562	54.4548	35.1562	58.7507	35.1562	54.4531	35.1562	58.8586	35.1562	54.4753	35.1562	58.8874	35.1562	54.5242	35.1562	58.8311	35.1562	54.6057	35.1562	58.6835	35.1562	54.7281	35.1562	58.4408	35.1562	54.901	35.1562	58.1051	35.1562	55.1343	35.1562	57.6889	35.1562	55.4356	35.1562	57.2167	35.1562	55.8072	35.1562	56.7224	35.1562	56.2424
36.6211	59.351	36.6211	59.268	36.6211	59.4175	36.6211	59.1715	36.6211	59.4633	36.6211	59.0646	36.6211	59.4838	36.6211	58.9504	36.6211	59.4733	36.6211	58.8324	36.6211	59.427	36.6211	58.7142	36.6211	59.3417	36.6211	58.5993	36.6211	59.2178	36.6211	58.4902	36.6211	59.0607	36.6211	58.389	36.6211	58.8807	36.6211	58.2971	36.6211	58.6924	36.6211	58.2155	36.6211	58.5114	36.6211	58.1449	36.6211	58.3516	36.6211	58.0864	36.6211	58.2217	36.6211	58.0409	36.6211	58.125	36.6211	58.0089	36.6211	58.0591	36.6211	57.99	36.6211	58.0182	36.6211	57.9823	36.6211	57.9951	36.6211	57.9841
38.0859	61.224	38.0859	61.225	38.0859	61.2111	38.0859	61.2132	38.0859	61.1861	38.0859	61.1866	38.0859	61.1469	38.0859	61.1429	38.0859	61.0907	38.0859	61.0805	38.0859	61.0141	38.0859	60.9986	38.0859	60.914	38.0859	60.8975	38.0859	60.7882	38.0859	60.78	38.0859	60.6365	38.0859	60.6505	38.0859	60.4613	38.0859	60.5151	38.0859	60.2689	38.0859	60.3799	38.0859	60.0701	38.0859	60.2489	38.0859	59.8786	38.0859	60.1232	38.0859	59.7096	38.0859	60.0012	38.0859	59.5768	38.0859	59.8801	38.0859	59.4912	38.0859	59.7598	38.0859	59.4591	38.0859	59.6451	38.0859	59.4804	38.0859	59.547
39.5508	62.8939	39.5508	62.8782	39.5508	62.8779	39.5508	62.8311	39.5508	62.8306	39.5508	62.7535	39.5508	62.7538	39.5508	62.6458	39.5508	62.6514	39.5508	62.5082	39.5508	62.5296	39.5508	62.3405	39.5508	62.396	39.5508	62.1427	39.5508	62.2591	39.5508	61.9162	39.5508	62.1257	39.5508	61.6652	39.5508	61.9987	39.5508	61.398	39.5508	61.8741	39.5508	61.127	39.5508	61.7409	39.5508	60.8677	39.5508	61.5846	39.5508	60.6362	39.5508	61.3939	39.5508	60.4471	39.5508	61.1682	39.5508	60.3124	39.5508	60.9214	39.5508	60.242	39.5508	60.679	39.5508	60.2435	39.5508	60.4707	39.5508	60.3208
41.0156	65.6493	41.0156	65.6582	41.0156	65.5914	41.0156	65.6214	41.0156	65.4818	41.0156	65.5419	41.0156	65.3178	41.0156	65.4236	41.0156	65.0977	41.0156	65.2706	41.0156	64.8204	41.0156	65.0877	41.0156	64.4866	41.0156	64.8797	41.0156	64.0996	41.0156	64.651	41.0156	63.6669	41.0156	64.4045	41.0156	63.2024	41.0156	64.1409	41.0156	62.7272	41.0156	63.8594	41.0156	62.269	41.0156	63.5579	41.0156	61.8584	41.0156	63.2348	41.0156	61.5244	41.0156	62.8911	41.0156	61.2906	41.0156	62.532	41.0156	61.1727	41.0156	62.1693	41.0156	61.1769	41.0156	61.8238	41.0156	61.2992	41.0156	61.5235
42.4805	66.5011	42.4805	66.479	42.4805	66.4882	42.4805	66.4234	42.4805	66.4397	42.4805	66.3371	42.4805	66.3567	42.4805	66.2237	42.4805	66.2421	42.4805	66.0875	42.4805	66.1004	42.4805	65.9338	42.4805	65.938	42.4805	65.7686	42.4805	65.7624	42.4805	65.5984	42.4805	65.5825	42.4805	65.4297	42.4805	65.4083	42.4805	65.2693	42.4805	65.2503	42.4805	65.1241	42.4805	65.1177	42.4805	65.0003	42.4805	65.0163	42.4805	64.903	42.4805	64.946	42.4805	64.8349	42.4805	64.9012	42.4805	64.796	42.4805	64.8724	42.4805	64.7827	42.4805	64.8501	42.4805	64.7889	42.4805	64.8283	42.4805	64.8065
43.9453	68.5849	43.9453	68.563	43.9453	68.56	43.9453	68.4959	43.9453	68.4875	43.9453	68.3867	43.9453	68.3684	43.9453	68.2401	43.9453	68.2056	43.9453	68.0621	43.9453	68.0044	43.9453	67.861	43.9453	67.7727	43.9453	67.6464	43.9453	67.5222	43.9453	67.4294	43.9453	67.2677	43.9453	67.221	43.9453	67.0265	43.9453	67.0314	43.9453	66.816	43.9453	66.8682	43.9453	66.6498	43.9453	66.7362	43.9453	66.5349	43.9453	66.6372	43.9453	66.4695	43.9453	66.5694	43.9453	66.4444	43.9453	66.5281	43.9453	66.446	43.9453	66.5063	43.9453	66.4601	43.9453	66.4953	43.9453	66.4756	43.9453	66.487
45.4102	69.9663	45.4102	69.9787	45.4102	69.9244	45.4102	69.9607	45.4102	69.8549	45.4102	69.9121	45.4102	69.7601	45.4102	69.8334	45.4102	69.6434	45.4102	69.7256	45.4102	69.5094	45.4102	69.5907	45.4102	69.3632	45.4102	69.4317	45.4102	69.2109	45.4102	69.2529	45.4102	69.0584	45.4102	69.0606	45.4102	68.9116	45.4102	68.8634	45.4102	68.7759	45.4102	68.6717	45.4102	68.6554	45.4102	68.4971	45.4102	68.5523	45.4102	68.3501	45.4102	68.4663	45.4102	68.2391	45.4102	68.3942	45.4102	68.1686	45.4102	68.3311	45.4102	68.138	45.4102	68.2729	45.4102	68.1423	45.4102	68.2188	45.4102	68.1726
46.875	71.6979	46.875	71.725	46.875	71.6413	46.875	71.7226	46.875	71.557	46.875	71.6916	46.875	71.4476	46.875	71.6338	46.875	71.317	46.875	71.5524	46.875	71.1705	46.875	71.4508	46.875	71.0143	46.875	71.3331	46.875	70.856	46.875	71.2036	46.875	70.7035	46.875	71.0668	46.875	70.565	46.875	70.9276	46.875	70.447	46.875	70.7912	46.875	70.3538	46.875	70.6626	46.875	70.2865	46.875	70.5468	46.875	70.2431	46.875	70.4479	46.875	70.2193	46.875	70.3682	46.875	70.2101	46.875	70.3081	46.875	70.2114	46.875	70.2658	46.875	70.2205	46.875	70.2379
48.3398	73.0614	48.3398	73.0957	48.3398	72.9949	48.3398	73.0974	48.3398	72.8977	48.3398	73.067	48.3398	72.7726	48.3398	73.0058	48.3398	72.6239	48.3398	72.916	48.3398	72.457	48.3398	72.8004	48.3398	72.2786	48.3398	72.6631	48.3398	72.0964	48.3398	72.5086	48.3398	71.9182	48.3398	72.3428	48.3398	71.7513	48.3398	72.1721	48.3398	71.602	48.3398	72.0031	48.3398	71.4746	48.3398	71.8423	48.3398	71.3715	48.3398	71.695	48.3398	71.2934	48.3398	71.5652	48.3398	71.2399	48.3398	71.455	48.3398	71.2098	48.3398	71.3652	48.3398	71.2015	48.3398	71.2954	48.3398	71.2136	48.3398	71.245
51.2695	76.0143	51.2695	76.042	51.2695	75.9454	51.2695	76.0277	51.2695	75.8373	51.2695	75.9722	51.2695	75.6936	51.2695	75.877	51.2695	75.5192	51.2695	75.7451	51.2695	75.3202	51.2695	75.5806	51.2695	75.1044	51.2695	75.3888	51.2695	74.8802	51.2695	75.1761	51.2695	74.6569	51.2695	74.9496	51.2695	74.4435	51.2695	74.7177	51.2695	74.2478	51.2695	74.489	51.2695	74.0754	51.2695	74.2728	51.2695	73.9293	51.2695	74.0774	51.2695	73.8099	51.2695	73.9102	51.2695	73.7162	51.2695	73.7762	51.2695	73.647	51.2695	73.6776	51.2695	73.6011	51.2695	73.6138	51.2695	73.579	51.2695	73.5821
52.7344	77.2813	52.7344	77.315	52.7344	77.2061	52.7344	77.3064	52.7344	77.0917	52.7344	77.256	52.7344	76.9417	52.7344	77.1657	52.7344	76.7613	52.7344	77.0386	52.7344	76.5572	52.7344	76.879	52.7344	76.3373	52.7344	76.6926	52.7344	76.1107	52.7344	76.4859	52.7344	75.8872	52.7344	76.2671	52.7344	75.6771	52.7344	76.045	52.7344	75.4895	52.7344	75.8291	52.7344	75.3316	52.7344	75.6289	52.7344	75.2071	52.7344	75.4524	52.7344	75.1163	52.7344	75.3054	52.7344	75.0561	52.7344	75.1907	52.7344	75.021	52.7344	75.1075	52.7344	75.0054	52.7344	75.0525	52.7344	75.0053	52.7344	75.0201
54.1992	78.4764	54.1992	78.5319	54.1992	78.3837	54.1992	78.5488	54.1992	78.2568	54.1992	78.5272	54.1992	78.1003	54.1992	78.4685	54.1992	77.9201	54.1992	78.3752	54.1992	77.7237	54.1992	78.251	54.1992	77.5194	54.1992	78.1006	54.1992	77.3162	54.1992	77.9297	54.1992	77.1229	54.1992	77.745	54.1992	76.9477	54.1992	77.5538	54.1992	76.797	54.1992	77.3639	54.1992	76.6753	54.1992	77.1831	54.1992	76.5842	54.1992	77.0184	54.1992	76.5231	54.1992	76.8752	54.1992	76.4889	54.1992	76.7564	54.1992	76.4772	54.1992	76.6624	54.1992	76.4833	54.1992	76.5913	54.1992	76.5044	54.1992	76.5397
55.6641	79.7048	55.6641	79.7452	55.6641	79.6256	55.6641	79.7464	55.6641	79.5098	55.6641	79.7096	55.6641	79.3616	55.6641	79.6377	55.6641	79.1871	55.6641	79.5345	55.6641	78.9943	55.6641	79.4054	55.6641	78.7925	55.6641	79.2563	55.6641	78.5919	55.6641	79.0939	55.6641	78.4023	55.6641	78.9249	55.6641	78.2326	55.6641	78.7561	55.6641	78.0895	55.6641	78.5934	55.6641	77.9767	55.6641	78.4423	55.6641	77.8956	55.6641	78.3071	55.6641	77.8445	55.6641	78.1902	55.6641	77.8201	55.6641	78.0925	55.6641	77.8176	55.6641	78.0128	55.6641	77.832	55.6641	77.9489	55.6641	77.8596	55.6641	77.8985
58.5938	82.1211	58.5938	82.1552	58.5938	82.0509	58.5938	82.152	58.5938	81.9471	58.5938	82.1121	58.5938	81.8136	58.5938	82.0373	58.5938	81.6557	58.5938	81.931	58.5938	81.4797	58.5938	81.7977	58.5938	81.2925	58.5938	81.6431	58.5938	81.102	58.5938	81.4736	58.5938	80.9158	58.5938	81.2961	58.5938	80.7409	58.5938	81.1174	58.5938	80.5831	58.5938	80.944	58.5938	80.4466	58.5938	80.7812	58.5938	80.3339	58.5938	80.6332	58.5938	80.2461	58.5938	80.5026	58.5938	80.1836	58.5938	80.3908	58.5938	80.1459	58.5938	80.2983	58.5938	80.1323	58.5938	80.2256	58.5938	80.1418	58.5938	80.1732
60.0586	83.1935	60.0586	83.2388	60.0586	83.1102	60.0586	83.2446	60.0586	82.9917	60.0586	83.2112	60.0586	82.8421	60.0586	83.1402	60.0586	82.6673	60.0586	83.0345	60.0586	82.4745	60.0586	82.8984	60.0586	82.2719	60.0586	82.7375	60.0586	82.0686	60.0586	82.5585	60.0586	81.8735	60.0586	82.3693	60.0586	81.6947	60.0586	82.1779	60.0586	81.5386	60.0586	81.9924	60.0586	81.4097	60.0586	81.8199	60.0586	81.3098	60.0586	81.666	60.0586	81.239	60.0586	81.5342	60.0586	81.1951	60.0586	81.4258	60.0586	81.1752	60.0586	81.3399	60.0586	81.1756	60.0586	81.2741	60.0586	81.193	60.0586	81.2258
62.9883	85.1551	62.9883	85.1881	62.9883	85.0852	62.9883	85.1827	62.9883	84.9814	62.9883	85.1391	62.9883	84.8482	62.9883	85.0593	62.9883	84.6919	62.9883	84.9466	62.9883	84.5198	62.9883	84.8059	62.9883	84.3398	62.9883	84.6433	62.9883	84.1602	62.9883	84.4663	62.9883	83.9886	62.9883	84.2828	62.9883	83.8314	62.9883	84.101	62.9883	83.6932	62.9883	83.9285	62.9883	83.5766	62.9883	83.7718	62.9883	83.4821	62.9883	83.6358	62.9883	83.409	62.9883	83.5232	62.9883	83.3552	62.9883	83.4348	62.9883	83.3186	62.9883	83.3696	62.9883	83.2975	62.9883	83.3255	62.9883	83.2913	62.9883	83.3002
64.4531	86.0687	64.4531	86.101	64.4531	86.0007	64.4531	86.0961	64.4531	85.9003	64.4531	86.0543	64.4531	85.772	64.4531	85.9774	64.4531	85.6221	64.4531	85.8687	64.4531	85.458	64.4531	85.7329	64.4531	85.2873	64.4531	85.5761	64.4531	85.118	64.4531	85.4055	64.4531	84.9568	64.4531	85.2287	64.4531	84.8092	64.4531	85.0537	64.4531	84.6788	64.4531	84.8876	64.4531	84.5673	64.4531	84.7367	64.4531	84.4749	64.4531	84.6054	64.4531	84.4006	64.4531	84.4962	64.4531	84.3434	64.4531	84.4096	64.4531	84.3024	64.4531	84.3451	64.4531	84.2772	64.4531	84.301	64.4531	84.2682	64.4531	84.2758
67.3828	87.9458	67.3828	87.9778	67.3828	87.8724	67.3828	87.9671	67.3828	87.7603	67.3828	87.9142	67.3828	87.6144	67.3828	87.8211	67.3828	87.4408	67.3828	87.6913	67.3828	87.2472	67.3828	87.53	67.3828	87.0426	67.3828	87.3437	67.3828	86.8363	67.3828	87.1405	67.3828	86.6373	67.3828	86.9293	67.3828	86.4537	67.3828	86.7196	67.3828	86.2913	67.3828	86.5207	67.3828	86.1539	67.3828	86.3406	67.3828	86.0428	67.3828	86.1855	67.3828	85.9572	67.3828	86.0588	67.3828	85.8947	67.3828	85.9614	67.3828	85.8521	67.3828	85.8918	67.3828	85.8267	67.3828	85.8469	67.3828	85.817	67.3828	85.823
68.8477	88.7962	68.8477	88.825	68.8477	88.7266	68.8477	88.8113	68.8477	88.6195	68.8477	88.7554	68.8477	88.48	68.8477	88.6589	68.8477	88.3144	68.8477	88.5252	68.8477	88.1307	68.8477	88.3596	68.8477	87.9377	68.8477	88.169	68.8477	87.7444	68.8477	87.9618	68.8477	87.5593	68.8477	87.7477	68.8477	87.3894	68.8477	87.537	68.8477	87.2397	68.8477	87.3398	68.8477	87.1128	68.8477	87.1646	68.8477	87.0087	68.8477	87.0179	68.8477	86.9256	68.8477	86.903	68.8477	86.8604	68.8477	86.8204	68.8477	86.8101	68.8477	86.7677	68.8477	86.7726	68.8477	86.7411	68.8477	86.7473	68.8477	86.7357
71.7773	90.3396	71.7773	90.3728	71.7773	90.2646	71.7773	90.3618	71.7773	90.152	71.7773	90.3062	71.7773	90.0079	71.7773	90.2074	71.7773	89.8399	71.7773	90.069	71.7773	89.6567	71.7773	89.8964	71.7773	89.4676	71.7773	89.6971	71.7773	89.2815	71.7773	89.48	71.7773	89.1059	71.7773	89.2556	71.7773	88.9463	71.7773	89.035	71.7773	88.8056	71.7773	88.8289	71.7773	88.6842	71.7773	88.6467	71.7773	88.5804	71.7773	88.4953	71.7773	88.4918	71.7773	88.3784	71.7773	88.4159	71.7773	88.2966	71.7773	88.3514	71.7773	88.2479	71.7773	88.2982	71.7773	88.2283	71.7773	88.2578	71.7773	88.2332
74.707	91.818	74.707	91.8622	74.707	91.729	74.707	91.8591	74.707	91.5996	74.707	91.8082	74.707	91.4359	74.707	91.7107	74.707	91.246	74.707	91.5697	74.707	91.0391	74.707	91.3905	74.707	90.8257	74.707	91.1801	74.707	90.6161	74.707	90.9476	74.707	90.4197	74.707	90.7036	74.707	90.2439	74.707	90.4599	74.707	90.0931	74.707	90.2288	74.707	89.9684	74.707	90.0216	74.707	89.8677	74.707	89.8476	74.707	89.787	74.707	89.713	74.707	89.7213	74.707	89.62	74.707	89.6662	74.707	89.5665	74.707	89.6192	74.707	89.5473	74.707	89.5808	74.707	89.5546
77.6367	93.0508	77.6367	93.1133	77.6367	92.9433	77.6367	93.1285	77.6367	92.7951	77.6367	93.0959	77.6367	92.6122	77.6367	93.0168	77.6367	92.4025	77.6367	92.8941	77.6367	92.1756	77.6367	92.7326	77.6367	91.942	77.6367	92.5386	77.6367	91.7125	77.6367	92.3199	77.6367	91.4966	77.6367	92.0859	77.6367	91.3023	77.6367	91.8465	77.6367	91.1344	77.6367	91.612	77.6367	90.9947	77.6367	91.3921	77.6367	90.8824	77.6367	91.1949	77.6367	90.7948	77.6367	91.0263	77.6367	90.7293	77.6367	90.8897	77.6367	90.6837	77.6367	90.7858	77.6367	90.6577	77.6367	90.7134	77.6367	90.6524	77.6367	90.67
79.1016	93.5587	79.1016	93.6129	79.1016	93.4592	79.1016	93.6203	79.1016	93.3178	79.1016	93.5808	79.1016	93.14	79.1016	93.4963	79.1016	92.9327	79.1016	93.3702	79.1016	92.7049	79.1016	93.2073	79.1016	92.4664	79.1016	93.014	79.1016	92.2279	79.1016	92.7979	79.1016	91.9995	79.1016	92.5674	79.1016	91.7902	79.1016	92.3318	79.1016	91.6063	79.1016	92.1004	79.1016	91.4519	79.1016	91.882	79.1016	91.3278	79.1016	91.6842	79.1016	91.2328	79.1016	91.5128	79.1016	91.1646	79.1016	91.371	79.1016	91.1208	79.1016	91.2603	79.1016	91.0999	79.1016	91.1799	79.1016	91.1019	79.1016	91.1279
82.0312	94.374	82.0312	94.4122	82.0312	94.2928	82.0312	94.4051	82.0312	94.1731	82.0312	94.3525	82.0312	94.0212	82.0312	94.2565	82.0312	93.8454	82.0312	94.121	82.0312	93.6548	82.0312	93.9522	82.0312	93.4594	82.0312	93.7581	82.0312	93.2685	82.0312	93.5481	82.0312	93.0903	82.0312	93.3325	82.0312	92.9309	82.0312	93.1218	82.0312	92.7937	82.0312	92.9259	82.0312	92.6797	82.0312	92.753	82.0312	92.5874	82.0312	92.6087	82.0312	92.5137	82.0312	92.4962	82.0312	92.4551	82.0312	92.4156	82.0312	92.4086	82.0312	92.3647	82.0312	92.3727	82.0312	92.3394	82.0312	92.3475	82.0312	92.3352
84.9609	95.2118	84.9609	95.2696	84.9609	95.1076	84.9609	95.2774	84.9609	94.9631	84.9609	95.2345	84.9609	94.787	84.9609	95.1424	84.9609	94.5904	84.9609	95.0054	84.9609	94.3862	84.9609	94.8299	84.9609	94.1875	84.9609	94.6252	84.9609	94.0064	84.9609	94.4021	84.9609	93.8518	84.9609	94.1735	84.9609	93.7286	84.9609	93.9529	84.9609	93.6367	84.9609	93.7527	84.9609	93.5719	84.9609	93.5837	84.9609	93.5268	84.9609	93.4529	84.9609	93.4931	84.9609	93.3627	84.9609	93.4634	84.9609	93.3116	84.9609	93.4325	84.9609	93.2941	84.9609	93.3983	84.9609	93.3024	84.9609	93.362	84.9609	93.3278
87.8906	96.2257	87.8906	96.3071	87.8906	96.0885	87.8906	96.3306	87.8906	95.8999	87.8906	96.2963	87.8906	95.6668	87.8906	96.2063	87.8906	95.3992	87.8906	96.0645	87.8906	95.1098	87.8906	95.8769	87.8906	94.8138	87.8906	95.6515	87.8906	94.5278	87.8906	95.3983	87.8906	94.268	87.8906	95.1289	87.8906	94.0478	87.8906	94.8565	87.8906	93.8755	87.8906	94.5947	87.8906	93.7529	87.8906	94.3559	87.8906	93.6759	87.8906	94.1503	87.8906	93.6354	87.8906	93.984	87.8906	93.6209	87.8906	93.8583	87.8906	93.6224	87.8906	93.7697	87.8906	93.6329	87.8906	93.711	87.8906	93.6495	87.8906	93.6737
90.8203	96.6875	90.8203	96.7297	90.8203	96.5958	90.8203	96.7206	90.8203	96.4588	90.8203	96.6602	90.8203	96.2827	90.8203	96.5511	90.8203	96.0756	90.8203	96.3976	90.8203	95.8474	90.8203	96.2063	90.8203	95.609	90.8203	95.9858	90.8203	95.3717	90.8203	95.7461	90.8203	95.1464	90.8203	95.4984	90.8203	94.9421	90.8203	95.2541	90.8203	94.7652	90.8203	95.0243	90.8203	94.6188	90.8203	94.8181	90.8203	94.5027	90.8203	94.6425	90.8203	94.414	90.8203	94.5013	90.8203	94.3485	90.8203	94.3951	90.8203	94.3021	90.8203	94.3218	90.8203	94.2716	90.8203	94.2774	90.8203	94.2562	90.8203	94.257
95.2148	97.3379	95.2148	97.4066	95.2148	97.2162	95.2148	97.4187	95.2148	97.0482	95.2148	97.3733	95.2148	96.8434	95.2148	97.2725	95.2148	96.6141	95.2148	97.1209	95.2148	96.3742	95.2148	96.926	95.2148	96.1388	95.2148	96.698	95.2148	95.9217	95.2148	96.4493	95.2148	95.7341	95.2148	96.1941	95.2148	95.5826	95.2148	95.9477	95.2148	95.4689	95.2148	95.7243	95.2148	95.3895	95.2148	95.5356	95.2148	95.3375	95.2148	95.389	95.2148	95.3045	95.2148	95.2866	95.2148	95.2821	95.2148	95.2252	95.2148	95.2635	95.2148	95.1977	95.2148	95.2448	95.2148	95.1945	95.2148	95.2249	95.2148	95.2063
98.1445	97.7766	98.1445	97.8501	98.1445	97.6461	98.1445	97.8635	98.1445	97.4649	98.1445	97.8164	98.1445	97.2423	98.1445	97.7113	98.1445	96.9908	98.1445	97.5531	98.1445	96.7255	98.1445	97.3495	98.1445	96.4633	98.1445	97.1111	98.1445	96.2209	98.1445	96.8504	98.1445	96.0125	98.1445	96.5825	98.1445	95.8474	98.1445	96.323	98.1445	95.7289	98.1445	96.0874	98.1445	95.6537	98.1445	95.8886	98.1445	95.6133	98.1445	95.7351	98.1445	95.5966	98.1445	95.6295	98.1445	95.5922	98.1445	95.5685	98.1445	95.5903	98.1445	95.5436	98.1445	95.5845	98.1445	95.5436	98.1445	95.5724	98.1445	95.5565
101.074	98.1146	101.074	98.1919	101.074	97.976	101.074	98.2045	101.074	97.7822	101.074	98.1521	101.074	97.5429	101.074	98.0368	101.074	97.2708	101.074	97.8638	101.074	96.9818	101.074	97.641	101.074	96.6938	101.074	97.3794	101.074	96.4254	101.074	97.0927	101.074	96.193	101.074	96.7975	101.074	96.0082	101.074	96.5117	101.074	95.8758	101.074	96.253	101.074	95.793	101.074	96.0365	101.074	95.7505	101.074	95.872	101.074	95.7356	101.074	95.7621	101.074	95.7347	101.074	95.702	101.074	95.7364	101.074	95.6812	101.074	95.7327	101.074	95.686	101.074	95.7209	101.074	95.7029
105.469	98.8171	105.469	98.8889	105.469	98.6807	105.469	98.8934	105.469	98.4853	105.469	98.8307	105.469	98.2396	105.469	98.703	105.469	97.9555	105.469	98.5155	105.469	97.6481	105.469	98.2753	105.469	97.3349	105.469	97.9925	105.469	97.0337	105.469	97.6792	105.469	96.7608	105.469	97.3503	105.469	96.528	105.469	97.022	105.469	96.3407	105.469	96.7114	105.469	96.1975	105.469	96.4343	105.469	96.0917	105.469	96.2036	105.469	96.0139	105.469	96.027	105.469	95.9546	105.469	95.9061	105.469	95.9064	105.469	95.8361	105.469	95.8655	105.469	95.8078	105.469	95.8319	105.469	95.81
108.398	99.2723	108.398	99.3603	108.398	99.1184	108.398	99.3787	108.398	98.9049	108.398	99.3271	108.398	98.6421	108.398	99.2077	108.398	98.3433	108.398	99.0257	108.398	98.0251	108.398	98.7889	108.398	97.7063	108.398	98.5083	108.398	97.4056	108.398	98.1974	108.398	97.1396	108.398	97.8725	108.398	96.9194	108.398	97.5511	108.398	96.7491	108.398	97.2507	108.398	96.6257	108.398	96.9865	108.398	96.5409	108.398	96.7693	108.398	96.4841	108.398	96.604	108.398	96.4452	108.398	96.4894	108.398	96.4168	108.398	96.4193	108.398	96.395	108.398	96.3841	108.398	96.3796	108.398	96.3738
112.793	99.6273	112.793	99.727	112.793	99.4579	112.793	99.7538	112.793	99.2247	112.793	99.7075	112.793	98.9372	112.793	99.5905	112.793	98.6091	112.793	99.4076	112.793	98.2575	112.793	99.1666	112.793	97.9035	112.793	98.878	112.793	97.5695	112.793	98.5554	112.793	97.2764	112.793	98.2152	112.793	97.0399	112.793	97.8762	112.793	96.867	112.793	97.5573	112.793	96.7547	112.793	97.2763	112.793	96.6923	112.793	97.0462	112.793	96.6644	112.793	96.8735	112.793	96.6556	112.793	96.757	112.793	96.6538	112.793	96.6889	112.793	96.652	112.793	96.6568	112.793	96.6485	112.793	96.6473
117.188	99.884	117.188	99.9849	117.188	99.7105	117.188	100.01	117.188	99.471	117.188	99.9598	117.188	99.1756	117.188	99.8368	117.188	98.8387	117.188	99.6469	117.188	98.4783	117.188	99.3992	117.188	98.1161	117.188	99.1055	117.188	97.7749	117.188	98.7808	117.188	97.4763	117.188	98.4428	117.188	97.2367	117.188	98.1108	117.188	97.0639	117.188	97.8038	117.188	96.956	117.188	97.5381	117.188	96.9027	117.188	97.3248	117.188	96.8884	117.188	97.1678	117.188	96.8969	117.188	97.0635	117.188	96.9143	117.188	97.0021	117.188	96.9313	117.188	96.9704	117.188	96.9441	117.188	96.9548
120.117	100.104	120.117	100.194	120.117	99.9393	120.117	100.206	120.117	99.7057	120.117	100.14	120.117	99.4132	120.117	100.001	120.117	99.0758	120.117	99.7927	120.117	98.7119	120.117	99.5256	120.117	98.3431	120.117	99.2115	120.117	97.9934	120.117	98.8661	120.117	97.6849	120.117	98.508	120.117	97.4348	120.117	98.1581	120.117	97.2517	120.117	97.8374	120.117	97.1336	120.117	97.5642	120.117	97.0701	120.117	97.3507	120.117	97.0455	120.117	97.2006	120.117	97.0432	120.117	97.1087	120.117	97.0491	120.117	97.063	120.117	97.0537	120.117	97.0481	120.117	97.0531	120.117	97.0488
124.512	100.416	124.512	100.487	124.512	100.27	124.512	100.482	124.512	100.057	124.512	100.4	124.512	99.7851	124.512	100.245	124.512	99.4696	124.512	100.024	124.512	99.1282	124.512	99.7448	124.512	98.7826	124.512	99.4217	124.512	98.4559	124.512	99.0707	124.512	98.1699	124.512	98.7108	124.512	97.941	124.512	98.3637	124.512	97.7762	124.512	98.0508	124.512	97.6722	124.512	97.7911	124.512	97.6167	124.512	97.597	124.512	97.5923	124.512	97.4726	124.512	97.581	124.512	97.4123	124.512	97.5685	124.512	97.403	124.512	97.546	124.512	97.4276	124.512	97.5113	124.512	97.4686
128.906	100.559	128.906	100.638	128.906	100.404	128.906	100.636	128.906	100.179	128.906	100.554	128.906	99.8954	128.906	100.394	128.906	99.5695	128.906	100.162	128.906	99.2212	128.906	99.8675	128.906	98.8741	128.906	99.5242	128.906	98.5534	128.906	99.149	128.906	98.2815	128.906	98.7632	128.906	98.0737	128.906	98.3911	128.906	97.9341	128.906	98.0578	128.906	97.8552	128.906	97.7862	128.906	97.8204	128.906	97.5921	128.906	97.8091	128.906	97.4806	128.906	97.8016	128.906	97.4452	128.906	97.7827	128.906	97.4694	128.906	97.7441	128.906	97.5314	128.906	97.6843	128.906	97.6092
133.301	100.693	133.301	100.793	133.301	100.513	133.301	100.809	133.301	100.26	133.301	100.741	133.301	99.9457	133.301	100.59	133.301	99.5871	133.301	100.363	133.301	99.2053	133.301	100.07	133.301	98.8263	133.301	99.7227	133.301	98.4781	133.301	99.3395	133.301	98.187	133.301	98.9413	133.301	97.9711	133.301	98.5527	133.301	97.8361	133.301	98.1992	133.301	97.7733	133.301	97.9048	133.301	97.7625	133.301	97.6873	133.301	97.7783	133.301	97.5545	133.301	97.7965	133.301	97.5025	133.301	97.7983	133.301	97.5163	133.301	97.7735	133.301	97.5733	133.301	97.7211	133.301	97.6489
139.16	100.752	139.16	100.873	139.16	100.544	139.16	100.901	139.16	100.257	139.16	100.837	139.16	99.9018	139.16	100.684	139.16	99.4969	139.16	100.446	139.16	99.0651	139.16	100.134	139.16	98.6351	139.16	99.7617	139.16	98.2388	139.16	99.3484	139.16	97.9065	139.16	98.9174	139.16	97.6607	139.16	98.4965	139.16	97.5092	139.16	98.1143	139.16	97.4431	139.16	97.7971	139.16	97.4399	139.16	97.5628	139.16	97.471	139.16	97.4177	139.16	97.5091	139.16	97.3548	139.16	97.5336	139.16	97.356	139.16	97.5325	139.16	97.3972	139.16	97.5036	139.16	97.4535
143.555	100.707	143.555	100.823	143.555	100.5	143.555	100.845	143.555	100.211	143.555	100.773	143.555	99.8503	143.555	100.609	143.555	99.4363	143.555	100.36	143.555	98.9914	143.555	100.035	143.555	98.5437	143.555	99.65	143.555	98.1248	143.555	99.2225	143.555	97.7659	143.555	98.7761	143.555	97.4915	143.555	98.338	143.555	97.3127	143.555	97.9369	143.555	97.2244	143.555	97.5998	143.555	97.2066	143.555	97.3467	143.555	97.2305	143.555	97.1863	143.555	97.2669	143.555	97.1132	143.555	97.2919	143.555	97.1098	143.555	97.2913	143.555	97.1508	143.555	97.2615	143.555	97.2092
147.949	100.464	147.949	100.573	147.949	100.261	147.949	100.588	147.949	99.9743	147.949	100.507	147.949	99.6146	147.949	100.333	147.949	99.2002	147.949	100.075	147.949	98.7556	147.949	99.7411	147.949	98.3111	147.949	99.3478	147.949	97.9	147.949	98.9145	147.949	97.5534	147.949	98.4656	147.949	97.2928	147.949	98.0291	147.949	97.1249	147.949	97.634	147.949	97.0406	147.949	97.3064	147.949	97.0188	147.949	97.0645	147.949	97.0327	147.949	96.9145	147.949	97.0562	147.949	96.8496	147.949	97.0685	147.949	96.8521	147.949	97.057	147.949	96.8975	147.949	97.0188	147.949	96.9604
153.809	100.449	153.809	100.579	153.809	100.216	153.809	100.602	153.809	99.8884	153.809	100.518	153.809	99.4775	153.809	100.331	153.809	99.0034	153.809	100.047	153.809	98.4945	153.809	99.678	153.809	97.9885	153.809	99.2404	153.809	97.5297	153.809	98.758	153.809	97.1603	153.809	98.2613	153.809	96.9087	153.809	97.7856	153.809	96.7792	153.809	97.3674	153.809	96.7514	153.809	97.0371	153.809	96.7895	153.809	96.8122	153.809	96.855	153.809	96.6928	153.809	96.9162	153.809	96.6634	153.809	96.9517	153.809	96.6983	153.809	96.951	153.809	96.7687	153.809	96.9137	153.809	96.8478
159.668	100.671	159.668	100.783	159.668	100.456	159.668	100.787	159.668	100.143	159.668	100.684	159.668	99.7446	159.668	100.477	159.668	99.2761	159.668	100.173	159.668	98.762	159.668	99.7834	159.668	98.2353	159.668	99.3242	159.668	97.7376	159.668	98.8198	159.668	97.3151	159.668	98.3018	159.668	97.0079	159.668	97.8088	159.668	96.8366	159.668	97.382	159.668	96.7924	159.668	97.0575	159.668	96.8414	159.668	96.8558	159.668	96.9381	159.668	96.7752	159.668	97.0403	159.668	96.7929	159.668	97.117	159.668	96.8728	159.668	97.1502	159.668	96.9766	159.668	97.1338	159.668	97.0714
165.527	100.753	165.527	100.887	165.527	100.504	165.527	100.903	165.527	100.145	165.527	100.803	165.527	99.6871	165.527	100.588	165.527	99.1491	165.527	100.264	165.527	98.5602	165.527	99.8402	165.527	97.9618	165.527	99.3283	165.527	97.406	165.527	98.7483	165.527	96.9478	165.527	98.1298	165.527	96.6304	165.527	97.5148	165.527	96.47	165.527	96.9569	165.527	96.4491	165.527	96.5136	165.527	96.5245	165.527	96.23	165.527	96.6437	165.527	96.1206	165.527	96.7585	165.527	96.1618	165.527	96.8328	165.527	96.3029	165.527	96.8441	165.527	96.4852	165.527	96.7839	165.527	96.6575
171.387	100.698	171.387	100.847	171.387	100.437	171.387	100.882	171.387	100.069	171.387	100.803	171.387	99.604	171.387	100.611	171.387	99.056	171.387	100.31	171.387	98.4477	171.387	99.9055	171.387	97.8127	171.387	99.4074	171.387	97.1968	171.387	98.8311	171.387	96.6557	171.387	98.2005	171.387	96.2437	171.387	97.5515	171.387	95.9952	171.387	96.9329	171.387	95.9084	171.387	96.4031	171.387	95.9457	171.387	96.0171	171.387	96.05	171.387	95.8058	171.387	96.1647	171.387	95.7613	171.387	96.2469	171.387	95.8392	171.387	96.2707	171.387	95.9783	171.387	96.2267	171.387	96.1214
177.246	100.12	177.246	100.236	177.246	99.8932	177.246	100.238	177.246	99.5634	177.246	100.125	177.246	99.1416	177.246	99.9002	177.246	98.6437	177.246	99.5678	177.246	98.0918	177.246	99.1377	177.246	97.5153	177.246	98.6241	177.246	96.9531	177.246	98.0476	177.246	96.452	177.246	97.4363	177.246	96.0593	177.246	96.8271	177.246	95.8085	177.246	96.2646	177.246	95.7032	177.246	95.7971	177.246	95.7129	177.246	95.4665	177.246	95.7849	177.246	95.2949	177.246	95.8643	177.246	95.2739	177.246	95.9092	177.246	95.3665	177.246	95.8955	177.246	95.5203	177.246	95.8171	177.246	95.6838
183.105	99.7466	183.105	99.9043	183.105	99.469	183.105	99.9401	183.105	99.0781	183.105	99.8545	183.105	98.5868	183.105	99.6502	183.105	98.0172	183.105	99.332	183.105	97.4028	183.105	98.9079	183.105	96.789	183.105	98.39	183.105	96.23	183.105	97.7976	183.105	95.7797	183.105	97.1591	183.105	95.4785	183.105	96.5146	183.105	95.3407	183.105	95.916	183.105	95.3493	183.105	95.4224	183.105	95.4614	183.105	95.0879	183.105	95.6205	183.105	94.9432	183.105	95.7701	183.105	94.9795	183.105	95.8644	183.105	95.1491	183.105	95.8736	183.105	95.383	183.105	95.7867	183.105	95.6129
188.965	99.8291	188.965	99.9835	188.965	99.5407	188.965	100.004	188.965	99.1209	188.965	99.8906	188.965	98.5768	188.965	99.6477	188.965	97.9237	188.965	99.2801	188.965	97.1894	188.965	98.7967	188.965	96.4199	188.965	98.2121	188.965	95.6812	188.965	97.5491	188.965	95.0532	188.965	96.8414	188.965	94.609	188.965	96.1348	188.965	94.3869	188.965	95.4845	188.965	94.3732	188.965	94.947	188.965	94.5096	188.965	94.5683	188.965	94.7174	188.965	94.3716	188.965	94.9208	188.965	94.3506	188.965	95.0608	188.965	94.4687	188.965	95.1019	188.965	94.6664	188.965	95.0344	188.965	94.8753
196.289	100.395	196.289	100.531	196.289	100.119	196.289	100.528	196.289	99.7054	196.289	100.386	196.289	99.158	196.289	100.108	196.289	98.4858	196.289	99.7003	196.289	97.707	196.289	99.1664	196.289	96.8567	196.289	98.5144	196.289	95.9965	196.289	97.7553	196.289	95.2181	196.289	96.9089	196.289	94.6232	196.289	96.0116	196.289	94.2767	196.289	95.1275	196.289	94.1655	196.289	94.3527	196.289	94.2108	196.289	93.7949	196.289	94.318	196.289	93.5213	196.289	94.4148	196.289	93.5131	196.289	94.4592	196.289	93.6802	196.289	94.4315	196.289	93.9179	196.289	94.326	196.289	94.1481
203.613	100.211	203.613	100.358	203.613	99.9274	203.613	100.365	203.613	99.5135	203.613	100.232	203.613	98.9782	203.613	99.9606	203.613	98.3342	203.613	99.5576	203.613	97.6003	203.613	99.0332	203.613	96.8062	203.613	98.4027	203.613	95.9988	203.613	97.6864	203.613	95.2472	203.613	96.9096	203.613	94.6348	203.613	96.1032	203.613	94.2312	203.613	95.3053	203.613	94.0539	203.613	94.5652	203.613	94.0551	203.613	93.947	203.613	94.1476	203.613	93.5213	203.613	94.2436	203.613	93.3354	203.613	94.2794	203.613	93.378	203.613	94.2217	203.613	93.5763	203.613	94.0656	203.613	93.8331
210.938	99.9221	210.938	100.049	210.938	99.6625	210.938	100.04	210.938	99.2726	210.938	99.8942	210.938	98.7581	210.938	99.6128	210.938	98.1287	210.938	99.1982	210.938	97.4013	210.938	98.6577	210.938	96.604	210.938	98.0051	210.938	95.783	210.938	97.2633	210.938	95.0067	210.938	96.4669	210.938	94.3605	210.938	95.662	210.938	93.9194	210.938	94.9039	210.938	93.7081	210.938	94.2476	210.938	93.683	210.938	93.7381	210.938	93.757	210.938	93.4017	210.938	93.8423	210.938	93.2435	210.938	93.8769	210.938	93.2445	210.938	93.8323	210.938	93.362	210.938	93.7099	210.938	93.5372
218.262	99.198	218.262	99.3365	218.262	98.935	218.262	99.351	218.262	98.5481	218.262	99.2415	218.262	98.0411	218.262	99.0069	218.262	97.4232	218.262	98.6442	218.262	96.7115	218.262	98.1495	218.262	95.9346	218.262	97.5203	218.262	95.1357	218.262	96.7607	218.262	94.3742	218.262	95.8888	218.262	93.72	218.262	94.9491	218.262	93.2359	218.262	94.0222	218.262	92.9523	218.262	93.221	218.262	92.8519	218.262	92.6569	218.262	92.8793	218.262	92.3822	218.262	92.9648	218.262	92.3614	218.262	93.045	218.262	92.502	218.262	93.0734	218.262	92.705	218.262	93.0244	218.262	92.8948
225.586	98.8722	225.586	99.0702	225.586	98.534	225.586	99.1276	225.586	98.0585	225.586	99.0461	225.586	97.452	225.586	98.8294	225.586	96.7273	225.586	98.4825	225.586	95.9095	225.586	98.0111	225.586	95.0448	225.586	97.4201	225.586	94.211	225.586	96.7146	225.586	93.5162	225.586	95.9037	225.586	93.0685	225.586	95.0112	225.586	92.9166	225.586	94.0908	225.586	93.0141	225.586	93.242	225.586	93.2507	225.586	92.6017	225.586	93.5129	225.586	92.2864	225.586	93.7177	225.586	92.3119	225.586	93.8156	225.586	92.582	225.586	93.7827	225.586	92.9587	225.586	93.615	225.586	93.3274
232.91	98.7619	232.91	98.9794	232.91	98.3903	232.91	99.0439	232.91	97.8653	232.91	98.9578	232.91	97.1892	232.91	98.7262	232.91	96.3676	232.91	98.3563	232.91	95.4121	232.91	97.8579	232.91	94.3467	232.91	97.2421	232.91	93.2218	232.91	96.5201	232.91	92.1353	232.91	95.7024	232.91	91.2477	232.91	94.801	232.91	90.7382	232.91	93.837	232.91	90.6789	232.91	92.8578	232.91	90.9583	232.91	91.9589	232.91	91.3711	232.91	91.2855	232.91	91.745	232.91	90.9686	232.91	91.9813	232.91	91.0181	232.91	92.0396	232.91	91.3028	232.91	91.9178	232.91	91.6472
241.699	97.8886	241.699	98.0463	241.699	97.5828	241.699	98.0569	241.699	97.1293	241.699	97.9222	241.699	96.5305	241.699	97.6456	241.699	95.7922	241.699	97.2321	241.699	94.9257	241.699	96.6889	241.699	93.9526	241.699	96.0255	241.699	92.9131	241.699	95.2553	241.699	91.8786	241.699	94.3983	241.699	90.9554	241.699	93.4883	241.699	90.2629	241.699	92.5808	241.699	89.8816	241.699	91.7566	241.699	89.8118	241.699	91.1098	241.699	89.9819	241.699	90.7132	241.699	90.2844	241.699	90.5783	241.699	90.6065	241.699	90.6436	241.699	90.8534	241.699	90.8004	241.699	90.9669	241.699	90.9362
250.488	97.3049	250.488	97.4159	250.488	97.0261	250.488	97.3612	250.488	96.5786	250.488	97.144	250.488	95.9635	250.488	96.7693	250.488	95.1882	250.488	96.2453	250.488	94.2722	250.488	95.5849	250.488	93.2539	250.488	94.8069	250.488	92.1956	250.488	93.9385	250.488	91.1857	250.488	93.0167	250.488	90.3349	250.488	92.0877	250.488	89.7574	250.488	91.2041	250.488	89.5169	250.488	90.4194	250.488	89.5686	250.488	89.7849	250.488	89.7754	250.488	89.3487	250.488	89.9897	250.488	89.148	250.488	90.1116	250.488	89.1833	250.488	90.0964	250.488	89.3963	250.488	89.9421	250.488	89.6841
259.277	97.3008	259.277	97.4819	259.277	96.9475	259.277	97.4882	259.277	96.425	259.277	97.3174	259.277	95.7363	259.277	96.9682	259.277	94.8849	259.277	96.4401	259.277	93.8807	259.277	95.7348	259.277	92.7527	259.277	94.859	259.277	91.5734	259.277	93.8294	259.277	90.4822	259.277	92.6818	259.277	89.6706	259.277	91.484	259.277	89.2877	259.277	90.3508	259.277	89.3253	259.277	89.443	259.277	89.6298	259.277	88.9145	259.277	90.0155	259.277	88.8102	259.277	90.3436	259.277	89.0289	259.277	90.5365	259.277	89.4081	259.277	90.5658	259.277	89.8167	259.277	90.4371	259.277	90.1756
268.066	97.8433	268.066	98.0132	268.066	97.5105	268.066	98.0185	268.066	97.0179	268.066	97.8599	268.066	96.3695	268.066	97.5394	268.066	95.569	268.066	97.0602	268.066	94.6211	268.066	96.4239	268.066	93.5383	268.066	95.6304	268.066	92.3557	268.066	94.6784	268.066	91.1569	268.066	93.5708	268.066	90.0924	268.066	92.3253	268.066	89.3501	268.066	90.993	268.066	89.0467	268.066	89.6878	268.066	89.1297	268.066	88.6162	268.066	89.4212	268.066	88.0339	268.066	89.7384	268.066	88.0511	268.066	89.9585	268.066	88.4949	268.066	90.0182	268.066	89.0705	268.066	89.89	268.066	89.5665
276.855	98.7653	276.855	98.9237	276.855	98.4457	276.855	98.9194	276.855	97.9658	276.855	98.7507	276.855	97.3252	276.855	98.4163	276.855	96.5219	276.855	97.916	276.855	95.5538	276.855	97.2503	276.855	94.428	276.855	96.4179	276.855	93.1853	276.855	95.415	276.855	91.9457	276.855	94.2369	276.855	90.9364	276.855	92.8894	276.855	90.3959	276.855	91.4109	276.855	90.3593	276.855	89.9115	276.855	90.6305	276.855	88.6169	276.855	90.9808	276.855	87.8551	276.855	91.2586	276.855	87.8526	276.855	91.3719	276.855	88.4828	276.855	91.2582	276.855	89.3808	276.855	90.8799	276.855	90.2348
287.109	99.4	287.109	99.5878	287.109	99.0603	287.109	99.6245	287.109	98.5668	287.109	99.5111	287.109	97.9162	287.109	99.2503	287.109	97.1029	287.109	98.8475	287.109	96.1164	287.109	98.3093	287.109	94.9378	287.109	97.6402	287.109	93.546	287.109	96.8361	287.109	91.9571	287.109	95.8801	287.109	90.3359	287.109	94.7447	287.109	89.141	287.109	93.4069	287.109	88.882	287.109	91.8844	287.109	89.4202	287.109	90.3051	287.109	90.1721	287.109	88.9946	287.109	90.7637	287.109	88.4008	287.109	91.0737	287.109	88.6565	287.109	91.0774	287.109	89.3956	287.109	90.7731	287.109	90.1821
297.363	99.3137	297.363	99.5247	297.363	98.9296	297.363	99.5655	297.363	98.3693	297.363	99.4367	297.363	97.6328	297.363	99.1362	297.363	96.7275	297.363	98.6609	297.363	95.6731	297.363	98.0097	297.363	94.5009	297.363	97.1883	297.363	93.243	297.363	96.2121	297.363	91.9165	297.363	95.1094	297.363	90.5345	297.363	93.9231	297.363	89.1839	297.363	92.7131	297.363	88.1443	297.363	91.5562	297.363	87.7965	297.363	90.5351	297.363	88.1457	297.363	89.7201	297.363	88.7474	297.363	89.1593	297.363	89.2049	297.363	88.8795	297.363	89.3713	297.363	88.8711	297.363	89.2779	297.363	89.0542
307.617	99.4	307.617	99.5109	307.617	99.1311	307.617	99.4674	307.617	98.6972	307.617	99.2717	307.617	98.0829	307.617	98.9243	307.617	97.2638	307.617	98.4223	307.617	96.2122	307.617	97.7614	307.617	94.9133	307.617	96.9397	307.617	93.3885	307.617	95.9626	307.617	91.7227	307.617	94.841	307.617	90.0926	307.617	93.5863	307.617	88.7672	307.617	92.213	307.617	88.004	307.617	90.768	307.617	87.8459	307.617	89.3899	307.617	88.0858	307.617	88.3372	307.617	88.4604	307.617	87.8524	307.617	88.7831	307.617	87.9181	307.617	88.9475	307.617	88.2751	307.617	88.9047	307.617	88.6577
319.336	99.4076	319.336	99.6011	319.336	99.0278	319.336	99.6108	319.336	98.4651	319.336	99.4415	319.336	97.7308	319.336	99.0974	319.336	96.8417	319.336	98.5797	319.336	95.8104	319.336	97.8858	319.336	94.6296	319.336	97.0119	319.336	93.2658	319.336	95.9596	319.336	91.6851	319.336	94.7438	319.336	89.9438	319.336	93.396	319.336	88.3665	319.336	91.9568	319.336	87.5779	319.336	90.4692	319.336	87.8282	319.336	89.0096	319.336	88.5958	319.336	87.7898	319.336	89.3374	319.336	87.2055	319.336	89.8186	319.336	87.4849	319.336	89.9622	319.336	88.3031	319.336	89.738	319.336	89.1524
329.59	99.1066	329.59	99.2533	329.59	98.7953	329.59	99.2391	329.59	98.3119	329.59	99.0637	329.59	97.6488	329.59	98.7257	329.59	96.8043	329.59	98.2252	329.59	95.7897	329.59	97.565	329.59	94.6338	329.59	96.7485	329.59	93.3785	329.59	95.7782	329.59	92.0654	329.59	94.6587	329.59	90.7343	329.59	93.4071	329.59	89.4723	329.59	92.0666	329.59	88.4947	329.59	90.7193	329.59	88.0695	329.59	89.4876	329.59	88.2016	329.59	88.5196	329.59	88.5771	329.59	87.9487	329.59	88.8827	329.59	87.826	329.59	88.9673	329.59	88.0623	329.59	88.8058	329.59	88.4576
341.309	99.3628	341.309	99.5355	341.309	99.0148	341.309	99.5294	341.309	98.4898	341.309	99.3392	341.309	97.7808	341.309	98.9612	341.309	96.877	341.309	98.3965	341.309	95.7687	341.309	97.65	341.309	94.4513	341.309	96.7288	341.309	92.9257	341.309	95.6418	341.309	91.2026	341.309	94.4027	341.309	89.3586	341.309	93.0265	341.309	87.7183	341.309	91.5177	341.309	86.962	341.309	89.8746	341.309	87.3994	341.309	88.1805	341.309	88.4134	341.309	86.826	341.309	89.3601	341.309	86.49	341.309	89.9774	341.309	87.2501	341.309	90.1941	341.309	88.3967	341.309	89.9929	341.309	89.3776
353.027	99.0225	353.027	99.1377	353.027	98.7351	353.027	99.0917	353.027	98.2584	353.027	98.8892	353.027	97.5703	353.027	98.5305	353.027	96.6449	353.027	98.0147	353.027	95.4535	353.027	97.3403	353.027	93.9713	353.027	96.5011	353.027	92.1995	353.027	95.4782	353.027	90.2021	353.027	94.2361	353.027	88.1302	353.027	92.7327	353.027	86.221	353.027	90.9419	353.027	84.9007	353.027	88.8778	353.027	84.7856	353.027	86.62	353.027	85.7627	353.027	84.4198	353.027	86.906	353.027	83.0066	353.027	87.6029	353.027	83.2549	353.027	87.6897	353.027	84.6566	353.027	87.1787	353.027	86.1244
366.211	97.9923	366.211	97.9989	366.211	97.858	366.211	97.8824	366.211	97.5923	366.211	97.6527	366.211	97.1818	366.211	97.3219	366.211	96.5932	366.211	96.8952	366.211	95.7713	366.211	96.3625	366.211	94.6488	366.211	95.695	366.211	93.1609	366.211	94.8512	366.211	91.2601	366.211	93.7856	366.211	88.9421	366.211	92.458	366.211	86.3269	366.211	90.8457	366.211	83.8763	366.211	88.9654	366.211	82.5139	366.211	86.8898	366.211	82.6395	366.211	84.7357	366.211	83.4563	366.211	82.7276	366.211	84.1733	366.211	81.5421	366.211	84.4337	366.211	81.9151	366.211	84.0872	366.211	83.1244
379.395	97.4406	379.395	97.5667	379.395	97.1042	379.395	97.4773	379.395	96.572	379.395	97.1751	379.395	95.8726	379.395	96.6729	379.395	95.0494	379.395	95.9962	379.395	94.1415	379.395	95.1849	379.395	93.1529	379.395	94.2887	379.395	92.0421	379.395	93.3505	379.395	90.7521	379.395	92.3824	379.395	89.2554	379.395	91.3455	379.395	87.5981	379.395	90.1511	379.395	85.9462	379.395	88.689	379.395	84.5935	379.395	86.895	379.395	83.7927	379.395	84.8812	379.395	83.5086	379.395	83.114	379.395	83.4724	379.395	82.2448	379.395	83.4178	379.395	82.3154	379.395	83.1907	379.395	82.7719
392.578	97.7922	392.578	97.9657	392.578	97.4778	392.578	97.9919	392.578	97.0217	392.578	97.8588	392.578	96.4138	392.578	97.5507	392.578	95.6321	392.578	97.0558	392.578	94.6407	392.578	96.3746	392.578	93.3891	392.578	95.5281	392.578	91.8075	392.578	94.5571	392.578	89.7985	392.578	93.5038	392.578	87.2428	392.578	92.3795	392.578	84.0835	392.578	91.1472	392.578	80.8718	392.578	89.7454	392.578	79.8425	392.578	88.1321	392.578	81.3338	392.578	86.3209	392.578	82.9647	392.578	84.4533	392.578	83.9243	392.578	82.9718	392.578	84.1745	392.578	82.5277	392.578	83.8115	392.578	83.0703
405.762	97.4798	405.762	97.5942	405.762	97.2131	405.762	97.5613	405.762	96.7983	405.762	97.3937	405.762	96.2448	405.762	97.1049	405.762	95.5586	405.762	96.7022	405.762	94.7342	405.762	96.1855	405.762	93.7525	405.762	95.5484	405.762	92.589	405.762	94.7785	405.762	91.2332	405.762	93.8564	405.762	89.7222	405.762	92.756	405.762	88.1829	405.762	91.4479	405.762	86.8496	405.762	89.9081	405.762	85.9766	405.762	88.1539	405.762	85.6373	405.762	86.3449	405.762	85.6373	405.762	84.888	405.762	85.6753	405.762	84.2119	405.762	85.5402	405.762	84.2727	405.762	85.1836	405.762	84.6976
420.41	98.0277	420.41	98.1732	420.41	97.7102	420.41	98.1378	420.41	97.2148	420.41	97.9079	420.41	96.5209	420.41	97.4815	420.41	95.6093	420.41	96.8778	420.41	94.4869	420.41	96.1381	420.41	93.2035	420.41	95.3129	420.41	91.8305	420.41	94.4381	420.41	90.3844	420.41	93.5063	420.41	88.7582	420.41	92.4573	420.41	86.7543	420.41	91.2107	420.41	84.2246	420.41	89.7235	420.41	81.4036	420.41	88.0251	420.41	79.6565	420.41	86.1939	420.41	80.2471	420.41	84.3352	420.41	81.6791	420.41	82.7411	420.41	82.622	420.41	82.0384	420.41	82.777	420.41	82.3405
435.059	97.1057	435.059	97.2985	435.059	96.7093	435.059	97.2588	435.059	96.1509	435.059	96.9747	435.059	95.4835	435.059	96.4501	435.059	94.7589	435.059	95.6988	435.059	93.9851	435.059	94.7406	435.059	93.0835	435.059	93.6068	435.059	91.9221	435.059	92.3544	435.059	90.4275	435.059	91.0791	435.059	88.7173	435.059	89.8942	435.059	87.152	435.059	88.8476	435.059	86.0795	435.059	87.8507	435.059	85.4713	435.059	86.7503	435.059	85.084	435.059	85.5175	435.059	84.7492	435.059	84.39	435.059	84.3835	435.059	83.7089	435.059	83.98	435.059	83.4782	435.059	83.6384	435.059	83.4719
451.172	98.3621	451.172	98.5099	451.172	98.0142	451.172	98.4582	451.172	97.4714	451.172	98.217	451.172	96.7289	451.172	97.7995	451.172	95.7656	451.172	97.2139	451.172	94.5783	451.172	96.4582	451.172	93.2304	451.172	95.5192	451.172	91.836	451.172	94.3735	451.172	90.4282	451.172	92.9876	451.172	88.8823	451.172	91.3332	451.172	87.0642	451.172	89.4779	451.172	85.1038	451.172	87.7804	451.172	83.6739	451.172	86.7953	451.172	83.5786	451.172	86.4647	451.172	84.4338	451.172	86.1968	451.172	85.3164	451.172	85.8339	451.172	85.8354	451.172	85.6781	451.172	85.964	451.172	85.8203
465.82	97.6046	465.82	97.7122	465.82	97.3183	465.82	97.6222	465.82	96.8902	465.82	97.3334	465.82	96.3508	465.82	96.8566	465.82	95.6825	465.82	96.2148	465.82	94.8104	465.82	95.4484	465.82	93.6559	465.82	94.6101	465.82	92.2061	465.82	93.7384	465.82	90.5295	465.82	92.8132	465.82	88.7631	465.82	91.7251	465.82	87.2054	465.82	90.3015	465.82	86.4231	465.82	88.4124	465.82	86.6724	465.82	86.2278	465.82	87.4534	465.82	84.6288	465.82	88.2654	465.82	84.5473	465.82	88.8619	465.82	85.4514	465.82	89.0391	465.82	86.6086	465.82	88.6554	465.82	87.7624
483.398	98.5545	483.398	98.616	483.398	98.3305	483.398	98.541	483.398	97.8965	483.398	98.3173	483.398	97.2158	483.398	97.9074	483.398	96.2864	483.398	97.2811	483.398	95.1523	483.398	96.4353	483.398	93.9063	483.398	95.3836	483.398	92.6529	483.398	94.1436	483.398	91.3939	483.398	92.767	483.398	89.9369	483.398	91.3736	483.398	88.0185	483.398	90.051	483.398	85.7315	483.398	88.669	483.398	84.2372	483.398	86.9556	483.398	84.5799	483.398	84.9532	483.398	85.5761	483.398	83.7336	483.398	86.2937	483.398	84.3345	483.398	86.6555	483.398	85.5692	483.398	86.7143	483.398	86.3988
499.512	99.2853	499.512	99.5318	499.512	98.8021	499.512	99.5031	499.512	98.1683	499.512	99.2268	499.512	97.4658	499.512	98.7676	499.512	96.7094	499.512	98.1693	499.512	95.8182	499.512	97.4278	499.512	94.658	499.512	96.5253	499.512	93.127	499.512	95.4627	499.512	91.2183	499.512	94.2299	499.512	88.9765	499.512	92.7609	499.512	86.337	499.512	90.9507	499.512	83.3198	499.512	88.7275	499.512	81.7751	499.512	86.1028	499.512	83.8778	499.512	83.1973	499.512	86.6693	499.512	81.1056	499.512	88.5885	499.512	82.526	499.512	89.4636	499.512	85.6217	499.512	89.2744	499.512	87.996
517.09	98.7602	517.09	98.9349	517.09	98.3938	517.09	98.8957	517.09	97.8904	517.09	98.637	517.09	97.3267	517.09	98.1617	517.09	96.7421	517.09	97.4862	517.09	96.0925	517.09	96.6477	517.09	95.29	517.09	95.7107	517.09	94.2681	517.09	94.7722	517.09	92.9837	517.09	93.9297	517.09	91.377	517.09	93.1758	517.09	89.3415	517.09	92.3243	517.09	86.7844	517.09	91.1192	517.09	84.1552	517.09	89.4211	517.09	83.1729	517.09	87.2589	517.09	83.7636	517.09	84.7157	517.09	83.9862	517.09	82.0133	517.09	83.3483	517.09	80.3024	517.09	82.1217	517.09	80.7425
536.133	99.5797	536.133	99.8963	536.133	99.0703	536.133	99.9928	536.133	98.4055	536.133	99.8501	536.133	97.6117	536.133	99.4509	536.133	96.6945	536.133	98.7906	536.133	95.666	536.133	97.8981	536.133	94.5616	536.133	96.839	536.133	93.3911	536.133	95.693	536.133	92.0619	536.133	94.522	536.133	90.4105	536.133	93.3383	536.133	88.4061	536.133	92.0609	536.133	86.4435	536.133	90.5257	536.133	85.3795	536.133	88.6678	536.133	86.0386	536.133	86.8117	536.133	88.0351	536.133	85.7232	536.133	89.8899	536.133	86.1038	536.133	90.8177	536.133	87.7541	536.133	90.6822	536.133	89.5593
555.176	99.1002	555.176	99.298	555.176	98.7605	555.176	99.3085	555.176	98.2574	555.176	99.0645	555.176	97.5429	555.176	98.5656	555.176	96.6104	555.176	97.8981	555.176	95.5313	555.176	97.1499	555.176	94.4239	555.176	96.3095	555.176	93.339	555.176	95.2663	555.176	92.1297	555.176	93.9214	555.176	90.4116	555.176	92.3384	555.176	87.6486	555.176	90.7612	555.176	83.5866	555.176	89.233	555.176	81.1088	555.176	87.2229	555.176	83.1748	555.176	84.1553	555.176	85.1935	555.176	81.3625	555.176	86.2362	555.176	82.2124	555.176	86.5452	555.176	84.1354	555.176	86.248	555.176	85.4472
574.219	100.091	574.219	100.356	574.219	99.5742	574.219	100.339	574.219	98.8932	574.219	100.064	574.219	98.1586	574.219	99.5675	574.219	97.4099	574.219	98.8668	574.219	96.5574	574.219	97.9721	574.219	95.4792	574.219	96.9607	574.219	94.1286	574.219	96.0016	574.219	92.4867	574.219	95.1928	574.219	90.5305	574.219	94.3503	574.219	88.4424	574.219	93.1506	574.219	86.7141	574.219	91.4739	574.219	85.8846	574.219	89.4042	574.219	86.7022	574.219	86.7569	574.219	88.8149	574.219	83.2686	574.219	90.7239	574.219	83.0062	574.219	91.677	574.219	87.0489	574.219	91.4746	574.219	90.0055
594.727	99.4335	594.727	99.7373	594.727	98.8977	594.727	99.8204	594.727	98.1388	594.727	99.6728	594.727	97.2213	594.727	99.2712	594.727	96.232	594.727	98.6078	594.727	95.2557	594.727	97.698	594.727	94.3869	594.727	96.5824	594.727	93.5472	594.727	95.3929	594.727	92.364	594.727	94.3917	594.727	90.5492	594.727	93.64	594.727	88.3451	594.727	92.6985	594.727	86.4851	594.727	91.0244	594.727	85.4336	594.727	88.2844	594.727	85.6114	594.727	84.348	594.727	87.1526	594.727	80.4104	594.727	88.588	594.727	81.2273	594.727	88.9853	594.727	84.3505	594.727	88.3308	594.727	86.7802
615.234	100.535	615.234	101.027	615.234	99.69	615.234	101.096	615.234	98.6532	615.234	100.764	615.234	97.6018	615.234	100.074	615.234	96.6442	615.234	99.0724	615.234	95.7363	615.234	97.8811	615.234	94.6854	615.234	96.7455	615.234	93.3665	615.234	95.8061	615.234	91.911	615.234	94.8226	615.234	90.4544	615.234	93.4371	615.234	88.5159	615.234	91.663	615.234	84.6338	615.234	90.0187	615.234	73.4806	615.234	88.7699	615.234	78.0994	615.234	87.1905	615.234	85.1491	615.234	83.9827	615.234	87.8015	615.234	75.6712	615.234	88.3068	615.234	73.4364	615.234	86.8879	615.234	83.1965
637.207	100.101	637.207	100.448	637.207	99.4855	637.207	100.501	637.207	98.6724	637.207	100.265	637.207	97.7197	637.207	99.7619	637.207	96.6266	637.207	99.0257	637.207	95.4801	637.207	98.0849	637.207	94.5007	637.207	96.964	637.207	93.6728	637.207	95.717	637.207	92.7545	637.207	94.5236	637.207	91.4716	637.207	93.6019	637.207	89.3055	637.207	92.6806	637.207	86.2102	637.207	91.0909	637.207	84.1926	637.207	88.5786	637.207	83.8481	637.207	85.6966	637.207	84.7164	637.207	83.3612	637.207	86.8428	637.207	82.8312	637.207	88.2734	637.207	84.5043	637.207	88.212	637.207	86.7356
659.18	98.6649	659.18	99.0463	659.18	98.0674	659.18	99.1212	659.18	97.3714	659.18	98.8408	659.18	96.5963	659.18	98.155	659.18	95.6253	659.18	97.0578	659.18	94.3257	659.18	95.687	659.18	92.86	659.18	94.3289	659.18	91.9716	659.18	93.2523	659.18	91.6349	659.18	92.4303	659.18	90.5372	659.18	91.4844	659.18	88.2074	659.18	90.1653	659.18	85.7075	659.18	88.8722	659.18	84.043	659.18	87.9786	659.18	83.9371	659.18	86.6101	659.18	85.9186	659.18	83.7164	659.18	87.5973	659.18	78.5477	659.18	88.0621	659.18	77.124	659.18	86.9935	659.18	83.5947
682.617	99.0105	682.617	99.4776	682.617	98.3691	682.617	99.68	682.617	97.5543	682.617	99.461	682.617	96.5239	682.617	98.7649	682.617	95.2963	682.617	97.7444	682.617	94.2085	682.617	96.6497	682.617	93.5897	682.617	95.6575	682.617	92.8492	682.617	94.7819	682.617	91.1219	682.617	93.764	682.617	88.6031	682.617	92.278	682.617	86.6103	682.617	90.6935	682.617	83.0698	682.617	89.9327	682.617	66.5831	682.617	89.3744	682.617	80.6351	682.617	87.4245	682.617	86.282	682.617	83.1485	682.617	88.529	682.617	77.3549	682.617	89.127	682.617	78.7865	682.617	87.9638	682.617	84.5222
707.52	97.1532	707.52	97.5362	707.52	96.4459	707.52	97.4374	707.52	95.7544	707.52	97.0575	707.52	94.952	707.52	96.6243	707.52	93.5896	707.52	96.0334	707.52	91.9024	707.52	95.078	707.52	91.0286	707.52	93.8706	707.52	90.8428	707.52	92.6328	707.52	90.0467	707.52	91.4323	707.52	88.4321	707.52	90.779	707.52	85.7839	707.52	90.7581	707.52	80.183	707.52	90.132	707.52	69.8743	707.52	88.4124	707.52	78.2565	707.52	86.1295	707.52	83.462	707.52	82.5104	707.52	85.6318	707.52	71.0285	707.52	86.125	707.52	79.5787	707.52	86.4377	707.52	85.2353
732.422	97.301	732.422	97.7572	732.422	96.565	732.422	97.8648	732.422	95.4905	732.422	97.5953	732.422	93.7253	732.422	96.9772	732.422	91.2029	732.422	96.0882	732.422	89.6699	732.422	94.9955	732.422	90.031	732.422	93.7284	732.422	89.9801	732.422	92.4345	732.422	88.931	732.422	91.3639	732.422	87.7837	732.422	90.4463	732.422	86.3446	732.422	89.428	732.422	83.6959	732.422	88.2884	732.422	78.6087	732.422	86.988	732.422	51.8634	732.422	85.4001	732.422	80.1196	732.422	83.3251	732.422	84.8332	732.422	79.0961	732.422	85.5269	732.422	61.2922	732.422	83.4885	732.422	77.8381
757.324	97.8438	757.324	98.7151	757.324	96.801	757.324	99.1935	757.324	95.781	757.324	99.1932	757.324	94.8125	757.324	98.7492	757.324	93.7177	757.324	97.8933	757.324	92.26	757.324	96.6777	757.324	90.6843	757.324	95.2247	757.324	89.9544	757.324	93.7243	757.324	89.9221	757.324	92.4046	757.324	89.7386	757.324	91.2638	757.324	89.51	757.324	90.4331	757.324	88.5954	757.324	90.109	757.324	85.0608	757.324	89.2649	757.324	73.2683	757.324	87.0898	757.324	80.0439	757.324	84.6658	757.324	85.4145	757.324	83.5528	757.324	85.7356	757.324	81.9947	757.324	83.0988	757.324	80.4311
785.156	99.2951	785.156	99.8128	785.156	98.617	785.156	100.059	785.156	97.8097	785.156	100.061	785.156	96.5032	785.156	99.751	785.156	94.4947	785.156	98.931	785.156	92.9486	785.156	97.6501	785.156	92.5357	785.156	96.2757	785.156	91.6635	785.156	94.799	785.156	90.9574	785.156	92.8218	785.156	91.2893	785.156	90.72	785.156	91.1609	785.156	88.3691	785.156	90.2988	785.156	86.1946	785.156	89.1101	785.156	88.2639	785.156	86.4313	785.156	90.0894	785.156	81.1652	785.156	89.1248	785.156	75.279	785.156	85.5762	785.156	71.5683	785.156	78.4966	785.156	71.3233	785.156	43.2476
811.523	99.2502	811.523	99.9551	811.523	97.9613	811.523	100.026	811.523	96.4743	811.523	99.6457	811.523	95.1466	811.523	99.0358	811.523	93.7745	811.523	98.179	811.523	92.1272	811.523	96.7785	811.523	90.3947	811.523	94.8011	811.523	88.9616	811.523	93.3473	811.523	88.7633	811.523	93.3938	811.523	90.1497	811.523	93.1993	811.523	91.2511	811.523	91.6869	811.523	90.2636	811.523	91.1594	811.523	85.726	811.523	91.453	811.523	80.5888	811.523	90.9881	811.523	80.8923	811.523	90.2509	811.523	83.578	811.523	88.3501	811.523	86.4146	811.523	83.3354	811.523	85.3626	811.523	79.088
840.82	98.326	840.82	98.2627	840.82	98.3974	840.82	98.4952	840.82	98.3418	840.82	98.9174	840.82	98.0079	840.82	98.955	840.82	97.1927	840.82	98.3436	840.82	95.7567	840.82	97.3256	840.82	93.7927	840.82	96.2698	840.82	92.3361	840.82	95.2979	840.82	91.0033	840.82	94.2018	840.82	88.0527	840.82	92.7404	840.82	86.9257	840.82	90.4042	840.82	88.927	840.82	86.0053	840.82	88.1768	840.82	84.7456	840.82	83.6015	840.82	86.9699	840.82	78.0979	840.82	83.1468	840.82	82.3052	840.82	68.9135	840.82	85.225	840.82	76.6703	840.82	85.0642	840.82	81.7384
870.117	99.8049	870.117	100.564	870.117	98.994	870.117	100.903	870.117	97.919	870.117	100.464	870.117	96.8077	870.117	99.6541	870.117	96.185	870.117	98.9661	870.117	95.3008	870.117	98.2011	870.117	93.125	870.117	96.9304	870.117	90.2108	870.117	95.376	870.117	88.1472	870.117	94.1824	870.117	87.8911	870.117	93.2851	870.117	87.4788	870.117	92.026	870.117	84.1193	870.117	89.5502	870.117	77.3312	870.117	87.0058	870.117	81.6393	870.117	87.709	870.117	82.2657	870.117	87.9	870.117	83.2235	870.117	83.9313	870.117	85.3682	870.117	79.8889	870.117	85.4109	870.117	82.542
900.879	99.0284	900.879	99.1547	900.879	98.072	900.879	98.8784	900.879	96.7363	900.879	98.6432	900.879	95.5962	900.879	98.0827	900.879	94.4484	900.879	96.898	900.879	92.9498	900.879	95.7014	900.879	91.4884	900.879	94.74	900.879	91.3795	900.879	93.0695	900.879	91.482	900.879	90.7913	900.879	88.799	900.879	88.9608	900.879	86.5997	900.879	87.1491	900.879	88.2538	900.879	85.4647	900.879	86.8196	900.879	85.5276	900.879	78.1197	900.879	84.4881	900.879	64.8982	900.879	80.1429	900.879	82.2846	900.879	75.2865	900.879	86.4041	900.879	75.1516	900.879	84.8639	900.879	78.8943
933.105	97.7422	933.105	98.3015	933.105	97.2346	933.105	98.6178	933.105	96.3927	933.105	98.4793	933.105	94.6266	933.105	97.9273	933.105	92.7842	933.105	96.8242	933.105	92.3089	933.105	94.7971	933.105	91.5069	933.105	92.7487	933.105	87.8819	933.105	92.7041	933.105	81.3154	933.105	92.7398	933.105	83.8692	933.105	90.6186	933.105	85.9139	933.105	88.9471	933.105	82.4351	933.105	88.5037	933.105	81.4622	933.105	87.1859	933.105	72.8016	933.105	84.9423	933.105	74.9187	933.105	83.5611	933.105	80.2506	933.105	83.7107	933.105	81.7311	933.105	77.2806	933.105	83.5626	933.105	78.2841
965.332	98.0321	965.332	98.6439	965.332	97.1159	965.332	98.9402	965.332	95.5897	965.332	98.4651	965.332	94.0415	965.332	97.4164	965.332	93.1609	965.332	96.5753	965.332	92.4109	965.332	95.8009	965.332	91.0317	965.332	94.3603	965.332	89.0161	965.332	91.9131	965.332	88.91	965.332	88.7703	965.332	88.6456	965.332	87.1177	965.332	86.9249	965.332	87.1692	965.332	85.8145	965.332	86.8004	965.332	83.6633	965.332	85.1864	965.332	82.3207	965.332	83.3822	965.332	78.8477	965.332	84.251	965.332	72.3563	965.332	79.4297	965.332	78.0659	965.332	65.9845	965.332	72.7436	965.332	61.2015
1,000.49	97.5766	1,000.49	98.0348	1,000.49	96.6157	1,000.49	97.661	1,000.49	95.4812	1,000.49	96.9324	1,000.49	93.8381	1,000.49	96.1888	1,000.49	92.2785	1,000.49	95.1262	1,000.49	91.5188	1,000.49	93.8881	1,000.49	90.5556	1,000.49	92.5672	1,000.49	89.3793	1,000.49	90.8005	1,000.49	87.1455	1,000.49	89.5359	1,000.49	82.9713	1,000.49	88.377	1,000.49	82.2983	1,000.49	85.4825	1,000.49	84.1002	1,000.49	81.5794	1,000.49	82.9412	1,000.49	78.4213	1,000.49	73.2839	1,000.49	76.9703	1,000.49	73.3242	1,000.49	74.852	1,000.49	73.776	1,000.49	72.1454	1,000.49	70.4897	1,000.49	72.7836	1,000.49	72.8429	1,000.49	54.3256
1,035.64	97.8701	1,035.64	98.1915	1,035.64	97.3952	1,035.64	98.4114	1,035.64	96.9963	1,035.64	98.2302	1,035.64	96.2812	1,035.64	97.4381	1,035.64	94.3761	1,035.64	96.3679	1,035.64	91.9769	1,035.64	95.1435	1,035.64	90.0967	1,035.64	93.5092	1,035.64	88.9227	1,035.64	91.7317	1,035.64	86.741	1,035.64	90.2078	1,035.64	82.0147	1,035.64	87.515	1,035.64	81.5504	1,035.64	84.9528	1,035.64	81.4588	1,035.64	83.8931	1,035.64	80.8158	1,035.64	82.293	1,035.64	76.8134	1,035.64	81.5774	1,035.64	70.2643	1,035.64	81.5471	1,035.64	75.3582	1,035.64	82.93	1,035.64	76.5379	1,035.64	78.1556	1,035.64	75.0139	1,035.64	60.4387
1,072.27	99.4894	1,072.27	99.9814	1,072.27	98.5588	1,072.27	99.8747	1,072.27	97.0788	1,072.27	99.1924	1,072.27	95.4364	1,072.27	98.2134	1,072.27	94.0324	1,072.27	97.1138	1,072.27	92.5095	1,072.27	95.7529	1,072.27	90.8338	1,072.27	93.8286	1,072.27	88.6515	1,072.27	91.3873	1,072.27	86.4378	1,072.27	88.583	1,072.27	85.8069	1,072.27	86.4599	1,072.27	85.2314	1,072.27	86.409	1,072.27	85.9508	1,072.27	85.6427	1,072.27	85.1192	1,072.27	82.4748	1,072.27	81.885	1,072.27	82.4012	1,072.27	76.5754	1,072.27	84.1935	1,072.27	69.5814	1,072.27	83.1052	1,072.27	72.9791	1,072.27	76.3927	1,072.27	74.8699	1,072.27	70.0322
1,108.89	99.5792	1,108.89	100.246	1,108.89	98.2577	1,108.89	100.054	1,108.89	97.1463	1,108.89	99.5175	1,108.89	96.0819	1,108.89	98.9888	1,108.89	94.4132	1,108.89	98.1736	1,108.89	92.031	1,108.89	96.4521	1,108.89	90.4518	1,108.89	94.3763	1,108.89	89.2519	1,108.89	92.9857	1,108.89	86.6959	1,108.89	91.4622	1,108.89	85.2828	1,108.89	88.922	1,108.89	82.007	1,108.89	86.1207	1,108.89	76.9647	1,108.89	82.0229	1,108.89	69.7114	1,108.89	77.691	1,108.89	75.7178	1,108.89	81.5354	1,108.89	75.2438	1,108.89	81.4041	1,108.89	77.7947	1,108.89	79.9966	1,108.89	81.7212	1,108.89	81.6493	1,108.89	78.2089	1,108.89	77.3962
1,148.44	99.294	1,148.44	99.6192	1,148.44	98.7527	1,148.44	99.9391	1,148.44	97.317	1,148.44	99.8607	1,148.44	95.6375	1,148.44	99.1884	1,148.44	94.5105	1,148.44	97.9238	1,148.44	92.6786	1,148.44	96.3245	1,148.44	90.62	1,148.44	94.6403	1,148.44	89.4514	1,148.44	93.0174	1,148.44	88.6934	1,148.44	91.7542	1,148.44	86.465	1,148.44	91.3955	1,148.44	84.2645	1,148.44	89.6791	1,148.44	85.9469	1,148.44	86.2179	1,148.44	86.6954	1,148.44	84.4911	1,148.44	84.0704	1,148.44	83.8127	1,148.44	79.6646	1,148.44	82.7128	1,148.44	77.1084	1,148.44	83.4775	1,148.44	79.5232	1,148.44	80.2972	1,148.44	76.1614	1,148.44	79.2314
1,189.45	99.0828	1,189.45	99.5935	1,189.45	98.6651	1,189.45	99.824	1,189.45	98.0343	1,189.45	99.7771	1,189.45	96.6492	1,189.45	98.9113	1,189.45	95.1998	1,189.45	97.609	1,189.45	93.5844	1,189.45	96.6844	1,189.45	91.9473	1,189.45	95.4914	1,189.45	90.5002	1,189.45	93.5181	1,189.45	88.8072	1,189.45	91.3067	1,189.45	87.3581	1,189.45	90.8899	1,189.45	81.7307	1,189.45	89.2835	1,189.45	83.7372	1,189.45	86.3427	1,189.45	86.0839	1,189.45	85.4581	1,189.45	83.4089	1,189.45	84.5507	1,189.45	79.5946	1,189.45	82.1708	1,189.45	77.918	1,189.45	79.4434	1,189.45	76.2281	1,189.45	76.4669	1,189.45	75.9835	1,189.45	74.9962
1,230.47	99.8224	1,230.47	100.335	1,230.47	98.489	1,230.47	100.627	1,230.47	97.3656	1,230.47	100.719	1,230.47	96.4014	1,230.47	99.9563	1,230.47	94.6627	1,230.47	98.8555	1,230.47	93.2181	1,230.47	97.9262	1,230.47	92.2296	1,230.47	96.2254	1,230.47	90.8923	1,230.47	94.6641	1,230.47	89.5925	1,230.47	94.2334	1,230.47	87.9535	1,230.47	91.8542	1,230.47	84.8579	1,230.47	91.1232	1,230.47	83.6652	1,230.47	89.947	1,230.47	84.9414	1,230.47	86.0119	1,230.47	85.6274	1,230.47	82.9284	1,230.47	83.1507	1,230.47	80.0189	1,230.47	82.9817	1,230.47	86.5826	1,230.47	79.8333	1,230.47	87.6795	1,230.47	62.2088	1,230.47	82.0457
1,274.41	100.6	1,274.41	100.859	1,274.41	99.5423	1,274.41	100.556	1,274.41	98.1892	1,274.41	100.154	1,274.41	97.1143	1,274.41	99.9029	1,274.41	97.1841	1,274.41	99.5927	1,274.41	96.4001	1,274.41	98.5762	1,274.41	93.9267	1,274.41	97.2715	1,274.41	91.9875	1,274.41	95.4899	1,274.41	90.6237	1,274.41	93.7313	1,274.41	88.938	1,274.41	92.539	1,274.41	88.7567	1,274.41	89.3623	1,274.41	86.9204	1,274.41	87.3459	1,274.41	88.6936	1,274.41	84.9197	1,274.41	86.376	1,274.41	87.5415	1,274.41	82.2656	1,274.41	86.7398	1,274.41	71.0698	1,274.41	84.4205	1,274.41	77.8572	1,274.41	81.6231	1,274.41	79.0331	1,274.41	75.523
1,319.82	100.274	1,319.82	101.39	1,319.82	98.5561	1,319.82	101.14	1,319.82	97.5856	1,319.82	100.248	1,319.82	96.0112	1,319.82	99.5021	1,319.82	94.273	1,319.82	98.2514	1,319.82	93.6694	1,319.82	97.6003	1,319.82	91.5791	1,319.82	97.0269	1,319.82	92.152	1,319.82	94.9928	1,319.82	90.5178	1,319.82	92.4325	1,319.82	89.4572	1,319.82	87.9389	1,319.82	87.4834	1,319.82	87.1498	1,319.82	83.7171	1,319.82	89.8565	1,319.82	77.2176	1,319.82	86.6744	1,319.82	83.738	1,319.82	82.3092	1,319.82	85.0507	1,319.82	80.5706	1,319.82	85.661	1,319.82	83.326	1,319.82	77.1383	1,319.82	83.092	1,319.82	73.3725	1,319.82	72.4091
1,366.7	99.3449	1,366.7	99.7658	1,366.7	98.9886	1,366.7	100.709	1,366.7	98.0733	1,366.7	100.147	1,366.7	96.3439	1,366.7	99.5553	1,366.7	94.9959	1,366.7	99.3875	1,366.7	93.4378	1,366.7	98.7444	1,366.7	93.2963	1,366.7	97.6681	1,366.7	92.3233	1,366.7	96.839	1,366.7	88.8469	1,366.7	95.0841	1,366.7	89.7498	1,366.7	91.1108	1,366.7	85.571	1,366.7	91.8198	1,366.7	84.6867	1,366.7	88.9144	1,366.7	81.123	1,366.7	81.9832	1,366.7	78.2588	1,366.7	84.0862	1,366.7	79.1064	1,366.7	87.733	1,366.7	82.6627	1,366.7	86.7248	1,366.7	85.9303	1,366.7	81.4979	1,366.7	82.6124	1,366.7	86.7405
1,413.57	100.625	1,413.57	101.163	1,413.57	99.0942	1,413.57	100.54	1,413.57	97.5911	1,413.57	100.015	1,413.57	96.601	1,413.57	99.5674	1,413.57	95.0915	1,413.57	99.0514	1,413.57	93.8305	1,413.57	98.2937	1,413.57	90.5577	1,413.57	97.8647	1,413.57	90.2085	1,413.57	95.6962	1,413.57	87.6978	1,413.57	93.9991	1,413.57	86.6713	1,413.57	91.1942	1,413.57	86.9011	1,413.57	90.1803	1,413.57	88.6071	1,413.57	92.558	1,413.57	85.2547	1,413.57	93.2516	1,413.57	78.5998	1,413.57	85.4527	1,413.57	87.0741	1,413.57	82.4185	1,413.57	85.9724	1,413.57	85.2336	1,413.57	80.0582	1,413.57	86.1539	1,413.57	72.4016	1,413.57	85.1966
1,463.38	99.3576	1,463.38	100.087	1,463.38	97.5015	1,463.38	100.028	1,463.38	97.5301	1,463.38	99.1397	1,463.38	96.3476	1,463.38	100.011	1,463.38	94.1191	1,463.38	100.55	1,463.38	91.6869	1,463.38	97.7009	1,463.38	92.1529	1,463.38	95.6287	1,463.38	92.5852	1,463.38	95.1034	1,463.38	91.2936	1,463.38	93.5039	1,463.38	89.556	1,463.38	89.8226	1,463.38	90.4915	1,463.38	86.8647	1,463.38	86.708	1,463.38	86.4169	1,463.38	87.1291	1,463.38	87.1959	1,463.38	82.4833	1,463.38	89.4698	1,463.38	71.314	1,463.38	88.9582	1,463.38	75.1199	1,463.38	85.8899	1,463.38	85.2592	1,463.38	81.1419	1,463.38	75.2761	1,463.38	78.3516
1,516.11	99.7244	1,516.11	100.723	1,516.11	97.0513	1,516.11	100.541	1,516.11	96.2223	1,516.11	98.8786	1,516.11	95.4901	1,516.11	98.3958	1,516.11	93.91	1,516.11	97.8102	1,516.11	90.407	1,516.11	97.6858	1,516.11	84.8316	1,516.11	97.0618	1,516.11	84.8968	1,516.11	94.1595	1,516.11	83.5942	1,516.11	94.1587	1,516.11	87.9148	1,516.11	88.1847	1,516.11	88.6451	1,516.11	88.479	1,516.11	83.9254	1,516.11	90.4539	1,516.11	83.0383	1,516.11	84.537	1,516.11	89.6988	1,516.11	86.0139	1,516.11	88.4505	1,516.11	79.8754	1,516.11	78.7331	1,516.11	87.3072	1,516.11	74.6998	1,516.11	82.5841	1,516.11	81.076	1,516.11	73.8446
1,568.85	98.2265	1,568.85	98.0713	1,568.85	96.8843	1,568.85	98.7709	1,568.85	95.7711	1,568.85	98.4075	1,568.85	94.5389	1,568.85	97.5031	1,568.85	93.416	1,568.85	97.3658	1,568.85	91.5251	1,568.85	96.5329	1,568.85	87.9837	1,568.85	95.6725	1,568.85	86.7067	1,568.85	93.0845	1,568.85	84.5285	1,568.85	87.6227	1,568.85	84.725	1,568.85	87.5787	1,568.85	81.329	1,568.85	87.701	1,568.85	80.3908	1,568.85	85.7124	1,568.85	79.8471	1,568.85	83.2754	1,568.85	79.215	1,568.85	81.2701	1,568.85	84.4419	1,568.85	80.7407	1,568.85	80.7197	1,568.85	87.4707	1,568.85	76.7033	1,568.85	77.8106	1,568.85	67.1722	1,568.85	80.5327
1,624.51	97.6893	1,624.51	98.3728	1,624.51	97.2882	1,624.51	98.2028	1,624.51	96.2767	1,624.51	97.9602	1,624.51	95.8536	1,624.51	98.3264	1,624.51	93.5901	1,624.51	97.5515	1,624.51	91.0637	1,624.51	96.1112	1,624.51	87.9764	1,624.51	93.0583	1,624.51	84.9742	1,624.51	91.9782	1,624.51	86.5621	1,624.51	91.6713	1,624.51	84.1705	1,624.51	87.314	1,624.51	87.2898	1,624.51	83.5778	1,624.51	82.3036	1,624.51	82.9272	1,624.51	82.373	1,624.51	83.2312	1,624.51	81.3796	1,624.51	82.3408	1,624.51	78.7093	1,624.51	81.0618	1,624.51	80.7506	1,624.51	75.2578	1,624.51	83.7535	1,624.51	81.672	1,624.51	82.6262	1,624.51	81.4627
1,681.64	97.9771	1,681.64	98.032	1,681.64	97.9926	1,681.64	98.3413	1,681.64	96.6603	1,681.64	99.0499	1,681.64	95.027	1,681.64	97.9892	1,681.64	93.3618	1,681.64	97.4825	1,681.64	91.5402	1,681.64	96.2588	1,681.64	90.6329	1,681.64	95.3275	1,681.64	87.0918	1,681.64	92.2394	1,681.64	83.6017	1,681.64	88.9733	1,681.64	85.1696	1,681.64	84.9997	1,681.64	82.6123	1,681.64	85.2598	1,681.64	79.7039	1,681.64	85.7721	1,681.64	79.5948	1,681.64	83.7246	1,681.64	65.0893	1,681.64	82.9772	1,681.64	83.699	1,681.64	81.8562	1,681.64	84.1558	1,681.64	76.2613	1,681.64	82.4849	1,681.64	75.7583	1,681.64	66.8292	1,681.64	72.0706
1,741.7	98.9825	1,741.7	98.5514	1,741.7	98.1715	1,741.7	99.296	1,741.7	97.0886	1,741.7	99.1917	1,741.7	95.2759	1,741.7	98.941	1,741.7	93.0341	1,741.7	98.2504	1,741.7	90.146	1,741.7	96.8737	1,741.7	84.1013	1,741.7	94.9007	1,741.7	85.6067	1,741.7	92.6934	1,741.7	83.6763	1,741.7	89.1405	1,741.7	83.8181	1,741.7	88.6967	1,741.7	81.1333	1,741.7	85.6411	1,741.7	80.5784	1,741.7	84.1229	1,741.7	80.2044	1,741.7	82.6917	1,741.7	80.1697	1,741.7	78.7103	1,741.7	80.5783	1,741.7	81.1874	1,741.7	73.3748	1,741.7	76.9923	1,741.7	81.952	1,741.7	83.3873	1,741.7	86.4729	1,741.7	84.1139
1,803.22	98.19	1,803.22	98.9116	1,803.22	97.818	1,803.22	98.3698	1,803.22	96.4129	1,803.22	98.4263	1,803.22	95.0407	1,803.22	98.564	1,803.22	92.5856	1,803.22	97.8468	1,803.22	90.6809	1,803.22	96.8118	1,803.22	88.7619	1,803.22	95.0463	1,803.22	84.7254	1,803.22	93.8392	1,803.22	84.9988	1,803.22	91.8498	1,803.22	82.6242	1,803.22	87.6662	1,803.22	85.4895	1,803.22	84.1848	1,803.22	82.4137	1,803.22	82.8409	1,803.22	79.4805	1,803.22	84.1895	1,803.22	76.9407	1,803.22	84.0711	1,803.22	79.2539	1,803.22	76.4793	1,803.22	77.3648	1,803.22	83.2453	1,803.22	73.3061	1,803.22	80.3719	1,803.22	77.4456	1,803.22	67.9475
1,866.21	98.1135	1,866.21	98.1203	1,866.21	97.3533	1,866.21	98.4426	1,866.21	95.8888	1,866.21	98.6258	1,866.21	93.8127	1,866.21	98.1664	1,866.21	92.0893	1,866.21	97.2698	1,866.21	90.4324	1,866.21	96.1001	1,866.21	87.02	1,866.21	94.6322	1,866.21	83.2886	1,866.21	92.5023	1,866.21	78.6265	1,866.21	90.0283	1,866.21	82.3152	1,866.21	87.5424	1,866.21	79.4645	1,866.21	86.3189	1,866.21	80.1915	1,866.21	86.7103	1,866.21	75.4721	1,866.21	85.5161	1,866.21	73.1647	1,866.21	85.9447	1,866.21	73.5237	1,866.21	84.9307	1,866.21	83.3122	1,866.21	78.1534	1,866.21	85.3861	1,866.21	80.5792	1,866.21	83.309	1,866.21	74.3355
1,932.13	97.566	1,932.13	97.4935	1,932.13	96.4268	1,932.13	97.8018	1,932.13	95.3192	1,932.13	97.5378	1,932.13	92.9739	1,932.13	97.3437	1,932.13	89.663	1,932.13	96.6741	1,932.13	86.1732	1,932.13	95.2525	1,932.13	84.4862	1,932.13	93.3381	1,932.13	85.1332	1,932.13	91.0149	1,932.13	82.8473	1,932.13	89.0823	1,932.13	79.6996	1,932.13	89.0087	1,932.13	82.3951	1,932.13	86.6816	1,932.13	80.1004	1,932.13	81.0172	1,932.13	73.7956	1,932.13	83.0255	1,932.13	80.5057	1,932.13	82.8537	1,932.13	80.1397	1,932.13	78.6648	1,932.13	78.8659	1,932.13	77.8449	1,932.13	67.6774	1,932.13	81.9847	1,932.13	83.1595	1,932.13	80.6311
1,999.51	97.2242	1,999.51	98.0201	1,999.51	97.0027	1,999.51	97.5459	1,999.51	95.155	1,999.51	97.7673	1,999.51	93.2294	1,999.51	97.6748	1,999.51	90.8427	1,999.51	96.6619	1,999.51	89.4325	1,999.51	95.2279	1,999.51	87.4363	1,999.51	92.5983	1,999.51	81.6393	1,999.51	91.2335	1,999.51	81.7472	1,999.51	88.912	1,999.51	79.0434	1,999.51	84.4997	1,999.51	82.3659	1,999.51	81.3214	1,999.51	83.3611	1,999.51	83.3623	1,999.51	80.1043	1,999.51	84.0084	1,999.51	70.0042	1,999.51	84.1884	1,999.51	72.8966	1,999.51	79.876	1,999.51	73.4899	1,999.51	83.4647	1,999.51	80.938	1,999.51	83.3998	1,999.51	76.6939	1,999.51	80.5194
2,069.82	97.9313	2,069.82	97.5502	2,069.82	97.3043	2,069.82	98.0473	2,069.82	95.7687	2,069.82	98.0163	2,069.82	93.2101	2,069.82	97.7151	2,069.82	90.8928	2,069.82	96.8323	2,069.82	87.4944	2,069.82	94.4473	2,069.82	84.7846	2,069.82	93.0448	2,069.82	86.8231	2,069.82	90.668	2,069.82	83.7302	2,069.82	88.3978	2,069.82	83.8187	2,069.82	86.9406	2,069.82	81.6314	2,069.82	84.9546	2,069.82	83.2333	2,069.82	83.8002	2,069.82	81.6388	2,069.82	82.179	2,069.82	79.899	2,069.82	84.2749	2,069.82	79.6106	2,069.82	82.4147	2,069.82	79.2867	2,069.82	73	2,069.82	79.0404	2,069.82	78.9816	2,069.82	82.3437	2,069.82	73.1575
2,143.07	98.6033	2,143.07	98.5856	2,143.07	97.8595	2,143.07	98.4008	2,143.07	96.2827	2,143.07	98.4004	2,143.07	94.0628	2,143.07	98.1422	2,143.07	91.2299	2,143.07	97.4134	2,143.07	89.0051	2,143.07	96.8175	2,143.07	88.1211	2,143.07	94.3147	2,143.07	84.3512	2,143.07	92.4667	2,143.07	84.9233	2,143.07	89.367	2,143.07	78.0874	2,143.07	89.7038	2,143.07	81.4668	2,143.07	87.2226	2,143.07	80.6817	2,143.07	81.909	2,143.07	70.9463	2,143.07	78.306	2,143.07	78.1069	2,143.07	78.1424	2,143.07	80.0345	2,143.07	80.819	2,143.07	79.6348	2,143.07	73.7984	2,143.07	72.0589	2,143.07	80.2045	2,143.07	71.0378	2,143.07	75.4105
2,219.24	97.9238	2,219.24	97.6875	2,219.24	97.0009	2,219.24	97.9286	2,219.24	95.5099	2,219.24	97.7714	2,219.24	92.9466	2,219.24	97.9682	2,219.24	90.6214	2,219.24	97.0739	2,219.24	88.6704	2,219.24	94.0906	2,219.24	82.9802	2,219.24	92.8209	2,219.24	82.8817	2,219.24	90.8056	2,219.24	81.8133	2,219.24	89.1265	2,219.24	82.8124	2,219.24	85.7596	2,219.24	76.7784	2,219.24	84.9411	2,219.24	81.5609	2,219.24	83.0017	2,219.24	79.4994	2,219.24	83.4561	2,219.24	72.9417	2,219.24	85.1457	2,219.24	57.8674	2,219.24	78.6545	2,219.24	74.8938	2,219.24	77.7723	2,219.24	82.424	2,219.24	70.2517	2,219.24	81.9587	2,219.24	75.4879
2,296.88	97.9239	2,296.88	98.3624	2,296.88	97.3488	2,296.88	97.8552	2,296.88	95.0165	2,296.88	98.1044	2,296.88	92.5552	2,296.88	97.4539	2,296.88	90.8425	2,296.88	96.5274	2,296.88	89.0301	2,296.88	94.7192	2,296.88	87.5657	2,296.88	92.4787	2,296.88	83.2543	2,296.88	90.769	2,296.88	82.9475	2,296.88	90.0885	2,296.88	79.2263	2,296.88	90.2947	2,296.88	82.8084	2,296.88	87.5106	2,296.88	83.4087	2,296.88	83.6514	2,296.88	76.3536	2,296.88	85.1989	2,296.88	79.0825	2,296.88	81.3214	2,296.88	78.8574	2,296.88	82.3301	2,296.88	72.6972	2,296.88	77.5601	2,296.88	73.667	2,296.88	75.1265	2,296.88	80.7302	2,296.88	75.3183
2,378.91	98.1998	2,378.91	98.0285	2,378.91	97.4547	2,378.91	98.1404	2,378.91	95.5689	2,378.91	97.954	2,378.91	93.9991	2,378.91	98.1007	2,378.91	91.374	2,378.91	96.4914	2,378.91	90.875	2,378.91	94.0918	2,378.91	88.2173	2,378.91	92.8782	2,378.91	86.3937	2,378.91	92.225	2,378.91	83.312	2,378.91	90.1914	2,378.91	85.4154	2,378.91	85.0366	2,378.91	80.5586	2,378.91	83.4237	2,378.91	82.9008	2,378.91	83.3248	2,378.91	82.5932	2,378.91	84.7171	2,378.91	77.1976	2,378.91	83.0016	2,378.91	75.9141	2,378.91	85.6861	2,378.91	75.1993	2,378.91	79.214	2,378.91	77.4462	2,378.91	74.144	2,378.91	70.118	2,378.91	77.6629
2,462.4	99.6566	2,462.4	99.6609	2,462.4	98.4234	2,462.4	99.8855	2,462.4	96.5997	2,462.4	99.7709	2,462.4	95.4639	2,462.4	98.9218	2,462.4	94.6263	2,462.4	97.8079	2,462.4	92.6221	2,462.4	96.4107	2,462.4	91.2181	2,462.4	94.6397	2,462.4	89.258	2,462.4	93.2927	2,462.4	87.0212	2,462.4	91.2673	2,462.4	84.5851	2,462.4	91.8273	2,462.4	86.6093	2,462.4	87.8543	2,462.4	81.249	2,462.4	83.5806	2,462.4	83.8209	2,462.4	84.9242	2,462.4	79.5679	2,462.4	82.9189	2,462.4	79.9937	2,462.4	80.277	2,462.4	75.8779	2,462.4	83.7239	2,462.4	81.3714	2,462.4	77.5932	2,462.4	78.5195	2,462.4	81.8512
2,548.83	101.358	2,548.83	101.607	2,548.83	99.886	2,548.83	101.369	2,548.83	98.5343	2,548.83	101.074	2,548.83	97.3744	2,548.83	101.1	2,548.83	95.3373	2,548.83	99.6062	2,548.83	93.4358	2,548.83	97.9685	2,548.83	91.9217	2,548.83	96.825	2,548.83	87.561	2,548.83	95.1209	2,548.83	85.5744	2,548.83	93.3858	2,548.83	83.8614	2,548.83	89.7433	2,548.83	83.1069	2,548.83	88.5752	2,548.83	81.9874	2,548.83	86.0486	2,548.83	83.0614	2,548.83	83.1951	2,548.83	77.22	2,548.83	84.0299	2,548.83	80.472	2,548.83	82.4188	2,548.83	74.4229	2,548.83	83.3786	2,548.83	76.0667	2,548.83	78.4963	2,548.83	80.3823	2,548.83	74.6172
2,639.65	100.916	2,639.65	101.596	2,639.65	99.8874	2,639.65	101.741	2,639.65	98.23	2,639.65	101.517	2,639.65	96.8007	2,639.65	100.172	2,639.65	95.3889	2,639.65	99.2394	2,639.65	93.2352	2,639.65	98.0335	2,639.65	89.9117	2,639.65	96.4171	2,639.65	89.7266	2,639.65	95.0098	2,639.65	84.338	2,639.65	92.8949	2,639.65	84.4253	2,639.65	91.2641	2,639.65	84.5275	2,639.65	90.2072	2,639.65	79.7926	2,639.65	85.1761	2,639.65	84.1414	2,639.65	85.2549	2,639.65	73.191	2,639.65	85.2268	2,639.65	77.9062	2,639.65	82.6106	2,639.65	69.857	2,639.65	81.8497	2,639.65	73.169	2,639.65	76.762	2,639.65	79.5643	2,639.65	84.1313
2,731.93	99.2919	2,731.93	100.316	2,731.93	98.1236	2,731.93	100.349	2,731.93	97.261	2,731.93	99.8551	2,731.93	96.4068	2,731.93	99.1544	2,731.93	94.3512	2,731.93	97.9526	2,731.93	91.537	2,731.93	97.0381	2,731.93	90.2632	2,731.93	96.8086	2,731.93	86.6686	2,731.93	94.5619	2,731.93	83.4578	2,731.93	92.6637	2,731.93	81.1381	2,731.93	90.0072	2,731.93	84.3447	2,731.93	87.5299	2,731.93	83.0143	2,731.93	84.5113	2,731.93	83.3639	2,731.93	82.8349	2,731.93	78.4054	2,731.93	83.7619	2,731.93	76.3654	2,731.93	84.5738	2,731.93	59.8309	2,731.93	80.9464	2,731.93	75.815	2,731.93	77.2626	2,731.93	72.0994	2,731.93	78.7238
2,828.61	98.7716	2,828.61	99.512	2,828.61	97.7383	2,828.61	99.8901	2,828.61	96.6565	2,828.61	99.5366	2,828.61	96.4381	2,828.61	97.6514	2,828.61	94.9566	2,828.61	97.3066	2,828.61	92.3553	2,828.61	97.1355	2,828.61	87.5362	2,828.61	95.8102	2,828.61	88.283	2,828.61	93.7444	2,828.61	85.3217	2,828.61	90.5078	2,828.61	79.9997	2,828.61	89.0241	2,828.61	83.9666	2,828.61	87.9794	2,828.61	78.6272	2,828.61	83.9527	2,828.61	84.615	2,828.61	82.0612	2,828.61	78.2939	2,828.61	83.0606	2,828.61	77.8669	2,828.61	83.3321	2,828.61	70.6724	2,828.61	83.8138	2,828.61	76.4999	2,828.61	76.206	2,828.61	73.4529	2,828.61	81.3612
2,928.22	99.0782	2,928.22	100.347	2,928.22	98.6509	2,928.22	100.681	2,928.22	98.3909	2,928.22	99.9791	2,928.22	97.9307	2,928.22	99.1241	2,928.22	95.918	2,928.22	98.5864	2,928.22	93.0519	2,928.22	97.8824	2,928.22	89.6501	2,928.22	97.2605	2,928.22	87.6322	2,928.22	94.1714	2,928.22	85.3846	2,928.22	91.8696	2,928.22	81.6061	2,928.22	89.2436	2,928.22	84.8015	2,928.22	87.3766	2,928.22	83.0762	2,928.22	85.6565	2,928.22	82.6871	2,928.22	82.5347	2,928.22	80.8994	2,928.22	82.6072	2,928.22	78.3841	2,928.22	83.0478	2,928.22	72.1112	2,928.22	82.1573	2,928.22	75.5109	2,928.22	78.9641	2,928.22	75.2926	2,928.22	78.6266
3,030.76	99.7638	3,030.76	100.391	3,030.76	99.2024	3,030.76	100.915	3,030.76	99.2262	3,030.76	100.344	3,030.76	97.7542	3,030.76	99.2963	3,030.76	95.8615	3,030.76	99.3854	3,030.76	92.5913	3,030.76	99.0853	3,030.76	88.9317	3,030.76	97.378	3,030.76	88.4327	3,030.76	95.0975	3,030.76	85.652	3,030.76	92.7912	3,030.76	83.573	3,030.76	89.7305	3,030.76	82.0375	3,030.76	88.5786	3,030.76	80.1135	3,030.76	85.6044	3,030.76	84.5999	3,030.76	83.9615	3,030.76	80.0624	3,030.76	82.5157	3,030.76	79.9852	3,030.76	83.4207	3,030.76	78.0495	3,030.76	83.931	3,030.76	78.5689	3,030.76	77.7277	3,030.76	75.0604	3,030.76	80.1706
3,137.7	100.012	3,137.7	100.863	3,137.7	100.038	3,137.7	101.298	3,137.7	99.1348	3,137.7	100.353	3,137.7	98.163	3,137.7	99.1872	3,137.7	95.6975	3,137.7	99.2703	3,137.7	91.8808	3,137.7	98.9076	3,137.7	89.3072	3,137.7	97.2351	3,137.7	87.1357	3,137.7	94.8802	3,137.7	84.3404	3,137.7	92.6688	3,137.7	82.7348	3,137.7	90.629	3,137.7	81.5181	3,137.7	88.3238	3,137.7	83.3979	3,137.7	86.7833	3,137.7	80.5933	3,137.7	84.6261	3,137.7	81.6536	3,137.7	82.4465	3,137.7	74.2219	3,137.7	85.2994	3,137.7	74.7275	3,137.7	83.4138	3,137.7	73.521	3,137.7	81.6026	3,137.7	81.2799	3,137.7	79.864
3,249.02	99.9154	3,249.02	100.707	3,249.02	99.5536	3,249.02	100.67	3,249.02	99.7842	3,249.02	99.8339	3,249.02	97.7142	3,249.02	99.3441	3,249.02	94.6552	3,249.02	99.3039	3,249.02	92.1115	3,249.02	99.0982	3,249.02	90.4875	3,249.02	97.2052	3,249.02	87.9428	3,249.02	94.6665	3,249.02	85.2819	3,249.02	93.1961	3,249.02	84.5258	3,249.02	90.7575	3,249.02	82.6489	3,249.02	89.7711	3,249.02	82.4339	3,249.02	86.2723	3,249.02	82.4656	3,249.02	86.0985	3,249.02	82.7487	3,249.02	82.6735	3,249.02	76.9762	3,249.02	85.0914	3,249.02	78.4015	3,249.02	83.6603	3,249.02	72.5687	3,249.02	80.3179	3,249.02	81.3187	3,249.02	75.0185
3,363.28	99.229	3,363.28	100.238	3,363.28	99.5203	3,363.28	100.629	3,363.28	99.3533	3,363.28	99.3796	3,363.28	97.6657	3,363.28	98.453	3,363.28	95.5224	3,363.28	99.6611	3,363.28	93.344	3,363.28	99.095	3,363.28	90.2655	3,363.28	97.1973	3,363.28	88.7065	3,363.28	94.6486	3,363.28	86.8384	3,363.28	93.1318	3,363.28	84.326	3,363.28	90.25	3,363.28	82.0224	3,363.28	89.2879	3,363.28	82.4272	3,363.28	86.9133	3,363.28	79.6895	3,363.28	82.7527	3,363.28	82.3487	3,363.28	81.2583	3,363.28	77.2732	3,363.28	82.9811	3,363.28	74.5381	3,363.28	80.9342	3,363.28	67.4529	3,363.28	80.9447	3,363.28	81.4942	3,363.28	69.1775
3,481.93	99.4435	3,481.93	100.378	3,481.93	100.305	3,481.93	101.116	3,481.93	99.4217	3,481.93	99.8483	3,481.93	98.1878	3,481.93	99.2873	3,481.93	96.7954	3,481.93	100.308	3,481.93	94.5956	3,481.93	99.974	3,481.93	91.1563	3,481.93	98.584	3,481.93	90.1231	3,481.93	96.3017	3,481.93	87.5638	3,481.93	93.9325	3,481.93	83.6298	3,481.93	90.9338	3,481.93	82.9949	3,481.93	88.5348	3,481.93	83.1272	3,481.93	85.3381	3,481.93	81.447	3,481.93	83.4677	3,481.93	79.8169	3,481.93	81.2385	3,481.93	77.5889	3,481.93	81.9779	3,481.93	73.3434	3,481.93	81.074	3,481.93	62.3463	3,481.93	79.2631	3,481.93	71.6167	3,481.93	73.8663
3,604.98	98.955	3,604.98	99.6348	3,604.98	99.9018	3,604.98	100.224	3,604.98	99.595	3,604.98	99.2814	3,604.98	97.9131	3,604.98	99.5483	3,604.98	96.5741	3,604.98	100.269	3,604.98	95.1808	3,604.98	99.9548	3,604.98	93.115	3,604.98	98.6501	3,604.98	89.8293	3,604.98	97.0104	3,604.98	88.4458	3,604.98	94.81	3,604.98	86.2005	3,604.98	92.4275	3,604.98	83.8977	3,604.98	89.1212	3,604.98	80.657	3,604.98	86.534	3,604.98	83.794	3,604.98	83.6923	3,604.98	81.1839	3,604.98	80.7897	3,604.98	77.3312	3,604.98	82.3157	3,604.98	67.6504	3,604.98	81.8951	3,604.98	69.4805	3,604.98	79.8313	3,604.98	76.0454	3,604.98	74.4725
3,732.42	99.4222	3,732.42	99.3631	3,732.42	100.026	3,732.42	100.12	3,732.42	99.9651	3,732.42	99.539	3,732.42	98.9742	3,732.42	99.8473	3,732.42	97.9317	3,732.42	100.384	3,732.42	96.2527	3,732.42	100.13	3,732.42	93.5502	3,732.42	98.6552	3,732.42	89.6965	3,732.42	96.2461	3,732.42	87.3771	3,732.42	93.6929	3,732.42	85.0499	3,732.42	90.5162	3,732.42	81.6644	3,732.42	86.9718	3,732.42	80.9989	3,732.42	86.6891	3,732.42	82.7428	3,732.42	81.6772	3,732.42	79.6389	3,732.42	81.2255	3,732.42	78.9644	3,732.42	81.7238	3,732.42	71.4875	3,732.42	80.9132	3,732.42	72.0215	3,732.42	81.7533	3,732.42	77.9091	3,732.42	73.7282
3,864.26	100.315	3,864.26	99.8322	3,864.26	100.43	3,864.26	100.246	3,864.26	99.7216	3,864.26	99.6282	3,864.26	99.1568	3,864.26	100.007	3,864.26	97.5618	3,864.26	100.405	3,864.26	94.564	3,864.26	99.8769	3,864.26	91.5848	3,864.26	98.4644	3,864.26	88.048	3,864.26	95.6375	3,864.26	85.2122	3,864.26	92.1206	3,864.26	82.3944	3,864.26	89.0702	3,864.26	80.0165	3,864.26	86.338	3,864.26	78.0128	3,864.26	84.486	3,864.26	79.8019	3,864.26	84.0327	3,864.26	79.4141	3,864.26	80.9601	3,864.26	76.0975	3,864.26	79.6689	3,864.26	71.3438	3,864.26	80.1704	3,864.26	70.2731	3,864.26	78.0338	3,864.26	74.4973	3,864.26	75.7548
4,000.49	98.5822	4,000.49	97.5741	4,000.49	98.7583	4,000.49	97.7314	4,000.49	97.9191	4,000.49	98.5586	4,000.49	97.191	4,000.49	98.6973	4,000.49	95.6056	4,000.49	98.5824	4,000.49	93.1733	4,000.49	97.2505	4,000.49	89.1112	4,000.49	96.1357	4,000.49	86.2824	4,000.49	93.5014	4,000.49	83.1157	4,000.49	90.1834	4,000.49	82.4074	4,000.49	87.4665	4,000.49	78.1829	4,000.49	84.7879	4,000.49	76.0376	4,000.49	82.9149	4,000.49	79.8461	4,000.49	82.1007	4,000.49	76.8696	4,000.49	78.1547	4,000.49	73.3953	4,000.49	80.3956	4,000.49	71.8042	4,000.49	79.2755	4,000.49	71.4161	4,000.49	78.6274	4,000.49	54.4237	4,000.49	77.1801
4,141.11	97.9843	4,141.11	97.6164	4,141.11	98.0322	4,141.11	97.2946	4,141.11	97.925	4,141.11	97.9259	4,141.11	97.3369	4,141.11	98.567	4,141.11	95.4531	4,141.11	97.7151	4,141.11	91.6082	4,141.11	97.2314	4,141.11	88.8326	4,141.11	95.8072	4,141.11	85.4004	4,141.11	93.4085	4,141.11	82.6232	4,141.11	90.6207	4,141.11	81.2965	4,141.11	87.5676	4,141.11	76.4307	4,141.11	84.1547	4,141.11	78.5009	4,141.11	82.9526	4,141.11	78.4049	4,141.11	80.1953	4,141.11	80.176	4,141.11	77.8033	4,141.11	72.6983	4,141.11	80.116	4,141.11	73.9201	4,141.11	78.1689	4,141.11	72.8741	4,141.11	75.9627	4,141.11	72.7082	4,141.11	72.4091
4,287.6	98.3556	4,287.6	97.5836	4,287.6	98.1561	4,287.6	96.9256	4,287.6	97.7384	4,287.6	98.0518	4,287.6	96.6489	4,287.6	98.3805	4,287.6	93.9123	4,287.6	97.4832	4,287.6	90.8879	4,287.6	97.1937	4,287.6	87.2768	4,287.6	95.4251	4,287.6	85.235	4,287.6	93.3367	4,287.6	82.5657	4,287.6	90.4682	4,287.6	81.2909	4,287.6	88.1355	4,287.6	76.4848	4,287.6	84.0415	4,287.6	76.1972	4,287.6	83.4929	4,287.6	77.8413	4,287.6	81.305	4,287.6	76.3655	4,287.6	74.6438	4,287.6	76.4202	4,287.6	78.5263	4,287.6	71.1014	4,287.6	78.4001	4,287.6	63.753	4,287.6	75.9764	4,287.6	67.6642	4,287.6	69.855
4,438.48	97.6499	4,438.48	96.7208	4,438.48	97.2982	4,438.48	95.721	4,438.48	97.1297	4,438.48	97.3795	4,438.48	95.9118	4,438.48	97.6112	4,438.48	93.9055	4,438.48	96.4881	4,438.48	90.8161	4,438.48	96.325	4,438.48	87.4718	4,438.48	94.8188	4,438.48	84.6291	4,438.48	93.1298	4,438.48	83.567	4,438.48	89.8097	4,438.48	79.916	4,438.48	87.3861	4,438.48	79.3587	4,438.48	84.4709	4,438.48	76.7123	4,438.48	83.0633	4,438.48	75.0362	4,438.48	80.5695	4,438.48	78.2172	4,438.48	77.1968	4,438.48	75.0767	4,438.48	77.165	4,438.48	68.9802	4,438.48	76.2581	4,438.48	64.0147	4,438.48	76.1795	4,438.48	51.363	4,438.48	72.512
4,595.21	97.8278	4,595.21	97.0807	4,595.21	97.189	4,595.21	95.7491	4,595.21	96.796	4,595.21	97.3685	4,595.21	95.5807	4,595.21	97.4262	4,595.21	93.5068	4,595.21	96.5896	4,595.21	90.8776	4,595.21	96.2673	4,595.21	87.6322	4,595.21	94.7682	4,595.21	84.4119	4,595.21	93.023	4,595.21	81.9717	4,595.21	90.5501	4,595.21	79.5879	4,595.21	87.358	4,595.21	78.3421	4,595.21	83.5453	4,595.21	75.2874	4,595.21	80.7133	4,595.21	77.6738	4,595.21	77.7649	4,595.21	77.0861	4,595.21	75.2394	4,595.21	68.5744	4,595.21	77.8167	4,595.21	70.444	4,595.21	75.7744	4,595.21	68.3073	4,595.21	74.367	4,595.21	64.8266	4,595.21	69.6243
4,756.35	97.5676	4,756.35	96.7922	4,756.35	96.7329	4,756.35	95.6259	4,756.35	96.4531	4,756.35	97.3419	4,756.35	95.1455	4,756.35	97.1695	4,756.35	93.5632	4,756.35	96.683	4,756.35	90.8874	4,756.35	96.6086	4,756.35	87.8683	4,756.35	95.2093	4,756.35	85.2026	4,756.35	93.371	4,756.35	81.4215	4,756.35	90.9204	4,756.35	80.1429	4,756.35	87.1513	4,756.35	77.3918	4,756.35	83.8857	4,756.35	73.1963	4,756.35	80.056	4,756.35	76.916	4,756.35	79.4264	4,756.35	78.7347	4,756.35	76.6361	4,756.35	74.295	4,756.35	74.171	4,756.35	69.2625	4,756.35	73.7998	4,756.35	59.7543	4,756.35	75.5773	4,756.35	66.8691	4,756.35	70.5374
4,924.8	98.9582	4,924.8	98.3048	4,924.8	98.4889	4,924.8	97.2078	4,924.8	98.2056	4,924.8	98.6269	4,924.8	96.9686	4,924.8	98.6523	4,924.8	95.018	4,924.8	98.3907	4,924.8	92.1455	4,924.8	98.2508	4,924.8	88.8714	4,924.8	96.6689	4,924.8	85.7856	4,924.8	94.9706	4,924.8	81.4595	4,924.8	91.7599	4,924.8	81.8648	4,924.8	86.7165	4,924.8	77.1194	4,924.8	83.0858	4,924.8	73.9353	4,924.8	80.3439	4,924.8	75.8421	4,924.8	79.7907	4,924.8	78.12	4,924.8	76.6563	4,924.8	73.6709	4,924.8	75.5884	4,924.8	70.5584	4,924.8	75.1869	4,924.8	62.1889	4,924.8	78.9747	4,924.8	71.0311	4,924.8	73.5018
5,097.66	99.1647	5,097.66	98.7666	5,097.66	98.7719	5,097.66	97.9162	5,097.66	98.225	5,097.66	99.1679	5,097.66	96.989	5,097.66	98.8735	5,097.66	94.8609	5,097.66	98.6324	5,097.66	91.8826	5,097.66	97.9587	5,097.66	87.9342	5,097.66	96.2357	5,097.66	85.5461	5,097.66	94.1929	5,097.66	82.0982	5,097.66	91.0167	5,097.66	81.0648	5,097.66	87.3043	5,097.66	78.1389	5,097.66	84.1172	5,097.66	74.6222	5,097.66	82.0989	5,097.66	78.0988	5,097.66	80.227	5,097.66	77.3731	5,097.66	74.7768	5,097.66	72.7404	5,097.66	76.6578	5,097.66	68.3803	5,097.66	72.45	5,097.66	61.7283	5,097.66	75.0248	5,097.66	68.4134	5,097.66	68.1885
5,277.83	97.9165	5,277.83	97.6067	5,277.83	97.6574	5,277.83	96.8746	5,277.83	96.9643	5,277.83	97.7334	5,277.83	96.1182	5,277.83	97.5418	5,277.83	93.652	5,277.83	97.1595	5,277.83	90.4895	5,277.83	96.4152	5,277.83	86.6036	5,277.83	94.8151	5,277.83	84.5842	5,277.83	92.4904	5,277.83	81.3168	5,277.83	88.4124	5,277.83	77.7613	5,277.83	85.5951	5,277.83	77.4753	5,277.83	82.5743	5,277.83	74.5319	5,277.83	81.6471	5,277.83	73.105	5,277.83	79.4774	5,277.83	74.6922	5,277.83	75.7362	5,277.83	72.6722	5,277.83	76.1696	5,277.83	72.984	5,277.83	71.4908	5,277.83	63.9842	5,277.83	73.7845	5,277.83	68.7995	5,277.83	68.6656
5,463.87	98.1382	5,463.87	98.0297	5,463.87	97.8786	5,463.87	97.5354	5,463.87	97.0309	5,463.87	97.9179	5,463.87	96.1485	5,463.87	98.1977	5,463.87	93.6343	5,463.87	97.4969	5,463.87	90.8946	5,463.87	96.8627	5,463.87	87.6098	5,463.87	95.3083	5,463.87	85.2692	5,463.87	93.3312	5,463.87	82.645	5,463.87	90.5385	5,463.87	78.5803	5,463.87	87.5735	5,463.87	77.7893	5,463.87	84.0135	5,463.87	75.3033	5,463.87	81.4567	5,463.87	76.6587	5,463.87	78.8366	5,463.87	75.5849	5,463.87	75.2663	5,463.87	72.3293	5,463.87	76.7017	5,463.87	67.4606	5,463.87	73.5988	5,463.87	61.239	5,463.87	69.9563	5,463.87	67.8852	5,463.87	69.7513
5,657.23	98.6693	5,657.23	98.0972	5,657.23	98.4144	5,657.23	97.9125	5,657.23	97.2451	5,657.23	97.9331	5,657.23	96.4119	5,657.23	98.1917	5,657.23	93.8524	5,657.23	97.1241	5,657.23	91.354	5,657.23	96.7987	5,657.23	88.1207	5,657.23	94.7704	5,657.23	85.4946	5,657.23	92.883	5,657.23	82.046	5,657.23	90.3677	5,657.23	80.1079	5,657.23	87.1763	5,657.23	76.1757	5,657.23	84.0915	5,657.23	76.7574	5,657.23	81.736	5,657.23	74.6449	5,657.23	79.2245	5,657.23	73.921	5,657.23	75.9759	5,657.23	68.4552	5,657.23	74.7646	5,657.23	73.5243	5,657.23	73.6692	5,657.23	62.0271	5,657.23	68.0797	5,657.23	69.3788	5,657.23	69.3347
5,856.45	99.1607	5,856.45	98.5793	5,856.45	98.6656	5,856.45	98.9712	5,856.45	97.836	5,856.45	98.3007	5,856.45	96.4072	5,856.45	98.8323	5,856.45	94.2826	5,856.45	97.7782	5,856.45	91.7168	5,856.45	97.5627	5,856.45	87.9446	5,856.45	95.6646	5,856.45	84.4289	5,856.45	94.1643	5,856.45	82.1915	5,856.45	91.1616	5,856.45	79.1786	5,856.45	88.0441	5,856.45	78.0258	5,856.45	82.7812	5,856.45	75.8216	5,856.45	79.6024	5,856.45	74.1871	5,856.45	77.5063	5,856.45	76.4863	5,856.45	74.5432	5,856.45	70.1072	5,856.45	74.2961	5,856.45	73.8068	5,856.45	73.463	5,856.45	54.9203	5,856.45	70.188	5,856.45	69.5402	5,856.45	69.4117
6,062.99	99.5104	6,062.99	99.0674	6,062.99	99.2527	6,062.99	99.8279	6,062.99	98.3758	6,062.99	98.6627	6,062.99	96.7934	6,062.99	99.5407	6,062.99	95.4441	6,062.99	98.4574	6,062.99	92.6252	6,062.99	97.5438	6,062.99	87.8398	6,062.99	95.8068	6,062.99	85.1038	6,062.99	94.5626	6,062.99	81.7989	6,062.99	90.796	6,062.99	78.8435	6,062.99	87.9408	6,062.99	78.9203	6,062.99	83.1286	6,062.99	73.3474	6,062.99	80.966	6,062.99	77.0197	6,062.99	77.4076	6,062.99	75.4908	6,062.99	76.4815	6,062.99	70.2481	6,062.99	73.5113	6,062.99	67.657	6,062.99	72.0734	6,062.99	67.7066	6,062.99	73.013	6,062.99	68.6783	6,062.99	70.558
6,276.86	100.223	6,276.86	100.271	6,276.86	100.248	6,276.86	101.268	6,276.86	98.7946	6,276.86	100.14	6,276.86	97.5513	6,276.86	100.378	6,276.86	96.1661	6,276.86	99.2561	6,276.86	92.5604	6,276.86	97.9622	6,276.86	88.1708	6,276.86	97.1227	6,276.86	86.1086	6,276.86	95.5705	6,276.86	81.571	6,276.86	91.828	6,276.86	79.0506	6,276.86	87.364	6,276.86	78.4687	6,276.86	84.2505	6,276.86	75.9943	6,276.86	78.9847	6,276.86	78.4459	6,276.86	77.7645	6,276.86	73.9292	6,276.86	77.3611	6,276.86	70.0818	6,276.86	73.8188	6,276.86	62.4543	6,276.86	71.8253	6,276.86	71.0365	6,276.86	71.1583	6,276.86	69.0772	6,276.86	70.5589
6,498.05	99.3034	6,498.05	99.5822	6,498.05	99.3996	6,498.05	100.549	6,498.05	97.9856	6,498.05	99.1442	6,498.05	97.476	6,498.05	98.976	6,498.05	95.3775	6,498.05	98.3245	6,498.05	91.71	6,498.05	97.3155	6,498.05	88.1298	6,498.05	96.7082	6,498.05	86.2937	6,498.05	94.4365	6,498.05	82.4126	6,498.05	90.5531	6,498.05	79.9046	6,498.05	87.1341	6,498.05	76.5641	6,498.05	83.8521	6,498.05	77.3234	6,498.05	79.44	6,498.05	76.5951	6,498.05	78.3114	6,498.05	74.1224	6,498.05	75.6432	6,498.05	68.3237	6,498.05	72.2789	6,498.05	70.9921	6,498.05	68.7431	6,498.05	68.2097	6,498.05	70.2954	6,498.05	69.1452	6,498.05	69.6119
6,726.56	98.8957	6,726.56	99.2888	6,726.56	99.1259	6,726.56	100.161	6,726.56	97.6183	6,726.56	99.0311	6,726.56	97.3839	6,726.56	98.8727	6,726.56	94.92	6,726.56	98.5916	6,726.56	91.9354	6,726.56	97.625	6,726.56	89.1042	6,726.56	96.484	6,726.56	86.2442	6,726.56	94.1682	6,726.56	83.0879	6,726.56	90.1395	6,726.56	79.1976	6,726.56	87.125	6,726.56	77.495	6,726.56	83.0296	6,726.56	77.2079	6,726.56	79.435	6,726.56	75.8867	6,726.56	77.0701	6,726.56	73.4119	6,726.56	75.0392	6,726.56	70.1362	6,726.56	72.5852	6,726.56	69.6686	6,726.56	69.2993	6,726.56	69.1433	6,726.56	70.1235	6,726.56	65.9327	6,726.56	69.9071
6,963.87	98.2954	6,963.87	99.1344	6,963.87	98.607	6,963.87	99.6118	6,963.87	97.1408	6,963.87	98.7379	6,963.87	96.4717	6,963.87	98.2048	6,963.87	94.171	6,963.87	97.6408	6,963.87	91.6914	6,963.87	96.5527	6,963.87	88.1454	6,963.87	94.836	6,963.87	84.4266	6,963.87	92.8707	6,963.87	80.2974	6,963.87	88.7662	6,963.87	75.8662	6,963.87	85.9178	6,963.87	76.1256	6,963.87	81.2297	6,963.87	71.6341	6,963.87	79.1425	6,963.87	73.2806	6,963.87	75.2088	6,963.87	68.1906	6,963.87	73.6097	6,963.87	68.4073	6,963.87	71.89	6,963.87	67.2159	6,963.87	69.7939	6,963.87	65.2586	6,963.87	67.628	6,963.87	67.8553	6,963.87	68.5747
7,209.96	97.849	7,209.96	99.022	7,209.96	98.0903	7,209.96	99.5558	7,209.96	97.0864	7,209.96	98.7698	7,209.96	95.6038	7,209.96	97.9241	7,209.96	94.1812	7,209.96	97.4568	7,209.96	91.8886	7,209.96	96.5098	7,209.96	87.2011	7,209.96	94.3315	7,209.96	83.4294	7,209.96	93.6181	7,209.96	78.8313	7,209.96	89.6717	7,209.96	76.3439	7,209.96	85.0133	7,209.96	75.5788	7,209.96	81.4709	7,209.96	72.9366	7,209.96	75.731	7,209.96	70.5807	7,209.96	73.9706	7,209.96	71.1464	7,209.96	74.3391	7,209.96	67.2766	7,209.96	69.8562	7,209.96	65.0614	7,209.96	70.8152	7,209.96	61.2661	7,209.96	67.3575	7,209.96	67.7303	7,209.96	66.2488
7,464.84	98.4914	7,464.84	99.4778	7,464.84	98.2849	7,464.84	99.9153	7,464.84	97.861	7,464.84	98.922	7,464.84	96.1372	7,464.84	97.7626	7,464.84	94.6998	7,464.84	97.3425	7,464.84	91.1378	7,464.84	96.5586	7,464.84	86.6054	7,464.84	94.131	7,464.84	83.308	7,464.84	93.4168	7,464.84	79.6248	7,464.84	89.0579	7,464.84	77.8946	7,464.84	84.4792	7,464.84	76.1882	7,464.84	81.1392	7,464.84	75.4682	7,464.84	76.6648	7,464.84	70.8389	7,464.84	74.7366	7,464.84	71.0979	7,464.84	73.6657	7,464.84	67.3654	7,464.84	69.1977	7,464.84	68.8169	7,464.84	68.1089	7,464.84	67.5043	7,464.84	66.3208	7,464.84	65.3178	7,464.84	66.9078
7,727.05	98.0191	7,727.05	98.8789	7,727.05	97.9321	7,727.05	99.2817	7,727.05	97.6586	7,727.05	98.5505	7,727.05	96.0826	7,727.05	97.6492	7,727.05	94.8147	7,727.05	97.4692	7,727.05	90.8257	7,727.05	96.8699	7,727.05	87.277	7,727.05	94.5684	7,727.05	84.059	7,727.05	93.543	7,727.05	79.4832	7,727.05	89.4462	7,727.05	77.3162	7,727.05	85.5663	7,727.05	75.828	7,727.05	81.659	7,727.05	71.8291	7,727.05	76.5658	7,727.05	70.3659	7,727.05	74.0268	7,727.05	70.5064	7,727.05	73.3332	7,727.05	67.772	7,727.05	69.5866	7,727.05	67.9874	7,727.05	62.8383	7,727.05	66.0189	7,727.05	61.6434	7,727.05	62.3744	7,727.05	67.4593
7,999.51	97.3812	7,999.51	98.4974	7,999.51	97.2867	7,999.51	98.4368	7,999.51	96.7877	7,999.51	98.3772	7,999.51	95.6339	7,999.51	97.3193	7,999.51	93.9087	7,999.51	97.4339	7,999.51	90.9977	7,999.51	96.4319	7,999.51	86.9616	7,999.51	94.6795	7,999.51	83.9859	7,999.51	93.0477	7,999.51	78.5193	7,999.51	89.1014	7,999.51	75.9092	7,999.51	84.0248	7,999.51	74.8837	7,999.51	79.6757	7,999.51	68.646	7,999.51	74.4012	7,999.51	70.5695	7,999.51	72.908	7,999.51	68.9514	7,999.51	71.7346	7,999.51	66.3744	7,999.51	68.6617	7,999.51	62.6897	7,999.51	63.561	7,999.51	62.4845	7,999.51	66.0528	7,999.51	61.6573	7,999.51	63.3251
8,282.23	98.2124	8,282.23	99.5201	8,282.23	98.5755	8,282.23	99.3459	8,282.23	97.8937	8,282.23	99.3311	8,282.23	96.809	8,282.23	98.0025	8,282.23	94.8714	8,282.23	98.4768	8,282.23	92.3809	8,282.23	97.4586	8,282.23	87.9697	8,282.23	95.3736	8,282.23	84.4652	8,282.23	94.1576	8,282.23	78.715	8,282.23	89.6899	8,282.23	76.7466	8,282.23	84.7487	8,282.23	74.5234	8,282.23	82.2791	8,282.23	67.4077	8,282.23	77.0813	8,282.23	71.5812	8,282.23	76.2603	8,282.23	70.4606	8,282.23	72.4916	8,282.23	66.4032	8,282.23	68.7	8,282.23	71.0604	8,282.23	66.2689	8,282.23	61.4174	8,282.23	55.6021	8,282.23	61.9928	8,282.23	67.4003
8,573.73	99.2829	8,573.73	100.941	8,573.73	100.124	8,573.73	100.677	8,573.73	99.49	8,573.73	100.869	8,573.73	98.2827	8,573.73	99.5838	8,573.73	96.737	8,573.73	100.24	8,573.73	94.4304	8,573.73	99.8867	8,573.73	89.3507	8,573.73	98.0177	8,573.73	86.55	8,573.73	96.6704	8,573.73	80.5563	8,573.73	92.8553	8,573.73	79.6267	8,573.73	87.7114	8,573.73	78.4177	8,573.73	85.0779	8,573.73	72.8033	8,573.73	80.6721	8,573.73	71.1896	8,573.73	78.7681	8,573.73	75.041	8,573.73	74.6976	8,573.73	64.5363	8,573.73	70.899	8,573.73	72.132	8,573.73	66.1887	8,573.73	66.8822	8,573.73	64.1562	8,573.73	64.2903	8,573.73	65.2357
8,876.95	98.2623	8,876.95	100.157	8,876.95	98.8555	8,876.95	99.8075	8,876.95	98.4782	8,876.95	99.9351	8,876.95	96.8276	8,876.95	98.6556	8,876.95	95.5428	8,876.95	99.3137	8,876.95	92.9611	8,876.95	99.6255	8,876.95	88.4969	8,876.95	97.88	8,876.95	85.5732	8,876.95	96.6239	8,876.95	80.6657	8,876.95	93.2625	8,876.95	79.8327	8,876.95	87.8227	8,876.95	77.3632	8,876.95	85.1598	8,876.95	66.2605	8,876.95	82.0896	8,876.95	69.1288	8,876.95	78.7119	8,876.95	74.6561	8,876.95	73.3658	8,876.95	71.2505	8,876.95	71.7199	8,876.95	72.529	8,876.95	67.3224	8,876.95	70.7285	8,876.95	56.5918	8,876.95	66.2741	8,876.95	67.9513
9,188.96	97.7463	9,188.96	99.1087	9,188.96	97.2711	9,188.96	98.6836	9,188.96	97.2771	9,188.96	98.5512	9,188.96	95.3563	9,188.96	97.213	9,188.96	94.1736	9,188.96	96.9219	9,188.96	91.7891	9,188.96	97.5249	9,188.96	86.8928	9,188.96	96.0656	9,188.96	84.4427	9,188.96	95.2746	9,188.96	79.6433	9,188.96	92.0953	9,188.96	78.7162	9,188.96	86.6538	9,188.96	76.084	9,188.96	85.1075	9,188.96	68.1198	9,188.96	79.7045	9,188.96	63.6972	9,188.96	78.7153	9,188.96	73.8863	9,188.96	71.7374	9,188.96	68.0046	9,188.96	71.0419	9,188.96	73.3119	9,188.96	64.3122	9,188.96	66.7455	9,188.96	60.1282	9,188.96	66.5829	9,188.96	65.7574
9,514.16	99.9416	9,514.16	100.421	9,514.16	99.1022	9,514.16	100.054	9,514.16	99.0857	9,514.16	99.7281	9,514.16	97.2957	9,514.16	99.2354	9,514.16	95.7909	9,514.16	98.2846	9,514.16	92.546	9,514.16	98.32	9,514.16	88.5703	9,514.16	96.7552	9,514.16	85.9206	9,514.16	95.7781	9,514.16	79.2866	9,514.16	92.7581	9,514.16	79.3399	9,514.16	88.0121	9,514.16	77.2881	9,514.16	85.2025	9,514.16	71.1067	9,514.16	80.5462	9,514.16	68.5465	9,514.16	79.4999	9,514.16	71.8058	9,514.16	75.3956	9,514.16	66.6826	9,514.16	71.9418	9,514.16	69.1877	9,514.16	57.2177	9,514.16	69.2062	9,514.16	56.017	9,514.16	63.1289	9,514.16	69.9315
9,849.61	101.149	9,849.61	101.17	9,849.61	100.856	9,849.61	101.005	9,849.61	100.676	9,849.61	101.21	9,849.61	99.0292	9,849.61	100.637	9,849.61	97.1511	9,849.61	100.313	9,849.61	94.2759	9,849.61	100.224	9,849.61	89.781	9,849.61	98.3261	9,849.61	86.9831	9,849.61	97.0166	9,849.61	80.8998	9,849.61	94.2247	9,849.61	80.696	9,849.61	89.6584	9,849.61	78.3287	9,849.61	86.13	9,849.61	73.9575	9,849.61	82.0031	9,849.61	69.3785	9,849.61	78.923	9,849.61	75.3772	9,849.61	74.8304	9,849.61	65.1544	9,849.61	71.4304	9,849.61	69.6293	9,849.61	53.0051	9,849.61	67.3743	9,849.61	58.2119	9,849.61	59.4772	9,849.61	63.7971
10,196.8	100.624	10,196.8	100.81	10,196.8	100.358	10,196.8	100.699	10,196.8	100.529	10,196.8	101.017	10,196.8	99.0555	10,196.8	100.513	10,196.8	96.8079	10,196.8	100.551	10,196.8	94.2805	10,196.8	100.491	10,196.8	89.9235	10,196.8	99.2229	10,196.8	86.8807	10,196.8	97.5084	10,196.8	81.7186	10,196.8	95.0631	10,196.8	80.8599	10,196.8	90.036	10,196.8	78.015	10,196.8	86.286	10,196.8	74.5799	10,196.8	82.701	10,196.8	69.0851	10,196.8	79.2567	10,196.8	75.0533	10,196.8	76.2414	10,196.8	67.4671	10,196.8	71.9432	10,196.8	64.4143	10,196.8	55.0089	10,196.8	68.6766	10,196.8	64.3765	10,196.8	64.2147	10,196.8	65.4305
10,555.7	99.3176	10,555.7	99.6913	10,555.7	99.3997	10,555.7	99.3652	10,555.7	99.0161	10,555.7	99.8031	10,555.7	97.9031	10,555.7	99.6847	10,555.7	95.7667	10,555.7	99.7755	10,555.7	93.2769	10,555.7	99.6702	10,555.7	89.4694	10,555.7	98.505	10,555.7	86.2312	10,555.7	96.9198	10,555.7	82.2503	10,555.7	94.186	10,555.7	81.2941	10,555.7	90.6373	10,555.7	77.389	10,555.7	85.6831	10,555.7	75.6362	10,555.7	82.8473	10,555.7	68.4023	10,555.7	79.1363	10,555.7	74.7247	10,555.7	74.9974	10,555.7	65.6644	10,555.7	71.456	10,555.7	61.7795	10,555.7	62.4594	10,555.7	66.3624	10,555.7	66.4552	10,555.7	61.6386	10,555.7	57.8499
10,927.7	98.6888	10,927.7	99.0165	10,927.7	98.8857	10,927.7	98.3651	10,927.7	98.4801	10,927.7	99.0324	10,927.7	97.199	10,927.7	98.7192	10,927.7	95.4195	10,927.7	98.8083	10,927.7	91.6086	10,927.7	98.8242	10,927.7	89.5175	10,927.7	97.6962	10,927.7	85.1243	10,927.7	95.9165	10,927.7	83.1118	10,927.7	93.5744	10,927.7	80.2855	10,927.7	89.8658	10,927.7	75.0062	10,927.7	84.1025	10,927.7	73.1861	10,927.7	80.724	10,927.7	66.9606	10,927.7	77.2499	10,927.7	73.3615	10,927.7	72.1686	10,927.7	69.5883	10,927.7	67.2843	10,927.7	58.5584	10,927.7	62.8542	10,927.7	67.1405	10,927.7	67.7918	10,927.7	60.4	10,927.7	56.556
11,313	99.5746	11,313	99.983	11,313	99.826	11,313	98.9857	11,313	99.7932	11,313	99.6317	11,313	98.9374	11,313	99.6947	11,313	96.0451	11,313	99.4672	11,313	93.1532	11,313	99.9779	11,313	90.3987	11,313	98.4232	11,313	84.7081	11,313	96.0527	11,313	82.4422	11,313	93.3447	11,313	79.3361	11,313	89.7982	11,313	72.6231	11,313	83.2761	11,313	73.7929	11,313	80.7582	11,313	68.2442	11,313	75.769	11,313	72.7128	11,313	69.0121	11,313	67.45	11,313	61.6511	11,313	63.4042	11,313	61.5877	11,313	63.8586	11,313	47.9331	11,313	65.6608	11,313	58.124
11,712.9	101.242	11,712.9	101.215	11,712.9	101.544	11,712.9	100.413	11,712.9	101.428	11,712.9	101.193	11,712.9	100.759	11,712.9	101.325	11,712.9	98.0988	11,712.9	101.235	11,712.9	95.2017	11,712.9	101.777	11,712.9	90.6422	11,712.9	99.7354	11,712.9	86.256	11,712.9	97.5312	11,712.9	84.6269	11,712.9	93.572	11,712.9	80.9435	11,712.9	91.1136	11,712.9	74.7718	11,712.9	84.5207	11,712.9	76.8738	11,712.9	81.8534	11,712.9	70.6415	11,712.9	75.7809	11,712.9	73.5896	11,712.9	69.2696	11,712.9	67.5642	11,712.9	62.9672	11,712.9	61.8538	11,712.9	63.1124	11,712.9	67.8933	11,712.9	62.8318	11,712.9	64.5031	11,712.9	55.8982
12,126	100.97	12,126	100.959	12,126	101.595	12,126	100.013	12,126	101.071	12,126	101.165	12,126	100.432	12,126	101.486	12,126	98.731	12,126	101.428	12,126	94.0896	12,126	101.773	12,126	92.7409	12,126	100.075	12,126	87.5544	12,126	97.9439	12,126	84.7781	12,126	94.0557	12,126	80.581	12,126	90.5924	12,126	73.0725	12,126	84.6667	12,126	76.1546	12,126	81.1891	12,126	68.3085	12,126	76.194	12,126	74.6741	12,126	70.2714	12,126	66.8184	12,126	51.9121	12,126	66.495	12,126	66.2415	12,126	65.1482	12,126	59.6425	12,126	54.2977	12,126	50.6465
12,553.7	99.5944	12,553.7	99.4476	12,553.7	100.541	12,553.7	98.7653	12,553.7	100.234	12,553.7	100.011	12,553.7	99.175	12,553.7	100.181	12,553.7	97.2223	12,553.7	100.302	12,553.7	94.3826	12,553.7	100.783	12,553.7	90.7264	12,553.7	99.0555	12,553.7	84.433	12,553.7	96.3963	12,553.7	82.5209	12,553.7	92.5818	12,553.7	77.4617	12,553.7	88.791	12,553.7	68.6536	12,553.7	83.5505	12,553.7	75.7727	12,553.7	79.0479	12,553.7	67.2482	12,553.7	73.4004	12,553.7	68.4447	12,553.7	66.6226	12,553.7	62.6887	12,553.7	59.9986	12,553.7	66.1773	12,553.7	67.5228	12,553.7	51.5354	12,553.7	55.3371	12,553.7	60.6789	12,553.7	60.3739
12,996.1	98.3649	12,996.1	98.1394	12,996.1	99.0917	12,996.1	97.742	12,996.1	99.1822	12,996.1	98.9701	12,996.1	98.5964	12,996.1	98.6208	12,996.1	96.3421	12,996.1	98.8188	12,996.1	93.2332	12,996.1	99.5165	12,996.1	88.9285	12,996.1	97.5196	12,996.1	84.4539	12,996.1	95.067	12,996.1	81.1873	12,996.1	90.7059	12,996.1	76.4978	12,996.1	86.8335	12,996.1	68.6187	12,996.1	81.7698	12,996.1	74.8128	12,996.1	75.5864	12,996.1	64.4171	12,996.1	70.882	12,996.1	69.6591	12,996.1	67.4586	12,996.1	67.8514	12,996.1	58.6738	12,996.1	62.3573	12,996.1	67.1504	12,996.1	39.3663	12,996.1	55.7075	12,996.1	58.6379	12,996.1	49.3276
13,454.6	98.4756	13,454.6	98.2336	13,454.6	99.2214	13,454.6	97.2197	13,454.6	98.8112	13,454.6	98.4567	13,454.6	98.394	13,454.6	98.3688	13,454.6	96.7306	13,454.6	98.5452	13,454.6	92.0088	13,454.6	99.1562	13,454.6	89.4188	13,454.6	96.7478	13,454.6	84.7508	13,454.6	94.3389	13,454.6	80.4603	13,454.6	89.2566	13,454.6	76.2515	13,454.6	84.9484	13,454.6	70.0145	13,454.6	80.1249	13,454.6	74.5561	13,454.6	73.2844	13,454.6	61.5327	13,454.6	70.0597	13,454.6	65.2338	13,454.6	67.0725	13,454.6	68.9684	13,454.6	61.8108	13,454.6	58.4569	13,454.6	65.3893	13,454.6	49.9338	13,454.6	62.0189	13,454.6	41.522	13,454.6	56.9083
13,929.2	99.673	13,929.2	99.6784	13,929.2	100.445	13,929.2	98.5362	13,929.2	100.089	13,929.2	99.5061	13,929.2	99.3341	13,929.2	99.4344	13,929.2	97.2587	13,929.2	99.6763	13,929.2	93.3351	13,929.2	99.6253	13,929.2	88.8344	13,929.2	96.5991	13,929.2	83.7233	13,929.2	93.7716	13,929.2	80.0218	13,929.2	87.7799	13,929.2	75.7568	13,929.2	82.845	13,929.2	68.5308	13,929.2	78.1497	13,929.2	72.1141	13,929.2	71.3945	13,929.2	60.484	13,929.2	65.5241	13,929.2	61.5328	13,929.2	65.2315	13,929.2	68.928	13,929.2	62.2041	13,929.2	62.159	13,929.2	67.3887	13,929.2	57.713	13,929.2	55.6342	13,929.2	51.0275	13,929.2	52.0732
14,419.9	99.6791	14,419.9	99.6252	14,419.9	100.135	14,419.9	99.0667	14,419.9	100.031	14,419.9	100.081	14,419.9	98.8799	14,419.9	100.37	14,419.9	96.8035	14,419.9	100.526	14,419.9	93.1372	14,419.9	100.466	14,419.9	87.7399	14,419.9	97.2421	14,419.9	84.4792	14,419.9	93.5966	14,419.9	80.0994	14,419.9	86.1986	14,419.9	73.9764	14,419.9	79.6263	14,419.9	67.1428	14,419.9	76.2371	14,419.9	70.8809	14,419.9	67.8896	14,419.9	61.5663	14,419.9	66.4199	14,419.9	63.7041	14,419.9	64.3211	14,419.9	68.5241	14,419.9	64.4053	14,419.9	62.2899	14,419.9	68.9245	14,419.9	58.7219	14,419.9	66.0844	14,419.9	58.9373	14,419.9	58.7023
14,928.2	97.9621	14,928.2	97.5678	14,928.2	99.036	14,928.2	97.3993	14,928.2	98.604	14,928.2	98.474	14,928.2	97.2905	14,928.2	98.9908	14,928.2	95.3576	14,928.2	99.1894	14,928.2	90.4014	14,928.2	98.7955	14,928.2	87.1391	14,928.2	95.5315	14,928.2	82.3191	14,928.2	91.4074	14,928.2	75.8658	14,928.2	84.419	14,928.2	70.5813	14,928.2	78.5185	14,928.2	66.5389	14,928.2	75.0331	14,928.2	69.7597	14,928.2	66.5542	14,928.2	60.7885	14,928.2	69.0676	14,928.2	42.3388	14,928.2	63.2305	14,928.2	70.8479	14,928.2	64.8389	14,928.2	63.14	14,928.2	68.4197	14,928.2	62.8298	14,928.2	63.2058	14,928.2	50.756	14,928.2	64.7033
15,455.6	97.9079	15,455.6	97.9116	15,455.6	99.0638	15,455.6	97.5777	15,455.6	98.4011	15,455.6	98.5416	15,455.6	96.6339	15,455.6	98.9422	15,455.6	94.6309	15,455.6	98.7381	15,455.6	90.1468	15,455.6	97.6814	15,455.6	84.135	15,455.6	94.4246	15,455.6	77.6943	15,455.6	89.5025	15,455.6	74.3629	15,455.6	85.7771	15,455.6	68.6318	15,455.6	77.6249	15,455.6	62.3355	15,455.6	74.0804	15,455.6	63.3484	15,455.6	69.7612	15,455.6	53.8334	15,455.6	71.9505	15,455.6	64.9558	15,455.6	64.6427	15,455.6	70.2341	15,455.6	63.8705	15,455.6	68.5327	15,455.6	69.3571	15,455.6	58.0213	15,455.6	61.8525	15,455.6	58.5185	15,455.6	65.0137
16,000.5	99.7831	16,000.5	99.8754	16,000.5	100.766	16,000.5	99.4078	16,000.5	99.5262	16,000.5	100.339	16,000.5	97.5237	16,000.5	100.597	16,000.5	94.6584	16,000.5	99.9551	16,000.5	89.801	16,000.5	98.4911	16,000.5	85.3456	16,000.5	95.1287	16,000.5	77.0924	16,000.5	90.1831	16,000.5	76.6136	16,000.5	87.5652	16,000.5	70.3001	16,000.5	83.7564	16,000.5	67.1111	16,000.5	75.6196	16,000.5	69.3929	16,000.5	75.8316	16,000.5	58.1685	16,000.5	78.0306	16,000.5	61.9445	16,000.5	66.8087	16,000.5	71.9075	16,000.5	65.5976	16,000.5	70.4244	16,000.5	71.6432	16,000.5	53.3194	16,000.5	64.0182	16,000.5	63.1216	16,000.5	67.4105
16,564.5	98.4028	16,564.5	98.8573	16,564.5	98.9542	16,564.5	98.3065	16,564.5	97.3497	16,564.5	99.2794	16,564.5	95.0521	16,564.5	98.9748	16,564.5	91.4116	16,564.5	97.7072	16,564.5	83.8016	16,564.5	95.5076	16,564.5	82.0344	16,564.5	91.5463	16,564.5	65.8179	16,564.5	86.7527	16,564.5	71.8149	16,564.5	84.6632	16,564.5	65.5124	16,564.5	81.939	16,564.5	67.2653	16,564.5	69.0942	16,564.5	68.9118	16,564.5	75.6323	16,564.5	66.1276	16,564.5	78.7761	16,564.5	69.9779	16,564.5	67.3616	16,564.5	68.8622	16,564.5	62.5951	16,564.5	69.8539	16,564.5	69.5849	16,564.5	61.8394	16,564.5	65.6107	16,564.5	57.4721	16,564.5	65.5367
17,148.9	94.7189	17,148.9	95.4148	17,148.9	94.9157	17,148.9	94.9545	17,148.9	92.2937	17,148.9	96.1188	17,148.9	89.603	17,148.9	95.4926	17,148.9	84.7099	17,148.9	92.5873	17,148.9	76.6829	17,148.9	88.7231	17,148.9	68.4374	17,148.9	83.3255	17,148.9	66.6643	17,148.9	78.0536	17,148.9	63.4161	17,148.9	77.8746	17,148.9	56.2178	17,148.9	77.006	17,148.9	66.1644	17,148.9	60.1181	17,148.9	62.5996	17,148.9	72.988	17,148.9	64.0174	17,148.9	75.7446	17,148.9	68.7107	17,148.9	63.728	17,148.9	67.0989	17,148.9	55.9693	17,148.9	61.8217	17,148.9	64.6031	17,148.9	65.2842	17,148.9	62.259	17,148.9	63.3775	17,148.9	58.8187
17,752.4	92.4049	17,752.4	92.313	17,752.4	93.7795	17,752.4	92.0576	17,752.4	92.2787	17,752.4	93.6697	17,752.4	88.9517	17,752.4	94.1204	17,752.4	85.5538	17,752.4	91.3275	17,752.4	79.8665	17,752.4	87.7748	17,752.4	72.7498	17,752.4	83.0518	17,752.4	71.103	17,752.4	84.66	17,752.4	46.7508	17,752.4	77.8693	17,752.4	43.1324	17,752.4	78.0692	17,752.4	68.9953	17,752.4	68.336	17,752.4	65.8597	17,752.4	72.1952	17,752.4	62.5141	17,752.4	74.888	17,752.4	66.6906	17,752.4	64.2932	17,752.4	67.6466	17,752.4	52.429	17,752.4	65.1827	17,752.4	61.2598	17,752.4	62.1446	17,752.4	64.8018	17,752.4	42.6995	17,752.4	60.3182
18,379.4	91.6917	18,379.4	90.1609	18,379.4	93.1758	18,379.4	89.9829	18,379.4	91.4023	18,379.4	92.2718	18,379.4	87.2502	18,379.4	94.4047	18,379.4	85.0023	18,379.4	91.9301	18,379.4	80.2551	18,379.4	88.8089	18,379.4	71.0695	18,379.4	84.7976	18,379.4	72.5987	18,379.4	86.9022	18,379.4	57.37	18,379.4	81.9438	18,379.4	49.2477	18,379.4	80.9129	18,379.4	70.0665	18,379.4	66.6028	18,379.4	63.6498	18,379.4	73.8429	18,379.4	64.9344	18,379.4	75.8817	18,379.4	61.8595	18,379.4	65.2722	18,379.4	70.5913	18,379.4	49.9321	18,379.4	65.7601	18,379.4	63.4074	18,379.4	63.7399	18,379.4	64.0109	18,379.4	59.3824	18,379.4	54.2943
19,026.9	91.4129	19,026.9	89.7102	19,026.9	92.5486	19,026.9	88.4832	19,026.9	90.4513	19,026.9	90.958	19,026.9	85.2312	19,026.9	92.7962	19,026.9	84.2937	19,026.9	90.4165	19,026.9	81.7922	19,026.9	88.0643	19,026.9	70.6274	19,026.9	85.7606	19,026.9	70.0687	19,026.9	86.8557	19,026.9	67.4185	19,026.9	83.296	19,026.9	55.0921	19,026.9	83.2414	19,026.9	68.8148	19,026.9	68.6901	19,026.9	56.4611	19,026.9	72.879	19,026.9	65.4786	19,026.9	74.316	19,026.9	64.5937	19,026.9	63.0113	19,026.9	68.4129	19,026.9	57.1631	19,026.9	65.581	19,026.9	61.8247	19,026.9	49.9966	19,026.9	62.4413	19,026.9	64.2307	19,026.9	60.9354
19,697.8	91.0715	19,697.8	90.1076	19,697.8	92.6753	19,697.8	87.0066	19,697.8	91.0696	19,697.8	89.5839	19,697.8	87.3299	19,697.8	87.9215	19,697.8	85.2496	19,697.8	84.6587	19,697.8	80.9449	19,697.8	85.3192	19,697.8	71.1614	19,697.8	84.9251	19,697.8	69.5506	19,697.8	85.7282	19,697.8	66.3831	19,697.8	83.8928	19,697.8	59.5511	19,697.8	84.4392	19,697.8	69.4514	19,697.8	66.0333	19,697.8	65.2477	19,697.8	75.5167	19,697.8	66.8365	19,697.8	74.693	19,697.8	51.0788	19,697.8	57.9653	19,697.8	63.4369	19,697.8	62.0065	19,697.8	59.5027	19,697.8	63.5614	19,697.8	64.229	19,697.8	66.278	19,697.8	66.1618	19,697.8	67.4513
19,999.5	90.5422	19,999.5	90.5566	19,999.5	92.1443	19,999.5	88.2168	19,999.5	90.0591	19,999.5	91.6503	19,999.5	87.2674	19,999.5	89.3551	19,999.5	83.1431	19,999.5	83.3814	19,999.5	77.9445	19,999.5	83.6514	19,999.5	72.2711	19,999.5	83.1058	19,999.5	66.5798	19,999.5	84.4622	19,999.5	67.071	19,999.5	84.2454	19,999.5	61.8516	19,999.5	83.5428	19,999.5	64.8962	19,999.5	68.8876	19,999.5	70.9597	19,999.5	74.4654	19,999.5	67.18	19,999.5	75.256	19,999.5	63.2316	19,999.5	61.2184	19,999.5	66.8638	19,999.5	62.0646	19,999.5	66.507	19,999.5	64.4105	19,999.5	65.7993	19,999.5	65.4374	19,999.5	63.0551	19,999.5	68.5862
