Freq[Hz]     dBSPL  Phase[Deg]
5.00000      0.364    20.340
5.07273      0.237    23.650
5.14651      0.170    27.386
5.22137      0.274    32.313
5.29732      0.378    37.240
5.37437      0.482    42.167
5.45254      0.586    47.093
5.53185      0.832    51.447
5.61231      1.229    55.193
5.69394      1.626    58.940
5.77676      2.023    62.686
5.86079      2.418    66.402
5.94604      2.697    68.317
6.03252      2.977    70.232
6.12027      3.257    72.146
6.20929      3.536    74.061
6.29961      3.528    76.064
6.39124      3.456    78.085
6.48420      3.383    80.107
6.57851      3.311    82.129
6.67420      3.029    86.991
6.77128      2.714    92.313
6.86977      2.398    97.635
6.96969      2.155   103.377
7.07107      2.463   112.305
7.17392      2.771   121.233
7.27827      3.080   130.161
7.38413      3.711   136.938
7.49154      4.592   142.053
7.60050      5.473   147.168
7.71105      6.289   151.663
7.82321      6.817   153.434
7.93701      7.346   155.204
8.05245      7.874   156.974
8.16958      7.778   159.243
8.28841      7.659   161.531
8.40896      7.541   163.818
8.53128      7.004   172.267
8.65537      6.414  -178.489
8.78126      5.823  -169.245
8.90899      6.814  -153.486
9.03857      7.909  -137.299
9.17004      9.110  -122.220
9.30342     11.160  -115.951
9.43874     13.211  -109.681
9.57603     15.080  -105.367
9.71532     16.674  -104.039
9.85663     18.268  -102.711
10.0000     19.533  -102.393
10.1455     20.706  -102.356
10.2930     21.813  -102.428
10.4427     22.737  -102.802
10.5946     23.660  -103.177
10.7487     24.485  -103.885
10.9051     25.289  -104.661
11.0637     26.038  -105.700
11.2246     26.728  -107.016
11.3879     27.385  -108.433
11.5535     27.926  -110.213
11.7216     28.463  -111.995
11.8921     28.822  -113.857
12.0650     29.182  -115.720
12.2405     29.393  -117.116
12.4186     29.585  -118.452
12.5992     29.715  -118.864
12.7825     29.832  -119.071
12.9684     30.027  -118.349
13.1570     30.240  -117.410
13.3484     30.652  -116.416
13.5426     31.096  -115.414
13.7395     31.695  -115.678
13.9394     32.298  -116.190
14.1421     32.879  -118.222
14.3478     33.403  -120.631
14.5565     33.806  -123.851
14.7683     34.072  -127.225
14.9831     34.232  -130.716
15.2010     34.195  -133.536
15.4221     34.103  -135.908
15.6464     33.919  -136.814
15.8740     33.809  -136.553
16.1049     33.757  -135.361
16.3392     34.049  -133.424
16.5768     34.475  -131.976
16.8179     35.080  -131.279
17.0626     35.724  -132.338
17.3107     36.313  -134.154
17.5625     36.811  -136.779
17.8180     37.104  -139.669
18.0771     37.286  -142.226
18.3401     37.368  -144.297
18.6068     37.382  -145.202
18.8775     37.452  -145.167
19.1521     37.610  -144.611
19.4306     37.883  -143.797
19.7133     38.288  -143.392
20.0000     38.720  -143.617
20.2909     39.135  -144.318
20.5860     39.509  -145.353
20.8855     39.831  -146.519
21.1893     40.114  -147.617
21.4975     40.392  -148.679
21.8102     40.674  -149.832
22.1274     40.950  -151.180
22.4492     41.202  -152.751
22.7758     41.413  -154.455
23.1071     41.576  -156.100
23.4432     41.711  -157.469
23.7841     41.862  -158.450
24.1301     42.076  -159.220
24.4811     42.364  -160.072
24.8372     42.701  -161.244
25.1984     43.048  -162.789
25.5649     43.372  -164.556
25.9368     43.666  -166.297
26.3141     43.945  -167.807
26.6968     44.242  -169.035
27.0851     44.576  -170.093
27.4791     44.951  -171.155
27.8788     45.339  -172.317
28.2843     45.719  -173.525
28.6957     46.083  -174.666
29.1131     46.436  -175.663
29.5365     46.790  -176.530
29.9661     47.146  -177.345
30.4020     47.497  -178.178
30.8442     47.828  -179.040
31.2929     48.136  -179.882
31.7480     48.427   179.331
32.2098     48.708   178.595
32.6783     48.991   177.857
33.1536     49.276   177.054
33.6359     49.562   176.154
34.1251     49.846   175.142
34.6215     50.132   174.042
35.1250     50.417   172.886
35.6359     50.708   171.698
36.1543     51.009   170.500
36.6802     51.325   169.284
37.2137     51.657   168.027
37.7550     51.994   166.726
38.3041     52.332   165.424
38.8613     52.668   164.183
39.4265     53.014   163.014
40.0000     53.368   161.820
40.5818     53.719   160.519
41.1721     54.044   159.142
41.7710     54.344   157.779
42.3785     54.620   156.452
42.9949     54.876   155.129
43.6203     55.108   153.878
44.2548     55.334   152.803
44.8985     55.592   151.748
45.5515     55.865   150.458
46.2141     56.116   148.997
46.8863     56.360   147.656
47.5683     56.657   146.319
48.2602     56.983   144.510
48.9621     57.259   142.375
49.6743     57.489   140.536
50.3968     57.767   139.073
51.1299     58.110   137.475
51.8736     58.449   135.651
52.6281     58.771   133.953
53.3936     59.105   132.425
54.1702     59.443   130.909
54.9581     59.763   129.430
55.7575     60.067   127.987
56.5685     60.351   126.492
57.3914     60.612   124.920
58.2261     60.855   123.208
59.0730     61.071   121.334
59.9323     61.276   119.441
60.8040     61.497   117.572
61.6884     61.753   115.652
62.5857     62.038   113.650
63.4960     62.339   111.591
64.4196     62.640   109.567
65.3566     62.935   107.644
66.3073     63.213   105.844
67.2717     63.478   104.197
68.2502     63.733   102.582
69.2429     63.974   100.915
70.2501     64.207    99.195
71.2719     64.444    97.294
72.3086     64.678    95.156
73.3603     64.905    92.813
74.4274     65.120    90.361
75.5099     65.340    87.958
76.6083     65.570    85.609
77.7226     65.800    83.450
78.8531     66.051    81.531
80.0000     66.318    79.638
81.1636     66.570    77.638
82.3442     66.805    75.514
83.5419     67.028    73.123
84.7570     67.236    70.471
85.9899     67.447    67.712
87.2406     67.679    65.000
88.5096     67.937    62.351
89.7970     68.198    59.757
91.1031     68.436    57.086
92.4282     68.615    54.280
93.7726     68.732    51.426
95.1366     68.820    48.730
96.5204     68.944    46.267
97.9243     69.124    43.859
99.3486     69.329    41.418
100.794     69.529    38.946
102.260     69.711    36.398
103.747     69.876    33.687
105.256     70.035    30.811
106.787     70.199    27.756
108.340     70.342    24.519
109.916     70.455    21.393
111.515     70.534    18.463
113.137     70.645    15.823
114.783     70.763    12.963
116.452     70.860    10.069
118.146     70.956     7.257
119.865     71.066     4.360
121.608     71.173     1.373
123.377     71.268    -1.627
125.171     71.347    -4.650
126.992     71.420    -7.660
128.839     71.503   -10.782
130.713     71.578   -14.179
132.615     71.598   -17.530
134.543     71.610   -20.552
136.500     71.661   -23.633
138.486     71.684   -26.600
140.500     71.682   -29.750
142.544     71.676   -32.842
144.617     71.671   -35.595
146.721     71.678   -38.007
148.855     71.765   -40.888
151.020     71.820   -44.551
153.217     71.749   -47.978
155.445     71.763   -50.774
157.706     71.780   -54.278
160.000     71.591   -57.422
162.327     71.491   -59.428
164.688     71.508   -61.599
167.084     71.632   -64.020
169.514     71.722   -68.027
171.980     71.501   -71.536
174.481     71.339   -73.450
177.019     71.327   -75.267
179.594     71.398   -77.495
182.206     71.479   -80.025
184.856     71.634   -82.681
187.545     71.743   -85.685
190.273     71.797   -88.924
193.041     71.832   -92.412
195.849     71.819   -95.556
198.697     71.856   -99.078
201.587     71.790  -103.481
204.520     71.581  -106.653
207.494     71.439  -109.342
210.512     71.303  -111.159
213.574     71.352  -113.645
216.681     71.328  -116.119
219.833     71.326  -118.475
223.030     71.425  -120.780
226.274     71.507  -124.119
229.565     71.545  -127.449
232.905     71.416  -130.032
236.292     71.451  -132.518
239.729     71.494  -135.215
243.216     71.568  -138.015
246.754     71.528  -141.119
250.343     71.557  -144.492
253.984     71.370  -147.433
257.678     71.409  -149.893
261.426     71.468  -152.581
265.229     71.434  -156.051
269.087     71.184  -158.692
273.001     71.142  -159.635
276.972     71.228  -161.859
281.000     71.229  -163.527
285.088     71.367  -165.856
289.234     71.630  -168.182
293.441     71.758  -172.248
297.709     71.528  -176.903
302.040     71.312  -178.984
306.433     71.125  -179.541
310.890     71.511   179.549
315.412     71.620   175.010
320.000     71.388   172.309
324.655     71.374   170.998
329.377     71.446   169.694
334.168     71.646   166.129
339.028     71.422   163.388
343.959     71.450   161.108
348.962     71.287   158.434
354.038     71.398   156.875
359.188     71.546   152.932
364.412     71.433   149.773
369.713     71.435   146.343
375.090     71.450   142.757
380.546     71.509   139.484
386.081     71.619   133.862
391.697     71.219   129.506
397.394     71.214   125.654
403.175     71.155   122.288
409.039     71.177   117.948
414.989     71.077   113.442
421.025     70.956   109.120
427.149     70.843   105.072
433.362     70.745   101.464
439.665     70.623    97.671
446.060     70.516    94.189
452.548     70.415    91.194
459.131     70.287    88.463
465.809     70.191    86.054
472.584     70.126    84.285
479.458     70.059    82.853
486.432     70.024    81.525
493.507     70.008    80.265
500.686     69.992    78.994
507.968     70.005    77.701
515.357     70.037    76.313
522.853     70.089    75.060
530.458     70.150    73.659
538.174     70.207    72.213
546.002     70.279    70.673
553.943     70.352    69.069
562.001     70.427    67.358
570.175     70.506    65.556
578.469     70.566    63.708
586.883     70.624    61.753
595.419     70.680    59.842
604.080     70.715    57.932
612.866     70.730    56.007
621.780     70.741    54.023
630.824     70.736    52.105
640.000     70.723    50.289
649.309     70.704    48.553
658.753     70.674    46.934
668.335     70.647    45.404
678.056     70.624    44.051
687.919     70.604    42.801
697.925     70.600    41.636
708.077     70.618    40.616
718.376     70.666    39.626
728.825     70.734    38.661
739.426     70.832    37.666
750.181     70.957    36.556
761.093     71.112    35.310
772.163     71.277    33.938
783.394     71.455    32.313
794.789     71.642    30.436
806.349     71.820    28.384
818.078     71.988    26.068
829.977     72.132    23.580
842.050     72.254    20.904
854.298     72.348    18.084
866.724     72.399    15.274
879.330     72.410    12.323
892.120     72.390     9.388
905.097     72.327     6.552
918.262     72.228     3.807
931.618     72.098     1.263
945.169     71.943    -1.077
958.917     71.781    -3.145
972.864     71.605    -4.917
987.015     71.443    -6.417
1001.37     71.294    -7.726
1015.94     71.177    -8.823
1030.71     71.098    -9.830
1045.71     71.052   -10.831
1060.92     71.031   -11.945
1076.35     71.025   -13.182
1092.00     71.028   -14.571
1107.89     71.023   -16.074
1124.00     70.999   -17.624
1140.35     70.949   -19.165
1156.94     70.890   -20.591
1173.77     70.819   -21.767
1190.84     70.763   -22.676
1208.16     70.738   -23.312
1225.73     70.771   -23.798
1243.56     70.883   -24.253
1261.65     71.071   -24.899
1280.00     71.320   -25.992
1298.62     71.612   -27.590
1317.51     71.910   -29.836
1336.67     72.190   -32.686
1356.11     72.420   -36.052
1375.84     72.588   -39.814
1395.85     72.676   -43.860
1416.15     72.690   -48.004
1436.75     72.629   -52.107
1457.65     72.500   -56.116
1478.85     72.311   -59.948
1500.36     72.078   -63.552
1522.19     71.798   -66.937
1544.33     71.480   -70.069
1566.79     71.116   -72.943
1589.58     70.708   -75.433
1612.70     70.266   -77.414
1636.16     69.809   -78.611
1659.95     69.366   -78.967
1684.10     69.016   -78.524
1708.60     68.818   -77.533
1733.45     68.790   -76.574
1758.66     68.907   -76.237
1784.24     69.086   -76.725
1810.19     69.246   -78.064
1836.52     69.339   -79.879
1863.24     69.354   -81.788
1890.34     69.321   -83.413
1917.83     69.296   -84.630
1945.73     69.325   -85.583
1974.03     69.422   -86.682
2002.74     69.566   -88.244
2031.87     69.693   -90.237
2061.43     69.764   -92.524
2091.41     69.779   -94.733
2121.83     69.776   -96.574
2152.69     69.803   -98.062
2184.01     69.907   -99.544
2215.77     70.069  -101.406
2248.00     70.237  -103.824
2280.70     70.357  -106.601
2313.87     70.410  -109.441
2347.53     70.438  -112.053
2381.68     70.483  -114.462
2416.32     70.578  -117.041
2451.46     70.687  -120.058
2487.12     70.740  -123.576
2523.30     70.700  -127.261
2560.00     70.575  -130.625
2597.24     70.427  -133.473
2635.01     70.315  -135.995
2673.34     70.235  -138.649
2712.23     70.129  -141.585
2751.68     69.945  -144.520
2791.70     69.695  -146.932
2832.31     69.468  -148.619
2873.50     69.325  -149.931
2915.30     69.259  -151.510
2957.70     69.182  -153.464
3000.72     69.059  -155.402
3044.37     68.913  -156.962
3088.65     68.819  -158.252
3133.58     68.776  -159.702
3179.16     68.724  -161.423
3225.40     68.624  -163.183
3272.31     68.505  -164.646
3319.91     68.399  -165.857
3368.20     68.303  -166.994
3417.19     68.201  -167.904
3466.89     68.116  -168.382
3517.32     68.120  -168.530
3568.48     68.227  -168.870
3620.39     68.373  -169.753
3673.05     68.499  -170.943
3726.47     68.624  -172.127
3780.67     68.782  -173.422
3835.67     68.941  -175.211
3891.46     69.032  -177.190
3948.06     69.086  -178.827
4005.49     69.204   179.721
4063.75     69.372   177.701
4122.86     69.458   175.084
4182.82     69.448   172.722
4243.66     69.445   170.717
4305.39     69.429   168.432
4368.01     69.305   166.401
4431.55     69.200   165.470
4496.01     69.284   164.614
4561.40     69.427   162.601
4627.75     69.475   159.821
4695.06     69.396   156.615
4763.35     69.098   153.565
4832.64     68.659   152.123
4902.93     68.358   151.815
4974.24     68.070   151.208
5046.60     67.707   151.883
5120.00     67.582   153.456
5194.47     67.537   154.149
5270.03     67.473   155.614
5346.68     67.633   156.851
5424.45     67.741   157.199
5503.35     67.888   158.309
5583.40     68.191   158.583
5664.61     68.439   158.511
5747.01     68.835   158.071
5830.60     69.151   155.948
5915.41     69.333   153.788
6001.45     69.433   150.832
6088.74     69.271   148.320
6177.30     69.114   146.806
6267.15     68.862   145.644
6358.31     68.705   145.762
6450.80     68.582   145.357
6544.62     68.483   145.940
6639.82     68.493   145.601
6736.40     68.416   145.851
6834.38     68.484   145.301
6933.79     68.353   144.829
7034.64     68.312   144.222
7136.96     68.039   144.115
7240.77     67.922   144.615
7346.09     67.682   145.883
7452.94     67.729   147.179
7561.35     67.667   148.543
7671.33     67.840   149.372
7782.91     67.898   150.041
7896.12     68.033   149.485
8010.97     68.001   149.434
8127.49     67.892   148.687
8245.71     67.754   149.290
8365.65     67.499   148.972
8487.33     67.274   149.192
8610.78     66.776   149.546
8736.03     66.301   150.204
8863.09     65.665   153.016
8992.01     65.138   156.926
9122.80     65.028   162.135
9255.50     65.208   166.777
9390.12     65.637   168.504
9526.70     66.046   168.360
9665.27     66.187   166.770
9805.86     66.114   164.636
9948.49     65.871   163.350
10093.2     65.490   163.955
10240.0     65.257   166.127
10388.9     65.311   168.354
10540.1     65.453   169.974
10693.4     65.541   170.754
10848.9     65.572   171.117
11006.7     65.605   171.540
11166.8     65.573   171.968
11329.2     65.453   172.423
11494.0     65.272   173.243
11661.2     65.100   174.597
11830.8     64.976   176.556
12002.9     64.932   178.825
12177.5     65.024  -179.216
12354.6     65.077  -179.071
12534.3     64.827  -178.343
12716.6     64.655  -175.891
12901.6     64.695  -173.588
13089.2     64.769  -172.389
13279.6     64.698  -171.814
13472.8     64.466  -170.573
13668.8     64.245  -168.012
13867.6     64.232  -164.872
14069.3     64.376  -162.729
14273.9     64.482  -161.506
14481.5     64.570  -160.500
14692.2     64.664  -160.413
14905.9     64.591  -161.372
15122.7     64.234  -162.165
15342.7     63.720  -161.239
15565.8     63.335  -158.792
15792.2     63.176  -156.507
16021.9     63.057  -155.604
16255.0     62.726  -155.575
16491.4     62.193  -154.555
16731.3     61.677  -152.019
16974.7     61.383  -149.363
17221.6     61.139  -147.332
17472.1     60.867  -146.566
17726.2     60.392  -146.473
17984.0     59.664  -145.563
18245.6     58.973  -142.927
18511.0     58.501  -140.605
18780.2     57.948  -140.121
19053.4     57.031  -139.628
19330.5     55.982  -137.869
19611.7     54.793  -135.121
19897.0     53.616  -130.342
20186.4     52.601  -126.886
20480.0     50.753  -123.632
20777.9     48.901  -111.085
21080.1     48.189   -96.372
21386.7     47.802   -84.515
21697.8     49.037   -71.064
22013.4     49.469   -90.527
22333.6     44.847   -84.224
22658.4     43.057   -65.269
22988.0     41.547   -55.757
23322.4     38.138   -23.701
23661.6     40.564    10.121
24005.8     42.425    20.908
24355.0     43.656    32.262
24709.2     44.848    41.356
25068.6     45.923    47.594
25433.2     46.748    52.218
25803.2     47.054    56.518
26178.5     47.499    62.469
26559.3     48.023    68.117
26945.6     48.625    73.791
27337.5     49.163    77.160
27735.2     49.463    80.734
28138.6     49.737    85.487
28547.9     49.949    89.223
28963.1     50.013    94.529
29384.4     50.427   100.479
29811.8     50.916   104.137
30245.4     51.227   105.171
30685.3     51.161   105.065
31131.7     50.599   105.317
31584.5     49.872   106.616
32043.9     48.863   107.590
32510.0     47.173   109.885
32982.8     45.552   116.906
33462.6     44.080   125.835
33949.3     42.738   136.317
34443.1     41.779   148.139
34944.1     40.937   156.378
35452.4     39.656   167.691
35968.0     38.964  -179.721
36491.2     38.107  -168.074
37022.0     36.706  -156.408
37560.5     37.651  -139.676
38106.8     36.419  -134.361
38661.1     36.275  -122.103
39223.4     35.745  -114.832
39793.9     34.838  -107.154
