Freq[Hz]     dBSPL  Phase[Deg]
5.00000     -2.311    20.111
5.07273     -2.448    23.406
5.14651     -2.525    27.124
5.22137     -2.432    32.019
5.29732     -2.340    36.915
5.37437     -2.248    41.811
5.45254     -2.155    46.707
5.53185     -1.921    51.019
5.61231     -1.537    54.714
5.69394     -1.153    58.409
5.77676     -0.769    62.104
5.86079     -0.387    65.768
5.94604     -0.120    67.607
6.03252      0.146    69.447
6.12027      0.412    71.286
6.20929      0.678    73.126
6.29961      0.656    75.032
6.39124      0.571    76.954
6.48420      0.486    78.875
6.57851      0.401    80.797
6.67420      0.108    85.536
6.77128     -0.220    90.733
6.86977     -0.547    95.930
6.96969     -0.801   101.543
7.07107     -0.503   110.322
7.17392     -0.204   119.101
7.27827      0.095   127.880
7.38413      0.718   134.497
7.49154      1.593   139.443
7.60050      2.467   144.389
7.71105      3.276   148.712
7.82321      3.802   150.297
7.93701      4.327   151.882
8.05245      4.852   153.468
8.16958      4.757   155.540
8.28841      4.638   157.631
8.40896      4.520   159.722
8.53128      3.987   167.968
8.65537      3.402   177.009
8.78126      2.816  -173.950
8.90899      3.816  -158.395
9.03857      4.919  -142.414
9.17004      6.130  -127.538
9.30342      8.194  -121.469
9.43874     10.258  -115.400
9.57603     12.142  -111.282
9.71532     13.753  -110.146
9.85663     15.364  -109.009
10.0000     16.649  -108.871
10.1455     17.843  -109.011
10.2930     18.972  -109.254
10.4427     19.920  -109.787
10.5946     20.867  -110.319
10.7487     21.718  -111.166
10.9051     22.550  -112.076
11.0637     23.327  -113.236
11.2246     24.045  -114.660
11.3879     24.732  -116.178
11.5535     25.302  -118.036
11.7216     25.868  -119.894
11.8921     26.258  -121.803
12.0650     26.647  -123.712
12.2405     26.886  -125.128
12.4186     27.106  -126.479
12.5992     27.263  -126.883
12.7825     27.405  -127.077
12.9684     27.622  -126.322
13.1570     27.857  -125.346
13.3484     28.287  -124.301
13.5426     28.748  -123.245
13.7395     29.359  -123.447
13.9394     29.973  -123.898
14.1421     30.560  -125.870
14.3478     31.088  -128.224
14.5565     31.490  -131.398
14.7683     31.753  -134.740
14.9831     31.907  -138.211
15.2010     31.862  -141.039
15.4221     31.761  -143.432
15.6464     31.566  -144.393
15.8740     31.443  -144.214
16.1049     31.378  -143.124
16.3392     31.658  -141.334
16.5768     32.074  -140.054
16.8179     32.670  -139.551
17.0626     33.310  -140.841
17.3107     33.897  -142.905
17.5625     34.396  -145.797
17.8180     34.697  -148.978
18.0771     34.892  -151.831
18.3401     34.991  -154.205
18.6068     35.031  -155.413
18.8775     35.132  -155.672
19.1521     35.325  -155.398
19.4306     35.639  -154.849
19.7133     36.091  -154.678
20.0000     36.575  -155.104
20.2909     37.045  -155.970
20.5860     37.476  -157.132
20.8855     37.856  -158.382
21.1893     38.198  -159.509
21.4975     38.534  -160.553
21.8102     38.871  -161.646
22.1274     39.199  -162.893
22.4492     39.497  -164.325
22.7758     39.748  -165.863
23.1071     39.945  -167.320
23.4432     40.106  -168.491
23.7841     40.274  -169.277
24.1301     40.498  -169.867
24.4811     40.789  -170.567
24.8372     41.124  -171.624
25.1984     41.465  -173.097
25.5649     41.779  -174.843
25.9368     42.064  -176.614
26.3141     42.337  -178.204
26.6968     42.630  -179.556
27.0851     42.968   179.227
27.4791     43.352   177.981
27.8788     43.756   176.624
28.2843     44.162   175.225
28.6957     44.557   173.912
29.1131     44.949   172.772
29.5365     45.344   171.800
29.9661     45.746   170.924
30.4020     46.142   170.077
30.8442     46.517   169.252
31.2929     46.865   168.484
31.7480     47.191   167.802
32.2098     47.501   167.188
32.6783     47.806   166.579
33.1536     48.107   165.894
33.6359     48.404   165.092
34.1251     48.695   164.145
34.6215     48.986   163.069
35.1250     49.275   161.901
35.6359     49.574   160.662
36.1543     49.887   159.384
36.6802     50.221   158.074
37.2137     50.576   156.721
37.7550     50.943   155.338
38.3041     51.315   153.983
38.8613     51.687   152.722
39.4265     52.070   151.573
40.0000     52.461   150.435
40.5818     52.844   149.219
41.1721     53.197   147.945
41.7710     53.519   146.690
42.3785     53.815   145.467
42.9949     54.088   144.233
43.6203     54.333   143.054
44.2548     54.574   142.032
44.8985     54.847   141.016
45.5515     55.136   139.760
46.2141     55.405   138.334
46.8863     55.667   137.035
47.5683     55.983   135.750
48.2602     56.326   134.000
48.9621     56.616   131.926
49.6743     56.861   130.143
50.3968     57.151   128.723
51.1299     57.506   127.154
51.8736     57.859   125.346
52.6281     58.196   123.658
53.3936     58.548   122.144
54.1702     58.906   120.654
54.9581     59.247   119.219
55.7575     59.569   117.836
56.5685     59.869   116.408
57.3914     60.143   114.898
58.2261     60.397   113.231
59.0730     60.625   111.377
59.9323     60.844   109.486
60.8040     61.083   107.614
61.6884     61.363   105.711
62.5857     61.674   103.763
63.4960     62.000   101.811
64.4196     62.322    99.938
65.3566     62.626    98.184
66.3073     62.904    96.533
67.2717     63.159    94.972
68.2502     63.404    93.358
69.2429     63.640    91.609
70.2501     63.880    89.753
71.2719     64.142    87.719
72.3086     64.412    85.511
73.3603     64.683    83.206
74.4274     64.940    80.908
75.5099     65.185    78.744
76.6083     65.422    76.653
77.7226     65.644    74.696
78.8531     65.877    72.872
80.0000     66.129    70.958
81.1636     66.380    68.860
82.3442     66.627    66.631
83.5419     66.877    64.200
84.7570     67.116    61.613
85.9899     67.348    59.005
87.2406     67.586    56.467
88.5096     67.836    53.932
89.7970     68.086    51.351
91.1031     68.323    48.609
92.4282     68.516    45.720
93.7726     68.660    42.858
95.1366     68.774    40.267
96.5204     68.910    37.982
97.9243     69.085    35.733
99.3486     69.274    33.345
100.794     69.464    30.811
102.260     69.653    28.157
103.747     69.840    25.399
105.256     70.023    22.586
106.787     70.199    19.664
108.340     70.339    16.541
109.916     70.444    13.443
111.515     70.523    10.475
113.137     70.645     7.807
114.783     70.777     4.989
116.452     70.880     2.191
118.146     70.970    -0.545
119.865     71.070    -3.447
121.608     71.175    -6.507
123.377     71.279    -9.585
125.171     71.374   -12.631
126.992     71.462   -15.606
128.839     71.553   -18.674
130.713     71.631   -22.030
132.615     71.655   -25.356
134.543     71.671   -28.353
136.500     71.725   -31.404
138.486     71.750   -34.346
140.500     71.748   -37.480
142.544     71.740   -40.577
144.617     71.737   -43.352
146.721     71.749   -45.789
148.855     71.845   -48.672
151.020     71.907   -52.291
153.217     71.837   -55.654
155.445     71.844   -58.413
157.706     71.851   -61.939
160.000     71.657   -65.154
162.327     71.560   -67.234
164.688     71.583   -69.452
167.084     71.715   -71.909
169.514     71.816   -75.931
171.980     71.605   -79.389
174.481     71.441   -81.220
177.019     71.413   -83.030
179.594     71.474   -85.375
182.206     71.569   -88.020
184.856     71.740   -90.636
187.545     71.843   -93.555
190.273     71.880   -96.834
193.041     71.913  -100.454
195.849     71.914  -103.639
198.697     71.952  -107.115
201.587     71.874  -111.546
204.520     71.663  -114.799
207.494     71.520  -117.530
210.512     71.380  -119.441
213.574     71.441  -122.028
216.681     71.429  -124.465
219.833     71.419  -126.756
223.030     71.500  -129.105
226.274     71.572  -132.586
229.565     71.619  -136.054
232.905     71.500  -138.650
236.292     71.529  -141.149
239.729     71.572  -143.914
243.216     71.645  -146.710
246.754     71.590  -149.878
250.343     71.620  -153.385
253.984     71.437  -156.344
257.678     71.467  -158.850
261.426     71.526  -161.583
265.229     71.474  -165.057
269.087     71.208  -167.882
273.001     71.172  -168.925
276.972     71.249  -171.232
281.000     71.254  -173.014
285.088     71.389  -175.354
289.234     71.639  -177.722
293.441     71.750   178.061
297.709     71.538   173.311
302.040     71.297   171.409
306.433     71.065   170.588
310.890     71.459   169.486
315.412     71.558   164.898
320.000     71.312   162.101
324.655     71.279   160.716
329.377     71.328   159.208
334.168     71.534   155.514
339.028     71.287   152.754
343.959     71.296   150.324
348.962     71.116   147.590
354.038     71.204   145.895
359.188     71.332   141.896
364.412     71.187   138.603
369.713     71.165   135.045
375.090     71.160   131.375
380.546     71.186   128.006
386.081     71.273   122.378
391.697     70.827   117.901
397.394     70.793   114.019
403.175     70.694   110.611
409.039     70.674   106.232
414.989     70.540   101.728
421.025     70.374    97.420
427.149     70.225    93.453
433.362     70.079    89.927
439.665     69.924    86.247
446.060     69.768    82.978
452.548     69.634    80.131
459.131     69.471    77.624
465.809     69.354    75.565
472.584     69.259    74.014
479.458     69.192    72.950
486.432     69.154    72.017
493.507     69.125    71.079
500.686     69.149    70.050
507.968     69.196    69.141
515.357     69.257    68.155
522.853     69.349    67.104
530.458     69.447    65.843
538.174     69.575    64.443
546.002     69.708    63.058
553.943     69.840    61.391
562.001     69.984    59.629
570.175     70.120    57.671
578.469     70.259    55.608
586.883     70.382    53.441
595.419     70.485    51.191
604.080     70.584    48.916
612.866     70.669    46.439
621.780     70.732    44.046
630.824     70.779    41.546
640.000     70.810    39.060
649.309     70.822    36.713
658.753     70.823    34.262
668.335     70.813    31.888
678.056     70.796    29.579
687.919     70.764    27.339
697.925     70.736    25.191
708.077     70.701    23.083
718.376     70.678    21.084
728.825     70.658    19.112
739.426     70.643    17.173
750.181     70.635    15.222
761.093     70.638    13.209
772.163     70.649    11.170
783.394     70.668     9.019
794.789     70.689     6.821
806.349     70.700     4.439
818.078     70.705     1.998
829.977     70.690    -0.598
842.050     70.660    -3.350
854.298     70.599    -6.143
866.724     70.511    -8.933
879.330     70.380   -11.862
892.120     70.225   -14.700
905.097     70.020   -17.473
918.262     69.778   -20.062
931.618     69.497   -22.475
945.169     69.191   -24.630
958.917     68.871   -26.410
972.864     68.530   -27.798
987.015     68.210   -28.756
1001.37     67.902   -29.408
1015.94     67.641   -29.659
1030.71     67.445   -29.751
1045.71     67.303   -29.756
1060.92     67.236   -29.906
1076.35     67.201   -30.180
1092.00     67.200   -30.795
1107.89     67.197   -31.663
1124.00     67.194   -32.797
1140.35     67.157   -34.062
1156.94     67.088   -35.366
1173.77     66.993   -36.570
1190.84     66.884   -37.538
1208.16     66.770   -38.176
1225.73     66.692   -38.588
1243.56     66.676   -38.731
1261.65     66.727   -38.870
1280.00     66.871   -39.221
1298.62     67.077   -39.896
1317.51     67.306   -41.207
1336.67     67.550   -43.184
1356.11     67.759   -45.743
1375.84     67.922   -48.776
1395.85     68.011   -52.129
1416.15     68.008   -55.604
1436.75     67.937   -59.116
1457.65     67.792   -62.426
1478.85     67.601   -65.539
1500.36     67.370   -68.307
1522.19     67.123   -70.828
1544.33     66.864   -73.126
1566.79     66.601   -75.238
1589.58     66.315   -77.190
1612.70     66.012   -78.883
1636.16     65.680   -80.230
1659.95     65.350   -81.008
1684.10     65.063   -81.185
1708.60     64.879   -80.818
1733.45     64.829   -80.301
1758.66     64.900   -80.207
1784.24     65.052   -80.869
1810.19     65.197   -82.338
1836.52     65.277   -84.479
1863.24     65.267   -86.763
1890.34     65.159   -88.744
1917.83     65.026   -90.223
1945.73     64.935   -91.080
1974.03     64.945   -91.718
2002.74     65.026   -92.715
2031.87     65.149   -94.307
2061.43     65.226   -96.355
2091.41     65.224   -98.471
2121.83     65.173  -100.242
2152.69     65.167  -101.334
2184.01     65.271  -102.207
2215.77     65.516  -103.542
2248.00     65.811  -105.905
2280.70     66.046  -109.345
2313.87     66.145  -113.365
2347.53     66.110  -117.251
2381.68     65.987  -120.456
2416.32     65.888  -123.077
2451.46     65.868  -125.595
2487.12     65.897  -128.668
2523.30     65.880  -132.401
2560.00     65.726  -136.396
2597.24     65.431  -139.964
2635.01     65.083  -142.597
2673.34     64.776  -144.400
2712.23     64.561  -145.900
2751.68     64.401  -147.478
2791.70     64.238  -149.098
2832.31     64.095  -150.515
2873.50     64.009  -151.864
2915.30     63.988  -153.573
2957.70     63.926  -155.923
3000.72     63.750  -158.342
3044.37     63.492  -160.040
3088.65     63.280  -160.842
3133.58     63.232  -161.544
3179.16     63.253  -162.993
3225.40     63.175  -165.099
3272.31     62.978  -166.894
3319.91     62.765  -167.742
3368.20     62.652  -168.086
3417.19     62.624  -168.672
3466.89     62.601  -169.419
3517.32     62.585  -170.005
3568.48     62.650  -170.577
3620.39     62.763  -171.764
3673.05     62.815  -173.352
3726.47     62.791  -174.689
3780.67     62.831  -175.532
3835.67     62.958  -176.884
3891.46     63.021  -179.096
3948.06     62.928   178.924
4005.49     62.844   177.906
4063.75     62.906   176.904
4122.86     62.968   174.830
4182.82     62.876   172.497
4243.66     62.698   170.752
4305.39     62.484   169.183
4368.01     62.168   168.446
4431.55     61.933   169.412
4496.01     62.031   170.227
4561.40     62.111   169.026
4627.75     61.939   168.205
4695.06     61.878   168.944
4763.35     62.004   168.600
4832.64     61.925   167.479
4902.93     61.786   167.654
4974.24     61.758   168.026
5046.60     61.683   168.589
5120.00     61.762   170.018
5194.47     61.961   170.373
5270.03     62.081   170.834
5346.68     62.416   171.419
5424.45     62.747   170.014
5503.35     62.891   168.741
5583.40     63.106   167.357
5664.61     63.187   165.203
5747.01     63.211   163.867
5830.60     63.281   161.667
5915.41     63.132   159.470
6001.45     62.996   157.793
6088.74     62.686   155.782
6177.30     62.309   155.594
6267.15     61.980   155.458
6358.31     61.616   156.874
6450.80     61.497   158.234
6544.62     61.304   159.990
6639.82     61.394   161.636
6736.40     61.327   162.740
6834.38     61.556   164.403
6933.79     61.635   163.933
7034.64     61.759   164.321
7136.96     61.717   163.077
7240.77     61.645   163.574
7346.09     61.474   163.153
7452.94     61.430   164.348
7561.35     61.313   164.147
7671.33     61.313   165.381
7782.91     61.226   165.004
7896.12     61.218   165.157
8010.97     60.951   164.925
8127.49     60.791   165.076
8245.71     60.285   166.146
8365.65     60.038   167.753
8487.33     59.780   170.204
8610.78     59.581   170.728
8736.03     59.361   171.505
8863.09     58.831   171.819
8992.01     58.327   172.724
9122.80     57.757   175.319
9255.50     57.249   177.307
9390.12     56.849   179.959
9526.70     56.439  -175.978
9665.27     56.293  -173.002
9805.86     56.283  -170.133
9948.49     56.295  -167.386
10093.2     56.354  -165.602
10240.0     56.500  -164.170
10388.9     56.676  -162.791
10540.1     56.738  -162.449
10693.4     56.712  -163.355
10848.9     56.510  -163.724
11006.7     56.050  -163.259
11166.8     55.555  -161.163
11329.2     55.238  -157.764
11494.0     55.236  -154.175
11661.2     55.477  -151.431
11830.8     55.726  -150.680
12002.9     55.824  -152.153
12177.5     55.693  -154.280
12354.6     55.222  -157.494
12534.3     54.288  -158.209
12716.6     53.483  -155.675
12901.6     52.979  -152.507
13089.2     52.604  -150.444
13279.6     52.318  -149.368
13472.8     51.924  -149.306
13668.8     51.420  -149.931
13867.6     50.593  -150.861
14069.3     49.663  -150.599
14273.9     48.693  -149.080
14481.5     47.842  -147.378
14692.2     47.140  -146.932
14905.9     46.436  -148.225
15122.7     45.505  -152.311
15342.7     44.284  -158.257
15565.8     42.565  -167.067
15792.2     40.657  -178.848
16021.9     38.659   166.438
16255.0     36.819   146.155
16491.4     36.067   125.891
16731.3     36.872   109.042
16974.7     38.554    96.959
17221.6     39.987    86.508
17472.1     40.875    78.429
17726.2     41.549    73.539
17984.0     41.737    70.606
18245.6     41.755    71.994
18511.0     41.843    73.536
18780.2     41.936    74.401
19053.4     41.603    78.063
19330.5     41.047    86.336
19611.7     41.719    95.858
19897.0     42.852   101.416
20186.4     43.717    98.837
20480.0     43.271    95.765
20777.9     42.344    99.866
21080.1     42.093   106.899
21386.7     42.157   107.793
21697.8     39.627   101.656
22013.4     39.670   154.172
22333.6     43.893   134.960
22658.4     43.064   126.485
22988.0     42.001   126.707
23322.4     41.449   126.379
23661.6     40.674   124.017
24005.8     39.202   120.936
24355.0     37.138   115.745
24709.2     35.291   111.215
25068.6     33.347    96.443
25433.2     31.842    65.024
25803.2     31.951    25.775
26178.5     33.699    -4.209
26559.3     35.285   -17.184
26945.6     37.437   -22.773
27337.5     38.739   -28.685
27735.2     39.530   -31.973
28138.6     39.933   -32.652
28547.9     40.303   -34.150
28963.1     40.146   -34.693
29384.4     39.101   -30.262
29811.8     38.791   -21.353
30245.4     38.797   -14.809
30685.3     38.501    -7.121
31131.7     38.489     1.866
31584.5     38.703     5.736
32043.9     38.193     4.378
32510.0     36.379     9.743
32982.8     35.198    17.265
33462.6     33.348    22.250
33949.3     31.339    34.194
34443.1     29.829    50.301
34944.1     28.829    61.047
35452.4     26.975    72.430
35968.0     25.034   -71.477
36491.2     20.217    74.375
37022.0     22.617   103.607
37560.5     25.068   167.547
38106.8     24.650   177.580
38661.1     24.193  -164.497
39223.4     24.677    84.501
39793.9     25.283  -136.910
