Freq[Hz]     dBSPL  Phase[Deg]
5.00000     -6.267    21.769
5.07273     -6.428    24.771
5.14651     -6.527    28.182
5.22137     -6.449    32.735
5.29732     -6.372    37.287
5.37437     -6.295    41.839
5.45254     -6.218    46.392
5.53185     -5.993    50.347
5.61231     -5.612    53.672
5.69394     -5.231    56.996
5.77676     -4.850    60.321
5.86079     -4.471    63.614
5.94604     -4.196    65.084
6.03252     -3.920    66.554
6.12027     -3.645    68.024
6.20929     -3.369    69.494
6.29961     -3.372    71.054
6.39124     -3.436    72.634
6.48420     -3.501    74.214
6.57851     -3.565    75.794
6.67420     -3.830    80.233
6.77128     -4.128    85.137
6.86977     -4.426    90.042
6.96969     -4.650    95.369
7.07107     -4.317   103.916
7.17392     -3.983   112.464
7.27827     -3.649   121.011
7.38413     -2.990   127.432
7.49154     -2.079   132.211
7.60050     -1.168   136.989
7.71105     -0.322   141.156
7.82321      0.239   142.633
7.93701      0.799   144.110
8.05245      1.360   145.587
8.16958      1.296   147.600
8.28841      1.209   149.633
8.40896      1.122   151.665
8.53128      0.616   159.885
8.65537      0.056   168.904
8.78126     -0.505   177.922
8.90899      0.514  -166.526
9.03857      1.636  -150.546
9.17004      2.865  -135.672
9.30342      4.939  -129.602
9.43874      7.013  -123.531
9.57603      8.905  -119.417
9.71532     10.519  -118.292
9.85663     12.133  -117.167
10.0000     13.416  -117.064
10.1455     14.606  -117.246
10.2930     15.729  -117.542
10.4427     16.668  -118.161
10.5946     17.606  -118.780
10.7487     18.444  -119.763
10.9051     19.263  -120.818
11.0637     20.026  -122.157
11.2246     20.730  -123.796
11.3879     21.403  -125.544
11.5535     21.961  -127.692
11.7216     22.515  -129.842
11.8921     22.897  -132.117
12.0650     23.278  -134.392
12.2405     23.519  -136.234
12.4186     23.742  -138.021
12.5992     23.911  -138.906
12.7825     24.068  -139.591
12.9684     24.313  -139.353
13.1570     24.578  -138.901
13.3484     25.053  -138.384
13.5426     25.561  -137.856
13.7395     26.238  -138.560
13.9394     26.920  -139.506
14.1421     27.588  -141.920
14.3478     28.203  -144.688
14.5565     28.702  -148.217
14.7683     29.067  -151.851
14.9831     29.329  -155.567
15.2010     29.395  -158.534
15.4221     29.407  -161.023
15.6464     29.325  -161.975
15.8740     29.315  -161.717
16.1049     29.361  -160.492
16.3392     29.744  -158.455
16.5768     30.259  -156.883
16.8179     30.947  -156.029
17.0626     31.667  -156.896
17.3107     32.326  -158.506
17.5625     32.888  -160.909
17.8180     33.235  -163.569
18.0771     33.467  -165.894
18.3401     33.593  -167.738
18.6068     33.643  -168.427
18.8775     33.744  -168.196
19.1521     33.927  -167.464
19.4306     34.221  -166.499
19.7133     34.641  -165.981
20.0000     35.088  -166.132
20.2909     35.515  -166.797
20.5860     35.899  -167.835
20.8855     36.231  -169.046
21.1893     36.527  -170.239
21.4975     36.821  -171.436
21.8102     37.124  -172.758
22.1274     37.428  -174.300
22.4492     37.713  -176.084
22.7758     37.964  -178.011
23.1071     38.175  -179.874
23.4432     38.367   178.555
23.7841     38.582   177.404
24.1301     38.864   176.505
24.4811     39.224   175.574
24.8372     39.637   174.377
25.1984     40.058   172.864
25.5649     40.453   171.183
25.9368     40.814   169.577
26.3141     41.156   168.244
26.6968     41.506   167.224
27.0851     41.888   166.392
27.4791     42.299   165.561
27.8788     42.715   164.619
28.2843     43.116   163.608
28.6957     43.493   162.629
29.1131     43.854   161.746
29.5365     44.212   160.937
29.9661     44.571   160.121
30.4020     44.926   159.224
30.8442     45.266   158.231
31.2929     45.588   157.207
31.7480     45.902   156.200
32.2098     46.215   155.220
32.6783     46.542   154.234
33.1536     46.882   153.201
33.6359     47.233   152.108
34.1251     47.590   150.960
34.6215     47.953   149.794
35.1250     48.318   148.643
35.6359     48.686   147.541
36.1543     49.061   146.495
36.6802     49.444   145.487
37.2137     49.832   144.479
37.7550     50.216   143.446
38.3041     50.589   142.409
38.8613     50.952   141.411
39.4265     51.316   140.441
40.0000     51.684   139.395
40.5818     52.046   138.183
41.1721     52.384   136.837
41.7710     52.699   135.461
42.3785     52.999   134.087
42.9949     53.285   132.706
43.6203     53.552   131.403
44.2548     53.821   130.299
44.8985     54.125   129.249
45.5515     54.443   128.002
46.2141     54.740   126.617
46.8863     55.024   125.377
47.5683     55.359   124.154
48.2602     55.719   122.455
48.9621     56.024   120.416
49.6743     56.283   118.657
50.3968     56.592   117.257
51.1299     56.966   115.715
51.8736     57.340   113.952
52.6281     57.697   112.332
53.3936     58.067   110.908
54.1702     58.437   109.520
54.9581     58.787   108.184
55.7575     59.113   106.881
56.5685     59.413   105.503
57.3914     59.688   104.004
58.2261     59.943   102.311
59.0730     60.177   100.406
59.9323     60.409    98.453
60.8040     60.666    96.529
61.6884     60.970    94.600
62.5857     61.308    92.666
63.4960     61.660    90.773
64.4196     62.005    88.999
65.3566     62.327    87.376
66.3073     62.615    85.871
67.2717     62.873    84.450
68.2502     63.114    82.949
69.2429     63.341    81.270
70.2501     63.572    79.432
71.2719     63.827    77.367
72.3086     64.097    75.101
73.3603     64.374    72.736
74.4274     64.640    70.401
75.5099     64.897    68.232
76.6083     65.143    66.163
77.7226     65.367    64.231
78.8531     65.599    62.406
80.0000     65.850    60.451
81.1636     66.104    58.277
82.3442     66.361    55.966
83.5419     66.629    53.481
84.7570     66.885    50.894
85.9899     67.132    48.334
87.2406     67.376    45.862
88.5096     67.623    43.372
89.7970     67.865    40.779
91.1031     68.096    37.961
92.4282     68.291    34.953
93.7726     68.446    31.965
95.1366     68.580    29.287
96.5204     68.740    26.980
97.9243     68.936    24.781
99.3486     69.136    22.489
100.794     69.326    20.051
102.260     69.503    17.435
103.747     69.678    14.630
105.256     69.855    11.705
106.787     70.037     8.670
108.340     70.189     5.486
109.916     70.301     2.378
111.515     70.379    -0.604
113.137     70.497    -3.343
114.783     70.632    -6.280
116.452     70.747    -9.176
118.146     70.851   -11.937
119.865     70.954   -14.825
121.608     71.051   -17.920
123.377     71.151   -21.119
125.171     71.255   -24.311
126.992     71.358   -27.368
128.839     71.459   -30.446
130.713     71.539   -33.820
132.615     71.561   -37.217
134.543     71.581   -40.294
136.500     71.639   -43.390
138.486     71.660   -46.373
140.500     71.649   -49.615
142.544     71.641   -52.882
144.617     71.647   -55.786
146.721     71.666   -58.300
148.855     71.763   -61.264
151.020     71.825   -64.996
153.217     71.756   -68.491
155.445     71.766   -71.390
157.706     71.782   -75.050
160.000     71.597   -78.369
162.327     71.504   -80.526
164.688     71.526   -82.851
167.084     71.663   -85.436
169.514     71.767   -89.536
171.980     71.543   -93.119
174.481     71.376   -95.197
177.019     71.370   -97.207
179.594     71.448   -99.559
182.206     71.524  -102.227
184.856     71.675  -105.111
187.545     71.790  -108.299
190.273     71.840  -111.702
193.041     71.867  -115.437
195.849     71.859  -118.859
198.697     71.905  -122.634
201.587     71.847  -127.284
204.520     71.651  -130.653
207.494     71.511  -133.500
210.512     71.369  -135.562
213.574     71.422  -138.313
216.681     71.399  -140.999
219.833     71.395  -143.617
223.030     71.499  -146.185
226.274     71.574  -149.742
229.565     71.596  -153.418
232.905     71.473  -156.417
236.292     71.520  -159.167
239.729     71.552  -162.163
243.216     71.628  -165.417
246.754     71.613  -168.839
250.343     71.648  -172.404
253.984     71.443  -175.609
257.678     71.464  -178.513
261.426     71.536   178.355
265.229     71.498   174.602
269.087     71.234   171.524
273.001     71.190   170.205
276.972     71.256   167.488
281.000     71.276   165.299
285.088     71.403   162.642
289.234     71.658   159.742
293.441     71.784   155.315
297.709     71.525   150.075
302.040     71.325   147.444
306.433     71.127   146.521
310.890     71.478   145.023
315.412     71.579   139.820
320.000     71.334   136.534
324.655     71.318   134.666
329.377     71.342   132.877
334.168     71.522   128.425
339.028     71.273   125.126
343.959     71.265   121.997
348.962     71.078   118.647
354.038     71.152   116.301
359.188     71.259   111.613
364.412     71.093   107.542
369.713     71.056   103.222
375.090     71.013    98.804
380.546     71.009    94.540
386.081     71.056    88.043
391.697     70.564    82.695
397.394     70.466    77.751
403.175     70.311    73.402
409.039     70.206    67.941
414.989     69.990    62.332
421.025     69.716    56.899
427.149     69.456    51.776
433.362     69.176    47.184
439.665     68.863    42.242
446.060     68.522    38.034
452.548     68.163    33.897
459.131     67.795    30.367
465.809     67.415    27.464
472.584     67.020    25.225
479.458     66.665    23.557
486.432     66.284    22.353
493.507     65.925    21.302
500.686     65.603    20.628
507.968     65.339    20.202
515.357     65.089    20.362
522.853     64.890    20.163
530.458     64.788    20.258
538.174     64.728    20.455
546.002     64.722    20.409
553.943     64.770    20.229
562.001     64.846    19.737
570.175     64.964    19.037
578.469     65.095    17.959
586.883     65.216    16.684
595.419     65.349    14.933
604.080     65.459    13.135
612.866     65.554    11.046
621.780     65.624     8.819
630.824     65.652     6.361
640.000     65.672     3.785
649.309     65.659     1.375
658.753     65.594    -1.023
668.335     65.509    -3.550
678.056     65.397    -5.896
687.919     65.247    -8.108
697.925     65.092   -10.195
708.077     64.920   -12.019
718.376     64.742   -13.622
728.825     64.555   -15.041
739.426     64.397   -16.323
750.181     64.268   -17.358
761.093     64.149   -18.205
772.163     64.082   -19.068
783.394     64.037   -19.853
794.789     64.014   -20.790
806.349     64.042   -21.873
818.078     64.055   -23.087
829.977     64.097   -24.658
842.050     64.135   -26.311
854.298     64.145   -28.155
866.724     64.136   -30.134
879.330     64.106   -32.396
892.120     64.036   -34.502
905.097     63.926   -36.754
918.262     63.774   -38.894
931.618     63.600   -40.907
945.169     63.397   -42.718
958.917     63.165   -44.199
972.864     62.928   -45.422
987.015     62.686   -46.307
1001.37     62.466   -46.773
1015.94     62.275   -46.983
1030.71     62.133   -46.847
1045.71     62.060   -46.614
1060.92     62.042   -46.390
1076.35     62.084   -46.154
1092.00     62.201   -46.170
1107.89     62.337   -46.424
1124.00     62.509   -46.981
1140.35     62.695   -47.907
1156.94     62.889   -48.972
1173.77     63.070   -50.327
1190.84     63.243   -51.763
1208.16     63.401   -53.454
1225.73     63.579   -55.214
1243.56     63.761   -57.003
1261.65     63.961   -58.902
1280.00     64.171   -60.970
1298.62     64.380   -63.248
1317.51     64.625   -65.959
1336.67     64.849   -69.029
1356.11     65.055   -72.515
1375.84     65.218   -76.373
1395.85     65.321   -80.565
1416.15     65.344   -84.923
1436.75     65.288   -89.300
1457.65     65.157   -93.496
1478.85     64.949   -97.346
1500.36     64.709  -100.750
1522.19     64.450  -103.591
1544.33     64.229  -105.976
1566.79     64.078  -108.095
1589.58     63.985  -110.183
1612.70     63.937  -112.686
1636.16     63.900  -115.503
1659.95     63.829  -118.705
1684.10     63.685  -121.948
1708.60     63.475  -124.999
1733.45     63.235  -127.403
1758.66     63.025  -129.257
1784.24     62.897  -130.592
1810.19     62.911  -132.141
1836.52     63.014  -134.263
1863.24     63.149  -137.273
1890.34     63.190  -140.956
1917.83     63.119  -145.128
1945.73     62.916  -148.893
1974.03     62.668  -151.962
2002.74     62.439  -153.971
2031.87     62.349  -155.711
2061.43     62.425  -157.744
2091.41     62.544  -161.008
2121.83     62.616  -165.418
2152.69     62.502  -170.290
2184.01     62.182  -174.826
2215.77     61.747  -178.280
2248.00     61.367   179.816
2280.70     61.184   178.629
2313.87     61.221   176.907
2347.53     61.320   173.630
2381.68     61.271   169.248
2416.32     61.041   164.737
2451.46     60.628   161.285
2487.12     60.229   159.233
2523.30     60.010   158.056
2560.00     59.986   156.406
2597.24     60.014   153.629
2635.01     59.959   150.252
2673.34     59.806   146.815
2712.23     59.659   143.800
2751.68     59.540   140.573
2791.70     59.366   136.544
2832.31     59.025   132.435
2873.50     58.481   129.352
2915.30     57.947   128.395
2957.70     57.690   128.707
3000.72     57.721   128.083
3044.37     57.766   125.857
3088.65     57.576   123.177
3133.58     57.272   121.786
3179.16     57.164   121.949
3225.40     57.337   121.831
3272.31     57.637   120.092
3319.91     57.803   117.380
3368.20     57.922   114.645
3417.19     58.067   112.245
3466.89     58.308   109.402
3517.32     58.531   105.740
3568.48     58.710   101.363
3620.39     58.797    96.573
3673.05     58.789    91.611
3726.47     58.711    86.714
3780.67     58.592    81.955
3835.67     58.463    77.101
3891.46     58.248    71.621
3948.06     57.892    65.792
4005.49     57.317    60.166
4063.75     56.476    55.744
4122.86     55.616    53.536
4182.82     54.948    52.129
4243.66     54.224    49.124
4305.39     52.768    47.591
4368.01     51.071    55.501
4431.55     51.081    70.280
4496.01     52.522    77.938
4561.40     54.057    78.101
4627.75     55.245    72.723
4695.06     55.565    65.291
4763.35     55.377    62.158
4832.64     55.844    60.851
4902.93     56.428    53.681
4974.24     56.007    45.006
5046.60     55.204    41.121
5120.00     54.621    39.052
5194.47     53.831    39.067
5270.03     53.744    41.988
5346.68     53.798    39.981
5424.45     53.210    41.010
5503.35     53.677    45.376
5583.40     54.375    43.266
5664.61     54.715    41.380
5747.01     55.252    36.371
5830.60     54.924    31.047
5915.41     55.013    30.120
6001.45     55.256    23.665
6088.74     54.649    18.582
6177.30     54.319    14.929
6267.15     53.377    12.269
6358.31     53.198    14.622
6450.80     52.900    10.177
6544.62     52.234    12.572
6639.82     52.316    11.075
6736.40     51.797    12.532
6834.38     52.141    11.015
6933.79     51.386    10.575
7034.64     51.722    11.523
7136.96     51.101    10.579
7240.77     51.499    11.998
7346.09     50.897    10.642
7452.94     51.299    13.164
7561.35     51.139    12.300
7671.33     51.780    11.129
7782.91     51.304     9.036
7896.12     51.760     7.411
8010.97     51.393     5.789
8127.49     51.548     0.251
8245.71     50.709     1.111
8365.65     50.735    -2.710
8487.33     50.266    -1.901
8610.78     49.702    -6.252
8736.03     49.555    -6.680
8863.09     48.150    -9.934
8992.01     47.366    -9.014
9122.80     46.832    -1.445
9255.50     46.423    -2.068
9390.12     46.914     1.397
9526.70     46.686     2.202
9665.27     46.527    -0.143
9805.86     46.946     1.857
9948.49     46.676     0.481
10093.2     46.658    -1.556
10240.0     47.273    -0.563
10388.9     47.455    -2.660
10540.1     47.586    -8.083
10693.4     47.664   -14.262
10848.9     46.867   -17.563
11006.7     45.922   -19.302
11166.8     45.198   -19.618
11329.2     45.103   -15.430
11494.0     45.191   -13.470
11661.2     45.408   -13.567
11830.8     45.631   -17.638
12002.9     45.768   -21.461
12177.5     45.694   -27.462
12354.6     45.033   -33.505
12534.3     43.989   -37.650
12716.6     42.967   -39.520
12901.6     42.310   -40.248
13089.2     41.681   -42.378
13279.6     41.241   -43.883
13472.8     40.731   -46.778
13668.8     39.776   -50.827
13867.6     38.832   -55.273
14069.3     37.701   -55.763
14273.9     36.805   -54.305
14481.5     36.199   -54.786
14692.2     35.717   -57.646
14905.9     34.913   -64.916
15122.7     33.360   -76.267
15342.7     31.766   -85.951
15565.8     29.022  -100.622
15792.2     26.962  -109.588
16021.9     24.002    84.701
16255.0     22.529  -163.463
16491.4     23.123   163.647
16731.3     24.263   135.842
16974.7     25.838   129.119
17221.6     27.082   115.461
17472.1     27.820   103.905
17726.2     28.245    95.191
17984.0     28.881    88.567
18245.6     29.694    89.037
18511.0     30.489    84.521
18780.2     29.767    83.823
19053.4     29.183    82.023
19330.5     27.764    81.913
19611.7     27.991   100.680
19897.0     30.266   103.017
20186.4     31.208    93.043
20480.0     30.467    87.771
20777.9     29.718    82.665
21080.1     29.217    83.502
21386.7     29.417    80.643
21697.8     26.679    66.053
22013.4     26.092    82.725
22333.6     30.955   101.204
22658.4     30.507    83.144
22988.0     29.811    73.132
23322.4     28.146    65.532
23661.6     26.883    58.767
24005.8     25.885    47.243
24355.0     23.824    47.310
24709.2     20.968   -14.477
25068.6     20.278   170.125
25433.2     19.356    -5.705
25803.2     18.861     1.600
26178.5     21.251    93.729
26559.3     23.777    82.830
26945.6     25.369  -149.623
27337.5     26.468  -159.554
27735.2     26.760  -169.724
28138.6     28.298  -179.387
28547.9     27.901   170.308
28963.1     26.928   170.624
29384.4     26.730   163.405
29811.8     25.833   164.411
30245.4     24.808  -157.894
30685.3     25.130  -113.985
31131.7     26.183   172.554
31584.5     26.468   165.443
32043.9     24.536    27.267
32510.0     24.244   155.582
32982.8     22.752   -69.026
33462.6     19.910   -99.469
33949.3     19.733  -123.769
34443.1     18.444    -5.200
34944.1     17.630  -141.928
35452.4     18.210  -115.252
35968.0     18.129    50.486
36491.2     17.443    42.044
37022.0     18.242    27.504
37560.5     17.890   135.347
38106.8     18.308   -76.895
38661.1     17.483    20.322
39223.4     17.756    55.913
39793.9     17.386  -175.521
