Freq[Hz]     dBSPL  Phase[Deg]
5.00000     -5.568    36.972
5.07273     -5.728    40.282
5.14651     -5.827    44.006
5.22137     -5.753    48.887
5.29732     -5.679    53.767
5.37437     -5.605    58.648
5.45254     -5.531    63.529
5.53185     -5.312    67.816
5.61231     -4.939    71.476
5.69394     -4.567    75.136
5.77676     -4.194    78.796
5.86079     -3.824    82.426
5.94604     -3.561    84.225
6.03252     -3.299    86.024
6.12027     -3.036    87.823
6.20929     -2.774    89.623
6.29961     -2.792    91.497
6.39124     -2.872    93.388
6.48420     -2.952    95.280
6.57851     -3.033    97.171
6.67420     -3.315   101.901
6.77128     -3.630   107.093
6.86977     -3.945   112.284
6.96969     -4.186   117.896
7.07107     -3.869   126.705
7.17392     -3.552   135.514
7.27827     -3.234   144.322
7.38413     -2.589   150.992
7.49154     -1.691   156.010
7.60050     -0.793   161.028
7.71105      0.041   165.430
7.82321      0.593   167.130
7.93701      1.145   168.830
8.05245      1.696   170.530
8.16958      1.630   172.757
8.28841      1.540   175.003
8.40896      1.450   177.250
8.53128      0.947  -174.316
8.65537      0.390  -165.083
8.78126     -0.167  -155.850
8.90899      0.862  -140.074
9.03857      1.995  -123.870
9.17004      3.236  -108.770
9.30342      5.329  -102.455
9.43874      7.422   -96.140
9.57603      9.336   -91.770
9.71532     10.976   -90.370
9.85663     12.617   -88.970
10.0000     13.932   -88.559
10.1455     15.156   -88.423
10.2930     16.316   -88.388
10.4427     17.296   -88.635
10.5946     18.276   -88.881
10.7487     19.162   -89.435
10.9051     20.028   -90.051
11.0637     20.842   -90.910
11.2246     21.600   -92.029
11.3879     22.326   -93.237
11.5535     22.940   -94.772
11.7216     23.551   -96.308
11.8921     23.990   -97.870
12.0650     24.429   -99.433
12.2405     24.724  -100.471
12.4186     25.001  -101.442
12.5992     25.219  -101.428
12.7825     25.423  -101.196
12.9684     25.708   -99.968
13.1570     26.012   -98.508
13.3484     26.514   -96.919
13.5426     27.049   -95.309
13.7395     27.738   -94.880
13.9394     28.429   -94.687
14.1421     29.094   -95.938
14.3478     29.701   -97.542
14.5565     30.181   -99.904
14.7683     30.520  -102.381
14.9831     30.749  -104.947
15.2010     30.772  -106.796
15.4221     30.738  -108.181
15.6464     30.603  -108.069
15.8740     30.535  -106.779
16.1049     30.520  -104.547
16.3392     30.837  -101.563
16.5768     31.286   -99.071
16.8179     31.907   -97.336
17.0626     32.560   -97.374
17.3107     33.153   -98.186
17.5625     33.649   -99.825
17.8180     33.935  -101.770
18.0771     34.109  -103.408
18.3401     34.179  -104.592
18.6068     34.181  -104.656
18.8775     34.238  -103.824
19.1521     34.385  -102.507
19.4306     34.649  -100.970
19.7133     35.049   -99.889
20.0000     35.483   -99.474
20.2909     35.907   -99.562
20.5860     36.298  -100.005
20.8855     36.645  -100.593
21.1893     36.967  -101.113
21.4975     37.295  -101.579
21.8102     37.638  -102.105
22.1274     37.988  -102.779
22.4492     38.324  -103.612
22.7758     38.626  -104.502
23.1071     38.889  -105.240
23.4432     39.127  -105.600
23.7841     39.384  -105.456
24.1301     39.703  -104.989
24.4811     40.090  -104.498
24.8372     40.520  -104.229
25.1984     40.950  -104.242
25.5649     41.345  -104.403
25.9368     41.697  -104.479
26.3141     42.021  -104.281
26.6968     42.348  -103.776
27.0851     42.700  -103.094
27.4791     43.076  -102.428
27.8788     43.452  -101.891
28.2843     43.811  -101.443
28.6957     44.144  -100.982
29.1131     44.460  -100.445
29.5365     44.772   -99.851
29.9661     45.086   -99.281
30.4020     45.396   -98.806
30.8442     45.694   -98.440
31.2929     45.976   -98.113
31.7480     46.252   -97.775
32.2098     46.531   -97.411
32.6783     46.827   -97.052
33.1536     47.140   -96.734
33.6359     47.467   -96.470
34.1251     47.804   -96.246
34.6215     48.152   -96.025
35.1250     48.504   -95.772
35.6359     48.867   -95.444
36.1543     49.239   -95.034
36.6802     49.623   -94.555
37.2137     50.017   -94.037
37.7550     50.410   -93.505
38.3041     50.796   -92.927
38.8613     51.175   -92.261
39.4265     51.556   -91.507
40.0000     51.942   -90.774
40.5818     52.322   -90.149
41.1721     52.675   -89.603
41.7710     53.004   -89.040
42.3785     53.313   -88.430
42.9949     53.606   -87.792
43.6203     53.878   -87.047
44.2548     54.148   -86.078
44.8985     54.453   -85.031
45.5515     54.772   -84.156
46.2141     55.068   -83.390
46.8863     55.352   -82.446
47.5683     55.687   -81.448
48.2602     56.044   -80.884
48.9621     56.346   -80.624
49.6743     56.599   -80.053
50.3968     56.897   -79.101
51.1299     57.260   -78.278
51.8736     57.621   -77.671
52.6281     57.969   -76.916
53.3936     58.334   -75.952
54.1702     58.705   -74.921
54.9581     59.065   -73.779
55.7575     59.404   -72.515
56.5685     59.721   -71.214
57.3914     60.008   -69.913
58.2261     60.265   -68.692
59.0730     60.483   -67.600
59.9323     60.677   -66.531
60.8040     60.876   -65.474
61.6884     61.106   -64.536
62.5857     61.367   -63.756
63.4960     61.654   -63.101
64.4196     61.958   -62.441
65.3566     62.275   -61.650
66.3073     62.596   -60.648
67.2717     62.914   -59.350
68.2502     63.228   -57.858
69.2429     63.523   -56.265
70.2501     63.800   -54.599
71.2719     64.069   -53.036
72.3086     64.323   -51.673
73.3603     64.562   -50.505
74.4274     64.786   -49.443
75.5099     65.013   -48.318
76.6083     65.253   -47.110
77.7226     65.494   -45.673
78.8531     65.757   -43.954
80.0000     66.036   -42.170
81.1636     66.305   -40.447
82.3442     66.561   -38.780
83.5419     66.808   -37.282
84.7570     67.037   -35.925
85.9899     67.258   -34.574
87.2406     67.485   -33.131
88.5096     67.724   -31.654
89.7970     67.964   -30.196
91.1031     68.192   -28.873
92.4282     68.383   -27.664
93.7726     68.531   -26.378
95.1366     68.657   -24.735
96.5204     68.808   -22.682
97.9243     68.998   -20.484
99.3486     69.196   -18.333
100.794     69.390   -16.269
102.260     69.579   -14.295
103.747     69.772   -12.395
105.256     69.968   -10.483
106.787     70.163    -8.555
108.340     70.321    -6.673
109.916     70.430    -4.638
111.515     70.497    -2.436
113.137     70.598     0.022
114.783     70.720     2.291
116.452     70.832     4.644
118.146     70.943     7.237
119.865     71.057     9.851
121.608     71.157    12.393
123.377     71.249    14.897
125.171     71.343    17.426
126.992     71.446    20.144
128.839     71.555    22.970
130.713     71.635    25.657
132.615     71.647    28.405
134.543     71.650    31.591
136.500     71.702    34.842
138.486     71.730    37.656
140.500     71.728    40.878
142.544     71.719    44.713
144.617     71.715    48.291
146.721     71.723    52.200
148.855     71.814    56.209
151.020     71.879    59.461
153.217     71.815    63.010
155.445     71.824    67.210
157.706     71.826    70.629
160.000     71.626    74.902
162.327     71.524    80.312
164.688     71.537    84.987
167.084     71.662    89.928
169.514     71.770    93.859
171.980     71.573    98.436
174.481     71.418   104.119
177.019     71.394   109.853
179.594     71.448   115.644
182.206     71.526   121.623
184.856     71.695   127.555
187.545     71.807   132.727
190.273     71.826   138.168
193.041     71.832   143.065
195.849     71.837   148.312
198.697     71.894   154.021
201.587     71.814   158.834
204.520     71.601   164.760
207.494     71.458   171.263
210.512     71.301   179.148
213.574     71.347  -173.746
216.681     71.330  -167.050
219.833     71.311  -159.650
223.030     71.397  -151.745
226.274     71.469  -144.798
229.565     71.478  -137.940
232.905     71.348  -130.479
236.292     71.401  -122.667
239.729     71.417  -114.414
243.216     71.458  -106.544
246.754     71.417   -98.984
250.343     71.446   -91.016
253.984     71.247   -82.546
257.678     71.256   -73.688
261.426     71.306   -64.581
265.229     71.258   -56.109
269.087     70.983   -46.918
273.001     70.925   -35.950
276.972     70.964   -26.368
281.000     70.950   -15.868
285.088     71.088    -5.209
289.234     71.323     5.443
293.441     71.432    14.303
297.709     71.166    22.679
302.040     70.899    33.380
306.433     70.703    46.173
310.890     71.058    59.388
315.412     71.116    68.880
320.000     70.830    80.067
324.655     70.784    92.688
329.377     70.793   105.332
334.168     70.945   116.714
339.028     70.659   128.985
343.959     70.625   141.678
348.962     70.386   153.889
354.038     70.442   167.270
359.188     70.497   178.836
364.412     70.290  -168.369
369.713     70.195  -155.926
375.090     70.116  -143.514
380.546     70.047  -130.315
386.081     70.021  -119.515
391.697     69.484  -107.001
397.394     69.321   -93.285
403.175     69.083   -79.721
409.039     68.914   -66.592
414.989     68.592   -53.089
421.025     68.236   -39.324
427.149     67.856   -25.285
433.362     67.463   -10.822
439.665     67.031     4.683
446.060     66.574    20.762
452.548     66.049    37.369
459.131     65.518    54.867
465.809     64.987    73.645
472.584     64.414    93.835
479.458     63.818   114.082
486.432     63.284   135.543
493.507     62.769   158.232
500.686     62.318  -178.002
507.968     61.956  -153.507
515.357     61.611  -128.742
522.853     61.410  -103.680
530.458     61.338   -78.024
538.174     61.352   -52.474
546.002     61.470   -27.474
553.943     61.581    -2.380
562.001     61.777    22.709
570.175     61.897    47.708
578.469     62.088    72.519
586.883     62.250    97.084
595.419     62.294   121.324
604.080     62.309   145.701
612.866     62.273   170.142
621.780     62.162  -165.242
630.824     61.958  -139.873
640.000     61.656  -114.813
649.309     61.286   -90.001
658.753     60.788   -64.532
668.335     60.196   -38.013
678.056     59.409   -11.233
687.919     58.481    16.135
697.925     57.355    44.693
708.077     55.974    73.679
718.376     54.306   104.559
728.825     52.264   138.212
739.426     49.804   176.735
750.181     47.052  -134.230
761.093     45.411   -74.648
772.163     46.508   -14.736
783.394     48.963    34.513
794.789     51.041    76.793
806.349     52.667   114.008
818.078     53.889   150.129
829.977     54.828  -174.762
842.050     55.512  -138.916
854.298     55.969  -102.589
866.724     56.177   -65.790
879.330     56.253   -28.132
892.120     56.279    11.248
905.097     56.147    51.813
918.262     56.015    93.950
931.618     55.881   137.335
945.169     55.872  -177.732
958.917     55.966  -132.167
972.864     56.223   -85.651
987.015     56.501   -39.093
1001.37     56.980     7.878
1015.94     57.372    54.753
1030.71     57.791   100.890
1045.71     58.155   147.804
1060.92     58.438  -164.621
1076.35     58.646  -116.957
1092.00     58.790   -68.812
1107.89     58.891   -19.150
1124.00     58.976    31.310
1140.35     59.026    83.059
1156.94     59.091   135.917
1173.77     59.249  -170.139
1190.84     59.438  -115.655
1208.16     59.725   -60.644
1225.73     60.079    -4.917
1243.56     60.467    51.787
1261.65     60.851   108.320
1280.00     61.257   165.075
1298.62     61.619  -138.264
1317.51     61.955   -81.005
1336.67     62.253   -22.907
1356.11     62.485    35.469
1375.84     62.627    94.598
1395.85     62.710   154.647
1416.15     62.675  -144.675
1436.75     62.564   -83.512
1457.65     62.320   -20.854
1478.85     61.989    43.089
1500.36     61.595   108.417
1522.19     61.144   175.552
1544.33     60.675  -115.388
1566.79     60.262   -44.431
1589.58     59.918    27.948
1612.70     59.720   101.194
1636.16     59.553   175.217
1659.95     59.413  -110.009
1684.10     59.241   -34.477
1708.60     59.009    41.894
1733.45     58.751   118.904
1758.66     58.449  -162.051
1784.24     58.131   -81.586
1810.19     57.861    -1.067
1836.52     57.565    81.042
1863.24     57.204   163.362
1890.34     56.692  -113.813
1917.83     55.891   -30.003
1945.73     54.733    55.658
1974.03     53.152   144.864
2002.74     51.276  -120.564
2031.87     49.524   -18.632
2061.43     48.661    88.962
2091.41     48.919  -162.934
2121.83     49.591   -57.391
2152.69     50.061    45.703
2184.01     50.371   150.207
2215.77     50.736  -103.034
2248.00     51.312     5.865
2280.70     52.199   114.372
2313.87     53.215  -136.874
2347.53     54.253   -28.357
2381.68     55.328    79.904
2416.32     56.326  -171.288
2451.46     57.257   -62.325
2487.12     58.038    47.157
2523.30     58.610   157.599
2560.00     58.965   -90.373
2597.24     59.169    23.120
2635.01     59.298   138.892
2673.34     59.425  -103.166
2712.23     59.553    16.196
2751.68     59.631   137.327
2791.70     59.581  -100.055
2832.31     59.363    24.608
2873.50     59.042   151.736
2915.30     58.705   -78.325
2957.70     58.470    54.727
3000.72     58.352  -170.161
3044.37     58.381   -33.677
3088.65     58.513   104.547
3133.58     58.684  -116.832
3179.16     58.801    22.641
3225.40     58.698   163.497
3272.31     58.375   -53.949
3319.91     57.875    91.715
3368.20     57.346  -119.575
3417.19     56.849    31.350
3466.89     56.293  -175.180
3517.32     55.713   -18.135
3568.48     55.274   141.380
3620.39     54.995   -57.553
3673.05     54.605   105.163
3726.47     53.899   -88.745
3780.67     53.327    83.412
3835.67     53.548  -100.991
3891.46     54.291    72.731
3948.06     54.765  -115.544
4005.49     54.742    57.646
4063.75     54.496  -124.559
4122.86     54.181    55.927
4182.82     53.712  -120.168
4243.66     53.279    69.848
4305.39     53.367   -97.267
4368.01     53.763    95.807
4431.55     53.825   -70.309
4496.01     53.723   127.066
4561.40     53.612   -32.412
4627.75     53.427   171.108
4695.06     53.377    19.103
4763.35     53.615  -132.124
4832.64     53.496    75.329
4902.93     52.488   -71.708
4974.24     51.703   149.188
5046.60     51.435    10.776
5120.00     50.684  -127.330
5194.47     49.467   100.662
5270.03     48.333   -29.145
5346.68     46.572  -153.336
5424.45     45.643    93.241
5503.35     45.794   -28.197
5583.40     44.098  -152.840
5664.61     42.115    97.531
5747.01     41.643   -18.060
5830.60     39.636  -135.049
5915.41     39.237   124.252
6001.45     41.336     8.618
6088.74     40.943  -109.708
6177.30     39.871   154.590
6267.15     38.922    68.201
6358.31     38.159    13.293
6450.80     42.480   -53.977
6544.62     43.493  -129.287
6639.82     45.403   170.339
6736.40     46.800   103.784
6834.38     47.356    47.706
6933.79     48.022    -6.914
7034.64     47.960   -48.410
7136.96     49.462   -87.256
7240.77     50.337  -124.247
7346.09     51.734  -159.592
7452.94     51.957   166.930
7561.35     52.263   141.645
7671.33     51.951   121.378
7782.91     51.941   108.657
7896.12     51.386   102.205
8010.97     51.779   104.786
8127.49     52.317   109.514
8245.71     53.050   114.911
8365.65     52.538   125.485
8487.33     52.194   143.940
8610.78     51.497   168.978
8736.03     50.759  -159.997
8863.09     50.233  -116.709
8992.01     50.386   -71.768
9122.80     50.739   -22.876
9255.50     50.625    30.536
9390.12     50.456    88.393
9526.70     50.047   157.850
9665.27     50.252  -129.731
9805.86     50.567   -53.974
9948.49     50.254    27.097
10093.2     49.464   113.388
10240.0     48.353  -149.184
10388.9     47.295   -37.505
10540.1     47.267    76.144
10693.4     47.086  -165.359
10848.9     46.523   -37.648
11006.7     45.991    96.760
11166.8     45.703  -122.415
11329.2     45.411    26.836
11494.0     45.138  -176.913
11661.2     45.014   -19.223
11830.8     43.932   148.672
12002.9     43.321   -31.969
12177.5     42.704   152.595
12354.6     41.873   -16.759
12534.3     40.685  -175.874
12716.6     39.506    32.691
12901.6     38.318  -108.183
13089.2     38.001   117.310
13279.6     37.199   -14.671
13472.8     35.426  -138.629
13668.8     34.065   113.368
13867.6     34.124     2.676
14069.3     32.904  -107.600
14273.9     30.413   152.245
14481.5     28.318    62.993
14692.2     25.031    -7.519
14905.9     24.792   -60.793
15122.7     24.476  -106.588
15342.7     22.972  -148.403
15565.8     23.063  -176.970
15792.2     23.658   179.681
16021.9     23.783    28.827
16255.0     21.071  -160.088
16491.4     19.903  -148.046
16731.3     19.667    78.793
16974.7     19.868   -35.705
17221.6     20.638    71.320
17472.1     22.015    93.396
17726.2     22.633   173.696
17984.0     21.900  -139.239
18245.6     22.661    11.925
18511.0     24.506   134.175
18780.2     24.678  -112.514
19053.4     23.678   151.364
19330.5     22.861  -163.714
19611.7     18.264    72.509
19897.0     19.092    20.238
20186.4     17.849    76.915
20480.0     17.984   145.628
20777.9     17.684    68.165
21080.1     17.643    26.379
21386.7     15.503   -28.793
21697.8     16.289    97.703
22013.4     15.835  -155.042
22333.6     17.759    52.307
22658.4     16.092  -169.268
22988.0     16.997    28.659
23322.4     14.530  -173.987
23661.6     15.895  -140.365
24005.8     16.296   -78.226
24355.0     17.135    17.348
24709.2     18.318  -169.458
25068.6     16.908   -66.169
25433.2     17.941    96.385
25803.2     17.932   -42.615
26178.5     17.684   126.468
26559.3     16.975   -19.058
26945.6     17.439   150.256
27337.5     16.191   138.334
27735.2     17.377   138.075
28138.6     18.009  -168.654
28547.9     16.134    76.989
28963.1     16.264  -155.842
29384.4     16.124  -149.717
29811.8     16.967     2.511
30245.4     16.225   -66.260
30685.3     16.191    96.369
31131.7     15.625  -177.392
31584.5     16.120    24.238
32043.9     17.289    39.608
32510.0     16.637   -71.918
32982.8     16.853  -151.347
33462.6     16.954    91.748
33949.3     17.676   -86.306
34443.1     15.306  -176.359
34944.1     15.959   -48.459
35452.4     17.114   -72.092
35968.0     17.614    86.691
36491.2     16.975   168.162
37022.0     18.254   -12.634
37560.5     18.272    61.484
38106.8     18.549  -156.973
38661.1     17.676    15.815
39223.4     16.933   159.101
39793.9     17.025    36.549
