Freq[Hz]     dBSPL  Phase[Deg]
5.00000      1.174    21.307
5.07273      1.044    24.683
5.14651      0.974    28.485
5.22137      1.072    33.476
5.29732      1.170    38.468
5.37437      1.268    43.459
5.45254      1.366    48.450
5.53185      1.605    52.865
5.61231      1.993    56.669
5.69394      2.381    60.473
5.77676      2.768    64.277
5.86079      3.154    68.051
5.94604      3.423    70.011
6.03252      3.691    71.971
6.12027      3.959    73.931
6.20929      4.227    75.891
6.29961      4.206    77.924
6.39124      4.120    79.974
6.48420      4.035    82.024
6.57851      3.949    84.074
6.67420      3.653    88.946
6.77128      3.322    94.276
6.86977      2.992    99.606
6.96969      2.734   105.352
7.07107      3.027   114.266
7.17392      3.320   123.179
7.27827      3.613   132.092
7.38413      4.230   138.842
7.49154      5.096   143.920
7.60050      5.962   148.998
7.71105      6.763   153.452
7.82321      7.278   155.164
7.93701      7.793   156.876
8.05245      8.307   158.588
8.16958      8.200   160.780
8.28841      8.070   162.990
8.40896      7.940   165.201
8.53128      7.394   173.558
8.65537      6.794  -177.290
8.78126      6.194  -168.139
8.90899      7.179  -152.484
9.03857      8.267  -136.402
9.17004      9.463  -121.428
9.30342     11.510  -115.270
9.43874     13.558  -109.113
9.57603     15.427  -104.911
9.71532     17.021  -103.697
9.85663     18.615  -102.483
10.0000     19.883  -102.277
10.1455     21.060  -102.352
10.2930     22.172  -102.533
10.4427     23.103  -103.012
10.5946     24.034  -103.490
10.7487     24.869  -104.293
10.9051     25.684  -105.161
11.0637     26.444  -106.283
11.2246     27.147  -107.676
11.3879     27.818  -109.164
11.5535     28.373  -110.999
11.7216     28.926  -112.835
11.8921     29.301  -114.730
12.0650     29.676  -116.625
12.2405     29.904  -118.031
12.4186     30.113  -119.375
12.5992     30.259  -119.774
12.7825     30.391  -119.964
12.9684     30.600  -119.206
13.1570     30.827  -118.227
13.3484     31.251  -117.178
13.5426     31.706  -116.117
13.7395     32.314  -116.310
13.9394     32.924  -116.751
14.1421     33.509  -118.706
14.3478     34.036  -121.039
14.5565     34.438  -124.184
14.7683     34.702  -127.490
14.9831     34.858  -130.918
15.2010     34.814  -133.690
15.4221     34.715  -136.021
15.6464     34.523  -136.907
15.8740     34.402  -136.642
16.1049     34.340  -135.458
16.3392     34.622  -133.558
16.5768     35.039  -132.161
16.8179     35.636  -131.533
17.0626     36.274  -132.685
17.3107     36.860  -134.606
17.5625     37.356  -137.349
17.8180     37.651  -140.373
18.0771     37.840  -143.067
18.3401     37.931  -145.281
18.6068     37.960  -146.327
18.8775     38.050  -146.427
19.1521     38.231  -145.996
19.4306     38.531  -145.293
19.7133     38.969  -144.973
20.0000     39.438  -145.255
20.2909     39.892  -145.984
20.5860     40.308  -147.012
20.8855     40.672  -148.133
21.1893     40.999  -149.136
21.4975     41.320  -150.057
21.8102     41.643  -151.025
22.1274     41.958  -152.145
22.4492     42.244  -153.445
22.7758     42.483  -154.842
23.1071     42.668  -156.148
23.4432     42.818  -157.154
23.7841     42.975  -157.757
24.1301     43.186  -158.146
24.4811     43.463  -158.626
24.8372     43.781  -159.444
25.1984     44.102  -160.663
25.5649     44.392  -162.141
25.9368     44.647  -163.636
26.3141     44.885  -164.947
26.6968     45.138  -166.026
27.0851     45.430  -166.983
27.4791     45.761  -167.992
27.8788     46.109  -169.143
28.2843     46.452  -170.374
28.6957     46.784  -171.562
29.1131     47.109  -172.625
29.5365     47.439  -173.568
29.9661     47.777  -174.460
30.4020     48.112  -175.366
30.8442     48.430  -176.292
31.2929     48.727  -177.187
31.7480     49.007  -178.016
32.2098     49.278  -178.785
32.6783     49.550  -179.550
33.1536     49.824   179.621
33.6359     50.098   178.690
34.1251     50.370   177.639
34.6215     50.643   176.486
35.1250     50.915   175.265
35.6359     51.196   173.998
36.1543     51.490   172.712
36.6802     51.803   171.407
37.2137     52.134   170.065
37.7550     52.474   168.692
38.3041     52.817   167.341
38.8613     53.160   166.075
39.4265     53.511   164.910
40.0000     53.869   163.743
40.5818     54.220   162.487
41.1721     54.542   161.161
41.7710     54.831   159.843
42.3785     55.094   158.538
42.9949     55.334   157.204
43.6203     55.549   155.902
44.2548     55.761   154.730
44.8985     56.010   153.540
45.5515     56.281   152.093
46.2141     56.540   150.472
46.8863     56.800   148.993
47.5683     57.122   147.568
48.2602     57.478   145.737
48.9621     57.782   143.657
49.6743     58.038   141.948
50.3968     58.332   140.672
51.1299     58.680   139.294
51.8736     59.012   137.689
52.6281     59.315   136.175
53.3936     59.620   134.768
54.1702     59.928   133.290
54.9581     60.221   131.766
55.7575     60.504   130.213
56.5685     60.779   128.579
57.3914     61.045   126.876
58.2261     61.301   125.081
59.0730     61.537   123.202
59.9323     61.760   121.385
60.8040     61.991   119.659
61.6884     62.246   117.922
62.5857     62.518   116.099
63.4960     62.795   114.177
64.4196     63.066   112.222
65.3566     63.329   110.288
66.3073     63.582   108.414
67.2717     63.827   106.650
68.2502     64.073   104.910
69.2429     64.310   103.130
70.2501     64.544   101.322
71.2719     64.785    99.357
72.3086     65.023    97.178
73.3603     65.256    94.815
74.4274     65.477    92.367
75.5099     65.700    89.993
76.6083     65.929    87.691
77.7226     66.153    85.575
78.8531     66.393    83.672
80.0000     66.649    81.751
81.1636     66.896    79.684
82.3442     67.133    77.489
83.5419     67.368    75.069
84.7570     67.588    72.469
85.9899     67.803    69.832
87.2406     68.025    67.258
88.5096     68.258    64.682
89.7970     68.490    62.044
91.1031     68.711    59.225
92.4282     68.892    56.245
93.7726     69.028    53.291
95.1366     69.139    50.631
96.5204     69.272    48.309
97.9243     69.443    46.053
99.3486     69.624    43.677
100.794     69.802    41.151
102.260     69.975    38.480
103.747     70.148    35.668
105.256     70.323    32.781
106.787     70.496    29.806
108.340     70.638    26.690
109.916     70.736    23.660
111.515     70.795    20.757
113.137     70.888    18.070
114.783     70.999    15.120
116.452     71.098    12.155
118.146     71.201     9.343
119.865     71.312     6.505
121.608     71.408     3.571
123.377     71.486     0.541
125.171     71.559    -2.588
126.992     71.643    -5.683
128.839     71.741    -8.783
130.713     71.822   -12.069
132.615     71.834   -15.321
134.543     71.832   -18.322
136.500     71.877   -21.413
138.486     71.899   -24.362
140.500     71.891   -27.462
142.544     71.871   -30.535
144.617     71.858   -33.321
146.721     71.864   -35.768
148.855     71.956   -38.632
151.020     72.010   -42.221
153.217     71.931   -45.566
155.445     71.931   -48.307
157.706     71.932   -51.800
160.000     71.729   -54.973
162.327     71.622   -57.011
164.688     71.633   -59.195
167.084     71.751   -61.636
169.514     71.840   -65.677
171.980     71.624   -69.145
174.481     71.458   -70.937
177.019     71.422   -72.687
179.594     71.470   -75.002
182.206     71.555   -77.633
184.856     71.718   -80.220
187.545     71.814   -83.120
190.273     71.846   -86.363
193.041     71.871   -89.915
195.849     71.860   -93.082
198.697     71.898   -96.547
201.587     71.820  -100.847
204.520     71.588  -103.992
207.494     71.432  -106.728
210.512     71.289  -108.561
213.574     71.332  -111.044
216.681     71.304  -113.480
219.833     71.287  -115.762
223.030     71.367  -118.078
226.274     71.441  -121.406
229.565     71.460  -124.700
232.905     71.317  -127.357
236.292     71.353  -129.797
239.729     71.372  -132.416
243.216     71.429  -135.288
246.754     71.386  -138.364
250.343     71.399  -141.697
253.984     71.197  -144.592
257.678     71.212  -147.058
261.426     71.270  -149.755
265.229     71.213  -153.063
269.087     70.929  -155.787
273.001     70.886  -156.704
276.972     70.942  -158.877
281.000     70.933  -160.570
285.088     71.041  -162.742
289.234     71.268  -165.158
293.441     71.385  -169.186
297.709     71.114  -173.789
302.040     70.871  -175.986
306.433     70.669  -176.527
310.890     71.023  -177.468
315.412     71.121   177.982
320.000     70.863   175.347
324.655     70.822   174.147
329.377     70.831   172.802
334.168     71.027   169.078
339.028     70.769   166.507
343.959     70.757   164.171
348.962     70.563   161.528
354.038     70.636   159.974
359.188     70.744   156.039
364.412     70.588   152.864
369.713     70.556   149.413
375.090     70.526   145.893
380.546     70.538   142.575
386.081     70.600   137.016
391.697     70.151   132.572
397.394     70.100   128.820
403.175     69.977   125.433
409.039     69.949   121.077
414.989     69.785   116.547
421.025     69.621   112.240
427.149     69.441   108.253
433.362     69.273   104.662
439.665     69.097   100.834
446.060     68.919    97.475
452.548     68.727    94.509
459.131     68.539    91.657
465.809     68.367    89.402
472.584     68.219    87.551
479.458     68.084    86.216
486.432     67.967    84.997
493.507     67.846    83.726
500.686     67.750    82.463
507.968     67.676    81.186
515.357     67.612    80.010
522.853     67.544    78.665
530.458     67.498    77.311
538.174     67.453    75.829
546.002     67.407    74.351
553.943     67.362    72.752
562.001     67.307    71.112
570.175     67.236    69.351
578.469     67.157    67.556
586.883     67.048    65.676
595.419     66.938    63.772
604.080     66.800    61.976
612.866     66.642    60.097
621.780     66.451    58.376
630.824     66.256    56.545
640.000     66.039    55.111
649.309     65.789    53.792
658.753     65.538    52.544
668.335     65.277    51.504
678.056     65.025    50.668
687.919     64.774    50.158
697.925     64.533    49.701
708.077     64.337    49.397
718.376     64.158    49.241
728.825     64.020    48.985
739.426     63.900    48.733
750.181     63.818    48.274
761.093     63.739    47.570
772.163     63.686    46.582
783.394     63.614    45.416
794.789     63.504    43.879
806.349     63.373    42.018
818.078     63.186    40.009
829.977     62.939    37.721
842.050     62.615    35.402
854.298     62.199    32.893
866.724     61.716    30.481
879.330     61.113    28.167
892.120     60.393    26.128
905.097     59.553    24.481
918.262     58.590    23.343
931.618     57.487    23.227
945.169     56.236    24.266
958.917     54.867    26.946
972.864     53.476    31.812
987.015     52.082    39.325
1001.37     50.986    49.962
1015.94     50.367    62.698
1030.71     50.292    75.701
1045.71     50.694    87.010
1060.92     51.353    96.419
1076.35     52.123   103.603
1092.00     52.930   110.011
1107.89     53.669   115.143
1124.00     54.397   119.331
1140.35     55.168   123.214
1156.94     55.879   127.071
1173.77     56.609   130.188
1190.84     57.372   133.144
1208.16     58.171   135.783
1225.73     59.017   137.916
1243.56     59.911   139.614
1261.65     60.819   140.542
1280.00     61.741   140.701
1298.62     62.636   140.113
1317.51     63.501   138.705
1336.67     64.305   136.691
1356.11     65.027   133.992
1375.84     65.674   130.879
1395.85     66.214   127.362
1416.15     66.669   123.591
1436.75     67.023   119.713
1457.65     67.286   115.716
1478.85     67.458   111.746
1500.36     67.532   107.805
1522.19     67.523   103.880
1544.33     67.429   100.160
1566.79     67.234    96.607
1589.58     66.934    93.418
1612.70     66.539    90.763
1636.16     66.042    88.892
1659.95     65.473    88.047
1684.10     64.894    88.549
1708.60     64.396    90.490
1733.45     64.085    93.598
1758.66     64.040    97.172
1784.24     64.229   100.210
1810.19     64.589   101.952
1836.52     64.995   102.400
1863.24     65.347   101.683
1890.34     65.602   100.163
1917.83     65.747    98.289
1945.73     65.779    96.233
1974.03     65.735    94.379
2002.74     65.628    92.770
2031.87     65.478    91.356
2061.43     65.324    90.122
2091.41     65.155    89.029
2121.83     64.985    87.939
2152.69     64.806    86.775
2184.01     64.611    85.516
2215.77     64.391    84.154
2248.00     64.136    82.687
2280.70     63.856    81.100
2313.87     63.546    79.352
2347.53     63.217    77.299
2381.68     62.849    74.722
2416.32     62.387    71.341
2451.46     61.774    67.061
2487.12     60.931    61.853
2523.30     59.784    55.845
2560.00     58.277    49.060
2597.24     56.316    40.894
2635.01     53.765    29.707
2673.34     50.462    10.515
2712.23     47.452   -27.514
2751.68     48.438   -76.714
2791.70     51.973  -106.482
2832.31     54.895  -121.929
2873.50     57.052  -131.274
2915.30     58.692  -137.725
2957.70     60.019  -142.515
3000.72     61.118  -146.520
3044.37     62.047  -149.882
3088.65     62.832  -152.810
3133.58     63.529  -155.426
3179.16     64.140  -158.013
3225.40     64.645  -160.681
3272.31     64.994  -163.121
3319.91     65.230  -164.831
3368.20     65.447  -165.589
3417.19     65.722  -165.749
3466.89     66.063  -165.834
3517.32     66.454  -166.081
3568.48     66.869  -166.539
3620.39     67.295  -167.398
3673.05     67.703  -168.599
3726.47     68.089  -170.003
3780.67     68.472  -171.678
3835.67     68.828  -173.973
3891.46     69.080  -176.772
3948.06     69.215  -179.510
4005.49     69.298   177.993
4063.75     69.344   175.346
4122.86     69.269   172.568
4182.82     69.066   170.324
4243.66     68.825   168.821
4305.39     68.543   167.725
4368.01     68.178   167.676
4431.55     67.904   169.408
4496.01     67.955   171.893
4561.40     68.295   173.276
4627.75     68.731   172.613
4695.06     69.006   169.989
4763.35     68.948   167.171
4832.64     68.770   165.976
4902.93     68.730   165.350
4974.24     68.695   164.148
5046.60     68.612   163.225
5120.00     68.564   162.210
5194.47     68.421   161.083
5270.03     68.276   160.882
5346.68     68.229   160.505
5424.45     68.118   160.290
5503.35     68.135   160.682
5583.40     68.214   160.141
5664.61     68.229   159.890
5747.01     68.393   159.355
5830.60     68.462   157.901
5915.41     68.503   156.919
6001.45     68.529   155.272
6088.74     68.447   154.267
6177.30     68.450   153.425
6267.15     68.363   152.791
6358.31     68.450   152.827
6450.80     68.540   151.943
6544.62     68.710   151.620
6639.82     68.945   149.633
6736.40     69.061   147.570
6834.38     69.136   144.180
6933.79     68.896   141.173
7034.64     68.600   138.641
7136.96     68.083   137.422
7240.77     67.664   137.280
7346.09     67.170   138.726
7452.94     66.996   140.689
7561.35     66.819   143.109
7671.33     66.912   144.852
7782.91     66.972   146.686
7896.12     67.148   146.961
8010.97     67.191   147.434
8127.49     67.118   147.308
8245.71     67.031   148.047
8365.65     66.760   148.716
8487.33     66.594   149.748
8610.78     66.239   151.701
8736.03     66.038   153.408
8863.09     65.827   156.214
8992.01     65.710   158.849
9122.80     65.850   160.638
9255.50     65.911   161.479
9390.12     65.852   160.859
9526.70     65.643   160.813
9665.27     65.372   162.116
9805.86     65.282   163.895
9948.49     65.441   165.226
10093.2     65.616   165.095
10240.0     65.551   164.505
10388.9     65.387   164.672
10540.1     65.259   166.196
10693.4     65.269   168.049
10848.9     65.377   168.969
11006.7     65.509   168.459
11166.8     65.410   167.080
11329.2     64.941   166.393
11494.0     64.305   168.025
11661.2     63.885   172.221
11830.8     63.927   176.851
12002.9     64.206   179.109
12177.5     64.260   179.418
12354.6     64.009  -179.975
12534.3     63.651  -177.491
12716.6     63.495  -173.671
12901.6     63.531  -169.981
13089.2     63.733  -166.686
13279.6     64.013  -164.782
13472.8     64.193  -164.180
13668.8     64.161  -163.605
13867.6     64.052  -161.862
14069.3     64.106  -159.412
14273.9     64.318  -157.936
14481.5     64.518  -157.881
14692.2     64.525  -158.813
14905.9     64.324  -159.493
15122.7     64.004  -159.790
15342.7     63.584  -159.128
15565.8     63.228  -157.255
15792.2     63.049  -155.643
16021.9     62.869  -155.042
16255.0     62.516  -155.305
16491.4     61.957  -154.848
16731.3     61.355  -153.073
16974.7     60.909  -151.150
17221.6     60.435  -149.527
17472.1     59.896  -148.687
17726.2     59.112  -147.863
17984.0     58.124  -145.230
18245.6     57.240  -140.884
18511.0     56.495  -136.613
18780.2     55.682  -132.464
19053.4     54.789  -126.414
19330.5     54.161  -119.669
19611.7     53.614  -113.785
19897.0     53.035  -106.347
20186.4     52.922  -100.522
20480.0     52.219   -96.624
20777.9     51.784   -86.864
21080.1     52.012   -81.328
21386.7     51.865   -77.471
21697.8     52.661   -76.113
22013.4     51.328   -87.536
22333.6     49.267   -86.915
22658.4     46.536   -84.311
22988.0     43.423   -77.163
23322.4     38.379   -54.415
23661.6     38.046    -2.992
24005.8     41.326    20.112
24355.0     43.420    30.387
24709.2     44.758    39.258
25068.6     45.993    44.846
25433.2     46.654    49.024
25803.2     47.057    55.351
26178.5     48.011    62.210
26559.3     48.715    65.183
26945.6     49.209    69.135
27337.5     50.008    73.815
27735.2     50.879    73.529
28138.6     50.981    72.880
28547.9     50.915    73.947
28963.1     50.540    76.496
29384.4     50.685    82.211
29811.8     51.097    82.483
30245.4     50.878    80.635
30685.3     50.216    76.675
31131.7     48.471    75.142
31584.5     46.629    78.072
32043.9     44.291    83.851
32510.0     41.929    96.447
32982.8     41.532   115.630
33462.6     41.624   120.200
33949.3     40.594   120.757
34443.1     38.115   121.951
34944.1     34.464   135.011
35452.4     32.361   159.993
35968.0     31.551  -174.361
36491.2     30.805  -154.404
37022.0     33.057  -122.509
37560.5     33.856  -122.002
38106.8     34.629  -114.170
38661.1     33.737  -110.960
39223.4     33.165  -100.269
39793.9     32.735   -95.345
