Freq[Hz]     dBSPL  Phase[Deg]
5.00000      0.045    20.823
5.07273     -0.086    24.199
5.14651     -0.158    28.001
5.22137     -0.062    32.990
5.29732      0.034    37.980
5.37437      0.131    42.970
5.45254      0.227    47.959
5.53185      0.463    52.370
5.61231      0.849    56.169
5.69394      1.235    59.968
5.77676      1.621    63.767
5.86079      2.004    67.535
5.94604      2.270    69.485
6.03252      2.535    71.435
6.12027      2.800    73.385
6.20929      3.065    75.335
6.29961      3.040    77.354
6.39124      2.952    79.387
6.48420      2.863    81.421
6.57851      2.774    83.455
6.67420      2.475    88.305
6.77128      2.141    93.612
6.86977      1.807    98.919
6.96969      1.546   104.642
7.07107      1.835   113.525
7.17392      2.125   122.408
7.27827      2.415   131.291
7.38413      3.028   138.005
7.49154      3.891   143.045
7.60050      4.755   148.085
7.71105      5.553   152.499
7.82321      6.065   154.166
7.93701      6.577   155.832
8.05245      7.090   157.498
8.16958      6.981   159.638
8.28841      6.848   161.795
8.40896      6.716   163.952
8.53128      6.169   172.252
8.65537      5.569  -178.656
8.78126      4.969  -169.564
8.90899      5.954  -153.972
9.03857      7.043  -137.954
9.17004      8.240  -123.044
9.30342     10.290  -116.953
9.43874     12.340  -110.863
9.57603     14.211  -106.729
9.71532     15.809  -105.584
9.85663     17.407  -104.439
10.0000     18.680  -104.302
10.1455     19.862  -104.445
10.2930     20.980  -104.694
10.4427     21.918  -105.238
10.5946     22.856  -105.782
10.7487     23.699  -106.647
10.9051     24.523  -107.575
11.0637     25.293  -108.755
11.2246     26.006  -110.201
11.3879     26.688  -111.740
11.5535     27.255  -113.620
11.7216     27.819  -115.499
11.8921     28.208  -117.426
12.0650     28.597  -119.353
12.2405     28.838  -120.779
12.4186     29.060  -122.140
12.5992     29.220  -122.545
12.7825     29.366  -122.738
12.9684     29.589  -121.970
13.1570     29.830  -120.978
13.3484     30.267  -119.901
13.5426     30.735  -118.811
13.7395     31.355  -118.960
13.9394     31.977  -119.354
14.1421     32.571  -121.250
14.3478     33.107  -123.521
14.5565     33.518  -126.597
14.7683     33.788  -129.829
14.9831     33.949  -133.180
15.2010     33.907  -135.872
15.4221     33.809  -138.123
15.6464     33.615  -138.928
15.8740     33.492  -138.586
16.1049     33.425  -137.328
16.3392     33.700  -135.363
16.5768     34.109  -133.907
16.8179     34.695  -133.228
17.0626     35.322  -134.343
17.3107     35.895  -136.239
17.5625     36.378  -138.967
17.8180     36.659  -141.998
18.0771     36.833  -144.712
18.3401     36.909  -146.959
18.6068     36.924  -148.059
18.8775     37.000  -148.229
19.1521     37.169  -147.883
19.4306     37.458  -147.278
19.7133     37.886  -147.073
20.0000     38.348  -147.483
20.2909     38.797  -148.348
20.5860     39.210  -149.519
20.8855     39.575  -150.789
21.1893     39.905  -151.942
21.4975     40.233  -153.012
21.8102     40.566  -154.124
22.1274     40.894  -155.379
22.4492     41.195  -156.803
22.7758     41.452  -158.310
23.1071     41.657  -159.707
23.4432     41.827  -160.786
23.7841     42.007  -161.440
24.1301     42.239  -161.857
24.4811     42.536  -162.344
24.8372     42.875  -163.150
25.1984     43.212  -164.337
25.5649     43.519  -165.769
25.9368     43.786  -167.207
26.3141     44.034  -168.454
26.6968     44.292  -169.468
27.0851     44.586  -170.366
27.4791     44.916  -171.326
27.8788     45.260  -172.446
28.2843     45.597  -173.668
28.6957     45.921  -174.873
29.1131     46.238  -175.981
29.5365     46.562  -176.998
29.9661     46.895  -177.992
30.4020     47.229  -179.023
30.8442     47.551   179.907
31.2929     47.857   178.858
31.7480     48.152   177.876
32.2098     48.443   176.963
32.6783     48.741   176.079
33.1536     49.046   175.160
33.6359     49.353   174.178
34.1251     49.659   173.122
34.6215     49.968   172.013
35.1250     50.273   170.879
35.6359     50.582   169.744
36.1543     50.899   168.620
36.6802     51.227   167.495
37.2137     51.566   166.340
37.7550     51.907   165.144
38.3041     52.243   163.943
38.8613     52.575   162.793
39.4265     52.913   161.699
40.0000     53.257   160.559
40.5818     53.596   159.289
41.1721     53.909   157.916
41.7710     54.196   156.533
42.3785     54.462   155.161
42.9949     54.711   153.774
43.6203     54.938   152.446
44.2548     55.164   151.286
44.8985     55.426   150.149
45.5515     55.706   148.786
46.2141     55.968   147.271
46.8863     56.224   145.900
47.5683     56.534   144.563
48.2602     56.873   142.782
48.9621     57.158   140.700
49.6743     57.395   138.934
50.3968     57.674   137.552
51.1299     58.013   136.032
51.8736     58.343   134.268
52.6281     58.652   132.601
53.3936     58.971   131.066
54.1702     59.295   129.501
54.9581     59.605   127.932
55.7575     59.903   126.369
56.5685     60.188   124.741
57.3914     60.459   123.041
58.2261     60.716   121.224
59.0730     60.952   119.286
59.9323     61.178   117.375
60.8040     61.418   115.534
61.6884     61.690   113.682
62.5857     61.985   111.768
63.4960     62.289   109.802
64.4196     62.587   107.857
65.3566     62.875   105.984
66.3073     63.145   104.198
67.2717     63.402   102.526
68.2502     63.652   100.855
69.2429     63.892    99.112
70.2501     64.131    97.312
71.2719     64.381    95.343
72.3086     64.631    93.172
73.3603     64.877    90.846
74.4274     65.110    88.465
75.5099     65.339    86.177
76.6083     65.568    83.955
77.7226     65.788    81.889
78.8531     66.023    79.994
80.0000     66.276    78.044
81.1636     66.525    75.930
82.3442     66.770    73.693
83.5419     67.015    71.254
84.7570     67.247    68.664
85.9899     67.471    66.058
87.2406     67.699    63.523
88.5096     67.936    60.980
89.7970     68.170    58.364
91.1031     68.391    55.554
92.4282     68.574    52.568
93.7726     68.712    49.596
95.1366     68.828    46.910
96.5204     68.970    44.568
97.9243     69.151    42.312
99.3486     69.343    39.962
100.794     69.527    37.485
102.260     69.701    34.863
103.747     69.871    32.077
105.256     70.040    29.171
106.787     70.213    26.136
108.340     70.361    22.941
109.916     70.475    19.852
111.515     70.554    16.952
113.137     70.664    14.340
114.783     70.780    11.510
116.452     70.871     8.635
118.146     70.959     5.818
119.865     71.063     2.880
121.608     71.168    -0.174
123.377     71.268    -3.245
125.171     71.358    -6.308
126.992     71.443    -9.305
128.839     71.534   -12.377
130.713     71.609   -15.725
132.615     71.629   -19.051
134.543     71.640   -22.052
136.500     71.690   -25.103
138.486     71.708   -28.054
140.500     71.700   -31.225
142.544     71.692   -34.370
144.617     71.693   -37.153
146.721     71.706   -39.560
148.855     71.797   -42.419
151.020     71.854   -46.045
153.217     71.781   -49.417
155.445     71.784   -52.189
157.706     71.791   -55.751
160.000     71.605   -58.984
162.327     71.515   -60.996
164.688     71.531   -63.137
167.084     71.650   -65.610
169.514     71.753   -69.700
171.980     71.552   -73.126
174.481     71.386   -74.888
177.019     71.353   -76.702
179.594     71.422   -79.049
182.206     71.523   -81.560
184.856     71.674   -84.052
187.545     71.758   -87.020
190.273     71.795   -90.394
193.041     71.834   -94.006
195.849     71.832   -97.173
198.697     71.872  -100.699
201.587     71.808  -105.132
204.520     71.607  -108.290
207.494     71.462  -110.935
210.512     71.319  -112.809
213.574     71.383  -115.340
216.681     71.366  -117.707
219.833     71.348  -120.006
223.030     71.442  -122.377
226.274     71.524  -125.684
229.565     71.544  -129.060
232.905     71.422  -131.801
236.292     71.475  -134.238
239.729     71.507  -136.892
243.216     71.586  -139.768
246.754     71.552  -142.785
250.343     71.563  -146.187
253.984     71.388  -149.212
257.678     71.429  -151.597
261.426     71.484  -154.313
265.229     71.453  -157.725
269.087     71.186  -160.376
273.001     71.146  -161.373
276.972     71.221  -163.625
281.000     71.237  -165.444
285.088     71.394  -167.580
289.234     71.626  -169.875
293.441     71.760  -173.987
297.709     71.506  -178.593
302.040     71.288   179.092
306.433     71.122   178.604
310.890     71.491   177.680
315.412     71.609   173.091
320.000     71.378   170.405
324.655     71.363   169.164
329.377     71.413   167.797
334.168     71.629   164.175
339.028     71.393   161.523
343.959     71.410   159.153
348.962     71.247   156.420
354.038     71.365   154.845
359.188     71.506   150.931
364.412     71.391   147.729
369.713     71.392   144.295
375.090     71.401   140.728
380.546     71.453   137.381
386.081     71.567   131.787
391.697     71.161   127.400
397.394     71.148   123.574
403.175     71.085   120.143
409.039     71.104   115.812
414.989     71.001   111.277
421.025     70.879   106.935
427.149     70.764   102.902
433.362     70.661    99.288
439.665     70.543    95.459
446.060     70.430    92.127
452.548     70.307    89.009
459.131     70.196    86.219
465.809     70.094    83.926
472.584     70.024    82.013
479.458     69.971    80.706
486.432     69.923    79.356
493.507     69.904    78.029
500.686     69.907    76.721
507.968     69.915    75.450
515.357     69.954    74.125
522.853     70.003    72.745
530.458     70.056    71.262
538.174     70.141    69.753
546.002     70.211    68.225
553.943     70.287    66.515
562.001     70.364    64.724
570.175     70.440    62.838
578.469     70.504    60.817
586.883     70.565    58.722
595.419     70.616    56.677
604.080     70.649    54.566
612.866     70.668    52.417
621.780     70.669    50.261
630.824     70.657    48.136
640.000     70.625    46.041
649.309     70.582    44.085
658.753     70.530    42.171
668.335     70.468    40.375
678.056     70.406    38.717
687.919     70.329    37.235
697.925     70.274    35.826
708.077     70.226    34.632
718.376     70.187    33.517
728.825     70.181    32.470
739.426     70.195    31.521
750.181     70.241    30.513
761.093     70.310    29.503
772.163     70.407    28.347
783.394     70.522    27.082
794.789     70.649    25.589
806.349     70.785    23.890
818.078     70.919    22.032
829.977     71.038    19.977
842.050     71.137    17.719
854.298     71.212    15.286
866.724     71.263    12.817
879.330     71.277    10.224
892.120     71.260     7.617
905.097     71.206     5.104
918.262     71.118     2.690
931.618     70.996     0.361
945.169     70.865    -1.724
958.917     70.718    -3.543
972.864     70.567    -5.124
987.015     70.429    -6.489
1001.37     70.310    -7.618
1015.94     70.225    -8.609
1030.71     70.172    -9.584
1045.71     70.162   -10.622
1060.92     70.176   -11.790
1076.35     70.208   -13.151
1092.00     70.237   -14.700
1107.89     70.248   -16.463
1124.00     70.238   -18.372
1140.35     70.197   -20.327
1156.94     70.121   -22.171
1173.77     70.013   -23.812
1190.84     69.897   -25.228
1208.16     69.791   -26.233
1225.73     69.717   -26.965
1243.56     69.708   -27.455
1261.65     69.774   -27.927
1280.00     69.917   -28.626
1298.62     70.120   -29.771
1317.51     70.365   -31.462
1336.67     70.603   -33.801
1356.11     70.812   -36.686
1375.84     70.962   -40.084
1395.85     71.041   -43.814
1416.15     71.036   -47.663
1436.75     70.949   -51.547
1457.65     70.784   -55.298
1478.85     70.558   -58.830
1500.36     70.274   -62.030
1522.19     69.948   -64.931
1544.33     69.593   -67.467
1566.79     69.208   -69.622
1589.58     68.803   -71.301
1612.70     68.382   -72.432
1636.16     67.986   -72.872
1659.95     67.649   -72.536
1684.10     67.427   -71.622
1708.60     67.376   -70.525
1733.45     67.474   -69.831
1758.66     67.682   -69.949
1784.24     67.905   -71.088
1810.19     68.077   -73.011
1836.52     68.143   -75.318
1863.24     68.109   -77.556
1890.34     68.011   -79.324
1917.83     67.913   -80.512
1945.73     67.893   -81.312
1974.03     67.963   -82.093
2002.74     68.089   -83.415
2031.87     68.212   -85.241
2061.43     68.275   -87.354
2091.41     68.273   -89.376
2121.83     68.252   -90.977
2152.69     68.284   -92.135
2184.01     68.413   -93.326
2215.77     68.613   -94.994
2248.00     68.813   -97.399
2280.70     68.946  -100.299
2313.87     68.997  -103.231
2347.53     69.006  -105.771
2381.68     69.042  -108.006
2416.32     69.150  -110.334
2451.46     69.290  -113.238
2487.12     69.375  -116.828
2523.30     69.345  -120.694
2560.00     69.202  -124.242
2597.24     69.012  -127.098
2635.01     68.860  -129.418
2673.34     68.771  -131.728
2712.23     68.686  -134.374
2751.68     68.539  -137.162
2791.70     68.326  -139.610
2832.31     68.111  -141.463
2873.50     67.960  -142.999
2915.30     67.848  -144.637
2957.70     67.721  -146.475
3000.72     67.551  -148.093
3044.37     67.401  -149.241
3088.65     67.321  -150.248
3133.58     67.274  -151.581
3179.16     67.183  -153.058
3225.40     67.045  -154.121
3272.31     66.955  -154.582
3319.91     66.984  -154.930
3368.20     67.072  -155.807
3417.19     67.123  -157.034
3466.89     67.140  -158.065
3517.32     67.220  -158.766
3568.48     67.393  -159.792
3620.39     67.564  -161.622
3673.05     67.632  -163.818
3726.47     67.626  -165.590
3780.67     67.664  -166.819
3835.67     67.790  -168.324
3891.46     67.908  -170.537
3948.06     67.935  -172.957
4005.49     67.911  -175.163
4063.75     67.867  -177.506
4122.86     67.727  -179.960
4182.82     67.473   178.362
4243.66     67.249   177.544
4305.39     67.055   176.907
4368.01     66.805   177.162
4431.55     66.765   179.128
4496.01     67.160  -179.894
4561.40     67.564   177.989
4627.75     67.633   174.778
4695.06     67.486   172.210
4763.35     67.204   170.363
4832.64     66.829   170.095
4902.93     66.620   171.128
4974.24     66.524   171.910
5046.60     66.438   173.413
5120.00     66.593   175.009
5194.47     66.728   175.314
5270.03     66.805   176.566
5346.68     67.142   177.699
5424.45     67.430   177.541
5503.35     67.732   177.937
5583.40     68.163   177.261
5664.61     68.468   175.959
5747.01     68.842   174.523
5830.60     69.125   171.696
5915.41     69.254   169.043
6001.45     69.317   165.749
6088.74     69.100   162.979
6177.30     68.909   161.395
6267.15     68.610   159.905
6358.31     68.346   160.171
6450.80     68.197   160.064
6544.62     68.046   160.997
6639.82     68.079   161.179
6736.40     68.011   161.663
6834.38     68.122   161.547
6933.79     68.032   161.240
7034.64     68.073   160.957
7136.96     67.888   160.519
7240.77     67.816   160.710
7346.09     67.550   161.340
7452.94     67.551   162.822
7561.35     67.457   164.371
7671.33     67.710   165.852
7782.91     67.868   166.318
7896.12     68.129   165.338
8010.97     68.096   164.438
8127.49     67.981   162.824
8245.71     67.688   163.099
8365.65     67.381   163.027
8487.33     67.138   164.033
8610.78     66.747   164.734
8736.03     66.488   165.599
8863.09     66.070   167.417
8992.01     65.793   169.122
9122.80     65.727   171.179
9255.50     65.641   171.875
9390.12     65.553   171.008
9526.70     65.274   170.259
9665.27     64.761   169.808
9805.86     64.241   170.677
9948.49     63.854   173.468
10093.2     63.669   176.948
10240.0     63.734   179.711
10388.9     63.944  -178.233
10540.1     64.149  -177.012
10693.4     64.272  -176.818
10848.9     64.352  -177.367
11006.7     64.322  -178.157
11166.8     64.070  -179.052
11329.2     63.581  -179.127
11494.0     63.055  -177.335
11661.2     62.736  -173.687
11830.8     62.769  -169.620
12002.9     63.095  -167.155
12177.5     63.483  -167.894
12354.6     63.415  -171.734
12534.3     62.703  -173.783
12716.6     61.984  -172.671
12901.6     61.380  -170.330
13089.2     60.881  -166.942
13279.6     60.624  -163.098
13472.8     60.565  -160.314
13668.8     60.517  -159.173
13867.6     60.239  -158.800
14069.3     59.825  -157.662
14273.9     59.486  -155.744
14481.5     59.262  -154.531
14692.2     58.984  -154.584
14905.9     58.495  -155.224
15122.7     57.772  -155.548
15342.7     56.976  -154.842
15565.8     56.245  -153.641
15792.2     55.524  -153.819
16021.9     54.491  -155.475
16255.0     52.884  -156.660
16491.4     50.837  -153.500
16731.3     48.975  -146.744
16974.7     47.434  -137.862
17221.6     46.224  -127.745
17472.1     45.352  -120.311
17726.2     44.296  -115.004
17984.0     42.763  -109.843
18245.6     40.772  -100.291
18511.0     39.492   -91.616
18780.2     38.365   -87.322
19053.4     35.820   -95.762
19330.5     32.102  -133.978
19611.7     33.668   138.640
19897.0     37.837   102.759
20186.4     41.384   103.303
20480.0     44.336    95.982
20777.9     46.035    94.278
21080.1     47.870    90.452
21386.7     48.694    80.625
21697.8     46.968    68.060
22013.4     44.899   107.224
22333.6     49.085   106.071
22658.4     49.927   102.663
22988.0     50.125   100.936
23322.4     50.243   101.471
23661.6     50.278   102.165
24005.8     50.343   102.005
24355.0     50.179   101.966
24709.2     49.915   100.766
25068.6     49.328    98.289
25433.2     48.217    95.779
25803.2     46.539    96.356
26178.5     45.112    99.743
26559.3     43.502   100.565
26945.6     41.295   103.131
27337.5     38.547   105.823
27735.2     34.190   112.826
28138.6     27.378   153.190
28547.9     27.412  -140.162
28963.1     31.424  -104.366
29384.4     35.956   -81.719
29811.8     39.464   -76.957
30245.4     41.117   -73.948
30685.3     42.677   -66.477
31131.7     44.577   -64.164
31584.5     45.529   -67.432
32043.9     45.052   -70.454
32510.0     44.420   -61.744
32982.8     44.988   -57.143
33462.6     44.629   -57.867
33949.3     43.892   -51.757
34443.1     43.709   -47.206
34944.1     43.110   -45.324
35452.4     42.124   -42.118
35968.0     41.034   -38.700
36491.2     39.397   -37.063
37022.0     36.428   -25.325
37560.5     36.352   -10.462
38106.8     35.086    -5.037
38661.1     33.220     0.003
39223.4     30.028     9.340
39793.9     27.497    89.085
