Freq[Hz]     dBSPL  Phase[Deg]
5.00000      0.050    20.190
5.07273     -0.080    23.479
5.14651     -0.149    27.192
5.22137     -0.048    32.090
5.29732      0.053    36.988
5.37437      0.154    41.887
5.45254      0.255    46.785
5.53185      0.499    51.106
5.61231      0.894    54.817
5.69394      1.288    58.527
5.77676      1.683    62.238
5.86079      2.076    65.918
5.94604      2.354    67.790
6.03252      2.632    69.662
6.12027      2.910    71.534
6.20929      3.188    73.406
6.29961      3.179    75.360
6.39124      3.106    77.334
6.48420      3.034    79.307
6.57851      2.961    81.280
6.67420      2.680    86.089
6.77128      2.365    91.359
6.86977      2.050    96.628
6.96969      1.808   102.316
7.07107      2.119   111.189
7.17392      2.429   120.061
7.27827      2.740   128.933
7.38413      3.374   135.654
7.49154      4.259   140.713
7.60050      5.144   145.773
7.71105      5.964   150.211
7.82321      6.498   151.927
7.93701      7.031   153.642
8.05245      7.565   155.358
8.16958      7.476   157.575
8.28841      7.364   159.811
8.40896      7.252   162.046
8.53128      6.723   170.448
8.65537      6.141   179.645
8.78126      5.559  -171.158
8.90899      6.559  -155.439
9.03857      7.663  -139.293
9.17004      8.874  -124.253
9.30342     10.936  -118.016
9.43874     12.997  -111.778
9.57603     14.878  -107.492
9.71532     16.483  -106.187
9.85663     18.088  -104.881
10.0000     19.365  -104.577
10.1455     20.551  -104.551
10.2930     21.671  -104.631
10.4427     22.607  -105.004
10.5946     23.543  -105.377
10.7487     24.381  -106.074
10.9051     25.199  -106.835
11.0637     25.961  -107.852
11.2246     26.664  -109.141
11.3879     27.334  -110.526
11.5535     27.886  -112.264
11.7216     28.435  -114.003
11.8921     28.805  -115.809
12.0650     29.176  -117.616
12.2405     29.396  -118.945
12.4186     29.597  -120.213
12.5992     29.735  -120.549
12.7825     29.859  -120.678
12.9684     30.058  -119.873
13.1570     30.276  -118.849
13.3484     30.689  -117.770
13.5426     31.134  -116.681
13.7395     31.733  -116.861
13.9394     32.334  -117.290
14.1421     32.910  -119.246
14.3478     33.429  -121.583
14.5565     33.824  -124.740
14.7683     34.082  -128.061
14.9831     34.232  -131.507
15.2010     34.185  -134.299
15.4221     34.083  -136.650
15.6464     33.888  -137.554
15.8740     33.767  -137.303
16.1049     33.704  -136.132
16.3392     33.986  -134.236
16.5768     34.405  -132.838
16.8179     35.002  -132.202
17.0626     35.641  -133.335
17.3107     36.227  -135.233
17.5625     36.723  -137.945
17.8180     37.017  -140.930
18.0771     37.203  -143.581
18.3401     37.290  -145.749
18.6068     37.314  -146.746
18.8775     37.395  -146.799
19.1521     37.566  -146.324
19.4306     37.854  -145.581
19.7133     38.278  -145.232
20.0000     38.731  -145.499
20.2909     39.168  -146.226
20.5860     39.564  -147.268
20.8855     39.909  -148.422
21.1893     40.215  -149.483
21.4975     40.517  -150.486
21.8102     40.822  -151.559
22.1274     41.120  -152.805
22.4492     41.392  -154.253
22.7758     41.619  -155.818
23.1071     41.797  -157.306
23.4432     41.943  -158.507
23.7841     42.102  -159.311
24.1301     42.319  -159.900
24.4811     42.606  -160.572
24.8372     42.940  -161.570
25.1984     43.280  -162.948
25.5649     43.593  -164.560
25.9368     43.874  -166.160
26.3141     44.140  -167.544
26.6968     44.420  -168.662
27.0851     44.738  -169.626
27.4791     45.094  -170.611
27.8788     45.464  -171.711
28.2843     45.827  -172.872
28.6957     46.172  -173.977
29.1131     46.508  -174.950
29.5365     46.843  -175.806
29.9661     47.182  -176.619
30.4020     47.517  -177.461
30.8442     47.830  -178.344
31.2929     48.123  -179.219
31.7480     48.398   179.950
32.2098     48.664   179.158
32.6783     48.933   178.351
33.1536     49.207   177.467
33.6359     49.483   176.476
34.1251     49.760   175.364
34.6215     50.041   174.158
35.1250     50.325   172.895
35.6359     50.617   171.603
36.1543     50.923   170.306
36.6802     51.247   169.003
37.2137     51.588   167.674
37.7550     51.937   166.319
38.3041     52.287   164.986
38.8613     52.635   163.735
39.4265     52.993   162.580
40.0000     53.358   161.418
40.5818     53.716   160.166
41.1721     54.047   158.850
41.7710     54.347   157.551
42.3785     54.622   156.287
42.9949     54.872   155.016
43.6203     55.095   153.800
44.2548     55.311   152.735
44.8985     55.558   151.660
45.5515     55.820   150.321
46.2141     56.065   148.785
46.8863     56.306   147.349
47.5683     56.607   145.910
48.2602     56.943   144.007
48.9621     57.233   141.802
49.6743     57.483   139.935
50.3968     57.781   138.494
51.1299     58.143   136.970
51.8736     58.495   135.267
52.6281     58.823   133.718
53.3936     59.153   132.348
54.1702     59.477   130.968
54.9581     59.778   129.577
55.7575     60.055   128.156
56.5685     60.315   126.610
57.3914     60.558   124.924
58.2261     60.792   123.058
59.0730     61.011   121.023
59.9323     61.230   119.000
60.8040     61.471   117.060
61.6884     61.749   115.145
62.5857     62.053   113.215
63.4960     62.363   111.276
64.4196     62.663   109.383
65.3566     62.946   107.562
66.3073     63.207   105.808
67.2717     63.452   104.132
68.2502     63.693   102.424
69.2429     63.929   100.625
70.2501     64.168    98.770
71.2719     64.422    96.771
72.3086     64.677    94.601
73.3603     64.927    92.305
74.4274     65.158    89.967
75.5099     65.382    87.716
76.6083     65.604    85.511
77.7226     65.815    83.439
78.8531     66.044    81.521
80.0000     66.292    79.541
81.1636     66.539    77.401
82.3442     66.782    75.142
83.5419     67.025    72.684
84.7570     67.256    70.071
85.9899     67.481    67.441
87.2406     67.711    64.889
88.5096     67.950    62.345
89.7970     68.186    59.747
91.1031     68.405    56.963
92.4282     68.583    53.996
93.7726     68.716    51.022
95.1366     68.827    48.312
96.5204     68.967    45.938
97.9243     69.149    43.661
99.3486     69.343    41.313
100.794     69.527    38.854
102.260     69.697    36.246
103.747     69.859    33.446
105.256     70.024    30.498
106.787     70.199    27.410
108.340     70.352    24.185
109.916     70.472    21.107
111.515     70.553    18.247
113.137     70.658    15.667
114.783     70.767    12.826
116.452     70.856     9.902
118.146     70.950     7.046
119.865     71.061     4.125
121.608     71.167     1.133
123.377     71.257    -1.903
125.171     71.336    -5.022
126.992     71.423    -8.135
128.839     71.535   -11.261
130.713     71.631   -14.519
132.615     71.653   -17.666
134.543     71.645   -20.560
136.500     71.674   -23.636
138.486     71.688   -26.656
140.500     71.684   -29.843
142.544     71.672   -32.951
144.617     71.663   -35.744
146.721     71.671   -38.227
148.855     71.769   -41.150
151.020     71.836   -44.765
153.217     71.765   -48.094
155.445     71.767   -50.831
157.706     71.770   -54.361
160.000     71.573   -57.593
162.327     71.478   -59.676
164.688     71.503   -61.870
167.084     71.633   -64.269
169.514     71.721   -68.248
171.980     71.494   -71.778
174.481     71.333   -73.747
177.019     71.328   -75.607
179.594     71.411   -77.845
182.206     71.506   -80.336
184.856     71.670   -82.865
187.545     71.769   -85.710
190.273     71.792   -88.910
193.041     71.806   -92.550
195.849     71.803   -95.853
198.697     71.860   -99.396
201.587     71.803  -103.741
204.520     71.596  -106.830
207.494     71.441  -109.445
210.512     71.285  -111.341
213.574     71.343  -113.975
216.681     71.338  -116.422
219.833     71.336  -118.681
223.030     71.429  -120.969
226.274     71.505  -124.275
229.565     71.527  -127.672
232.905     71.409  -130.401
236.292     71.464  -132.818
239.729     71.496  -135.448
243.216     71.571  -138.315
246.754     71.539  -141.364
250.343     71.560  -144.727
253.984     71.379  -147.679
257.678     71.412  -150.092
261.426     71.468  -152.839
265.229     71.442  -156.306
269.087     71.190  -158.918
273.001     71.146  -159.835
276.972     71.226  -162.103
281.000     71.242  -163.792
285.088     71.374  -165.965
289.234     71.614  -168.369
293.441     71.752  -172.512
297.709     71.522  -177.142
302.040     71.307  -179.258
306.433     71.124  -179.783
310.890     71.503   179.287
315.412     71.621   174.716
320.000     71.392   172.053
324.655     71.379   170.830
329.377     71.422   169.521
334.168     71.636   165.764
339.028     71.420   163.130
343.959     71.445   160.788
348.962     71.292   158.205
354.038     71.385   156.665
359.188     71.530   152.641
364.412     71.424   149.462
369.713     71.429   146.038
375.090     71.441   142.499
380.546     71.496   139.138
386.081     71.616   133.587
391.697     71.211   129.203
397.394     71.201   125.394
403.175     71.141   121.970
409.039     71.165   117.613
414.989     71.069   113.148
421.025     70.942   108.793
427.149     70.833   104.766
433.362     70.728   101.117
439.665     70.622    97.323
446.060     70.508    93.987
452.548     70.381    90.897
459.131     70.269    88.053
465.809     70.182    85.722
472.584     70.109    83.933
479.458     70.046    82.561
486.432     69.994    81.189
493.507     69.987    79.822
500.686     69.981    78.600
507.968     70.000    77.293
515.357     70.024    76.020
522.853     70.071    74.717
530.458     70.124    73.260
538.174     70.190    71.743
546.002     70.272    70.276
553.943     70.335    68.676
562.001     70.413    66.904
570.175     70.482    65.125
578.469     70.549    63.190
586.883     70.609    61.232
595.419     70.655    59.316
604.080     70.689    57.410
612.866     70.700    55.335
621.780     70.712    53.338
630.824     70.706    51.393
640.000     70.689    49.524
649.309     70.659    47.761
658.753     70.629    46.109
668.335     70.590    44.532
678.056     70.553    43.153
687.919     70.522    41.841
697.925     70.502    40.677
708.077     70.510    39.611
718.376     70.534    38.623
728.825     70.589    37.704
739.426     70.677    36.737
750.181     70.781    35.728
761.093     70.915    34.493
772.163     71.080    33.187
783.394     71.247    31.685
794.789     71.427    29.884
806.349     71.604    27.943
818.078     71.762    25.720
829.977     71.912    23.291
842.050     72.037    20.721
854.298     72.124    18.014
866.724     72.180    15.205
879.330     72.201    12.349
892.120     72.182     9.456
905.097     72.126     6.696
918.262     72.028     3.986
931.618     71.905     1.449
945.169     71.758    -0.834
958.917     71.595    -2.883
972.864     71.432    -4.650
987.015     71.273    -6.145
1001.37     71.130    -7.428
1015.94     71.019    -8.539
1030.71     70.941    -9.554
1045.71     70.898   -10.623
1060.92     70.885   -11.738
1076.35     70.878   -13.039
1092.00     70.886   -14.518
1107.89     70.880   -16.074
1124.00     70.850   -17.732
1140.35     70.800   -19.372
1156.94     70.729   -20.894
1173.77     70.638   -22.160
1190.84     70.564   -23.170
1208.16     70.510   -23.839
1225.73     70.514   -24.309
1243.56     70.595   -24.684
1261.65     70.752   -25.227
1280.00     70.983   -26.163
1298.62     71.258   -27.628
1317.51     71.554   -29.705
1336.67     71.831   -32.422
1356.11     72.063   -35.679
1375.84     72.233   -39.359
1395.85     72.324   -43.337
1416.15     72.336   -47.427
1436.75     72.271   -51.456
1457.65     72.132   -55.436
1478.85     71.941   -59.193
1500.36     71.692   -62.704
1522.19     71.405   -65.981
1544.33     71.084   -68.986
1566.79     70.717   -71.691
1589.58     70.315   -74.022
1612.70     69.884   -75.781
1636.16     69.436   -76.875
1659.95     69.018   -77.089
1684.10     68.696   -76.577
1708.60     68.524   -75.586
1733.45     68.521   -74.705
1758.66     68.652   -74.470
1784.24     68.837   -75.083
1810.19     68.994   -76.552
1836.52     69.077   -78.457
1863.24     69.083   -80.401
1890.34     69.031   -81.975
1917.83     68.990   -83.169
1945.73     69.013   -84.056
1974.03     69.106   -85.040
2002.74     69.253   -86.523
2031.87     69.385   -88.493
2061.43     69.462   -90.726
2091.41     69.471   -92.884
2121.83     69.468   -94.693
2152.69     69.502   -96.114
2184.01     69.612   -97.548
2215.77     69.784   -99.384
2248.00     69.955  -101.825
2280.70     70.073  -104.641
2313.87     70.119  -107.474
2347.53     70.137  -110.046
2381.68     70.183  -112.349
2416.32     70.282  -114.809
2451.46     70.402  -117.807
2487.12     70.474  -121.335
2523.30     70.438  -125.040
2560.00     70.308  -128.424
2597.24     70.150  -131.238
2635.01     70.035  -133.685
2673.34     69.964  -136.230
2712.23     69.875  -139.120
2751.68     69.710  -142.109
2791.70     69.466  -144.607
2832.31     69.227  -146.411
2873.50     69.066  -147.755
2915.30     68.974  -149.247
2957.70     68.888  -151.028
3000.72     68.761  -152.792
3044.37     68.631  -154.207
3088.65     68.549  -155.408
3133.58     68.509  -156.767
3179.16     68.457  -158.337
3225.40     68.374  -159.861
3272.31     68.294  -161.082
3319.91     68.243  -162.218
3368.20     68.201  -163.444
3417.19     68.136  -164.571
3466.89     68.080  -165.251
3517.32     68.103  -165.573
3568.48     68.216  -166.166
3620.39     68.363  -167.273
3673.05     68.476  -168.630
3726.47     68.589  -169.894
3780.67     68.750  -171.304
3835.67     68.917  -173.198
3891.46     69.013  -175.505
3948.06     69.042  -177.536
4005.49     69.100  -179.266
4063.75     69.195   178.616
4122.86     69.209   176.045
4182.82     69.120   173.832
4243.66     69.041   172.151
4305.39     68.964   170.407
4368.01     68.806   169.127
4431.55     68.732   169.077
4496.01     68.920   168.739
4561.40     69.164   166.679
4627.75     69.241   163.640
4695.06     69.152   160.364
4763.35     68.848   157.360
4832.64     68.408   156.013
4902.93     68.098   155.938
4974.24     67.821   155.599
5046.60     67.474   156.452
5120.00     67.359   158.303
5194.47     67.338   159.396
5270.03     67.326   161.230
5346.68     67.574   162.800
5424.45     67.794   163.143
5503.35     68.037   163.955
5583.40     68.401   163.793
5664.61     68.667   163.233
5747.01     69.050   162.526
5830.60     69.375   160.337
5915.41     69.582   158.066
6001.45     69.718   154.861
6088.74     69.574   151.995
6177.30     69.410   150.149
6267.15     69.128   148.698
6358.31     68.932   148.794
6450.80     68.811   148.444
6544.62     68.721   148.979
6639.82     68.762   148.524
6736.40     68.695   148.449
6834.38     68.753   147.643
6933.79     68.594   146.858
7034.64     68.522   146.204
7136.96     68.243   145.908
7240.77     68.110   146.244
7346.09     67.821   147.110
7452.94     67.792   148.537
7561.35     67.684   150.151
7671.33     67.885   151.293
7782.91     67.955   151.798
7896.12     68.102   151.087
8010.97     68.046   150.874
8127.49     67.931   149.833
8245.71     67.721   150.304
8365.65     67.415   149.963
8487.33     67.142   150.432
8610.78     66.596   150.984
8736.03     66.140   152.352
8863.09     65.588   155.451
8992.01     65.179   159.058
9122.80     65.183   163.562
9255.50     65.354   166.753
9390.12     65.681   167.218
9526.70     65.894   166.334
9665.27     65.819   164.450
9805.86     65.521   162.544
9948.49     65.109   162.270
10093.2     64.664   163.977
10240.0     64.460   166.703
10388.9     64.527   169.125
10540.1     64.635   170.666
10693.4     64.631   171.551
10848.9     64.595   172.269
11006.7     64.561   173.245
11166.8     64.499   174.152
11329.2     64.345   174.945
11494.0     64.120   176.082
11661.2     63.906   177.983
11830.8     63.751  -179.388
12002.9     63.727  -176.283
12177.5     63.904  -173.778
12354.6     64.041  -173.598
12534.3     63.839  -173.143
12716.6     63.692  -171.269
12901.6     63.643  -169.573
13089.2     63.529  -168.423
13279.6     63.307  -166.804
13472.8     63.084  -164.163
13668.8     63.036  -160.874
13867.6     63.153  -158.343
14069.3     63.242  -156.892
14273.9     63.268  -155.471
14481.5     63.377  -154.181
14692.2     63.531  -154.367
14905.9     63.444  -156.065
15122.7     62.997  -157.436
15342.7     62.382  -156.833
15565.8     61.907  -154.656
15792.2     61.650  -152.733
16021.9     61.375  -152.328
16255.0     60.833  -152.485
16491.4     60.073  -151.352
16731.3     59.365  -148.374
16974.7     58.846  -145.220
17221.6     58.412  -142.339
17472.1     58.017  -140.518
17726.2     57.396  -139.623
17984.0     56.509  -137.631
18245.6     55.754  -133.730
18511.0     55.316  -130.601
18780.2     54.780  -130.252
19053.4     53.849  -130.660
19330.5     52.587  -131.162
19611.7     50.766  -130.568
19897.0     48.840  -125.468
20186.4     47.120  -124.931
20480.0     43.162  -122.373
20777.9     38.468   -97.714
21080.1     36.972   -51.964
21386.7     40.251   -19.576
21697.8     44.426   -23.047
22013.4     36.549   -51.094
22333.6     37.394    34.189
22658.4     42.038    44.147
22988.0     43.658    45.231
23322.4     44.916    56.243
23661.6     46.588    59.903
24005.8     47.431    61.515
24355.0     47.866    63.930
24709.2     48.258    68.624
25068.6     48.774    72.289
25433.2     49.132    73.780
25803.2     49.048    76.615
26178.5     49.123    80.761
26559.3     49.264    83.888
26945.6     49.348    87.093
27337.5     49.230    89.774
27735.2     48.929    93.639
28138.6     48.708    98.661
28547.9     48.422   103.314
28963.1     48.112   109.465
29384.4     47.982   115.580
29811.8     47.781   120.496
30245.4     47.386   124.466
30685.3     46.554   129.690
31131.7     45.909   137.430
31584.5     45.395   142.543
32043.9     44.215   146.506
32510.0     42.406   155.853
32982.8     41.546   168.867
33462.6     40.439   177.039
33949.3     39.082  -166.698
34443.1     38.896  -150.497
34944.1     38.685  -137.644
35452.4     38.814  -124.312
35968.0     39.246  -114.916
36491.2     38.998  -111.154
37022.0     37.377  -101.928
37560.5     38.171   -87.082
38106.8     37.439   -80.901
38661.1     37.604   -75.964
39223.4     36.332   -70.571
39793.9     34.802   -61.331
