Freq[Hz]     dBSPL  Phase[Deg]
5.00000      0.595    20.723
5.07273      0.467    24.076
5.14651      0.398    27.854
5.22137      0.499    32.822
5.29732      0.599    37.790
5.37437      0.700    42.758
5.45254      0.800    47.726
5.53185      1.042    52.117
5.61231      1.434    55.900
5.69394      1.826    59.683
5.77676      2.218    63.465
5.86079      2.608    67.217
5.94604      2.881    69.159
6.03252      3.154    71.101
6.12027      3.426    73.044
6.20929      3.699    74.986
6.29961      3.683    77.007
6.39124      3.603    79.044
6.48420      3.523    81.082
6.57851      3.443    83.120
6.67420      3.153    87.986
6.77128      2.829    93.311
6.86977      2.505    98.637
6.96969      2.254   104.379
7.07107      2.554   113.296
7.17392      2.854   122.213
7.27827      3.154   131.130
7.38413      3.778   137.888
7.49154      4.651   142.979
7.60050      5.525   148.070
7.71105      6.333   152.538
7.82321      6.855   154.272
7.93701      7.376   156.006
8.05245      7.898   157.740
8.16958      7.797   159.964
8.28841      7.673   162.205
8.40896      7.549   164.447
8.53128      7.009   172.844
8.65537      6.416  -177.964
8.78126      5.822  -168.773
8.90899      6.812  -153.069
9.03857      7.906  -136.938
9.17004      9.106  -121.915
9.30342     11.158  -115.701
9.43874     13.210  -109.488
9.57603     15.082  -105.227
9.71532     16.678  -103.951
9.85663     18.275  -102.675
10.0000     19.545  -102.403
10.1455     20.723  -102.411
10.2930     21.836  -102.524
10.4427     22.767  -102.932
10.5946     23.697  -103.341
10.7487     24.530  -104.071
10.9051     25.344  -104.867
11.0637     26.101  -105.917
11.2246     26.800  -107.237
11.3879     27.466  -108.653
11.5535     28.016  -110.418
11.7216     28.563  -112.184
11.8921     28.931  -114.013
12.0650     29.299  -115.841
12.2405     29.518  -117.186
12.4186     29.717  -118.469
12.5992     29.852  -118.815
12.7825     29.974  -118.953
12.9684     30.171  -118.150
13.1570     30.386  -117.129
13.3484     30.796  -116.047
13.5426     31.238  -114.956
13.7395     31.832  -115.130
13.9394     32.428  -115.554
14.1421     32.998  -117.504
14.3478     33.510  -119.837
14.5565     33.899  -122.991
14.7683     34.148  -126.313
14.9831     34.289  -129.763
15.2010     34.232  -132.567
15.4221     34.120  -134.935
15.6464     33.914  -135.865
15.8740     33.782  -135.650
16.1049     33.708  -134.520
16.3392     33.978  -132.682
16.5768     34.386  -131.348
16.8179     34.973  -130.787
17.0626     35.603  -132.010
17.3107     36.180  -134.004
17.5625     36.670  -136.821
17.8180     36.959  -139.921
18.0771     37.142  -142.693
18.3401     37.228  -144.985
18.6068     37.253  -146.110
18.8775     37.340  -146.290
19.1521     37.518  -145.940
19.4306     37.815  -145.320
19.7133     38.251  -145.083
20.0000     38.718  -145.451
20.2909     39.172  -146.265
20.5860     39.588  -147.381
20.8855     39.952  -148.591
21.1893     40.281  -149.683
21.4975     40.605  -150.694
21.8102     40.932  -151.753
22.1274     41.252  -152.960
22.4492     41.545  -154.346
22.7758     41.792  -155.825
23.1071     41.985  -157.208
23.4432     42.145  -158.284
23.7841     42.313  -158.948
24.1301     42.535  -159.389
24.4811     42.824  -159.910
24.8372     43.154  -160.758
25.1984     43.486  -161.996
25.5649     43.788  -163.481
25.9368     44.054  -164.973
26.3141     44.301  -166.273
26.6968     44.561  -167.334
27.0851     44.858  -168.271
27.4791     45.193  -169.260
27.8788     45.542  -170.396
28.2843     45.885  -171.620
28.6957     46.215  -172.813
29.1131     46.538  -173.895
29.5365     46.866  -174.873
29.9661     47.202  -175.818
30.4020     47.536  -176.791
30.8442     47.857  -177.800
31.2929     48.159  -178.785
31.7480     48.448  -179.707
32.2098     48.732   179.435
32.6783     49.020   178.594
33.1536     49.314   177.709
33.6359     49.610   176.747
34.1251     49.905   175.698
34.6215     50.200   174.581
35.1250     50.494   173.427
35.6359     50.794   172.259
36.1543     51.101   171.093
36.6802     51.421   169.918
37.2137     51.754   168.705
37.7550     52.091   167.448
38.3041     52.425   166.184
38.8613     52.757   164.972
39.4265     53.096   163.819
40.0000     53.445   162.627
40.5818     53.791   161.315
41.1721     54.112   159.913
41.7710     54.408   158.516
42.3785     54.684   157.150
42.9949     54.942   155.791
43.6203     55.178   154.509
44.2548     55.410   153.416
44.8985     55.676   152.359
45.5515     55.956   151.086
46.2141     56.215   149.661
46.8863     56.465   148.372
47.5683     56.765   147.100
48.2602     57.092   145.363
48.9621     57.364   143.300
49.6743     57.591   141.530
50.3968     57.862   140.127
51.1299     58.196   138.578
51.8736     58.526   136.791
52.6281     58.837   135.116
53.3936     59.159   133.599
54.1702     59.486   132.077
54.9581     59.796   130.577
55.7575     60.090   129.097
56.5685     60.367   127.552
57.3914     60.624   125.919
58.2261     60.864   124.141
59.0730     61.084   122.208
59.9323     61.295   120.272
60.8040     61.524   118.387
61.6884     61.788   116.485
62.5857     62.080   114.533
63.4960     62.382   112.550
64.4196     62.680   110.609
65.3566     62.964   108.756
66.3073     63.228   106.994
67.2717     63.474   105.334
68.2502     63.713   103.657
69.2429     63.944   101.885
70.2501     64.175   100.043
71.2719     64.420    98.031
72.3086     64.667    95.824
73.3603     64.911    93.474
74.4274     65.142    91.079
75.5099     65.367    88.777
76.6083     65.593    86.536
77.7226     65.809    84.444
78.8531     66.043    82.523
80.0000     66.296    80.556
81.1636     66.547    78.443
82.3442     66.790    76.221
83.5419     67.032    73.804
84.7570     67.258    71.226
85.9899     67.476    68.617
87.2406     67.698    66.063
88.5096     67.930    63.500
89.7970     68.161    60.870
91.1031     68.379    58.054
92.4282     68.555    55.061
93.7726     68.687    52.066
95.1366     68.797    49.331
96.5204     68.936    46.923
97.9243     69.120    44.606
99.3486     69.319    42.222
100.794     69.510    39.747
102.260     69.687    37.150
103.747     69.856    34.390
105.256     70.022    31.493
106.787     70.193    28.447
108.340     70.342    25.239
109.916     70.458    22.153
111.515     70.539    19.278
113.137     70.648    16.701
114.783     70.758    13.893
116.452     70.844    11.017
118.146     70.929     8.184
119.865     71.033     5.236
121.608     71.138     2.191
123.377     71.236    -0.858
125.171     71.322    -3.909
126.992     71.400    -6.923
128.839     71.490   -10.032
130.713     71.569   -13.405
132.615     71.593   -16.712
134.543     71.604   -19.658
136.500     71.646   -22.670
138.486     71.654   -25.636
140.500     71.642   -28.864
142.544     71.640   -32.045
144.617     71.646   -34.801
146.721     71.653   -37.167
148.855     71.734   -40.051
151.020     71.791   -43.771
153.217     71.734   -47.186
155.445     71.752   -49.861
157.706     71.751   -53.278
160.000     71.539   -56.502
162.327     71.440   -58.667
164.688     71.474   -60.889
167.084     71.608   -63.248
169.514     71.692   -67.220
171.980     71.470   -70.787
174.481     71.321   -72.728
177.019     71.319   -74.470
179.594     71.384   -76.602
182.206     71.453   -79.147
184.856     71.611   -81.868
187.545     71.732   -84.835
190.273     71.782   -87.954
193.041     71.794   -91.416
195.849     71.768   -94.696
198.697     71.819   -98.358
201.587     71.772  -102.747
204.520     71.569  -105.849
207.494     71.428  -108.494
210.512     71.289  -110.256
213.574     71.327  -112.742
216.681     71.303  -115.279
219.833     71.308  -117.641
223.030     71.407  -119.955
226.274     71.501  -123.333
229.565     71.552  -126.555
232.905     71.408  -129.044
236.292     71.434  -131.618
239.729     71.492  -134.350
243.216     71.571  -137.050
246.754     71.520  -140.132
250.343     71.553  -143.543
253.984     71.369  -146.400
257.678     71.390  -148.863
261.426     71.455  -151.679
265.229     71.436  -155.120
269.087     71.189  -157.711
273.001     71.143  -158.579
276.972     71.218  -160.890
281.000     71.246  -162.587
285.088     71.376  -164.742
289.234     71.634  -167.171
293.441     71.774  -171.138
297.709     71.530  -175.783
302.040     71.319  -177.853
306.433     71.118  -178.405
310.890     71.510  -179.422
315.412     71.631   176.048
320.000     71.411   173.381
324.655     71.395   172.220
329.377     71.446   170.871
334.168     71.655   167.245
339.028     71.431   164.476
343.959     71.472   162.184
348.962     71.314   159.561
354.038     71.424   158.034
359.188     71.575   154.070
364.412     71.467   150.975
369.713     71.465   147.528
375.090     71.485   143.973
380.546     71.544   140.660
386.081     71.660   135.113
391.697     71.256   130.699
397.394     71.261   126.867
403.175     71.201   123.524
409.039     71.232   119.157
414.989     71.131   114.697
421.025     71.017   110.391
427.149     70.903   106.322
433.362     70.802   102.740
439.665     70.707    98.959
446.060     70.567    95.526
452.548     70.475    92.471
459.131     70.366    89.618
465.809     70.279    87.316
472.584     70.205    85.614
479.458     70.157    84.138
486.432     70.113    82.917
493.507     70.084    81.628
500.686     70.092    80.270
507.968     70.117    79.072
515.357     70.143    77.907
522.853     70.184    76.637
530.458     70.237    75.229
538.174     70.309    73.829
546.002     70.374    72.373
553.943     70.454    70.824
562.001     70.529    69.156
570.175     70.608    67.432
578.469     70.685    65.655
586.883     70.750    63.767
595.419     70.814    62.035
604.080     70.859    60.235
612.866     70.886    58.307
621.780     70.921    56.512
630.824     70.935    54.670
640.000     70.951    52.961
649.309     70.966    51.417
658.753     70.959    49.929
668.335     70.964    48.437
678.056     70.979    47.083
687.919     71.006    45.850
697.925     71.058    44.642
708.077     71.125    43.582
718.376     71.206    42.447
728.825     71.330    41.285
739.426     71.473    40.061
750.181     71.635    38.761
761.093     71.816    37.230
772.163     71.998    35.545
783.394     72.190    33.619
794.789     72.383    31.450
806.349     72.563    29.088
818.078     72.725    26.542
829.977     72.862    23.803
842.050     72.965    20.919
854.298     73.044    17.917
866.724     73.075    14.928
879.330     73.074    11.831
892.120     73.031     8.832
905.097     72.949     5.887
918.262     72.834     3.123
931.618     72.684     0.565
945.169     72.511    -1.728
958.917     72.328    -3.746
972.864     72.139    -5.470
987.015     71.962    -6.864
1001.37     71.799    -8.040
1015.94     71.683    -9.071
1030.71     71.602    -9.908
1045.71     71.556   -10.749
1060.92     71.542   -11.700
1076.35     71.549   -12.730
1092.00     71.564   -13.896
1107.89     71.581   -15.209
1124.00     71.592   -16.495
1140.35     71.591   -17.806
1156.94     71.590   -19.004
1173.77     71.595   -20.011
1190.84     71.625   -20.897
1208.16     71.703   -21.608
1225.73     71.830   -22.302
1243.56     72.027   -23.201
1261.65     72.277   -24.398
1280.00     72.567   -26.058
1298.62     72.869   -28.263
1317.51     73.168   -31.027
1336.67     73.435   -34.307
1356.11     73.641   -37.968
1375.84     73.788   -41.969
1395.85     73.864   -46.150
1416.15     73.871   -50.365
1436.75     73.811   -54.520
1457.65     73.697   -58.600
1478.85     73.536   -62.507
1500.36     73.330   -66.265
1522.19     73.090   -69.910
1544.33     72.805   -73.370
1566.79     72.470   -76.670
1589.58     72.077   -79.664
1612.70     71.631   -82.164
1636.16     71.146   -83.946
1659.95     70.655   -84.816
1684.10     70.227   -84.704
1708.60     69.935   -83.870
1733.45     69.828   -82.797
1758.66     69.892   -82.117
1784.24     70.060   -82.257
1810.19     70.242   -83.267
1836.52     70.382   -84.917
1863.24     70.452   -86.838
1890.34     70.470   -88.651
1917.83     70.473   -90.253
1945.73     70.508   -91.653
1974.03     70.590   -93.120
2002.74     70.703   -94.923
2031.87     70.800   -97.049
2061.43     70.851   -99.411
2091.41     70.853  -101.680
2121.83     70.836  -103.607
2152.69     70.852  -105.189
2184.01     70.944  -106.693
2215.77     71.104  -108.525
2248.00     71.289  -110.926
2280.70     71.441  -113.846
2313.87     71.533  -117.016
2347.53     71.572  -120.171
2381.68     71.589  -123.193
2416.32     71.607  -126.195
2451.46     71.625  -129.367
2487.12     71.609  -132.755
2523.30     71.541  -136.204
2560.00     71.420  -139.458
2597.24     71.283  -142.411
2635.01     71.161  -145.222
2673.34     71.040  -148.098
2712.23     70.888  -151.076
2751.68     70.676  -153.870
2791.70     70.438  -156.180
2832.31     70.254  -158.016
2873.50     70.148  -159.826
2915.30     70.072  -162.101
2957.70     69.936  -164.775
3000.72     69.714  -167.243
3044.37     69.470  -169.052
3088.65     69.296  -170.466
3133.58     69.205  -172.137
3179.16     69.098  -174.427
3225.40     68.894  -176.939
3272.31     68.601  -179.058
3319.91     68.285   179.420
3368.20     67.981   178.201
3417.19     67.658   177.190
3466.89     67.288   176.689
3517.32     66.929   177.123
3568.48     66.670   178.360
3620.39     66.534   179.907
3673.05     66.503  -178.406
3726.47     66.584  -176.682
3780.67     66.792  -175.266
3835.67     67.066  -174.393
3891.46     67.364  -173.728
3948.06     67.759  -173.144
4005.49     68.287  -173.338
4063.75     68.827  -174.844
4122.86     69.288  -177.075
4182.82     69.734  -179.690
4243.66     70.176   176.651
4305.39     70.462   171.662
4368.01     70.476   166.254
4431.55     70.242   161.234
4496.01     69.747   157.021
4561.40     68.995   155.198
4627.75     68.398   157.154
4695.06     68.382   159.983
4763.35     68.608   160.644
4832.64     68.778   160.316
4902.93     68.948   159.405
4974.24     68.990   157.951
5046.60     68.952   157.400
5120.00     69.044   156.974
5194.47     69.074   155.933
5270.03     69.064   155.784
5346.68     69.196   155.564
5424.45     69.282   154.864
5503.35     69.396   154.581
5583.40     69.552   153.779
5664.61     69.650   153.207
5747.01     69.877   152.552
5830.60     70.055   150.970
5915.41     70.196   149.552
6001.45     70.322   147.432
6088.74     70.311   145.409
6177.30     70.281   143.517
6267.15     70.127   141.927
6358.31     70.027   141.143
6450.80     69.899   140.149
6544.62     69.813   139.971
6639.82     69.763   139.171
6736.40     69.687   139.016
6834.38     69.677   138.079
6933.79     69.543   137.587
7034.64     69.463   136.772
7136.96     69.254   136.578
7240.77     69.148   136.178
7346.09     68.876   136.569
7452.94     68.771   136.893
7561.35     68.512   137.878
7671.33     68.408   138.914
7782.91     68.237   140.863
7896.12     68.232   142.596
8010.97     68.334   144.968
8127.49     68.503   145.907
8245.71     68.720   146.455
8365.65     68.704   145.599
8487.33     68.624   144.540
8610.78     68.218   143.487
8736.03     67.577   142.996
8863.09     66.811   145.455
8992.01     66.125   150.227
9122.80     65.994   156.423
9255.50     66.238   161.830
9390.12     66.669   164.567
9526.70     67.156   165.637
9665.27     67.514   165.655
9805.86     67.769   164.666
9948.49     67.989   163.848
10093.2     68.178   163.015
10240.0     68.331   161.715
10388.9     68.344   159.948
10540.1     68.143   158.872
10693.4     67.861   159.355
10848.9     67.671   161.149
11006.7     67.699   163.204
11166.8     67.896   164.492
11329.2     68.033   164.562
11494.0     67.958   164.200
11661.2     67.776   164.688
11830.8     67.649   166.244
12002.9     67.613   168.010
12177.5     67.612   169.456
12354.6     67.597   170.369
12534.3     67.441   171.111
12716.6     67.156   173.233
12901.6     66.995   176.958
13089.2     67.115  -178.975
13279.6     67.425  -176.153
13472.8     67.707  -174.433
13668.8     67.929  -173.241
13867.6     68.054  -172.409
14069.3     68.048  -171.092
14273.9     68.077  -168.677
14481.5     68.321  -166.015
14692.2     68.727  -164.844
14905.9     68.986  -165.529
15122.7     68.933  -166.218
15342.7     68.747  -165.384
15565.8     68.685  -163.266
15792.2     68.812  -161.504
16021.9     68.966  -160.954
16255.0     68.954  -161.218
16491.4     68.753  -160.891
16731.3     68.544  -159.245
16974.7     68.514  -157.356
17221.6     68.549  -156.070
17472.1     68.538  -155.951
17726.2     68.314  -156.177
17984.0     67.916  -155.348
18245.6     67.564  -153.273
18511.0     67.338  -151.154
18780.2     67.090  -149.614
19053.4     66.724  -147.663
19330.5     66.357  -144.796
19611.7     66.122  -141.924
19897.0     65.824  -139.036
20186.4     65.613  -136.168
20480.0     65.073  -134.509
20777.9     64.485  -128.002
21080.1     64.470  -121.039
21386.7     64.449  -116.546
21697.8     64.514  -107.333
22013.4     66.378  -105.770
22333.6     66.007  -110.781
22658.4     65.722  -109.531
22988.0     65.430  -108.533
23322.4     65.045  -105.884
23661.6     64.887  -102.537
24005.8     64.848  -100.001
24355.0     64.744   -98.210
24709.2     64.586   -96.091
25068.6     64.489   -94.300
25433.2     64.356   -93.142
25803.2     64.160   -91.871
26178.5     64.040   -91.060
26559.3     63.834   -90.436
26945.6     63.636   -89.539
27337.5     63.477   -88.948
27735.2     63.260   -89.003
28138.6     62.857   -89.292
28547.9     62.324   -89.018
28963.1     61.718   -88.111
29384.4     61.038   -86.961
29811.8     60.264   -85.418
30245.4     59.427   -83.158
30685.3     58.628   -81.393
31131.7     57.498   -79.812
31584.5     56.225   -76.474
32043.9     55.037   -72.765
32510.0     53.692   -69.163
32982.8     52.421   -64.002
33462.6     51.289   -59.706
33949.3     50.048   -56.668
34443.1     48.673   -54.267
34944.1     46.897   -52.831
35452.4     44.737   -50.729
35968.0     42.414   -47.856
36491.2     39.641   -44.575
37022.0     38.944   -48.575
37560.5     35.738  -115.315
38106.8     33.801   150.663
38661.1     30.597   134.777
39223.4     31.734   152.725
39793.9     34.586   165.988
