Freq[Hz]     dBSPL  Phase[Deg]
5.00000      0.690    21.642
5.07273      0.550    24.922
5.14651      0.471    28.622
5.22137      0.562    33.497
5.29732      0.652    38.372
5.37437      0.743    43.246
5.45254      0.833    48.121
5.53185      1.066    52.410
5.61231      1.450    56.079
5.69394      1.834    59.749
5.77676      2.218    63.418
5.86079      2.599    67.057
5.94604      2.867    68.869
6.03252      3.134    70.681
6.12027      3.402    72.493
6.20929      3.669    74.306
6.29961      3.651    76.186
6.39124      3.569    78.081
6.48420      3.487    79.977
6.57851      3.405    81.872
6.67420      3.117    86.590
6.77128      2.794    91.765
6.86977      2.472    96.940
6.96969      2.222   102.533
7.07107      2.528   111.298
7.17392      2.833   120.063
7.27827      3.139   128.828
7.38413      3.770   135.437
7.49154      4.653   140.379
7.60050      5.535   145.322
7.71105      6.353   149.643
7.82321      6.887   151.236
7.93701      7.422   152.830
8.05245      7.956   154.423
8.16958      7.871   156.517
8.28841      7.763   158.629
8.40896      7.654   160.742
8.53128      7.133   169.023
8.65537      6.557   178.099
8.78126      5.982  -172.824
8.90899      6.992  -157.220
9.03857      8.106  -141.187
9.17004      9.327  -126.260
9.30342     11.401  -120.127
9.43874     13.475  -113.994
9.57603     15.370  -109.806
9.71532     16.990  -108.592
9.85663     18.611  -107.377
10.0000     19.905  -107.152
10.1455     21.108  -107.202
10.2930     22.246  -107.352
10.4427     23.201  -107.782
10.5946     24.156  -108.213
10.7487     25.013  -108.950
10.9051     25.851  -109.748
11.0637     26.633  -110.792
11.2246     27.357  -112.097
11.3879     28.047  -113.492
11.5535     28.620  -115.223
11.7216     29.191  -116.954
11.8921     29.581  -118.730
12.0650     29.971  -120.506
12.2405     30.211  -121.785
12.4186     30.430  -123.000
12.5992     30.585  -123.266
12.7825     30.725  -123.321
12.9684     30.939  -122.427
13.1570     31.170  -121.311
13.3484     31.594  -120.127
13.5426     32.049  -118.932
13.7395     32.654  -118.998
13.9394     33.261  -119.312
14.1421     33.839  -121.151
14.3478     34.358  -123.372
14.5565     34.751  -126.416
14.7683     35.004  -129.630
14.9831     35.147  -132.974
15.2010     35.090  -135.680
15.4221     34.976  -137.952
15.6464     34.768  -138.794
15.8740     34.633  -138.499
16.1049     34.555  -137.295
16.3392     34.820  -135.395
16.5768     35.222  -134.006
16.8179     35.803  -133.398
17.0626     36.426  -134.585
17.3107     36.996  -136.551
17.5625     37.479  -139.348
17.8180     37.762  -142.439
18.0771     37.939  -145.208
18.3401     38.019  -147.504
18.6068     38.039  -148.641
18.8775     38.120  -148.840
19.1521     38.294  -148.513
19.4306     38.587  -147.921
19.7133     39.019  -147.719
20.0000     39.484  -148.127
20.2909     39.936  -148.987
20.5860     40.349  -150.152
20.8855     40.713  -151.416
21.1893     41.042  -152.570
21.4975     41.367  -153.646
21.8102     41.697  -154.776
22.1274     42.021  -156.059
22.4492     42.319  -157.524
22.7758     42.572  -159.086
23.1071     42.775  -160.553
23.4432     42.945  -161.713
23.7841     43.128  -162.459
24.1301     43.366  -162.975
24.4811     43.673  -163.561
24.8372     44.025  -164.463
25.1984     44.380  -165.737
25.5649     44.707  -167.239
25.9368     44.999  -168.725
26.3141     45.273  -169.992
26.6968     45.560  -170.993
27.0851     45.882  -171.841
27.4791     46.240  -172.712
27.8788     46.610  -173.703
28.2843     46.971  -174.759
28.6957     47.312  -175.767
29.1131     47.642  -176.654
29.5365     47.971  -177.434
29.9661     48.301  -178.186
30.4020     48.625  -178.984
30.8442     48.928  -179.845
31.2929     49.209   179.283
31.7480     49.475   178.434
32.2098     49.733   177.605
32.6783     49.997   176.742
33.1536     50.269   175.790
33.6359     50.548   174.727
34.1251     50.831   173.548
34.6215     51.122   172.287
35.1250     51.419   170.988
35.6359     51.727   169.689
36.1543     52.048   168.417
36.6802     52.386   167.169
37.2137     52.738   165.924
37.7550     53.093   164.671
38.3041     53.443   163.444
38.8613     53.786   162.290
39.4265     54.133   161.203
40.0000     54.484   160.071
40.5818     54.828   158.798
41.1721     55.145   157.405
41.7710     55.438   155.983
42.3785     55.713   154.559
42.9949     55.975   153.121
43.6203     56.222   151.755
44.2548     56.472   150.591
44.8985     56.762   149.498
45.5515     57.070   148.239
46.2141     57.355   146.883
46.8863     57.628   145.721
47.5683     57.946   144.621
48.2602     58.281   143.080
48.9621     58.551   141.211
49.6743     58.766   139.607
50.3968     59.020   138.320
51.1299     59.335   136.826
51.8736     59.647   135.033
52.6281     59.945   133.306
53.3936     60.264   131.718
54.1702     60.595   130.137
54.9581     60.914   128.616
55.7575     61.220   127.168
56.5685     61.503   125.705
57.3914     61.759   124.181
58.2261     61.990   122.509
59.0730     62.190   120.637
59.9323     62.376   118.690
60.8040     62.581   116.706
61.6884     62.830   114.622
62.5857     63.120   112.440
63.4960     63.437   110.227
64.4196     63.764   108.105
65.3566     64.088   106.162
66.3073     64.392   104.412
67.2717     64.675   102.862
68.2502     64.942   101.360
69.2429     65.188    99.797
70.2501     65.423    98.159
71.2719     65.663    96.323
72.3086     65.900    94.252
73.3603     66.132    91.995
74.4274     66.348    89.649
75.5099     66.562    87.358
76.6083     66.779    85.097
77.7226     66.994    82.967
78.8531     67.232    81.013
80.0000     67.495    79.044
81.1636     67.758    76.975
82.3442     68.009    74.847
83.5419     68.252    72.549
84.7570     68.470    70.079
85.9899     68.674    67.530
87.2406     68.883    64.974
88.5096     69.110    62.365
89.7970     69.344    59.690
91.1031     69.573    56.873
92.4282     69.760    53.944
93.7726     69.897    51.064
95.1366     70.002    48.457
96.5204     70.128    46.142
97.9243     70.296    43.859
99.3486     70.482    41.456
100.794     70.667    38.934
102.260     70.846    36.301
103.747     71.022    33.540
105.256     71.196    30.687
106.787     71.371    27.723
108.340     71.517    24.614
109.916     71.626    21.620
111.515     71.696    18.812
113.137     71.791    16.266
114.783     71.891    13.458
116.452     71.971    10.567
118.146     72.056     7.731
119.865     72.161     4.819
121.608     72.265     1.847
123.377     72.355    -1.129
125.171     72.430    -4.144
126.992     72.503    -7.147
128.839     72.592   -10.211
130.713     72.667   -13.476
132.615     72.674   -16.668
134.543     72.660   -19.595
136.500     72.685   -22.673
138.486     72.694   -25.683
140.500     72.685   -28.862
142.544     72.674   -31.938
144.617     72.664   -34.649
146.721     72.662   -37.020
148.855     72.740   -39.860
151.020     72.787   -43.464
153.217     72.705   -46.806
155.445     72.702   -49.514
157.706     72.698   -52.966
160.000     72.486   -56.093
162.327     72.368   -58.099
164.688     72.369   -60.282
167.084     72.483   -62.715
169.514     72.565   -66.681
171.980     72.328   -70.104
174.481     72.148   -71.978
177.019     72.124   -73.761
179.594     72.179   -75.849
182.206     72.214   -78.253
184.856     72.320   -81.038
187.545     72.422   -84.223
190.273     72.480   -87.423
193.041     72.493   -90.809
195.849     72.459   -93.978
198.697     72.491   -97.461
201.587     72.404  -101.684
204.520     72.153  -104.747
207.494     71.969  -107.440
210.512     71.797  -109.332
213.574     71.828  -111.894
216.681     71.793  -114.308
219.833     71.759  -116.555
223.030     71.822  -118.833
226.274     71.874  -122.094
229.565     71.861  -125.358
232.905     71.688  -128.035
236.292     71.701  -130.546
239.729     71.706  -133.130
243.216     71.724  -135.916
246.754     71.640  -139.121
250.343     71.642  -142.532
253.984     71.415  -145.355
257.678     71.393  -147.835
261.426     71.416  -150.570
265.229     71.327  -153.952
269.087     71.023  -156.674
273.001     70.940  -157.540
276.972     70.957  -159.761
281.000     70.910  -161.457
285.088     70.975  -163.698
289.234     71.170  -166.104
293.441     71.236  -170.100
297.709     70.919  -174.739
302.040     70.627  -176.936
306.433     70.376  -177.487
310.890     70.666  -178.371
315.412     70.691   177.005
320.000     70.375   174.330
324.655     70.261   173.069
329.377     70.220   171.661
334.168     70.332   167.995
339.028     69.998   165.327
343.959     69.907   163.015
348.962     69.631   160.351
354.038     69.609   158.867
359.188     69.614   154.823
364.412     69.371   151.701
369.713     69.222   148.339
375.090     69.070   144.829
380.546     68.968   141.555
386.081     68.898   136.089
391.697     68.319   131.835
397.394     68.106   128.199
403.175     67.840   125.082
409.039     67.644   120.882
414.989     67.330   116.810
421.025     66.967   112.903
427.149     66.617   109.371
433.362     66.277   106.315
439.665     65.909   103.276
446.060     65.546   100.764
452.548     65.183    98.632
459.131     64.802    96.999
465.809     64.471    95.747
472.584     64.190    95.147
479.458     63.901    95.218
486.432     63.660    95.019
493.507     63.482    94.986
500.686     63.316    94.943
507.968     63.177    95.046
515.357     63.047    94.660
522.853     62.927    94.208
530.458     62.809    93.448
538.174     62.707    92.537
546.002     62.570    91.485
553.943     62.407    90.109
562.001     62.211    88.682
570.175     61.947    86.961
578.469     61.655    85.171
586.883     61.290    83.440
595.419     60.844    81.720
604.080     60.312    79.844
612.866     59.711    78.313
621.780     58.966    77.180
630.824     58.114    75.730
640.000     57.161    75.719
649.309     56.070    76.029
658.753     54.845    78.118
668.335     53.436    81.690
678.056     51.963    88.261
687.919     50.565    97.600
697.925     49.615   110.690
708.077     49.287   125.336
718.376     49.702   139.417
728.825     50.542   150.724
739.426     51.492   159.468
750.181     52.458   166.218
761.093     53.375   171.587
772.163     54.225   176.186
783.394     55.094  -179.489
794.789     55.987  -175.528
806.349     56.915  -172.063
818.078     57.861  -168.901
829.977     58.815  -166.832
842.050     59.827  -165.449
854.298     60.774  -164.990
866.724     61.719  -165.170
879.330     62.582  -165.826
892.120     63.368  -167.379
905.097     64.100  -169.159
918.262     64.729  -171.325
931.618     65.276  -173.673
945.169     65.744  -176.171
958.917     66.115  -178.616
972.864     66.415   178.910
987.015     66.644   176.604
1001.37     66.811   174.452
1015.94     66.928   172.689
1030.71     66.999   171.088
1045.71     67.045   169.865
1060.92     67.076   168.862
1076.35     67.119   168.104
1092.00     67.157   167.662
1107.89     67.219   167.298
1124.00     67.272   167.036
1140.35     67.343   166.796
1156.94     67.425   166.614
1173.77     67.510   166.422
1190.84     67.596   166.329
1208.16     67.698   166.217
1225.73     67.801   166.120
1243.56     67.930   165.948
1261.65     68.076   165.734
1280.00     68.233   165.268
1298.62     68.401   164.573
1317.51     68.564   163.653
1336.67     68.696   162.313
1356.11     68.789   160.729
1375.84     68.841   158.907
1395.85     68.828   156.939
1416.15     68.750   154.933
1436.75     68.613   152.924
1457.65     68.425   151.069
1478.85     68.177   149.300
1500.36     67.892   147.647
1522.19     67.555   146.105
1544.33     67.176   144.664
1566.79     66.744   143.345
1589.58     66.241   142.226
1612.70     65.692   141.320
1636.16     65.090   140.866
1659.95     64.454   140.813
1684.10     63.799   141.121
1708.60     63.145   141.545
1733.45     62.452   141.906
1758.66     61.671   141.915
1784.24     60.702   141.753
1810.19     59.471   142.018
1836.52     57.830   143.665
1863.24     55.809   148.572
1890.34     53.672   159.580
1917.83     52.152   177.620
1945.73     51.878  -162.583
1974.03     52.402  -147.410
2002.74     53.006  -134.435
2031.87     53.607  -121.276
2061.43     54.711  -108.239
2091.41     56.404   -97.610
2121.83     58.279   -91.668
2152.69     59.946   -89.570
2184.01     61.271   -89.734
2215.77     62.260   -90.602
2248.00     62.991   -91.386
2280.70     63.594   -91.594
2313.87     64.149   -91.331
2347.53     64.736   -91.091
2381.68     65.350   -91.078
2416.32     65.957   -91.603
2451.46     66.542   -92.757
2487.12     67.069   -94.507
2523.30     67.497   -96.871
2560.00     67.814   -99.654
2597.24     67.996  -102.493
2635.01     68.076  -105.089
2673.34     68.092  -107.335
2712.23     68.104  -109.369
2751.68     68.102  -111.616
2791.70     68.045  -114.169
2832.31     67.869  -116.798
2873.50     67.581  -118.922
2915.30     67.262  -120.118
2957.70     67.019  -120.620
3000.72     66.888  -120.998
3044.37     66.823  -121.760
3088.65     66.783  -122.741
3133.58     66.785  -123.799
3179.16     66.868  -125.177
3225.40     67.002  -127.302
3272.31     67.120  -130.176
3319.91     67.194  -133.504
3368.20     67.243  -137.148
3417.19     67.252  -141.233
3466.89     67.159  -145.662
3517.32     66.932  -149.872
3568.48     66.630  -153.108
3620.39     66.357  -155.411
3673.05     66.135  -157.224
3726.47     65.945  -158.183
3780.67     65.887  -158.180
3835.67     66.063  -157.944
3891.46     66.382  -158.504
3948.06     66.728  -159.610
4005.49     67.136  -160.983
4063.75     67.600  -163.335
4122.86     67.957  -166.712
4182.82     68.136  -170.052
4243.66     68.271  -173.113
4305.39     68.338  -176.665
4368.01     68.147   179.794
4431.55     67.751   178.004
4496.01     67.424   178.286
4561.40     67.294   179.497
4627.75     67.374  -179.225
4695.06     67.600  -179.279
4763.35     67.668   179.538
4832.64     67.588   179.351
4902.93     67.686   179.682
4974.24     67.786   178.828
5046.60     67.767   178.320
5120.00     67.868   177.907
5194.47     67.902   176.467
5270.03     67.834   175.811
5346.68     67.915   175.016
5424.45     67.887   173.256
5503.35     67.807   172.304
5583.40     67.796   170.708
5664.61     67.613   169.178
5747.01     67.506   168.449
5830.60     67.356   167.190
5915.41     67.172   167.157
6001.45     67.132   166.744
6088.74     66.977   166.916
6177.30     67.108   167.628
6267.15     67.181   166.860
6358.31     67.301   167.032
6450.80     67.460   165.546
6544.62     67.426   164.755
6639.82     67.452   163.526
6736.40     67.228   163.471
6834.38     67.274   164.285
6933.79     67.257   164.996
7034.64     67.545   165.887
7136.96     67.769   165.043
7240.77     68.035   163.207
7346.09     67.901   159.972
7452.94     67.569   157.933
7561.35     66.930   157.382
7671.33     66.480   159.297
7782.91     66.100   162.518
7896.12     66.220   165.757
8010.97     66.412   167.791
8127.49     66.674   166.990
8245.71     66.581   165.775
8365.65     66.171   164.204
8487.33     65.679   164.533
8610.78     64.921   165.569
8736.03     64.370   168.807
8863.09     63.968   174.055
8992.01     64.086   177.730
9122.80     64.356   179.346
9255.50     64.375   178.797
9390.12     64.248   177.587
9526.70     63.962   177.162
9665.27     63.594   177.347
9805.86     63.358   177.746
9948.49     63.299   178.520
10093.2     63.193   177.420
10240.0     62.831   175.576
10388.9     62.234   175.245
10540.1     61.559   177.051
10693.4     61.019  -179.621
10848.9     60.819  -176.617
11006.7     60.731  -174.103
11166.8     60.525  -172.796
11329.2     60.148  -171.489
11494.0     59.712  -168.837
11661.2     59.518  -165.058
11830.8     59.579  -161.683
12002.9     59.721  -159.990
12177.5     59.681  -161.140
12354.6     59.155  -161.787
12534.3     58.497  -159.409
12716.6     58.186  -155.510
12901.6     58.139  -152.376
13089.2     58.187  -151.197
13279.6     57.969  -151.917
13472.8     57.444  -151.787
13668.8     57.036  -149.714
13867.6     56.917  -149.159
14069.3     56.554  -152.351
14273.9     55.440  -154.946
14481.5     54.196  -153.303
14692.2     53.382  -151.144
14905.9     52.381  -152.309
15122.7     50.633  -151.331
15342.7     49.112  -144.812
15565.8     48.151  -139.249
15792.2     47.177  -136.188
16021.9     45.925  -134.278
16255.0     43.921  -131.684
16491.4     41.503  -125.096
16731.3     39.448  -114.052
16974.7     37.707  -103.883
17221.6     35.917   -88.197
17472.1     34.251   -74.520
17726.2     32.506   -68.142
17984.0     26.361   -58.231
18245.6     23.152    71.472
18511.0     31.987    60.706
18780.2     35.549    66.680
19053.4     38.334    67.411
19330.5     39.250    59.002
19611.7     37.906    62.863
19897.0     38.206    77.878
20186.4     38.656    79.885
20480.0     37.701    88.650
20777.9     37.910   102.198
21080.1     38.164   111.867
21386.7     38.584   119.627
21697.8     35.180   128.429
22013.4     40.487  -177.277
22333.6     43.679   160.922
22658.4     43.834   159.043
22988.0     44.662   160.896
23322.4     45.018   157.372
23661.6     44.630   155.101
24005.8     43.872   155.993
24355.0     42.708   158.849
24709.2     41.926   166.569
25068.6     41.796   172.806
25433.2     41.513   173.301
25803.2     40.166   173.575
26178.5     38.274   177.586
26559.3     36.677  -172.162
26945.6     36.343  -164.077
27337.5     34.996  -166.872
27735.2     31.388  -177.770
28138.6     21.451   166.804
28547.9     27.298     2.905
28963.1     33.507    -4.030
29384.4     35.790    -5.812
29811.8     37.525    -4.613
30245.4     38.949    -0.520
30685.3     39.260    -1.504
31131.7     39.324     3.019
31584.5     37.564     8.965
32043.9     38.513    34.632
32510.0     41.180    41.386
32982.8     42.732    32.775
33462.6     41.470    21.758
33949.3     39.563    25.420
34443.1     38.083    30.515
34944.1     36.786    37.602
35452.4     35.600    42.138
35968.0     33.717    48.728
36491.2     32.820    55.625
37022.0     29.357    21.768
37560.5     21.845  -160.848
38106.8     23.311  -171.687
38661.1     16.247    18.364
39223.4     21.766  -159.953
39793.9     22.322  -165.785
