Freq[Hz]     dBSPL  Phase[Deg]
5.00000      0.031    21.544
5.07273     -0.102    24.958
5.14651     -0.176    28.799
5.22137     -0.083    33.831
5.29732      0.010    38.863
5.37437      0.103    43.895
5.45254      0.195    48.927
5.53185      0.428    53.381
5.61231      0.808    57.224
5.69394      1.188    61.067
5.77676      1.568    64.910
5.86079      1.946    68.723
5.94604      2.203    70.715
6.03252      2.460    72.708
6.12027      2.717    74.700
6.20929      2.974    76.693
6.29961      2.940    78.749
6.39124      2.840    80.820
6.48420      2.740    82.890
6.57851      2.641    84.961
6.67420      2.328    89.838
6.77128      1.981    95.171
6.86977      1.634   100.504
6.96969      1.359   106.250
7.07107      1.632   115.142
7.17392      1.906   124.034
7.27827      2.180   132.927
7.38413      2.776   139.638
7.49154      3.621   144.666
7.60050      4.466   149.693
7.71105      5.245   154.089
7.82321      5.738   155.716
7.93701      6.230   157.342
8.05245      6.722   158.968
8.16958      6.592   161.036
8.28841      6.439   163.121
8.40896      6.286   165.206
8.53128      5.718   173.401
8.65537      5.097  -177.615
8.78126      4.476  -168.632
8.90899      5.442  -153.185
9.03857      6.512  -137.315
9.17004      7.689  -122.557
9.30342      9.722  -116.655
9.43874     11.756  -110.752
9.57603     13.612  -106.820
9.71532     15.198  -105.901
9.85663     16.784  -104.982
10.0000     18.050  -105.096
10.1455     19.227  -105.499
10.2930     20.342  -106.015
10.4427     21.282  -106.845
10.5946     22.222  -107.675
10.7487     23.074  -108.840
10.9051     23.909  -110.070
11.0637     24.695  -111.554
11.2246     25.429  -113.305
11.3879     26.134  -115.147
11.5535     26.732  -117.320
11.7216     27.327  -119.493
11.8921     27.758  -121.684
12.0650     28.188  -123.876
12.2405     28.480  -125.527
12.4186     28.753  -127.109
12.5992     28.971  -127.686
12.7825     29.177  -128.039
12.9684     29.465  -127.373
13.1570     29.772  -126.469
13.3484     30.278  -125.411
13.5426     30.817  -124.328
13.7395     31.509  -124.399
13.9394     32.202  -124.703
14.1421     32.867  -126.430
14.3478     33.472  -128.504
14.5565     33.949  -131.324
14.7683     34.282  -134.254
14.9831     34.503  -137.268
15.2010     34.514  -139.562
15.4221     34.466  -141.392
15.6464     34.313  -141.727
15.8740     34.224  -140.889
16.1049     34.185  -139.113
16.3392     34.475  -136.598
16.5768     34.894  -134.583
16.8179     35.482  -133.336
17.0626     36.097  -133.882
17.3107     36.650  -135.214
17.5625     37.105  -137.390
17.8180     37.345  -139.898
18.0771     37.470  -142.116
18.3401     37.489  -143.900
18.6068     37.437  -144.594
18.8775     37.437  -144.419
19.1521     37.525  -143.784
19.4306     37.728  -142.956
19.7133     38.065  -142.623
20.0000     38.434  -142.990
20.2909     38.792  -143.894
20.5860     39.115  -145.189
20.8855     39.394  -146.664
21.1893     39.646  -148.120
21.4975     39.905  -149.562
21.8102     40.180  -151.104
22.1274     40.463  -152.833
22.4492     40.733  -154.759
22.7758     40.972  -156.779
23.1071     41.172  -158.682
23.4432     41.351  -160.241
23.7841     41.553  -161.330
24.1301     41.817  -162.125
24.4811     42.153  -162.925
24.8372     42.535  -163.973
25.1984     42.920  -165.332
25.5649     43.273  -166.865
25.9368     43.586  -168.338
26.3141     43.874  -169.564
26.6968     44.168  -170.508
27.0851     44.492  -171.299
27.4791     44.844  -172.127
27.8788     45.204  -173.101
28.2843     45.550  -174.176
28.6957     45.876  -175.242
29.1131     46.192  -176.226
29.5365     46.509  -177.141
29.9661     46.832  -178.056
30.4020     47.157  -179.034
30.8442     47.468   179.923
31.2929     47.764   178.885
31.7480     48.050   177.900
32.2098     48.334   176.977
32.6783     48.625   176.077
33.1536     48.924   175.145
33.6359     49.225   174.149
34.1251     49.524   173.079
34.6215     49.824   171.951
35.1250     50.120   170.787
35.6359     50.419   169.605
36.1543     50.725   168.411
36.6802     51.043   167.192
37.2137     51.374   165.914
37.7550     51.711   164.574
38.3041     52.050   163.213
38.8613     52.390   161.902
39.4265     52.742   160.658
40.0000     53.108   159.396
40.5818     53.472   158.043
41.1721     53.814   156.639
41.7710     54.128   155.274
42.3785     54.419   153.975
42.9949     54.687   152.701
43.6203     54.926   151.510
44.2548     55.155   150.494
44.8985     55.412   149.485
45.5515     55.681   148.219
46.2141     55.928   146.755
46.8863     56.168   145.385
47.5683     56.464   143.997
48.2602     56.793   142.126
48.9621     57.075   139.931
49.6743     57.317   138.048
50.3968     57.606   136.563
51.1299     57.961   134.967
51.8736     58.311   133.166
52.6281     58.640   131.501
53.3936     58.978   130.007
54.1702     59.317   128.511
54.9581     59.639   127.033
55.7575     59.945   125.571
56.5685     60.232   124.046
57.3914     60.502   122.443
58.2261     60.756   120.712
59.0730     60.986   118.846
59.9323     61.204   116.993
60.8040     61.436   115.194
61.6884     61.698   113.366
62.5857     61.983   111.461
63.4960     62.277   109.485
64.4196     62.568   107.513
65.3566     62.849   105.596
66.3073     63.115   103.756
67.2717     63.371   102.022
68.2502     63.624   100.291
69.2429     63.870    98.499
70.2501     64.118    96.670
71.2719     64.378    94.701
72.3086     64.637    92.555
73.3603     64.888    90.276
74.4274     65.123    87.951
75.5099     65.350    85.712
76.6083     65.574    83.519
77.7226     65.788    81.458
78.8531     66.018    79.545
80.0000     66.270    77.567
81.1636     66.521    75.426
82.3442     66.769    73.174
83.5419     67.018    70.738
84.7570     67.254    68.165
85.9899     67.481    65.589
87.2406     67.709    63.089
88.5096     67.943    60.579
89.7970     68.172    57.984
91.1031     68.387    55.176
92.4282     68.565    52.174
93.7726     68.701    49.176
95.1366     68.816    46.469
96.5204     68.958    44.118
97.9243     69.137    41.857
99.3486     69.325    39.488
100.794     69.505    36.963
102.260     69.681    34.270
103.747     69.859    31.421
105.256     70.042    28.496
106.787     70.226    25.497
108.340     70.379    22.372
109.916     70.489    19.343
111.515     70.562    16.461
113.137     70.666    13.825
114.783     70.781    10.950
116.452     70.876     8.036
118.146     70.973     5.204
119.865     71.085     2.289
121.608     71.196    -0.706
123.377     71.293    -3.706
125.171     71.374    -6.735
126.992     71.449    -9.764
128.839     71.539   -12.905
130.713     71.623   -16.290
132.615     71.651   -19.586
134.543     71.663   -22.535
136.500     71.708   -25.566
138.486     71.726   -28.518
140.500     71.719   -31.668
142.544     71.706   -34.770
144.617     71.697   -37.556
146.721     71.703   -40.033
148.855     71.798   -42.975
151.020     71.867   -46.623
153.217     71.803   -49.965
155.445     71.811   -52.677
157.706     71.815   -56.161
160.000     71.615   -59.349
162.327     71.512   -61.422
164.688     71.530   -63.650
167.084     71.660   -66.113
169.514     71.758   -70.138
171.980     71.545   -73.631
174.481     71.389   -75.498
177.019     71.375   -77.255
179.594     71.437   -79.445
182.206     71.508   -81.991
184.856     71.657   -84.691
187.545     71.765   -87.729
190.273     71.817   -90.997
193.041     71.850   -94.532
195.849     71.842   -97.727
198.697     71.887  -101.251
201.587     71.821  -105.633
204.520     71.612  -108.822
207.494     71.475  -111.494
210.512     71.332  -113.251
213.574     71.366  -115.784
216.681     71.343  -118.369
219.833     71.355  -120.769
223.030     71.467  -123.002
226.274     71.540  -126.225
229.565     71.556  -129.591
232.905     71.426  -132.285
236.292     71.463  -134.794
239.729     71.505  -137.558
243.216     71.591  -140.370
246.754     71.547  -143.428
250.343     71.576  -146.860
253.984     71.394  -149.743
257.678     71.417  -152.226
261.426     71.485  -154.993
265.229     71.450  -158.383
269.087     71.189  -161.087
273.001     71.155  -162.044
276.972     71.232  -164.262
281.000     71.236  -166.003
285.088     71.376  -168.278
289.234     71.629  -170.636
293.441     71.762  -174.709
297.709     71.518  -179.353
302.040     71.308   178.451
306.433     71.126   178.017
310.890     71.489   177.062
315.412     71.603   172.470
320.000     71.366   169.750
324.655     71.358   168.483
329.377     71.399   167.200
334.168     71.603   163.423
339.028     71.384   160.740
343.959     71.410   158.391
348.962     71.247   155.815
354.038     71.341   154.186
359.188     71.486   150.231
364.412     71.366   146.985
369.713     71.375   143.554
375.090     71.378   140.004
380.546     71.428   136.662
386.081     71.533   131.036
391.697     71.131   126.581
397.394     71.129   122.765
403.175     71.065   119.398
409.039     71.075   115.080
414.989     70.972   110.539
421.025     70.843   106.174
427.149     70.734   102.185
433.362     70.616    98.526
439.665     70.511    94.714
446.060     70.375    91.305
452.548     70.289    88.162
459.131     70.167    85.512
465.809     70.064    83.179
472.584     69.998    81.350
479.458     69.932    80.039
486.432     69.886    78.641
493.507     69.874    77.300
500.686     69.877    76.012
507.968     69.894    74.766
515.357     69.927    73.436
522.853     69.976    72.039
530.458     70.044    70.589
538.174     70.112    69.046
546.002     70.184    67.462
553.943     70.275    65.686
562.001     70.351    63.908
570.175     70.435    61.924
578.469     70.511    59.899
586.883     70.573    57.870
595.419     70.622    55.764
604.080     70.656    53.582
612.866     70.677    51.372
621.780     70.687    49.189
630.824     70.672    46.983
640.000     70.638    44.860
649.309     70.600    42.793
658.753     70.539    40.814
668.335     70.481    38.882
678.056     70.412    37.164
687.919     70.335    35.525
697.925     70.273    34.084
708.077     70.201    32.765
718.376     70.159    31.562
728.825     70.130    30.460
739.426     70.122    29.382
750.181     70.150    28.370
761.093     70.193    27.298
772.163     70.268    26.166
783.394     70.355    24.890
794.789     70.466    23.444
806.349     70.576    21.844
818.078     70.685    20.021
829.977     70.793    18.014
842.050     70.879    15.852
854.298     70.940    13.542
866.724     70.979    11.117
879.330     70.991     8.636
892.120     70.962     6.194
905.097     70.897     3.722
918.262     70.806     1.348
931.618     70.689    -0.827
945.169     70.548    -2.816
958.917     70.400    -4.546
972.864     70.245    -6.026
987.015     70.112    -7.324
1001.37     69.996    -8.334
1015.94     69.919    -9.277
1030.71     69.878   -10.135
1045.71     69.878   -11.076
1060.92     69.903   -12.196
1076.35     69.948   -13.502
1092.00     69.988   -15.067
1107.89     70.021   -16.821
1124.00     70.023   -18.777
1140.35     69.995   -20.744
1156.94     69.927   -22.693
1173.77     69.832   -24.456
1190.84     69.717   -25.943
1208.16     69.606   -27.122
1225.73     69.524   -27.963
1243.56     69.494   -28.594
1261.65     69.543   -29.154
1280.00     69.663   -29.875
1298.62     69.845   -31.032
1317.51     70.070   -32.687
1336.67     70.296   -34.972
1356.11     70.489   -37.818
1375.84     70.631   -41.148
1395.85     70.703   -44.843
1416.15     70.687   -48.660
1436.75     70.593   -52.491
1457.65     70.417   -56.197
1478.85     70.172   -59.680
1500.36     69.879   -62.834
1522.19     69.539   -65.632
1544.33     69.173   -68.056
1566.79     68.782   -70.062
1589.58     68.366   -71.624
1612.70     67.955   -72.553
1636.16     67.558   -72.818
1659.95     67.230   -72.343
1684.10     67.030   -71.311
1708.60     67.002   -70.141
1733.45     67.131   -69.333
1758.66     67.359   -69.518
1784.24     67.605   -70.708
1810.19     67.795   -72.745
1836.52     67.872   -75.206
1863.24     67.842   -77.584
1890.34     67.738   -79.520
1917.83     67.638   -80.784
1945.73     67.593   -81.623
1974.03     67.648   -82.478
2002.74     67.770   -83.737
2031.87     67.882   -85.574
2061.43     67.941   -87.706
2091.41     67.930   -89.705
2121.83     67.900   -91.299
2152.69     67.917   -92.410
2184.01     68.039   -93.532
2215.77     68.244   -95.150
2248.00     68.449   -97.501
2280.70     68.591  -100.383
2313.87     68.639  -103.279
2347.53     68.647  -105.843
2381.68     68.691  -108.049
2416.32     68.800  -110.340
2451.46     68.951  -113.265
2487.12     69.054  -116.891
2523.30     69.030  -120.843
2560.00     68.884  -124.532
2597.24     68.688  -127.511
2635.01     68.525  -129.926
2673.34     68.418  -132.284
2712.23     68.314  -134.947
2751.68     68.147  -137.732
2791.70     67.913  -140.107
2832.31     67.686  -141.835
2873.50     67.535  -143.253
2915.30     67.437  -144.837
2957.70     67.316  -146.686
3000.72     67.156  -148.334
3044.37     67.003  -149.473
3088.65     66.929  -150.493
3133.58     66.892  -151.868
3179.16     66.795  -153.517
3225.40     66.635  -154.779
3272.31     66.501  -155.211
3319.91     66.499  -155.429
3368.20     66.580  -156.126
3417.19     66.636  -157.269
3466.89     66.651  -158.226
3517.32     66.721  -158.788
3568.48     66.903  -159.632
3620.39     67.104  -161.381
3673.05     67.213  -163.732
3726.47     67.202  -165.763
3780.67     67.203  -167.170
3835.67     67.293  -168.561
3891.46     67.401  -170.549
3948.06     67.438  -172.906
4005.49     67.420  -175.203
4063.75     67.368  -177.623
4122.86     67.202   179.939
4182.82     66.924   178.292
4243.66     66.677   177.655
4305.39     66.476   177.175
4368.01     66.211   177.490
4431.55     66.146   179.629
4496.01     66.538  -179.138
4561.40     66.947   178.932
4627.75     67.008   175.972
4695.06     66.868   173.810
4763.35     66.629   172.265
4832.64     66.308   172.071
4902.93     66.144   173.138
4974.24     66.081   173.910
5046.60     66.024   175.429
5120.00     66.232   177.017
5194.47     66.418   177.029
5270.03     66.509   177.959
5346.68     66.841   178.837
5424.45     67.127   178.382
5503.35     67.397   178.586
5583.40     67.804   177.793
5664.61     68.078   176.372
5747.01     68.411   174.953
5830.60     68.671   172.181
5915.41     68.772   169.624
6001.45     68.828   166.449
6088.74     68.588   163.625
6177.30     68.362   162.260
6267.15     68.047   160.932
6358.31     67.771   161.446
6450.80     67.629   161.503
6544.62     67.471   162.651
6639.82     67.517   163.063
6736.40     67.455   163.672
6834.38     67.585   163.699
6933.79     67.487   163.479
7034.64     67.542   163.552
7136.96     67.394   163.340
7240.77     67.392   163.700
7346.09     67.179   164.064
7452.94     67.207   165.357
7561.35     67.107   166.646
7671.33     67.370   168.095
7782.91     67.527   168.331
7896.12     67.769   167.214
8010.97     67.699   166.236
8127.49     67.576   164.699
8245.71     67.253   165.019
8365.65     66.932   165.136
8487.33     66.710   166.432
8610.78     66.344   167.101
8736.03     66.119   168.106
8863.09     65.750   169.657
8992.01     65.502   170.795
9122.80     65.367   172.247
9255.50     65.147   172.691
9390.12     64.956   172.151
9526.70     64.570   172.047
9665.27     64.005   172.561
9805.86     63.545   174.581
9948.49     63.315   177.993
10093.2     63.284  -178.786
10240.0     63.415  -176.636
10388.9     63.630  -174.869
10540.1     63.828  -173.751
10693.4     63.976  -173.783
10848.9     64.064  -174.689
11006.7     63.990  -175.885
11166.8     63.649  -176.787
11329.2     63.102  -176.418
11494.0     62.598  -174.016
11661.2     62.376  -169.817
11830.8     62.530  -165.845
12002.9     62.959  -164.148
12177.5     63.325  -165.714
12354.6     63.198  -170.025
12534.3     62.443  -172.206
12716.6     61.687  -171.074
12901.6     61.093  -168.737
13089.2     60.657  -165.398
13279.6     60.451  -162.249
13472.8     60.375  -160.542
13668.8     60.226  -160.231
13867.6     59.852  -160.313
14069.3     59.354  -159.620
14273.9     58.905  -158.359
14481.5     58.540  -157.498
14692.2     58.104  -157.618
14905.9     57.530  -158.207
15122.7     56.788  -158.825
15342.7     55.941  -159.134
15565.8     55.091  -159.804
15792.2     54.087  -161.745
16021.9     52.664  -165.274
16255.0     50.517  -168.645
16491.4     47.702  -167.578
16731.3     44.728  -161.922
16974.7     41.539  -153.863
17221.6     37.874  -138.367
17472.1     34.689  -116.024
17726.2     32.136   -83.684
17984.0     31.675   -42.640
18245.6     33.931    -9.192
18511.0     36.799     3.386
18780.2     37.630     6.826
19053.4     36.593    16.912
19330.5     35.817    52.533
19611.7     40.844    76.878
19897.0     43.935    74.780
20186.4     45.348    76.206
20480.0     46.560    76.494
20777.9     47.443    79.165
21080.1     48.602    79.549
21386.7     48.979    72.880
21697.8     46.960    64.832
22013.4     45.789   105.436
22333.6     49.580   100.985
22658.4     50.038    97.557
22988.0     50.131    96.590
23322.4     50.119    96.463
23661.6     49.962    96.889
24005.8     49.803    96.363
24355.0     49.298    95.301
24709.2     48.528    93.619
25068.6     47.386    92.979
25433.2     46.036    92.356
25803.2     44.016    93.698
26178.5     42.202    96.952
26559.3     39.735   100.116
26945.6     36.407   105.913
27337.5     31.878   124.242
27735.2     27.807   171.287
28138.6     29.802  -142.888
28547.9     32.230  -119.825
28963.1     34.167  -100.636
29384.4     36.290   -81.986
29811.8     38.754   -69.392
30245.4     40.834   -61.942
30685.3     43.029   -56.391
31131.7     44.856   -57.730
31584.5     45.294   -64.767
32043.9     44.091   -66.527
32510.0     43.251   -55.149
32982.8     43.739   -49.290
33462.6     43.352   -47.739
33949.3     42.903   -41.978
34443.1     42.772   -40.277
34944.1     41.860   -39.887
35452.4     40.339   -37.824
35968.0     38.735   -32.618
36491.2     36.904   -31.591
37022.0     32.666   -18.638
37560.5     31.875    -0.731
38106.8     30.528     9.029
38661.1     26.703    18.882
39223.4     22.853    58.391
39793.9     23.807   136.716
