Freq[Hz]     dBSPL  Phase[Deg]
5.00000      0.727    21.778
5.07273      0.594    25.169
5.14651      0.522    28.985
5.22137      0.617    33.990
5.29732      0.713    38.995
5.37437      0.808    44.000
5.45254      0.903    49.005
5.53185      1.139    53.432
5.61231      1.524    57.247
5.69394      1.909    61.061
5.77676      2.294    64.876
5.86079      2.676    68.660
5.94604      2.940    70.627
6.03252      3.204    72.594
6.12027      3.468    74.560
6.20929      3.732    76.527
6.29961      3.706    78.563
6.39124      3.616    80.614
6.48420      3.527    82.665
6.57851      3.437    84.717
6.67420      3.135    89.584
6.77128      2.800    94.909
6.86977      2.464   100.234
6.96969      2.201   105.975
7.07107      2.490   114.876
7.17392      2.778   123.778
7.27827      3.066   132.679
7.38413      3.678   139.413
7.49154      4.540   144.472
7.60050      5.401   149.532
7.71105      6.198   153.965
7.82321      6.708   155.652
7.93701      7.218   157.338
8.05245      7.729   159.024
8.16958      7.617   161.184
8.28841      7.483   163.362
8.40896      7.348   165.541
8.53128      6.799   173.861
8.65537      6.197  -177.025
8.78126      5.594  -167.912
8.90899      6.577  -152.298
9.03857      7.663  -136.259
9.17004      8.856  -121.327
9.30342     10.903  -115.215
9.43874     12.950  -109.103
9.57603     14.818  -104.948
9.71532     16.412  -103.782
9.85663     18.007  -102.616
10.0000     19.276  -102.458
10.1455     20.455  -102.582
10.2930     21.569  -102.811
10.4427     22.503  -103.337
10.5946     23.437  -103.863
10.7487     24.275  -104.711
10.9051     25.095  -105.624
11.0637     25.860  -106.789
11.2246     26.568  -108.222
11.3879     27.245  -109.749
11.5535     27.807  -111.619
11.7216     28.366  -113.490
11.8921     28.750  -115.412
12.0650     29.133  -117.334
12.2405     29.369  -118.759
12.4186     29.587  -120.120
12.5992     29.742  -120.529
12.7825     29.884  -120.726
12.9684     30.103  -119.965
13.1570     30.340  -118.981
13.3484     30.773  -117.915
13.5426     31.239  -116.837
13.7395     31.857  -116.999
13.9394     32.477  -117.406
14.1421     33.070  -119.315
14.3478     33.606  -121.599
14.5565     34.017  -124.686
14.7683     34.287  -127.926
14.9831     34.449  -131.283
15.2010     34.411  -133.976
15.4221     34.316  -136.224
15.6464     34.125  -137.020
15.8740     34.006  -136.661
16.1049     33.943  -135.382
16.3392     34.222  -133.383
16.5768     34.635  -131.887
16.8179     35.226  -131.159
17.0626     35.856  -132.214
17.3107     36.431  -134.042
17.5625     36.916  -136.695
17.8180     37.197  -139.638
18.0771     37.370  -142.259
18.3401     37.443  -144.408
18.6068     37.453  -145.404
18.8775     37.521  -145.468
19.1521     37.680  -145.015
19.4306     37.957  -144.306
19.7133     38.369  -144.003
20.0000     38.813  -144.324
20.2909     39.242  -145.111
20.5860     39.632  -146.219
20.8855     39.973  -147.442
21.1893     40.277  -148.575
21.4975     40.578  -149.648
21.8102     40.884  -150.790
22.1274     41.184  -152.101
22.4492     41.460  -153.608
22.7758     41.693  -155.225
23.1071     41.876  -156.758
23.4432     42.030  -157.994
23.7841     42.197  -158.823
24.1301     42.422  -159.426
24.4811     42.717  -160.103
24.8372     43.059  -161.097
25.1984     43.405  -162.461
25.5649     43.726  -164.053
25.9368     44.012  -165.625
26.3141     44.282  -166.976
26.6968     44.566  -168.056
27.0851     44.886  -168.981
27.4791     45.243  -169.925
27.8788     45.612  -170.985
28.2843     45.973  -172.107
28.6957     46.316  -173.177
29.1131     46.648  -174.122
29.5365     46.979  -174.955
29.9661     47.313  -175.755
30.4020     47.642  -176.593
30.8442     47.951  -177.483
31.2929     48.238  -178.375
31.7480     48.509  -179.231
32.2098     48.774   179.944
32.6783     49.043   179.098
33.1536     49.318   178.175
33.6359     49.599   177.149
34.1251     49.883   176.012
34.6215     50.172   174.794
35.1250     50.464   173.535
35.6359     50.766   172.269
36.1543     51.081   171.018
36.6802     51.411   169.781
37.2137     51.757   168.534
37.7550     52.107   167.269
38.3041     52.453   166.026
38.8613     52.794   164.858
39.4265     53.141   163.766
40.0000     53.493   162.643
40.5818     53.839   161.401
41.1721     54.157   160.064
41.7710     54.447   158.720
42.3785     54.717   157.392
42.9949     54.967   156.054
43.6203     55.195   154.779
44.2548     55.421   153.682
44.8985     55.682   152.614
45.5515     55.958   151.327
46.2141     56.214   149.888
46.8863     56.461   148.589
47.5683     56.758   147.308
48.2602     57.082   145.562
48.9621     57.351   143.488
49.6743     57.573   141.702
50.3968     57.841   140.277
51.1299     58.171   138.699
51.8736     58.499   136.877
52.6281     58.809   135.164
53.3936     59.132   133.610
54.1702     59.461   132.057
54.9581     59.774   130.534
55.7575     60.071   129.039
56.5685     60.349   127.485
57.3914     60.608   125.848
58.2261     60.850   124.066
59.0730     61.070   122.127
59.9323     61.281   120.180
60.8040     61.510   118.279
61.6884     61.776   116.360
62.5857     62.070   114.390
63.4960     62.376   112.395
64.4196     62.677   110.448
65.3566     62.964   108.597
66.3073     63.230   106.842
67.2717     63.478   105.190
68.2502     63.717   103.516
69.2429     63.948   101.741
70.2501     64.180    99.888
71.2719     64.428    97.863
72.3086     64.680    95.649
73.3603     64.930    93.308
74.4274     65.166    90.944
75.5099     65.396    88.694
76.6083     65.621    86.517
77.7226     65.832    84.486
78.8531     66.056    82.603
80.0000     66.298    80.640
81.1636     66.538    78.493
82.3442     66.775    76.209
83.5419     67.016    73.719
84.7570     67.247    71.080
85.9899     67.471    68.435
87.2406     67.702    65.876
88.5096     67.941    63.329
89.7970     68.175    60.725
91.1031     68.394    57.931
92.4282     68.571    54.951
93.7726     68.705    51.967
95.1366     68.817    49.254
96.5204     68.959    46.886
97.9243     69.142    44.627
99.3486     69.334    42.302
100.794     69.513    39.857
102.260     69.676    37.243
103.747     69.835    34.417
105.256     69.998    31.434
106.787     70.174    28.320
108.340     70.330    25.087
109.916     70.451    22.012
111.515     70.533    19.156
113.137     70.638    16.578
114.783     70.747    13.747
116.452     70.833    10.844
118.146     70.921     7.993
119.865     71.026     5.036
121.608     71.132     1.981
123.377     71.231    -1.085
125.171     71.319    -4.156
126.992     71.403    -7.177
128.839     71.496   -10.271
130.713     71.576   -13.618
132.615     71.597   -16.917
134.543     71.605   -19.902
136.500     71.651   -22.968
138.486     71.672   -25.938
140.500     71.668   -29.095
142.544     71.660   -32.189
144.617     71.654   -34.949
146.721     71.661   -37.382
148.855     71.752   -40.282
151.020     71.813   -43.917
153.217     71.740   -47.281
155.445     71.743   -50.052
157.706     71.750   -53.615
160.000     71.562   -56.855
162.327     71.474   -58.903
164.688     71.499   -61.069
167.084     71.631   -63.483
169.514     71.732   -67.445
171.980     71.515   -70.815
174.481     71.335   -72.622
177.019     71.299   -74.518
179.594     71.373   -76.950
182.206     71.489   -79.510
184.856     71.660   -81.954
187.545     71.750   -84.808
190.273     71.781   -88.069
193.041     71.808   -91.632
195.849     71.795   -94.837
198.697     71.840   -98.414
201.587     71.783  -102.794
204.520     71.574  -105.901
207.494     71.424  -108.587
210.512     71.285  -110.440
213.574     71.337  -112.958
216.681     71.320  -115.435
219.833     71.321  -117.752
223.030     71.418  -120.039
226.274     71.502  -123.359
229.565     71.532  -126.652
232.905     71.393  -129.323
236.292     71.444  -131.921
239.729     71.512  -134.522
243.216     71.580  -137.128
246.754     71.512  -140.244
250.343     71.547  -143.770
253.984     71.377  -146.598
257.678     71.391  -149.008
261.426     71.454  -151.865
265.229     71.436  -155.268
269.087     71.179  -157.910
273.001     71.146  -158.841
276.972     71.224  -161.052
281.000     71.244  -162.790
285.088     71.388  -164.878
289.234     71.622  -167.243
293.441     71.766  -171.279
297.709     71.495  -175.817
302.040     71.270  -178.259
306.433     71.121  -178.847
310.890     71.513  -179.717
315.412     71.631   175.792
320.000     71.405   173.097
324.655     71.395   171.928
329.377     71.442   170.579
334.168     71.664   166.928
339.028     71.436   164.273
343.959     71.477   161.917
348.962     71.316   159.431
354.038     71.413   157.794
359.188     71.568   153.852
364.412     71.460   150.661
369.713     71.473   147.300
375.090     71.478   143.784
380.546     71.535   140.439
386.081     71.652   134.855
391.697     71.253   130.495
397.394     71.243   126.659
403.175     71.193   123.248
409.039     71.216   118.938
414.989     71.124   114.412
421.025     71.005   110.164
427.149     70.891   106.054
433.362     70.796   102.494
439.665     70.690    98.700
446.060     70.567    95.301
452.548     70.464    92.213
459.131     70.360    89.464
465.809     70.253    87.203
472.584     70.184    85.310
479.458     70.124    83.931
486.432     70.096    82.594
493.507     70.066    81.331
500.686     70.074    80.031
507.968     70.087    78.851
515.357     70.103    77.528
522.853     70.163    76.188
530.458     70.230    74.876
538.174     70.285    73.517
546.002     70.345    71.943
553.943     70.436    70.423
562.001     70.510    68.732
570.175     70.593    67.034
578.469     70.647    65.235
586.883     70.723    63.342
595.419     70.775    61.600
604.080     70.811    59.677
612.866     70.849    57.806
621.780     70.865    55.934
630.824     70.883    54.094
640.000     70.883    52.407
649.309     70.881    50.715
658.753     70.884    49.191
668.335     70.878    47.746
678.056     70.889    46.420
687.919     70.893    45.240
697.925     70.927    44.031
708.077     70.986    42.962
718.376     71.057    41.901
728.825     71.165    40.802
739.426     71.297    39.683
750.181     71.447    38.390
761.093     71.622    36.959
772.163     71.803    35.325
783.394     71.995    33.510
794.789     72.187    31.418
806.349     72.368    29.144
818.078     72.533    26.657
829.977     72.672    23.977
842.050     72.790    21.154
854.298     72.866    18.217
866.724     72.908    15.256
879.330     72.910    12.217
892.120     72.877     9.226
905.097     72.798     6.282
918.262     72.691     3.516
931.618     72.547     0.976
945.169     72.377    -1.376
958.917     72.199    -3.402
972.864     72.012    -5.194
987.015     71.846    -6.646
1001.37     71.686    -7.852
1015.94     71.563    -8.876
1030.71     71.478    -9.767
1045.71     71.427   -10.695
1060.92     71.413   -11.674
1076.35     71.411   -12.767
1092.00     71.425   -13.968
1107.89     71.430   -15.300
1124.00     71.430   -16.696
1140.35     71.414   -18.052
1156.94     71.398   -19.277
1173.77     71.381   -20.331
1190.84     71.383   -21.184
1208.16     71.429   -21.882
1225.73     71.533   -22.527
1243.56     71.706   -23.280
1261.65     71.941   -24.318
1280.00     72.224   -25.790
1298.62     72.522   -27.801
1317.51     72.825   -30.415
1336.67     73.095   -33.564
1356.11     73.314   -37.140
1375.84     73.468   -41.076
1395.85     73.551   -45.226
1416.15     73.563   -49.437
1436.75     73.505   -53.593
1457.65     73.388   -57.701
1478.85     73.218   -61.633
1500.36     73.006   -65.389
1522.19     72.747   -68.986
1544.33     72.448   -72.398
1566.79     72.097   -75.601
1589.58     71.693   -78.448
1612.70     71.236   -80.767
1636.16     70.745   -82.355
1659.95     70.262   -83.030
1684.10     69.852   -82.755
1708.60     69.591   -81.788
1733.45     69.516   -80.686
1758.66     69.601   -80.057
1784.24     69.775   -80.314
1810.19     69.957   -81.442
1836.52     70.083   -83.149
1863.24     70.136   -85.057
1890.34     70.138   -86.804
1917.83     70.134   -88.251
1945.73     70.169   -89.478
1974.03     70.263   -90.794
2002.74     70.385   -92.500
2031.87     70.503   -94.599
2061.43     70.566   -96.951
2091.41     70.576   -99.242
2121.83     70.565  -101.196
2152.69     70.581  -102.807
2184.01     70.669  -104.341
2215.77     70.825  -106.198
2248.00     70.995  -108.570
2280.70     71.130  -111.390
2313.87     71.209  -114.387
2347.53     71.245  -117.321
2381.68     71.281  -120.094
2416.32     71.332  -122.947
2451.46     71.384  -126.102
2487.12     71.402  -129.572
2523.30     71.341  -133.106
2560.00     71.215  -136.425
2597.24     71.071  -139.352
2635.01     70.948  -142.058
2673.34     70.840  -144.830
2712.23     70.699  -147.772
2751.68     70.494  -150.553
2791.70     70.253  -152.794
2832.31     70.060  -154.448
2873.50     69.966  -156.024
2915.30     69.914  -158.057
2957.70     69.821  -160.570
3000.72     69.642  -162.956
3044.37     69.435  -164.791
3088.65     69.288  -166.203
3133.58     69.213  -167.837
3179.16     69.126  -169.996
3225.40     68.956  -172.298
3272.31     68.709  -174.218
3319.91     68.450  -175.560
3368.20     68.215  -176.561
3417.19     67.976  -177.284
3466.89     67.745  -177.562
3517.32     67.577  -177.181
3568.48     67.522  -176.588
3620.39     67.558  -176.269
3673.05     67.615  -176.166
3726.47     67.708  -176.054
3780.67     67.865  -175.994
3835.67     68.052  -176.334
3891.46     68.237  -176.779
3948.06     68.471  -177.029
4005.49     68.833  -177.646
4063.75     69.236  -179.375
4122.86     69.545   178.105
4182.82     69.789   175.565
4243.66     70.051   172.621
4305.39     70.235   168.702
4368.01     70.207   164.463
4431.55     70.011   160.906
4496.01     69.744   158.090
4561.40     69.403   156.142
4627.75     69.109   155.549
4695.06     69.000   155.172
4763.35     68.901   154.175
4832.64     68.761   153.613
4902.93     68.737   153.106
4974.24     68.642   151.848
5046.60     68.444   151.486
5120.00     68.396   151.699
5194.47     68.336   151.176
5270.03     68.215   151.495
5346.68     68.252   152.029
5424.45     68.269   152.157
5503.35     68.357   152.920
5583.40     68.565   152.817
5664.61     68.705   152.515
5747.01     68.944   151.933
5830.60     69.076   150.292
5915.41     69.146   149.188
6001.45     69.222   147.462
6088.74     69.136   146.024
6177.30     69.086   144.930
6267.15     68.909   143.841
6358.31     68.790   143.791
6450.80     68.644   143.441
6544.62     68.546   144.259
6639.82     68.544   144.264
6736.40     68.498   144.895
6834.38     68.558   144.578
6933.79     68.431   144.713
7034.64     68.386   144.874
7136.96     68.225   146.017
7240.77     68.289   147.131
7346.09     68.278   148.538
7452.94     68.448   149.316
7561.35     68.502   150.490
7671.33     68.722   150.948
7782.91     68.862   151.698
7896.12     69.046   151.253
8010.97     69.149   151.654
8127.49     69.236   151.363
8245.71     69.391   151.555
8365.65     69.411   150.342
8487.33     69.397   148.714
8610.78     69.045   146.896
8736.03     68.531   145.230
8863.09     67.770   145.878
8992.01     67.000   148.470
9122.80     66.603   153.254
9255.50     66.549   158.143
9390.12     66.802   161.091
9526.70     67.178   162.277
9665.27     67.431   161.885
9805.86     67.525   160.456
9948.49     67.507   159.203
10093.2     67.362   158.825
10240.0     67.221   159.247
10388.9     67.176   159.863
10540.1     67.118   160.689
10693.4     67.035   161.751
10848.9     66.985   163.004
11006.7     67.005   164.255
11166.8     67.035   165.383
11329.2     67.023   166.479
11494.0     67.001   167.729
11661.2     67.039   169.050
11830.8     67.130   170.127
12002.9     67.203   170.638
12177.5     67.170   170.798
12354.6     67.032   170.803
12534.3     66.707   171.459
12716.6     66.346   173.842
12901.6     66.154   177.533
13089.2     66.231  -178.533
13279.6     66.481  -175.760
13472.8     66.730  -174.373
13668.8     66.807  -174.008
13867.6     66.626  -173.054
14069.3     66.414  -169.830
14273.9     66.574  -165.503
14481.5     67.072  -162.868
14692.2     67.537  -163.022
14905.9     67.658  -164.689
15122.7     67.408  -165.490
15342.7     67.075  -164.037
15565.8     66.969  -161.283
15792.2     67.098  -159.298
16021.9     67.220  -158.891
16255.0     67.138  -159.265
16491.4     66.835  -158.985
16731.3     66.514  -157.042
16974.7     66.413  -154.776
17221.6     66.393  -153.313
17472.1     66.307  -153.159
17726.2     65.981  -153.184
17984.0     65.486  -151.920
18245.6     65.100  -149.353
18511.0     64.892  -147.123
18780.2     64.610  -146.107
19053.4     64.103  -144.647
19330.5     63.573  -141.862
19611.7     63.193  -138.649
19897.0     62.847  -135.746
20186.4     62.476  -133.628
20480.0     61.673  -132.064
20777.9     60.813  -125.040
21080.1     60.600  -116.998
21386.7     60.508  -111.869
21697.8     60.484  -102.312
22013.4     62.219  -101.795
22333.6     61.467  -106.543
22658.4     60.883  -104.587
22988.0     60.313  -102.345
23322.4     59.829   -98.652
23661.6     59.527   -95.439
24005.8     59.176   -93.282
24355.0     58.651   -91.175
24709.2     58.114   -88.500
25068.6     57.514   -86.228
25433.2     56.798   -83.640
25803.2     56.100   -80.380
26178.5     55.402   -77.750
26559.3     54.494   -74.596
26945.6     53.593   -69.924
27337.5     52.766   -64.407
27735.2     51.926   -58.954
28138.6     50.881   -53.362
28547.9     49.611   -45.787
28963.1     48.156   -33.695
29384.4     47.428   -17.477
29811.8     47.180    -2.207
30245.4     47.500    13.647
30685.3     48.411    25.585
31131.7     49.140    32.043
31584.5     49.286    37.930
32043.9     49.523    43.928
32510.0     49.569    48.066
32982.8     49.389    52.110
33462.6     48.944    55.759
33949.3     48.293    61.149
34443.1     47.728    66.961
34944.1     47.143    73.282
35452.4     46.426    79.996
35968.0     45.853    86.505
36491.2     44.903    91.607
37022.0     42.534    99.173
37560.5     43.851   130.693
38106.8     44.890   126.908
38661.1     44.190   127.236
39223.4     43.263   131.472
39793.9     42.229   136.698
