Freq[Hz]     dBSPL  Phase[Deg]
5.00000     43.018   -93.971
5.07273     43.111   -96.242
5.14651     43.204   -98.546
5.22137     43.713  -101.470
5.29732     44.230  -104.530
5.37437     44.707  -107.604
5.45254     45.054  -110.873
5.53185     45.273  -114.427
5.61231     45.414  -117.954
5.69394     45.491  -121.147
5.77676     45.486  -123.779
5.86079     45.411  -126.102
5.94604     45.302  -128.097
6.03252     45.200  -129.673
6.12027     45.139  -130.602
6.20929     45.112  -130.901
6.29961     45.128  -130.832
6.39124     45.221  -130.743
6.48420     45.402  -130.726
6.57851     45.649  -130.734
6.67420     45.909  -130.818
6.77128     46.139  -131.069
6.86977     46.339  -131.476
6.96969     46.525  -131.819
7.07107     46.704  -131.809
7.17392     46.872  -131.336
7.27827     47.065  -130.538
7.38413     47.357  -129.620
7.49154     47.803  -128.629
7.60050     48.388  -127.838
7.71105     49.043  -127.883
7.82321     49.748  -128.854
7.93701     50.467  -130.612
8.05245     51.130  -133.087
8.16958     51.675  -136.269
8.28841     52.098  -139.917
8.40896     52.386  -143.637
8.53128     52.516  -147.234
8.65537     52.510  -150.615
8.78126     52.406  -153.411
8.90899     52.215  -155.261
9.03857     52.000  -156.404
9.17004     51.823  -156.501
9.30342     51.715  -155.676
9.43874     51.712  -154.187
9.57603     51.846  -152.281
9.71532     52.111  -150.288
9.85663     52.500  -148.550
10.0000     52.992  -147.254
10.1455     53.547  -146.708
10.2930     54.128  -146.854
10.4427     54.674  -147.521
10.5946     55.142  -148.616
10.7487     55.541  -149.799
10.9051     55.868  -150.796
11.0637     56.171  -151.572
11.2246     56.516  -152.078
11.3879     56.906  -152.512
11.5535     57.359  -153.275
11.7216     57.834  -154.293
11.8921     58.246  -155.902
12.0650     58.622  -157.671
12.2405     58.864  -159.402
12.4186     59.031  -160.881
12.5992     59.148  -161.550
12.7825     59.297  -161.576
12.9684     59.623  -161.060
13.1570     59.972  -160.517
13.3484     60.518  -160.698
13.5426     61.068  -161.678
13.7395     61.544  -163.337
13.9394     61.885  -165.230
14.1421     62.104  -166.708
14.3478     62.299  -167.813
14.5565     62.559  -168.239
14.7683     62.938  -168.526
14.9831     63.434  -169.359
15.2010     63.925  -171.087
15.4221     64.323  -173.491
15.6464     64.585  -176.202
15.8740     64.704  -178.759
16.1049     64.708   179.287
16.3392     64.660   178.253
16.5768     64.652   178.181
16.8179     64.771   178.718
17.0626     65.031   179.258
17.3107     65.363   179.400
17.5625     65.688   179.151
17.8180     65.987   178.767
18.0771     66.297   178.366
18.3401     66.630   177.891
18.6068     66.957   177.330
18.8775     67.261   176.849
19.1521     67.583   176.577
19.4306     67.987   176.315
19.7133     68.471   175.628
20.0000     68.950   174.286
20.2909     69.334   172.496
20.5860     69.634   170.790
20.8855     69.916   169.409
21.1893     70.233   168.225
21.4975     70.584   166.919
21.8102     70.938   165.452
22.1274     71.256   163.792
22.4492     71.552   162.123
22.7758     71.827   160.550
23.1071     72.098   159.109
23.4432     72.383   157.764
23.7841     72.695   156.346
24.1301     73.016   154.743
24.4811     73.295   152.926
24.8372     73.524   151.176
25.1984     73.732   149.787
25.5649     73.973   148.614
25.9368     74.253   147.455
26.3141     74.541   146.201
26.6968     74.830   144.928
27.0851     75.137   143.630
27.4791     75.459   142.186
27.8788     75.771   140.639
28.2843     76.086   139.029
28.6957     76.406   137.290
29.1131     76.718   135.391
29.5365     77.000   133.392
29.9661     77.272   131.395
30.4020     77.537   129.329
30.8442     77.774   127.269
31.2929     78.012   125.254
31.7480     78.258   123.168
32.2098     78.492   120.967
32.6783     78.704   118.698
33.1536     78.897   116.437
33.6359     79.078   114.212
34.1251     79.254   111.997
34.6215     79.424   109.742
35.1250     79.576   107.504
35.6359     79.733   105.278
36.1543     79.889   102.892
36.6802     80.000   100.403
37.2137     80.073    98.050
37.7550     80.139    95.896
38.3041     80.206    93.843
38.8613     80.281    91.842
39.4265     80.357    89.834
40.0000     80.428    87.819
40.5818     80.490    85.816
41.1721     80.541    83.847
41.7710     80.589    81.948
42.3785     80.646    80.043
42.9949     80.697    78.030
43.6203     80.717    75.975
44.2548     80.713    74.086
44.8985     80.722    72.376
45.5515     80.768    70.523
46.2141     80.788    68.210
46.8863     80.697    66.086
47.5683     80.616    64.391
48.2602     80.554    62.528
48.9621     80.409    60.823
49.6743     80.256    59.579
50.3968     80.139    58.668
51.1299     80.055    57.885
51.8736     80.008    57.109
52.6281     79.982    56.323
53.3936     79.991    55.488
54.1702     80.028    54.392
54.9581     80.047    53.004
55.7575     80.036    51.528
56.5685     79.998    50.092
57.3914     79.959    48.731
58.2261     79.923    47.312
59.0730     79.869    45.582
59.9323     79.688    43.918
60.8040     79.471    43.137
61.6884     79.354    42.903
62.5857     79.307    42.386
63.4960     79.257    41.545
64.4196     79.188    40.601
65.3566     79.108    39.684
66.3073     79.038    38.785
67.2717     78.982    37.759
68.2502     78.929    36.503
69.2429     78.841    34.952
70.2501     78.684    33.449
71.2719     78.509    32.318
72.3086     78.360    31.256
73.3603     78.199    29.880
74.4274     77.939    28.350
75.5099     77.563    27.446
76.6083     77.154    27.515
77.7226     76.792    28.568
78.8531     76.606    30.720
80.0000     76.679    32.027
81.1636     76.765    31.913
82.3442     76.772    31.452
83.5419     76.762    30.852
84.7570     76.730    30.019
85.9899     76.634    28.886
87.2406     76.439    27.910
88.5096     76.188    27.261
89.7970     75.871    27.271
91.1031     75.568    27.945
92.4282     75.297    29.053
93.7726     75.006    30.668
95.1366     74.770    34.111
96.5204     74.927    39.378
97.9243     75.669    43.982
99.3486     76.763    44.571
100.794     77.614    40.583
102.260     78.029    34.972
103.747     78.060    29.518
105.256     77.847    25.256
106.787     77.560    22.155
108.340     77.269    19.801
109.916     76.948    17.920
111.515     76.612    16.858
113.137     76.395    16.506
114.783     76.282    15.932
116.452     76.225    14.626
118.146     76.160    12.962
119.865     76.034    10.725
121.608     75.854     8.459
123.377     75.577     6.163
125.171     75.213     3.952
126.992     74.712     2.433
128.839     74.239     2.257
130.713     73.855     2.923
132.615     73.629     3.063
134.543     73.518     2.008
136.500     73.311    -0.191
138.486     72.889    -2.840
140.500     72.234    -4.458
142.544     71.518    -4.407
144.617     70.920    -3.328
146.721     70.487    -3.203
148.855     69.703    -4.283
151.020     68.464    -1.872
153.217     67.343     7.689
155.445     67.297    21.656
157.706     68.380    30.911
160.000     69.733    33.475
162.327     70.779    30.841
164.688     71.323    26.368
167.084     71.470    22.235
169.514     71.381    19.170
171.980     71.178    17.219
174.481     70.946    16.034
177.019     70.668    15.271
179.594     70.365    15.622
182.206     70.104    16.571
184.856     69.746    19.011
187.545     69.780    26.487
190.273     70.786    33.009
193.041     72.209    34.512
195.849     73.660    31.459
198.697     74.735    24.101
201.587     75.212    15.273
204.520     75.314     7.073
207.494     75.199    -0.291
210.512     74.919    -7.179
213.574     74.460   -13.652
216.681     73.740   -18.694
219.833     72.927   -22.075
223.030     72.292   -22.427
226.274     71.831   -23.249
229.565     71.316   -24.087
232.905     70.860   -21.988
236.292     70.948   -19.097
239.729     71.379   -18.270
243.216     71.959   -19.738
246.754     72.444   -24.174
250.343     72.586   -29.679
253.984     72.522   -34.520
257.678     72.455   -39.183
261.426     72.219   -44.723
265.229     71.776   -48.941
269.087     71.398   -52.151
273.001     70.901   -56.355
276.972     70.109   -59.742
281.000     69.121   -59.415
285.088     68.363   -54.096
289.234     68.665   -48.728
293.441     69.361   -46.900
297.709     70.113   -48.472
302.040     70.672   -52.397
306.433     70.900   -57.235
310.890     70.880   -61.353
315.412     70.823   -64.279
320.000     70.839   -66.915
324.655     70.815   -70.466
329.377     70.578   -73.900
334.168     70.255   -75.979
339.028     69.947   -77.390
343.959     69.613   -77.963
348.962     69.379   -77.225
354.038     69.393   -75.914
359.188     69.596   -75.443
364.412     69.749   -76.546
369.713     69.718   -78.448
375.090     69.578   -79.776
380.546     69.487   -80.276
386.081     69.440   -80.724
391.697     69.431   -81.077
397.394     69.496   -81.179
403.175     69.629   -81.300
409.039     69.796   -81.505
414.989     69.996   -81.831
421.025     70.228   -82.317
427.149     70.485   -82.966
433.362     70.766   -83.825
439.665     71.068   -84.909
446.060     71.384   -86.201
452.548     71.712   -87.729
459.131     72.049   -89.510
465.809     72.389   -91.497
472.584     72.730   -93.725
479.458     73.071   -96.165
486.432     73.408   -98.797
493.507     73.738  -101.652
500.686     74.062  -104.703
507.968     74.376  -107.927
515.357     74.679  -111.339
522.853     74.970  -114.922
530.458     75.249  -118.655
538.174     75.515  -122.542
546.002     75.765  -126.584
553.943     76.001  -130.765
562.001     76.221  -135.077
570.175     76.427  -139.499
578.469     76.613  -144.066
586.883     76.782  -148.745
595.419     76.934  -153.529
604.080     77.069  -158.411
612.866     77.185  -163.396
621.780     77.282  -168.474
630.824     77.356  -173.648
640.000     77.412  -178.899
649.309     77.445   175.768
658.753     77.456   170.367
668.335     77.444   164.906
678.056     77.411   159.394
687.919     77.354   153.840
697.925     77.273   148.256
708.077     77.168   142.653
718.376     77.037   137.047
728.825     76.883   131.454
739.426     76.703   125.893
750.181     76.498   120.388
761.093     76.269   114.967
772.163     76.017   109.665
783.394     75.746   104.502
794.789     75.460    99.506
806.349     75.163    94.723
818.078     74.861    90.190
829.977     74.562    85.920
842.050     74.276    81.934
854.298     74.017    78.244
866.724     73.796    74.818
879.330     73.621    71.582
892.120     73.516    68.461
905.097     73.465    65.321
918.262     73.487    62.020
931.618     73.569    58.430
945.169     73.702    54.440
958.917     73.874    49.955
972.864     74.071    44.916
987.015     74.278    39.315
1001.37     74.479    33.122
1015.94     74.664    26.401
1030.71     74.822    19.156
1045.71     74.941    11.422
1060.92     75.018     3.268
1076.35     75.042    -5.306
1092.00     75.009   -14.253
1107.89     74.914   -23.519
1124.00     74.745   -33.115
1140.35     74.511   -42.948
1156.94     74.177   -53.068
1173.77     73.782   -63.335
1190.84     73.245   -73.842
1208.16     72.652   -84.411
1225.73     71.896   -95.081
1243.56     71.029  -105.749
1261.65     69.978  -116.289
1280.00     68.755  -126.573
1298.62     67.188  -135.786
1317.51     65.584  -144.800
1336.67     63.583  -150.810
1356.11     61.428  -151.646
1375.84     59.534  -140.823
1395.85     58.710  -116.657
1416.15     59.369  -101.399
1436.75     60.454   -93.800
1457.65     61.671   -97.356
1478.85     62.662  -104.037
1500.36     63.353  -112.126
1522.19     63.740  -120.250
1544.33     63.935  -127.389
1566.79     64.042  -132.710
1589.58     64.197  -135.517
1612.70     64.560  -135.872
1636.16     65.250  -135.183
1659.95     66.276  -135.758
1684.10     67.535  -139.342
1708.60     68.882  -146.251
1733.45     70.198  -155.908
1758.66     71.414  -167.595
1784.24     72.494   179.260
1810.19     73.426   165.062
1836.52     74.206   150.097
1863.24     74.836   134.570
1890.34     75.317   118.620
1917.83     75.653   102.369
1945.73     75.846    85.922
1974.03     75.898    69.355
2002.74     75.800    52.754
2031.87     75.568    36.202
2061.43     75.199    19.780
2091.41     74.696     3.558
2121.83     74.063   -12.390
2152.69     73.287   -27.955
2184.01     72.427   -43.274
2215.77     71.418   -58.191
2248.00     70.325   -72.942
2280.70     69.104   -87.617
2313.87     67.757  -102.510
2347.53     66.266  -117.957
2381.68     64.588  -134.547
2416.32     62.742  -152.529
2451.46     60.687  -173.259
2487.12     58.596   163.267
2523.30     56.990   136.035
2560.00     56.442   107.191
2597.24     57.019    78.830
2635.01     58.150    52.518
2673.34     59.151    29.045
2712.23     59.804     7.502
2751.68     59.942   -11.537
2791.70     59.688   -26.912
2832.31     59.335   -31.704
2873.50     59.429   -20.405
2915.30     60.179    -4.473
2957.70     61.487    -1.480
3000.72     62.829   -12.476
3044.37     63.770   -27.207
3088.65     64.327   -40.137
3133.58     64.742   -47.350
3179.16     65.312   -45.479
3225.40     66.178   -42.325
3272.31     67.253   -45.536
3319.91     68.299   -56.253
3368.20     69.136   -70.254
3417.19     69.728   -83.820
3466.89     70.154   -94.650
3517.32     70.519  -102.843
3568.48     70.860  -111.540
3620.39     71.099  -123.931
3673.05     71.099  -140.164
3726.47     70.742  -158.310
3780.67     69.955  -175.347
3835.67     68.908   170.663
3891.46     67.769   167.176
3948.06     66.777   172.745
4005.49     66.653  -167.209
4063.75     67.258  -156.198
4122.86     68.081  -165.979
4182.82     68.484   170.951
4243.66     68.004   139.625
4305.39     66.388   101.399
4368.01     63.533    49.329
4431.55     61.576   -57.208
4496.01     62.561  -142.150
4561.40     63.649   162.701
4627.75     63.473   109.927
4695.06     63.092    23.345
4763.35     64.364  -107.880
4832.64     66.548  -167.443
4902.93     67.536   146.451
4974.24     67.433   102.083
5046.60     67.093    -2.325
5120.00     67.791  -127.729
5194.47     69.367   158.644
5270.03     70.290   111.496
5346.68     69.794    60.114
5424.45     67.550    -0.308
5503.35     63.947   -81.471
5583.40     63.386  -176.199
5664.61     64.977   108.367
5747.01     65.817    50.291
5830.60     65.559    36.046
5915.41     64.680    63.933
6001.45     63.160     7.345
6088.74     60.162   -71.984
6177.30     59.344  -165.033
6267.15     61.349   109.911
6358.31     61.650    34.232
6450.80     60.437   -53.003
6544.62     60.669  -153.875
6639.82     63.241   121.642
6736.40     65.511    73.130
6834.38     66.292    37.157
6933.79     65.525   -10.314
7034.64     63.181   -77.764
7136.96     61.021  -159.020
7240.77     61.854   124.407
7346.09     63.787    65.960
7452.94     64.031     9.225
7561.35     62.698   -80.449
7671.33     61.486   -67.845
7782.91     61.031    18.209
7896.12     60.638   -24.241
8010.97     60.019   128.869
8127.49     60.615    21.950
8245.71     61.231    -7.171
8365.65     61.193   -62.960
8487.33     61.697    42.033
8610.78     62.149   -20.713
8736.03     61.126  -116.730
8863.09     60.482    85.480
8992.01     61.126   -39.081
9122.80     60.158  -137.340
9255.50     58.660    43.437
9390.12     58.325   -80.254
9526.70     56.936  -125.937
9665.27     55.721   -12.420
9805.86     55.041    11.306
9948.49     54.625    56.600
10093.2     55.027   -78.343
10240.0     54.991   -33.338
10388.9     54.988   -46.548
10540.1     55.097   -94.919
10693.4     55.444   -76.223
10848.9     55.850  -100.577
11006.7     55.801  -101.970
11166.8     55.496  -109.935
11329.2     54.626  -143.100
11494.0     53.808   -95.011
11661.2     53.056  -123.412
11830.8     52.691    -9.014
12002.9     52.552   118.621
12177.5     52.118  -117.162
12354.6     51.410  -172.063
12534.3     50.185  -174.348
12716.6     49.149  -158.592
12901.6     48.439  -173.836
13089.2     47.822  -171.650
13279.6     47.445  -161.211
13472.8     47.391  -157.047
13668.8     47.410   162.131
13867.6     47.604  -123.478
14069.3     48.023   -21.518
14273.9     48.878   157.212
14481.5     50.471  -144.748
14692.2     51.838  -152.348
14905.9     52.021   157.604
15122.7     51.103   141.819
15342.7     49.991   162.311
15565.8     49.340   162.388
15792.2     48.711   126.239
16021.9     48.038   129.239
16255.0     47.120   116.113
16491.4     46.904   -15.948
16731.3     47.983    93.104
16974.7     49.681   175.791
17221.6     51.222   162.504
17472.1     51.936   105.834
17726.2     51.553    52.375
17984.0     51.308   134.928
18245.6     51.821    40.059
18511.0     52.354   111.236
18780.2     52.261    27.109
19053.4     51.121   -15.091
19330.5     49.089    95.626
19611.7     46.839    58.555
19897.0     44.549     9.442
20186.4     42.138   -77.504
20480.0     41.446  -104.303
20777.9     43.995   -22.758
21080.1     47.541    19.383
21386.7     49.526   103.381
21697.8     48.049   176.405
22013.4     44.887   101.339
22333.6     40.935   163.631
22658.4     41.269   126.625
22988.0     43.278    18.178
23322.4     43.086   -60.341
23661.6     42.849  -106.463
24005.8     43.757   -68.054
24355.0     43.124   101.550
24709.2     40.328   -51.394
25068.6     37.619  -113.618
25433.2     36.382  -123.531
25803.2     36.048  -143.899
26178.5     37.054  -164.348
26559.3     34.929    59.397
26945.6     30.552   -28.038
27337.5     27.473  -161.588
27735.2     28.855   168.830
28138.6     32.744   125.220
28547.9     34.389   140.866
28963.1     33.831    72.805
29384.4     33.411   -47.382
29811.8     32.258     9.155
30245.4     32.093   -42.104
30685.3     33.643    72.146
31131.7     35.424  -124.034
31584.5     35.896    97.744
32043.9     35.271    58.922
32510.0     34.196  -145.695
32982.8     32.517   129.796
33462.6     29.963  -145.730
33949.3     27.599     4.996
34443.1     28.356   -87.370
34944.1     28.322   125.248
35452.4     27.435   -59.065
35968.0     28.786    44.471
36491.2     29.081    89.849
37022.0     26.951  -156.727
37560.5     24.429   -84.762
38106.8     21.779  -135.821
38661.1     21.516  -121.374
39223.4     24.396   -40.475
39793.9     27.223   -54.883
