Freq[Hz]     dBSPL  Phase[Deg]
5.00000     43.018   -93.971
5.07273     43.111   -96.242
5.14651     43.204   -98.546
5.22137     43.713  -101.470
5.29732     44.230  -104.530
5.37437     44.707  -107.604
5.45254     45.054  -110.873
5.53185     45.273  -114.427
5.61231     45.414  -117.954
5.69394     45.491  -121.147
5.77676     45.486  -123.779
5.86079     45.411  -126.102
5.94604     45.302  -128.097
6.03252     45.200  -129.673
6.12027     45.139  -130.602
6.20929     45.112  -130.901
6.29961     45.128  -130.832
6.39124     45.221  -130.743
6.48420     45.402  -130.726
6.57851     45.649  -130.734
6.67420     45.909  -130.818
6.77128     46.139  -131.069
6.86977     46.339  -131.476
6.96969     46.525  -131.819
7.07107     46.704  -131.809
7.17392     46.872  -131.336
7.27827     47.065  -130.538
7.38413     47.357  -129.620
7.49154     47.803  -128.629
7.60050     48.388  -127.838
7.71105     49.043  -127.883
7.82321     49.748  -128.854
7.93701     50.467  -130.612
8.05245     51.130  -133.087
8.16958     51.675  -136.269
8.28841     52.098  -139.917
8.40896     52.386  -143.637
8.53128     52.516  -147.234
8.65537     52.510  -150.615
8.78126     52.406  -153.411
8.90899     52.215  -155.261
9.03857     52.000  -156.404
9.17004     51.823  -156.501
9.30342     51.715  -155.676
9.43874     51.712  -154.187
9.57603     51.846  -152.281
9.71532     52.111  -150.288
9.85663     52.500  -148.550
10.0000     52.992  -147.254
10.1455     53.547  -146.708
10.2930     54.128  -146.854
10.4427     54.674  -147.521
10.5946     55.142  -148.616
10.7487     55.541  -149.799
10.9051     55.868  -150.796
11.0637     56.171  -151.572
11.2246     56.516  -152.078
11.3879     56.906  -152.512
11.5535     57.359  -153.275
11.7216     57.834  -154.293
11.8921     58.246  -155.902
12.0650     58.622  -157.671
12.2405     58.864  -159.402
12.4186     59.031  -160.881
12.5992     59.148  -161.550
12.7825     59.297  -161.576
12.9684     59.623  -161.060
13.1570     59.972  -160.517
13.3484     60.518  -160.698
13.5426     61.068  -161.678
13.7395     61.544  -163.337
13.9394     61.885  -165.230
14.1421     62.104  -166.708
14.3478     62.299  -167.813
14.5565     62.559  -168.239
14.7683     62.938  -168.526
14.9831     63.434  -169.359
15.2010     63.925  -171.087
15.4221     64.323  -173.491
15.6464     64.585  -176.202
15.8740     64.704  -178.759
16.1049     64.708   179.287
16.3392     64.660   178.253
16.5768     64.652   178.181
16.8179     64.771   178.718
17.0626     65.031   179.258
17.3107     65.363   179.400
17.5625     65.688   179.151
17.8180     65.987   178.767
18.0771     66.297   178.366
18.3401     66.630   177.891
18.6068     66.957   177.330
18.8775     67.261   176.849
19.1521     67.583   176.577
19.4306     67.987   176.315
19.7133     68.471   175.628
20.0000     68.950   174.286
20.2909     69.334   172.496
20.5860     69.634   170.790
20.8855     69.916   169.409
21.1893     70.233   168.225
21.4975     70.584   166.919
21.8102     70.938   165.452
22.1274     71.256   163.792
22.4492     71.552   162.123
22.7758     71.827   160.550
23.1071     72.098   159.109
23.4432     72.383   157.764
23.7841     72.695   156.346
24.1301     73.016   154.743
24.4811     73.295   152.926
24.8372     73.524   151.176
25.1984     73.732   149.787
25.5649     73.973   148.614
25.9368     74.253   147.455
26.3141     74.541   146.201
26.6968     74.830   144.928
27.0851     75.137   143.630
27.4791     75.459   142.186
27.8788     75.771   140.639
28.2843     76.086   139.029
28.6957     76.406   137.290
29.1131     76.718   135.391
29.5365     77.000   133.392
29.9661     77.272   131.395
30.4020     77.537   129.329
30.8442     77.774   127.269
31.2929     78.012   125.254
31.7480     78.258   123.168
32.2098     78.492   120.967
32.6783     78.704   118.698
33.1536     78.897   116.437
33.6359     79.078   114.212
34.1251     79.254   111.997
34.6215     79.424   109.742
35.1250     79.576   107.504
35.6359     79.733   105.278
36.1543     79.889   102.892
36.6802     80.000   100.403
37.2137     80.073    98.050
37.7550     80.139    95.896
38.3041     80.206    93.843
38.8613     80.281    91.842
39.4265     80.357    89.834
40.0000     80.428    87.819
40.5818     80.491    85.814
41.1721     80.544    83.840
41.7710     80.596    81.933
42.3785     80.658    80.018
42.9949     80.715    77.991
43.6203     80.744    75.920
44.2548     80.750    74.012
44.8985     80.770    72.281
45.5515     80.829    70.406
46.2141     80.863    68.068
46.8863     80.788    65.917
47.5683     80.724    64.195
48.2602     80.681    62.302
48.9621     80.556    60.566
49.6743     80.425    59.290
50.3968     80.332    58.346
51.1299     80.272    57.529
51.8736     80.253    56.719
52.6281     80.255    55.898
53.3936     80.294    55.027
54.1702     80.362    53.896
54.9581     80.413    52.472
55.7575     80.436    50.961
56.5685     80.435    49.489
57.3914     80.433    48.093
58.2261     80.436    46.639
59.0730     80.422    44.874
59.9323     80.284    43.176
60.8040     80.110    42.362
61.6884     80.038    42.097
62.5857     80.038    41.548
63.4960     80.037    40.677
64.4196     80.018    39.706
65.3566     79.990    38.761
66.3073     79.973    37.836
67.2717     79.972    36.786
68.2502     79.974    35.508
69.2429     79.945    33.937
70.2501     79.847    32.417
71.2719     79.732    31.269
72.3086     79.646    30.194
73.3603     79.549    28.806
74.4274     79.354    27.267
75.5099     79.046    26.358
76.6083     78.705    26.424
77.7226     78.414    27.476
78.8531     78.300    29.631
80.0000     78.446    30.944
81.1636     78.607    30.839
82.3442     78.691    30.391
83.5419     78.759    29.808
84.7570     78.807    28.995
85.9899     78.792    27.886
87.2406     78.679    26.938
88.5096     78.513    26.320
89.7970     78.282    26.367
91.1031     78.067    27.082
92.4282     77.884    28.236
93.7726     77.684    29.901
95.1366     77.541    33.399
96.5204     77.792    38.726
97.9243     78.629    43.397
99.3486     79.819    44.057
100.794     80.769    40.146
102.260     81.283    34.618
103.747     81.416    29.254
105.256     81.306    25.088
106.787     81.123    22.089
108.340     80.938    19.844
109.916     80.724    18.079
111.515     80.497    17.141
113.137     80.389    16.920
114.783     80.389    16.485
116.452     80.445    15.326
118.146     80.494    13.819
119.865     80.484    11.746
121.608     80.421     9.654
123.377     80.263     7.541
125.171     80.019     5.523
126.992     79.639     4.208
128.839     79.288     4.246
130.713     79.027     5.137
132.615     78.927     5.514
134.543     78.942     4.707
136.500     78.862     2.770
138.486     78.568     0.394
140.500     78.043    -0.937
142.544     77.456    -0.585
144.617     76.990     0.810
146.721     76.689     1.265
148.855     76.039     0.532
151.020     74.933     3.306
153.217     73.947    13.246
155.445     74.036    27.611
157.706     75.254    37.281
160.000     76.744    40.280
162.327     77.926    38.101
164.688     78.607    34.103
167.084     78.892    30.467
169.514     78.940    27.921
171.980     78.875    26.512
174.481     78.779    25.893
177.019     78.638    25.721
179.594     78.472    26.688
182.206     78.346    28.280
184.856     78.124    31.391
187.545     78.292    39.565
190.273     79.432    46.816
193.041     80.987    49.076
195.849     82.569    46.813
198.697     83.773    40.275
201.587     84.378    32.301
204.520     84.607    24.987
207.494     84.616    18.545
210.512     84.457    12.611
213.574     84.118     7.128
216.681     83.514     3.111
219.833     82.817     0.789
223.030     82.292     1.535
226.274     81.938     1.843
229.565     81.527     2.171
232.905     81.172     5.473
236.292     81.357     9.601
239.729     81.880    11.698
243.216     82.547    11.533
246.754     83.117     8.432
250.343     83.337     4.292
253.984     83.347     0.844
257.678     83.349    -2.397
261.426     83.176    -6.491
265.229     82.792    -9.243
269.087     82.467   -10.965
273.001     82.017   -13.662
276.972     81.266   -15.529
281.000     80.314   -13.668
285.088     79.591    -6.790
289.234     79.922     0.153
293.441     80.642     3.550
297.709     81.409     3.538
302.040     81.976     1.163
306.433     82.205    -2.140
310.890     82.180    -4.747
315.412     82.110    -6.192
320.000     82.108    -7.378
324.655     82.059    -9.506
329.377     81.796   -11.547
334.168     81.442   -12.256
339.028     81.104   -12.303
343.959     80.740   -11.512
348.962     80.477    -9.416
354.038     80.461    -6.756
359.188     80.634    -4.950
364.412     80.755    -4.735
369.713     80.687    -5.337
375.090     80.507    -5.382
380.546     80.370    -4.616
386.081     80.268    -3.803
391.697     80.196    -2.893
397.394     80.190    -1.723
403.175     80.241    -0.543
409.039     80.315     0.593
414.989     80.412     1.662
421.025     80.532     2.643
427.149     80.669     3.533
433.362     80.824     4.307
439.665     80.992     4.956
446.060     81.171     5.491
452.548     81.359     5.896
459.131     81.553     6.163
465.809     81.752     6.318
472.584     81.953     6.345
479.458     82.154     6.261
486.432     82.355     6.077
493.507     82.553     5.779
500.686     82.749     5.385
507.968     82.942     4.906
515.357     83.131     4.338
522.853     83.315     3.691
530.458     83.495     2.975
538.174     83.671     2.189
546.002     83.842     1.333
553.943     84.009     0.414
562.001     84.171    -0.568
570.175     84.330    -1.604
578.469     84.484    -2.715
586.883     84.634    -3.889
595.419     84.780    -5.128
604.080     84.922    -6.432
612.866     85.060    -7.811
621.780     85.193    -9.267
630.824     85.320   -10.812
640.000     85.440   -12.437
649.309     85.552   -14.160
658.753     85.655   -15.976
668.335     85.747   -17.889
678.056     85.828   -19.902
687.919     85.896   -22.016
697.925     85.946   -24.232
708.077     85.980   -26.551
718.376     85.994   -28.970
728.825     85.984   -31.486
739.426     85.951   -34.096
750.181     85.888   -36.796
761.093     85.794   -39.581
772.163     85.662   -42.439
783.394     85.493   -45.354
794.789     85.284   -48.313
806.349     85.028   -51.303
818.078     84.719   -54.302
829.977     84.353   -57.284
842.050     83.925   -60.219
854.298     83.422   -63.061
866.724     82.835   -65.751
879.330     82.160   -68.234
892.120     81.362   -70.326
905.097     80.458   -71.992
918.262     79.399   -72.860
931.618     78.180   -72.589
945.169     76.793   -70.555
958.917     75.269   -65.657
972.864     73.770   -56.292
987.015     72.709   -41.415
1001.37     72.706   -23.276
1015.94     73.753    -7.437
1030.71     75.361     2.739
1045.71     77.031     7.979
1060.92     78.589    10.232
1076.35     79.973    10.413
1092.00     81.195     9.295
1107.89     82.278     7.308
1124.00     83.230     4.634
1140.35     84.086     1.520
1156.94     84.825    -2.066
1173.77     85.501    -5.886
1190.84     86.057   -10.101
1208.16     86.570   -14.436
1225.73     86.974   -19.044
1243.56     87.314   -23.778
1261.65     87.556   -28.648
1280.00     87.719   -33.574
1298.62     87.745   -38.464
1317.51     87.758   -43.338
1336.67     87.629   -47.970
1356.11     87.408   -52.288
1375.84     87.096   -56.123
1395.85     86.705   -59.289
1416.15     86.256   -61.363
1436.75     85.803   -62.739
1457.65     85.407   -62.741
1478.85     85.127   -61.834
1500.36     85.037   -60.254
1522.19     85.210   -58.777
1544.33     85.569   -58.161
1566.79     86.035   -58.742
1589.58     86.529   -60.607
1612.70     86.984   -63.649
1636.16     87.354   -67.645
1659.95     87.606   -72.338
1684.10     87.725   -77.454
1708.60     87.707   -82.741
1733.45     87.553   -87.959
1758.66     87.277   -92.885
1784.24     86.900   -97.318
1810.19     86.452  -101.117
1836.52     85.972  -104.228
1863.24     85.499  -106.718
1890.34     85.063  -108.784
1917.83     84.672  -110.691
1945.73     84.309  -112.682
1974.03     83.938  -114.880
2002.74     83.512  -117.237
2031.87     83.005  -119.528
2061.43     82.405  -121.438
2091.41     81.728  -122.646
2121.83     81.018  -122.972
2152.69     80.321  -122.367
2184.01     79.640  -121.329
2215.77     78.933  -119.547
2248.00     78.170  -116.936
2280.70     77.348  -111.705
2313.87     76.781  -102.148
2347.53     77.062   -89.041
2381.68     78.490   -78.457
2416.32     80.402   -73.300
2451.46     82.274   -75.379
2487.12     83.837   -81.141
2523.30     84.888   -89.835
2560.00     85.491   -99.754
2597.24     85.608  -110.150
2635.01     85.244  -120.214
2673.34     84.288  -128.412
2712.23     82.899  -133.381
2751.68     81.287  -130.919
2791.70     80.435  -120.567
2832.31     81.158  -110.575
2873.50     82.494  -106.867
2915.30     83.840  -109.551
2957.70     84.750  -116.055
3000.72     85.141  -123.789
3044.37     85.054  -130.647
3088.65     84.726  -135.297
3133.58     84.429  -137.766
3179.16     84.403  -138.957
3225.40     84.627  -140.809
3272.31     84.934  -144.377
3319.91     85.097  -149.503
3368.20     84.985  -155.023
3417.19     84.623  -159.471
3466.89     84.198  -161.828
3517.32     83.978  -162.430
3568.48     84.088  -163.111
3620.39     84.370  -165.567
3673.05     84.554  -169.784
3726.47     84.503  -174.449
3780.67     84.284  -178.012
3835.67     84.072   179.464
3891.46     84.040   177.502
3948.06     84.117   175.108
4005.49     84.144   171.644
4063.75     84.040   168.279
4122.86     83.881   165.980
4182.82     83.830   164.794
4243.66     83.986   164.102
4305.39     84.380   163.271
4368.01     85.054   161.368
4431.55     85.892   156.738
4496.01     86.593   149.358
4561.40     86.864   140.225
4627.75     86.727   131.578
4695.06     86.392   125.641
4763.35     86.268   121.734
4832.64     86.502   117.449
4902.93     86.780   110.964
4974.24     86.910   103.913
5046.60     87.028    97.449
5120.00     87.308    90.576
5194.47     87.664    81.648
5270.03     87.761    70.706
5346.68     87.521    59.780
5424.45     87.154    50.016
5503.35     86.940    40.383
5583.40     86.739    28.156
5664.61     85.913    13.848
5747.01     84.333     2.340
5830.60     82.445    -2.823
5915.41     81.055    -1.573
6001.45     80.788    -2.460
6088.74     80.496    -6.402
6177.30     80.574    -8.558
6267.15     81.210   -14.852
6358.31     81.385   -26.494
6450.80     80.929   -36.960
6544.62     80.571   -43.949
6639.82     80.809   -51.803
6736.40     81.055   -64.304
6834.38     80.723   -77.951
6933.79     80.173   -89.103
7034.64     79.921   -99.237
7136.96     79.835  -110.710
7240.77     79.777  -122.662
7346.09     79.888  -135.949
7452.94     79.751  -151.994
7561.35     78.921  -166.318
7671.33     78.148  -175.951
7782.91     77.964   176.214
7896.12     78.193   165.420
8010.97     78.180   153.825
8127.49     78.218   144.067
8245.71     78.692   134.971
8365.65     79.485   122.724
8487.33     79.996   107.398
8610.78     80.045    91.475
8736.03     79.733    76.598
8863.09     79.201    64.247
8992.01     78.891    55.417
9122.80     79.138    44.885
9255.50     79.092    31.225
9390.12     78.703    19.630
9526.70     78.524     8.545
9665.27     78.178    -3.802
9805.86     77.612   -14.879
9948.49     77.039   -25.218
10093.2     76.338   -34.094
10240.0     75.778   -41.537
10388.9     75.348   -48.877
10540.1     74.987   -56.244
10693.4     74.543   -63.585
10848.9     74.067   -68.363
11006.7     74.078   -70.943
11166.8     74.637   -74.947
11329.2     75.405   -82.779
11494.0     76.113   -92.397
11661.2     76.739  -104.415
11830.8     77.208  -117.443
12002.9     77.579  -131.483
12177.5     77.746  -147.296
12354.6     77.380  -163.686
12534.3     76.722  -178.911
12716.6     75.787   168.151
12901.6     74.944   159.017
13089.2     74.256   151.749
13279.6     74.063   144.293
13472.8     74.194   135.288
13668.8     74.369   124.881
13867.6     74.586   113.398
14069.3     74.767   101.285
14273.9     74.959    89.355
14481.5     75.487    76.776
14692.2     76.135    60.760
14905.9     76.576    41.855
15122.7     76.635    21.054
15342.7     76.211    -0.064
15565.8     75.348   -19.654
15792.2     74.297   -36.414
16021.9     73.400   -51.035
16255.0     72.619   -64.843
16491.4     72.008   -77.214
16731.3     71.799   -88.506
16974.7     72.059  -101.195
17221.6     72.626  -116.839
17472.1     73.136  -136.751
17726.2     73.135  -158.086
17984.0     73.172  -178.616
18245.6     73.234   157.537
18511.0     72.649   132.127
18780.2     71.656   108.201
19053.4     70.432    85.857
19330.5     69.056    66.595
19611.7     68.045    51.155
19897.0     67.899    35.654
20186.4     68.559    15.551
20480.0     69.412   -11.659
20777.9     69.738   -45.517
21080.1     69.131   -82.165
21386.7     67.825  -118.058
21697.8     66.127  -153.346
22013.4     63.777   174.539
22333.6     61.702   156.523
22658.4     62.297   134.601
22988.0     63.789    95.884
23322.4     63.598    46.083
23661.6     61.305    -1.298
24005.8     57.580   -35.585
24355.0     55.810   -48.800
24709.2     55.628   -79.105
25068.6     55.661  -105.487
25433.2     56.999  -141.838
25803.2     56.656   165.600
26178.5     53.571   119.175
26559.3     49.932   107.586
26945.6     48.894   100.426
27337.5     49.139    69.691
27735.2     49.304    37.905
28138.6     50.108     8.435
28547.9     52.200   -20.101
28963.1     54.633   -67.565
29384.4     54.232  -123.049
29811.8     53.135  -172.861
30245.4     52.201   141.369
30685.3     51.902   100.754
31131.7     52.817    55.819
31584.5     52.200     7.198
32043.9     50.768   -31.811
32510.0     50.231   -70.746
32982.8     50.042  -111.740
33462.6     49.254  -156.039
33949.3     47.036   165.518
34443.1     45.433   139.113
34944.1     44.096   102.027
35452.4     41.561    70.245
35968.0     40.570    48.425
36491.2     40.700    -2.718
37022.0     40.311  -142.026
37560.5     42.508    85.062
38106.8     45.242    22.255
38661.1     46.512   -37.266
39223.4     46.458   -81.314
39793.9     47.111  -126.765
