Freq[Hz]     dBSPL  Phase[Deg]
5.00000     43.018   -93.971
5.07273     43.111   -96.242
5.14651     43.204   -98.546
5.22137     43.713  -101.470
5.29732     44.230  -104.530
5.37437     44.707  -107.604
5.45254     45.054  -110.873
5.53185     45.273  -114.427
5.61231     45.414  -117.954
5.69394     45.491  -121.147
5.77676     45.486  -123.779
5.86079     45.411  -126.102
5.94604     45.302  -128.097
6.03252     45.200  -129.673
6.12027     45.139  -130.602
6.20929     45.112  -130.901
6.29961     45.128  -130.832
6.39124     45.221  -130.743
6.48420     45.402  -130.726
6.57851     45.649  -130.734
6.67420     45.909  -130.818
6.77128     46.139  -131.069
6.86977     46.339  -131.476
6.96969     46.525  -131.819
7.07107     46.704  -131.809
7.17392     46.872  -131.336
7.27827     47.065  -130.538
7.38413     47.357  -129.620
7.49154     47.803  -128.629
7.60050     48.388  -127.838
7.71105     49.043  -127.883
7.82321     49.748  -128.854
7.93701     50.467  -130.612
8.05245     51.130  -133.087
8.16958     51.675  -136.269
8.28841     52.098  -139.917
8.40896     52.386  -143.637
8.53128     52.516  -147.234
8.65537     52.510  -150.615
8.78126     52.406  -153.411
8.90899     52.215  -155.261
9.03857     52.000  -156.404
9.17004     51.823  -156.501
9.30342     51.715  -155.676
9.43874     51.712  -154.187
9.57603     51.846  -152.281
9.71532     52.111  -150.288
9.85663     52.500  -148.550
10.0000     52.992  -147.254
10.1455     53.547  -146.708
10.2930     54.128  -146.854
10.4427     54.674  -147.521
10.5946     55.142  -148.616
10.7487     55.541  -149.799
10.9051     55.868  -150.796
11.0637     56.171  -151.572
11.2246     56.516  -152.078
11.3879     56.906  -152.512
11.5535     57.359  -153.275
11.7216     57.834  -154.293
11.8921     58.246  -155.902
12.0650     58.622  -157.671
12.2405     58.864  -159.402
12.4186     59.031  -160.881
12.5992     59.148  -161.550
12.7825     59.297  -161.576
12.9684     59.623  -161.060
13.1570     59.972  -160.517
13.3484     60.518  -160.698
13.5426     61.068  -161.678
13.7395     61.544  -163.337
13.9394     61.885  -165.230
14.1421     62.104  -166.708
14.3478     62.299  -167.813
14.5565     62.559  -168.239
14.7683     62.938  -168.526
14.9831     63.434  -169.359
15.2010     63.925  -171.087
15.4221     64.323  -173.491
15.6464     64.585  -176.202
15.8740     64.704  -178.759
16.1049     64.708   179.287
16.3392     64.660   178.253
16.5768     64.652   178.181
16.8179     64.771   178.718
17.0626     65.031   179.258
17.3107     65.363   179.400
17.5625     65.688   179.151
17.8180     65.987   178.767
18.0771     66.297   178.366
18.3401     66.630   177.891
18.6068     66.957   177.330
18.8775     67.261   176.849
19.1521     67.583   176.577
19.4306     67.987   176.315
19.7133     68.471   175.628
20.0000     68.950   174.286
20.2909     69.334   172.496
20.5860     69.634   170.790
20.8855     69.916   169.409
21.1893     70.233   168.225
21.4975     70.584   166.919
21.8102     70.938   165.452
22.1274     71.256   163.792
22.4492     71.552   162.123
22.7758     71.827   160.550
23.1071     72.098   159.109
23.4432     72.383   157.764
23.7841     72.695   156.346
24.1301     73.016   154.743
24.4811     73.295   152.926
24.8372     73.524   151.176
25.1984     73.732   149.787
25.5649     73.973   148.614
25.9368     74.253   147.455
26.3141     74.541   146.201
26.6968     74.830   144.928
27.0851     75.137   143.630
27.4791     75.459   142.186
27.8788     75.771   140.639
28.2843     76.086   139.029
28.6957     76.406   137.290
29.1131     76.718   135.391
29.5365     77.000   133.392
29.9661     77.272   131.395
30.4020     77.537   129.329
30.8442     77.774   127.269
31.2929     78.012   125.254
31.7480     78.258   123.168
32.2098     78.492   120.967
32.6783     78.704   118.698
33.1536     78.897   116.437
33.6359     79.078   114.212
34.1251     79.254   111.997
34.6215     79.424   109.742
35.1250     79.576   107.504
35.6359     79.733   105.278
36.1543     79.889   102.892
36.6802     80.000   100.403
37.2137     80.073    98.050
37.7550     80.139    95.896
38.3041     80.206    93.843
38.8613     80.281    91.842
39.4265     80.357    89.834
40.0000     80.428    87.819
40.5818     80.490    85.817
41.1721     80.543    83.854
41.7710     80.592    81.962
42.3785     80.651    80.069
42.9949     80.704    78.071
43.6203     80.728    76.034
44.2548     80.728    74.166
44.8985     80.741    72.482
45.5515     80.793    70.658
46.2141     80.819    68.376
46.8863     80.734    66.289
47.5683     80.661    64.634
48.2602     80.607    62.815
48.9621     80.471    61.158
49.6743     80.327    59.966
50.3968     80.221    59.112
51.1299     80.148    58.390
51.8736     80.114    57.680
52.6281     80.101    56.965
53.3936     80.124    56.207
54.1702     80.176    55.193
54.9581     80.210    53.892
55.7575     80.216    52.510
56.5685     80.196    51.174
57.3914     80.174    49.919
58.2261     80.158    48.614
59.0730     80.123    47.004
59.9323     79.964    45.468
60.8040     79.769    44.823
61.6884     79.674    44.735
62.5857     79.651    44.371
63.4960     79.627    43.693
64.4196     79.583    42.923
65.3566     79.530    42.190
66.3073     79.488    41.486
67.2717     79.461    40.667
68.2502     79.437    39.631
69.2429     79.380    38.313
70.2501     79.254    37.058
71.2719     79.112    36.190
72.3086     78.997    35.407
73.3603     78.871    34.327
74.4274     78.646    33.111
75.5099     78.307    32.543
76.6083     77.935    32.967
77.7226     77.613    34.398
78.8531     77.467    36.951
80.0000     77.580    38.685
81.1636     77.708    39.026
82.3442     77.759    39.050
83.5419     77.793    38.966
84.7570     77.807    38.683
85.9899     77.757    38.136
87.2406     77.609    37.786
88.5096     77.407    37.805
89.7970     77.139    38.529
91.1031     76.888    39.969
92.4282     76.668    41.894
93.7726     76.430    44.382
95.1366     76.249    48.763
96.5204     76.461    55.031
97.9243     77.259    60.711
99.3486     78.410    62.454
100.794     79.320    59.704
102.260     79.794    55.421
103.747     79.886    51.391
105.256     79.736    48.661
106.787     79.511    47.203
108.340     79.285    46.614
109.916     79.028    46.623
111.515     78.759    47.587
113.137     78.608    49.397
114.783     78.565    51.138
116.452     78.577    52.293
118.146     78.583    53.246
119.865     78.528    53.774
121.608     78.420    54.419
123.377     78.217    55.181
125.171     77.928    56.152
126.992     77.502    57.922
128.839     77.106    61.133
130.713     76.799    65.252
132.615     76.651    68.888
134.543     76.619    71.335
136.500     76.492    72.613
138.486     76.151    73.407
140.500     75.578    75.154
142.544     74.943    78.474
144.617     74.429    82.709
146.721     74.078    85.860
148.855     73.379    87.675
151.020     72.224    92.836
153.217     71.188   105.000
155.445     71.227   121.430
157.706     72.395   133.002
160.000     73.834   137.745
162.327     74.965   137.168
164.688     75.595   134.627
167.084     75.828   132.311
169.514     75.824   130.955
171.980     75.706   130.612
174.481     75.558   130.946
177.019     75.364   131.618
179.594     75.144   133.327
182.206     74.966   135.566
184.856     74.689   139.232
187.545     74.802   147.874
190.273     75.886   155.511
193.041     77.386   158.077
195.849     78.912   156.050
198.697     80.060   149.677
201.587     80.608   141.799
204.520     80.778   134.518
207.494     80.729   128.046
210.512     80.511   122.024
213.574     80.112   116.393
216.681     79.447   112.169
219.833     78.686   109.590
223.030     78.099   110.017
226.274     77.681   109.957
229.565     77.205   109.863
232.905     76.783   112.690
236.292     76.899   116.287
239.729     77.351   117.802
243.216     77.947   117.000
246.754     78.442   113.207
250.343     78.585   108.321
253.984     78.514   104.072
257.678     78.434    99.969
261.426     78.175    94.956
265.229     77.701    91.227
269.087     77.281    88.465
273.001     76.732    84.657
276.972     75.876    81.618
281.000     74.813    82.235
285.088     73.970    87.825
289.234     74.173    93.404
293.441     74.754    95.357
297.709     75.374    93.813
302.040     75.783    89.817
306.433     75.843    84.801
310.890     75.630    80.384
315.412     75.357    77.030
320.000     75.132    73.846
324.655     74.837    69.628
329.377     74.300    65.420
334.168     73.643    62.478
339.028     72.964    60.161
343.959     72.218    58.669
348.962     71.524    58.497
354.038     71.025    58.940
359.188     70.654    58.630
364.412     70.164    56.899
369.713     69.414    54.614
375.090     68.471    53.285
380.546     67.480    53.443
386.081     66.463    54.351
391.697     65.403    56.895
397.394     64.398    60.847
403.175     63.495    67.326
409.039     62.766    76.213
414.989     62.336    87.301
421.025     62.307    99.261
427.149     62.627   110.463
433.362     63.264   119.398
439.665     64.073   125.752
446.060     64.947   130.101
452.548     65.825   132.718
459.131     66.665   134.028
465.809     67.460   134.550
472.584     68.196   134.369
479.458     68.880   133.718
486.432     69.519   132.722
493.507     70.106   131.406
500.686     70.650   129.865
507.968     71.160   128.152
515.357     71.634   126.279
522.853     72.079   124.277
530.458     72.498   122.169
538.174     72.894   119.960
546.002     73.268   117.649
553.943     73.623   115.247
562.001     73.961   112.754
570.175     74.286   110.183
578.469     74.593   107.500
586.883     74.885   104.722
595.419     75.164   101.847
604.080     75.431    98.877
612.866     75.683    95.799
621.780     75.920    92.615
630.824     76.142    89.310
640.000     76.349    85.902
649.309     76.537    82.374
658.753     76.709    78.738
668.335     76.862    74.995
678.056     76.995    71.149
687.919     77.108    67.204
697.925     77.199    63.165
708.077     77.267    59.038
718.376     77.311    54.831
728.825     77.330    50.552
739.426     77.323    46.209
750.181     77.288    41.812
761.093     77.223    37.370
772.163     77.126    32.897
783.394     77.000    28.408
794.789     76.842    23.916
806.349     76.649    19.435
818.078     76.420    14.985
829.977     76.154    10.585
842.050     75.848     6.260
854.298     75.499     2.048
866.724     75.105    -2.005
879.330     74.666    -5.859
892.120     74.172    -9.364
905.097     73.637   -12.512
918.262     73.054   -15.024
931.618     72.440   -16.697
945.169     71.819   -17.194
958.917     71.230   -16.014
972.864     70.747   -12.605
987.015     70.456    -6.729
1001.37     70.465     1.097
1015.94     70.794     9.106
1030.71     71.423    15.265
1045.71     72.266    18.409
1060.92     73.212    18.893
1076.35     74.188    16.989
1092.00     75.139    13.320
1107.89     76.037     8.349
1124.00     76.858     2.271
1140.35     77.609    -4.533
1156.94     78.257   -12.140
1173.77     78.847   -20.140
1190.84     79.313   -28.817
1208.16     79.735   -37.704
1225.73     80.040   -47.079
1243.56     80.275   -56.703
1261.65     80.406   -66.646
1280.00     80.452   -76.808
1298.62     80.354   -87.245
1317.51     80.241   -97.702
1336.67     79.974  -108.331
1356.11     79.606  -118.983
1375.84     79.124  -129.571
1395.85     78.524  -139.976
1416.15     77.783  -149.883
1436.75     76.969  -159.335
1457.65     76.037  -167.492
1478.85     75.054  -174.078
1500.36     74.068  -178.200
1522.19     73.220  -178.299
1544.33     72.634  -175.425
1566.79     72.360  -172.537
1589.58     72.355  -172.510
1612.70     72.512  -176.567
1636.16     72.699   175.595
1659.95     72.807   164.829
1684.10     72.757   151.879
1708.60     72.497   137.203
1733.45     71.986   121.040
1758.66     71.183   103.445
1784.24     70.035    84.286
1810.19     68.470    63.152
1836.52     66.378    39.192
1863.24     63.613    10.794
1890.34     60.227   -24.350
1917.83     57.742   -66.457
1945.73     58.632  -109.454
1974.03     61.251  -146.282
2002.74     63.404  -175.933
2031.87     64.911   158.540
2061.43     65.906   135.559
2091.41     66.541   114.047
2121.83     66.928    93.344
2152.69     67.135    72.887
2184.01     67.273    52.333
2215.77     67.346    31.047
2248.00     67.408     9.175
2280.70     67.466   -13.625
2313.87     67.510   -37.078
2347.53     67.512   -60.796
2381.68     67.426   -84.114
2416.32     67.249  -106.390
2451.46     66.980  -125.572
2487.12     66.750  -140.302
2523.30     66.832  -146.547
2560.00     67.372  -149.331
2597.24     68.338  -155.796
2635.01     69.483  -170.033
2673.34     70.461   168.524
2712.23     71.123   143.496
2751.68     71.246   115.182
2791.70     70.781    84.243
2832.31     69.508    49.517
2873.50     67.457     9.353
2915.30     65.058   -39.036
2957.70     63.529   -96.080
3000.72     65.095  -154.559
3044.37     67.559   158.786
3088.65     69.087   120.462
3133.58     69.742    86.483
3179.16     69.490    56.148
3225.40     68.478    29.302
3272.31     66.773     8.599
3319.91     64.803     3.903
3368.20     63.592    21.277
3417.19     63.927    37.702
3466.89     65.112    29.109
3517.32     66.031    11.582
3568.48     66.310    -7.801
3620.39     65.935   -25.977
3673.05     65.065   -39.524
3726.47     64.132   -43.683
3780.67     63.913   -40.103
3835.67     64.367   -38.287
3891.46     65.309   -48.189
3948.06     66.162   -63.436
4005.49     66.491   -81.825
4063.75     66.360  -100.663
4122.86     65.770  -119.052
4182.82     64.729  -136.758
4243.66     63.197  -153.391
4305.39     61.177  -167.035
4368.01     58.793  -172.670
4431.55     56.693  -166.816
4496.01     55.545  -161.093
4561.40     55.844  -155.767
4627.75     57.321  -151.006
4695.06     59.173  -163.570
4763.35     60.335   167.790
4832.64     60.318   128.307
4902.93     58.895    77.980
4974.24     56.735    17.925
5046.60     55.018   -43.523
5120.00     54.844   -85.318
5194.47     56.682   -99.267
5270.03     59.354  -116.373
5346.68     61.543  -145.749
5424.45     62.845  -178.628
5503.35     63.270   150.136
5583.40     62.857   117.277
5664.61     61.308    75.401
5747.01     59.363     4.630
5830.60     58.635     8.525
5915.41     60.210   136.301
6001.45     61.708    74.662
6088.74     61.308    12.291
6177.30     59.943   -76.064
6267.15     59.406   -13.175
6358.31     59.823    25.578
6450.80     59.983   -47.984
6544.62     59.750   -48.957
6639.82     59.480   -28.339
6736.40     58.861   -95.575
6834.38     57.258   179.403
6933.79     55.367    83.063
7034.64     54.742   -20.716
7136.96     54.721     8.053
7240.77     53.962   146.029
7346.09     53.473    96.802
7452.94     53.920    31.917
7561.35     53.997   -77.549
7671.33     53.531   -85.402
7782.91     53.172   -37.673
7896.12     52.994  -153.668
8010.97     50.948   101.963
8127.49     46.283    11.123
8245.71     39.430   -89.250
8365.65     35.866   -70.804
8487.33     40.209  -106.316
8610.78     44.832   -71.035
8736.03     46.463  -131.373
8863.09     45.495    68.366
8992.01     44.793   -13.807
9122.80     44.931  -149.258
9255.50     43.050    60.376
9390.12     42.854  -110.034
9526.70     43.459    62.697
9665.27     44.216  -171.959
9805.86     46.565   -38.040
9948.49     47.336    69.777
10093.2     46.200   145.602
10240.0     44.887  -131.246
10388.9     42.357   -58.002
10540.1     38.593    73.401
10693.4     37.093   164.142
10848.9     38.819   178.209
11006.7     40.602  -179.366
11166.8     42.287   163.980
11329.2     44.519   170.793
11494.0     45.189   150.501
11661.2     42.766    50.805
11830.8     40.370   -25.137
12002.9     39.598    80.340
12177.5     40.065    29.442
12354.6     39.429    83.642
12534.3     38.518    26.571
12716.6     38.693   131.578
12901.6     39.240    68.758
13089.2     39.179     2.335
13279.6     39.026  -102.936
13472.8     39.458   -87.498
13668.8     39.912   -78.926
13867.6     40.412   -80.552
14069.3     40.915   -47.728
14273.9     40.979   -12.787
14481.5     41.059   111.631
14692.2     41.391     2.619
14905.9     41.613    88.030
15122.7     41.535    80.501
15342.7     41.074    61.477
15565.8     40.116  -170.459
15792.2     38.643  -102.032
16021.9     37.498   -59.006
16255.0     37.464  -134.992
16491.4     38.265  -148.004
16731.3     38.389   142.137
16974.7     38.175    31.635
17221.6     37.470    55.369
17472.1     36.139  -132.621
17726.2     36.399   -30.423
17984.0     38.678    78.481
18245.6     39.765   175.385
18511.0     39.400  -100.612
18780.2     36.993   141.688
19053.4     34.468   113.874
19330.5     32.674     8.202
19611.7     30.817    24.026
19897.0     29.255    68.472
20186.4     30.480   -77.268
20480.0     32.853   -48.180
20777.9     34.843    58.155
21080.1     36.048    83.566
21386.7     36.205    57.938
21697.8     33.798     8.090
22013.4     30.717   -46.236
22333.6     29.226  -156.692
22658.4     29.296   -47.042
22988.0     30.675   142.104
23322.4     30.126    35.343
23661.6     27.560   -59.659
24005.8     26.295   -68.546
24355.0     28.922  -149.782
24709.2     29.391   174.986
25068.6     28.273    19.332
25433.2     27.149   -47.886
25803.2     26.453   126.516
26178.5     25.465  -134.213
26559.3     23.664   -81.457
26945.6     22.320   -71.993
27337.5     21.691   -86.039
27735.2     21.212  -157.027
28138.6     21.452   132.574
28547.9     23.094  -117.513
28963.1     25.397    62.465
29384.4     24.218   154.097
29811.8     21.766   158.667
30245.4     19.782    83.532
30685.3     19.417  -141.022
31131.7     19.738    24.319
31584.5     19.407   136.912
32043.9     18.575  -136.277
32510.0     16.855  -130.565
32982.8     16.348   161.370
33462.6     16.925    15.878
33949.3     15.935   125.405
34443.1     15.072   175.569
34944.1     15.770  -149.445
35452.4     16.660  -109.184
35968.0     16.812   150.848
36491.2     15.018   -32.520
37022.0     11.869    66.193
37560.5     12.327    83.930
38106.8     14.145    58.388
38661.1     13.004   -26.472
39223.4     11.558   -15.820
39793.9     10.589   -46.287
