Freq[Hz]     dBSPL  Phase[Deg]
5.00000    -12.728    32.584
5.07273    -12.599    36.139
5.14651    -12.480    39.982
5.22137    -12.390    44.623
5.29732    -12.299    49.268
5.37437    -12.209    53.916
5.45254    -12.118    58.568
5.53185    -11.879    62.957
5.61231    -11.481    67.067
5.69394    -11.084    71.180
5.77676    -10.687    75.298
5.86079    -10.297    79.399
5.94604    -10.355    82.296
6.03252    -10.412    85.196
6.12027    -10.470    88.101
6.20929    -10.528    91.010
6.29961    -10.342    98.548
6.39124    -10.102   107.116
6.48420     -9.862   115.689
6.57851     -9.621   124.267
6.67420     -8.956   127.218
6.77128     -8.222   129.260
6.86977     -7.487   131.307
6.96969     -6.913   133.649
7.07107     -7.560   138.206
7.17392     -8.207   142.769
7.27827     -8.853   147.337
7.38413     -8.473   156.043
7.49154     -7.298   167.948
7.60050     -6.123   179.858
7.71105     -5.064  -170.751
7.82321     -4.516  -172.440
7.93701     -3.969  -174.124
8.05245     -3.421  -175.802
8.16958     -4.403  -162.768
8.28841     -5.442  -149.179
8.40896     -6.481  -135.584
8.53128     -4.364  -127.380
8.65537     -1.839  -119.865
8.78126      0.686  -112.344
8.90899      0.582  -114.146
9.03857      0.306  -116.553
9.17004      0.157  -115.656
9.30342      1.023   -88.498
9.43874      1.889   -61.334
9.57603      3.692   -45.365
9.71532      6.928   -46.502
9.85663     10.164   -47.632
10.0000     11.736   -49.432
10.1455     12.845   -51.414
10.2930     14.054   -52.018
10.4427     15.547   -48.788
10.5946     17.040   -45.550
10.7487     18.899   -48.862
10.9051     20.831   -53.476
11.0637     22.260   -60.699
11.2246     23.157   -70.682
11.3879     23.765   -80.470
11.5535     23.320   -89.571
11.7216     22.857   -98.487
11.8921     21.310   -97.005
12.0650     19.763   -95.514
12.2405     20.142   -83.886
12.4186     20.770   -70.944
12.5992     22.253   -69.007
12.7825     23.926   -69.503
12.9684     24.896   -74.001
13.1570     25.701   -79.424
13.3484     25.989   -85.357
13.5426     26.192   -91.365
13.7395     25.802   -97.488
13.9394     25.276  -103.275
14.1421     23.893  -106.535
14.3478     22.352  -105.435
14.5565     20.467   -94.968
14.7683     20.351   -80.586
14.9831     21.602   -63.177
15.2010     23.543   -60.002
15.4221     25.421   -60.453
15.6464     26.511   -66.186
15.8740     27.112   -72.486
16.1049     27.321   -79.236
16.3392     26.829   -83.813
16.5768     26.216   -86.136
16.8179     25.467   -85.308
17.0626     25.251   -81.548
17.3107     25.261   -78.241
17.5625     25.511   -76.202
17.8180     25.627   -74.835
18.0771     25.812   -72.984
18.3401     26.098   -70.828
18.6068     26.597   -70.268
18.8775     26.898   -71.159
19.1521     26.995   -72.016
19.4306     26.896   -71.879
19.7133     26.892   -69.776
20.0000     27.008   -67.708
20.2909     27.123   -65.196
20.5860     27.295   -61.726
20.8855     27.732   -56.871
21.1893     28.664   -54.116
21.4975     29.428   -54.410
21.8102     29.805   -54.911
22.1274     30.006   -53.205
22.4492     30.464   -49.237
22.7758     31.441   -45.876
23.1071     32.553   -46.096
23.4432     33.296   -48.425
23.7841     33.678   -49.776
24.1301     34.056   -49.529
24.4811     34.535   -48.997
24.8372     34.996   -48.511
25.1984     35.449   -47.220
25.5649     36.090   -45.216
25.9368     36.963   -44.183
26.3141     37.813   -44.958
26.6968     38.451   -46.250
27.0851     39.011   -46.710
27.4791     39.674   -47.098
27.8788     40.291   -48.357
28.2843     40.753   -49.290
28.6957     41.241   -49.209
29.1131     41.862   -49.142
29.5365     42.507   -49.733
29.9661     43.099   -50.626
30.4020     43.644   -51.501
30.8442     44.162   -52.141
31.2929     44.709   -52.616
31.7480     45.290   -53.335
32.2098     45.827   -54.502
32.6783     46.255   -55.278
33.1536     46.749   -55.320
33.6359     47.348   -55.793
34.1251     47.883   -56.812
34.6215     48.379   -57.494
35.1250     48.911   -58.107
35.6359     49.457   -58.871
36.1543     49.997   -59.827
36.6802     50.512   -60.794
37.2137     51.033   -61.753
37.7550     51.539   -62.778
38.3041     52.048   -63.729
38.8613     52.559   -64.786
39.4265     53.072   -65.884
40.0000     53.571   -67.167
40.5818     54.052   -68.396
41.1721     54.526   -69.842
41.7710     54.950   -71.222
42.3785     55.384   -72.514
42.9949     55.793   -73.933
43.6203     56.137   -75.303
44.2548     56.479   -75.811
44.8985     56.937   -76.594
45.5515     57.359   -77.636
46.2141     57.766   -78.750
46.8863     58.141   -79.559
47.5683     58.567   -80.330
48.2602     59.007   -81.274
48.9621     59.415   -82.267
49.6743     59.860   -83.293
50.3968     60.253   -84.491
51.1299     60.657   -85.523
51.8736     61.054   -86.658
52.6281     61.438   -87.798
53.3936     61.822   -88.946
54.1702     62.185   -90.084
54.9581     62.555   -91.207
55.7575     62.913   -92.339
56.5685     63.267   -93.487
57.3914     63.607   -94.631
58.2261     63.945   -95.698
59.0730     64.278   -96.850
59.9323     64.593   -97.859
60.8040     64.915   -98.909
61.6884     65.236   -99.804
62.5857     65.560  -100.817
63.4960     65.891  -101.805
64.4196     66.203  -102.910
65.3566     66.506  -103.959
66.3073     66.807  -105.018
67.2717     67.090  -106.069
68.2502     67.372  -107.084
69.2429     67.648  -108.077
70.2501     67.931  -109.032
71.2719     68.204  -110.041
72.3086     68.491  -111.109
73.3603     68.752  -112.293
74.4274     68.991  -113.479
75.5099     69.214  -114.594
76.6083     69.408  -115.669
77.7226     69.596  -116.469
78.8531     69.807  -117.171
80.0000     70.036  -117.970
81.1636     70.263  -118.854
82.3442     70.480  -119.810
83.5419     70.690  -120.840
84.7570     70.873  -121.955
85.9899     71.027  -123.026
87.2406     71.169  -123.955
88.5096     71.312  -124.841
89.7970     71.452  -125.769
91.1031     71.577  -126.844
92.4282     71.656  -127.976
93.7726     71.684  -128.973
95.1366     71.676  -129.542
96.5204     71.700  -129.770
97.9243     71.741  -129.998
99.3486     71.789  -130.198
100.794     71.830  -130.434
102.260     71.869  -130.633
103.747     71.898  -130.809
105.256     71.920  -130.953
106.787     71.935  -131.114
108.340     71.925  -131.328
109.916     71.857  -131.409
111.515     71.782  -130.959
113.137     71.754  -130.423
114.783     71.720  -129.934
116.452     71.675  -129.327
118.146     71.641  -128.567
119.865     71.611  -127.793
121.608     71.575  -126.971
123.377     71.542  -126.051
125.171     71.510  -125.123
126.992     71.478  -124.137
128.839     71.441  -123.162
130.713     71.392  -122.227
132.615     71.302  -121.149
134.543     71.211  -119.863
136.500     71.147  -118.536
138.486     71.084  -116.681
140.500     70.991  -115.226
142.544     70.883  -113.788
144.617     70.802  -111.768
146.721     70.711  -109.443
148.855     70.679  -107.347
151.020     70.656  -105.680
153.217     70.538  -103.818
155.445     70.469  -101.333
157.706     70.421   -99.478
160.000     70.163   -97.692
162.327     69.961   -94.349
164.688     69.907   -90.691
167.084     69.874   -87.331
169.514     69.892   -85.185
171.980     69.696   -82.954
174.481     69.491   -79.018
177.019     69.392   -74.555
179.594     69.365   -70.476
182.206     69.329   -66.716
184.856     69.354   -62.774
187.545     69.395   -58.789
190.273     69.411   -55.194
193.041     69.372   -51.598
195.849     69.329   -47.317
198.697     69.351   -43.570
201.587     69.318   -40.365
204.520     69.114   -37.944
207.494     68.915   -33.901
210.512     68.662   -29.110
213.574     68.717   -25.190
216.681     68.784   -21.017
219.833     68.714   -15.814
223.030     68.622   -10.575
226.274     68.664    -6.202
229.565     68.619    -1.660
232.905     68.465     3.043
236.292     68.409     8.493
239.729     68.312    14.049
243.216     68.339    20.466
246.754     68.364    25.717
250.343     68.275    30.808
253.984     68.134    36.368
257.678     68.033    42.823
261.426     67.946    49.288
265.229     67.896    55.277
269.087     67.695    61.933
273.001     67.585    69.936
276.972     67.648    77.923
281.000     67.436    86.072
285.088     67.507    93.764
289.234     67.628   101.990
293.441     67.842   109.832
297.709     67.736   116.546
302.040     67.338   123.924
306.433     67.156   133.786
310.890     67.201   145.386
315.412     67.348   153.672
320.000     67.232   162.999
324.655     67.034   172.913
329.377     66.923  -177.278
334.168     67.060  -166.812
339.028     66.712  -156.930
343.959     66.651  -144.718
348.962     66.612  -132.920
354.038     66.532  -120.868
359.188     66.672  -109.098
364.412     66.557   -97.487
369.713     66.409   -85.938
375.090     66.226   -71.755
380.546     66.204   -57.637
386.081     66.338   -45.172
391.697     65.999   -31.325
397.394     66.028   -15.547
403.175     65.925    -0.980
409.039     66.006    14.568
414.989     65.933    30.834
421.025     66.019    46.894
427.149     66.069    63.199
433.362     66.152    78.679
439.665     66.240    94.914
446.060     66.220   111.431
452.548     66.143   127.527
459.131     66.085   144.312
465.809     66.018   161.817
472.584     65.907   179.278
479.458     65.764  -162.798
486.432     65.561  -144.658
493.507     65.383  -125.124
500.686     65.223  -105.572
507.968     65.044   -85.667
515.357     64.854   -65.587
522.853     64.707   -44.571
530.458     64.567   -22.800
538.174     64.481    -1.066
546.002     64.434    20.951
553.943     64.405    43.348
562.001     64.411    66.388
570.175     64.416    89.815
578.469     64.477   113.548
586.883     64.532   137.347
595.419     64.630   160.897
604.080     64.677  -175.016
612.866     64.742  -150.713
621.780     64.789  -126.080
630.824     64.831  -100.942
640.000     64.831   -75.932
649.309     64.809   -51.016
658.753     64.745   -25.560
668.335     64.655     0.855
678.056     64.523    27.489
687.919     64.349    54.662
697.925     64.115    82.559
708.077     63.860   110.551
718.376     63.574   139.445
728.825     63.266   169.224
739.426     62.927  -160.054
750.181     62.582  -128.390
761.093     62.239   -95.730
772.163     61.952   -62.682
783.394     61.679   -28.803
794.789     61.483     6.436
806.349     61.314    41.721
818.078     61.252    77.517
829.977     61.178   113.702
842.050     61.159   150.212
854.298     61.131  -173.079
866.724     61.118  -136.599
879.330     61.031   -98.870
892.120     60.932   -60.885
905.097     60.783   -22.152
918.262     60.588    17.318
931.618     60.386    57.729
945.169     60.186    98.877
958.917     60.025   141.135
972.864     59.906  -175.928
987.015     59.888  -132.201
1001.37     59.869   -87.574
1015.94     59.941   -42.883
1030.71     60.016     1.303
1045.71     60.095    46.139
1060.92     60.083    91.666
1076.35     59.966   136.903
1092.00     59.786  -177.434
1107.89     59.458  -130.133
1124.00     59.055   -81.866
1140.35     58.563   -32.055
1156.94     58.112    20.070
1173.77     57.815    73.651
1190.84     57.641   128.606
1208.16     57.712  -176.432
1225.73     57.920  -121.314
1243.56     58.154   -66.562
1261.65     58.324   -12.588
1280.00     58.330    40.796
1298.62     58.133    94.612
1317.51     57.621   149.624
1336.67     56.883  -153.077
1356.11     55.893   -93.227
1375.84     54.913   -29.293
1395.85     54.387    39.590
1416.15     54.344   109.561
1436.75     54.986   178.034
1457.65     55.802  -116.311
1478.85     56.482   -52.708
1500.36     56.880     9.692
1522.19     56.892    72.210
1544.33     56.597   136.000
1566.79     55.974  -157.567
1589.58     55.203   -87.615
1612.70     54.494   -14.630
1636.16     54.175    60.981
1659.95     54.359   137.386
1684.10     54.699  -147.710
1708.60     55.002   -74.179
1733.45     55.019    -1.658
1758.66     54.666    72.090
1784.24     53.963   148.021
1810.19     53.125  -132.479
1836.52     52.402   -48.287
1863.24     52.225    38.690
1890.34     52.554   125.074
1917.83     53.093  -150.879
1945.73     53.390   -68.404
1974.03     53.327    14.050
2002.74     52.819    98.240
2031.87     51.955  -174.707
2061.43     51.026   -83.115
2091.41     50.313    12.475
2121.83     50.086   110.294
2152.69     50.076  -153.721
2184.01     49.841   -58.287
2215.77     49.232    38.764
2248.00     48.239   139.547
2280.70     47.224  -113.762
2313.87     46.908    -2.721
2347.53     47.304   108.125
2381.68     47.699  -143.495
2416.32     47.756   -34.926
2451.46     47.639    76.845
2487.12     47.833  -168.545
2523.30     48.341   -52.890
2560.00     48.857    60.780
2597.24     49.059   174.463
2635.01     48.969   -68.346
2673.34     49.244    52.029
2712.23     50.071   172.643
2751.68     50.957   -70.695
2791.70     51.348    43.378
2832.31     50.946   157.534
2873.50     49.900   -84.839
2915.30     48.626    37.830
2957.70     47.933   165.113
3000.72     47.663   -68.731
3044.37     47.366    54.411
3088.65     46.799   178.226
3133.58     46.192   -55.851
3179.16     46.031    71.494
3225.40     45.993  -161.076
3272.31     45.656   -33.686
3319.91     45.033    98.991
3368.20     44.872  -120.599
3417.19     45.558    20.473
3466.89     46.299   158.590
3517.32     46.147   -60.129
3568.48     45.668    91.935
3620.39     46.915  -109.673
3673.05     48.892    42.105
3726.47     49.705  -170.294
3780.67     49.158   -14.571
3835.67     49.184   153.664
3891.46     50.626   -39.595
3948.06     51.148   120.713
4005.49     50.050   -70.703
4063.75     49.998   115.250
4122.86     51.918   -66.773
4182.82     52.344   102.487
4243.66     51.082   -76.494
4305.39     51.466   116.748
4368.01     52.730   -60.973
4431.55     51.718   119.745
4496.01     50.297   -38.181
4561.40     52.053   163.303
4627.75     52.487   -10.769
4695.06     50.335  -170.142
4763.35     50.956    47.476
4832.64     52.278  -114.248
4902.93     50.379    90.456
4974.24     50.460   -40.197
5046.60     52.563   168.686
5120.00     51.028    16.441
5194.47     50.123  -108.107
5270.03     51.885   114.147
5346.68     50.188   -25.097
5424.45     50.128  -135.321
5503.35     52.230    93.595
5583.40     50.517   -34.241
5664.61     50.678  -138.418
5747.01     51.507   100.323
5830.60     49.740    -5.863
5915.41     51.180  -104.480
6001.45     50.674   143.177
6088.74     49.570    53.379
6177.30     50.303   -43.911
6267.15     48.388  -133.559
6358.31     48.914   147.713
6450.80     48.079    59.478
6544.62     47.499   -10.627
6639.82     47.443   -90.244
6736.40     46.127  -155.226
6834.38     46.520   137.368
6933.79     45.546    73.712
7034.64     45.485    12.402
7136.96     44.056   -44.857
7240.77     43.831   -96.661
7346.09     42.504  -143.576
7452.94     42.621   171.786
7561.35     40.783   136.274
7671.33     42.197   107.001
7782.91     40.855    78.357
7896.12     42.706    54.618
8010.97     41.029    33.766
8127.49     42.714    22.187
8245.71     40.471    13.710
8365.65     42.265    10.271
8487.33     39.698    20.320
8610.78     41.255    24.194
8736.03     39.739    53.747
8863.09     39.895    61.903
8992.01     40.024   104.840
9122.80     37.856   131.844
9255.50     39.949   179.366
9390.12     37.926  -130.042
9526.70     37.916   -88.350
9665.27     38.042   -15.313
9805.86     36.204    42.902
9948.49     36.232   107.709
10093.2     34.863  -160.073
10240.0     33.095   -75.980
10388.9     33.097    10.860
10540.1     33.264   121.811
10693.4     32.931  -136.465
10848.9     33.153   -36.495
11006.7     33.754    78.850
11166.8     32.115  -152.929
11329.2     29.776   -25.207
11494.0     28.980   110.377
11661.2     29.337  -104.630
11830.8     26.595    59.008
12002.9     26.686  -147.500
12177.5     25.748     1.691
12354.6     26.811   171.079
12534.3     29.002     4.445
12716.6     28.718  -170.621
12901.6     29.137    24.682
13089.2     29.187  -127.201
13279.6     29.092    97.104
13472.8     30.100   -32.584
13668.8     30.661  -151.042
13867.6     32.048    90.984
14069.3     32.012   -23.163
14273.9     31.384  -128.838
14481.5     30.186   136.690
14692.2     29.708    61.115
14905.9     28.341   -18.453
15122.7     25.607   -71.631
15342.7     22.613   -89.594
15565.8     22.453   -97.766
15792.2     23.592  -145.296
16021.9     25.325  -153.272
16255.0     24.640  -170.596
16491.4     22.313   171.692
16731.3     20.421  -174.541
16974.7     17.297  -130.218
17221.6     15.701    -7.880
17472.1     15.381   -87.922
17726.2     15.969   -21.402
17984.0     14.849  -176.106
18245.6     16.116    60.954
18511.0     15.101   109.272
18780.2     13.715  -113.799
19053.4     13.223   -24.158
19330.5     16.516  -127.558
19611.7     16.220    91.539
19897.0     20.228   -48.834
20186.4     23.536   164.856
20480.0     23.507   -25.353
20777.9     24.721   162.853
21080.1     23.765    44.370
21386.7     22.606  -156.024
21697.8     21.844    80.001
22013.4     21.341   163.371
22333.6     17.292   -90.698
22658.4     18.442   -85.784
22988.0     17.376    66.298
23322.4     18.913    45.935
23661.6     19.559    99.883
24005.8     22.941   -72.625
24355.0     25.045    54.149
24709.2     25.633    22.969
25068.6     25.033     3.513
25433.2     23.386    -2.488
25803.2     19.211    54.424
26178.5     20.692  -138.057
26559.3     22.067  -167.453
26945.6     18.861  -122.856
27337.5     17.853  -105.729
27735.2     18.554  -105.571
28138.6     18.129    70.987
28547.9     16.036   178.113
28963.1     14.820    18.482
29384.4     16.595   -82.948
29811.8     16.561    77.996
30245.4     17.763   -68.930
30685.3     16.726    88.119
31131.7     17.516    60.122
31584.5     15.883   -61.037
32043.9     15.340   117.806
32510.0     15.176   -59.687
32982.8     15.185   155.014
33462.6     16.790   -56.722
33949.3     17.288  -157.500
34443.1     17.729   -23.216
34944.1     16.845  -126.816
35452.4     16.880  -137.028
35968.0     16.521  -157.092
36491.2     16.623    41.343
37022.0     17.128  -118.325
37560.5     17.003    84.222
38106.8     17.313    31.035
38661.1     16.221    28.663
39223.4     15.415   -54.508
39793.9     15.941  -131.616
