Freq[Hz]     dBSPL  Phase[Deg]
5.00000    -14.129    84.193
5.07273    -13.994    87.500
5.14651    -13.870    91.093
5.22137    -13.775    95.479
5.29732    -13.679    99.865
5.37437    -13.583   104.251
5.45254    -13.488   108.637
5.53185    -13.243   112.756
5.61231    -12.840   116.592
5.69394    -12.438   120.428
5.77676    -12.035   124.264
5.86079    -11.640   128.079
5.94604    -11.693   130.685
6.03252    -11.745   133.291
6.12027    -11.798   135.897
6.20929    -11.850   138.503
6.29961    -11.659   145.734
6.39124    -11.414   153.991
6.48420    -11.168   162.247
6.57851    -10.923   170.504
6.67420    -10.253   173.130
6.77128     -9.513   174.841
6.86977     -8.773   176.553
6.96969     -8.194   178.555
7.07107     -8.836  -177.233
7.17392     -9.477  -173.020
7.27827    -10.119  -168.808
7.38413     -9.733  -160.462
7.49154     -8.553  -148.923
7.60050     -7.372  -137.383
7.71105     -6.309  -128.368
7.82321     -5.756  -130.439
7.93701     -5.203  -132.510
8.05245     -4.650  -134.581
8.16958     -5.627  -121.946
8.28841     -6.661  -108.761
8.40896     -7.695   -95.577
8.53128     -5.572   -87.788
8.65537     -3.042   -80.696
8.78126     -0.512   -73.603
8.90899     -0.610   -75.840
9.03857     -0.882   -78.688
9.17004     -1.025   -78.238
9.30342     -0.154   -51.535
9.43874      0.717   -24.831
9.57603      2.526    -9.329
9.71532      5.767   -10.940
9.85663      9.008   -12.551
10.0000     10.585   -14.839
10.1455     11.699   -17.316
10.2930     12.914   -18.422
10.4427     14.412   -15.701
10.5946     15.909   -12.980
10.7487     17.774   -16.817
10.9051     19.711   -21.963
11.0637     21.145   -29.726
11.2246     22.048   -40.256
11.3879     22.661   -50.600
11.5535     22.221   -60.265
11.7216     21.763   -69.752
11.8921     20.221   -68.850
12.0650     18.680   -67.949
12.2405     19.064   -56.918
12.4186     19.697   -44.581
12.5992     21.185   -43.259
12.7825     22.864   -44.379
12.9684     23.838   -49.510
13.1570     24.649   -55.574
13.3484     24.942   -62.159
13.5426     25.151   -68.827
13.7395     24.765   -75.621
13.9394     24.245   -82.088
14.1421     22.867   -86.038
14.3478     21.331   -85.638
14.5565     19.451   -75.881
14.7683     19.341   -62.219
14.9831     20.597   -45.541
15.2010     22.543   -43.108
15.4221     24.426   -44.312
15.6464     25.522   -50.809
15.8740     26.127   -57.883
16.1049     26.342   -65.419
16.3392     25.855   -70.793
16.5768     25.247   -73.925
16.8179     24.504   -73.917
17.0626     24.293   -70.989
17.3107     24.308   -68.527
17.5625     24.563   -67.345
17.8180     24.684   -66.847
18.0771     24.874   -65.878
18.3401     25.165   -64.617
18.6068     25.670   -64.965
18.8775     25.976   -66.777
19.1521     26.078   -68.568
19.4306     25.985   -69.380
19.7133     25.986   -68.238
20.0000     26.106   -67.146
20.2909     26.227   -65.625
20.5860     26.404   -63.158
20.8855     26.847   -59.323
21.1893     27.783   -57.601
21.4975     28.552   -58.944
21.8102     28.935   -60.509
22.1274     29.141   -59.883
22.4492     29.605   -57.010
22.7758     30.586   -54.760
23.1071     31.704   -56.108
23.4432     32.452   -59.581
23.7841     32.839   -62.092
24.1301     33.222   -63.023
24.4811     33.706   -63.685
24.8372     34.173   -64.410
25.1984     34.631   -64.349
25.5649     35.278   -63.592
25.9368     36.155   -63.825
26.3141     37.010   -65.884
26.6968     37.654   -68.478
27.0851     38.219   -70.260
27.4791     38.887   -71.989
27.8788     39.509   -74.607
28.2843     39.976   -76.921
28.6957     40.470   -78.240
29.1131     41.096   -79.594
29.5365     41.746   -81.625
29.9661     42.344   -83.980
30.4020     42.893   -86.339
30.8442     43.417   -88.484
31.2929     43.969   -90.485
31.7480     44.556   -92.753
32.2098     45.097   -95.492
32.6783     45.530   -97.862
33.1536     46.030   -99.522
33.6359     46.634  -101.636
34.1251     47.175  -104.320
34.6215     47.676  -106.691
35.1250     48.212  -109.018
35.6359     48.763  -111.520
36.1543     49.309  -114.240
36.6802     49.829  -116.997
37.2137     50.355  -119.772
37.7550     50.866  -122.639
38.3041     51.381  -125.458
38.8613     51.897  -128.411
39.4265     52.415  -131.433
40.0000     52.919  -134.668
40.5818     53.405  -137.877
41.1721     53.885  -141.332
41.7710     54.314  -144.750
42.3785     54.753  -148.109
42.9949     55.168  -151.627
43.6203     55.517  -155.125
44.2548     55.863  -157.791
44.8985     56.327  -160.765
45.5515     56.754  -164.030
46.2141     57.166  -167.399
46.8863     57.547  -170.495
47.5683     57.978  -173.587
48.2602     58.423  -176.885
48.9621     58.836   179.733
49.6743     59.286   176.282
50.3968     59.684   172.626
51.1299     60.094   169.099
51.8736     60.496   165.434
52.6281     60.886   161.726
53.3936     61.274   157.972
54.1702     61.643   154.192
54.9581     62.018   150.387
55.7575     62.381   146.535
56.5685     62.741   142.627
57.3914     63.086   138.683
58.2261     63.429   134.775
59.0730     63.767   130.741
59.9323     64.087   126.807
60.8040     64.414   122.791
61.6884     64.740   118.886
62.5857     65.069   114.820
63.4960     65.406   110.734
64.4196     65.723   106.486
65.3566     66.031   102.248
66.3073     66.337    97.954
67.2717     66.625    93.620
68.2502     66.913    89.275
69.2429     67.194    84.905
70.2501     67.482    80.522
71.2719     67.761    76.036
72.3086     68.053    71.439
73.3603     68.318    66.676
74.4274     68.563    61.859
75.5099     68.792    57.060
76.6083     68.991    52.247
77.7226     69.183    47.655
78.8531     69.400    43.105
80.0000     69.634    38.403
81.1636     69.866    33.559
82.3442     70.088    28.585
83.5419     70.304    23.480
84.7570     70.492    18.229
85.9899     70.651    12.963
87.2406     70.798     7.777
88.5096     70.947     2.573
89.7970     71.092    -2.736
91.1031     71.221    -8.256
92.4282     71.306   -13.897
93.7726     71.339   -19.470
95.1366     71.336   -24.681
96.5204     71.365   -29.618
97.9243     71.412   -34.623
99.3486     71.465   -39.671
100.794     71.512   -44.824
102.260     71.555   -50.013
103.747     71.590   -55.250
105.256     71.617   -60.530
106.787     71.637   -65.902
108.340     71.632   -71.401
109.916     71.569   -76.846
111.515     71.500   -81.836
113.137     71.476   -86.820
114.783     71.448   -91.931
116.452     71.409   -97.006
118.146     71.380  -102.010
119.865     71.355  -107.084
121.608     71.324  -112.196
123.377     71.297  -117.295
125.171     71.269  -122.475
126.992     71.242  -127.685
128.839     71.211  -132.995
130.713     71.167  -138.438
132.615     71.082  -143.830
134.543     70.997  -149.109
136.500     70.937  -154.441
138.486     70.880  -159.344
140.500     70.792  -164.743
142.544     70.689  -170.260
144.617     70.613  -175.296
146.721     70.527   179.870
148.855     70.500   174.704
151.020     70.483   169.002
153.217     70.370   163.389
155.445     70.306   158.290
157.706     70.263   152.450
160.000     70.010   146.430
162.327     69.813   141.853
164.688     69.765   137.475
167.084     69.737   132.684
169.514     69.761   126.559
171.980     69.569   120.399
174.481     69.370   115.823
177.019     69.276   111.648
179.594     69.254   106.965
182.206     69.223   101.835
184.856     69.253    96.758
187.545     69.300    91.593
190.273     69.321    85.904
193.041     69.287    80.082
195.849     69.250    74.807
198.697     69.276    68.859
201.587     69.249    62.229
204.520     69.052    55.805
207.494     68.807    50.918
210.512     68.541    45.794
213.574     68.640    40.152
216.681     68.688    35.569
219.833     68.578    30.996
223.030     68.513    25.864
226.274     68.568    20.126
229.565     68.543    14.364
232.905     68.451     9.072
236.292     68.391     4.816
239.729     68.255    -0.320
243.216     68.285    -4.727
246.754     68.325   -10.246
250.343     68.277   -16.410
253.984     68.161   -21.880
257.678     68.067   -26.565
261.426     68.006   -31.750
265.229     67.959   -37.295
269.087     67.746   -42.335
273.001     67.641   -46.091
276.972     67.714   -49.812
281.000     67.513   -53.898
285.088     67.589   -59.000
289.234     67.712   -63.554
293.441     67.907   -68.713
297.709     67.871   -75.207
302.040     67.553   -80.172
306.433     67.337   -83.445
310.890     67.416   -85.852
315.412     67.576   -91.252
320.000     67.469   -95.889
324.655     67.309   -99.868
329.377     67.245  -103.765
334.168     67.375  -108.050
339.028     67.064  -113.277
343.959     67.035  -115.747
348.962     67.011  -118.746
354.038     66.902  -121.646
359.188     67.113  -125.680
364.412     67.028  -129.790
369.713     66.909  -134.445
375.090     66.787  -136.181
380.546     66.810  -138.578
386.081     66.982  -142.491
391.697     66.692  -145.863
397.394     66.778  -147.529
403.175     66.719  -150.058
409.039     66.850  -152.130
414.989     66.842  -154.042
421.025     66.977  -156.239
427.149     67.129  -158.178
433.362     67.267  -160.871
439.665     67.449  -163.946
446.060     67.507  -166.916
452.548     67.564  -170.215
459.131     67.588  -173.119
465.809     67.611  -176.153
472.584     67.591  -179.441
479.458     67.565   177.712
486.432     67.475   174.730
493.507     67.415   172.249
500.686     67.358   169.367
507.968     67.282   166.638
515.357     67.181   164.209
522.853     67.083   161.846
530.458     67.022   159.629
538.174     66.990   157.607
546.002     66.969   155.579
553.943     66.952   153.637
562.001     66.965   151.678
570.175     66.965   149.764
578.469     67.008   147.675
586.883     67.057   145.810
595.419     67.088   143.875
604.080     67.137   141.858
612.866     67.199   139.794
621.780     67.250   137.632
630.824     67.306   135.495
640.000     67.347   133.319
649.309     67.376   131.123
658.753     67.414   128.909
668.335     67.422   126.678
678.056     67.425   124.400
687.919     67.420   122.248
697.925     67.394   120.088
708.077     67.366   118.081
718.376     67.313   116.102
728.825     67.262   114.189
739.426     67.210   112.406
750.181     67.155   110.724
761.093     67.103   109.170
772.163     67.059   107.716
783.394     67.026   106.399
794.789     66.997   105.139
806.349     66.973   103.846
818.078     66.979   102.668
829.977     66.980   101.412
842.050     67.002   100.144
854.298     67.021    98.856
866.724     67.041    97.561
879.330     67.061    96.147
892.120     67.077    94.722
905.097     67.081    93.310
918.262     67.081    91.848
931.618     67.068    90.435
945.169     67.050    89.134
958.917     67.027    87.824
972.864     66.997    86.621
987.015     66.975    85.531
1001.37     66.950    84.507
1015.94     66.932    83.533
1030.71     66.931    82.564
1045.71     66.942    81.638
1060.92     66.965    80.634
1076.35     66.995    79.668
1092.00     67.028    78.544
1107.89     67.060    77.407
1124.00     67.083    76.138
1140.35     67.097    74.832
1156.94     67.106    73.481
1173.77     67.092    72.220
1190.84     67.064    70.932
1208.16     67.030    69.760
1225.73     66.989    68.662
1243.56     66.948    67.648
1261.65     66.917    66.766
1280.00     66.896    65.984
1298.62     66.889    65.235
1317.51     66.908    64.478
1336.67     66.934    63.637
1356.11     66.990    62.713
1375.84     67.040    61.712
1395.85     67.103    60.418
1416.15     67.155    59.129
1436.75     67.194    57.669
1457.65     67.215    56.141
1478.85     67.222    54.595
1500.36     67.205    53.060
1522.19     67.181    51.536
1544.33     67.142    50.052
1566.79     67.106    48.593
1589.58     67.074    47.118
1612.70     67.047    45.731
1636.16     67.014    44.211
1659.95     66.974    42.635
1684.10     66.928    40.982
1708.60     66.865    39.243
1733.45     66.795    37.500
1758.66     66.704    35.748
1784.24     66.609    33.995
1810.19     66.499    32.197
1836.52     66.382    30.364
1863.24     66.246    28.447
1890.34     66.089    26.470
1917.83     65.907    24.471
1945.73     65.691    22.526
1974.03     65.448    20.688
2002.74     65.188    18.931
2031.87     64.920    17.326
2061.43     64.648    15.682
2091.41     64.368    13.953
2121.83     64.063    12.188
2152.69     63.718    10.480
2184.01     63.320     8.838
2215.77     62.873     7.511
2248.00     62.418     6.479
2280.70     61.966     5.928
2313.87     61.528     5.597
2347.53     61.127     5.523
2381.68     60.754     5.573
2416.32     60.440     5.712
2451.46     60.179     5.845
2487.12     59.988     5.601
2523.30     59.832     4.821
2560.00     59.664     3.346
2597.24     59.465     1.404
2635.01     59.198    -0.920
2673.34     58.879    -3.555
2712.23     58.535    -6.541
2751.68     58.118    -9.956
2791.70     57.616   -13.763
2832.31     57.028   -17.789
2873.50     56.369   -21.801
2915.30     55.665   -26.018
2957.70     54.960   -30.485
3000.72     54.240   -35.370
3044.37     53.560   -40.576
3088.65     53.047   -46.555
3133.58     52.756   -54.287
3179.16     52.630   -64.516
3225.40     52.542   -77.177
3272.31     52.428   -90.336
3319.91     52.408  -102.809
3368.20     52.658  -113.470
3417.19     53.184  -123.332
3466.89     53.809  -132.836
3517.32     54.356  -141.329
3568.48     54.848  -147.865
3620.39     55.434  -152.636
3673.05     56.091  -156.835
3726.47     56.742  -160.628
3780.67     57.375  -163.517
3835.67     58.117  -166.169
3891.46     58.879  -169.468
3948.06     59.504  -173.180
4005.49     60.027  -176.174
4063.75     60.586  -178.889
4122.86     61.116   177.939
4182.82     61.535   174.842
4243.66     61.962   172.246
4305.39     62.448   169.162
4368.01     62.807   165.140
4431.55     62.972   161.276
4496.01     63.064   157.893
4561.40     63.034   154.514
4627.75     62.814   152.102
4695.06     62.629   151.231
4763.35     62.526   150.569
4832.64     62.337   150.347
4902.93     62.265   151.476
4974.24     62.341   152.029
5046.60     62.314   152.723
5120.00     62.439   154.356
5194.47     62.691   154.870
5270.03     62.811   155.396
5346.68     63.070   156.277
5424.45     63.300   156.025
5503.35     63.425   156.753
5583.40     63.762   157.309
5664.61     63.986   156.968
5747.01     64.255   157.648
5830.60     64.672   157.334
5915.41     65.062   156.447
6001.45     65.506   153.919
6088.74     65.556   150.306
6177.30     65.463   148.351
6267.15     65.307   146.169
6358.31     65.017   145.742
6450.80     64.921   145.525
6544.62     64.720   145.723
6639.82     64.752   146.233
6736.40     64.668   145.787
6834.38     64.691   145.731
6933.79     64.540   144.322
7034.64     64.303   143.916
7136.96     63.840   143.320
7240.77     63.377   145.618
7346.09     62.986   148.128
7452.94     62.856   152.538
7561.35     62.806   155.926
7671.33     63.035   160.378
7782.91     63.317   163.329
7896.12     63.830   165.909
8010.97     64.246   167.268
8127.49     64.726   167.468
8245.71     64.970   167.449
8365.65     65.187   167.303
8487.33     65.526   166.767
8610.78     65.475   164.183
8736.03     65.382   163.285
8863.09     65.094   162.153
8992.01     64.794   161.746
9122.80     64.541   162.807
9255.50     64.439   163.255
9390.12     64.467   162.631
9526.70     64.296   161.342
9665.27     63.996   160.322
9805.86     63.721   159.998
9948.49     63.438   160.828
10093.2     63.294   162.272
10240.0     63.394   163.444
10388.9     63.530   164.071
10540.1     63.595   163.841
10693.4     63.559   163.232
10848.9     63.477   163.148
11006.7     63.368   163.641
11166.8     63.301   164.031
11329.2     63.181   163.867
11494.0     62.962   164.418
11661.2     62.758   166.581
11830.8     62.845   169.167
12002.9     63.121   170.040
12177.5     63.320   168.984
12354.6     63.268   167.151
12534.3     62.966   165.683
12716.6     62.514   165.630
12901.6     62.062   167.044
13089.2     61.780   169.514
13279.6     61.685   170.626
13472.8     61.364   171.213
13668.8     60.913   172.904
13867.6     60.507   175.710
14069.3     60.134   179.325
14273.9     59.954  -175.896
14481.5     60.121  -171.536
14692.2     60.376  -169.588
14905.9     60.421  -169.353
15122.7     60.146  -168.896
15342.7     59.722  -167.161
15565.8     59.303  -163.735
15792.2     59.092  -159.677
16021.9     58.915  -156.356
16255.0     58.622  -152.419
16491.4     58.443  -146.890
16731.3     58.685  -140.846
16974.7     59.183  -138.409
17221.6     59.196  -137.922
17472.1     59.014  -135.773
17726.2     58.814  -133.352
17984.0     58.498  -129.623
18245.6     58.357  -124.563
18511.0     58.471  -119.839
18780.2     58.595  -116.320
19053.4     58.547  -112.824
19330.5     58.561  -107.992
19611.7     58.820  -103.258
19897.0     59.192   -98.739
20186.4     59.803   -97.092
20480.0     59.734   -96.902
20777.9     59.632   -92.795
21080.1     59.941   -88.375
21386.7     60.245   -86.011
21697.8     60.445   -82.951
22013.4     60.783   -78.923
22333.6     61.394   -75.250
22658.4     62.260   -72.965
22988.0     63.179   -73.446
23322.4     63.933   -75.154
23661.6     64.797   -77.955
24005.8     65.605   -84.575
24355.0     65.747   -93.968
24709.2     65.194  -101.429
25068.6     64.623  -104.760
25433.2     64.618  -107.395
25803.2     65.116  -115.055
26178.5     64.797  -130.400
26559.3     63.099  -143.745
26945.6     60.832  -151.427
27337.5     58.521  -152.275
27735.2     57.024  -149.450
28138.6     56.051  -149.854
28547.9     54.211  -153.954
28963.1     51.692  -141.875
29384.4     52.882  -131.832
29811.8     53.443  -138.579
30245.4     52.968  -148.497
30685.3     51.980  -159.202
31131.7     50.294  -173.042
31584.5     47.159   171.445
32043.9     42.084   162.917
32510.0     35.684   172.438
32982.8     30.637  -138.584
33462.6     34.628   -85.798
33949.3     42.580   -88.219
34443.1     45.273  -122.267
34944.1     43.909  -146.860
35452.4     42.168  -154.005
35968.0     41.914  -155.477
36491.2     42.722  -167.502
37022.0     41.535   172.590
37560.5     36.637   161.028
38106.8     37.631  -179.271
38661.1     40.261   150.437
39223.4     29.057   116.537
39793.9     27.330   172.176
