Freq[Hz]     dBSPL  Phase[Deg]
5.00000    -15.526    83.587
5.07273    -15.387    86.894
5.14651    -15.257    90.486
5.22137    -15.156    94.871
5.29732    -15.055    99.257
5.37437    -14.955   103.643
5.45254    -14.854   108.028
5.53185    -14.604   112.146
5.61231    -14.196   115.982
5.69394    -13.788   119.817
5.77676    -13.380   123.652
5.86079    -12.980   127.467
5.94604    -13.027   130.073
6.03252    -13.075   132.678
6.12027    -13.122   135.284
6.20929    -13.169   137.889
6.29961    -12.973   145.119
6.39124    -12.722   153.375
6.48420    -12.472   161.631
6.57851    -12.221   169.887
6.67420    -11.545   172.512
6.77128    -10.801   174.223
6.86977    -10.056   175.934
6.96969     -9.471   177.935
7.07107    -10.108  -177.853
7.17392    -10.744  -173.642
7.27827    -11.380  -169.430
7.38413    -10.989  -161.085
7.49154     -9.803  -149.546
7.60050     -8.618  -138.008
7.71105     -7.549  -128.994
7.82321     -6.991  -131.065
7.93701     -6.433  -133.137
8.05245     -5.874  -135.208
8.16958     -6.846  -122.574
8.28841     -7.875  -109.391
8.40896     -8.904   -96.207
8.53128     -6.776   -88.419
8.65537     -4.240   -81.328
8.78126     -1.705   -74.237
8.90899     -1.799   -76.474
9.03857     -2.064   -79.323
9.17004     -2.203   -78.874
9.30342     -1.326   -52.171
9.43874     -0.450   -25.469
9.57603      1.364    -9.968
9.71532      4.610   -11.580
9.85663      7.857   -13.192
10.0000      9.439   -15.481
10.1455     10.558   -17.959
10.2930     11.778   -19.066
10.4427     13.281   -16.346
10.5946     14.784   -13.626
10.7487     16.654   -17.464
10.9051     18.596   -22.611
11.0637     20.036   -30.375
11.2246     20.943   -40.907
11.3879     21.562   -51.252
11.5535     21.128   -60.918
11.7216     20.675   -70.407
11.8921     19.138   -69.506
12.0650     17.602   -68.606
12.2405     17.991   -57.576
12.4186     18.629   -45.241
12.5992     20.123   -43.920
12.7825     21.807   -45.042
12.9684     22.786   -50.173
13.1570     23.602   -56.239
13.3484     23.900   -62.825
13.5426     24.114   -69.495
13.7395     23.734   -76.290
13.9394     23.219   -82.758
14.1421     21.847   -86.710
14.3478     20.315   -86.312
14.5565     18.441   -76.556
14.7683     18.336   -62.896
14.9831     19.597   -46.220
15.2010     21.548   -43.788
15.4221     23.437   -44.993
15.6464     24.538   -51.492
15.8740     25.148   -58.568
16.1049     25.368   -66.105
16.3392     24.886   -71.481
16.5768     24.284   -74.615
16.8179     23.546   -74.608
17.0626     23.340   -71.683
17.3107     23.361   -69.222
17.5625     23.621   -68.042
17.8180     23.747   -67.546
18.0771     23.942   -66.579
18.3401     24.239   -65.320
18.6068     24.749   -65.669
18.8775     25.060   -67.484
19.1521     25.167   -69.277
19.4306     25.079   -70.090
19.7133     25.085   -68.951
20.0000     25.211   -67.861
20.2909     25.337   -66.341
20.5860     25.519   -63.877
20.8855     25.967   -60.044
21.1893     26.909   -58.324
21.4975     27.684   -59.670
21.8102     28.071   -61.237
22.1274     28.283   -60.613
22.4492     28.752   -57.742
22.7758     29.738   -55.495
23.1071     30.861   -56.845
23.4432     31.614   -60.320
23.7841     32.007   -62.834
24.1301     32.395   -63.767
24.4811     32.885   -64.433
24.8372     33.357   -65.160
25.1984     33.820   -65.101
25.5649     34.472   -64.347
25.9368     35.354   -64.582
26.3141     36.215   -66.644
26.6968     36.864   -69.241
27.0851     37.434   -71.026
27.4791     38.107   -72.758
27.8788     38.734   -75.379
28.2843     39.207   -77.696
28.6957     39.706   -79.018
29.1131     40.337   -80.375
29.5365     40.993   -82.409
29.9661     41.595   -84.767
30.4020     42.150   -87.129
30.8442     42.679   -89.277
31.2929     43.236   -91.282
31.7480     43.828   -93.553
32.2098     44.375   -96.295
32.6783     44.813   -98.669
33.1536     45.318  -100.332
33.6359     45.928  -102.449
34.1251     46.473  -105.137
34.6215     46.980  -107.512
35.1250     47.521  -109.843
35.6359     48.078  -112.349
36.1543     48.629  -115.072
36.6802     49.154  -117.833
37.2137     49.685  -120.612
37.7550     50.202  -123.483
38.3041     50.721  -126.306
38.8613     51.243  -129.263
39.4265     51.766  -132.289
40.0000     52.276  -135.528
40.5818     52.767  -138.741
41.1721     53.251  -142.200
41.7710     53.686  -145.623
42.3785     54.130  -148.987
42.9949     54.550  -152.508
43.6203     54.905  -156.011
44.2548     55.256  -158.683
44.8985     55.725  -161.661
45.5515     56.158  -164.930
46.2141     56.575  -168.304
46.8863     56.961  -171.405
47.5683     57.397  -174.502
48.2602     57.848  -177.805
48.9621     58.266   178.808
49.6743     58.721   175.352
50.3968     59.124   171.690
51.1299     59.539   168.158
51.8736     59.946   164.487
52.6281     60.341   160.774
53.3936     60.735   157.015
54.1702     61.109   153.229
54.9581     61.489   149.418
55.7575     61.857   145.560
56.5685     62.223   141.646
57.3914     62.573   137.696
58.2261     62.921   133.782
59.0730     63.264   129.742
59.9323     63.590   125.802
60.8040     63.923   121.779
61.6884     64.254   117.868
62.5857     64.588   113.795
63.4960     64.929   109.703
64.4196     65.252   105.448
65.3566     65.565   101.203
66.3073     65.876    96.902
67.2717     66.170    92.562
68.2502     66.463    88.210
69.2429     66.749    83.832
70.2501     67.042    79.442
71.2719     67.326    74.948
72.3086     67.624    70.344
73.3603     67.895    65.573
74.4274     68.144    60.749
75.5099     68.378    55.942
76.6083     68.582    51.121
77.7226     68.780    46.520
78.8531     69.002    41.963
80.0000     69.241    37.252
81.1636     69.479    32.400
82.3442     69.706    27.417
83.5419     69.927    22.303
84.7570     70.120    17.044
85.9899     70.285    11.769
87.2406     70.437     6.574
88.5096     70.591     1.360
89.7970     70.741    -3.959
91.1031     70.876    -9.487
92.4282     70.966   -15.139
93.7726     71.004   -20.721
95.1366     71.007   -25.942
96.5204     71.041   -30.889
97.9243     71.093   -35.905
99.3486     71.151   -40.962
100.794     71.203   -46.127
102.260     71.252   -51.325
103.747     71.292   -56.574
105.256     71.324   -61.865
106.787     71.349   -67.247
108.340     71.350   -72.758
109.916     71.292   -78.214
111.515     71.227   -83.216
113.137     71.210   -88.212
114.783     71.187   -93.335
116.452     71.152   -98.422
118.146     71.129  -103.438
119.865     71.109  -108.525
121.608     71.083  -113.649
123.377     71.061  -118.761
125.171     71.039  -123.954
126.992     71.017  -129.177
128.839     70.991  -134.501
130.713     70.952  -139.958
132.615     70.873  -145.364
134.543     70.793  -150.656
136.500     70.739  -156.003
138.486     70.686  -160.920
140.500     70.604  -166.334
142.544     70.505  -171.866
144.617     70.436  -176.917
146.721     70.355   178.234
148.855     70.333   173.052
151.020     70.321   167.335
153.217     70.213   161.706
155.445     70.154   156.591
157.706     70.117   150.734
160.000     69.869   144.697
162.327     69.677   140.103
164.688     69.634   135.709
167.084     69.612   130.900
169.514     69.640   124.758
171.980     69.454   118.579
174.481     69.260   113.985
177.019     69.171   109.792
179.594     69.154   105.089
182.206     69.129    99.941
184.856     69.164    94.844
187.545     69.217    89.660
190.273     69.242    83.951
193.041     69.214    78.109
195.849     69.182    72.813
198.697     69.214    66.845
201.587     69.191    60.194
204.520     69.003    53.910
207.494     68.758    49.037
210.512     68.492    44.044
213.574     68.552    38.397
216.681     68.594    33.533
219.833     68.504    28.935
223.030     68.410    23.658
226.274     68.513    17.422
229.565     68.579    11.969
232.905     68.447     7.107
236.292     68.363     2.569
239.729     68.268    -2.507
243.216     68.274    -6.761
246.754     68.315   -12.430
250.343     68.273   -18.482
253.984     68.133   -24.038
257.678     68.057   -28.863
261.426     68.004   -33.969
265.229     67.949   -39.530
269.087     67.734   -44.586
273.001     67.614   -48.421
276.972     67.698   -52.357
281.000     67.518   -56.436
285.088     67.598   -61.675
289.234     67.776   -66.180
293.441     67.955   -70.998
297.709     67.891   -77.537
302.040     67.547   -82.537
306.433     67.327   -86.161
310.890     67.436   -88.573
315.412     67.591   -94.089
320.000     67.509   -98.802
324.655     67.372  -102.824
329.377     67.316  -106.458
334.168     67.403  -110.995
339.028     67.152  -116.268
343.959     67.070  -118.650
348.962     67.092  -122.214
354.038     67.044  -124.682
359.188     67.202  -128.621
364.412     67.134  -132.968
369.713     67.023  -137.460
375.090     66.875  -139.400
380.546     66.927  -141.884
386.081     67.109  -145.887
391.697     66.824  -149.184
397.394     66.916  -151.005
403.175     66.857  -153.560
409.039     67.008  -155.752
414.989     66.998  -157.702
421.025     67.159  -160.009
427.149     67.301  -161.934
433.362     67.455  -164.830
439.665     67.655  -167.960
446.060     67.734  -171.021
452.548     67.785  -174.172
459.131     67.803  -177.400
465.809     67.849   179.412
472.584     67.847   176.128
479.458     67.818   173.207
486.432     67.726   170.032
493.507     67.680   167.281
500.686     67.642   164.465
507.968     67.559   161.509
515.357     67.461   158.810
522.853     67.367   156.410
530.458     67.320   153.937
538.174     67.283   151.702
546.002     67.283   149.586
553.943     67.265   147.511
562.001     67.268   145.458
570.175     67.274   143.311
578.469     67.307   141.215
586.883     67.346   139.043
595.419     67.397   137.096
604.080     67.441   134.970
612.866     67.486   132.827
621.780     67.541   130.552
630.824     67.588   128.284
640.000     67.637   125.961
649.309     67.676   123.721
658.753     67.705   121.432
668.335     67.713   119.005
678.056     67.727   116.653
687.919     67.735   114.353
697.925     67.713   112.140
708.077     67.689   109.914
718.376     67.658   107.832
728.825     67.619   105.800
739.426     67.570   103.857
750.181     67.532   102.056
761.093     67.484   100.297
772.163     67.449    98.718
783.394     67.414    97.124
794.789     67.400    95.615
806.349     67.386    94.182
818.078     67.388    92.725
829.977     67.402    91.223
842.050     67.428    89.750
854.298     67.451    88.264
866.724     67.470    86.666
879.330     67.495    85.055
892.120     67.513    83.405
905.097     67.516    81.707
918.262     67.519    80.039
931.618     67.499    78.381
945.169     67.480    76.745
958.917     67.460    75.226
972.864     67.425    73.794
987.015     67.399    72.441
1001.37     67.363    71.198
1015.94     67.342    69.972
1030.71     67.329    68.824
1045.71     67.335    67.640
1060.92     67.355    66.463
1076.35     67.379    65.227
1092.00     67.412    63.924
1107.89     67.439    62.555
1124.00     67.461    61.070
1140.35     67.478    59.521
1156.94     67.480    57.945
1173.77     67.468    56.380
1190.84     67.434    54.879
1208.16     67.394    53.403
1225.73     67.345    52.052
1243.56     67.296    50.810
1261.65     67.249    49.677
1280.00     67.216    48.613
1298.62     67.208    47.698
1317.51     67.209    46.735
1336.67     67.249    45.740
1356.11     67.295    44.702
1375.84     67.355    43.511
1395.85     67.405    42.124
1416.15     67.471    40.560
1436.75     67.516    38.892
1457.65     67.558    37.177
1478.85     67.556    35.367
1500.36     67.551    33.578
1522.19     67.523    31.802
1544.33     67.483    30.089
1566.79     67.446    28.456
1589.58     67.404    26.876
1612.70     67.383    25.351
1636.16     67.365    23.786
1659.95     67.352    22.181
1684.10     67.343    20.460
1708.60     67.339    18.670
1733.45     67.312    16.780
1758.66     67.292    14.800
1784.24     67.250    12.757
1810.19     67.205    10.663
1836.52     67.142     8.508
1863.24     67.067     6.259
1890.34     66.967     4.026
1917.83     66.846     1.684
1945.73     66.703    -0.589
1974.03     66.541    -2.787
2002.74     66.367    -4.884
2031.87     66.194    -6.895
2061.43     66.014    -8.908
2091.41     65.839   -11.018
2121.83     65.651   -13.188
2152.69     65.437   -15.408
2184.01     65.190   -17.539
2215.77     64.913   -19.555
2248.00     64.632   -21.336
2280.70     64.366   -22.910
2313.87     64.120   -24.365
2347.53     63.885   -25.871
2381.68     63.679   -27.356
2416.32     63.479   -28.859
2451.46     63.306   -30.391
2487.12     63.174   -32.036
2523.30     63.080   -34.033
2560.00     62.984   -36.453
2597.24     62.861   -39.360
2635.01     62.679   -42.529
2673.34     62.449   -45.814
2712.23     62.193   -48.978
2751.68     61.922   -52.219
2791.70     61.632   -55.561
2832.31     61.312   -59.065
2873.50     60.944   -62.505
2915.30     60.530   -65.725
2957.70     60.120   -68.547
3000.72     59.751   -70.902
3044.37     59.488   -73.028
3088.65     59.373   -75.357
3133.58     59.356   -78.509
3179.16     59.364   -82.866
3225.40     59.265   -88.073
3272.31     59.027   -93.285
3319.91     58.756   -97.691
3368.20     58.573  -101.530
3417.19     58.537  -105.646
3466.89     58.520  -110.412
3517.32     58.449  -115.208
3568.48     58.396  -119.401
3620.39     58.463  -123.416
3673.05     58.625  -127.773
3726.47     58.765  -132.479
3780.67     58.924  -136.959
3835.67     59.136  -141.390
3891.46     59.352  -146.058
3948.06     59.548  -150.456
4005.49     59.786  -154.537
4063.75     60.092  -159.006
4122.86     60.312  -163.990
4182.82     60.433  -168.309
4243.66     60.642  -172.032
4305.39     60.918  -176.582
4368.01     61.009   177.932
4431.55     60.859   173.268
4496.01     60.632   169.701
4561.40     60.309   167.028
4627.75     59.939   166.411
4695.06     59.822   167.405
4763.35     59.890   168.087
4832.64     59.993   169.236
4902.93     60.376   170.704
4974.24     60.853   170.493
5046.60     61.230   170.224
5120.00     61.779   169.882
5194.47     62.281   167.774
5270.03     62.612   166.048
5346.68     63.036   164.319
5424.45     63.334   161.696
5503.35     63.582   160.145
5583.40     63.988   157.860
5664.61     64.190   154.799
5747.01     64.401   152.676
5830.60     64.689   149.277
5915.41     64.773   145.071
6001.45     64.658   140.407
6088.74     64.119   136.627
6177.30     63.579   135.717
6267.15     63.073   134.813
6358.31     62.461   136.245
6450.80     62.106   138.167
6544.62     61.698   141.727
6639.82     61.767   145.813
6736.40     61.824   149.025
6834.38     62.201   152.058
6933.79     62.445   153.481
7034.64     62.840   155.069
7136.96     63.018   155.401
7240.77     63.292   156.871
7346.09     63.481   157.647
7452.94     63.846   158.902
7561.35     64.066   159.220
7671.33     64.454   160.013
7782.91     64.720   159.846
7896.12     65.090   159.378
8010.97     65.245   158.602
8127.49     65.395   157.304
8245.71     65.361   157.149
8365.65     65.369   155.569
8487.33     64.928   154.988
8610.78     64.537   157.662
8736.03     64.675   159.194
8863.09     64.448   159.653
8992.01     64.254   160.876
9122.80     64.162   163.217
9255.50     64.177   164.769
9390.12     64.298   165.841
9526.70     64.480   166.235
9665.27     64.501   165.517
9805.86     64.474   165.407
9948.49     64.513   166.249
10093.2     64.630   166.917
10240.0     64.882   167.399
10388.9     65.185   167.323
10540.1     65.400   166.470
10693.4     65.518   165.200
10848.9     65.569   164.012
11006.7     65.575   162.971
11166.8     65.505   161.822
11329.2     65.264   160.371
11494.0     64.891   160.388
11661.2     64.635   161.880
11830.8     64.474   163.744
12002.9     64.488   165.448
12177.5     64.542   165.820
12354.6     64.421   165.817
12534.3     64.191   166.657
12716.6     64.053   168.771
12901.6     64.166   170.602
13089.2     64.244   170.591
13279.6     64.192   170.681
13472.8     64.118   170.049
13668.8     63.845   168.882
13867.6     63.307   168.317
14069.3     62.548   169.674
14273.9     61.892   173.986
14481.5     61.647   179.441
14692.2     61.720  -176.606
14905.9     61.757  -174.701
15122.7     61.489  -172.998
15342.7     61.161  -169.482
15565.8     61.050  -165.291
15792.2     61.057  -161.804
16021.9     61.023  -159.217
16255.0     60.878  -156.215
16491.4     60.737  -152.689
16731.3     60.660  -148.103
16974.7     60.980  -144.068
17221.6     61.164  -142.854
17472.1     61.114  -141.209
17726.2     60.971  -139.561
17984.0     60.684  -136.901
18245.6     60.492  -133.207
18511.0     60.403  -129.044
18780.2     60.411  -125.530
19053.4     60.330  -121.976
19330.5     60.309  -117.337
19611.7     60.598  -112.917
19897.0     60.876  -111.761
20186.4     60.688  -109.245
20480.0     60.530  -106.465
20777.9     60.357  -101.102
21080.1     60.667   -95.110
21386.7     61.070   -92.105
21697.8     61.271   -89.235
22013.4     61.455   -85.167
22333.6     61.897   -80.519
22658.4     62.661   -76.811
22988.0     63.541   -75.947
23322.4     64.220   -76.566
23661.6     64.906   -77.535
24005.8     65.603   -80.721
24355.0     66.020   -85.557
24709.2     66.158   -90.733
25068.6     66.060   -95.289
25433.2     66.088   -98.303
25803.2     66.677  -104.825
26178.5     66.422  -118.241
26559.3     65.071  -127.675
26945.6     63.804  -132.412
27337.5     62.792  -136.455
27735.2     61.755  -142.665
28138.6     59.950  -149.185
28547.9     57.301  -150.693
28963.1     54.974  -136.485
29384.4     56.128  -125.904
29811.8     56.721  -133.164
30245.4     55.872  -143.569
30685.3     54.169  -151.507
31131.7     52.190  -157.351
31584.5     49.837  -164.293
32043.9     46.274  -170.925
32510.0     41.193  -164.795
32982.8     37.557  -139.019
33462.6     37.688  -102.428
33949.3     41.836   -93.132
34443.1     43.766  -113.786
34944.1     42.581  -130.980
35452.4     40.254  -139.418
35968.0     38.693  -124.744
36491.2     42.580  -137.631
37022.0     40.554  -169.144
37560.5     33.965  -176.177
38106.8     37.401  -152.104
38661.1     39.399   171.831
39223.4     28.633   146.645
39793.9     29.290  -175.483
