Freq[Hz]     dBSPL  Phase[Deg]
5.00000    -17.087    82.440
5.07273    -16.945    85.740
5.14651    -16.812    89.323
5.22137    -16.708    93.701
5.29732    -16.605    98.079
5.37437    -16.501   102.456
5.45254    -16.397   106.833
5.53185    -16.144   110.943
5.61231    -15.733   114.770
5.69394    -15.322   118.597
5.77676    -14.912   122.424
5.86079    -14.509   126.230
5.94604    -14.553   128.826
6.03252    -14.597   131.423
6.12027    -14.642   134.019
6.20929    -14.686   136.615
6.29961    -14.486   143.836
6.39124    -14.233   152.082
6.48420    -13.979   160.328
6.57851    -13.726   168.574
6.67420    -13.047   171.189
6.77128    -12.299   172.890
6.86977    -11.552   174.590
6.96969    -10.964   176.581
7.07107    -11.598  -179.218
7.17392    -12.231  -175.017
7.27827    -12.864  -170.816
7.38413    -12.470  -162.482
7.49154    -11.282  -150.955
7.60050    -10.093  -139.428
7.71105     -9.021  -130.426
7.82321     -8.460  -132.509
7.93701     -7.899  -134.592
8.05245     -7.338  -136.676
8.16958     -8.307  -124.054
8.28841     -9.332  -110.883
8.40896    -10.358   -97.712
8.53128     -8.227   -89.937
8.65537     -5.689   -82.859
8.78126     -3.151   -75.781
8.90899     -3.241   -78.032
9.03857     -3.504   -80.894
9.17004     -3.640   -80.459
9.30342     -2.760   -53.771
9.43874     -1.881   -27.082
9.57603     -0.064   -11.596
9.71532      3.185   -13.222
9.85663      6.435   -14.849
10.0000      8.020   -17.153
10.1455      9.142   -19.646
10.2930     10.365   -20.769
10.4427     11.871   -18.065
10.5946     13.377   -15.361
10.7487     15.249   -19.215
10.9051     17.195   -24.379
11.0637     18.638   -32.159
11.2246     19.548   -42.708
11.3879     20.170   -53.070
11.5535     19.738   -62.753
11.7216     19.288   -72.260
11.8921     17.754   -71.377
12.0650     16.221   -70.495
12.2405     16.613   -59.484
12.4186     17.254   -47.167
12.5992     18.751   -45.865
12.7825     20.438   -47.006
12.9684     21.421   -52.157
13.1570     22.240   -58.243
13.3484     22.541   -64.849
13.5426     22.757   -71.540
13.7395     22.380   -78.355
13.9394     21.868   -84.845
14.1421     20.499   -88.818
14.3478     18.970   -88.441
14.5565     17.099   -78.707
14.7683     16.997   -65.069
14.9831     18.261   -48.415
15.2010     20.215   -46.007
15.4221     22.107   -47.235
15.6464     23.210   -53.757
15.8740     23.824   -60.857
16.1049     24.047   -68.419
16.3392     23.568   -73.819
16.5768     22.969   -76.978
16.8179     22.233   -76.997
17.0626     22.031   -74.097
17.3107     22.054   -71.662
17.5625     22.317   -70.508
17.8180     22.446   -70.039
18.0771     22.645   -69.100
18.3401     22.944   -67.868
18.6068     23.457   -68.245
18.8775     23.771   -70.089
19.1521     23.881   -71.910
19.4306     23.796   -72.753
19.7133     23.805   -71.643
20.0000     23.934   -70.584
20.2909     24.063   -69.094
20.5860     24.248   -66.661
20.8855     24.699   -62.859
21.1893     25.644   -61.172
21.4975     26.421   -62.550
21.8102     26.812   -64.150
22.1274     27.026   -63.559
22.4492     27.498   -60.722
22.7758     28.488   -58.509
23.1071     29.613   -59.894
23.4432     30.370   -63.405
23.7841     30.765   -65.954
24.1301     31.157   -66.924
24.4811     31.649   -67.626
24.8372     32.124   -68.391
25.1984     32.590   -68.370
25.5649     33.245   -67.654
25.9368     34.130   -67.928
26.3141     34.994   -70.030
26.6968     35.646   -72.667
27.0851     36.219   -74.493
27.4791     36.895   -76.266
27.8788     37.525   -78.929
28.2843     38.001   -81.289
28.6957     38.502   -82.654
29.1131     39.137   -84.054
29.5365     39.796   -86.133
29.9661     40.401   -88.536
30.4020     40.959   -90.944
30.8442     41.491   -93.139
31.2929     42.051   -95.190
31.7480     42.646   -97.510
32.2098     43.195  -100.300
32.6783     43.637  -102.723
33.1536     44.144  -104.436
33.6359     44.757  -106.604
34.1251     45.306  -109.343
34.6215     45.815  -111.770
35.1250     46.360  -114.154
35.6359     46.919  -116.714
36.1543     47.473  -119.492
36.6802     48.001  -122.307
37.2137     48.535  -125.142
37.7550     49.055  -128.070
38.3041     49.577  -130.951
38.8613     50.102  -133.967
39.4265     50.628  -137.052
40.0000     51.140  -140.351
40.5818     51.635  -143.625
41.1721     52.122  -147.146
41.7710     52.560  -150.632
42.3785     53.007  -154.060
42.9949     53.430  -157.646
43.6203     53.787  -161.215
44.2548     54.142  -163.952
44.8985     54.614  -166.998
45.5515     55.049  -170.336
46.2141     55.469  -173.779
46.8863     55.858  -176.952
47.5683     56.297   179.880
48.2602     56.751   176.504
48.9621     57.172   173.043
49.6743     57.630   169.513
50.3968     58.036   165.775
51.1299     58.454   162.166
51.8736     58.864   158.417
52.6281     59.262   154.625
53.3936     59.659   150.785
54.1702     60.036   146.918
54.9581     60.419   143.024
55.7575     60.790   139.082
56.5685     61.158   135.083
57.3914     61.512   131.046
58.2261     61.863   127.045
59.0730     62.209   122.916
59.9323     62.538   118.886
60.8040     62.873   114.771
61.6884     63.207   110.767
62.5857     63.544   106.600
63.4960     63.889   102.412
64.4196     64.215    98.060
65.3566     64.531    93.717
66.3073     64.845    89.316
67.2717     65.141    84.875
68.2502     65.437    80.419
69.2429     65.726    75.938
70.2501     66.023    71.442
71.2719     66.309    66.841
72.3086     66.610    62.127
73.3603     66.884    57.247
74.4274     67.137    52.310
75.5099     67.373    47.389
76.6083     67.580    42.453
77.7226     67.781    37.736
78.8531     68.006    33.059
80.0000     68.248    28.228
81.1636     68.489    23.253
82.3442     68.719    18.147
83.5419     68.942    12.907
84.7570     69.139     7.520
85.9899     69.307     2.116
87.2406     69.462    -3.211
88.5096     69.618    -8.558
89.7970     69.771   -14.012
91.1031     69.909   -19.678
92.4282     70.003   -25.468
93.7726     70.044   -31.191
95.1366     70.049   -36.556
96.5204     70.086   -41.649
97.9243     70.141   -46.811
99.3486     70.203   -52.019
100.794     70.257   -57.335
102.260     70.309   -62.687
103.747     70.352   -68.092
105.256     70.387   -73.541
106.787     70.415   -79.085
108.340     70.419   -84.759
109.916     70.364   -90.380
111.515     70.302   -95.550
113.137     70.287  -100.717
114.783     70.268  -106.012
116.452     70.236  -111.275
118.146     70.215  -116.469
119.865     70.198  -121.736
121.608     70.176  -127.043
123.377     70.157  -132.341
125.171     70.138  -137.722
126.992     70.119  -143.137
128.839     70.096  -148.655
130.713     70.060  -154.308
132.615     69.983  -159.913
134.543     69.906  -165.409
136.500     69.855  -170.961
138.486     69.805  -176.087
140.500     69.726   178.288
142.544     69.631   172.542
144.617     69.564   167.273
146.721     69.486   162.203
148.855     69.467   156.797
151.020     69.458   150.852
153.217     69.353   144.992
155.445     69.297   139.643
157.706     69.262   133.549
160.000     69.018   127.271
162.327     68.829   122.433
164.688     68.789   117.790
167.084     68.769   112.730
169.514     68.801   106.332
171.980     68.618    99.895
174.481     68.427    95.038
177.019     68.341    90.578
179.594     68.327    85.605
182.206     68.305    80.183
184.856     68.343    74.808
187.545     68.398    69.341
190.273     68.427    63.345
193.041     68.401    57.213
195.849     68.372    51.622
198.697     68.407    45.355
201.587     68.387    38.400
204.520     68.211    31.754
207.494     67.995    26.601
210.512     67.753    21.425
213.574     67.823    15.655
216.681     67.850    10.606
219.833     67.765     5.554
223.030     67.728     0.150
226.274     67.787    -5.783
229.565     67.735   -11.879
232.905     67.644   -17.848
236.292     67.652   -22.529
239.729     67.527   -27.628
243.216     67.514   -32.489
246.754     67.591   -38.628
250.343     67.579   -44.969
253.984     67.446   -50.658
257.678     67.326   -55.794
261.426     67.265   -61.662
265.229     67.257   -67.759
269.087     67.076   -73.125
273.001     66.969   -77.134
276.972     67.030   -81.419
281.000     66.869   -85.961
285.088     66.931   -91.367
289.234     67.067   -96.585
293.441     67.280  -101.971
297.709     67.207  -108.958
302.040     66.896  -114.517
306.433     66.674  -118.330
310.890     66.755  -121.383
315.412     66.928  -127.374
320.000     66.819  -132.539
324.655     66.672  -137.153
329.377     66.594  -141.476
334.168     66.730  -146.624
339.028     66.425  -152.268
343.959     66.386  -155.530
348.962     66.374  -159.136
354.038     66.288  -162.514
359.188     66.432  -166.938
364.412     66.329  -172.089
369.713     66.207  -177.340
375.090     66.055  -179.845
380.546     66.055   177.039
386.081     66.197   172.215
391.697     65.894   168.092
397.394     65.952   165.595
403.175     65.851   162.241
409.039     65.968   159.404
414.989     65.891   156.659
421.025     65.991   153.604
427.149     66.073   150.804
433.362     66.169   147.265
439.665     66.281   143.299
446.060     66.260   139.656
452.548     66.230   135.340
459.131     66.172   131.670
465.809     66.094   127.968
472.584     65.954   123.774
479.458     65.846   120.381
486.432     65.605   116.860
493.507     65.422   113.725
500.686     65.238   110.524
507.968     65.020   107.378
515.357     64.809   104.565
522.853     64.627   102.316
530.458     64.456   100.238
538.174     64.350    98.241
546.002     64.285    96.538
553.943     64.249    94.907
562.001     64.252    93.292
570.175     64.307    91.397
578.469     64.429    89.572
586.883     64.545    87.683
595.419     64.704    85.394
604.080     64.887    83.004
612.866     65.081    80.344
621.780     65.263    77.351
630.824     65.453    74.040
640.000     65.615    70.682
649.309     65.768    67.075
658.753     65.867    63.304
668.335     65.957    59.241
678.056     66.017    55.031
687.919     66.034    50.909
697.925     66.019    46.688
708.077     65.950    42.596
718.376     65.855    38.527
728.825     65.716    34.534
739.426     65.539    30.746
750.181     65.331    27.120
761.093     65.107    23.751
772.163     64.871    20.742
783.394     64.624    17.996
794.789     64.394    15.561
806.349     64.205    13.326
818.078     64.037    11.391
829.977     63.924     9.512
842.050     63.849     7.529
854.298     63.819     5.454
866.724     63.831     3.065
879.330     63.858     0.422
892.120     63.876    -2.503
905.097     63.855    -5.810
918.262     63.813    -9.483
931.618     63.714   -13.289
945.169     63.548   -17.235
958.917     63.314   -21.181
972.864     63.015   -24.973
987.015     62.633   -28.492
1001.37     62.208   -31.661
1015.94     61.735   -34.148
1030.71     61.259   -35.935
1045.71     60.794   -37.069
1060.92     60.396   -37.767
1076.35     60.126   -38.056
1092.00     59.934   -38.260
1107.89     59.828   -38.840
1124.00     59.792   -39.839
1140.35     59.743   -41.407
1156.94     59.648   -43.259
1173.77     59.500   -45.510
1190.84     59.294   -47.510
1208.16     59.024   -49.054
1225.73     58.746   -50.155
1243.56     58.508   -50.492
1261.65     58.390   -50.328
1280.00     58.411   -50.097
1298.62     58.568   -50.389
1317.51     58.805   -51.771
1336.67     59.076   -54.080
1356.11     59.212   -57.195
1375.84     59.242   -61.087
1395.85     59.103   -65.012
1416.15     58.812   -68.660
1436.75     58.433   -71.023
1457.65     57.991   -72.264
1478.85     57.709   -72.195
1500.36     57.684   -71.385
1522.19     57.891   -71.168
1544.33     58.309   -72.493
1566.79     58.697   -75.494
1589.58     58.950   -80.097
1612.70     59.002   -85.358
1636.16     58.801   -90.828
1659.95     58.371   -95.323
1684.10     57.832   -98.435
1708.60     57.350   -99.239
1733.45     57.084   -98.877
1758.66     57.205   -98.557
1784.24     57.514  -100.082
1810.19     57.836  -103.692
1836.52     57.961  -108.842
1863.24     57.806  -114.484
1890.34     57.372  -119.426
1917.83     56.769  -122.488
1945.73     56.234  -123.481
1974.03     56.019  -123.124
2002.74     56.168  -123.604
2031.87     56.371  -126.283
2061.43     56.477  -130.856
2091.41     56.239  -136.055
2121.83     55.692  -140.127
2152.69     55.040  -141.673
2184.01     54.633  -140.613
2215.77     54.703  -139.507
2248.00     55.083  -140.760
2280.70     55.354  -144.507
2313.87     55.241  -149.427
2347.53     54.802  -153.628
2381.68     54.263  -154.699
2416.32     53.977  -153.429
2451.46     54.158  -152.311
2487.12     54.578  -153.410
2523.30     54.884  -156.380
2560.00     54.961  -159.433
2597.24     54.964  -161.402
2635.01     55.134  -162.727
2673.34     55.530  -164.906
2712.23     55.927  -168.780
2751.68     56.113  -173.679
2791.70     56.074  -178.254
2832.31     55.975   178.656
2873.50     56.024   176.591
2915.30     56.299   174.046
2957.70     56.631   170.160
3000.72     56.838   165.188
3044.37     56.864   160.036
3088.65     56.779   155.490
3133.58     56.710   151.777
3179.16     56.733   148.110
3225.40     56.771   143.912
3272.31     56.723   139.109
3319.91     56.494   134.620
3368.20     56.202   131.399
3417.19     56.011   129.034
3466.89     55.916   126.473
3517.32     55.768   123.771
3568.48     55.627   122.145
3620.39     55.702   121.234
3673.05     56.000   118.875
3726.47     56.162   115.186
3780.67     56.178   111.861
3835.67     56.334   109.153
3891.46     56.602   104.702
3948.06     56.575    98.729
4005.49     56.190    94.086
4063.75     55.911    91.677
4122.86     55.837    88.756
4182.82     55.578    84.788
4243.66     55.196    82.529
4305.39     55.007    81.167
4368.01     54.764    79.025
4431.55     54.451    78.483
4496.01     54.503    78.668
4561.40     54.624    76.493
4627.75     54.459    75.034
4695.06     54.605    75.398
4763.35     55.011    73.044
4832.64     55.080    69.564
4902.93     55.143    66.928
4974.24     55.146    63.240
5046.60     54.915    60.422
5120.00     54.872    58.522
5194.47     54.688    55.621
5270.03     54.465    54.962
5346.68     54.658    53.158
5424.45     54.414    50.197
5503.35     54.345    50.058
5583.40     54.477    46.598
5664.61     54.026    45.091
5747.01     54.228    45.007
5830.60     54.028    40.732
5915.41     53.637    42.101
6001.45     53.903    40.744
6088.74     53.605    40.925
6177.30     54.210    41.247
6267.15     54.206    37.131
6358.31     54.446    37.359
6450.80     54.675    32.108
6544.62     54.505    30.848
6639.82     54.747    26.218
6736.40     54.260    23.575
6834.38     54.390    20.838
6933.79     53.828    18.258
7034.64     53.910    16.837
7136.96     53.412    14.181
7240.77     53.418    13.355
7346.09     52.925    11.429
7452.94     52.928    10.988
7561.35     52.547    10.492
7671.33     52.740     9.135
7782.91     52.523     8.418
7896.12     52.690     4.401
8010.97     52.272     2.664
8127.49     51.728    -1.308
8245.71     51.065     0.243
8365.65     50.391     1.209
8487.33     50.827     3.799
8610.78     50.580     0.476
8736.03     50.184    -3.712
8863.09     49.371    -2.417
8992.01     48.634    -3.230
9122.80     48.412    -1.138
9255.50     48.000     0.675
9390.12     48.119    -0.965
9526.70     47.953    -4.020
9665.27     47.045    -6.086
9805.86     46.384    -6.993
9948.49     45.928    -4.942
10093.2     45.381    -1.105
10240.0     45.399     0.960
10388.9     45.825     1.757
10540.1     45.877     1.186
10693.4     45.644     0.890
10848.9     45.466     0.146
11006.7     45.320    -0.504
11166.8     45.094     0.144
11329.2     44.480     0.993
11494.0     44.125     4.278
11661.2     44.240     8.948
11830.8     44.927    13.393
12002.9     45.828    13.522
12177.5     46.336     9.657
12354.6     46.292     4.415
12534.3     45.772     1.389
12716.6     45.296     2.782
12901.6     45.239     6.935
13089.2     45.920     8.146
13279.6     46.554     6.093
13472.8     46.924     2.236
13668.8     46.977    -2.601
13867.6     46.683    -7.698
14069.3     46.096   -10.178
14273.9     45.633    -9.044
14481.5     45.911    -7.413
14692.2     46.535    -9.887
14905.9     46.931   -16.544
15122.7     46.624   -25.561
15342.7     45.493   -31.867
15565.8     44.248   -31.588
15792.2     43.918   -30.149
16021.9     43.855   -32.059
16255.0     43.594   -36.461
16491.4     42.886   -41.413
16731.3     41.833   -44.830
16974.7     40.235   -46.008
17221.6     39.075   -38.878
17472.1     39.544   -33.172
17726.2     39.642   -38.559
17984.0     38.699   -41.406
18245.6     37.717   -38.746
18511.0     37.784   -35.595
18780.2     37.913   -37.177
19053.4     37.661   -38.790
19330.5     37.156   -42.433
19611.7     36.516   -43.748
19897.0     35.439   -42.056
20186.4     36.377   -34.368
20480.0     36.583   -41.736
20777.9     36.069   -44.238
21080.1     35.525   -43.903
21386.7     35.785   -41.361
21697.8     36.690   -42.520
22013.4     37.318   -46.759
22333.6     37.425   -50.804
22658.4     38.350   -54.451
22988.0     39.030   -60.480
23322.4     39.981   -67.051
23661.6     40.936   -76.752
24005.8     41.373   -87.493
24355.0     42.128   -95.413
24709.2     43.393  -107.095
25068.6     43.757  -122.126
25433.2     43.898  -132.146
25803.2     44.871  -142.258
26178.5     46.112  -159.701
26559.3     45.997   179.241
26945.6     45.029   164.257
27337.5     44.895   152.965
27735.2     44.613   135.346
28138.6     43.039   120.516
28547.9     41.817   111.551
28963.1     40.663   101.929
29384.4     39.614    93.409
29811.8     38.446    82.466
30245.4     36.948    73.547
30685.3     36.123    62.204
31131.7     34.697    43.067
31584.5     32.025    19.083
32043.9     28.895   -16.345
32510.0     24.514   -73.272
32982.8     25.227  -150.633
33462.6     26.037   145.448
33949.3     26.893   104.318
34443.1     24.344    44.812
34944.1     22.420   -39.700
35452.4     19.444  -135.428
35968.0     18.650    -9.519
36491.2     16.859    65.815
37022.0     23.942  -117.032
37560.5     26.293  -171.915
38106.8     21.191    59.758
38661.1     18.114  -156.023
39223.4     15.173  -107.839
39793.9     16.469   107.973
