Freq[Hz]     dBSPL  Phase[Deg]
5.00000    -25.339  -103.199
5.07273    -25.166   -99.078
5.14651    -25.004   -94.660
5.22137    -24.870   -89.437
5.29732    -24.736   -84.201
5.37437    -24.602   -78.953
5.45254    -24.468   -73.693
5.53185    -24.185   -68.687
5.61231    -23.744   -63.951
5.69394    -23.303   -59.202
5.77676    -22.862   -54.439
5.86079    -22.429   -49.684
5.94604    -22.443   -46.124
6.03252    -22.457   -42.551
6.12027    -22.472   -38.963
6.20929    -22.486   -35.361
6.29961    -22.256   -27.120
6.39124    -21.972   -17.839
6.48420    -21.689    -8.542
6.57851    -21.405     0.769
6.67420    -20.696     4.465
6.77128    -19.918     7.263
6.86977    -19.140    10.076
6.96969    -18.523    13.196
7.07107    -19.126    18.542
7.17392    -19.729    23.905
7.27827    -20.333    29.285
7.38413    -19.908    38.815
7.49154    -18.690    51.556
7.60050    -17.471    64.314
7.71105    -16.369    74.565
7.82321    -15.778    73.749
7.93701    -15.186    72.951
8.05245    -14.595    72.172
8.16958    -15.534    86.117
8.28841    -16.529   100.631
8.40896    -17.525   115.164
8.53128    -15.364   124.320
8.65537    -12.795   132.801
8.78126    -10.227   141.301
8.90899    -10.287   140.493
9.03857    -10.520   139.095
9.17004    -10.626   141.016
9.30342     -9.716   169.211
9.43874     -8.807  -162.572
9.57603     -6.959  -145.534
9.71532     -3.680  -145.587
9.85663     -0.400  -145.617
10.0000      1.215  -146.301
10.1455      2.367  -147.151
10.2930      3.620  -146.607
10.4427      5.156  -142.211
10.5946      6.692  -137.791
10.7487      8.595  -139.904
10.9051     10.571  -143.301
11.0637     12.043  -149.290
11.2246     12.984  -158.020
11.3879     13.636  -166.538
11.5535     13.234  -174.350
11.7216     12.814   178.042
11.8921     11.311  -179.149
12.0650      9.808  -176.312
12.2405     10.230  -163.318
12.4186     10.901  -148.990
12.5992     12.428  -145.647
12.7825     14.145  -144.718
12.9684     15.158  -147.768
13.1570     16.007  -151.723
13.3484     16.338  -156.167
13.5426     16.585  -160.664
13.7395     16.238  -165.253
13.9394     15.756  -169.485
14.1421     14.417  -171.168
14.3478     12.919  -168.467
14.5565     11.077  -156.375
14.7683     11.005  -140.345
14.9831     12.300  -121.264
15.2010     14.284  -116.393
15.4221     16.206  -115.123
15.6464     17.339  -119.111
15.8740     17.983  -123.640
16.1049     18.236  -128.593
16.3392     17.787  -131.347
16.5768     17.218  -131.821
16.8179     16.513  -129.115
17.0626     16.341  -123.452
17.3107     16.394  -118.213
17.5625     16.687  -114.214
17.8180     16.847  -110.859
18.0771     17.075  -106.992
18.3401     17.405  -102.789
18.6068     17.948  -100.153
18.8775     18.292   -98.938
19.1521     18.433   -97.658
19.4306     18.377   -95.353
19.7133     18.417   -91.050
20.0000     18.576   -86.751
20.2909     18.735   -81.975
20.5860     18.950   -76.207
20.8855     19.431   -69.023
21.1893     20.406   -63.903
21.4975     21.214   -61.799
21.8102     21.634   -59.866
22.1274     21.879   -55.691
22.4492     22.381   -49.218
22.7758     23.401   -43.315
23.1071     24.557   -40.958
23.4432     25.343   -40.671
23.7841     25.769   -39.368
24.1301     26.190   -36.429
24.4811     26.713   -33.165
24.8372     27.218   -29.907
25.1984     27.714   -25.805
25.5649     28.399   -20.948
25.9368     29.314   -17.021
26.3141     30.208   -14.860
26.6968     30.890   -13.174
27.0851     31.494   -10.612
27.4791     32.200    -7.934
27.8788     32.860    -6.082
28.2843     33.366    -3.859
28.6957     33.898    -0.576
29.1131     34.562     2.739
29.5365     35.251     5.444
29.9661     35.886     7.895
30.4020     36.474    10.412
30.8442     37.037    13.213
31.2929     37.627    16.230
31.7480     38.252    19.053
32.2098     38.832    21.480
32.6783     39.303    24.351
33.1536     39.841    28.008
33.6359     40.484    31.288
34.1251     41.062    34.076
34.6215     41.602    37.257
35.1250     42.177    40.563
35.6359     42.766    43.776
36.1543     43.350    46.854
36.6802     43.908    49.980
37.2137     44.473    53.173
37.7550     45.022    56.360
38.3041     45.575    59.684
38.8613     46.130    62.963
39.4265     46.686    66.264
40.0000     47.229    69.443
40.5818     47.753    72.743
41.1721     48.271    75.891
41.7710     48.739    79.171
42.3785     49.216    82.608
42.9949     49.669    85.986
43.6203     50.056    89.483
44.2548     50.441    93.913
44.8985     50.943    98.140
45.5515     51.409   102.180
46.2141     51.859   106.223
46.8863     52.278   110.645
47.5683     52.747   115.182
48.2602     53.231   119.623
48.9621     53.683   124.093
49.6743     54.170   128.609
50.3968     54.607   133.034
51.1299     55.055   137.707
51.8736     55.495   142.361
52.6281     55.923   147.093
53.3936     56.350   151.902
54.1702     56.757   156.809
54.9581     57.171   161.818
55.7575     57.572   166.907
56.5685     57.970   172.071
57.3914     58.354   177.331
58.2261     58.735  -177.240
59.0730     59.111  -171.800
59.9323     59.470  -166.122
60.8040     59.836  -160.388
61.6884     60.200  -154.400
62.5857     60.567  -148.429
63.4960     60.942  -142.332
64.4196     61.298  -136.250
65.3566     61.644  -130.006
66.3073     61.988  -123.667
67.2717     62.315  -117.212
68.2502     62.640  -110.612
69.2429     62.960  -103.878
70.2501     63.286   -96.995
71.2719     63.603   -90.051
72.3086     63.934   -83.052
73.3603     64.238   -76.050
74.4274     64.521   -68.931
75.5099     64.788   -61.621
76.6083     65.025   -54.148
77.7226     65.256   -46.276
78.8531     65.511   -38.180
80.0000     65.783   -30.053
81.1636     66.054   -21.881
82.3442     66.315   -13.649
83.5419     66.568    -5.358
84.7570     66.795     2.984
85.9899     66.993    11.509
87.2406     67.178    20.313
88.5096     67.364    29.303
89.7970     67.548    38.394
91.1031     67.716    47.485
92.4282     67.839    56.666
93.7726     67.910    66.132
95.1366     67.946    76.178
96.5204     68.013    86.719
97.9243     68.098    97.418
99.3486     68.190   108.303
100.794     68.274   119.313
102.260     68.357   130.525
103.747     68.429   141.925
105.256     68.495   153.525
106.787     68.553   165.278
108.340     68.587   177.153
109.916     68.562  -170.664
111.515     68.531  -157.771
113.137     68.546  -144.612
114.783     68.556  -131.315
116.452     68.555  -117.715
118.146     68.564  -103.771
119.865     68.578   -89.623
121.608     68.585   -75.233
123.377     68.596   -60.546
125.171     68.607   -45.652
126.992     68.618   -30.496
128.839     68.626   -15.145
130.713     68.620     0.374
132.615     68.573    16.249
134.543     68.526    32.547
136.500     68.505    49.105
138.486     68.486    66.411
140.500     68.436    83.544
142.544     68.371   100.887
144.617     68.335   119.042
146.721     68.287   137.738
148.855     68.298   156.443
151.020     68.319   174.960
153.217     68.245  -166.081
155.445     68.219  -146.252
157.706     68.214  -126.801
160.000     68.000  -107.162
162.327     67.841   -85.707
164.688     67.831   -63.673
167.084     67.842   -41.670
169.514     67.903   -20.610
171.980     67.750     0.810
174.481     67.589    24.215
177.019     67.533    48.429
179.594     67.550    72.547
182.206     67.558    96.637
184.856     67.626   121.205
187.545     67.711   146.117
190.273     67.770   170.941
193.041     67.775  -163.923
195.849     67.776  -137.790
198.697     67.841  -111.873
201.587     67.851   -86.175
204.520     67.797   -62.747
207.494     67.600   -37.434
210.512     67.334   -10.933
213.574     67.468    14.825
216.681     67.558    39.858
219.833     67.509    66.757
223.030     67.499    95.221
226.274     67.550   122.932
229.565     67.560   150.301
232.905     67.508   178.510
236.292     67.421  -152.556
239.729     67.343  -123.061
243.216     67.458   -92.288
246.754     67.540   -62.742
250.343     67.580   -31.862
253.984     67.483    -0.032
257.678     67.402    32.100
261.426     67.384    65.760
265.229     67.341    98.901
269.087     67.174   132.421
273.001     67.104   167.323
276.972     67.231  -157.886
281.000     67.101  -121.433
285.088     67.240   -84.098
289.234     67.418   -46.182
293.441     67.655    -8.785
297.709     67.609    27.108
302.040     67.332    64.099
306.433     67.193   105.042
310.890     67.289   148.630
315.412     67.499  -171.041
320.000     67.445  -129.755
324.655     67.323   -88.062
329.377     67.364   -46.234
334.168     67.550    -0.554
339.028     67.238    43.347
343.959     67.329    90.292
348.962     67.352   136.601
354.038     67.381  -176.608
359.188     67.571  -129.169
364.412     67.583   -80.548
369.713     67.507   -31.935
375.090     67.432    19.034
380.546     67.538    71.250
386.081     67.808   122.096
391.697     67.579   175.295
397.394     67.748  -128.176
403.175     67.768   -74.173
409.039     67.967   -18.084
414.989     68.032    40.000
421.025     68.240    97.664
427.149     68.464   155.464
433.362     68.700  -147.364
439.665     68.954   -87.138
446.060     69.101   -26.805
452.548     69.254    33.301
459.131     69.343    95.382
465.809     69.432   159.351
472.584     69.462  -137.312
479.458     69.491   -73.476
486.432     69.452    -8.030
493.507     69.422    59.758
500.686     69.393   128.895
507.968     69.317  -161.952
515.357     69.192   -92.385
522.853     69.079   -21.128
530.458     68.983    52.331
538.174     68.876   125.859
546.002     68.785  -160.509
553.943     68.670   -84.808
562.001     68.574    -7.292
570.175     68.457    72.173
578.469     68.363   153.493
586.883     68.277  -124.665
595.419     68.168   -42.964
604.080     68.095    40.782
612.866     68.031   126.300
621.780     67.991  -146.137
630.824     67.949   -56.701
640.000     67.935    32.537
649.309     67.945   122.247
658.753     67.945  -146.597
668.335     67.970   -51.764
678.056     68.009    42.912
687.919     68.050   139.490
697.925     68.079  -122.244
708.077     68.100   -24.190
718.376     68.146    75.674
728.825     68.131   177.440
739.426     68.118   -79.231
750.181     68.089    26.006
761.093     68.004   133.148
772.163     67.909  -119.937
783.394     67.794   -10.872
794.789     67.629   101.904
806.349     67.434  -145.205
818.078     67.231   -30.151
829.977     66.980    86.939
842.050     66.744  -153.903
854.298     66.474   -32.496
866.724     66.239    89.178
879.330     66.045  -145.103
892.120     65.846   -17.288
905.097     65.721   112.553
918.262     65.639  -115.790
931.618     65.617    17.696
945.169     65.635   152.773
958.917     65.674   -70.468
972.864     65.721    67.632
987.015     65.771  -152.654
1001.37     65.778    -9.655
1015.94     65.763   134.956
1030.71     65.690   -80.614
1045.71     65.585    67.410
1060.92     65.405  -140.781
1076.35     65.182    11.101
1092.00     64.893   165.137
1107.89     64.579   -37.024
1124.00     64.259   123.101
1140.35     63.926   -74.614
1156.94     63.618    91.546
1173.77     63.354  -100.218
1190.84     63.098    69.759
1208.16     62.883  -118.567
1225.73     62.657    56.622
1243.56     62.414  -124.990
1261.65     62.156    55.182
1280.00     61.835  -122.772
1298.62     61.367    60.998
1317.51     60.921  -111.240
1336.67     60.406    80.712
1356.11     59.867   -84.433
1375.84     59.386   114.605
1395.85     58.957   -42.171
1416.15     58.711   162.758
1436.75     58.579     9.450
1457.65     58.494  -141.320
1478.85     58.412    71.592
1500.36     58.215   -74.825
1522.19     57.980   142.641
1544.33     57.594     4.155
1566.79     57.152  -129.690
1589.58     56.800   100.987
1612.70     56.625   -25.656
1636.16     56.660  -148.123
1659.95     56.913    91.092
1684.10     57.308   -27.219
1708.60     57.558  -143.768
1733.45     57.643   100.113
1758.66     57.493   -11.281
1784.24     57.009  -118.597
1810.19     56.183   136.474
1836.52     55.096    38.883
1863.24     53.850   -52.073
1890.34     52.691  -136.332
1917.83     52.005   145.592
1945.73     51.705    70.411
1974.03     51.566    -0.206
2002.74     51.279   -68.345
2031.87     50.868  -132.490
2061.43     50.479   170.687
2091.41     50.352   120.898
2121.83     50.939    75.414
2152.69     51.842    28.855
2184.01     52.502   -15.317
2215.77     52.853   -55.948
2248.00     52.865   -92.163
2280.70     52.676  -122.771
2313.87     52.652  -146.290
2347.53     53.016  -163.953
2381.68     53.609   179.556
2416.32     54.185   166.038
2451.46     54.439   156.123
2487.12     54.285   151.370
2523.30     53.738   152.823
2560.00     53.028   161.548
2597.24     52.220   176.378
2635.01     51.579  -160.921
2673.34     51.275  -131.306
2712.23     51.321   -95.599
2751.68     51.859   -54.426
2791.70     52.599   -10.018
2832.31     53.238    37.078
2873.50     53.624    88.103
2915.30     53.705   144.225
2957.70     53.599  -150.440
3000.72     53.563   -78.057
3044.37     53.761    -0.041
3088.65     54.153    84.515
3133.58     54.446   173.235
3179.16     54.577   -90.432
3225.40     54.661    13.842
3272.31     54.959   123.924
3319.91     55.365  -120.057
3368.20     55.626     1.283
3417.19     55.522   126.940
3466.89     55.052   -99.062
3517.32     54.319    46.227
3568.48     53.694  -160.952
3620.39     53.225     0.059
3673.05     52.937   169.539
3726.47     52.668   -14.190
3780.67     52.390   167.338
3835.67     51.776    -5.402
3891.46     50.285  -168.453
3948.06     48.022    42.111
4005.49     46.562   -87.214
4063.75     47.108   152.607
4122.86     47.922    28.834
4182.82     47.766   -89.968
4243.66     47.048   165.554
4305.39     46.398    73.678
4368.01     46.325    -5.248
4431.55     47.431   -76.378
4496.01     49.050  -147.569
4561.40     49.675   145.206
4627.75     49.282    88.550
4695.06     48.816    48.029
4763.35     48.761    17.294
4832.64     49.030    -5.352
4902.93     49.468   -20.513
4974.24     49.460   -29.781
5046.60     48.407   -30.082
5120.00     47.209   -14.053
5194.47     46.419    10.844
5270.03     45.103    42.802
5346.68     43.997    89.614
5424.45     43.683   139.532
5503.35     41.707  -170.474
5583.40     37.355  -101.684
5664.61     33.468   -15.842
5747.01     23.875   127.537
5830.60     24.626   -63.548
5915.41     28.910     8.759
6001.45     26.386    -8.233
6088.74     33.020    65.444
6177.30     34.648  -157.066
6267.15     37.199    13.513
6358.31     38.095  -174.986
6450.80     36.218    41.487
6544.62     39.884   -91.933
6639.82     40.683   132.660
6736.40     41.660    26.734
6834.38     42.222   -78.186
6933.79     42.084  -157.676
7034.64     42.276   130.845
7136.96     40.893    88.285
7240.77     42.810    57.714
7346.09     42.635    37.348
7452.94     42.991    34.229
7561.35     43.275    51.553
7671.33     44.696    76.852
7782.91     43.793   116.432
7896.12     43.944   179.326
8010.97     43.942   -97.281
8127.49     44.406    -3.348
8245.71     43.461   113.414
8365.65     44.302  -110.996
8487.33     44.730    35.261
8610.78     42.985  -167.820
8736.03     41.105    30.752
8863.09     40.816  -120.203
8992.01     39.709   106.967
9122.80     39.042     3.162
9255.50     39.844   -96.923
9390.12     38.123  -171.414
9526.70     37.961   145.771
9665.27     39.036   109.675
9805.86     39.076    89.306
9948.49     38.608    93.114
10093.2     38.163   117.763
10240.0     37.453   169.150
10388.9     37.802  -121.326
10540.1     37.871   -33.243
10693.4     36.925    76.871
10848.9     35.368  -145.876
11006.7     34.443    17.303
11166.8     33.284  -152.997
11329.2     33.541    72.755
11494.0     35.478   -54.468
11661.2     36.508  -166.010
11830.8     37.081   102.828
12002.9     36.643    41.623
12177.5     36.551     4.475
12354.6     35.855    -2.391
12534.3     35.592    22.058
12716.6     35.838    71.464
12901.6     37.499   145.648
13089.2     37.479  -120.583
13279.6     37.748    16.256
13472.8     37.949   169.800
13668.8     37.977    -7.721
13867.6     36.634  -155.244
14069.3     35.054    97.793
14273.9     34.710    20.950
14481.5     35.691   -26.094
14692.2     36.733   -55.433
14905.9     36.878   -55.295
15122.7     36.061   -33.951
15342.7     35.167    25.541
15565.8     34.140   117.939
15792.2     34.166  -102.074
16021.9     35.623    67.794
16255.0     36.371   -89.367
16491.4     36.319   141.090
16731.3     35.006    47.818
16974.7     32.670     2.433
17221.6     32.233    15.572
17472.1     34.450    49.026
17726.2     37.104   108.766
17984.0     36.603   179.087
18245.6     31.183   -62.888
18511.0     26.482  -111.798
18780.2     22.199    79.198
19053.4     24.064   -79.827
19330.5     24.571    74.667
19611.7     26.601     0.686
19897.0     27.440   -20.143
20186.4     21.648  -107.471
20480.0     20.685   -17.097
20777.9     23.227     9.539
21080.1     24.098  -162.942
21386.7     23.797  -123.214
21697.8     25.990  -108.953
22013.4     27.262   176.480
22333.6     24.926  -122.572
22658.4     25.471    78.998
22988.0     23.496     1.757
23322.4     19.429   171.075
23661.6     19.651  -147.286
24005.8     20.129   -85.888
24355.0     23.884   167.128
24709.2     23.094   155.482
25068.6     25.245  -176.214
25433.2     34.570    34.632
25803.2     36.827   161.226
26178.5     35.936     3.672
26559.3     36.029   -93.741
26945.6     35.117  -158.416
27337.5     32.776  -173.415
27735.2     31.954  -122.162
28138.6     34.218    -4.278
28547.9     31.446   161.100
28963.1     26.197    27.390
29384.4     21.446  -123.557
29811.8     23.156    57.958
30245.4     23.303   149.026
30685.3     24.457   -45.192
31131.7     21.922    86.534
31584.5     20.692    16.594
32043.9     21.178    36.513
32510.0     19.775   154.222
32982.8     19.934  -141.917
33462.6     19.917    19.333
33949.3     21.063   166.159
34443.1     20.671  -166.914
34944.1     20.616    69.843
35452.4     20.813  -135.892
35968.0     20.077   -25.291
36491.2     19.911    14.834
37022.0     20.731   165.155
37560.5     20.842    51.750
38106.8     19.935   -75.956
38661.1     20.514   -37.751
39223.4     22.120  -120.996
39793.9     20.862  -178.567
