Freq[Hz]     dBSPL  Phase[Deg]
5.00000    -18.334    81.380
5.07273    -18.187    84.680
5.14651    -18.050    88.264
5.22137    -17.942    92.642
5.29732    -17.834    97.020
5.37437    -17.725   101.397
5.45254    -17.617   105.775
5.53185    -17.359   109.885
5.61231    -16.944   113.712
5.69394    -16.529   117.539
5.77676    -16.114   121.366
5.86079    -15.706   125.172
5.94604    -15.746   127.769
6.03252    -15.785   130.365
6.12027    -15.825   132.962
6.20929    -15.865   135.558
6.29961    -15.661   142.779
6.39124    -15.403   151.026
6.48420    -15.145   159.272
6.57851    -14.887   167.518
6.67420    -14.204   170.133
6.77128    -13.451   171.834
6.86977    -12.699   173.535
6.96969    -12.107   175.526
7.07107    -12.736   179.727
7.17392    -13.365  -176.071
7.27827    -13.994  -171.870
7.38413    -13.595  -163.536
7.49154    -12.402  -152.009
7.60050    -11.209  -140.482
7.71105    -10.132  -131.479
7.82321     -9.567  -133.562
7.93701     -9.001  -135.645
8.05245     -8.436  -137.729
8.16958     -9.400  -125.106
8.28841    -10.421  -111.935
8.40896    -11.442   -98.764
8.53128     -9.307   -90.989
8.65537     -6.764   -83.910
8.78126     -4.221   -76.831
8.90899     -4.307   -79.082
9.03857     -4.566   -81.944
9.17004     -4.696   -81.509
9.30342     -3.813   -54.820
9.43874     -2.929   -28.131
9.57603     -1.107   -12.644
9.71532      2.147   -14.270
9.85663      5.401   -15.897
10.0000      6.990   -18.201
10.1455      8.117   -20.694
10.2930      9.344   -21.816
10.4427     10.855   -19.112
10.5946     12.365   -16.407
10.7487     14.242   -20.261
10.9051     16.193   -25.424
11.0637     17.640   -33.204
11.2246     18.555   -43.753
11.3879     19.181   -54.115
11.5535     18.754   -63.797
11.7216     18.308   -73.303
11.8921     16.779   -72.420
12.0650     15.250   -71.537
12.2405     15.647   -60.526
12.4186     16.293   -48.209
12.5992     17.794   -46.906
12.7825     19.485   -48.047
12.9684     20.473   -53.198
13.1570     21.296   -59.283
13.3484     21.602   -65.888
13.5426     21.823   -72.579
13.7395     21.450   -79.393
13.9394     20.942   -85.883
14.1421     19.578   -89.855
14.3478     18.054   -89.478
14.5565     16.187   -79.744
14.7683     16.089   -66.105
14.9831     17.358   -49.451
15.2010     19.317   -47.041
15.4221     21.213   -48.269
15.6464     22.321   -54.791
15.8740     22.939   -61.890
16.1049     23.167   -69.451
16.3392     22.692   -74.852
16.5768     22.098   -78.009
16.8179     21.367   -78.028
17.0626     21.168   -75.127
17.3107     21.196   -72.692
17.5625     21.464   -71.537
17.8180     21.598   -71.068
18.0771     21.801   -70.128
18.3401     22.105   -68.895
18.6068     22.622   -69.272
18.8775     22.940   -71.115
19.1521     23.056   -72.936
19.4306     22.975   -73.778
19.7133     22.989   -72.667
20.0000     23.122   -71.607
20.2909     23.255   -70.117
20.5860     23.445   -67.683
20.8855     23.901   -63.881
21.1893     24.850   -62.192
21.4975     25.632   -63.570
21.8102     26.027   -65.169
22.1274     26.246   -64.577
22.4492     26.722   -61.740
22.7758     27.716   -59.526
23.1071     28.847   -60.910
23.4432     29.607   -64.420
23.7841     30.007   -66.969
24.1301     30.403   -67.937
24.4811     30.900   -68.638
24.8372     31.380   -69.402
25.1984     31.850   -69.381
25.5649     32.510   -68.664
25.9368     33.400   -68.937
26.3141     34.268   -71.038
26.6968     34.924   -73.675
27.0851     35.502   -75.499
27.4791     36.182   -77.271
27.8788     36.817   -79.934
28.2843     37.297   -82.292
28.6957     37.803   -83.656
29.1131     38.443   -85.056
29.5365     39.106   -87.134
29.9661     39.716   -89.536
30.4020     40.278   -91.942
30.8442     40.814   -94.136
31.2929     41.379   -96.186
31.7480     41.978   -98.505
32.2098     42.532  -101.294
32.6783     42.978  -103.716
33.1536     43.491  -105.428
33.6359     44.108  -107.594
34.1251     44.661  -110.332
34.6215     45.175  -112.758
35.1250     45.724  -115.140
35.6359     46.288  -117.699
36.1543     46.846  -120.476
36.6802     47.379  -123.290
37.2137     47.918  -126.124
37.7550     48.442  -129.050
38.3041     48.969  -131.930
38.8613     49.498  -134.944
39.4265     50.028  -138.029
40.0000     50.546  -141.326
40.5818     51.044  -144.599
41.1721     51.536  -148.119
41.7710     51.979  -151.603
42.3785     52.430  -155.029
42.9949     52.857  -158.614
43.6203     53.220  -162.181
44.2548     53.579  -164.917
44.8985     54.055  -167.961
45.5515     54.495  -171.298
46.2141     54.920  -174.740
46.8863     55.313  -177.910
47.5683     55.757   178.924
48.2602     56.215   175.549
48.9621     56.641   172.090
49.6743     57.103   168.561
50.3968     57.514   164.825
51.1299     57.936   161.218
51.8736     58.351   157.471
52.6281     58.754   153.680
53.3936     59.155   149.842
54.1702     59.536   145.977
54.9581     59.924   142.085
55.7575     60.300   138.145
56.5685     60.672   134.148
57.3914     61.030   130.113
58.2261     61.386   126.114
59.0730     61.737   121.987
59.9323     62.070   117.959
60.8040     62.410   113.847
61.6884     62.748   109.845
62.5857     63.090   105.680
63.4960     63.439   101.494
64.4196     63.769    97.144
65.3566     64.090    92.803
66.3073     64.409    88.405
67.2717     64.710    83.966
68.2502     65.010    79.513
69.2429     65.303    75.033
70.2501     65.604    70.540
71.2719     65.896    65.941
72.3086     66.201    61.231
73.3603     66.479    56.352
74.4274     66.737    51.418
75.5099     66.978    46.500
76.6083     67.189    41.566
77.7226     67.395    36.852
78.8531     67.624    32.178
80.0000     67.871    27.349
81.1636     68.116    22.378
82.3442     68.351    17.274
83.5419     68.579    12.037
84.7570     68.780     6.653
85.9899     68.952     1.252
87.2406     69.112    -4.071
88.5096     69.273    -9.416
89.7970     69.430   -14.866
91.1031     69.573   -20.529
92.4282     69.671   -26.316
93.7726     69.716   -32.036
95.1366     69.726   -37.397
96.5204     69.767   -42.487
97.9243     69.827   -47.646
99.3486     69.893   -52.850
100.794     69.952   -58.163
102.260     70.009   -63.512
103.747     70.056   -68.913
105.256     70.095   -74.359
106.787     70.128   -79.898
108.340     70.136   -85.569
109.916     70.086   -91.186
111.515     70.029   -96.352
113.137     70.019  -101.515
114.783     70.003  -106.806
116.452     69.976  -112.065
118.146     69.960  -117.255
119.865     69.948  -122.518
121.608     69.930  -127.821
123.377     69.915  -133.115
125.171     69.901  -138.491
126.992     69.886  -143.901
128.839     69.868  -149.415
130.713     69.836  -155.064
132.615     69.765  -160.665
134.543     69.692  -166.155
136.500     69.645  -171.703
138.486     69.600  -176.824
140.500     69.525   177.556
142.544     69.434   171.815
144.617     69.372   166.550
146.721     69.299   161.486
148.855     69.284   156.085
151.020     69.280   150.145
153.217     69.180   144.291
155.445     69.128   138.947
157.706     69.098   132.859
160.000     68.858   126.586
162.327     68.674   121.753
164.688     68.638   117.117
167.084     68.623   112.062
169.514     68.659   105.670
171.980     68.481    99.239
174.481     68.294    94.388
177.019     68.212    89.934
179.594     68.203    84.968
182.206     68.185    79.551
184.856     68.228    74.183
187.545     68.288    68.722
190.273     68.321    62.734
193.041     68.300    56.608
195.849     68.276    51.024
198.697     68.315    44.763
201.587     68.300    37.816
204.520     68.133    30.874
207.494     67.955    25.679
210.512     67.727    20.624
213.574     67.794    14.896
216.681     67.826     9.822
219.833     67.750     4.867
223.030     67.686    -0.503
226.274     67.747    -6.746
229.565     67.757   -12.794
232.905     67.656   -18.382
236.292     67.622   -23.147
239.729     67.508   -28.414
243.216     67.505   -33.300
246.754     67.604   -39.407
250.343     67.572   -45.493
253.984     67.389   -51.521
257.678     67.340   -57.040
261.426     67.332   -62.476
265.229     67.291   -68.303
269.087     67.075   -73.665
273.001     66.957   -77.905
276.972     67.042   -82.069
281.000     66.809   -86.583
285.088     66.889   -92.616
289.234     67.068   -97.661
293.441     67.275  -103.261
297.709     67.259  -110.024
302.040     66.876  -115.345
306.433     66.627  -119.596
310.890     66.731  -122.862
315.412     66.918  -128.883
320.000     66.802  -134.179
324.655     66.670  -138.925
329.377     66.602  -143.267
334.168     66.721  -148.458
339.028     66.409  -154.210
343.959     66.323  -157.868
348.962     66.389  -161.894
354.038     66.294  -165.193
359.188     66.476  -169.881
364.412     66.380  -174.960
369.713     66.226   179.774
375.090     66.076   176.761
380.546     66.079   173.568
386.081     66.252   168.429
391.697     65.923   164.254
397.394     65.985   161.419
403.175     65.881   157.783
409.039     65.990   154.664
414.989     65.924   151.599
421.025     65.989   148.325
427.149     66.068   144.950
433.362     66.149   141.121
439.665     66.246   136.625
446.060     66.230   132.446
452.548     66.169   127.954
459.131     66.059   123.643
465.809     65.954   119.269
472.584     65.757   114.694
479.458     65.585   110.460
486.432     65.300   106.417
493.507     65.006   102.632
500.686     64.731    98.723
507.968     64.405    95.051
515.357     64.049    91.893
522.853     63.643    89.151
530.458     63.296    86.422
538.174     63.019    84.348
546.002     62.726    82.902
553.943     62.452    81.239
562.001     62.275    80.163
570.175     62.130    79.171
578.469     62.066    78.397
586.883     62.050    77.493
595.419     62.088    76.401
604.080     62.229    75.126
612.866     62.364    73.521
621.780     62.539    71.589
630.824     62.713    69.146
640.000     62.886    66.495
649.309     63.037    63.495
658.753     63.160    60.138
668.335     63.238    56.668
678.056     63.286    52.814
687.919     63.277    49.103
697.925     63.184    45.293
708.077     63.058    41.508
718.376     62.872    37.938
728.825     62.614    34.484
739.426     62.339    31.529
750.181     62.018    29.083
761.093     61.658    27.309
772.163     61.324    25.981
783.394     61.034    25.519
794.789     60.847    25.697
806.349     60.770    26.130
818.078     60.861    26.566
829.977     61.069    26.896
842.050     61.363    26.341
854.298     61.759    25.075
866.724     62.149    22.975
879.330     62.535    20.070
892.120     62.855    16.535
905.097     63.123    12.507
918.262     63.269     8.103
931.618     63.354     3.538
945.169     63.315    -1.090
958.917     63.199    -5.439
972.864     62.984    -9.557
987.015     62.722   -13.115
1001.37     62.425   -16.041
1015.94     62.151   -18.132
1030.71     61.921   -19.653
1045.71     61.849   -20.647
1060.92     61.870   -21.634
1076.35     62.044   -23.226
1092.00     62.283   -25.398
1107.89     62.560   -28.797
1124.00     62.805   -33.026
1140.35     62.949   -38.041
1156.94     62.980   -43.701
1173.77     62.841   -49.735
1190.84     62.556   -55.656
1208.16     62.086   -61.250
1225.73     61.469   -66.029
1243.56     60.702   -69.530
1261.65     59.913   -71.296
1280.00     59.256   -71.081
1298.62     58.872   -69.337
1317.51     58.824   -67.725
1336.67     59.087   -67.671
1356.11     59.492   -69.719
1375.84     59.855   -73.450
1395.85     59.989   -78.616
1416.15     59.907   -84.846
1436.75     59.594   -90.458
1457.65     58.995   -95.536
1478.85     58.229   -98.759
1500.36     57.425   -99.985
1522.19     56.911   -98.729
1544.33     56.785   -96.726
1566.79     57.068   -96.072
1589.58     57.493   -98.128
1612.70     57.842  -102.640
1636.16     57.936  -108.652
1659.95     57.677  -115.175
1684.10     57.078  -121.111
1708.60     56.233  -125.196
1733.45     55.353  -126.149
1758.66     54.770  -124.243
1784.24     54.725  -121.842
1810.19     55.089  -121.986
1836.52     55.501  -125.396
1863.24     55.611  -131.311
1890.34     55.270  -138.237
1917.83     54.508  -143.774
1945.73     53.286  -145.646
1974.03     52.178  -142.332
2002.74     51.987  -135.720
2031.87     52.795  -131.817
2061.43     53.798  -133.518
2091.41     54.355  -139.827
2121.83     54.331  -147.894
2152.69     53.634  -154.340
2184.01     52.544  -156.440
2215.77     51.781  -152.355
2248.00     52.084  -146.676
2280.70     53.171  -146.113
2313.87     54.025  -151.652
2347.53     54.247  -159.533
2381.68     53.747  -166.343
2416.32     52.885  -168.350
2451.46     52.585  -165.228
2487.12     53.244  -162.673
2523.30     54.223  -166.059
2560.00     54.714  -173.577
2597.24     54.547   179.332
2635.01     54.075   176.256
2673.34     54.139   176.567
2712.23     54.926   174.660
2751.68     55.709   167.034
2791.70     55.807   156.600
2832.31     55.121   147.735
2873.50     54.195   144.363
2915.30     53.972   144.765
2957.70     54.438   141.538
3000.72     54.498   133.610
3044.37     53.730   126.139
3088.65     52.690   124.851
3133.58     52.540   127.286
3179.16     52.969   124.628
3225.40     52.785   118.832
3272.31     52.027   116.778
3319.91     52.044   119.374
3368.20     52.733   117.229
3417.19     52.656   110.578
3466.89     51.939   109.091
3517.32     52.311   113.395
3568.48     53.563   109.086
3620.39     53.691    98.460
3673.05     52.629    94.195
3726.47     52.737    98.395
3780.67     53.985    93.540
3835.67     53.844    81.442
3891.46     52.488    78.848
3948.06     52.909    83.705
4005.49     53.995    75.038
4063.75     52.955    62.888
4122.86     51.527    67.496
4182.82     52.876    69.850
4243.66     53.135    56.241
4305.39     51.110    52.618
4368.01     51.509    61.676
4431.55     52.568    50.846
4496.01     50.404    42.991
4561.40     50.164    58.292
4627.75     52.216    51.125
4695.06     50.769    40.186
4763.35     50.419    51.135
4832.64     52.177    42.732
4902.93     50.410    32.565
4974.24     50.381    44.443
5046.60     51.954    32.588
5120.00     49.590    24.565
5194.47     50.071    37.744
5270.03     50.933    23.592
5346.68     48.604    26.755
5424.45     50.764    32.287
5503.35     50.218    14.636
5583.40     48.786    24.185
5664.61     50.593    16.975
5747.01     48.308     9.050
5830.60     49.004    18.710
5915.41     48.597     4.268
6001.45     46.950    15.860
6088.74     48.563    10.534
6177.30     46.448     8.869
6267.15     47.748    17.129
6358.31     47.284     7.564
6450.80     47.215    14.451
6544.62     47.627     6.900
6639.82     46.855     9.426
6736.40     47.636     4.897
6834.38     46.126     1.398
6933.79     46.406     4.611
7034.64     45.015     3.240
7136.96     45.997    13.301
7240.77     45.804     7.878
7346.09     47.150    12.210
7452.94     46.653     1.725
7561.35     47.548     2.611
7671.33     46.157    -8.526
7782.91     46.826    -8.335
7896.12     44.253   -14.304
8010.97     45.227   -15.597
8127.49     41.815    -6.506
8245.71     42.753   -12.064
8365.65     42.431     9.292
8487.33     41.487    -4.757
8610.78     43.838     3.713
8736.03     41.126     1.315
8863.09     42.136   -11.827
8992.01     40.868     4.089
9122.80     38.118    -5.044
9255.50     39.615     1.728
9390.12     38.888    22.617
9526.70     39.753     8.896
9665.27     40.665     1.267
9805.86     38.891     5.399
9948.49     37.156     1.291
10093.2     37.438     2.571
10240.0     36.926    14.633
10388.9     36.669    20.232
10540.1     37.420    20.832
10693.4     38.032    23.912
10848.9     38.692    25.037
11006.7     38.860    21.064
11166.8     38.999    18.125
11329.2     38.516    18.948
11494.0     37.923    20.691
11661.2     37.689    25.023
11830.8     38.810    30.252
12002.9     40.290    30.760
12177.5     40.883    27.927
12354.6     41.052    24.261
12534.3     40.673    18.843
12716.6     40.185    16.103
12901.6     40.102    17.901
13089.2     40.536    18.153
13279.6     40.831    19.118
13472.8     41.556    17.944
13668.8     42.199    12.907
13867.6     42.103     5.676
14069.3     41.371     0.661
14273.9     40.708     1.683
14481.5     40.923     2.725
14692.2     41.481    -0.197
14905.9     41.820    -7.623
15122.7     41.361   -16.744
15342.7     40.192   -24.068
15565.8     38.802   -24.576
15792.2     38.255   -19.526
16021.9     38.680   -21.672
16255.0     38.869   -28.186
16491.4     38.148   -37.598
16731.3     36.453   -43.640
16974.7     34.320   -45.263
17221.6     32.850   -35.193
17472.1     33.806   -28.081
17726.2     34.448   -34.332
17984.0     33.734   -46.404
18245.6     31.816   -53.436
18511.0     29.706   -49.277
18780.2     29.040   -47.308
19053.4     28.698   -50.872
19330.5     28.329   -46.057
19611.7     27.690   -53.183
19897.0     24.729   -52.609
20186.4     24.901   -37.601
20480.0     25.179   -39.752
20777.9     24.523   -42.714
21080.1     23.623   -36.417
21386.7     23.608   -31.772
21697.8     24.464   -21.836
22013.4     24.959  -153.369
22333.6     26.700   -14.280
22658.4     27.865   -23.736
22988.0     29.502   -30.375
23322.4     29.997   -33.711
23661.6     30.895   -42.591
24005.8     31.804   138.543
24355.0     32.760   -58.614
24709.2     33.673   -69.025
25068.6     33.430   -83.306
25433.2     32.879   -87.561
25803.2     35.108   -89.217
26178.5     37.766  -108.168
26559.3     38.260  -130.314
26945.6     37.615  -148.802
27337.5     37.471  -161.383
27735.2     37.187  -177.613
28138.6     36.045   166.233
28547.9     34.817   154.128
28963.1     33.770   142.312
29384.4     32.684   132.515
29811.8     31.437   120.442
30245.4     29.482   109.973
30685.3     28.894   100.169
31131.7     26.264    77.721
31584.5     24.148   163.315
32043.9     20.647  -172.344
32510.0     16.883  -150.163
32982.8     18.052   -88.248
33462.6     17.619     9.656
33949.3     17.421   113.126
34443.1     16.327   -72.685
34944.1     16.273   147.081
35452.4     16.229    90.708
35968.0     17.056   151.629
36491.2     16.975   -29.894
37022.0     15.742  -177.585
37560.5     17.588    56.580
38106.8     15.392   -61.657
38661.1     16.509    51.556
39223.4     15.256  -106.211
39793.9     15.948    29.370
