Freq[Hz]     dBSPL  Phase[Deg]
5.00000    -17.328    83.230
5.07273    -17.185    86.534
5.14651    -17.052    90.123
5.22137    -16.947    94.505
5.29732    -16.842    98.887
5.37437    -16.737   103.269
5.45254    -16.632   107.651
5.53185    -16.378   111.766
5.61231    -15.967   115.598
5.69394    -15.555   119.430
5.77676    -15.144   123.261
5.86079    -14.739   127.072
5.94604    -14.783   129.674
6.03252    -14.826   132.276
6.12027    -14.870   134.878
6.20929    -14.913   137.479
6.29961    -14.713   144.705
6.39124    -14.458   152.957
6.48420    -14.204   161.209
6.57851    -13.949   169.461
6.67420    -13.270   172.082
6.77128    -12.521   173.788
6.86977    -11.772   175.494
6.96969    -11.184   177.491
7.07107    -11.816  -178.301
7.17392    -12.449  -174.094
7.27827    -13.081  -169.887
7.38413    -12.686  -161.546
7.49154    -11.497  -150.013
7.60050    -10.307  -138.479
7.71105     -9.234  -129.470
7.82321     -8.672  -131.546
7.93701     -8.110  -133.623
8.05245     -7.548  -135.700
8.16958     -8.516  -123.070
8.28841     -9.541  -109.892
8.40896    -10.566   -96.714
8.53128     -8.434   -88.931
8.65537     -5.894   -81.845
8.78126     -3.355   -74.760
8.90899     -3.445   -77.003
9.03857     -3.707   -79.858
9.17004     -3.841   -79.414
9.30342     -2.961   -52.717
9.43874     -2.081   -26.021
9.57603     -0.263   -10.526
9.71532      2.987   -12.144
9.85663      6.238   -13.762
10.0000      7.824   -16.058
10.1455      8.947   -18.542
10.2930     10.171   -19.656
10.4427     11.677   -16.942
10.5946     13.184   -14.229
10.7487     15.058   -18.074
10.9051     17.004   -23.228
11.0637     18.448   -30.999
11.2246     19.359   -41.538
11.3879     19.982   -51.890
11.5535     19.551   -61.563
11.7216     19.102   -71.059
11.8921     17.569   -70.166
12.0650     16.037   -69.273
12.2405     16.430   -58.251
12.4186     17.072   -45.924
12.5992     18.570   -44.611
12.7825     20.257   -45.740
12.9684     21.241   -50.880
13.1570     22.061   -56.954
13.3484     22.363   -63.549
13.5426     22.581   -70.228
13.7395     22.205   -77.031
13.9394     21.693   -83.508
14.1421     20.325   -87.469
14.3478     18.797   -87.079
14.5565     16.927   -77.333
14.7683     16.826   -63.682
14.9831     18.091   -47.015
15.2010     20.046   -44.593
15.4221     21.939   -45.808
15.6464     23.043   -52.316
15.8740     23.658   -59.403
16.1049     23.881   -66.950
16.3392     23.403   -72.337
16.5768     22.805   -75.481
16.8179     22.071   -75.484
17.0626     21.869   -72.570
17.3107     21.893   -70.120
17.5625     22.157   -68.951
17.8180     22.288   -68.466
18.0771     22.487   -67.511
18.3401     22.787   -66.263
18.6068     23.301   -66.624
18.8775     23.616   -68.451
19.1521     23.727   -70.256
19.4306     23.643   -71.081
19.7133     23.653   -69.954
20.0000     23.783   -68.877
20.2909     23.913   -67.370
20.5860     24.099   -64.919
20.8855     24.551   -61.099
21.1893     25.496   -59.393
21.4975     26.275   -60.752
21.8102     26.666   -62.333
22.1274     26.881   -61.723
22.4492     27.354   -58.866
22.7758     28.345   -56.633
23.1071     29.471   -57.998
23.4432     30.229   -61.488
23.7841     30.625   -64.017
24.1301     31.017   -64.965
24.4811     31.511   -65.646
24.8372     31.987   -66.389
25.1984     32.454   -66.346
25.5649     33.109   -65.608
25.9368     33.996   -65.860
26.3141     34.860   -67.938
26.6968     35.513   -70.552
27.0851     36.087   -72.354
27.4791     36.764   -74.103
27.8788     37.395   -76.742
28.2843     37.872   -79.076
28.6957     38.374   -80.416
29.1131     39.010   -81.791
29.5365     39.669   -83.845
29.9661     40.276   -86.221
30.4020     40.834   -88.603
30.8442     41.367   -90.770
31.2929     41.928   -92.794
31.7480     42.524   -95.086
32.2098     43.075   -97.848
32.6783     43.517  -100.242
33.1536     44.026  -101.926
33.6359     44.639  -104.065
34.1251     45.189  -106.774
34.6215     45.699  -109.171
35.1250     46.245  -111.524
35.6359     46.805  -114.052
36.1543     47.360  -116.799
36.6802     47.889  -119.582
37.2137     48.424  -122.385
37.7550     48.944  -125.279
38.3041     49.468  -128.127
38.8613     49.993  -131.109
39.4265     50.520  -134.159
40.0000     51.034  -137.424
40.5818     51.529  -140.662
41.1721     52.018  -144.147
41.7710     52.456  -147.596
42.3785     52.904  -150.987
42.9949     53.328  -154.535
43.6203     53.686  -158.066
44.2548     54.042  -160.765
44.8985     54.514  -163.771
45.5515     54.951  -167.070
46.2141     55.372  -170.472
46.8863     55.762  -173.603
47.5683     56.202  -176.730
48.2602     56.657   179.936
48.9621     57.079   176.518
49.6743     57.537   173.031
50.3968     57.945   169.338
51.1299     58.363   165.774
51.8736     58.774   162.070
52.6281     59.174   158.324
53.3936     59.571   154.531
54.1702     59.949   150.711
54.9581     60.333   146.865
55.7575     60.705   142.972
56.5685     61.074   139.022
57.3914     61.429   135.036
58.2261     61.781   131.086
59.0730     62.128   127.008
59.9323     62.457   123.031
60.8040     62.794   118.970
61.6884     63.129   115.019
62.5857     63.467   110.907
63.4960     63.812   106.775
64.4196     64.139   102.479
65.3566     64.456    98.193
66.3073     64.771    93.851
67.2717     65.069    89.468
68.2502     65.365    85.072
69.2429     65.655    80.651
70.2501     65.953    76.217
71.2719     66.240    71.678
72.3086     66.542    67.028
73.3603     66.816    62.212
74.4274     67.070    57.340
75.5099     67.308    52.485
76.6083     67.516    47.616
77.7226     67.718    42.967
78.8531     67.943    38.359
80.0000     68.186    33.598
81.1636     68.428    28.695
82.3442     68.659    23.661
83.5419     68.884    18.494
84.7570     69.081    13.181
85.9899     69.250     7.852
87.2406     69.406     2.602
88.5096     69.563    -2.668
89.7970     69.717    -8.043
91.1031     69.856   -13.629
92.4282     69.950   -19.339
93.7726     69.992   -24.980
95.1366     69.998   -30.261
96.5204     70.036   -35.269
97.9243     70.093   -40.346
99.3486     70.155   -45.467
100.794     70.210   -50.694
102.260     70.263   -55.957
103.747     70.307   -61.272
105.256     70.343   -66.629
106.787     70.372   -72.079
108.340     70.377   -77.658
109.916     70.323   -83.183
111.515     70.262   -88.255
113.137     70.248   -93.323
114.783     70.229   -98.518
116.452     70.199  -103.679
118.146     70.179  -108.769
119.865     70.163  -113.931
121.608     70.141  -119.132
123.377     70.123  -124.322
125.171     70.105  -129.593
126.992     70.087  -134.897
128.839     70.065  -140.302
130.713     70.030  -145.841
132.615     69.954  -151.330
134.543     69.878  -156.707
136.500     69.828  -162.140
138.486     69.779  -167.145
140.500     69.700  -172.647
142.544     69.606  -178.269
144.617     69.540   176.589
146.721     69.463   171.647
148.855     69.445   166.372
151.020     69.437   160.559
153.217     69.334   154.834
155.445     69.279   149.621
157.706     69.245   143.665
160.000     69.001   137.527
162.327     68.813   132.830
164.688     68.774   128.332
167.084     68.755   123.418
169.514     68.788   117.169
171.980     68.606   110.882
174.481     68.415   106.178
177.019     68.330   101.873
179.594     68.318    97.058
182.206     68.296    91.794
184.856     68.335    86.582
187.545     68.391    81.279
190.273     68.421    75.450
193.041     68.397    69.486
195.849     68.368    64.067
198.697     68.404    57.974
201.587     68.385    51.196
204.520     68.201    44.837
207.494     67.967    39.804
210.512     67.727    34.723
213.574     67.794    29.129
216.681     67.818    24.103
219.833     67.771    19.164
223.030     67.747    14.273
226.274     67.755     8.574
229.565     67.708     2.384
232.905     67.642    -3.306
236.292     67.631    -7.779
239.729     67.527   -12.815
243.216     67.525   -17.269
246.754     67.573   -23.251
250.343     67.579   -29.522
253.984     67.452   -34.973
257.678     67.357   -40.013
261.426     67.333   -45.408
265.229     67.299   -51.061
269.087     67.108   -56.290
273.001     67.016   -60.069
276.972     67.078   -64.010
281.000     66.906   -68.364
285.088     66.994   -73.564
289.234     67.137   -78.357
293.441     67.351   -83.519
297.709     67.301   -90.126
302.040     66.972   -95.291
306.433     66.747   -98.963
310.890     66.855  -101.725
315.412     67.045  -107.344
320.000     66.949  -112.092
324.655     66.790  -116.358
329.377     66.741  -120.521
334.168     66.901  -125.076
339.028     66.591  -130.358
343.959     66.550  -133.315
348.962     66.587  -136.748
354.038     66.529  -139.526
359.188     66.699  -143.607
364.412     66.625  -148.160
369.713     66.514  -152.951
375.090     66.387  -155.113
380.546     66.439  -157.742
386.081     66.620  -161.975
391.697     66.338  -165.493
397.394     66.431  -167.599
403.175     66.393  -170.342
409.039     66.532  -172.655
414.989     66.531  -174.881
421.025     66.682  -177.329
427.149     66.835  -179.505
433.362     66.985   177.489
439.665     67.172   174.146
446.060     67.253   170.946
452.548     67.293   167.393
459.131     67.337   164.180
465.809     67.377   160.788
472.584     67.366   157.434
479.458     67.357   154.228
486.432     67.275   151.110
493.507     67.230   148.299
500.686     67.198   145.267
507.968     67.142   142.217
515.357     67.072   139.475
522.853     67.036   136.951
530.458     67.011   134.495
538.174     67.026   132.299
546.002     67.052   129.930
553.943     67.112   127.684
562.001     67.182   125.413
570.175     67.269   123.115
578.469     67.371   120.740
586.883     67.477   118.290
595.419     67.595   115.767
604.080     67.728   113.156
612.866     67.858   110.447
621.780     67.983   107.606
630.824     68.108   104.608
640.000     68.227   101.639
649.309     68.319    98.627
658.753     68.409    95.445
668.335     68.485    92.282
678.056     68.530    89.065
687.919     68.569    85.834
697.925     68.588    82.626
708.077     68.586    79.513
718.376     68.569    76.482
728.825     68.534    73.501
739.426     68.495    70.599
750.181     68.445    67.817
761.093     68.392    65.195
772.163     68.343    62.704
783.394     68.291    60.302
794.789     68.252    57.951
806.349     68.224    55.695
818.078     68.207    53.508
829.977     68.201    51.246
842.050     68.204    49.027
854.298     68.211    46.694
866.724     68.229    44.378
879.330     68.239    41.969
892.120     68.236    39.503
905.097     68.225    37.005
918.262     68.208    34.484
931.618     68.174    32.077
945.169     68.120    29.700
958.917     68.064    27.417
972.864     68.007    25.275
987.015     67.948    23.296
1001.37     67.897    21.335
1015.94     67.869    19.532
1030.71     67.860    17.708
1045.71     67.873    15.836
1060.92     67.915    13.823
1076.35     67.961    11.774
1092.00     68.000     9.509
1107.89     68.036     7.060
1124.00     68.044     4.481
1140.35     68.033     1.827
1156.94     67.993    -0.767
1173.77     67.909    -3.286
1190.84     67.818    -5.666
1208.16     67.717    -7.781
1225.73     67.623    -9.678
1243.56     67.549   -11.435
1261.65     67.522   -13.090
1280.00     67.529   -14.712
1298.62     67.563   -16.486
1317.51     67.618   -18.485
1336.67     67.668   -20.807
1356.11     67.700   -23.269
1375.84     67.698   -25.894
1395.85     67.666   -28.504
1416.15     67.606   -30.954
1436.75     67.532   -33.171
1457.65     67.466   -35.158
1478.85     67.430   -37.073
1500.36     67.438   -38.974
1522.19     67.480   -41.042
1544.33     67.535   -43.480
1566.79     67.572   -46.205
1589.58     67.565   -49.211
1612.70     67.495   -52.263
1636.16     67.366   -55.113
1659.95     67.193   -57.624
1684.10     67.023   -59.606
1708.60     66.885   -61.162
1733.45     66.817   -62.523
1758.66     66.827   -63.974
1784.24     66.872   -65.796
1810.19     66.918   -68.015
1836.52     66.929   -70.474
1863.24     66.896   -72.906
1890.34     66.821   -75.129
1917.83     66.764   -77.002
1945.73     66.751   -78.753
1974.03     66.803   -80.516
2002.74     66.873   -82.713
2031.87     66.930   -85.370
2061.43     66.931   -88.189
2091.41     66.856   -90.908
2121.83     66.747   -93.205
2152.69     66.668   -94.993
2184.01     66.668   -96.520
2215.77     66.746   -98.312
2248.00     66.849  -100.645
2280.70     66.921  -103.498
2313.87     66.911  -106.478
2347.53     66.839  -109.217
2381.68     66.756  -111.515
2416.32     66.713  -113.517
2451.46     66.732  -115.525
2487.12     66.766  -117.849
2523.30     66.787  -120.378
2560.00     66.778  -122.906
2597.24     66.778  -125.240
2635.01     66.812  -127.606
2673.34     66.862  -130.288
2712.23     66.878  -133.359
2751.68     66.819  -136.545
2791.70     66.694  -139.346
2832.31     66.584  -141.586
2873.50     66.548  -143.681
2915.30     66.571  -146.176
2957.70     66.566  -149.275
3000.72     66.460  -152.534
3044.37     66.278  -155.464
3088.65     66.094  -157.876
3133.58     65.947  -160.186
3179.16     65.798  -162.732
3225.40     65.567  -165.361
3272.31     65.265  -167.496
3319.91     64.962  -168.927
3368.20     64.724  -170.006
3417.19     64.507  -171.111
3466.89     64.253  -171.997
3517.32     63.988  -172.191
3568.48     63.819  -171.695
3620.39     63.789  -171.082
3673.05     63.841  -170.746
3726.47     63.950  -170.649
3780.67     64.125  -170.983
3835.67     64.314  -171.880
3891.46     64.466  -173.116
3948.06     64.599  -174.374
4005.49     64.763  -175.920
4063.75     64.891  -178.084
4122.86     64.904   179.655
4182.82     64.865   177.861
4243.66     64.862   176.187
4305.39     64.818   174.106
4368.01     64.639   172.157
4431.55     64.400   171.214
4496.01     64.226   170.969
4561.40     64.101   170.914
4627.75     63.992   171.202
4695.06     63.950   171.940
4763.35     64.016   172.810
4832.64     64.160   173.469
4902.93     64.359   173.880
4974.24     64.643   174.020
5046.60     64.979   173.330
5120.00     65.259   171.890
5194.47     65.486   170.067
5270.03     65.632   167.694
5346.68     65.614   165.350
5424.45     65.515   163.617
5503.35     65.346   162.253
5583.40     65.141   162.271
5664.61     65.135   162.829
5747.01     65.120   162.849
5830.60     65.187   164.078
5915.41     65.549   163.980
6001.45     65.700   161.961
6088.74     65.645   160.422
6177.30     65.447   159.566
6267.15     65.272   160.758
6358.31     65.335   162.001
6450.80     65.462   163.409
6544.62     65.812   164.071
6639.82     66.075   163.513
6736.40     66.361   162.767
6834.38     66.527   161.039
6933.79     66.621   159.682
7034.64     66.624   157.842
7136.96     66.521   156.646
7240.77     66.322   155.709
7346.09     66.124   156.092
7452.94     65.982   156.698
7561.35     65.920   157.898
7671.33     65.899   158.923
7782.91     65.965   159.992
7896.12     65.994   160.853
8010.97     66.105   161.645
8127.49     66.131   162.298
8245.71     66.121   162.222
8365.65     65.868   163.182
8487.33     65.706   165.528
8610.78     65.765   167.670
8736.03     65.775   168.909
8863.09     65.740   169.737
8992.01     65.644   171.454
9122.80     65.641   173.162
9255.50     65.820   174.732
9390.12     66.044   175.178
9526.70     66.195   174.130
9665.27     66.193   173.335
9805.86     66.100   173.159
9948.49     66.063   173.821
10093.2     66.189   175.242
10240.0     66.493   176.476
10388.9     66.869   176.638
10540.1     67.198   175.843
10693.4     67.423   174.628
10848.9     67.533   173.457
11006.7     67.568   172.416
11166.8     67.561   171.555
11329.2     67.462   171.108
11494.0     67.328   171.751
11661.2     67.340   173.307
11830.8     67.586   174.530
12002.9     67.920   174.192
12177.5     68.117   172.401
12354.6     68.070   170.306
12534.3     67.833   169.095
12716.6     67.581   169.327
12901.6     67.475   170.017
13089.2     67.449   170.097
13279.6     67.373   169.595
13472.8     67.171   168.847
13668.8     66.860   168.601
13867.6     66.486   168.995
14069.3     66.098   170.174
14273.9     65.778   172.138
14481.5     65.590   174.165
14692.2     65.456   175.434
14905.9     65.184   175.831
15122.7     64.638   176.955
15342.7     64.081  -179.387
15565.8     63.839  -174.620
15792.2     63.829  -170.822
16021.9     63.825  -168.393
16255.0     63.651  -166.135
16491.4     63.403  -162.999
16731.3     63.306  -158.305
16974.7     63.639  -154.815
17221.6     63.851  -154.779
17472.1     63.602  -155.049
17726.2     63.101  -153.977
17984.0     62.514  -150.659
18245.6     62.143  -145.477
18511.0     62.091  -140.698
18780.2     62.061  -137.669
19053.4     61.803  -134.740
19330.5     61.450  -130.335
19611.7     61.279  -124.808
19897.0     61.369  -119.242
20186.4     61.434  -116.297
20480.0     60.991  -113.074
20777.9     60.596  -104.881
21080.1     60.763   -95.770
21386.7     61.305   -88.035
21697.8     62.065   -81.601
22013.4     62.899   -77.207
22333.6     63.614   -73.913
22658.4     64.367   -70.425
22988.0     65.202   -67.713
23322.4     66.160   -65.168
23661.6     67.484   -64.694
24005.8     68.741   -68.848
24355.0     69.478   -75.245
24709.2     69.815   -82.275
25068.6     69.628   -88.121
25433.2     69.592   -90.297
25803.2     70.225   -95.239
26178.5     70.393  -106.143
26559.3     69.663  -116.522
26945.6     68.589  -123.584
27337.5     67.514  -128.313
27735.2     66.540  -132.337
28138.6     65.486  -137.078
28547.9     63.938  -142.403
28963.1     61.572  -141.989
29384.4     60.484  -133.101
29811.8     60.267  -132.106
30245.4     59.433  -135.786
30685.3     57.940  -139.082
31131.7     56.163  -140.855
31584.5     54.074  -142.221
32043.9     51.630  -141.233
32510.0     49.108  -138.437
32982.8     46.567  -134.030
33462.6     43.653  -130.754
33949.3     39.526  -120.026
34443.1     36.170   -88.778
34944.1     37.507   -66.815
35452.4     36.857   -62.024
35968.0     36.199   -53.549
36491.2     33.800   -47.131
37022.0     31.939   -32.702
37560.5     32.515    -5.660
38106.8     33.816    -5.857
38661.1     33.398   -71.297
39223.4     26.816    64.656
39793.9     30.213    47.459
