Freq[Hz]     dBSPL  Phase[Deg]
5.00000    -18.019    82.766
5.07273    -17.873    86.068
5.14651    -17.737    89.654
5.22137    -17.630    94.034
5.29732    -17.522    98.414
5.37437    -17.415   102.794
5.45254    -17.307   107.174
5.53185    -17.051   111.286
5.61231    -16.636   115.116
5.69394    -16.222   118.945
5.77676    -15.808   122.775
5.86079    -15.401   126.584
5.94604    -15.442   129.183
6.03252    -15.482   131.782
6.12027    -15.523   134.381
6.20929    -15.564   136.980
6.29961    -15.361   144.204
6.39124    -15.104   152.453
6.48420    -14.847   160.702
6.57851    -14.589   168.951
6.67420    -13.907   171.570
6.77128    -13.156   173.273
6.86977    -12.404   174.977
6.96969    -11.813   176.971
7.07107    -12.443  -178.824
7.17392    -13.073  -174.620
7.27827    -13.702  -170.416
7.38413    -13.304  -162.078
7.49154    -12.113  -150.548
7.60050    -10.921  -139.017
7.71105     -9.845  -130.011
7.82321     -9.280  -132.091
7.93701     -8.716  -134.171
8.05245     -8.151  -136.251
8.16958     -9.116  -123.625
8.28841    -10.138  -110.450
8.40896    -11.160   -97.275
8.53128     -9.026   -89.496
8.65537     -6.484   -82.414
8.78126     -3.942   -75.331
8.90899     -4.029   -77.578
9.03857     -4.288   -80.437
9.17004     -4.420   -79.997
9.30342     -3.537   -53.304
9.43874     -2.654   -26.611
9.57603     -0.834   -11.120
9.71532      2.419   -12.742
9.85663      5.672   -14.364
10.0000      7.261   -16.664
10.1455      8.387   -19.152
10.2930      9.613   -20.270
10.4427     11.123   -17.561
10.5946     12.633   -14.852
10.7487     14.509   -18.702
10.9051     16.458   -23.860
11.0637     17.904   -31.635
11.2246     18.818   -42.179
11.3879     19.443   -52.536
11.5535     19.015   -62.213
11.7216     18.569   -71.714
11.8921     17.039   -70.826
12.0650     15.509   -69.938
12.2405     15.905   -58.921
12.4186     16.550   -46.599
12.5992     18.050   -45.291
12.7825     19.740   -46.426
12.9684     20.727   -51.571
13.1570     21.549   -57.650
13.3484     21.854   -64.250
13.5426     22.074   -70.934
13.7395     21.701   -77.743
13.9394     21.192   -84.226
14.1421     19.826   -88.193
14.3478     18.302   -87.809
14.5565     16.434   -78.068
14.7683     16.335   -64.424
14.9831     17.603   -47.763
15.2010     19.561   -45.347
15.4221     21.456   -46.568
15.6464     22.563   -53.083
15.8740     23.181   -60.175
16.1049     23.407   -67.729
16.3392     22.932   -73.123
16.5768     22.336   -76.273
16.8179     21.604   -76.284
17.0626     21.405   -73.376
17.3107     21.432   -70.933
17.5625     21.699   -69.771
17.8180     21.832   -69.294
18.0771     22.034   -68.346
18.3401     22.337   -67.106
18.6068     22.853   -67.474
18.8775     23.171   -69.309
19.1521     23.285   -71.122
19.4306     23.203   -71.955
19.7133     23.216   -70.836
20.0000     23.349   -69.767
20.2909     23.481   -68.268
20.5860     23.670   -65.826
20.8855     24.124   -62.014
21.1893     25.073   -60.316
21.4975     25.854   -61.684
21.8102     26.248   -63.274
22.1274     26.466   -62.673
22.4492     26.942   -59.825
22.7758     27.935   -57.602
23.1071     29.064   -58.976
23.4432     29.824   -62.475
23.7841     30.223   -65.014
24.1301     30.618   -65.972
24.4811     31.114   -66.663
24.8372     31.593   -67.416
25.1984     32.062   -67.383
25.5649     32.720   -66.656
25.9368     33.610   -66.918
26.3141     34.477   -69.007
26.6968     35.133   -71.632
27.0851     35.709   -73.444
27.4791     36.389   -75.205
27.8788     37.023   -77.855
28.2843     37.502   -80.201
28.6957     38.007   -81.553
29.1131     38.645   -82.939
29.5365     39.307   -85.005
29.9661     39.916   -87.394
30.4020     40.478   -89.787
30.8442     41.013   -91.967
31.2929     41.577   -94.004
31.7480     42.175   -96.309
32.2098     42.729   -99.084
32.6783     43.174  -101.491
33.1536     43.685  -103.189
33.6359     44.301  -105.341
34.1251     44.853  -108.064
34.6215     45.366  -110.475
35.1250     45.915  -112.842
35.6359     46.478  -115.385
36.1543     47.035  -118.146
36.6802     47.567  -120.945
37.2137     48.105  -123.762
37.7550     48.628  -126.672
38.3041     49.154  -129.536
38.8613     49.682  -132.533
39.4265     50.212  -135.600
40.0000     50.728  -138.880
40.5818     51.226  -142.135
41.1721     51.717  -145.637
41.7710     52.158  -149.103
42.3785     52.609  -152.511
42.9949     53.035  -156.077
43.6203     53.396  -159.625
44.2548     53.755  -162.342
44.8985     54.230  -165.367
45.5515     54.669  -168.684
46.2141     55.093  -172.105
46.8863     55.485  -175.255
47.5683     55.928  -178.401
48.2602     56.385   178.245
48.9621     56.810   174.808
49.6743     57.272   171.300
50.3968     57.682   167.586
51.1299     58.103   164.001
51.8736     58.517   160.277
52.6281     58.918   156.509
53.3936     59.319   152.694
54.1702     59.699   148.852
54.9581     60.086   144.985
55.7575     60.461   141.069
56.5685     60.833   137.096
57.3914     61.190   133.087
58.2261     61.544   129.112
59.0730     61.894   125.011
59.9323     62.226   121.009
60.8040     62.565   116.923
61.6884     62.903   112.948
62.5857     63.244   108.810
63.4960     63.592   104.652
64.4196     63.921   100.330
65.3566     64.241    96.018
66.3073     64.559    91.648
67.2717     64.859    87.238
68.2502     65.158    82.815
69.2429     65.451    78.365
70.2501     65.751    73.903
71.2719     66.041    69.335
72.3086     66.345    64.656
73.3603     66.623    59.809
74.4274     66.879    54.907
75.5099     67.120    50.022
76.6083     67.330    45.122
77.7226     67.535    40.441
78.8531     67.763    35.801
80.0000     68.009    31.008
81.1636     68.253    26.071
82.3442     68.487    21.004
83.5419     68.714    15.803
84.7570     68.914    10.455
85.9899     69.085     5.091
87.2406     69.244    -0.194
88.5096     69.404    -5.500
89.7970     69.561   -10.911
91.1031     69.703   -16.534
92.4282     69.800   -22.282
93.7726     69.844   -27.961
95.1366     69.853   -33.281
96.5204     69.894   -38.328
97.9243     69.952   -43.445
99.3486     70.017   -48.606
100.794     70.076   -53.874
102.260     70.131   -59.179
103.747     70.177   -64.535
105.256     70.216   -69.935
106.787     70.248   -75.428
108.340     70.255   -81.052
109.916     70.204   -86.621
111.515     70.146   -91.739
113.137     70.135   -96.852
114.783     70.118  -102.094
116.452     70.091  -107.302
118.146     70.074  -112.441
119.865     70.060  -117.652
121.608     70.041  -122.902
123.377     70.026  -128.142
125.171     70.010  -133.464
126.992     69.995  -138.819
128.839     69.976  -144.277
130.713     69.943  -149.869
132.615     69.870  -155.412
134.543     69.797  -160.844
136.500     69.749  -166.332
138.486     69.703  -171.393
140.500     69.627  -176.953
142.544     69.536   177.368
144.617     69.472   172.167
146.721     69.398   167.166
148.855     69.383   161.829
151.020     69.377   155.955
153.217     69.276   150.168
155.445     69.224   144.892
157.706     69.193   138.872
160.000     68.952   132.669
162.327     68.767   127.906
164.688     68.730   123.341
167.084     68.714   118.359
169.514     68.749   112.041
171.980     68.570   105.684
174.481     68.382   100.909
177.019     68.300    96.533
179.594     68.290    91.644
182.206     68.271    86.307
184.856     68.313    81.019
187.545     68.371    75.640
190.273     68.404    69.734
193.041     68.382    63.692
195.849     68.357    58.193
198.697     68.395    52.019
201.587     68.379    45.159
204.520     68.186    38.647
207.494     67.952    33.511
210.512     67.703    28.291
213.574     67.782    22.436
216.681     67.841    17.396
219.833     67.779    12.602
223.030     67.729     7.383
226.274     67.798     1.485
229.565     67.761    -4.334
232.905     67.634   -10.078
236.292     67.617   -14.909
239.729     67.530   -20.133
243.216     67.560   -24.727
246.754     67.626   -30.499
250.343     67.579   -36.753
253.984     67.446   -42.613
257.678     67.381   -47.758
261.426     67.361   -53.174
265.229     67.330   -58.861
269.087     67.118   -64.106
273.001     67.012   -68.192
276.972     67.108   -72.274
281.000     66.922   -76.581
285.088     67.022   -82.071
289.234     67.182   -86.643
293.441     67.330   -91.964
297.709     67.294   -98.981
302.040     66.977  -104.263
306.433     66.771  -108.083
310.890     66.887  -110.830
315.412     67.057  -116.475
320.000     66.951  -121.543
324.655     66.826  -125.818
329.377     66.742  -130.004
334.168     66.898  -134.810
339.028     66.619  -140.338
343.959     66.566  -142.749
348.962     66.483  -146.768
354.038     66.489  -149.964
359.188     66.645  -154.120
364.412     66.579  -158.870
369.713     66.458  -163.821
375.090     66.337  -166.090
380.546     66.352  -168.853
386.081     66.535  -173.378
391.697     66.240  -177.108
397.394     66.332  -179.338
403.175     66.267   177.701
409.039     66.403   175.146
414.989     66.383   172.805
421.025     66.506   170.114
427.149     66.641   167.628
433.362     66.777   164.461
439.665     66.945   160.840
446.060     66.996   157.448
452.548     67.020   153.687
459.131     67.026   150.203
465.809     67.040   146.692
472.584     66.991   143.067
479.458     66.931   139.692
486.432     66.815   136.272
493.507     66.731   133.228
500.686     66.663   130.095
507.968     66.561   126.848
515.357     66.450   124.010
522.853     66.351   121.456
530.458     66.285   118.839
538.174     66.251   116.499
546.002     66.242   114.231
553.943     66.250   111.913
562.001     66.277   109.607
570.175     66.322   107.243
578.469     66.402   104.804
586.883     66.488   102.332
595.419     66.585    99.846
604.080     66.676    97.210
612.866     66.785    94.382
621.780     66.886    91.400
630.824     66.986    88.329
640.000     67.079    85.161
649.309     67.147    82.022
658.753     67.193    78.684
668.335     67.235    75.256
678.056     67.241    71.925
687.919     67.218    68.490
697.925     67.188    65.070
708.077     67.124    61.762
718.376     67.042    58.581
728.825     66.943    55.543
739.426     66.820    52.657
750.181     66.691    49.900
761.093     66.551    47.360
772.163     66.428    45.015
783.394     66.313    42.955
794.789     66.202    40.951
806.349     66.124    39.072
818.078     66.073    37.192
829.977     66.056    35.381
842.050     66.059    33.514
854.298     66.089    31.615
866.724     66.108    29.510
879.330     66.150    27.239
892.120     66.176    24.872
905.097     66.194    22.347
918.262     66.194    19.789
931.618     66.173    17.235
945.169     66.134    14.682
958.917     66.083    12.238
972.864     66.017     9.906
987.015     65.957     7.717
1001.37     65.908     5.669
1015.94     65.876     3.631
1030.71     65.874     1.751
1045.71     65.895    -0.292
1060.92     65.931    -2.546
1076.35     65.994    -4.999
1092.00     66.052    -7.672
1107.89     66.089   -10.654
1124.00     66.089   -13.856
1140.35     66.055   -17.171
1156.94     65.962   -20.595
1173.77     65.811   -23.895
1190.84     65.617   -27.016
1208.16     65.388   -29.823
1225.73     65.137   -32.277
1243.56     64.887   -34.303
1261.65     64.671   -36.014
1280.00     64.497   -37.461
1298.62     64.387   -38.887
1317.51     64.313   -40.339
1336.67     64.247   -42.056
1356.11     64.207   -43.954
1375.84     64.132   -46.053
1395.85     64.054   -48.062
1416.15     63.963   -49.886
1436.75     63.859   -51.438
1457.65     63.798   -52.833
1478.85     63.811   -54.262
1500.36     63.888   -55.780
1522.19     64.015   -57.738
1544.33     64.134   -60.318
1566.79     64.232   -63.378
1589.58     64.237   -66.875
1612.70     64.172   -70.358
1636.16     64.007   -73.555
1659.95     63.805   -76.282
1684.10     63.620   -78.349
1708.60     63.495   -80.028
1733.45     63.489   -81.565
1758.66     63.547   -83.590
1784.24     63.636   -86.351
1810.19     63.665   -89.747
1836.52     63.587   -93.396
1863.24     63.391   -96.925
1890.34     63.121   -99.750
1917.83     62.841  -101.621
1945.73     62.662  -102.852
1974.03     62.629  -103.979
2002.74     62.701  -105.782
2031.87     62.784  -108.303
2061.43     62.775  -111.591
2091.41     62.648  -114.882
2121.83     62.422  -117.665
2152.69     62.184  -119.531
2184.01     62.027  -120.714
2215.77     61.979  -121.932
2248.00     62.013  -123.562
2280.70     62.021  -125.592
2313.87     61.971  -127.663
2347.53     61.892  -129.311
2381.68     61.897  -130.360
2416.32     62.000  -131.456
2451.46     62.198  -133.064
2487.12     62.367  -135.362
2523.30     62.477  -137.932
2560.00     62.548  -139.975
2597.24     62.675  -141.637
2635.01     62.935  -143.392
2673.34     63.275  -145.950
2712.23     63.574  -149.467
2751.68     63.770  -153.456
2791.70     63.856  -157.227
2832.31     63.941  -160.582
2873.50     64.069  -163.796
2915.30     64.225  -167.404
2957.70     64.315  -171.395
3000.72     64.327  -175.317
3044.37     64.307  -178.677
3088.65     64.346   178.348
3133.58     64.455   175.078
3179.16     64.555   171.183
3225.40     64.567   167.097
3272.31     64.506   163.362
3319.91     64.453   160.019
3368.20     64.426   156.695
3417.19     64.373   153.187
3466.89     64.254   149.911
3517.32     64.138   147.299
3568.48     64.116   145.037
3620.39     64.176   142.426
3673.05     64.212   139.270
3726.47     64.194   136.202
3780.67     64.194   133.324
3835.67     64.223   130.104
3891.46     64.189   126.501
3948.06     64.048   123.193
4005.49     63.895   120.580
4063.75     63.807   118.062
4122.86     63.710   115.363
4182.82     63.569   112.949
4243.66     63.460   110.931
4305.39     63.389   108.810
4368.01     63.291   106.580
4431.55     63.164   104.776
4496.01     63.068   103.151
4561.40     62.974   101.863
4627.75     62.942   101.020
4695.06     63.051   100.196
4763.35     63.224    98.570
4832.64     63.339    96.460
4902.93     63.423    94.395
4974.24     63.537    92.294
5046.60     63.645    89.752
5120.00     63.666    87.111
5194.47     63.700    84.928
5270.03     63.785    82.373
5346.68     63.775    79.371
5424.45     63.708    76.854
5503.35     63.673    74.172
5583.40     63.514    71.597
5664.61     63.402    69.874
5747.01     63.331    67.444
5830.60     63.104    65.243
5915.41     62.863    63.570
6001.45     62.490    62.952
6088.74     62.347    64.379
6177.30     62.446    64.731
6267.15     62.549    65.593
6358.31     62.948    65.565
6450.80     63.278    64.462
6544.62     63.755    62.771
6639.82     64.092    59.274
6736.40     64.338    55.822
6834.38     64.443    51.343
6933.79     64.396    47.580
7034.64     64.279    43.491
7136.96     64.003    40.363
7240.77     63.721    37.609
7346.09     63.407    36.037
7452.94     63.185    34.587
7561.35     63.027    33.608
7671.33     62.910    31.919
7782.91     62.787    30.413
7896.12     62.577    28.296
8010.97     62.303    26.699
8127.49     61.846    25.617
8245.71     61.413    25.571
8365.65     60.803    28.405
8487.33     61.138    33.298
8610.78     61.908    30.466
8736.03     61.511    25.013
8863.09     60.988    23.868
8992.01     60.525    24.202
9122.80     60.325    24.399
9255.50     60.316    24.795
9390.12     60.446    23.335
9526.70     60.462    19.477
9665.27     60.219    15.974
9805.86     59.778    12.415
9948.49     59.193    10.054
10093.2     58.688    10.340
10240.0     58.430    11.334
10388.9     58.362    11.657
10540.1     58.339    11.457
10693.4     58.303    11.208
10848.9     58.259    10.668
11006.7     58.242     9.844
11166.8     58.228     8.741
11329.2     58.188     7.606
11494.0     58.037     6.412
11661.2     57.890     5.962
11830.8     57.862     5.088
12002.9     57.817     3.952
12177.5     57.728     2.541
12354.6     57.592     1.328
12534.3     57.404     0.099
12716.6     57.256    -0.486
12901.6     57.326    -1.561
13089.2     57.152    -5.797
13279.6     56.545    -6.999
13472.8     56.110    -6.742
13668.8     55.887    -6.020
13867.6     55.751    -5.768
14069.3     55.681    -6.197
14273.9     55.526    -7.450
14481.5     55.327    -8.291
14692.2     55.177   -10.162
14905.9     54.672   -13.104
15122.7     53.739   -13.231
15342.7     53.122    -9.246
15565.8     53.123    -5.451
15792.2     53.289    -4.007
16021.9     53.320    -3.769
16255.0     53.437    -3.974
16491.4     53.562    -5.183
16731.3     53.534    -7.209
16974.7     53.236   -10.838
17221.6     52.500   -11.429
17472.1     52.202   -10.196
17726.2     51.708   -10.276
17984.0     51.313    -7.108
18245.6     51.439    -3.313
18511.0     51.970    -3.014
18780.2     52.191    -5.679
19053.4     51.933    -7.982
19330.5     51.669    -7.569
19611.7     51.778    -5.387
19897.0     52.630    -3.863
20186.4     53.544   -11.808
20480.0     53.138   -19.814
20777.9     52.553   -22.329
21080.1     52.447   -22.380
21386.7     52.826   -24.688
21697.8     53.192   -29.866
22013.4     53.216   -36.001
22333.6     53.149   -40.813
22658.4     53.454   -45.298
22988.0     53.779   -52.882
23322.4     53.978   -59.915
23661.6     54.494   -67.431
24005.8     55.462   -78.825
24355.0     56.149   -97.534
24709.2     55.334  -119.631
25068.6     53.500  -130.363
25433.2     54.020  -134.000
25803.2     56.052  -156.354
26178.5     55.687   165.847
26559.3     53.008   132.467
26945.6     49.608   106.647
27337.5     46.621    83.130
27735.2     43.890    46.300
28138.6     41.507    -8.043
28547.9     40.277   -67.608
28963.1     41.869   -96.267
29384.4     44.284  -130.870
29811.8     43.612  -158.797
30245.4     42.343  -162.800
30685.3     44.155  -166.171
31131.7     45.289   174.746
31584.5     45.065   157.306
32043.9     44.572   135.932
32510.0     42.059   111.292
32982.8     37.723    93.152
33462.6     31.709    50.046
33949.3     34.398   -81.686
34443.1     42.098  -151.966
34944.1     42.672   163.587
35452.4     40.372   141.921
35968.0     39.232   130.834
36491.2     37.427   122.054
37022.0     37.326   121.389
37560.5     36.671    80.904
38106.8     26.529   102.520
38661.1     30.522   147.596
39223.4     33.493    89.241
39793.9     29.821    95.024
