Freq[Hz]     dBSPL  Phase[Deg]
5.00000    -18.757    81.863
5.07273    -18.606    85.167
5.14651    -18.465    88.755
5.22137    -18.352    93.138
5.29732    -18.240    97.520
5.37437    -18.127   101.902
5.45254    -18.014   106.284
5.53185    -17.753   110.399
5.61231    -17.333   114.231
5.69394    -16.914   118.063
5.77676    -16.494   121.894
5.86079    -16.082   125.705
5.94604    -16.118   128.307
6.03252    -16.153   130.909
6.12027    -16.189   133.511
6.20929    -16.224   136.112
6.29961    -16.016   143.338
6.39124    -15.754   151.590
6.48420    -15.492   159.842
6.57851    -15.229   168.094
6.67420    -14.542   170.715
6.77128    -13.785   172.421
6.86977    -13.029   174.128
6.96969    -12.432   176.125
7.07107    -13.057  -179.668
7.17392    -13.681  -175.461
7.27827    -14.306  -171.253
7.38413    -13.903  -162.913
7.49154    -12.706  -151.379
7.60050    -11.509  -139.845
7.71105    -10.428  -130.836
7.82321     -9.858  -132.912
7.93701     -9.288  -134.989
8.05245     -8.718  -137.066
8.16958     -9.678  -124.437
8.28841    -10.695  -111.258
8.40896    -11.712   -98.080
8.53128     -9.572   -90.298
8.65537     -7.025   -83.211
8.78126     -4.478   -76.126
8.90899     -4.560   -78.369
9.03857     -4.814   -81.223
9.17004     -4.941   -80.780
9.30342     -4.053   -54.083
9.43874     -3.164   -27.387
9.57603     -1.339   -11.891
9.71532      1.920   -13.509
9.85663      5.178   -15.128
10.0000      6.772   -17.423
10.1455      7.902   -19.907
10.2930      9.134   -21.021
10.4427     10.649   -18.308
10.5946     12.164   -15.595
10.7487     14.045   -19.439
10.9051     15.999   -24.593
11.0637     17.451   -32.364
11.2246     18.370   -42.903
11.3879     19.000   -53.255
11.5535     18.578   -62.928
11.7216     18.136   -72.424
11.8921     16.612   -71.531
12.0650     15.087   -70.638
12.2405     15.488   -59.616
12.4186     16.138   -47.288
12.5992     17.643   -45.975
12.7825     19.339   -47.105
12.9684     20.331   -52.245
13.1570     21.158   -58.319
13.3484     21.468   -64.913
13.5426     21.694   -71.592
13.7395     21.325   -78.395
13.9394     20.822   -84.872
14.1421     19.461   -88.833
14.3478     17.942   -88.443
14.5565     16.079   -78.697
14.7683     15.986   -65.046
14.9831     17.259   -48.379
15.2010     19.221   -45.957
15.4221     21.122   -47.171
15.6464     22.234   -53.680
15.8740     22.857   -60.766
16.1049     23.089   -68.313
16.3392     22.618   -73.700
16.5768     22.028   -76.843
16.8179     21.301   -76.847
17.0626     21.107   -73.933
17.3107     21.140   -71.483
17.5625     21.411   -70.313
17.8180     21.550   -69.829
18.0771     21.757   -68.873
18.3401     22.065   -67.625
18.6068     22.586   -67.986
18.8775     22.909   -69.813
19.1521     23.029   -71.618
19.4306     22.952   -72.443
19.7133     22.970   -71.316
20.0000     23.108   -70.239
20.2909     23.245   -68.732
20.5860     23.439   -66.281
20.8855     23.899   -62.460
21.1893     24.853   -60.754
21.4975     25.639   -62.113
21.8102     26.038   -63.694
22.1274     26.261   -63.084
22.4492     26.742   -60.227
22.7758     27.740   -57.994
23.1071     28.875   -59.359
23.4432     29.640   -62.848
23.7841     30.044   -65.377
24.1301     30.444   -66.325
24.4811     30.946   -67.006
24.8372     31.429   -67.749
25.1984     31.904   -67.706
25.5649     32.568   -66.967
25.9368     33.462   -67.219
26.3141     34.334   -69.297
26.6968     34.995   -71.911
27.0851     35.577   -73.713
27.4791     36.262   -75.462
27.8788     36.901   -78.100
28.2843     37.385   -80.435
28.6957     37.896   -81.775
29.1131     38.539   -83.149
29.5365     39.206   -85.202
29.9661     39.821   -87.579
30.4020     40.387   -89.960
30.8442     40.928   -92.128
31.2929     41.497   -94.152
31.7480     42.100   -96.443
32.2098     42.659   -99.205
32.6783     43.109  -101.599
33.1536     43.625  -103.283
33.6359     44.247  -105.421
34.1251     44.804  -108.130
34.6215     45.323  -110.527
35.1250     45.876  -112.879
35.6359     46.444  -115.408
36.1543     47.007  -118.154
36.6802     47.544  -120.937
37.2137     48.087  -123.739
37.7550     48.615  -126.634
38.3041     49.146  -129.482
38.8613     49.680  -132.463
39.4265     50.214  -135.513
40.0000     50.736  -138.777
40.5818     51.239  -142.015
41.1721     51.735  -145.501
41.7710     52.182  -148.950
42.3785     52.637  -152.340
42.9949     53.069  -155.888
43.6203     53.435  -159.418
44.2548     53.799  -162.117
44.8985     54.279  -165.123
45.5515     54.724  -168.421
46.2141     55.153  -171.824
46.8863     55.550  -174.955
47.5683     55.998  -178.081
48.2602     56.461   178.585
48.9621     56.891   175.168
49.6743     57.357   171.681
50.3968     57.773   167.988
51.1299     58.199   164.424
51.8736     58.618   160.721
52.6281     59.025   156.975
53.3936     59.430   153.182
54.1702     59.816   149.362
54.9581     60.208   145.517
55.7575     60.588   141.625
56.5685     60.965   137.675
57.3914     61.327   133.689
58.2261     61.687   129.739
59.0730     62.042   125.662
59.9323     62.379   121.685
60.8040     62.723   117.624
61.6884     63.066   113.674
62.5857     63.412   109.562
63.4960     63.766   105.430
64.4196     64.100   101.135
65.3566     64.425    96.849
66.3073     64.748    92.507
67.2717     65.053    88.125
68.2502     65.358    83.729
69.2429     65.656    79.309
70.2501     65.961    74.875
71.2719     66.256    70.337
72.3086     66.566    65.687
73.3603     66.848    60.871
74.4274     67.110    55.999
75.5099     67.355    51.145
76.6083     67.571    46.277
77.7226     67.781    41.628
78.8531     68.014    37.021
80.0000     68.265    32.260
81.1636     68.515    27.357
82.3442     68.754    22.323
83.5419     68.986    17.157
84.7570     69.191    11.844
85.9899     69.368     6.516
87.2406     69.532     1.266
88.5096     69.697    -4.003
89.7970     69.859    -9.377
91.1031     70.006   -14.963
92.4282     70.108   -20.672
93.7726     70.158   -26.313
95.1366     70.172   -31.593
96.5204     70.218   -36.601
97.9243     70.282   -41.678
99.3486     70.352   -46.797
100.794     70.415   -52.025
102.260     70.476   -57.287
103.747     70.527   -62.601
105.256     70.571   -67.957
106.787     70.608   -73.407
108.340     70.621   -78.985
109.916     70.575   -84.509
111.515     70.522   -89.581
113.137     70.516   -94.648
114.783     70.505   -99.842
116.452     70.482  -105.003
118.146     70.470  -110.092
119.865     70.462  -115.254
121.608     70.448  -120.454
123.377     70.438  -125.643
125.171     70.427  -130.914
126.992     70.417  -136.217
128.839     70.403  -141.621
130.713     70.376  -147.159
132.615     70.308  -152.648
134.543     70.240  -158.024
136.500     70.197  -163.457
138.486     70.157  -168.460
140.500     70.086  -173.962
142.544     70.000  -179.583
144.617     69.941   175.276
146.721     69.872   170.335
148.855     69.862   165.060
151.020     69.862   159.248
153.217     69.766   153.524
155.445     69.719   148.312
157.706     69.693   142.357
160.000     69.457   136.220
162.327     69.277   131.524
164.688     69.246   127.027
167.084     69.235   122.114
169.514     69.275   115.865
171.980     69.101   109.579
174.481     68.919   104.876
177.019     68.841   100.573
179.594     68.837    95.758
182.206     68.823    90.496
184.856     68.870    85.284
187.545     68.934    79.982
190.273     68.972    74.154
193.041     68.955    68.192
195.849     68.934    62.774
198.697     68.978    56.681
201.587     68.967    49.904
204.520     68.787    43.268
207.494     68.586    38.180
210.512     68.360    33.114
213.574     68.455    27.495
216.681     68.500    22.696
219.833     68.419    17.915
223.030     68.378    12.731
226.274     68.438     6.913
229.565     68.413     1.032
232.905     68.307    -4.516
236.292     68.266    -9.261
239.729     68.202   -14.632
243.216     68.265   -18.950
246.754     68.307   -24.572
250.343     68.277   -30.918
253.984     68.175   -36.517
257.678     68.091   -41.401
261.426     68.050   -46.837
265.229     68.030   -52.576
269.087     67.839   -57.808
273.001     67.764   -61.737
276.972     67.853   -65.542
281.000     67.655   -69.878
285.088     67.766   -75.313
289.234     67.937   -79.973
293.441     68.133   -85.160
297.709     68.105   -91.984
302.040     67.805   -97.109
306.433     67.601  -100.882
310.890     67.769  -103.407
315.412     67.909  -108.716
320.000     67.809  -113.844
324.655     67.682  -118.080
329.377     67.643  -122.292
334.168     67.808  -126.849
339.028     67.538  -132.348
343.959     67.510  -134.948
348.962     67.524  -138.680
354.038     67.508  -141.441
359.188     67.673  -145.653
364.412     67.644  -150.329
369.713     67.551  -155.021
375.090     67.425  -157.282
380.546     67.497  -160.094
386.081     67.713  -164.385
391.697     67.450  -167.991
397.394     67.558  -170.136
403.175     67.540  -173.136
409.039     67.709  -175.504
414.989     67.725  -177.927
421.025     67.901   179.480
427.149     68.073   177.050
433.362     68.251   173.863
439.665     68.467   170.263
446.060     68.563   166.827
452.548     68.629   163.067
459.131     68.685   159.398
465.809     68.739   155.794
472.584     68.751   152.000
479.458     68.735   148.437
486.432     68.665   144.819
493.507     68.627   141.630
500.686     68.581   138.117
507.968     68.511   134.623
515.357     68.422   131.430
522.853     68.330   128.511
530.458     68.265   125.554
538.174     68.229   122.884
546.002     68.192   120.228
553.943     68.177   117.621
562.001     68.169   115.079
570.175     68.180   112.570
578.469     68.206   110.037
586.883     68.233   107.652
595.419     68.272   105.127
604.080     68.338   102.630
612.866     68.399   100.097
621.780     68.467    97.507
630.824     68.542    94.793
640.000     68.609    92.085
649.309     68.686    89.319
658.753     68.746    86.538
668.335     68.809    83.594
678.056     68.852    80.703
687.919     68.894    77.716
697.925     68.919    74.791
708.077     68.925    71.853
718.376     68.929    68.924
728.825     68.921    66.085
739.426     68.895    63.276
750.181     68.869    60.540
761.093     68.833    57.906
772.163     68.792    55.400
783.394     68.758    52.972
794.789     68.721    50.583
806.349     68.694    48.318
818.078     68.677    46.108
829.977     68.670    43.926
842.050     68.680    41.784
854.298     68.695    39.608
866.724     68.719    37.464
879.330     68.750    35.195
892.120     68.793    32.875
905.097     68.826    30.506
918.262     68.866    28.090
931.618     68.889    25.633
945.169     68.914    23.113
958.917     68.929    20.622
972.864     68.931    18.115
987.015     68.927    15.624
1001.37     68.916    13.147
1015.94     68.901    10.686
1030.71     68.888     8.314
1045.71     68.876     5.971
1060.92     68.861     3.543
1076.35     68.861     1.182
1092.00     68.858    -1.185
1107.89     68.856    -3.638
1124.00     68.855    -6.120
1140.35     68.846    -8.618
1156.94     68.827   -11.209
1173.77     68.801   -13.810
1190.84     68.764   -16.356
1208.16     68.711   -18.895
1225.73     68.649   -21.359
1243.56     68.580   -23.814
1261.65     68.510   -26.117
1280.00     68.440   -28.384
1298.62     68.385   -30.494
1317.51     68.335   -32.624
1336.67     68.294   -34.713
1356.11     68.275   -36.831
1375.84     68.258   -38.955
1395.85     68.253   -41.274
1416.15     68.255   -43.560
1436.75     68.253   -45.950
1457.65     68.246   -48.387
1478.85     68.222   -50.929
1500.36     68.193   -53.512
1522.19     68.155   -56.040
1544.33     68.094   -58.580
1566.79     68.026   -61.076
1589.58     67.950   -63.477
1612.70     67.873   -65.773
1636.16     67.800   -67.981
1659.95     67.729   -70.073
1684.10     67.674   -72.182
1708.60     67.636   -74.225
1733.45     67.608   -76.285
1758.66     67.591   -78.335
1784.24     67.577   -80.511
1810.19     67.572   -82.683
1836.52     67.564   -84.924
1863.24     67.559   -87.207
1890.34     67.544   -89.531
1917.83     67.532   -91.923
1945.73     67.506   -94.293
1974.03     67.474   -96.636
2002.74     67.430   -98.923
2031.87     67.394  -101.118
2061.43     67.356  -103.215
2091.41     67.341  -105.258
2121.83     67.341  -107.284
2152.69     67.362  -109.378
2184.01     67.398  -111.547
2215.77     67.435  -113.857
2248.00     67.488  -116.284
2280.70     67.539  -118.871
2313.87     67.587  -121.637
2347.53     67.604  -124.574
2381.68     67.584  -127.657
2416.32     67.522  -130.709
2451.46     67.418  -133.570
2487.12     67.304  -136.132
2523.30     67.205  -138.421
2560.00     67.147  -140.674
2597.24     67.114  -143.046
2635.01     67.084  -145.674
2673.34     67.017  -148.494
2712.23     66.907  -151.278
2751.68     66.765  -153.933
2791.70     66.616  -156.347
2832.31     66.465  -158.595
2873.50     66.314  -160.824
2915.30     66.163  -163.005
2957.70     65.996  -165.124
3000.72     65.817  -167.055
3044.37     65.645  -168.817
3088.65     65.491  -170.448
3133.58     65.358  -172.163
3179.16     65.214  -174.165
3225.40     64.997  -176.264
3272.31     64.693  -178.013
3319.91     64.348  -178.898
3368.20     64.066  -178.969
3417.19     63.888  -178.785
3466.89     63.768  -178.795
3517.32     63.641  -178.720
3568.48     63.554  -178.256
3620.39     63.561  -177.575
3673.05     63.663  -177.204
3726.47     63.798  -177.198
3780.67     63.957  -177.490
3835.67     64.126  -178.119
3891.46     64.290  -179.055
3948.06     64.446   179.855
4005.49     64.608   178.338
4063.75     64.706   176.285
4122.86     64.673   174.223
4182.82     64.563   172.806
4243.66     64.475   171.783
4305.39     64.354   170.892
4368.01     64.179   170.739
4431.55     64.103   171.567
4496.01     64.189   172.400
4561.40     64.330   172.790
4627.75     64.506   172.997
4695.06     64.714   172.917
4763.35     64.928   172.830
4832.64     65.233   172.649
4902.93     65.615   171.559
4974.24     65.928   169.602
5046.60     66.189   167.139
5120.00     66.351   163.885
5194.47     66.301   160.459
5270.03     66.103   157.669
5346.68     65.789   155.557
5424.45     65.383   154.845
5503.35     65.080   155.387
5583.40     64.850   156.441
5664.61     64.759   158.419
5747.01     64.878   160.319
5830.60     65.175   161.779
5915.41     65.658   161.202
6001.45     65.861   158.372
6088.74     65.760   156.521
6177.30     65.600   155.206
6267.15     65.334   154.943
6358.31     65.168   155.570
6450.80     65.003   156.597
6544.62     65.001   158.186
6639.82     65.015   159.228
6736.40     65.110   160.580
6834.38     65.204   161.100
6933.79     65.288   161.945
7034.64     65.341   162.262
7136.96     65.365   163.115
7240.77     65.329   163.691
7346.09     65.295   165.616
7452.94     65.323   167.491
7561.35     65.472   170.247
7671.33     65.706   172.418
7782.91     66.098   174.681
7896.12     66.481   175.902
8010.97     66.962   176.569
8127.49     67.262   176.383
8245.71     67.444   176.099
8365.65     67.488   177.479
8487.33     67.917   178.806
8610.78     68.331   176.953
8736.03     68.196   174.393
8863.09     67.899   174.018
8992.01     67.638   175.304
9122.80     67.577   177.354
9255.50     67.816   179.107
9390.12     68.133   179.144
9526.70     68.382   177.621
9665.27     68.492   175.681
9805.86     68.394   174.102
9948.49     68.304   173.571
10093.2     68.317   174.035
10240.0     68.482   174.712
10388.9     68.739   174.662
10540.1     68.975   173.961
10693.4     69.137   172.873
10848.9     69.209   171.837
11006.7     69.200   171.046
11166.8     69.197   170.584
11329.2     69.179   170.408
11494.0     69.129   170.796
11661.2     69.179   171.806
11830.8     69.429   172.367
12002.9     69.752   171.606
12177.5     69.925   169.318
12354.6     69.812   166.642
12534.3     69.469   165.117
12716.6     69.108   165.537
12901.6     68.972   166.719
13089.2     68.968   167.021
13279.6     68.881   166.417
13472.8     68.695   165.814
13668.8     68.406   165.401
13867.6     68.031   165.542
14069.3     67.609   166.390
14273.9     67.195   168.215
14481.5     66.929   170.699
14692.2     66.776   172.454
14905.9     66.520   173.502
15122.7     66.111   175.042
15342.7     65.630   177.799
15565.8     65.273  -177.552
15792.2     65.270  -172.986
16021.9     65.381  -170.209
16255.0     65.358  -168.505
16491.4     65.130  -166.522
16731.3     64.879  -162.818
16974.7     64.991  -158.491
17221.6     65.267  -157.142
17472.1     65.163  -157.216
17726.2     64.777  -156.622
17984.0     64.195  -154.008
18245.6     63.793  -149.382
18511.0     63.607  -144.772
18780.2     63.530  -140.968
19053.4     63.356  -137.578
19330.5     63.107  -133.598
19611.7     62.945  -129.410
19897.0     62.565  -124.947
20186.4     62.476  -117.971
20480.0     62.334  -112.943
20777.9     62.271  -104.718
21080.1     62.766   -97.055
21386.7     63.165   -91.721
21697.8     63.696   -85.356
22013.4     64.415   -80.369
22333.6     65.053   -76.395
22658.4     65.793   -71.988
22988.0     66.709   -68.945
23322.4     67.534   -66.528
23661.6     68.705   -63.517
24005.8     70.340   -64.875
24355.0     71.574   -72.255
24709.2     71.948   -80.983
25068.6     71.825   -87.029
25433.2     71.879   -90.883
25803.2     72.250   -97.723
26178.5     71.922  -108.400
26559.3     70.789  -116.150
26945.6     69.623  -119.176
27337.5     68.713  -121.427
27735.2     67.665  -122.265
28138.6     66.973  -122.421
28547.9     65.916  -124.943
28963.1     64.303  -121.335
29384.4     64.064  -114.789
29811.8     63.878  -115.741
30245.4     63.021  -117.930
30685.3     61.790  -118.364
31131.7     60.478  -117.628
31584.5     58.947  -115.929
32043.9     57.439  -112.298
32510.0     55.952  -108.795
32982.8     54.464  -104.426
33462.6     52.854   -99.776
33949.3     51.232   -93.573
34443.1     49.964   -84.456
34944.1     48.943   -81.392
35452.4     46.775   -75.778
35968.0     45.161   -60.888
36491.2     44.489   -50.546
37022.0     44.882   -40.739
37560.5     44.377   -57.798
38106.8     38.886   -40.866
38661.1     40.764   -42.506
39223.4     28.705   -23.276
39793.9     33.353    35.015
