Freq[Hz]     dBSPL  Phase[Deg]
5.00000    -19.940    79.550
5.07273    -19.787    82.851
5.14651    -19.644    86.436
5.22137    -19.530    90.816
5.29732    -19.415    95.195
5.37437    -19.301    99.574
5.45254    -19.186   103.953
5.53185    -18.922   108.065
5.61231    -18.501   111.893
5.69394    -18.080   115.722
5.77676    -17.658   119.551
5.86079    -17.245   123.358
5.94604    -17.278   125.957
6.03252    -17.312   128.555
6.12027    -17.346   131.153
6.20929    -17.379   133.751
6.29961    -17.169   140.974
6.39124    -16.905   149.222
6.48420    -16.641   157.470
6.57851    -16.377   165.718
6.67420    -15.687   168.335
6.77128    -14.929   170.038
6.86977    -14.170   171.741
6.96969    -13.572   173.734
7.07107    -14.195   177.937
7.17392    -14.818  -177.860
7.27827    -15.440  -173.657
7.38413    -15.035  -165.320
7.49154    -13.836  -153.791
7.60050    -12.637  -142.261
7.71105    -11.555  -133.256
7.82321    -10.983  -135.337
7.93701    -10.411  -137.418
8.05245     -9.839  -139.500
8.16958    -10.797  -126.875
8.28841    -11.813  -113.701
8.40896    -12.828  -100.528
8.53128    -10.686   -92.750
8.65537     -8.137   -85.669
8.78126     -5.588   -78.588
8.90899     -5.668   -80.837
9.03857     -5.920   -83.696
9.17004     -6.045   -83.258
9.30342     -5.155   -56.567
9.43874     -4.265   -29.875
9.57603     -2.437   -14.386
9.71532      0.823   -16.009
9.85663      4.083   -17.633
10.0000      5.679   -19.934
10.1455      6.811   -22.424
10.2930      8.045   -23.544
10.4427      9.561   -20.836
10.5946     11.078   -18.129
10.7487     12.961   -21.980
10.9051     14.917   -27.140
11.0637     16.371   -34.917
11.2246     17.292   -45.462
11.3879     17.924   -55.821
11.5535     17.503   -65.500
11.7216     17.064   -75.003
11.8921     15.541   -74.116
12.0650     14.018   -73.230
12.2405     14.421   -62.215
12.4186     15.073   -49.895
12.5992     16.580   -48.589
12.7825     18.277   -49.726
12.9684     19.271   -54.873
13.1570     20.100   -60.954
13.3484     20.412   -67.556
13.5426     20.640   -74.243
13.7395     20.273   -81.054
13.9394     19.771   -87.539
14.1421     18.413   -91.508
14.3478     16.895   -91.126
14.5565     15.034   -81.388
14.7683     14.943   -67.746
14.9831     16.218   -51.087
15.2010     18.182   -48.673
15.4221     20.085   -49.897
15.6464     21.199   -56.414
15.8740     21.823   -63.509
16.1049     22.057   -71.066
16.3392     21.589   -76.461
16.5768     21.000   -79.615
16.8179     20.275   -79.628
17.0626     20.083   -76.723
17.3107     20.117   -74.283
17.5625     20.391   -73.123
17.8180     20.531   -72.649
18.0771     20.740   -71.704
18.3401     21.050   -70.466
18.6068     21.574   -70.838
18.8775     21.898   -72.675
19.1521     22.019   -74.491
19.4306     21.945   -75.327
19.7133     21.965   -74.211
20.0000     22.104   -73.146
20.2909     22.244   -71.650
20.5860     22.439   -69.210
20.8855     22.901   -65.402
21.1893     23.857   -63.708
21.4975     24.645   -65.079
21.8102     25.046   -66.672
22.1274     25.271   -66.074
22.4492     25.754   -63.230
22.7758     26.754   -61.010
23.1071     27.890   -62.388
23.4432     28.657   -65.891
23.7841     29.063   -68.433
24.1301     29.465   -69.395
24.4811     29.968   -70.090
24.8372     30.454   -70.847
25.1984     30.931   -70.818
25.5649     31.596   -70.094
25.9368     32.492   -70.360
26.3141     33.366   -72.453
26.6968     34.029   -75.083
27.0851     34.613   -76.900
27.4791     35.299   -78.664
27.8788     35.940   -81.319
28.2843     36.426   -83.669
28.6957     36.939   -85.025
29.1131     37.584   -86.417
29.5365     38.253   -88.486
29.9661     38.869   -90.880
30.4020     39.438   -93.278
30.8442     39.980   -95.463
31.2929     40.551   -97.505
31.7480     41.157   -99.815
32.2098     41.717  -102.595
32.6783     42.169  -105.007
33.1536     42.687  -106.710
33.6359     43.311  -108.867
34.1251     43.870  -111.596
34.6215     44.390  -114.012
35.1250     44.945  -116.384
35.6359     45.515  -118.933
36.1543     46.080  -121.700
36.6802     46.619  -124.504
37.2137     47.164  -127.327
37.7550     47.694  -130.243
38.3041     48.227  -133.112
38.8613     48.762  -136.116
39.4265     49.299  -139.189
40.0000     49.822  -142.475
40.5818     50.327  -145.736
41.1721     50.825  -149.245
41.7710     51.273  -152.718
42.3785     51.731  -156.132
42.9949     52.165  -159.705
43.6203     52.533  -163.260
44.2548     52.898  -165.983
44.8985     53.380  -169.015
45.5515     53.827  -172.339
46.2141     54.257  -175.768
46.8863     54.657  -178.925
47.5683     55.107   177.922
48.2602     55.571   174.561
48.9621     56.003   171.115
49.6743     56.471   167.600
50.3968     56.889   163.878
51.1299     57.317   160.286
51.8736     57.738   156.553
52.6281     58.146   152.777
53.3936     58.554   148.954
54.1702     58.941   145.104
54.9581     59.335   141.228
55.7575     59.717   137.303
56.5685     60.096   133.321
57.3914     60.460   129.303
58.2261     60.821   125.320
59.0730     61.178   121.209
59.9323     61.518   117.198
60.8040     61.864   113.103
61.6884     62.209   109.118
62.5857     62.556   104.970
63.4960     62.911   100.802
64.4196     63.248    96.470
65.3566     63.575    92.148
66.3073     63.899    87.768
67.2717     64.207    83.348
68.2502     64.513    78.914
69.2429     64.813    74.453
70.2501     65.120    69.980
71.2719     65.417    65.401
72.3086     65.729    60.710
73.3603     66.013    55.853
74.4274     66.276    50.939
75.5099     66.524    46.042
76.6083     66.742    41.130
77.7226     66.953    36.437
78.8531     67.188    31.785
80.0000     67.441    26.979
81.1636     67.693    22.030
82.3442     67.934    16.950
83.5419     68.168    11.736
84.7570     68.375     6.375
85.9899     68.553     0.998
87.2406     68.719    -4.301
88.5096     68.886    -9.621
89.7970     69.050   -15.046
91.1031     69.199   -20.683
92.4282     69.302   -26.445
93.7726     69.354   -32.138
95.1366     69.370   -37.473
96.5204     69.418   -42.536
97.9243     69.484   -47.668
99.3486     69.556   -52.844
100.794     69.621   -58.128
102.260     69.683   -63.449
103.747     69.737   -68.821
105.256     69.782   -74.237
106.787     69.821   -79.747
108.340     69.836   -85.387
109.916     69.792   -90.974
111.515     69.741   -96.109
113.137     69.736  -101.240
114.783     69.727  -106.500
116.452     69.706  -111.726
118.146     69.696  -116.883
119.865     69.690  -122.112
121.608     69.678  -127.382
123.377     69.670  -132.640
125.171     69.661  -137.982
126.992     69.653  -143.357
128.839     69.641  -148.835
130.713     69.615  -154.447
132.615     69.550  -160.011
134.543     69.483  -165.464
136.500     69.442  -170.973
138.486     69.403  -176.056
140.500     69.335   178.363
142.544     69.250   172.662
144.617     69.194   167.438
146.721     69.127   162.414
148.855     69.118   157.055
151.020     69.120   151.157
153.217     69.026   145.346
155.445     68.981   140.045
157.706     68.957   134.001
160.000     68.723   127.773
162.327     68.545   122.986
164.688     68.515   118.395
167.084     68.506   113.387
169.514     68.548   107.043
171.980     68.376   100.659
174.481     68.195    95.857
177.019     68.120    91.453
179.594     68.117    86.536
182.206     68.105    81.171
184.856     68.154    75.854
187.545     68.220    70.446
190.273     68.259    64.510
193.041     68.244    58.438
195.849     68.226    52.909
198.697     68.271    46.704
201.587     68.263    39.812
204.520     68.067    32.949
207.494     67.889    27.589
210.512     67.688    22.594
213.574     67.746    16.993
216.681     67.771    11.811
219.833     67.724     6.737
223.030     67.705     1.503
226.274     67.782    -4.395
229.565     67.764   -10.179
232.905     67.622   -15.785
236.292     67.582   -20.858
239.729     67.538   -26.240
243.216     67.577   -30.633
246.754     67.623   -36.455
250.343     67.578   -42.810
253.984     67.446   -48.764
257.678     67.400   -53.950
261.426     67.371   -59.256
265.229     67.313   -65.094
269.087     67.113   -70.562
273.001     67.020   -74.673
276.972     67.113   -78.833
281.000     66.937   -83.170
285.088     67.000   -88.726
289.234     67.175   -93.883
293.441     67.424   -99.117
297.709     67.367  -105.565
302.040     66.973  -110.999
306.433     66.764  -115.217
310.890     66.893  -118.134
315.412     67.082  -123.892
320.000     66.960  -128.955
324.655     66.838  -133.592
329.377     66.785  -137.696
334.168     66.912  -142.539
339.028     66.592  -148.340
343.959     66.609  -151.406
348.962     66.575  -154.794
354.038     66.506  -158.197
359.188     66.673  -162.486
364.412     66.588  -167.418
369.713     66.459  -172.504
375.090     66.323  -174.986
380.546     66.339  -178.020
386.081     66.514   177.369
391.697     66.212   173.340
397.394     66.298   170.991
403.175     66.219   167.832
409.039     66.333   165.031
414.989     66.301   162.445
421.025     66.412   159.406
427.149     66.545   156.771
433.362     66.664   153.429
439.665     66.799   149.574
446.060     66.808   145.988
452.548     66.810   141.778
459.131     66.797   138.110
465.809     66.758   134.357
472.584     66.680   130.370
479.458     66.595   126.753
486.432     66.438   123.254
493.507     66.296   120.050
500.686     66.174   116.728
507.968     66.003   113.452
515.357     65.840   110.462
522.853     65.679   107.866
530.458     65.548   105.311
538.174     65.482   103.017
546.002     65.410   100.881
553.943     65.379    98.777
562.001     65.374    96.718
570.175     65.392    94.481
578.469     65.461    92.253
586.883     65.549    90.034
595.419     65.651    87.751
604.080     65.752    85.126
612.866     65.890    82.409
621.780     66.018    79.458
630.824     66.138    76.292
640.000     66.264    72.899
649.309     66.365    69.564
658.753     66.438    65.987
668.335     66.502    62.082
678.056     66.524    58.350
687.919     66.540    54.369
697.925     66.489    50.473
708.077     66.420    46.546
718.376     66.320    42.647
728.825     66.185    38.981
739.426     66.003    35.242
750.181     65.813    31.740
761.093     65.583    28.528
772.163     65.353    25.506
783.394     65.100    22.801
794.789     64.864    20.290
806.349     64.627    18.114
818.078     64.415    16.191
829.977     64.228    14.302
842.050     64.077    12.485
854.298     63.987    10.656
866.724     63.900     8.851
879.330     63.827     6.890
892.120     63.761     4.577
905.097     63.694     2.137
918.262     63.615    -0.405
931.618     63.475    -3.032
945.169     63.326    -5.752
958.917     63.123    -8.249
972.864     62.883   -10.561
987.015     62.619   -12.555
1001.37     62.346   -14.214
1015.94     62.074   -15.205
1030.71     61.842   -15.944
1045.71     61.681   -16.485
1060.92     61.637   -16.777
1076.35     61.647   -17.158
1092.00     61.734   -18.050
1107.89     61.859   -19.199
1124.00     62.000   -21.113
1140.35     62.122   -23.241
1156.94     62.196   -25.908
1173.77     62.238   -28.698
1190.84     62.194   -31.587
1208.16     62.148   -34.366
1225.73     62.046   -36.945
1243.56     61.954   -39.391
1261.65     61.860   -41.637
1280.00     61.791   -43.810
1298.62     61.748   -46.046
1317.51     61.720   -48.569
1336.67     61.650   -51.335
1356.11     61.591   -54.348
1375.84     61.440   -57.401
1395.85     61.245   -60.220
1416.15     60.974   -62.804
1436.75     60.714   -64.682
1457.65     60.472   -65.984
1478.85     60.356   -66.825
1500.36     60.358   -67.747
1522.19     60.485   -69.051
1544.33     60.655   -71.250
1566.79     60.784   -74.570
1589.58     60.845   -78.680
1612.70     60.750   -83.097
1636.16     60.504   -87.431
1659.95     60.110   -90.890
1684.10     59.671   -93.408
1708.60     59.280   -94.648
1733.45     59.062   -94.991
1758.66     59.038   -95.609
1784.24     59.169   -97.196
1810.19     59.285  -100.016
1836.52     59.294  -103.931
1863.24     59.124  -107.866
1890.34     58.786  -111.372
1917.83     58.368  -113.621
1945.73     58.041  -114.539
1974.03     57.897  -114.767
2002.74     57.947  -115.805
2031.87     58.130  -118.150
2061.43     58.177  -121.500
2091.41     58.042  -125.287
2121.83     57.748  -128.732
2152.69     57.398  -130.852
2184.01     57.147  -131.934
2215.77     57.057  -132.888
2248.00     57.055  -134.657
2280.70     56.996  -137.280
2313.87     56.761  -139.817
2347.53     56.407  -140.851
2381.68     56.151  -140.220
2416.32     56.283  -138.615
2451.46     56.718  -138.313
2487.12     57.228  -140.224
2523.30     57.575  -143.565
2560.00     57.741  -146.950
2597.24     57.842  -149.435
2635.01     58.066  -151.371
2673.34     58.435  -153.803
2712.23     58.826  -157.620
2751.68     59.088  -162.340
2791.70     59.194  -166.979
2832.31     59.227  -170.888
2873.50     59.318  -174.364
2915.30     59.492  -178.312
2957.70     59.630   177.016
3000.72     59.618   172.009
3044.37     59.483   167.610
3088.65     59.337   164.144
3133.58     59.303   161.001
3179.16     59.302   157.383
3225.40     59.212   153.387
3272.31     59.004   149.896
3319.91     58.821   147.759
3368.20     58.804   146.006
3417.19     58.903   143.564
3466.89     58.965   140.403
3517.32     58.937   137.520
3568.48     58.927   135.249
3620.39     59.066   132.803
3673.05     59.239   129.648
3726.47     59.333   125.967
3780.67     59.385   122.431
3835.67     59.397   118.778
3891.46     59.378   114.957
3948.06     59.278   111.384
4005.49     59.187   108.386
4063.75     59.159   104.929
4122.86     59.014   100.959
4182.82     58.688    97.703
4243.66     58.387    96.081
4305.39     58.247    94.669
4368.01     58.120    92.787
4431.55     57.943    91.654
4496.01     57.912    91.237
4561.40     58.050    90.363
4627.75     58.199    88.539
4695.06     58.302    86.448
4763.35     58.385    84.372
4832.64     58.486    82.229
4902.93     58.613    79.644
4974.24     58.679    76.612
5046.60     58.669    73.658
5120.00     58.603    70.741
5194.47     58.478    68.317
5270.03     58.415    66.073
5346.68     58.274    63.642
5424.45     58.091    62.300
5503.35     58.098    60.920
5583.40     57.974    58.899
5664.61     57.888    58.310
5747.01     58.015    56.744
5830.60     57.913    54.821
5915.41     57.957    53.842
6001.45     57.927    51.778
6088.74     57.903    51.451
6177.30     58.132    49.449
6267.15     58.028    47.476
6358.31     58.166    46.722
6450.80     58.248    44.575
6544.62     58.450    43.362
6639.82     58.689    39.935
6736.40     58.760    36.740
6834.38     58.798    32.224
6933.79     58.521    28.499
7034.64     58.266    24.958
7136.96     57.788    22.811
7240.77     57.494    21.465
7346.09     57.156    20.685
7452.94     57.013    19.921
7561.35     56.841    19.515
7671.33     56.822    18.142
7782.91     56.773    17.097
7896.12     56.682    14.372
8010.97     56.427    12.518
8127.49     55.978    10.198
8245.71     55.502    10.013
8365.65     54.989    12.168
8487.33     55.334    13.179
8610.78     55.348     9.731
8736.03     54.698     5.247
8863.09     53.973     5.336
8992.01     53.305     6.239
9122.80     53.011     7.080
9255.50     52.817     8.463
9390.12     52.808     7.271
9526.70     52.674     3.557
9665.27     52.003     1.230
9805.86     51.245    -0.111
9948.49     50.569     0.820
10093.2     50.129     4.303
10240.0     50.081     7.349
10388.9     50.350     7.876
10540.1     50.393     7.762
10693.4     50.377     7.947
10848.9     50.360     7.442
11006.7     50.240     6.088
11166.8     49.911     5.303
11329.2     49.427     6.540
11494.0     49.046     9.388
11661.2     48.974    14.228
11830.8     49.495    18.730
12002.9     50.413    19.591
12177.5     51.090    16.297
12354.6     51.240    11.910
12534.3     50.874     8.310
12716.6     50.317     9.044
12901.6     50.353    12.394
13089.2     50.924    14.015
13279.6     51.598    12.673
13472.8     52.034     8.700
13668.8     52.164     4.083
13867.6     51.965    -0.621
14069.3     51.496    -3.462
14273.9     51.043    -2.848
14481.5     51.311    -0.603
14692.2     52.135    -2.770
14905.9     52.595   -10.759
15122.7     52.215   -19.720
15342.7     51.160   -25.707
15565.8     50.087   -25.991
15792.2     49.734   -24.584
16021.9     49.817   -25.646
16255.0     49.719   -30.842
16491.4     49.179   -36.149
16731.3     48.280   -41.762
16974.7     46.688   -44.357
17221.6     45.327   -37.398
17472.1     45.807   -32.402
17726.2     46.012   -35.566
17984.0     45.341   -38.921
18245.6     44.516   -38.550
18511.0     44.350   -36.538
18780.2     44.433   -36.668
19053.4     44.484   -39.559
19330.5     44.053   -44.891
19611.7     43.280   -47.693
19897.0     41.981   -45.057
20186.4     42.684   -39.845
20480.0     43.053   -45.534
20777.9     42.627   -49.832
21080.1     42.096   -49.392
21386.7     42.198   -47.660
21697.8     42.823   -47.760
22013.4     43.608   -51.763
22333.6     44.050   -55.886
22658.4     44.738   -59.941
22988.0     45.384   -66.084
23322.4     46.182   -72.706
23661.6     47.056   -81.257
24005.8     47.697   -90.615
24355.0     48.337   -98.716
24709.2     49.488  -108.707
25068.6     50.060  -123.026
25433.2     50.420  -133.514
25803.2     51.204  -145.033
26178.5     52.254  -160.269
26559.3     52.360   179.428
26945.6     51.677   164.518
27337.5     51.666   153.117
27735.2     51.577   135.481
28138.6     50.258   120.336
28547.9     49.226   110.544
28963.1     48.273   100.634
29384.4     47.607    90.840
29811.8     46.613    78.065
30245.4     45.196    68.877
30685.3     44.468    57.401
31131.7     43.304    38.385
31584.5     41.020    15.258
32043.9     37.733   -16.889
32510.0     32.977   -69.718
32982.8     31.944  -156.530
33462.6     33.162   134.359
33949.3     34.477    92.530
34443.1     33.866    35.086
34944.1     30.502   -36.721
35452.4     25.454  -108.076
35968.0     23.297  -131.440
36491.2     22.686   170.933
37022.0     31.808  -130.278
37560.5     34.092   176.445
38106.8     29.532   139.597
38661.1     25.803   114.852
39223.4     19.699   145.210
39793.9     21.623  -129.148
