Freq[Hz]     dBSPL  Phase[Deg]
5.00000    -19.663    81.860
5.07273    -19.509    85.163
5.14651    -19.364    88.751
5.22137    -19.248    93.132
5.29732    -19.132    97.513
5.37437    -19.016   101.894
5.45254    -18.900   106.275
5.53185    -18.635   110.389
5.61231    -18.212   114.220
5.69394    -17.789   118.051
5.77676    -17.366   121.881
5.86079    -16.951   125.691
5.94604    -16.983   128.292
6.03252    -17.015   130.893
6.12027    -17.047   133.493
6.20929    -17.079   136.094
6.29961    -16.868   143.319
6.39124    -16.602   151.569
6.48420    -16.336   159.820
6.57851    -16.071   168.070
6.67420    -15.380   170.690
6.77128    -14.620   172.395
6.86977    -13.860   174.101
6.96969    -13.260   176.096
7.07107    -13.882  -179.698
7.17392    -14.503  -175.492
7.27827    -15.124  -171.286
7.38413    -14.717  -162.947
7.49154    -13.517  -151.414
7.60050    -12.316  -139.882
7.71105    -11.232  -130.874
7.82321    -10.659  -132.952
7.93701    -10.086  -135.030
8.05245     -9.512  -137.108
8.16958    -10.469  -124.481
8.28841    -11.482  -111.304
8.40896    -12.496   -98.127
8.53128    -10.353   -90.346
8.65537     -7.802   -83.262
8.78126     -5.252   -76.178
8.90899     -5.330   -78.423
9.03857     -5.581   -81.279
9.17004     -5.704   -80.837
9.30342     -4.813   -54.142
9.43874     -3.921   -27.447
9.57603     -2.092   -11.954
9.71532      1.169   -13.574
9.85663      4.431   -15.194
10.0000      6.028   -17.491
10.1455      7.162   -19.977
10.2930      8.397   -21.093
10.4427      9.916   -18.382
10.5946     11.434   -15.670
10.7487     13.319   -19.517
10.9051     15.276   -24.673
11.0637     16.731   -32.446
11.2246     17.654   -42.986
11.3879     18.287   -53.341
11.5535     17.868   -63.016
11.7216     17.430   -72.514
11.8921     15.909   -71.623
12.0650     14.387   -70.733
12.2405     14.792   -59.713
12.4186     15.445   -47.388
12.5992     16.954   -46.077
12.7825     18.653   -47.209
12.9684     19.648   -52.351
13.1570     20.479   -58.428
13.3484     20.792   -65.024
13.5426     21.021   -71.706
13.7395     20.656   -78.512
13.9394     20.156   -84.992
14.1421     18.799   -88.955
14.3478     17.283   -88.568
14.5565     15.424   -78.824
14.7683     15.334   -65.176
14.9831     16.610   -48.512
15.2010     18.576   -46.093
15.4221     20.480   -47.310
15.6464     21.596   -53.821
15.8740     22.222   -60.910
16.1049     22.457   -68.461
16.3392     21.990   -73.850
16.5768     21.403   -76.997
16.8179     20.680   -77.004
17.0626     20.489   -74.093
17.3107     20.525   -71.646
17.5625     20.800   -70.480
17.8180     20.942   -69.999
18.0771     21.152   -69.046
18.3401     21.464   -67.802
18.6068     21.989   -68.167
18.8775     22.315   -69.997
19.1521     22.437   -71.805
19.4306     22.364   -72.634
19.7133     22.386   -71.511
20.0000     22.527   -70.437
20.2909     22.668   -68.934
20.5860     22.865   -66.487
20.8855     23.328   -62.670
21.1893     24.285   -60.968
21.4975     25.075   -62.331
21.8102     25.478   -63.916
22.1274     25.704   -63.310
22.4492     26.188   -60.457
22.7758     27.190   -58.228
23.1071     28.328   -59.598
23.4432     29.096   -63.092
23.7841     29.504   -65.625
24.1301     29.908   -66.577
24.4811     30.412   -67.263
24.8372     30.899   -68.010
25.1984     31.377   -67.972
25.5649     32.044   -67.238
25.9368     32.942   -67.495
26.3141     33.818   -69.578
26.6968     34.482   -72.197
27.0851     35.067   -74.004
27.4791     35.755   -75.757
27.8788     36.398   -78.402
28.2843     36.885   -80.741
28.6957     37.399   -82.087
29.1131     38.046   -83.467
29.5365     38.717   -85.525
29.9661     39.334   -87.908
30.4020     39.904   -90.294
30.8442     40.449   -92.468
31.2929     41.021   -94.497
31.7480     41.628   -96.795
32.2098     42.190   -99.563
32.6783     42.643  -101.963
33.1536     43.163  -103.653
33.6359     43.788  -105.798
34.1251     44.349  -108.513
34.6215     44.870  -110.916
35.1250     45.427  -113.275
35.6359     45.999  -115.810
36.1543     46.565  -118.563
36.6802     47.105  -121.353
37.2137     47.652  -124.162
37.7550     48.183  -127.064
38.3041     48.718  -129.919
38.8613     49.254  -132.907
39.4265     49.793  -135.965
40.0000     50.317  -139.237
40.5818     50.824  -142.482
41.1721     51.324  -145.975
41.7710     51.773  -149.432
42.3785     52.232  -152.830
42.9949     52.668  -156.386
43.6203     53.037  -159.925
44.2548     53.404  -162.632
44.8985     53.888  -165.646
45.5515     54.336  -168.953
46.2141     54.768  -172.364
46.8863     55.169  -175.504
47.5683     55.620  -178.639
48.2602     56.086   178.018
48.9621     56.520   174.592
49.6743     56.990   171.096
50.3968     57.408   167.393
51.1299     57.838   163.820
51.8736     58.260   160.107
52.6281     58.671   156.351
53.3936     59.080   152.548
54.1702     59.468   148.718
54.9581     59.864   144.863
55.7575     60.247   140.960
56.5685     60.628   137.000
57.3914     60.993   133.003
58.2261     61.356   129.042
59.0730     61.715   124.954
59.9323     62.055   120.965
60.8040     62.403   116.893
61.6884     62.749   112.932
62.5857     63.099   108.808
63.4960     63.455   104.664
64.4196     63.793   100.357
65.3566     64.122    96.059
66.3073     64.448    91.705
67.2717     64.757    87.310
68.2502     65.064    82.902
69.2429     65.366    78.468
70.2501     65.674    74.021
71.2719     65.973    69.469
72.3086     66.286    64.806
73.3603     66.572    59.976
74.4274     66.837    55.091
75.5099     67.086    50.223
76.6083     67.305    45.340
77.7226     67.518    40.676
78.8531     67.755    36.055
80.0000     68.009    31.279
81.1636     68.262    26.361
82.3442     68.505    21.312
83.5419     68.740    16.129
84.7570     68.949    10.801
85.9899     69.129     5.457
87.2406     69.296     0.191
88.5096     69.465    -5.095
89.7970     69.630   -10.486
91.1031     69.780   -16.089
92.4282     69.886   -21.815
93.7726     69.939   -27.473
95.1366     69.956   -32.772
96.5204     70.006   -37.798
97.9243     70.073   -42.892
99.3486     70.147   -48.031
100.794     70.213   -53.277
102.260     70.277   -58.559
103.747     70.332   -63.891
105.256     70.379   -69.268
106.787     70.420   -74.737
108.340     70.436   -80.336
109.916     70.393   -85.881
111.515     70.344   -90.973
113.137     70.341   -96.061
114.783     70.333  -101.277
116.452     70.314  -106.459
118.146     70.306  -111.571
119.865     70.301  -116.755
121.608     70.290  -121.978
123.377     70.283  -127.190
125.171     70.276  -132.484
126.992     70.270  -137.811
128.839     70.259  -143.239
130.713     70.235  -148.802
132.615     70.171  -154.315
134.543     70.106  -159.717
136.500     70.067  -165.175
138.486     70.029  -170.204
140.500     69.962  -175.732
142.544     69.879   178.621
144.617     69.824   173.452
146.721     69.758   168.484
148.855     69.752   163.181
151.020     69.755   157.341
153.217     69.662   151.588
155.445     69.619   146.346
157.706     69.596   140.362
160.000     69.364   134.195
162.327     69.187   129.469
164.688     69.159   124.941
167.084     69.151   119.997
169.514     69.195   113.717
171.980     69.024   107.399
174.481     68.845   102.663
177.019     68.772    98.326
179.594     68.770    93.478
182.206     68.760    88.182
184.856     68.810    82.935
187.545     68.878    77.598
190.273     68.919    71.735
193.041     68.905    65.736
195.849     68.888    60.282
198.697     68.935    54.152
201.587     68.928    47.338
204.520     68.755    40.851
207.494     68.539    35.862
210.512     68.288    30.793
213.574     68.358    24.963
216.681     68.427    19.843
219.833     68.407    15.176
223.030     68.338    10.399
226.274     68.333     4.298
229.565     68.343    -2.015
232.905     68.281    -7.515
236.292     68.253   -12.187
239.729     68.194   -17.455
243.216     68.241   -21.805
246.754     68.301   -27.530
250.343     68.274   -33.742
253.984     68.153   -39.464
257.678     68.093   -44.475
261.426     68.066   -49.824
265.229     68.045   -55.533
269.087     67.845   -60.717
273.001     67.749   -64.780
276.972     67.862   -68.793
281.000     67.682   -73.033
285.088     67.795   -78.566
289.234     67.992   -83.111
293.441     68.170   -88.261
297.709     68.151   -95.023
302.040     67.805  -100.159
306.433     67.613  -104.193
310.890     67.758  -106.807
315.412     67.953  -112.527
320.000     67.878  -117.288
324.655     67.739  -121.661
329.377     67.708  -125.756
334.168     67.863  -130.480
339.028     67.614  -136.010
343.959     67.602  -138.470
348.962     67.558  -142.145
354.038     67.555  -145.370
359.188     67.751  -149.526
364.412     67.715  -154.239
369.713     67.636  -159.079
375.090     67.524  -161.281
380.546     67.589  -164.082
386.081     67.793  -168.514
391.697     67.543  -172.267
397.394     67.672  -174.458
403.175     67.645  -177.417
409.039     67.818  -179.957
414.989     67.841   177.603
421.025     68.014   174.880
427.149     68.197   172.409
433.362     68.372   169.114
439.665     68.596   165.441
446.060     68.679   161.971
452.548     68.753   157.919
459.131     68.812   154.239
465.809     68.877   150.489
472.584     68.899   146.521
479.458     68.884   143.064
486.432     68.803   139.235
493.507     68.766   135.908
500.686     68.731   132.268
507.968     68.662   128.762
515.357     68.549   125.466
522.853     68.470   122.343
530.458     68.398   119.371
538.174     68.350   116.533
546.002     68.312   113.759
553.943     68.296   111.089
562.001     68.287   108.513
570.175     68.284   105.906
578.469     68.295   103.273
586.883     68.334   100.790
595.419     68.366    98.266
604.080     68.417    95.733
612.866     68.482    93.057
621.780     68.551    90.436
630.824     68.624    87.619
640.000     68.699    84.860
649.309     68.777    82.038
658.753     68.837    79.166
668.335     68.914    76.116
678.056     68.963    73.164
687.919     69.003    70.074
697.925     69.041    67.001
708.077     69.055    63.957
718.376     69.062    60.923
728.825     69.055    57.929
739.426     69.040    54.985
750.181     69.009    52.110
761.093     68.974    49.287
772.163     68.936    46.602
783.394     68.895    44.026
794.789     68.860    41.490
806.349     68.833    39.096
818.078     68.805    36.738
829.977     68.797    34.443
842.050     68.798    32.127
854.298     68.810    29.883
866.724     68.839    27.566
879.330     68.872    25.260
892.120     68.911    22.807
905.097     68.954    20.344
918.262     68.992    17.790
931.618     69.026    15.152
945.169     69.060    12.491
958.917     69.076     9.811
972.864     69.091     7.072
987.015     69.097     4.379
1001.37     69.084     1.684
1015.94     69.071    -1.022
1030.71     69.056    -3.635
1045.71     69.042    -6.253
1060.92     69.028    -8.868
1076.35     69.008   -11.427
1092.00     68.995   -14.031
1107.89     68.985   -16.637
1124.00     68.966   -19.300
1140.35     68.948   -21.989
1156.94     68.921   -24.697
1173.77     68.885   -27.449
1190.84     68.838   -30.155
1208.16     68.781   -32.859
1225.73     68.724   -35.524
1243.56     68.651   -38.125
1261.65     68.584   -40.647
1280.00     68.514   -43.080
1298.62     68.449   -45.461
1317.51     68.395   -47.811
1336.67     68.350   -50.158
1356.11     68.315   -52.506
1375.84     68.281   -54.873
1395.85     68.256   -57.394
1416.15     68.235   -59.888
1436.75     68.211   -62.414
1457.65     68.180   -65.032
1478.85     68.147   -67.672
1500.36     68.102   -70.320
1522.19     68.053   -73.026
1544.33     67.990   -75.677
1566.79     67.921   -78.333
1589.58     67.844   -80.949
1612.70     67.757   -83.506
1636.16     67.673   -86.002
1659.95     67.584   -88.407
1684.10     67.502   -90.799
1708.60     67.424   -93.106
1733.45     67.348   -95.354
1758.66     67.281   -97.618
1784.24     67.220   -99.848
1810.19     67.161  -102.092
1836.52     67.106  -104.328
1863.24     67.058  -106.623
1890.34     67.016  -108.905
1917.83     66.964  -111.214
1945.73     66.910  -113.569
1974.03     66.848  -115.906
2002.74     66.769  -118.180
2031.87     66.700  -120.358
2061.43     66.628  -122.367
2091.41     66.574  -124.300
2121.83     66.549  -126.236
2152.69     66.547  -128.170
2184.01     66.563  -130.325
2215.77     66.588  -132.626
2248.00     66.609  -135.112
2280.70     66.622  -137.757
2313.87     66.610  -140.527
2347.53     66.573  -143.405
2381.68     66.492  -146.326
2416.32     66.375  -149.157
2451.46     66.221  -151.729
2487.12     66.057  -154.009
2523.30     65.923  -156.000
2560.00     65.832  -157.914
2597.24     65.783  -160.022
2635.01     65.728  -162.427
2673.34     65.631  -165.140
2712.23     65.483  -167.878
2751.68     65.280  -170.489
2791.70     65.053  -172.767
2832.31     64.809  -174.807
2873.50     64.563  -176.624
2915.30     64.306  -178.279
2957.70     64.043  -179.680
3000.72     63.790   179.259
3044.37     63.560   178.474
3088.65     63.377   177.812
3133.58     63.233   177.042
3179.16     63.083   175.948
3225.40     62.865   174.783
3272.31     62.572   174.102
3319.91     62.281   174.417
3368.20     62.109   175.373
3417.19     62.094   176.162
3466.89     62.116   176.298
3517.32     62.097   176.220
3568.48     62.078   176.301
3620.39     62.107   176.496
3673.05     62.159   176.419
3726.47     62.194   176.196
3780.67     62.223   176.017
3835.67     62.255   175.940
3891.46     62.282   175.856
3948.06     62.324   175.933
4005.49     62.413   175.929
4063.75     62.479   175.761
4122.86     62.486   175.796
4182.82     62.544   176.534
4243.66     62.735   177.305
4305.39     62.962   177.533
4368.01     63.185   177.759
4431.55     63.508   177.901
4496.01     63.886   177.125
4561.40     64.194   175.503
4627.75     64.399   173.619
4695.06     64.519   171.751
4763.35     64.572   170.300
4832.64     64.672   169.152
4902.93     64.775   167.490
4974.24     64.779   165.658
5046.60     64.723   164.099
5120.00     64.569   162.542
5194.47     64.264   162.015
5270.03     64.020   163.168
5346.68     63.940   165.031
5424.45     64.057   167.319
5503.35     64.385   168.727
5583.40     64.690   169.189
5664.61     65.050   169.598
5747.01     65.486   168.920
5830.60     65.858   167.239
5915.41     66.122   164.546
6001.45     66.117   161.616
6088.74     65.998   159.835
6177.30     65.812   158.244
6267.15     65.516   157.916
6358.31     65.312   158.446
6450.80     65.131   159.697
6544.62     65.124   161.297
6639.82     65.127   162.582
6736.40     65.237   164.057
6834.38     65.309   164.982
6933.79     65.436   166.361
7034.64     65.542   167.349
7136.96     65.715   168.742
7240.77     65.834   169.648
7346.09     66.024   171.556
7452.94     66.298   172.885
7561.35     66.652   174.127
7671.33     66.970   174.622
7782.91     67.338   175.089
7896.12     67.645   174.961
8010.97     67.945   174.475
8127.49     68.062   174.386
8245.71     68.193   174.790
8365.65     68.431   175.945
8487.33     68.788   175.065
8610.78     68.873   172.873
8736.03     68.604   171.671
8863.09     68.378   171.962
8992.01     68.205   173.391
9122.80     68.244   174.800
9255.50     68.468   175.359
9390.12     68.649   174.537
9526.70     68.742   172.908
9665.27     68.709   171.203
9805.86     68.574   170.187
9948.49     68.461   169.868
10093.2     68.471   170.328
10240.0     68.613   170.963
10388.9     68.807   170.852
10540.1     68.986   170.123
10693.4     69.075   169.304
10848.9     69.084   168.764
11006.7     69.114   168.502
11166.8     69.189   168.059
11329.2     69.166   167.257
11494.0     69.045   167.204
11661.2     68.994   168.034
11830.8     69.078   168.724
12002.9     69.243   168.605
12177.5     69.342   167.593
12354.6     69.288   166.178
12534.3     69.060   165.295
12716.6     68.809   165.544
12901.6     68.650   166.144
13089.2     68.479   166.607
13279.6     68.316   167.595
13472.8     68.241   168.370
13668.8     68.148   168.637
13867.6     67.957   168.432
14069.3     67.584   168.719
14273.9     67.168   170.533
14481.5     66.923   173.566
14692.2     66.943   175.820
14905.9     66.886   176.220
15122.7     66.525   176.723
15342.7     66.082   179.055
15565.8     65.809  -177.353
15792.2     65.748  -174.201
16021.9     65.684  -172.277
16255.0     65.453  -170.269
16491.4     65.217  -167.190
16731.3     65.112  -163.703
16974.7     65.212  -160.714
17221.6     65.270  -160.027
17472.1     64.946  -159.554
17726.2     64.486  -157.567
17984.0     63.998  -154.330
18245.6     63.581  -150.021
18511.0     63.323  -144.993
18780.2     63.199  -140.326
19053.4     63.063  -136.094
19330.5     62.909  -131.368
19611.7     62.894  -126.627
19897.0     62.799  -122.631
20186.4     62.694  -117.768
20480.0     62.397  -113.011
20777.9     62.254  -104.669
21080.1     62.658   -96.378
21386.7     63.184   -91.028
21697.8     63.549   -85.494
22013.4     64.080   -78.788
22333.6     64.915   -73.156
22658.4     65.834   -68.690
22988.0     66.875   -64.994
23322.4     68.082   -62.844
23661.6     69.403   -62.556
24005.8     70.818   -65.349
24355.0     71.991   -72.624
24709.2     72.345   -82.004
25068.6     72.120   -88.292
25433.2     72.131   -92.095
25803.2     72.469   -98.835
26178.5     72.138  -109.163
26559.3     71.184  -116.669
26945.6     70.141  -121.313
27337.5     69.227  -124.108
27735.2     68.406  -128.055
28138.6     67.075  -131.959
28547.9     65.461  -133.099
28963.1     63.502  -128.486
29384.4     63.002  -119.688
29811.8     62.662  -118.585
30245.4     61.790  -117.511
30685.3     60.951  -116.466
31131.7     59.650  -115.495
31584.5     58.386  -112.231
32043.9     57.062  -108.837
32510.0     55.861  -104.071
32982.8     54.739  -101.182
33462.6     53.356   -97.347
33949.3     51.955   -92.180
34443.1     50.977   -87.157
34944.1     49.761   -84.772
35452.4     47.735   -81.282
35968.0     46.781   -74.036
36491.2     44.036   -64.626
37022.0     44.662   -55.808
37560.5     43.858   -67.370
38106.8     39.557   -53.224
38661.1     38.922   -59.101
39223.4     31.251   -38.957
39793.9     32.409    -5.132
