"SPL Horizontal"
"On-Axis"		"10°"		"-10°"		"20°"		"-20°"		"30°"		"-30°"		"40°"		"-40°"		"50°"		"-50°"		"60°"		"-60°"		"70°"		"-70°"		"80°"		"-80°"		"90°"		"-90°"		"100°"		"-100°"		"110°"		"-110°"		"120°"		"-120°"		"130°"		"-130°"		"140°"		"-140°"		"150°"		"-150°"		"160°"		"-160°"		"170°"		"-170°"		"180°"
"Frequency / Hz"	"Sound Pressure Level / dB (re 20 µPa/V)  [2.83  V @ 1. m]"	"Frequency / Hz"	"Sound Pressure Level / dB (re 20 µPa/V)  [2.83  V @ 1. m]"	"Frequency / Hz"	"Sound Pressure Level / dB (re 20 µPa/V)  [2.83  V @ 1. m]"	"Frequency / Hz"	"Sound Pressure Level / dB (re 20 µPa/V)  [2.83  V @ 1. m]"	"Frequency / Hz"	"Sound Pressure Level / dB (re 20 µPa/V)  [2.83  V @ 1. m]"	"Frequency / Hz"	"Sound Pressure Level / dB (re 20 µPa/V)  [2.83  V @ 1. m]"	"Frequency / Hz"	"Sound Pressure Level / dB (re 20 µPa/V)  [2.83  V @ 1. m]"	"Frequency / Hz"	"Sound Pressure Level / dB (re 20 µPa/V)  [2.83  V @ 1. m]"	"Frequency / Hz"	"Sound Pressure Level / dB (re 20 µPa/V)  [2.83  V @ 1. m]"	"Frequency / Hz"	"Sound Pressure Level / dB (re 20 µPa/V)  [2.83  V @ 1. m]"	"Frequency / Hz"	"Sound Pressure Level / dB (re 20 µPa/V)  [2.83  V @ 1. m]"	"Frequency / Hz"	"Sound Pressure Level / dB (re 20 µPa/V)  [2.83  V @ 1. m]"	"Frequency / Hz"	"Sound Pressure Level / dB (re 20 µPa/V)  [2.83  V @ 1. m]"	"Frequency / Hz"	"Sound Pressure Level / dB (re 20 µPa/V)  [2.83  V @ 1. m]"	"Frequency / Hz"	"Sound Pressure Level / dB (re 20 µPa/V)  [2.83  V @ 1. m]"	"Frequency / Hz"	"Sound Pressure Level / dB (re 20 µPa/V)  [2.83  V @ 1. m]"	"Frequency / Hz"	"Sound Pressure Level / dB (re 20 µPa/V)  [2.83  V @ 1. m]"	"Frequency / Hz"	"Sound Pressure Level / dB (re 20 µPa/V)  [2.83  V @ 1. m]"	"Frequency / Hz"	"Sound Pressure Level / dB (re 20 µPa/V)  [2.83  V @ 1. m]"	"Frequency / Hz"	"Sound Pressure Level / dB (re 20 µPa/V)  [2.83  V @ 1. m]"	"Frequency / Hz"	"Sound Pressure Level / dB (re 20 µPa/V)  [2.83  V @ 1. m]"	"Frequency / Hz"	"Sound Pressure Level / dB (re 20 µPa/V)  [2.83  V @ 1. m]"	"Frequency / Hz"	"Sound Pressure Level / dB (re 20 µPa/V)  [2.83  V @ 1. m]"	"Frequency / Hz"	"Sound Pressure Level / dB (re 20 µPa/V)  [2.83  V @ 1. m]"	"Frequency / Hz"	"Sound Pressure Level / dB (re 20 µPa/V)  [2.83  V @ 1. m]"	"Frequency / Hz"	"Sound Pressure Level / dB (re 20 µPa/V)  [2.83  V @ 1. m]"	"Frequency / Hz"	"Sound Pressure Level / dB (re 20 µPa/V)  [2.83  V @ 1. m]"	"Frequency / Hz"	"Sound Pressure Level / dB (re 20 µPa/V)  [2.83  V @ 1. m]"	"Frequency / Hz"	"Sound Pressure Level / dB (re 20 µPa/V)  [2.83  V @ 1. m]"	"Frequency / Hz"	"Sound Pressure Level / dB (re 20 µPa/V)  [2.83  V @ 1. m]"	"Frequency / Hz"	"Sound Pressure Level / dB (re 20 µPa/V)  [2.83  V @ 1. m]"	"Frequency / Hz"	"Sound Pressure Level / dB (re 20 µPa/V)  [2.83  V @ 1. m]"	"Frequency / Hz"	"Sound Pressure Level / dB (re 20 µPa/V)  [2.83  V @ 1. m]"	"Frequency / Hz"	"Sound Pressure Level / dB (re 20 µPa/V)  [2.83  V @ 1. m]"	"Frequency / Hz"	"Sound Pressure Level / dB (re 20 µPa/V)  [2.83  V @ 1. m]"	"Frequency / Hz"	"Sound Pressure Level / dB (re 20 µPa/V)  [2.83  V @ 1. m]"
20.5078	52.1005	20.5078	52.0498	20.5078	52.0044	20.5078	51.8696	20.5078	51.7494	20.5078	51.5882	20.5078	51.3278	20.5078	51.2546	20.5078	50.7424	20.5078	50.9511	20.5078	50.0247	20.5078	50.7977	20.5078	49.277	20.5078	50.9256	20.5078	48.735	20.5078	51.4109	20.5078	48.7525	20.5078	52.2199	20.5078	49.5347	20.5078	53.2329	20.5078	50.8909	20.5078	54.3148	20.5078	52.4538	20.5078	55.3616	20.5078	53.9638	20.5078	56.3065	20.5078	55.2994	20.5078	57.1097	20.5078	56.4144	20.5078	57.747	20.5078	57.2934	20.5078	58.2017	20.5078	57.9333	20.5078	58.4598	20.5078	58.3362	20.5078	58.5086
21.9727	52.8348	21.9727	52.9288	21.9727	52.611	21.9727	52.9006	21.9727	52.2603	21.9727	52.7677	21.9727	51.803	21.9727	52.5623	21.9727	51.2922	21.9727	52.3391	21.9727	50.8384	21.9727	52.1821	21.9727	50.6221	21.9727	52.1998	21.9727	50.8399	21.9727	52.4924	21.9727	51.5652	21.9727	53.0981	21.9727	52.6776	21.9727	53.9655	21.9727	53.9673	21.9727	54.9853	21.9727	55.2617	21.9727	56.0428	21.9727	56.4584	21.9727	57.0492	21.9727	57.5044	21.9727	57.9444	21.9727	58.3722	21.9727	58.6898	21.9727	59.0453	21.9727	59.2598	21.9727	59.513	21.9727	59.6369	21.9727	59.7683	21.9727	59.8089
23.4375	55.8352	23.4375	55.7842	23.4375	55.7755	23.4375	55.626	23.4375	55.6097	23.4375	55.3744	23.4375	55.353	23.4375	55.0588	23.4375	55.0367	23.4375	54.7342	23.4375	54.7179	23.4375	54.4893	23.4375	54.4877	23.4375	54.4411	23.4375	54.4631	23.4375	54.6945	23.4375	54.7448	23.4375	55.2812	23.4375	55.3563	23.4375	56.1338	23.4375	56.2243	23.4375	57.1286	23.4375	57.2245	23.4375	58.1454	23.4375	58.2398	23.4375	59.0965	23.4375	59.1852	23.4375	59.9262	23.4375	60.0056	23.4375	60.6007	23.4375	60.6669	23.4375	61.0994	23.4375	61.1475	23.4375	61.4094	23.4375	61.4348	23.4375	61.5224
24.9023	57.8467	24.9023	57.8158	24.9023	57.7936	24.9023	57.706	24.9023	57.6606	24.9023	57.5329	24.9023	57.4626	24.9023	57.3261	24.9023	57.2295	24.9023	57.1333	24.9023	57.0118	24.9023	57.0225	24.9023	56.8829	24.9023	57.0723	24.9023	56.9293	24.9023	57.3471	24.9023	57.22	24.9023	57.8642	24.9023	57.7699	24.9023	58.5819	24.9023	58.5275	24.9023	59.4195	24.9023	59.402	24.9023	60.2894	24.9023	60.3	24.9023	61.1188	24.9023	61.1472	24.9023	61.8544	24.9023	61.891	24.9023	62.4599	24.9023	62.4961	24.9023	62.9109	24.9023	62.9396	24.9023	63.1914	24.9023	63.2072	24.9023	63.2915
26.3672	59.9256	26.3672	59.8929	26.3672	59.8985	26.3672	59.8058	26.3672	59.8147	26.3672	59.6788	26.3672	59.6862	26.3672	59.5369	26.3672	59.5362	26.3672	59.4184	26.3672	59.4017	26.3672	59.3728	26.3672	59.3337	26.3672	59.4542	26.3672	59.3908	26.3672	59.7053	26.3672	59.6226	26.3672	60.1388	26.3672	60.0485	26.3672	60.7297	26.3672	60.6456	26.3672	61.4236	26.3672	61.3568	26.3672	62.156	26.3672	62.1114	26.3672	62.8666	26.3672	62.8436	26.3672	63.5067	26.3672	63.5008	26.3672	64.0399	26.3672	64.0444	26.3672	64.4399	26.3672	64.4479	26.3672	64.6888	26.3672	64.6945	26.3672	64.7753
27.832	61.4011	27.832	61.3901	27.832	61.3529	27.832	61.3238	27.832	61.2493	27.832	61.2136	27.832	61.1023	27.832	61.0807	27.832	60.9342	27.832	60.9573	27.832	60.7802	27.832	60.8873	27.832	60.689	27.832	60.9208	27.832	60.7169	27.832	61.1026	27.832	60.9128	27.832	61.4551	27.832	61.2983	27.832	61.9666	27.832	61.8542	27.832	62.5938	27.832	62.5278	27.832	63.277	27.832	63.2507	27.832	63.9553	27.832	63.9578	27.832	64.5766	27.832	64.596	27.832	65.1004	27.832	65.1258	27.832	65.4971	27.832	65.5194	27.832	65.7463	27.832	65.7591	27.832	65.8353
29.2969	63.2889	29.2969	63.2569	29.2969	63.2733	29.2969	63.1807	29.2969	63.2134	29.2969	63.0703	29.2969	63.1193	29.2969	62.9437	29.2969	63.009	29.2969	62.828	29.2969	62.9099	29.2969	62.7594	29.2969	62.8581	29.2969	62.7793	29.2969	62.8947	29.2969	62.9256	29.2969	63.0567	29.2969	63.2196	29.2969	63.3639	29.2969	63.6562	29.2969	63.8091	29.2969	64.2034	29.2969	64.3585	29.2969	64.8117	29.2969	64.9617	29.2969	65.4268	29.2969	65.5642	29.2969	65.9991	29.2969	66.1172	29.2969	66.488	29.2969	66.5814	29.2969	66.863	29.2969	66.9276	29.2969	67.1031	29.2969	67.1361	29.2969	67.1957
30.7617	64.7094	30.7617	64.694	30.7617	64.6858	30.7617	64.6424	30.7617	64.6258	30.7617	64.5636	30.7617	64.5383	30.7617	64.4729	30.7617	64.4393	30.7617	64.3927	30.7617	64.3522	30.7617	64.3516	30.7617	64.308	30.7617	64.3823	30.7617	64.3413	30.7617	64.5146	30.7617	64.4835	30.7617	64.7668	30.7617	64.7523	30.7617	65.1379	30.7617	65.1439	30.7617	65.6059	30.7617	65.6316	30.7617	66.1323	30.7617	66.1734	30.7617	66.6717	30.7617	66.7211	30.7617	67.1795	30.7617	67.2297	30.7617	67.6172	30.7617	67.6612	30.7617	67.9544	30.7617	67.9868	30.7617	68.1691	30.7617	68.1862	30.7617	68.2481
32.2266	66.0727	32.2266	66.0551	32.2266	66.0579	32.2266	66.0077	32.2266	66.013	32.2266	65.9383	32.2266	65.9454	32.2266	65.8603	32.2266	65.8683	32.2266	65.7931	32.2266	65.8009	32.2266	65.7613	32.2266	65.7679	32.2266	65.7925	32.2266	65.7973	32.2266	65.9121	32.2266	65.9151	32.2266	66.1362	32.2266	66.1381	32.2266	66.4651	32.2266	66.4671	32.2266	66.881	32.2266	66.8843	32.2266	67.3517	32.2266	67.3568	32.2266	67.8372	32.2266	67.8437	32.2266	68.2967	32.2266	68.3037	32.2266	68.694	32.2266	68.7003	32.2266	68.9995	32.2266	69.0042	32.2266	69.1918	32.2266	69.1943	32.2266	69.2582
33.6914	67.5207	33.6914	67.5073	33.6914	67.5074	33.6914	67.4694	33.6914	67.4697	33.6914	67.4135	33.6914	67.4141	33.6914	67.3507	33.6914	67.352	33.6914	67.2969	33.6914	67.2997	33.6914	67.2724	33.6914	67.2775	33.6914	67.2997	33.6914	67.3085	33.6914	67.4003	33.6914	67.4138	33.6914	67.5889	33.6914	67.6074	33.6914	67.8681	33.6914	67.8913	33.6914	68.226	33.6914	68.2524	33.6914	68.6371	33.6914	68.6646	33.6914	69.0675	33.6914	69.0938	33.6914	69.4805	33.6914	69.5035	33.6914	69.8415	33.6914	69.8596	33.6914	70.1216	33.6914	70.1341	33.6914	70.2997	33.6914	70.306	33.6914	70.3626
35.1562	68.7009	35.1562	68.6835	35.1562	68.6972	35.1562	68.647	35.1562	68.6741	35.1562	68.5973	35.1562	68.637	35.1562	68.5442	35.1562	68.5953	35.1562	68.5014	35.1562	68.5624	35.1562	68.4861	35.1562	68.5552	35.1562	68.5174	35.1562	68.5926	35.1562	68.6132	35.1562	68.6922	35.1562	68.7861	35.1562	68.8666	35.1562	69.0388	35.1562	69.1186	35.1562	69.362	35.1562	69.4387	35.1562	69.7344	35.1562	69.8056	35.1562	70.1266	35.1562	70.1899	35.1562	70.5055	35.1562	70.5588	35.1562	70.8393	35.1562	70.8807	35.1562	71.1006	35.1562	71.1289	35.1562	71.2688	35.1562	71.2832	35.1562	71.3312
36.6211	69.6806	36.6211	69.6601	36.6211	69.6832	36.6211	69.6236	36.6211	69.6692	36.6211	69.5766	36.6211	69.6432	36.6211	69.5279	36.6211	69.6133	36.6211	69.4899	36.6211	69.5911	36.6211	69.4783	36.6211	69.5913	36.6211	69.5101	36.6211	69.6301	36.6211	69.6013	36.6211	69.7233	36.6211	69.7635	36.6211	69.8823	36.6211	69.9992	36.6211	70.1106	36.6211	70.3005	36.6211	70.4012	36.6211	70.6483	36.6211	70.7363	36.6211	71.0157	36.6211	71.0899	36.6211	71.3721	36.6211	71.4318	36.6211	71.6872	36.6211	71.7322	36.6211	71.9348	36.6211	71.9648	36.6211	72.0947	36.6211	72.1097	36.6211	72.1544
38.0859	71.0115	38.0859	71.0115	38.0859	71.0017	38.0859	71.0036	38.0859	70.9833	38.0859	70.992	38.0859	70.96	38.0859	70.9836	38.0859	70.9385	38.0859	70.9876	38.0859	70.9283	38.0859	71.0149	38.0859	70.9411	38.0859	71.0769	38.0859	70.9896	38.0859	71.1841	38.0859	71.086	38.0859	71.3434	38.0859	71.2387	38.0859	71.5557	38.0859	71.45	38.0859	71.8149	38.0859	71.7138	38.0859	72.1069	38.0859	72.0156	38.0859	72.4116	38.0859	72.3336	38.0859	72.7051	38.0859	72.6425	38.0859	72.9629	38.0859	72.9163	38.0859	73.1629	38.0859	73.1321	38.0859	73.2874	38.0859	73.2721	38.0859	73.3251
39.5508	71.9748	39.5508	71.9724	39.5508	71.9673	39.5508	71.9613	39.5508	71.9511	39.5508	71.9447	39.5508	71.9295	39.5508	71.9282	39.5508	71.9082	39.5508	71.9193	39.5508	71.895	39.5508	71.9276	39.5508	71.8997	39.5508	71.9633	39.5508	71.9332	39.5508	72.0364	39.5508	72.0059	39.5508	72.1546	39.5508	72.1259	39.5508	72.3212	39.5508	72.2966	39.5508	72.5331	39.5508	72.5142	39.5508	72.7799	39.5508	72.7675	39.5508	73.0448	39.5508	73.0385	39.5508	73.3062	39.5508	73.3047	39.5508	73.5411	39.5508	73.5423	39.5508	73.7274	39.5508	73.7295	39.5508	73.8474	39.5508	73.8488	39.5508	73.8893
41.0156	72.7617	41.0156	72.7659	41.0156	72.7519	41.0156	72.7654	41.0156	72.7379	41.0156	72.7628	41.0156	72.7226	41.0156	72.7627	41.0156	72.7113	41.0156	72.7712	41.0156	72.7105	41.0156	72.7959	41.0156	72.7283	41.0156	72.8451	41.0156	72.7734	41.0156	72.9265	41.0156	72.8538	41.0156	73.046	41.0156	72.9751	41.0156	73.2056	41.0156	73.1392	41.0156	73.4025	41.0156	73.3425	41.0156	73.6275	41.0156	73.5754	41.0156	73.8661	41.0156	73.8226	41.0156	74.0997	41.0156	74.065	41.0156	74.308	41.0156	74.2821	41.0156	74.4717	41.0156	74.4545	41.0156	74.5751	41.0156	74.5665	41.0156	74.6079
42.4805	73.5447	42.4805	73.5442	42.4805	73.5402	42.4805	73.5397	42.4805	73.5314	42.4805	73.5331	42.4805	73.52	42.4805	73.528	42.4805	73.5092	42.4805	73.5289	42.4805	73.5038	42.4805	73.5415	42.4805	73.5097	42.4805	73.5721	42.4805	73.5336	42.4805	73.6272	42.4805	73.5828	42.4805	73.7121	42.4805	73.6635	42.4805	73.8298	42.4805	73.7794	42.4805	73.9796	42.4805	73.9304	42.4805	74.1558	42.4805	74.1108	42.4805	74.3477	42.4805	74.3094	42.4805	74.5404	42.4805	74.51	42.4805	74.7162	42.4805	74.694	42.4805	74.8569	42.4805	74.8425	42.4805	74.947	42.4805	74.94	42.4805	74.976
43.9453	74.3527	43.9453	74.3533	43.9453	74.3447	43.9453	74.3473	43.9453	74.3302	43.9453	74.3365	43.9453	74.3111	43.9453	74.3242	43.9453	74.291	43.9453	74.3149	43.9453	74.2747	43.9453	74.3143	43.9453	74.2682	43.9453	74.329	43.9453	74.2786	43.9453	74.3659	43.9453	74.3133	43.9453	74.4309	43.9453	74.3787	43.9453	74.5278	43.9453	74.4787	43.9453	74.6569	43.9453	74.6135	43.9453	74.8135	43.9453	74.7779	43.9453	74.988	43.9453	74.9611	43.9453	75.1661	43.9453	75.1477	43.9453	75.3308	43.9453	75.3194	43.9453	75.4643	43.9453	75.4582	43.9453	75.5512	43.9453	75.5486	43.9453	75.5807
45.4102	74.9815	45.4102	74.9811	45.4102	74.9788	45.4102	74.978	45.4102	74.9735	45.4102	74.9739	45.4102	74.9673	45.4102	74.9714	45.4102	74.9633	45.4102	74.9745	45.4102	74.9655	45.4102	74.9877	45.4102	74.9788	45.4102	75.0165	45.4102	75.0089	45.4102	75.0665	45.4102	75.0618	45.4102	75.1423	45.4102	75.1421	45.4102	75.247	45.4102	75.2525	45.4102	75.3805	45.4102	75.3923	45.4102	75.5386	45.4102	75.5562	45.4102	75.7126	45.4102	75.7341	45.4102	75.8892	45.4102	75.912	45.4102	76.0526	45.4102	76.0734	45.4102	76.186	45.4102	76.2017	45.4102	76.2746	45.4102	76.283	45.4102	76.3083
46.875	75.5229	46.875	75.5195	46.875	75.527	46.875	75.5171	46.875	75.5319	46.875	75.5172	46.875	75.539	46.875	75.5219	46.875	75.5502	46.875	75.5343	46.875	75.5684	46.875	75.558	46.875	75.5973	46.875	75.5974	46.875	75.641	46.875	75.6565	46.875	75.7038	46.875	75.7392	46.875	75.7892	46.875	75.8474	46.875	75.8991	46.875	75.9805	46.875	76.0325	46.875	76.1343	46.875	76.185	46.875	76.3008	46.875	76.3481	46.875	76.468	46.875	76.5097	46.875	76.6216	46.875	76.6554	46.875	76.7468	46.875	76.7706	46.875	76.8305	46.875	76.8428	46.875	76.8636
48.3398	76.0563	48.3398	76.0552	48.3398	76.0604	48.3398	76.0574	48.3398	76.0676	48.3398	76.0639	48.3398	76.0787	48.3398	76.0764	48.3398	76.0951	48.3398	76.0971	48.3398	76.119	48.3398	76.1287	48.3398	76.1531	48.3398	76.1742	48.3398	76.2005	48.3398	76.237	48.3398	76.2645	48.3398	76.3197	48.3398	76.3479	48.3398	76.4237	48.3398	76.4521	48.3398	76.5481	48.3398	76.5763	48.3398	76.6892	48.3398	76.7166	48.3398	76.8399	48.3398	76.8657	48.3398	76.99	48.3398	77.013	48.3398	77.127	48.3398	77.146	48.3398	77.238	48.3398	77.2516	48.3398	77.3114	48.3398	77.3185	48.3398	77.3393
51.2695	76.9639	51.2695	76.969	51.2695	76.9652	51.2695	76.9805	51.2695	76.9729	51.2695	76.999	51.2695	76.9871	51.2695	77.0247	51.2695	77.0083	51.2695	77.0586	51.2695	77.0374	51.2695	77.1015	51.2695	77.0755	51.2695	77.1546	51.2695	77.124	51.2695	77.2191	51.2695	77.1846	51.2695	77.2959	51.2695	77.2587	51.2695	77.3854	51.2695	77.3471	51.2695	77.4868	51.2695	77.4493	51.2695	77.5976	51.2695	77.5629	51.2695	77.7132	51.2695	77.6828	51.2695	77.8264	51.2695	77.8017	51.2695	77.9285	51.2695	77.9099	51.2695	78.0099	51.2695	77.9976	51.2695	78.0618	51.2695	78.0557	51.2695	78.0778
52.7344	77.4943	52.7344	77.5153	52.7344	77.4812	52.7344	77.5442	52.7344	77.4764	52.7344	77.581	52.7344	77.4799	52.7344	77.6256	52.7344	77.4922	52.7344	77.678	52.7344	77.514	52.7344	77.7382	52.7344	77.5464	52.7344	77.8062	52.7344	77.5906	52.7344	77.8822	52.7344	77.6481	52.7344	77.966	52.7344	77.7201	52.7344	78.0571	52.7344	77.8074	52.7344	78.1541	52.7344	77.9092	52.7344	78.2543	52.7344	78.0233	52.7344	78.3531	52.7344	78.145	52.7344	78.4448	52.7344	78.2675	52.7344	78.5219	52.7344	78.3824	52.7344	78.5767	52.7344	78.4805	52.7344	78.6026	52.7344	78.5535	52.7344	78.5951
54.1992	77.863	54.1992	77.8859	54.1992	77.8499	54.1992	77.918	54.1992	77.847	54.1992	77.9582	54.1992	77.8545	54.1992	78.0053	54.1992	77.8724	54.1992	78.0581	54.1992	77.9002	54.1992	78.1155	54.1992	77.9379	54.1992	78.1765	54.1992	77.9851	54.1992	78.2404	54.1992	78.0416	54.1992	78.3069	54.1992	78.1071	54.1992	78.3757	54.1992	78.1813	54.1992	78.4463	54.1992	78.2631	54.1992	78.5174	54.1992	78.3508	54.1992	78.5869	54.1992	78.4413	54.1992	78.6515	54.1992	78.5306	54.1992	78.7065	54.1992	78.6132	54.1992	78.7464	54.1992	78.683	54.1992	78.7663	54.1992	78.7342	54.1992	78.7626
55.6641	78.5311	55.6641	78.5398	55.6641	78.5271	55.6641	78.5524	55.6641	78.5282	55.6641	78.5679	55.6641	78.5347	55.6641	78.5854	55.6641	78.5468	55.6641	78.6043	55.6641	78.5641	55.6641	78.6241	55.6641	78.5862	55.6641	78.6446	55.6641	78.6125	55.6641	78.6659	55.6641	78.6426	55.6641	78.6885	55.6641	78.6761	55.6641	78.7131	55.6641	78.7123	55.6641	78.7403	55.6641	78.751	55.6641	78.7707	55.6641	78.7912	55.6641	78.8043	55.6641	78.8318	55.6641	78.84	55.6641	78.8707	55.6641	78.8757	55.6641	78.9048	55.6641	78.9078	55.6641	78.9306	55.6641	78.9322	55.6641	78.9447	55.6641	78.9453
58.5938	79.4986	58.5938	79.487	58.5938	79.5112	58.5938	79.477	58.5938	79.524	58.5938	79.4687	58.5938	79.5359	58.5938	79.462	58.5938	79.5457	58.5938	79.4564	58.5938	79.5525	58.5938	79.4513	58.5938	79.5555	58.5938	79.4466	58.5938	79.5544	58.5938	79.4424	58.5938	79.5499	58.5938	79.4396	58.5938	79.5431	58.5938	79.4397	58.5938	79.5362	58.5938	79.4447	58.5938	79.5316	58.5938	79.4561	58.5938	79.5317	58.5938	79.4748	58.5938	79.5377	58.5938	79.4997	58.5938	79.5495	58.5938	79.5278	58.5938	79.5647	58.5938	79.5547	58.5938	79.579	58.5938	79.5758	58.5938	79.5878	58.5938	79.5873
60.0586	79.5262	60.0586	79.5235	60.0586	79.5355	60.0586	79.5275	60.0586	79.551	60.0586	79.5379	60.0586	79.5718	60.0586	79.5539	60.0586	79.5967	60.0586	79.5746	60.0586	79.6244	60.0586	79.5989	60.0586	79.6536	60.0586	79.6262	60.0586	79.6835	60.0586	79.6558	60.0586	79.7136	60.0586	79.6877	60.0586	79.744	60.0586	79.7223	60.0586	79.7754	60.0586	79.7601	60.0586	79.8087	60.0586	79.8012	60.0586	79.8443	60.0586	79.8452	60.0586	79.882	60.0586	79.8901	60.0586	79.9202	60.0586	79.9328	60.0586	79.9558	60.0586	79.9691	60.0586	79.9847	60.0586	79.9947	60.0586	80.0026	60.0586	80.0063
62.9883	80.2648	62.9883	80.2696	62.9883	80.2693	62.9883	80.2835	62.9883	80.2828	62.9883	80.3056	62.9883	80.304	62.9883	80.3344	62.9883	80.3314	62.9883	80.3682	62.9883	80.3631	62.9883	80.4047	62.9883	80.3972	62.9883	80.442	62.9883	80.4318	62.9883	80.4783	62.9883	80.4653	62.9883	80.5125	62.9883	80.4969	62.9883	80.5439	62.9883	80.5263	62.9883	80.5725	62.9883	80.5538	62.9883	80.5987	62.9883	80.5798	62.9883	80.6228	62.9883	80.6049	62.9883	80.6449	62.9883	80.6291	62.9883	80.6642	62.9883	80.6515	62.9883	80.6793	62.9883	80.6703	62.9883	80.6883	62.9883	80.6838	62.9883	80.69
64.4531	80.5373	64.4531	80.543	64.4531	80.5421	64.4531	80.5586	64.4531	80.5568	64.4531	80.5832	64.4531	80.5805	64.4531	80.6151	64.4531	80.6115	64.4531	80.6522	64.4531	80.6477	64.4531	80.6923	64.4531	80.6868	64.4531	80.733	64.4531	80.7267	64.4531	80.7723	64.4531	80.7655	64.4531	80.8088	64.4531	80.8016	64.4531	80.8415	64.4531	80.8343	64.4531	80.8703	64.4531	80.8633	64.4531	80.8954	64.4531	80.8888	64.4531	80.9173	64.4531	80.9114	64.4531	80.9364	64.4531	80.9313	64.4531	80.9524	64.4531	80.9484	64.4531	80.9649	64.4531	80.962	64.4531	80.9726	64.4531	80.9711	64.4531	80.9748
67.3828	81.118	67.3828	81.1231	67.3828	81.1234	67.3828	81.1382	67.3828	81.1389	67.3828	81.1621	67.3828	81.1631	67.3828	81.193	67.3828	81.1943	67.3828	81.2284	67.3828	81.2299	67.3828	81.2655	67.3828	81.2673	67.3828	81.3017	67.3828	81.3035	67.3828	81.3343	67.3828	81.3361	67.3828	81.3614	67.3828	81.3631	67.3828	81.3816	67.3828	81.3832	67.3828	81.3947	67.3828	81.3961	67.3828	81.4013	67.3828	81.4024	67.3828	81.4027	67.3828	81.4035	67.3828	81.4007	67.3828	81.4013	67.3828	81.3972	67.3828	81.3976	67.3828	81.3938	67.3828	81.394	67.3828	81.3914	67.3828	81.3915	67.3828	81.3906
68.8477	81.4005	68.8477	81.404	68.8477	81.4074	68.8477	81.4175	68.8477	81.4242	68.8477	81.4399	68.8477	81.4495	68.8477	81.4691	68.8477	81.4812	68.8477	81.5025	68.8477	81.5166	68.8477	81.5372	68.8477	81.5527	68.8477	81.5701	68.8477	81.5864	68.8477	81.5984	68.8477	81.6149	68.8477	81.6199	68.8477	81.636	68.8477	81.6331	68.8477	81.6484	68.8477	81.6378	68.8477	81.652	68.8477	81.6348	68.8477	81.6476	68.8477	81.6259	68.8477	81.6371	68.8477	81.6138	68.8477	81.6232	68.8477	81.6012	68.8477	81.6086	68.8477	81.5906	68.8477	81.5958	68.8477	81.5841	68.8477	81.5868	68.8477	81.5827
71.7773	82.0619	71.7773	82.0568	71.7773	82.0772	71.7773	82.0618	71.7773	82.1019	71.7773	82.0757	71.7773	82.1343	71.7773	82.0967	71.7773	82.1718	71.7773	82.1221	71.7773	82.2115	71.7773	82.1489	71.7773	82.2497	71.7773	82.1738	71.7773	82.2829	71.7773	82.1938	71.7773	82.308	71.7773	82.2065	71.7773	82.3223	71.7773	82.2104	71.7773	82.3245	71.7773	82.2052	71.7773	82.3143	71.7773	82.192	71.7773	82.2929	71.7773	82.1731	71.7773	82.2629	71.7773	82.152	71.7773	82.2279	71.7773	82.1325	71.7773	82.1921	71.7773	82.1186	71.7773	82.1597	71.7773	82.1132	71.7773	82.1342	71.7773	82.1183
74.707	82.617	74.707	82.6178	74.707	82.6269	74.707	82.6287	74.707	82.6467	74.707	82.6485	74.707	82.6749	74.707	82.6749	74.707	82.7091	74.707	82.7051	74.707	82.7461	74.707	82.7357	74.707	82.7824	74.707	82.7631	74.707	82.8141	74.707	82.784	74.707	82.8378	74.707	82.7956	74.707	82.8506	74.707	82.796	74.707	82.8506	74.707	82.7847	74.707	82.8374	74.707	82.7628	74.707	82.8121	74.707	82.7331	74.707	82.7774	74.707	82.6997	74.707	82.7376	74.707	82.6675	74.707	82.6977	74.707	82.6418	74.707	82.6627	74.707	82.6266	74.707	82.6374	74.707	82.6249
77.6367	82.9985	77.6367	83.0037	77.6367	83.0042	77.6367	83.0194	77.6367	83.0203	77.6367	83.044	77.6367	83.0454	77.6367	83.0751	77.6367	83.077	77.6367	83.1096	77.6367	83.112	77.6367	83.1436	77.6367	83.1465	77.6367	83.1733	77.6367	83.1768	77.6367	83.1951	77.6367	83.1989	77.6367	83.2056	77.6367	83.2097	77.6367	83.203	77.6367	83.2072	77.6367	83.1866	77.6367	83.1907	77.6367	83.1575	77.6367	83.1614	77.6367	83.1188	77.6367	83.1223	77.6367	83.0751	77.6367	83.0782	77.6367	83.0323	77.6367	83.0348	77.6367	82.9963	77.6367	82.9982	77.6367	82.9726	77.6367	82.9736	77.6367	82.9646
79.1016	83.2006	79.1016	83.2053	79.1016	83.2066	79.1016	83.22	79.1016	83.2225	79.1016	83.2433	79.1016	83.2467	79.1016	83.2728	79.1016	83.2769	79.1016	83.3053	79.1016	83.3097	79.1016	83.337	79.1016	83.3414	79.1016	83.3639	79.1016	83.3682	79.1016	83.3821	79.1016	83.3863	79.1016	83.3887	79.1016	83.3924	79.1016	83.3814	79.1016	83.3847	79.1016	83.3597	79.1016	83.3626	79.1016	83.3249	79.1016	83.3273	79.1016	83.2803	79.1016	83.2823	79.1016	83.2309	79.1016	83.2324	79.1016	83.1827	79.1016	83.1838	79.1016	83.1423	79.1016	83.1431	79.1016	83.1155	79.1016	83.1159	79.1016	83.1062
82.0312	83.6989	82.0312	83.7021	82.0312	83.705	82.0312	83.7141	82.0312	83.7194	82.0312	83.7337	82.0312	83.7404	82.0312	83.7585	82.0312	83.7652	82.0312	83.7853	82.0312	83.7906	82.0312	83.8103	82.0312	83.8125	82.0312	83.8291	82.0312	83.827	82.0312	83.8378	82.0312	83.8305	82.0312	83.8329	82.0312	83.8197	82.0312	83.812	82.0312	83.793	82.0312	83.7744	82.0312	83.7503	82.0312	83.7216	82.0312	83.6936	82.0312	83.6571	82.0312	83.6273	82.0312	83.5869	82.0312	83.5578	82.0312	83.5183	82.0312	83.4929	82.0312	83.4597	82.0312	83.4407	82.0312	83.4186	82.0312	83.4085	82.0312	83.4007
84.9609	84.0327	84.9609	84.0311	84.9609	84.046	84.9609	84.0411	84.9609	84.0698	84.9609	84.0615	84.9609	84.102	84.9609	84.0895	84.9609	84.1392	84.9609	84.1217	84.9609	84.1773	84.9609	84.1535	84.9609	84.2118	84.9609	84.1802	84.9609	84.2378	84.9609	84.1969	84.9609	84.2508	84.9609	84.1996	84.9609	84.2472	84.9609	84.1855	84.9609	84.2248	84.9609	84.1535	84.9609	84.1834	84.9609	84.1051	84.9609	84.1252	84.9609	84.0439	84.9609	84.055	84.9609	83.9759	84.9609	83.9799	84.9609	83.9091	84.9609	83.9086	84.9609	83.8523	84.9609	83.85	84.9609	83.8137	84.9609	83.8118	84.9609	83.7993
87.8906	84.2468	87.8906	84.2458	87.8906	84.2551	87.8906	84.2517	87.8906	84.2706	87.8906	84.2633	87.8906	84.2922	87.8906	84.2785	87.8906	84.3181	87.8906	84.2949	87.8906	84.3456	87.8906	84.3094	87.8906	84.371	87.8906	84.3186	87.8906	84.3904	87.8906	84.3189	87.8906	84.3995	87.8906	84.3071	87.8906	84.3944	87.8906	84.281	87.8906	84.3722	87.8906	84.2397	87.8906	84.3317	87.8906	84.1847	87.8906	84.2739	87.8906	84.1197	87.8906	84.2025	87.8906	84.0511	87.8906	84.1237	87.8906	83.9869	87.8906	84.0457	87.8906	83.9361	87.8906	83.9775	87.8906	83.9065	87.8906	83.9279	87.8906	83.9033
90.8203	84.4924	90.8203	84.4993	90.8203	84.4928	90.8203	84.5131	90.8203	84.5003	90.8203	84.5323	90.8203	84.5134	90.8203	84.555	90.8203	84.5301	90.8203	84.5783	90.8203	84.5472	90.8203	84.599	90.8203	84.5609	90.8203	84.6132	90.8203	84.5673	90.8203	84.6171	90.8203	84.5622	90.8203	84.6071	90.8203	84.5426	90.8203	84.5805	90.8203	84.5064	90.8203	84.5361	90.8203	84.4538	90.8203	84.4744	90.8203	84.3873	90.8203	84.3989	90.8203	84.3118	90.8203	84.3154	90.8203	84.2344	90.8203	84.2322	90.8203	84.1639	90.8203	84.159	90.8203	84.1094	90.8203	84.1048	90.8203	84.0787	90.8203	84.0769
95.2148	85.0895	95.2148	85.0999	95.2148	85.082	95.2148	85.1127	95.2148	85.0771	95.2148	85.1265	95.2148	85.0735	95.2148	85.139	95.2148	85.0691	95.2148	85.1475	95.2148	85.061	95.2148	85.1484	95.2148	85.0457	95.2148	85.1379	95.2148	85.0195	95.2148	85.1122	95.2148	84.9789	95.2148	85.0679	95.2148	84.9216	95.2148	85.0031	95.2148	84.8465	95.2148	84.9173	95.2148	84.7548	95.2148	84.8125	95.2148	84.6501	95.2148	84.6937	95.2148	84.5387	95.2148	84.5686	95.2148	84.4296	95.2148	84.4476	95.2148	84.3334	95.2148	84.3426	95.2148	84.2613	95.2148	84.265	95.2148	84.2226	95.2148	84.2235
98.1445	85.1507	98.1445	85.1591	98.1445	85.1467	98.1445	85.1713	98.1445	85.1468	98.1445	85.186	98.1445	85.1497	98.1445	85.2009	98.1445	85.1536	98.1445	85.2128	98.1445	85.1555	98.1445	85.218	98.1445	85.1521	98.1445	85.2122	98.1445	85.1396	98.1445	85.1915	98.1445	85.1142	98.1445	85.1522	98.1445	85.0727	98.1445	85.0922	98.1445	85.0132	98.1445	85.0114	98.1445	84.9356	98.1445	84.9123	98.1445	84.8421	98.1445	84.8002	98.1445	84.7379	98.1445	84.6834	98.1445	84.6311	98.1445	84.5729	98.1445	84.5321	98.1445	84.4802	98.1445	84.4523	98.1445	84.4164	98.1445	84.4023	98.1445	84.3894
101.074	85.2222	101.074	85.22	101.074	85.2286	101.074	85.2222	101.074	85.2385	101.074	85.2277	101.074	85.25	101.074	85.2348	101.074	85.2608	101.074	85.2406	101.074	85.2675	101.074	85.2412	101.074	85.2661	101.074	85.2319	101.074	85.2522	101.074	85.2076	101.074	85.2215	101.074	85.1638	101.074	85.1701	101.074	85.097	101.074	85.0957	101.074	85.0062	101.074	84.9984	101.074	84.8936	101.074	84.8811	101.074	84.7652	101.074	84.7501	101.074	84.6308	101.074	84.6155	101.074	84.5036	101.074	84.4901	101.074	84.3979	101.074	84.3879	101.074	84.327	101.074	84.3217	101.074	84.3004
105.469	85.3237	105.469	85.3199	105.469	85.3314	105.469	85.3194	105.469	85.3427	105.469	85.3213	105.469	85.3568	105.469	85.324	105.469	85.3717	105.469	85.3251	105.469	85.3849	105.469	85.3216	105.469	85.3927	105.469	85.3101	105.469	85.3907	105.469	85.2866	105.469	85.3743	105.469	85.2476	105.469	85.3393	105.469	85.1905	105.469	85.2825	105.469	85.1144	105.469	85.2031	105.469	85.0209	105.469	85.1027	105.469	84.9148	105.469	84.9869	105.469	84.8044	105.469	84.8644	105.469	84.7007	105.469	84.7471	105.469	84.6164	105.469	84.6479	105.469	84.5633	105.469	84.5793	105.469	84.5499
108.398	85.5032	108.398	85.5074	108.398	85.4981	108.398	85.5101	108.398	85.4926	108.398	85.5102	108.398	85.4865	108.398	85.5064	108.398	85.4791	108.398	85.4965	108.398	85.4689	108.398	85.4783	108.398	85.4534	108.398	85.4489	108.398	85.4294	108.398	85.4052	108.398	85.393	108.398	85.3448	108.398	85.3402	108.398	85.266	108.398	85.2684	108.398	85.1688	108.398	85.1765	108.398	85.0557	108.398	85.0663	108.398	84.9319	108.398	84.9432	108.398	84.8058	108.398	84.8162	108.398	84.6885	108.398	84.6968	108.398	84.5926	108.398	84.5983	108.398	84.53	108.398	84.5328	108.398	84.509
112.793	85.4402	112.793	85.4377	112.793	85.4441	112.793	85.4355	112.793	85.4501	112.793	85.4323	112.793	85.4585	112.793	85.4267	112.793	85.4688	112.793	85.417	112.793	85.4793	112.793	85.4011	112.793	85.4869	112.793	85.3766	112.793	85.4876	112.793	85.3411	112.793	85.4766	112.793	85.2923	112.793	85.4488	112.793	85.229	112.793	85.4004	112.793	85.1513	112.793	85.3295	112.793	85.0616	112.793	85.2371	112.793	84.9648	112.793	85.128	112.793	84.8685	112.793	85.0103	112.793	84.7823	112.793	84.8952	112.793	84.7168	112.793	84.7951	112.793	84.6813	112.793	84.7213	112.793	84.6822
117.188	85.6811	117.188	85.7003	117.188	85.6603	117.188	85.7178	117.188	85.6377	117.188	85.7328	117.188	85.6127	117.188	85.7438	117.188	85.5844	117.188	85.7485	117.188	85.5514	117.188	85.7435	117.188	85.5116	117.188	85.7246	117.188	85.4626	117.188	85.6875	117.188	85.402	117.188	85.628	117.188	85.3275	117.188	85.5434	117.188	85.2378	117.188	85.4331	117.188	85.1334	117.188	85.2997	117.188	85.017	117.188	85.1494	117.188	84.8948	117.188	84.9923	117.188	84.7756	117.188	84.8412	117.188	84.6709	117.188	84.7105	117.188	84.5932	117.188	84.6135	117.188	84.5537	117.188	84.5598
120.117	85.7455	120.117	85.7558	120.117	85.7317	120.117	85.7628	120.117	85.7135	120.117	85.7665	120.117	85.69	120.117	85.7659	120.117	85.6598	120.117	85.7588	120.117	85.6213	120.117	85.742	120.117	85.5723	120.117	85.7112	120.117	85.5104	120.117	85.6619	120.117	85.4332	120.117	85.5898	120.117	85.339	120.117	85.4921	120.117	85.2273	120.117	85.3684	120.117	85.0998	120.117	85.2219	120.117	84.9607	120.117	85.0593	120.117	84.8175	120.117	84.8911	120.117	84.6805	120.117	84.7308	120.117	84.562	120.117	84.593	120.117	84.4749	120.117	84.4911	120.117	84.4303	120.117	84.4353
124.512	85.7584	124.512	85.7652	124.512	85.7468	124.512	85.7674	124.512	85.7296	124.512	85.7647	124.512	85.706	124.512	85.756	124.512	85.6745	124.512	85.7394	124.512	85.6331	124.512	85.7117	124.512	85.5791	124.512	85.6688	124.512	85.5096	124.512	85.6061	124.512	85.4214	124.512	85.5193	124.512	85.3122	124.512	85.4055	124.512	85.1812	124.512	85.2644	124.512	85.0301	124.512	85.099	124.512	84.8641	124.512	84.9169	124.512	84.6923	124.512	84.7294	124.512	84.5275	124.512	84.5512	124.512	84.3849	124.512	84.3984	124.512	84.2795	124.512	84.2862	124.512	84.2241	124.512	84.2261
128.906	85.6849	128.906	85.6851	128.906	85.6805	128.906	85.6816	128.906	85.6713	128.906	85.6743	128.906	85.6559	128.906	85.6623	128.906	85.6325	128.906	85.6437	128.906	85.5986	128.906	85.6155	128.906	85.5511	128.906	85.5733	128.906	85.4861	128.906	85.5123	128.906	85.3999	128.906	85.4273	128.906	85.2894	128.906	85.3145	128.906	85.1531	128.906	85.1722	128.906	84.9925	128.906	85.0025	128.906	84.8128	128.906	84.8124	128.906	84.6237	128.906	84.6138	128.906	84.4392	128.906	84.4231	128.906	84.2764	128.906	84.259	128.906	84.1529	128.906	84.1396	128.906	84.084	128.906	84.079
133.301	85.5252	133.301	85.5286	133.301	85.5185	133.301	85.529	133.301	85.5083	133.301	85.5261	133.301	85.4938	133.301	85.5189	133.301	85.4737	133.301	85.5056	133.301	85.4459	133.301	85.4833	133.301	85.4072	133.301	85.448	133.301	85.3537	133.301	85.3948	133.301	85.2808	133.301	85.3192	133.301	85.1847	133.301	85.2174	133.301	85.0631	133.301	85.0879	133.301	84.9171	133.301	84.9325	133.301	84.7515	133.301	84.7575	133.301	84.5758	133.301	84.5737	133.301	84.4039	133.301	84.3961	133.301	84.2522	133.301	84.2423	133.301	84.1375	133.301	84.1295	133.301	84.0742	133.301	84.0711
139.16	85.085	139.16	85.071	139.16	85.0995	139.16	85.0583	139.16	85.1143	139.16	85.0477	139.16	85.1289	139.16	85.0398	139.16	85.1428	139.16	85.0343	139.16	85.1547	139.16	85.0294	139.16	85.1617	139.16	85.0219	139.16	85.1599	139.16	85.0072	139.16	85.1442	139.16	84.9804	139.16	85.1093	139.16	84.9372	139.16	85.0512	139.16	84.8751	139.16	84.9687	139.16	84.7944	139.16	84.8641	139.16	84.6986	139.16	84.7444	139.16	84.5952	139.16	84.6202	139.16	84.4947	139.16	84.5046	139.16	84.4093	139.16	84.4109	139.16	84.3513	139.16	84.3504	139.16	84.3301
143.555	84.8641	143.555	84.8475	143.555	84.8821	143.555	84.8325	143.555	84.9019	143.555	84.8199	143.555	84.924	143.555	84.8105	143.555	84.9488	143.555	84.8047	143.555	84.9755	143.555	84.8016	143.555	85.0022	143.555	84.7994	143.555	85.0256	143.555	84.7946	143.555	85.0416	143.555	84.7838	143.555	85.0455	143.555	84.7638	143.555	85.0335	143.555	84.7333	143.555	85.0028	143.555	84.6933	143.555	84.9534	143.555	84.6472	143.555	84.8877	143.555	84.6009	143.555	84.8111	143.555	84.5615	143.555	84.731	143.555	84.5365	143.555	84.6557	143.555	84.5318	143.555	84.5935	143.555	84.5509
147.949	85.2317	147.949	85.2333	147.949	85.2154	147.949	85.2201	147.949	85.1859	147.949	85.1935	147.949	85.1457	147.949	85.1555	147.949	85.0978	147.949	85.1084	147.949	85.0442	147.949	85.0535	147.949	84.9859	147.949	84.9906	147.949	84.9216	147.949	84.918	147.949	84.8483	147.949	84.833	147.949	84.7622	147.949	84.7328	147.949	84.6603	147.949	84.6163	147.949	84.5419	147.949	84.485	147.949	84.4099	147.949	84.3441	147.949	84.2711	147.949	84.2023	147.949	84.1357	147.949	84.0708	147.949	84.0157	147.949	83.9622	147.949	83.923	147.949	83.8876	147.949	83.8673	147.949	83.8549
153.809	85.1062	153.809	85.1084	153.809	85.0896	153.809	85.0966	153.809	85.0594	153.809	85.0715	153.809	85.0168	153.809	85.0343	153.809	84.9634	153.809	84.9862	153.809	84.9002	153.809	84.9273	153.809	84.8274	153.809	84.857	153.809	84.7437	153.809	84.7734	153.809	84.6469	153.809	84.6744	153.809	84.535	153.809	84.5584	153.809	84.4065	153.809	84.4253	153.809	84.263	153.809	84.2778	153.809	84.1091	153.809	84.1213	153.809	83.9535	153.809	83.9646	153.809	83.8077	153.809	83.8183	153.809	83.6847	153.809	83.694	153.809	83.5963	153.809	83.6029	153.809	83.5511	153.809	83.5535
159.668	85.1214	159.668	85.1125	159.668	85.1131	159.668	85.0872	159.668	85.0878	159.668	85.0474	159.668	85.0471	159.668	84.9955	159.668	84.9932	159.668	84.9339	159.668	84.9283	159.668	84.8638	159.668	84.8541	159.668	84.7857	159.668	84.7705	159.668	84.6983	159.668	84.6766	159.668	84.5998	159.668	84.5704	159.668	84.4884	159.668	84.4509	159.668	84.3643	159.668	84.3187	159.668	84.23	159.668	84.1779	159.668	84.0917	159.668	84.0357	159.668	83.9577	159.668	83.9018	159.668	83.8376	159.668	83.7872	159.668	83.7403	159.668	83.7017	159.668	83.6737	159.668	83.6526	159.668	83.6433
165.527	85.044	165.527	85.0457	165.527	85.0234	165.527	85.0291	165.527	84.985	165.527	84.9958	165.527	84.9315	165.527	84.9483	165.527	84.8662	165.527	84.889	165.527	84.7932	165.527	84.8196	165.527	84.7153	165.527	84.7403	165.527	84.6342	165.527	84.6502	165.527	84.5491	165.527	84.5471	165.527	84.4573	165.527	84.4291	165.527	84.3554	165.527	84.2963	165.527	84.2411	165.527	84.1518	165.527	84.1152	165.527	84.0026	165.527	83.9823	165.527	83.8592	165.527	83.8512	165.527	83.7336	165.527	83.733	165.527	83.6364	165.527	83.6388	165.527	83.5758	165.527	83.5778	165.527	83.556
171.387	84.8964	171.387	84.8839	171.387	84.8869	171.387	84.85	171.387	84.8558	171.387	84.7971	171.387	84.8048	171.387	84.7281	171.387	84.7362	171.387	84.6465	171.387	84.6529	171.387	84.5548	171.387	84.5574	171.387	84.4545	171.387	84.4526	171.387	84.3456	171.387	84.3405	171.387	84.227	171.387	84.2226	171.387	84.0979	171.387	84.0996	171.387	83.959	171.387	83.9715	171.387	83.8138	171.387	83.8395	171.387	83.669	171.387	83.7065	171.387	83.5342	171.387	83.578	171.387	83.4196	171.387	83.4622	171.387	83.3344	171.387	83.368	171.387	83.2851	171.387	83.3036	171.387	83.2749
177.246	84.6862	177.246	84.6802	177.246	84.6707	177.246	84.6525	177.246	84.6355	177.246	84.6041	177.246	84.583	177.246	84.5375	177.246	84.516	177.246	84.4556	177.246	84.4361	177.246	84.361	177.246	84.3438	177.246	84.2557	177.246	84.2381	177.246	84.1403	177.246	84.1177	177.246	84.0148	177.246	83.9822	177.246	83.8788	177.246	83.8334	177.246	83.7333	177.246	83.6758	177.246	83.5815	177.246	83.5164	177.246	83.4298	177.246	83.3642	177.246	83.287	177.246	83.2282	177.246	83.1627	177.246	83.1164	177.246	83.0659	177.246	83.0348	177.246	83.0027	177.246	82.9873	177.246	82.9762
183.105	84.5968	183.105	84.6083	183.105	84.5603	183.105	84.5943	183.105	84.5008	183.105	84.5562	183.105	84.4219	183.105	84.496	183.105	84.3276	183.105	84.4168	183.105	84.2218	183.105	84.321	183.105	84.1071	183.105	84.2104	183.105	83.9843	183.105	84.0858	183.105	83.8531	183.105	83.9475	183.105	83.7128	183.105	83.796	183.105	83.5643	183.105	83.6336	183.105	83.411	183.105	83.465	183.105	83.2593	183.105	83.2982	183.105	83.1176	183.105	83.143	183.105	82.9946	183.105	83.0091	183.105	82.8975	183.105	82.9045	183.105	82.831	183.105	82.8337	183.105	82.7975	183.105	82.7981
188.965	84.4594	188.965	84.4473	188.965	84.4446	188.965	84.41	188.965	84.4035	188.965	84.3507	188.965	84.3386	188.965	84.2734	188.965	84.2537	188.965	84.1827	188.965	84.1533	188.965	84.0825	188.965	84.041	188.965	83.9756	188.965	83.9185	188.965	83.8633	188.965	83.7857	188.965	83.7458	188.965	83.6419	188.965	83.6225	188.965	83.4876	188.965	83.4931	188.965	83.3266	188.965	83.3594	188.965	83.1669	188.965	83.2252	188.965	83.0195	188.965	83.0962	188.965	82.896	188.965	82.9791	188.965	82.8052	188.965	82.8797	188.965	82.7516	188.965	82.8031	188.965	82.7352	188.965	82.7536
196.289	84.5935	196.289	84.5775	196.289	84.5797	196.289	84.5316	196.289	84.5366	196.289	84.4572	196.289	84.4648	196.289	84.3566	196.289	84.3648	196.289	84.2329	196.289	84.2375	196.289	84.0895	196.289	84.0842	196.289	83.9299	196.289	83.908	196.289	83.7575	196.289	83.7139	196.289	83.5761	196.289	83.5096	196.289	83.3907	196.289	83.3055	196.289	83.208	196.289	83.1139	196.289	83.0364	196.289	82.9477	196.289	82.8861	196.289	82.8172	196.289	82.7668	196.289	82.7265	196.289	82.6843	196.289	82.6716	196.289	82.6379	196.289	82.6422	196.289	82.6197	196.289	82.6268	196.289	82.6188
203.613	84.2974	203.613	84.2865	203.613	84.2787	203.613	84.2453	203.613	84.2337	203.613	84.1764	203.613	84.1677	203.613	84.0842	203.613	84.0865	203.613	83.9736	203.613	83.9935	203.613	83.8487	203.613	83.888	203.613	83.7111	203.613	83.7643	203.613	83.5604	203.613	83.6134	203.613	83.3951	203.613	83.4261	203.613	83.2149	203.613	83.1978	203.613	83.0232	203.613	82.9332	203.613	82.8265	203.613	82.6488	203.613	82.6333	203.613	82.372	203.613	82.4511	203.613	82.1354	203.613	82.285	203.613	81.9666	203.613	82.1379	203.613	81.8786	203.613	82.0131	203.613	81.8676	203.613	81.9184
210.938	84.2127	210.938	84.1851	210.938	84.2081	210.938	84.1266	210.938	84.1718	210.938	84.0398	210.938	84.106	210.938	83.928	210.938	84.0152	210.938	83.7946	210.938	83.9051	210.938	83.6427	210.938	83.7814	210.938	83.4748	210.938	83.6487	210.938	83.2926	210.938	83.5085	210.938	83.0977	210.938	83.3593	210.938	82.8938	210.938	83.1983	210.938	82.6877	210.938	83.0235	210.938	82.4903	210.938	82.8372	210.938	82.3153	210.938	82.6476	210.938	82.1756	210.938	82.4671	210.938	82.0792	210.938	82.3092	210.938	82.0268	210.938	82.1834	210.938	82.0144	210.938	82.0931	210.938	82.0372
218.262	83.9892	218.262	83.9772	218.262	83.9681	218.262	83.9331	218.262	83.9155	218.262	83.8596	218.262	83.8354	218.262	83.761	218.262	83.734	218.262	83.6421	218.262	83.6191	218.262	83.5081	218.262	83.4982	218.262	83.3631	218.262	83.3763	218.262	83.2092	218.262	83.2547	218.262	83.0474	218.262	83.1312	218.262	82.879	218.262	83.0019	218.262	82.7092	218.262	82.8657	218.262	82.5486	218.262	82.7264	218.262	82.4119	218.262	82.5931	218.262	82.312	218.262	82.477	218.262	82.2538	218.262	82.3862	218.262	82.232	218.262	82.322	218.262	82.2348	218.262	82.2797	218.262	82.2519
225.586	84.0541	225.586	84.0648	225.586	83.9981	225.586	84.0304	225.586	83.9006	225.586	83.9541	225.586	83.7681	225.586	83.8416	225.586	83.6092	225.586	83.6998	225.586	83.4334	225.586	83.5354	225.586	83.2492	225.586	83.3544	225.586	83.064	225.586	83.1607	225.586	82.8833	225.586	82.9565	225.586	82.7106	225.586	82.7447	225.586	82.5483	225.586	82.5319	225.586	82.3994	225.586	82.3314	225.586	82.2687	225.586	82.1615	225.586	82.1623	225.586	82.0391	225.586	82.0848	225.586	81.9711	225.586	82.0355	225.586	81.9496	225.586	82.0074	225.586	81.9564	225.586	81.9897	225.586	81.973
232.91	84.0962	232.91	84.1015	232.91	84.043	232.91	84.0613	232.91	83.942	232.91	83.9802	232.91	83.796	232.91	83.8643	232.91	83.6093	232.91	83.7198	232.91	83.3878	232.91	83.5522	232.91	83.1378	232.91	83.3653	232.91	82.8664	232.91	83.1607	232.91	82.5814	232.91	82.9388	232.91	82.2921	232.91	82.6999	232.91	82.01	232.91	82.4476	232.91	81.7494	232.91	82.1921	232.91	81.5274	232.91	81.9512	232.91	81.3614	232.91	81.746	232.91	81.2632	232.91	81.5912	232.91	81.2318	232.91	81.486	232.91	81.2519	232.91	81.4143	232.91	81.2999	232.91	81.3559
241.699	83.8129	241.699	83.7851	241.699	83.8008	241.699	83.7204	241.699	83.7492	241.699	83.6241	241.699	83.6615	241.699	83.5033	241.699	83.543	241.699	83.3643	241.699	83.3984	241.699	83.2113	241.699	83.2302	241.699	83.0451	241.699	83.0368	241.699	82.8637	241.699	82.8146	241.699	82.6644	241.699	82.5616	241.699	82.4466	241.699	82.2818	241.699	82.2142	241.699	81.988	241.699	81.9771	241.699	81.7017	241.699	81.7494	241.699	81.4486	241.699	81.5466	241.699	81.2519	241.699	81.3798	241.699	81.1246	241.699	81.252	241.699	81.0651	241.699	81.1591	241.699	81.0605	241.699	81.0951
250.488	84.0546	250.488	84.0353	250.488	84.0172	250.488	83.9588	250.488	83.9268	250.488	83.8292	250.488	83.79	250.488	83.6548	250.488	83.6159	250.488	83.447	250.488	83.4146	250.488	83.2184	250.488	83.1963	250.488	82.9778	250.488	82.9693	250.488	82.7279	250.488	82.7374	250.488	82.4644	250.488	82.4989	250.488	82.1811	250.488	82.2485	250.488	81.8773	250.488	81.9829	250.488	81.5653	250.488	81.7071	250.488	81.2718	250.488	81.4383	250.488	81.0298	250.488	81.2016	250.488	80.864	250.488	81.0183	250.488	80.7779	250.488	80.8938	250.488	80.7549	250.488	80.8169	250.488	80.7721
259.277	83.7229	259.277	83.7266	259.277	83.6819	259.277	83.6936	259.277	83.6048	259.277	83.6256	259.277	83.4944	259.277	83.5246	259.277	83.3556	259.277	83.3924	259.277	83.1941	259.277	83.2308	259.277	83.0149	259.277	83.0412	259.277	82.8206	259.277	82.8252	259.277	82.6116	259.277	82.5838	259.277	82.3872	259.277	82.3186	259.277	82.1488	259.277	82.0331	259.277	81.9024	259.277	81.7357	259.277	81.6587	259.277	81.443	259.277	81.431	259.277	81.1794	259.277	81.231	259.277	80.972	259.277	81.0658	259.277	80.8395	259.277	80.9375	259.277	80.7834	259.277	80.8452	259.277	80.7907
268.066	83.1435	268.066	83.1059	268.066	83.1544	268.066	83.0392	268.066	83.1408	268.066	82.9437	268.066	83.1029	268.066	82.8248	268.066	83.0389	268.066	82.6936	268.066	82.9455	268.066	82.5642	268.066	82.8198	268.066	82.4461	268.066	82.6599	268.066	82.3368	268.066	82.465	268.066	82.2177	268.066	82.235	268.066	82.0607	268.066	81.9706	268.066	81.8409	268.066	81.6738	268.066	81.5499	268.066	81.3505	268.066	81.2028	268.066	81.0139	268.066	80.8376	268.066	80.6879	268.066	80.5043	268.066	80.4042	268.066	80.2471	268.066	80.1918	268.066	80.0891	268.066	80.0662	268.066	80.031
276.855	82.6142	276.855	82.633	276.855	82.5384	276.855	82.596	276.855	82.4238	276.855	82.5183	276.855	82.305	276.855	82.4206	276.855	82.221	276.855	82.3202	276.855	82.1979	276.855	82.2271	276.855	82.2335	276.855	82.1456	276.855	82.2967	276.855	82.0786	276.855	82.34	276.855	82.027	276.855	82.3175	276.855	81.9829	276.855	82.2013	276.855	81.9251	276.855	81.9897	276.855	81.8236	276.855	81.7063	276.855	81.6532	276.855	81.3893	276.855	81.4086	276.855	81.0773	276.855	81.1129	276.855	80.8005	276.855	80.8156	276.855	80.5849	276.855	80.5787	276.855	80.4594	276.855	80.4532
287.109	82.7585	287.109	82.7368	287.109	82.6455	287.109	82.5835	287.109	82.3972	287.109	82.3082	287.109	82.0198	287.109	81.9344	287.109	81.5401	287.109	81.5082	287.109	81.0299	287.109	81.1029	287.109	80.6237	287.109	80.8138	287.109	80.4874	287.109	80.7328	287.109	80.7095	287.109	80.9043	287.109	81.2169	287.109	81.2954	287.109	81.8373	287.109	81.8122	287.109	82.4193	287.109	82.3456	287.109	82.882	287.109	82.8094	287.109	83.2037	287.109	83.1553	287.109	83.3977	287.109	83.3732	287.109	83.4941	287.109	83.4833	287.109	83.5285	287.109	83.5232	287.109	83.534	287.109	83.5322
297.363	85.232	297.363	85.2155	297.363	85.1389	297.363	85.0911	297.363	84.9343	297.363	84.8632	297.363	84.6139	297.363	84.5406	297.363	84.1685	297.363	84.1377	297.363	83.5867	297.363	83.6733	297.363	82.864	297.363	83.1684	297.363	82.0245	297.363	82.6461	297.363	81.1544	297.363	82.1416	297.363	80.4346	297.363	81.721	297.363	80.1005	297.363	81.4884	297.363	80.2712	297.363	81.5432	297.363	80.8269	297.363	81.8957	297.363	81.5325	297.363	82.4326	297.363	82.2115	297.363	82.9854	297.363	82.7838	297.363	83.4167	297.363	83.2275	297.363	83.6549	297.363	83.5347	297.363	83.687
307.617	84.8612	307.617	84.8103	307.617	84.8187	307.617	84.6617	307.617	84.6894	307.617	84.4136	307.617	84.4805	307.617	84.068	307.617	84.1977	307.617	83.6348	307.617	83.8426	307.617	83.1371	307.617	83.4119	307.617	82.6172	307.617	82.9023	307.617	82.1335	307.617	82.3242	307.617	81.7451	307.617	81.7188	307.617	81.4887	307.617	81.1713	307.617	81.368	307.617	80.7962	307.617	81.3669	307.617	80.6819	307.617	81.4674	307.617	80.8307	307.617	81.6515	307.617	81.1597	307.617	81.886	307.617	81.5559	307.617	82.1147	307.617	81.9203	307.617	82.2714	307.617	82.1826	307.617	82.3024
319.336	84.6248	319.336	84.5809	319.336	84.5825	319.336	84.4562	319.336	84.4464	319.336	84.2514	319.336	84.2112	319.336	83.96	319.336	83.8765	319.336	83.5697	319.336	83.4484	319.336	83.0679	319.336	82.9394	319.336	82.4542	319.336	82.3694	319.336	81.7613	319.336	81.7689	319.336	81.0748	319.336	81.1878	319.336	80.5309	319.336	80.7032	319.336	80.2569	319.336	80.4088	319.336	80.2822	319.336	80.3711	319.336	80.5246	319.336	80.5755	319.336	80.8667	319.336	80.9237	319.336	81.2176	319.336	81.2931	319.336	81.5181	319.336	81.5916	319.336	81.727	319.336	81.7715	319.336	81.8163
329.59	84.4899	329.59	84.466	329.59	84.4551	329.59	84.3833	329.59	84.3589	329.59	84.2391	329.59	84.1971	329.59	84.0261	329.59	83.9617	329.59	83.7328	329.59	83.6414	329.59	83.3446	329.59	83.2229	329.59	82.8483	329.59	82.6965	329.59	82.2393	329.59	82.0655	329.59	81.5387	329.59	81.3581	329.59	80.8183	329.59	80.642	329.59	80.2193	329.59	80.0336	329.59	79.9111	329.59	79.6777	329.59	79.9676	329.59	79.6698	329.59	80.2934	329.59	79.9701	329.59	80.7092	329.59	80.4238	329.59	81.0684	329.59	80.865	329.59	81.2877	329.59	81.1841	329.59	81.3297
341.309	84.1965	341.309	84.1778	341.309	84.1249	341.309	84.073	341.309	83.9646	341.309	83.8905	341.309	83.7249	341.309	83.6425	341.309	83.4215	341.309	83.3401	341.309	83.0702	341.309	82.9863	341.309	82.6775	341.309	82.5684	341.309	82.2399	341.309	82.0613	341.309	81.7575	341.309	81.4471	341.309	81.2523	341.309	80.7477	341.309	80.7758	341.309	80.0606	341.309	80.3972	341.309	79.5639	341.309	80.18	341.309	79.428	341.309	80.155	341.309	79.6628	341.309	80.3015	341.309	80.0994	341.309	80.5472	341.309	80.5369	341.309	80.796	341.309	80.8494	341.309	80.963	341.309	80.9908
353.027	84.4256	353.027	84.4083	353.027	84.3867	353.027	84.3339	353.027	84.2816	353.027	84.1912	353.027	84.0928	353.027	83.9646	353.027	83.8056	353.027	83.6415	353.027	83.4151	353.027	83.2227	353.027	82.9279	353.027	82.7274	353.027	82.353	353.027	82.1877	353.027	81.6972	353.027	81.6334	353.027	80.9765	353.027	81.0815	353.027	80.2451	353.027	80.5491	353.027	79.6147	353.027	80.0862	353.027	79.2307	353.027	79.7881	353.027	79.1933	353.027	79.7464	353.027	79.4778	353.027	79.9594	353.027	79.9396	353.027	80.3077	353.027	80.3956	353.027	80.6255	353.027	80.701	353.027	80.7791
366.211	84.7196	366.211	84.6448	366.211	84.6892	366.211	84.4638	366.211	84.5614	366.211	84.1836	366.211	84.3476	366.211	83.8181	366.211	84.0583	366.211	83.3829	366.211	83.6986	366.211	82.889	366.211	83.2631	366.211	82.3387	366.211	82.7363	366.211	81.7318	366.211	82.1002	366.211	81.0816	366.211	81.3522	366.211	80.4347	366.211	80.5303	366.211	79.8836	366.211	79.735	366.211	79.5471	366.211	79.1264	366.211	79.5032	366.211	78.8618	366.211	79.7168	366.211	78.9845	366.211	80.0536	366.211	79.381	366.211	80.362	366.211	79.8633	366.211	80.5319	366.211	80.2702	366.211	80.5052
379.395	84.4523	379.395	84.4774	379.395	84.3804	379.395	84.4573	379.395	84.2547	379.395	84.3885	379.395	84.0634	379.395	84.2614	379.395	83.7916	379.395	84.0576	379.395	83.4278	379.395	83.7494	379.395	82.9717	379.395	83.3063	379.395	82.4379	379.395	82.7092	379.395	81.8498	379.395	81.968	379.395	81.2341	379.395	81.1347	379.395	80.6333	379.395	80.3079	379.395	80.1276	379.395	79.6286	379.395	79.8164	379.395	79.2545	379.395	79.7496	379.395	79.2787	379.395	79.8895	379.395	79.6299	379.395	80.1489	379.395	80.1	379.395	80.4299	379.395	80.4837	379.395	80.6323	379.395	80.6672
392.578	84.157	392.578	84.0942	392.578	84.1258	392.578	83.9442	392.578	84.0042	392.578	83.723	392.578	83.8031	392.578	83.4516	392.578	83.5349	392.578	83.1504	392.578	83.204	392.578	82.8282	392.578	82.802	392.578	82.472	392.578	82.3089	392.578	82.0496	392.578	81.7038	392.578	81.5353	392.578	80.9824	392.578	80.9479	392.578	80.1833	392.578	80.3734	392.578	79.4265	392.578	79.9477	392.578	78.9238	392.578	79.7904	392.578	78.8592	392.578	79.9258	392.578	79.2039	392.578	80.2579	392.578	79.7463	392.578	80.6216	392.578	80.2814	392.578	80.8625	392.578	80.6858	392.578	80.8904
405.762	84.1588	405.762	84.132	405.762	84.0964	405.762	84.0131	405.762	83.9527	405.762	83.8011	405.762	83.7368	405.762	83.4936	405.762	83.4527	405.762	83.0867	405.762	83.0961	405.762	82.5813	405.762	82.6564	405.762	81.9846	405.762	82.1195	405.762	81.306	405.762	81.4701	405.762	80.5609	405.762	80.7019	405.762	79.7977	405.762	79.851	405.762	79.1292	405.762	79.0491	405.762	78.7153	405.762	78.5352	405.762	78.6625	405.762	78.5031	405.762	78.9334	405.762	78.8866	405.762	79.3787	405.762	79.428	405.762	79.8312	405.762	79.9066	405.762	80.1626	405.762	80.2109	405.762	80.2985
420.41	84.1945	420.41	84.1452	420.41	84.1558	420.41	84.0233	420.41	84.0315	420.41	83.8552	420.41	83.8426	420.41	83.6621	420.41	83.6203	420.41	83.4411	420.41	83.3854	420.41	83.1583	420.41	83.1242	420.41	82.762	420.41	82.782	420.41	82.2036	420.41	82.2821	420.41	81.4538	420.41	81.5551	420.41	80.5231	420.41	80.5673	420.41	79.5038	420.41	79.3644	420.41	78.6214	420.41	78.1527	420.41	78.1805	420.41	77.341	420.41	78.3054	420.41	77.2758	420.41	78.7873	420.41	77.8318	420.41	79.2985	420.41	78.5911	420.41	79.604	420.41	79.2312	420.41	79.5887
435.059	83.5428	435.059	83.5304	435.059	83.4544	435.059	83.4182	435.059	83.2668	435.059	83.2076	435.059	82.9906	435.059	82.9058	435.059	82.6467	435.059	82.5316	435.059	82.258	435.059	82.1098	435.059	81.8386	435.059	81.6484	435.059	81.389	435.059	81.1129	435.059	80.8988	435.059	80.4313	435.059	80.3487	435.059	79.5586	435.059	79.7248	435.059	78.6005	435.059	79.0679	435.059	77.9021	435.059	78.5407	435.059	77.8213	435.059	78.3954	435.059	78.2925	435.059	78.732	435.059	78.967	435.059	79.3449	435.059	79.5997	435.059	79.9264	435.059	80.0768	435.059	80.2762	435.059	80.3221
451.172	84.3247	451.172	84.2964	451.172	84.2901	451.172	84.2036	451.172	84.1836	451.172	84.039	451.172	83.9886	451.172	83.7971	451.172	83.691	451.172	83.4722	451.172	83.2842	451.172	83.0506	451.172	82.764	451.172	82.5186	451.172	82.1172	451.172	81.8759	451.172	81.3188	451.172	81.1195	451.172	80.3541	451.172	80.1966	451.172	79.257	451.172	79.0117	451.172	78.1359	451.172	77.5988	451.172	77.1694	451.172	76.471	451.172	76.6123	451.172	76.4714	451.172	76.7274	451.172	77.4154	451.172	77.442	451.172	78.3943	451.172	78.2987	451.172	78.9869	451.172	78.9141	451.172	79.1517
465.82	83.8539	465.82	83.8058	465.82	83.8446	465.82	83.7053	465.82	83.7636	465.82	83.5407	465.82	83.5956	465.82	83.2967	465.82	83.3347	465.82	82.9865	465.82	82.9972	465.82	82.6554	465.82	82.6152	465.82	82.3286	465.82	82.203	465.82	81.9622	465.82	81.7208	465.82	81.4751	465.82	81.074	465.82	80.8211	465.82	80.161	465.82	80.0096	465.82	78.9578	465.82	79.0845	465.82	77.64	465.82	78.1747	465.82	76.6621	465.82	77.5862	465.82	76.461	465.82	77.5891	465.82	76.9315	465.82	78.0018	465.82	77.623	465.82	78.388	465.82	78.1952	465.82	78.4729
483.398	83.7971	483.398	83.7293	483.398	83.6737	483.398	83.4983	483.398	83.4039	483.398	83.1941	483.398	83.0763	483.398	82.9126	483.398	82.7695	483.398	82.6755	483.398	82.5076	483.398	82.4065	483.398	82.2595	483.398	81.9962	483.398	81.966	483.398	81.3804	483.398	81.5554	483.398	80.5611	483.398	80.9492	483.398	79.5676	483.398	80.1003	483.398	78.4273	483.398	79.071	483.398	77.2639	483.398	78.1141	483.398	76.5173	483.398	77.5992	483.398	76.7179	483.398	77.6704	483.398	77.6306	483.398	78.1091	483.398	78.5551	483.398	78.631	483.398	79.1143	483.398	79.055	483.398	79.2544
499.512	84.1178	499.512	84.0813	499.512	84.0095	499.512	83.8645	499.512	83.7871	499.512	83.466	499.512	83.4638	499.512	82.9494	499.512	83.0487	499.512	82.4289	499.512	82.5571	499.512	81.9915	499.512	82.0129	499.512	81.614	499.512	81.4549	499.512	81.1854	499.512	80.9239	499.512	80.6166	499.512	80.3939	499.512	79.9192	499.512	79.7347	499.512	79.1901	499.512	78.8224	499.512	78.5154	499.512	77.7623	499.512	77.9458	499.512	77.0244	499.512	77.6363	499.512	77.0284	499.512	77.8203	499.512	77.5688	499.512	78.4028	499.512	78.2287	499.512	78.9283	499.512	78.781	499.512	79.0628
517.09	83.6951	517.09	83.6454	517.09	83.6535	517.09	83.5242	517.09	83.5	517.09	83.3404	517.09	83.2309	517.09	83.0907	517.09	82.8758	517.09	82.7657	517.09	82.4907	517.09	82.3617	517.09	82.1098	517.09	81.892	517.09	81.6946	517.09	81.3675	517.09	81.1571	517.09	80.7374	517.09	80.4489	517.09	79.885	517.09	79.6125	517.09	78.769	517.09	78.7228	517.09	77.6691	517.09	77.8404	517.09	77.2009	517.09	77.2156	517.09	77.5635	517.09	77.3744	517.09	78.2572	517.09	78.2949	517.09	78.8991	517.09	79.2477	517.09	79.4131	517.09	79.7467	517.09	79.7477
536.133	84.1104	536.133	84.019	536.133	84.0476	536.133	83.7895	536.133	83.8179	536.133	83.429	536.133	83.4203	536.133	82.9353	536.133	82.8728	536.133	82.3285	536.133	82.2249	536.133	81.6742	536.133	81.5528	536.133	81.0285	536.133	80.91	536.133	80.3504	536.133	80.2545	536.133	79.5392	536.133	79.4406	536.133	78.5533	536.133	78.3301	536.133	77.4404	536.133	77.0171	536.133	76.3571	536.133	76.0521	536.133	75.771	536.133	76.0521	536.133	76.2629	536.133	76.8018	536.133	77.5341	536.133	77.7265	536.133	78.7542	536.133	78.5714	536.133	79.4681	536.133	79.2402	536.133	79.5952
555.176	84.461	555.176	84.4322	555.176	84.3381	555.176	84.2543	555.176	84.0962	555.176	83.9571	555.176	83.777	555.176	83.559	555.176	83.4134	555.176	83.0598	555.176	83.0286	555.176	82.4847	555.176	82.6115	555.176	81.8914	555.176	82.0954	555.176	81.2789	555.176	81.3956	555.176	80.5061	555.176	80.4468	555.176	79.3662	555.176	79.1786	555.176	77.7724	555.176	77.5425	555.176	76.0444	555.176	75.7886	555.176	75.1383	555.176	74.8105	555.176	75.5825	555.176	75.225	555.176	76.661	555.176	76.4021	555.176	77.7687	555.176	77.6515	555.176	78.6143	555.176	78.583	555.176	78.9324
574.219	84.638	574.219	84.5342	574.219	84.5735	574.219	84.2557	574.219	84.3558	574.219	83.8351	574.219	84.0125	574.219	83.3769	574.219	83.5707	574.219	82.9864	574.219	83.0425	574.219	82.6434	574.219	82.4656	574.219	82.2383	574.219	81.9072	574.219	81.6971	574.219	81.3537	574.219	80.9582	574.219	80.6733	574.219	79.8813	574.219	79.7405	574.219	78.2809	574.219	78.4378	574.219	76.0952	574.219	76.5883	574.219	74.0123	574.219	74.5494	574.219	74.1019	574.219	74.3957	574.219	75.9464	574.219	76.1703	574.219	77.4513	574.219	77.6111	574.219	78.1907	574.219	78.2625	574.219	78.4061
594.727	84.4945	594.727	84.3705	594.727	84.4168	594.727	84.0753	594.727	84.1504	594.727	83.6552	594.727	83.7524	594.727	83.1599	594.727	83.3052	594.727	82.6647	594.727	82.8778	594.727	82.2368	594.727	82.471	594.727	81.8288	594.727	82.0429	594.727	81.3228	594.727	81.5806	594.727	80.6978	594.727	81.0049	594.727	79.9901	594.727	80.082	594.727	79.1081	594.727	78.6117	594.727	77.9016	594.727	76.7322	594.727	76.5653	594.727	75.1821	594.727	76.0046	594.727	75.0634	594.727	76.7799	594.727	76.3156	594.727	78.0349	594.727	77.8023	594.727	78.9524	594.727	78.8469	594.727	79.2439
615.234	84.4539	615.234	84.4456	615.234	84.3928	615.234	84.3067	615.234	84.2448	615.234	83.9642	615.234	83.939	615.234	83.4136	615.234	83.4445	615.234	82.747	615.234	82.8582	615.234	82.1354	615.234	82.3626	615.234	81.6962	615.234	81.9995	615.234	81.2905	615.234	81.5756	615.234	80.5898	615.234	80.863	615.234	79.3268	615.234	79.7272	615.234	77.4243	615.234	78.0835	615.234	75.1763	615.234	76.0932	615.234	73.7896	615.234	74.803	615.234	74.4864	615.234	75.2836	615.234	76.2018	615.234	76.632	615.234	77.7134	615.234	77.8701	615.234	78.6539	615.234	78.6899	615.234	78.9712
637.207	85.4343	637.207	85.2341	637.207	85.3159	637.207	84.8119	637.207	84.8962	637.207	84.2977	637.207	84.2999	637.207	83.776	637.207	83.6769	637.207	83.2845	637.207	83.1218	637.207	82.8324	637.207	82.6812	637.207	82.4163	637.207	82.3793	637.207	82.0264	637.207	82.1056	637.207	81.583	637.207	81.5992	637.207	80.8906	637.207	80.6448	637.207	79.6481	637.207	79.1123	637.207	77.4953	637.207	76.9228	637.207	74.5575	637.207	74.7666	637.207	73.5942	637.207	75.0123	637.207	75.9123	637.207	77.0657	637.207	78.2082	637.207	78.7954	637.207	79.6057	637.207	79.8209	637.207	80.1189
659.18	85.5407	659.18	85.3813	659.18	85.4733	659.18	85.0104	659.18	85.1842	659.18	84.4687	659.18	84.7117	659.18	83.826	659.18	84.1423	659.18	83.167	659.18	83.6084	659.18	82.6228	659.18	83.2022	659.18	82.3287	659.18	82.9028	659.18	82.1955	659.18	82.6192	659.18	81.8785	659.18	82.1768	659.18	81.0462	659.18	81.3154	659.18	79.5791	659.18	79.8459	659.18	77.6034	659.18	77.7519	659.18	75.5784	659.18	75.358	659.18	74.8364	659.18	74.2961	659.18	76.18	659.18	75.8096	659.18	77.8827	659.18	77.7525	659.18	78.9238	659.18	78.9226	659.18	79.2698
682.617	86.4642	682.617	86.3452	682.617	86.3679	682.617	86.0023	682.617	85.9965	682.617	85.3841	682.617	85.3132	682.617	84.5251	682.617	84.4045	682.617	83.6365	682.617	83.4941	682.617	82.9923	682.617	82.8102	682.617	82.6421	682.617	82.4007	682.617	82.4003	682.617	82.177	682.617	82.1273	682.617	81.987	682.617	81.6879	682.617	81.5343	682.617	80.7332	682.617	80.4493	682.617	78.882	682.617	78.377	682.617	76.3749	682.617	75.2602	682.617	75.6384	682.617	73.8665	682.617	77.7202	682.617	76.3611	682.617	79.5539	682.617	78.6306	682.617	80.3036	682.617	79.8307	682.617	80.3206
707.52	86.7552	707.52	86.7317	707.52	86.507	707.52	86.4443	707.52	86.0383	707.52	85.9061	707.52	85.4297	707.52	85.1071	707.52	84.7018	707.52	84.1184	707.52	83.8413	707.52	83.1799	707.52	82.9813	707.52	82.4649	707.52	82.4032	707.52	81.928	707.52	82.172	707.52	81.5246	707.52	81.9707	707.52	80.9918	707.52	81.3425	707.52	79.7598	707.52	79.944	707.52	77.4007	707.52	77.6301	707.52	74.1993	707.52	74.5003	707.52	72.6812	707.52	72.9884	707.52	75.1558	707.52	75.8123	707.52	78.406	707.52	78.8095	707.52	80.5443	707.52	80.6647	707.52	81.2821
732.422	86.387	732.422	86.2218	732.422	86.2994	732.422	85.8573	732.422	85.9053	732.422	85.3175	732.422	85.178	732.422	84.5967	732.422	84.1771	732.422	83.6795	732.422	83.0737	732.422	82.6963	732.422	82.1306	732.422	82.1731	732.422	81.6973	732.422	82.2741	732.422	81.8275	732.422	82.3322	732.422	81.9909	732.422	81.8983	732.422	81.6022	732.422	80.813	732.422	80.245	732.422	78.6793	732.422	77.5784	732.422	75.014	732.422	73.7808	732.422	71.5379	732.422	72.249	732.422	73.6789	732.422	74.9148	732.422	76.9979	732.422	77.7053	732.422	79.1917	732.422	79.5223	732.422	80.0652
757.324	87.0002	757.324	86.889	757.324	86.8391	757.324	86.5177	757.324	86.4154	757.324	85.904	757.324	85.7481	757.324	85.0437	757.324	84.8667	757.324	83.9433	757.324	83.8038	757.324	82.7287	757.324	82.6047	757.324	81.7926	757.324	81.5749	757.324	81.5274	757.324	81.3335	757.324	81.6785	757.324	81.6582	757.324	81.6344	757.324	81.5781	757.324	80.9234	757.324	80.5705	757.324	79.1806	757.324	78.2761	757.324	76.2396	757.324	73.8926	757.324	73.9944	757.324	71.1113	757.324	76.1655	757.324	75.5818	757.324	78.8977	757.324	78.338	757.324	80.1646	757.324	79.5934	757.324	80.2115
785.156	86.4676	785.156	86.4844	785.156	86.1156	785.156	86.1011	785.156	85.5398	785.156	85.3114	785.156	84.8364	785.156	84.2064	785.156	83.9543	785.156	82.9805	785.156	82.6957	785.156	81.9242	785.156	81.0618	785.156	81.3508	785.156	79.7872	785.156	81.1509	785.156	79.6351	785.156	81.0637	785.156	79.9968	785.156	80.9728	785.156	80.1063	785.156	80.3145	785.156	79.4791	785.156	78.1726	785.156	77.7006	785.156	73.8306	785.156	74.131	785.156	71.0774	785.156	67.2156	785.156	74.8651	785.156	71.961	785.156	77.6941	785.156	77.1682	785.156	79.0288	785.156	79.0817	785.156	79.4415
811.523	86.2329	811.523	86.0958	811.523	86.1356	811.523	85.7691	811.523	85.7759	811.523	85.2554	811.523	85.1529	811.523	84.4247	811.523	84.3028	811.523	83.0942	811.523	83.2122	811.523	81.2631	811.523	81.7982	811.523	79.4165	811.523	80.3107	811.523	78.817	811.523	79.6082	811.523	79.613	811.523	79.882	811.523	80.214	811.523	80.262	811.523	79.8841	811.523	79.9858	811.523	78.4198	811.523	78.5378	811.523	74.9208	811.523	75.2082	811.523	68.3908	811.523	68.2434	811.523	71.74	811.523	69.857	811.523	75.9951	811.523	75.7499	811.523	78.1258	811.523	78.2307	811.523	78.8888
840.82	86.2699	840.82	86.1752	840.82	86.1576	840.82	85.8374	840.82	85.8368	840.82	85.2913	840.82	85.247	840.82	84.5833	840.82	84.3421	840.82	83.6298	840.82	83.1394	840.82	82.3376	840.82	81.7469	840.82	80.9293	840.82	80.4882	840.82	79.9234	840.82	79.8832	840.82	79.8652	840.82	80.2651	840.82	80.3616	840.82	81.1056	840.82	80.4234	840.82	81.2275	840.82	79.6474	840.82	79.9012	840.82	77.315	840.82	76.5754	840.82	71.4217	840.82	69.2969	840.82	67.8866	840.82	66.0648	840.82	74.47	840.82	73.7843	840.82	76.787	840.82	76.7536	840.82	77.4329
870.117	86.6096	870.117	86.53	870.117	86.4264	870.117	86.2247	870.117	85.9489	870.117	85.6661	870.117	85.1606	870.117	84.7254	870.117	84.0785	870.117	83.35	870.117	82.7608	870.117	81.5839	870.117	81.1925	870.117	79.5267	870.117	79.2836	870.117	78.2291	870.117	77.7594	870.117	78.3242	870.117	78.2304	870.117	78.8167	870.117	79.5857	870.117	79.0899	870.117	80.1326	870.117	78.1198	870.117	79.4142	870.117	75.4414	870.117	77.4188	870.117	72.66	870.117	73.832	870.117	73.6557	870.117	72.6128	870.117	76.2127	870.117	76.2685	870.117	77.5776	870.117	77.7818	870.117	77.8746
900.879	85.3068	900.879	85.0939	900.879	85.2444	900.879	84.7203	900.879	84.9799	900.879	84.3096	900.879	84.5387	900.879	83.7067	900.879	83.9404	900.879	82.818	900.879	83.1444	900.879	81.6301	900.879	81.8028	900.879	79.8175	900.879	79.845	900.879	77.4919	900.879	77.9259	900.879	76.584	900.879	77.0182	900.879	76.797	900.879	77.523	900.879	76.9484	900.879	77.9981	900.879	77.0211	900.879	77.0402	900.879	74.9123	900.879	74.1294	900.879	66.8589	900.879	69.5957	900.879	65.533	900.879	70.6882	900.879	73.2911	900.879	75.5744	900.879	76.5774	900.879	78.0436	900.879	78.201
933.105	85.0824	933.105	84.9907	933.105	84.9438	933.105	84.5859	933.105	84.608	933.105	83.8446	933.105	84.1719	933.105	82.9993	933.105	83.4622	933.105	81.9422	933.105	82.219	933.105	80.3126	933.105	80.5534	933.105	78.6528	933.105	78.7349	933.105	77.7796	933.105	77.4384	933.105	77.5357	933.105	77.8345	933.105	77.8271	933.105	78.9112	933.105	77.8735	933.105	79.2579	933.105	77.3661	933.105	78.2703	933.105	75.8683	933.105	75.1564	933.105	72.0703	933.105	69.2404	933.105	69.7909	933.105	69.3448	933.105	73.6132	933.105	74.1882	933.105	75.3756	933.105	76.1111	933.105	76.0228
965.332	84.5729	965.332	84.4465	965.332	84.4557	965.332	84.1477	965.332	84.1332	965.332	83.7682	965.332	83.5875	965.332	83.13	965.332	82.7972	965.332	82.2213	965.332	81.6664	965.332	81.1082	965.332	80.2	965.332	79.1899	965.332	78.179	965.332	76.048	965.332	75.3646	965.332	73.9865	965.332	74.376	965.332	74.6733	965.332	76.0577	965.332	75.3551	965.332	77.1576	965.332	75.1247	965.332	76.3555	965.332	73.1062	965.332	73.363	965.332	66.7232	965.332	66.4125	965.332	59.6647	965.332	64.1464	965.332	72.0052	965.332	72.7717	965.332	75.605	965.332	75.5043	965.332	76.3252
1,000.49	83.2618	1,000.49	83.1113	1,000.49	83.3657	1,000.49	82.8193	1,000.49	83.1123	1,000.49	82.3193	1,000.49	82.464	1,000.49	81.743	1,000.49	81.9826	1,000.49	80.5744	1,000.49	81.7192	1,000.49	78.9702	1,000.49	80.6237	1,000.49	78.0279	1,000.49	78.5556	1,000.49	76.6289	1,000.49	76.6406	1,000.49	75.1031	1,000.49	75.5505	1,000.49	76.3431	1,000.49	76.6247	1,000.49	76.9984	1,000.49	77.1806	1,000.49	76.3716	1,000.49	76.3171	1,000.49	74.9464	1,000.49	73.5017	1,000.49	71.2027	1,000.49	65.7587	1,000.49	63.8812	1,000.49	63.7027	1,000.49	69.1345	1,000.49	71.3762	1,000.49	73.9047	1,000.49	75.4288	1,000.49	76.0581
1,035.64	83.694	1,035.64	83.3626	1,035.64	83.4599	1,035.64	82.8152	1,035.64	82.7945	1,035.64	82.4037	1,035.64	82.0726	1,035.64	81.7139	1,035.64	81.4872	1,035.64	80.6823	1,035.64	80.6363	1,035.64	79.5904	1,035.64	79.593	1,035.64	77.8194	1,035.64	78.188	1,035.64	75.4912	1,035.64	75.3696	1,035.64	73.8535	1,035.64	72.299	1,035.64	74.2045	1,035.64	73.0316	1,035.64	75.7175	1,035.64	75.4197	1,035.64	76.0091	1,035.64	76.007	1,035.64	74.7881	1,035.64	74.6109	1,035.64	70.3715	1,035.64	70.8289	1,035.64	57.6233	1,035.64	54.8211	1,035.64	67.7699	1,035.64	69.1169	1,035.64	72.6246	1,035.64	73.9434	1,035.64	74.2611
1,072.27	83.0462	1,072.27	82.9777	1,072.27	82.8255	1,072.27	82.3699	1,072.27	82.3675	1,072.27	81.298	1,072.27	81.6259	1,072.27	80.3995	1,072.27	80.8114	1,072.27	79.6154	1,072.27	80.0885	1,072.27	78.3863	1,072.27	79.0932	1,072.27	77.1944	1,072.27	77.6694	1,072.27	75.3917	1,072.27	75.4574	1,072.27	72.4395	1,072.27	72.127	1,072.27	72.7851	1,072.27	72.8276	1,072.27	74.4048	1,072.27	75.1259	1,072.27	74.8299	1,072.27	75.4736	1,072.27	73.8904	1,072.27	74.1809	1,072.27	70.6801	1,072.27	70.1555	1,072.27	63.577	1,072.27	60.4468	1,072.27	66.9918	1,072.27	68.7355	1,072.27	72.0041	1,072.27	72.5484	1,072.27	73.5037
1,108.89	83.0679	1,108.89	82.6219	1,108.89	83.0551	1,108.89	82.0092	1,108.89	82.4141	1,108.89	81.3382	1,108.89	81.3477	1,108.89	80.341	1,108.89	80.3556	1,108.89	79.0241	1,108.89	79.1769	1,108.89	77.584	1,108.89	77.927	1,108.89	75.9538	1,108.89	77.302	1,108.89	73.949	1,108.89	75.7664	1,108.89	70.9622	1,108.89	72.8015	1,108.89	70.0509	1,108.89	70.8036	1,108.89	72.5656	1,108.89	72.2531	1,108.89	73.7394	1,108.89	73.9835	1,108.89	73.272	1,108.89	73.4486	1,108.89	69.9035	1,108.89	70.8872	1,108.89	58.695	1,108.89	62.4676	1,108.89	62.9242	1,108.89	63.735	1,108.89	70.5701	1,108.89	71.1966	1,108.89	72.991
1,148.44	83.3883	1,148.44	83.2282	1,148.44	83.3173	1,148.44	82.7475	1,148.44	82.919	1,148.44	81.7262	1,148.44	81.9332	1,148.44	80.3745	1,148.44	80.4778	1,148.44	79.0866	1,148.44	79.4158	1,148.44	77.8323	1,148.44	78.6572	1,148.44	76.5905	1,148.44	77.4761	1,148.44	75.1738	1,148.44	75.4488	1,148.44	73.169	1,148.44	72.357	1,148.44	70.3636	1,148.44	70.9998	1,148.44	71.0729	1,148.44	72.1736	1,148.44	73.0898	1,148.44	74.043	1,148.44	73.3749	1,148.44	73.6134	1,148.44	71.4374	1,148.44	70.3312	1,148.44	65.0707	1,148.44	64.1284	1,148.44	65.4311	1,148.44	66.7025	1,148.44	70.6669	1,148.44	71.8902	1,148.44	72.488
1,189.45	83.8564	1,189.45	83.5471	1,189.45	83.5029	1,189.45	82.6443	1,189.45	82.9494	1,189.45	81.7643	1,189.45	82.1538	1,189.45	80.7143	1,189.45	81.0374	1,189.45	78.9337	1,189.45	79.6816	1,189.45	77.3016	1,189.45	78.4163	1,189.45	76.4111	1,189.45	77.4158	1,189.45	74.5689	1,189.45	75.7812	1,189.45	72.2965	1,189.45	72.9866	1,189.45	71.2715	1,189.45	70.1284	1,189.45	72.4859	1,189.45	72.0626	1,189.45	73.7783	1,189.45	74.3664	1,189.45	74.2212	1,189.45	75.0658	1,189.45	72.4765	1,189.45	72.6257	1,189.45	66.0732	1,189.45	66.4672	1,189.45	59.0596	1,189.45	65.6254	1,189.45	69.1548	1,189.45	70.87	1,189.45	72.3452
1,230.47	84.0374	1,230.47	83.6979	1,230.47	83.9523	1,230.47	83.0279	1,230.47	83.268	1,230.47	81.8911	1,230.47	82.0732	1,230.47	80.7629	1,230.47	80.3865	1,230.47	79.5301	1,230.47	78.7327	1,230.47	77.7483	1,230.47	77.1849	1,230.47	76.8461	1,230.47	76.2606	1,230.47	75.8672	1,230.47	76.2845	1,230.47	73.7791	1,230.47	74.2433	1,230.47	72.3952	1,230.47	71.8244	1,230.47	73.0085	1,230.47	71.8185	1,230.47	74.4233	1,230.47	73.1664	1,230.47	74.7686	1,230.47	73.0569	1,230.47	72.1001	1,230.47	69.0441	1,230.47	66.9406	1,230.47	61.7954	1,230.47	67.1044	1,230.47	67.3235	1,230.47	71.9483	1,230.47	72.7891	1,230.47	73.927
1,274.41	83.6459	1,274.41	83.5011	1,274.41	83.2888	1,274.41	82.8024	1,274.41	82.8491	1,274.41	81.881	1,274.41	81.7964	1,274.41	80.789	1,274.41	80.0275	1,274.41	79.1332	1,274.41	78.3869	1,274.41	77.2493	1,274.41	76.6132	1,274.41	76.242	1,274.41	75.1479	1,274.41	75.4926	1,274.41	74.4745	1,274.41	73.8373	1,274.41	72.9081	1,274.41	71.924	1,274.41	70.3228	1,274.41	71.8267	1,274.41	70.7024	1,274.41	73.3177	1,274.41	73.1559	1,274.41	74.2048	1,274.41	73.1768	1,274.41	71.6519	1,274.41	70.1527	1,274.41	65.6027	1,274.41	54.6186	1,274.41	62.5829	1,274.41	63.9934	1,274.41	69.4854	1,274.41	70.7289	1,274.41	72.2673
1,319.82	83.4307	1,319.82	83.2522	1,319.82	83.2169	1,319.82	82.8369	1,319.82	82.3165	1,319.82	81.7603	1,319.82	81.2006	1,319.82	80.187	1,319.82	79.5593	1,319.82	78.8716	1,319.82	77.7586	1,319.82	77.3616	1,319.82	76.0963	1,319.82	75.4593	1,319.82	74.8339	1,319.82	75.5577	1,319.82	72.3846	1,319.82	75.0458	1,319.82	71.1353	1,319.82	71.7739	1,319.82	70.0824	1,319.82	68.5317	1,319.82	67.7991	1,319.82	71.3111	1,319.82	70.5805	1,319.82	73.0654	1,319.82	73.0001	1,319.82	71.8131	1,319.82	70.5119	1,319.82	66.8247	1,319.82	64.1571	1,319.82	66.6123	1,319.82	63.6904	1,319.82	70.711	1,319.82	68.5806	1,319.82	71.1653
1,366.7	83.3096	1,366.7	83.0539	1,366.7	83.0133	1,366.7	82.5204	1,366.7	82.4397	1,366.7	81.6364	1,366.7	81.5375	1,366.7	80.1367	1,366.7	80.1175	1,366.7	78.6163	1,366.7	78.5656	1,366.7	76.9748	1,366.7	76.6693	1,366.7	75.6608	1,366.7	74.8519	1,366.7	73.8696	1,366.7	73.603	1,366.7	73.1384	1,366.7	72.1227	1,366.7	70.5527	1,366.7	70.1925	1,366.7	69.3505	1,366.7	65.7664	1,366.7	70.758	1,366.7	70.3235	1,366.7	71.614	1,366.7	72.5868	1,366.7	68.8727	1,366.7	71.0132	1,366.7	61.211	1,366.7	64.8341	1,366.7	63.4802	1,366.7	63.3688	1,366.7	70.1678	1,366.7	69.6351	1,366.7	71.8103
1,413.57	83.1453	1,413.57	83.1398	1,413.57	83.0741	1,413.57	82.558	1,413.57	82.2053	1,413.57	81.2673	1,413.57	81.2412	1,413.57	80.2884	1,413.57	80.3133	1,413.57	78.6391	1,413.57	78.7702	1,413.57	76.5576	1,413.57	77.4221	1,413.57	75.5829	1,413.57	74.7422	1,413.57	73.3223	1,413.57	73.5248	1,413.57	71.9775	1,413.57	72.0518	1,413.57	70.8912	1,413.57	69.6398	1,413.57	69.4319	1,413.57	69.3295	1,413.57	70.8871	1,413.57	69.4898	1,413.57	70.721	1,413.57	71.4344	1,413.57	68.553	1,413.57	70.5684	1,413.57	63.2099	1,413.57	63.9607	1,413.57	62.7107	1,413.57	64.2622	1,413.57	69.3488	1,413.57	70.9408	1,413.57	72.5494
1,463.38	84.2534	1,463.38	84.085	1,463.38	83.8337	1,463.38	83.3392	1,463.38	83.0767	1,463.38	82.1576	1,463.38	82.1788	1,463.38	80.8087	1,463.38	80.8239	1,463.38	79.0362	1,463.38	79.1561	1,463.38	77.2444	1,463.38	77.253	1,463.38	76.1312	1,463.38	75.6723	1,463.38	75.7572	1,463.38	74.6043	1,463.38	74.0599	1,463.38	72.5136	1,463.38	72.2889	1,463.38	71.6848	1,463.38	69.0733	1,463.38	70.4761	1,463.38	68.9216	1,463.38	70.7587	1,463.38	71.3456	1,463.38	70.9263	1,463.38	70.4891	1,463.38	71.1188	1,463.38	67.4907	1,463.38	65.3839	1,463.38	60.9211	1,463.38	64.6533	1,463.38	68.3758	1,463.38	69.7952	1,463.38	70.922
1,516.11	84.6648	1,516.11	84.5285	1,516.11	84.5883	1,516.11	83.8617	1,516.11	83.8214	1,516.11	82.6772	1,516.11	82.5307	1,516.11	81.0903	1,516.11	80.7603	1,516.11	78.8391	1,516.11	78.7855	1,516.11	77.0496	1,516.11	76.7661	1,516.11	76.237	1,516.11	74.159	1,516.11	74.9766	1,516.11	72.5288	1,516.11	74.0476	1,516.11	71.9031	1,516.11	72.8866	1,516.11	70.8039	1,516.11	70.0683	1,516.11	70.2096	1,516.11	70.0648	1,516.11	70.5135	1,516.11	72.0434	1,516.11	71.7425	1,516.11	70.4595	1,516.11	70.5822	1,516.11	63.659	1,516.11	63.686	1,516.11	58.7709	1,516.11	63.0301	1,516.11	70.1092	1,516.11	69.9323	1,516.11	72.9082
1,568.85	84.7023	1,568.85	84.5008	1,568.85	84.5918	1,568.85	83.579	1,568.85	83.8147	1,568.85	82.6078	1,568.85	82.0191	1,568.85	81.3963	1,568.85	80.3418	1,568.85	78.7729	1,568.85	78.9315	1,568.85	77.2301	1,568.85	76.961	1,568.85	75.4855	1,568.85	75.2439	1,568.85	74.1761	1,568.85	74.6356	1,568.85	73.5038	1,568.85	72.9817	1,568.85	72.0394	1,568.85	69.7827	1,568.85	70.6184	1,568.85	68.3077	1,568.85	70.4825	1,568.85	68.7819	1,568.85	72.4728	1,568.85	70.867	1,568.85	72.3022	1,568.85	70.7632	1,568.85	64.4016	1,568.85	64.6002	1,568.85	59.878	1,568.85	66.8788	1,568.85	69.4049	1,568.85	72.0794	1,568.85	72.8834
1,624.51	83.7152	1,624.51	83.5292	1,624.51	83.549	1,624.51	83.1936	1,624.51	82.2039	1,624.51	81.4884	1,624.51	80.8819	1,624.51	79.9148	1,624.51	79.3666	1,624.51	79.0413	1,624.51	77.7765	1,624.51	77.6672	1,624.51	76.087	1,624.51	74.9883	1,624.51	75.2342	1,624.51	74.1422	1,624.51	73.9877	1,624.51	72.0332	1,624.51	71.3569	1,624.51	71.0452	1,624.51	70.8363	1,624.51	65.3192	1,624.51	63.9781	1,624.51	67.5541	1,624.51	63.4087	1,624.51	68.2679	1,624.51	67.0011	1,624.51	69.1216	1,624.51	70.0375	1,624.51	66.8342	1,624.51	67.2488	1,624.51	54.9637	1,624.51	55.8604	1,624.51	63.7908	1,624.51	70.4753	1,624.51	70.3419
1,681.64	83.7097	1,681.64	83.3463	1,681.64	83.7422	1,681.64	82.4141	1,681.64	82.7968	1,681.64	81.158	1,681.64	81.3373	1,681.64	79.7201	1,681.64	80.0094	1,681.64	79.2251	1,681.64	77.8849	1,681.64	77.0285	1,681.64	76.4999	1,681.64	75.9438	1,681.64	75.1166	1,681.64	72.1882	1,681.64	73.5275	1,681.64	72.0883	1,681.64	73.0036	1,681.64	70.7234	1,681.64	71.893	1,681.64	71.0942	1,681.64	70.6266	1,681.64	67.3174	1,681.64	67.6379	1,681.64	69.1623	1,681.64	70.1664	1,681.64	71.5588	1,681.64	71.198	1,681.64	70.3928	1,681.64	67.53	1,681.64	63.6358	1,681.64	65.6012	1,681.64	66.1981	1,681.64	68.8522	1,681.64	69.4478
1,741.7	85.3801	1,741.7	84.8947	1,741.7	84.9906	1,741.7	84.0465	1,741.7	83.895	1,741.7	82.8441	1,741.7	82.1073	1,741.7	80.9018	1,741.7	80.7855	1,741.7	78.9503	1,741.7	79.3129	1,741.7	78.2348	1,741.7	77.2366	1,741.7	76.4783	1,741.7	77	1,741.7	75.2655	1,741.7	77.0566	1,741.7	74.3369	1,741.7	74.8097	1,741.7	72.818	1,741.7	71.8245	1,741.7	69.5331	1,741.7	70.6694	1,741.7	69.2363	1,741.7	69.4447	1,741.7	70.9909	1,741.7	71.6943	1,741.7	71.2198	1,741.7	72.7932	1,741.7	70.1563	1,741.7	70.0607	1,741.7	58.4821	1,741.7	63.9761	1,741.7	67.2615	1,741.7	68.234	1,741.7	70.7715
1,803.22	86.1059	1,803.22	86.0037	1,803.22	85.5596	1,803.22	85.1566	1,803.22	84.4384	1,803.22	83.461	1,803.22	82.22	1,803.22	81.6562	1,803.22	80.5447	1,803.22	81.3033	1,803.22	79.2686	1,803.22	78.7953	1,803.22	78.1216	1,803.22	78.0809	1,803.22	77.4955	1,803.22	74.9391	1,803.22	77.2466	1,803.22	75.1683	1,803.22	75.42	1,803.22	74.1969	1,803.22	73.1654	1,803.22	72.6659	1,803.22	69.4434	1,803.22	70.6463	1,803.22	73.6261	1,803.22	69.6568	1,803.22	71.2165	1,803.22	70.3996	1,803.22	72.7351	1,803.22	71.5107	1,803.22	68.0798	1,803.22	67.0849	1,803.22	60.3196	1,803.22	68.9304	1,803.22	70.2434	1,803.22	71.8789
1,866.21	85.9324	1,866.21	85.6975	1,866.21	85.5428	1,866.21	84.5569	1,866.21	84.6188	1,866.21	83.2249	1,866.21	82.5373	1,866.21	82.2673	1,866.21	81.0691	1,866.21	80.5019	1,866.21	79.0415	1,866.21	79.844	1,866.21	78.1284	1,866.21	78.6146	1,866.21	74.4802	1,866.21	77.6175	1,866.21	74.1431	1,866.21	76.2693	1,866.21	75.0935	1,866.21	75.2212	1,866.21	73.8315	1,866.21	73.8164	1,866.21	70.5667	1,866.21	71.9252	1,866.21	69.1015	1,866.21	73.3829	1,866.21	69.8188	1,866.21	74.6268	1,866.21	72.351	1,866.21	73.3497	1,866.21	72.135	1,866.21	64.4027	1,866.21	57.116	1,866.21	71.9669	1,866.21	70.6692	1,866.21	72.7478
1,932.13	85.1108	1,932.13	85.0226	1,932.13	84.9344	1,932.13	84.1246	1,932.13	83.6003	1,932.13	82.6331	1,932.13	82.5757	1,932.13	81.0138	1,932.13	80.9846	1,932.13	79.6747	1,932.13	79.6139	1,932.13	78.6871	1,932.13	78.6239	1,932.13	77.298	1,932.13	76.2644	1,932.13	75.8703	1,932.13	75.1526	1,932.13	76.2014	1,932.13	74.5993	1,932.13	74.5288	1,932.13	73.3641	1,932.13	72.896	1,932.13	70.1918	1,932.13	71.463	1,932.13	72.0634	1,932.13	71.9924	1,932.13	70.1138	1,932.13	72.5289	1,932.13	72.0762	1,932.13	72.2046	1,932.13	72.2295	1,932.13	63.6786	1,932.13	65.3528	1,932.13	67.4807	1,932.13	65.7621	1,932.13	70.3788
1,999.51	85.5081	1,999.51	85.084	1,999.51	85.1602	1,999.51	84.033	1,999.51	84.2921	1,999.51	82.8158	1,999.51	83.0233	1,999.51	81.7827	1,999.51	81.7154	1,999.51	80.5198	1,999.51	80.8344	1,999.51	79.4391	1,999.51	79.8545	1,999.51	77.7849	1,999.51	78.6978	1,999.51	76.2092	1,999.51	76.2971	1,999.51	74.9127	1,999.51	75.6898	1,999.51	73.727	1,999.51	74.4048	1,999.51	72.7565	1,999.51	73.0392	1,999.51	70.7862	1,999.51	71.2289	1,999.51	70.133	1,999.51	71.2016	1,999.51	72.1101	1,999.51	73.8959	1,999.51	72.0739	1,999.51	73.1833	1,999.51	63.3078	1,999.51	67.6959	1,999.51	70.6672	1,999.51	69.7324	1,999.51	71.9609
2,069.82	85.8853	2,069.82	85.4321	2,069.82	85.3388	2,069.82	84.5849	2,069.82	84.541	2,069.82	83.6466	2,069.82	83.3787	2,069.82	82.6034	2,069.82	82.4207	2,069.82	81.7109	2,069.82	81.617	2,069.82	80.4791	2,069.82	80.7669	2,069.82	79.124	2,069.82	79.6791	2,069.82	77.5344	2,069.82	77.7652	2,069.82	76.761	2,069.82	76.2328	2,069.82	75.9136	2,069.82	74.6435	2,069.82	74.085	2,069.82	73.2105	2,069.82	72.0822	2,069.82	71.0229	2,069.82	71.017	2,069.82	72.8704	2,069.82	72.175	2,069.82	73.3434	2,069.82	72.7907	2,069.82	73.0643	2,069.82	69.2779	2,069.82	66.2129	2,069.82	68.9375	2,069.82	69.3803	2,069.82	71.8075
2,143.07	84.8403	2,143.07	84.7584	2,143.07	84.6758	2,143.07	83.9386	2,143.07	83.7089	2,143.07	82.9113	2,143.07	82.834	2,143.07	82.1305	2,143.07	82.193	2,143.07	81.9325	2,143.07	81.6416	2,143.07	81.5068	2,143.07	80.4703	2,143.07	80.1299	2,143.07	79.691	2,143.07	78.864	2,143.07	77.7024	2,143.07	76.8566	2,143.07	75.8191	2,143.07	76.6259	2,143.07	75.2183	2,143.07	75.2123	2,143.07	73.141	2,143.07	72.7582	2,143.07	70.7936	2,143.07	73.0253	2,143.07	70.2378	2,143.07	73.373	2,143.07	72.2312	2,143.07	74.765	2,143.07	73.6555	2,143.07	69.827	2,143.07	67.8102	2,143.07	68.9124	2,143.07	68.3562	2,143.07	72.6199
2,219.24	84.7878	2,219.24	84.288	2,219.24	84.4317	2,219.24	83.4396	2,219.24	83.5867	2,219.24	83.0103	2,219.24	83.0936	2,219.24	83.0129	2,219.24	82.7505	2,219.24	82.1332	2,219.24	82.258	2,219.24	80.8736	2,219.24	81.5297	2,219.24	80.235	2,219.24	80.5833	2,219.24	78.3846	2,219.24	79.1984	2,219.24	76.9724	2,219.24	76.6659	2,219.24	75.7495	2,219.24	76.658	2,219.24	73.9281	2,219.24	75.305	2,219.24	73.8941	2,219.24	73.6729	2,219.24	71.3244	2,219.24	72.6578	2,219.24	72.6964	2,219.24	72.7104	2,219.24	74.8089	2,219.24	74.8307	2,219.24	71.0566	2,219.24	68.2686	2,219.24	69.6326	2,219.24	67.1553	2,219.24	73.013
2,296.88	85.6977	2,296.88	85.2991	2,296.88	85.1896	2,296.88	84.7082	2,296.88	84.636	2,296.88	84.4019	2,296.88	84.3881	2,296.88	84.2466	2,296.88	84.268	2,296.88	83.8555	2,296.88	84.0496	2,296.88	82.4389	2,296.88	83.0406	2,296.88	81.5064	2,296.88	81.7788	2,296.88	80.3501	2,296.88	80.3214	2,296.88	77.4733	2,296.88	78.7498	2,296.88	76.6894	2,296.88	77.6197	2,296.88	74.6521	2,296.88	76.9742	2,296.88	72.7061	2,296.88	74.5047	2,296.88	73.4712	2,296.88	74.5889	2,296.88	72.239	2,296.88	75.4024	2,296.88	74.4831	2,296.88	75.2051	2,296.88	71.885	2,296.88	71.3673	2,296.88	68.0414	2,296.88	71.5685	2,296.88	72.8176
2,378.91	85.6243	2,378.91	85.1819	2,378.91	85.166	2,378.91	84.9767	2,378.91	84.9297	2,378.91	85.0986	2,378.91	84.8166	2,378.91	85.5435	2,378.91	84.826	2,378.91	85.0534	2,378.91	84.469	2,378.91	83.6631	2,378.91	83.2065	2,378.91	82.3919	2,378.91	81.521	2,378.91	80.8642	2,378.91	80.4105	2,378.91	78.8553	2,378.91	76.883	2,378.91	77.5708	2,378.91	76.887	2,378.91	76.9641	2,378.91	75.6259	2,378.91	74.7619	2,378.91	74.0758	2,378.91	74.7169	2,378.91	73.5874	2,378.91	73.8659	2,378.91	73.2032	2,378.91	75.2517	2,378.91	75.8326	2,378.91	72.4829	2,378.91	70.37	2,378.91	68.0855	2,378.91	70.0679	2,378.91	73.6832
2,462.4	84.0527	2,462.4	83.8535	2,462.4	84.1137	2,462.4	84.087	2,462.4	84.3206	2,462.4	84.8396	2,462.4	84.7632	2,462.4	85.2192	2,462.4	84.7983	2,462.4	85.0738	2,462.4	84.5035	2,462.4	83.8803	2,462.4	83.6065	2,462.4	81.7215	2,462.4	81.8339	2,462.4	80.1336	2,462.4	80.3649	2,462.4	78.8804	2,462.4	78.1606	2,462.4	76.2687	2,462.4	76.8355	2,462.4	76.9986	2,462.4	76.0702	2,462.4	73.9902	2,462.4	74.9907	2,462.4	74.3886	2,462.4	73.8955	2,462.4	74.4101	2,462.4	73.5891	2,462.4	75.3412	2,462.4	75.4448	2,462.4	72.0483	2,462.4	72.8166	2,462.4	70.6902	2,462.4	69.0371	2,462.4	73.6012
2,548.83	83.2694	2,548.83	83.8406	2,548.83	83.5989	2,548.83	84.6317	2,548.83	84.6451	2,548.83	85.6622	2,548.83	85.8148	2,548.83	85.576	2,548.83	86.2161	2,548.83	85.637	2,548.83	85.6844	2,548.83	84.8984	2,548.83	84.3084	2,548.83	82.6673	2,548.83	82.9929	2,548.83	81.7851	2,548.83	80.6697	2,548.83	78.1608	2,548.83	79.1282	2,548.83	75.9344	2,548.83	76.094	2,548.83	76.3048	2,548.83	76.935	2,548.83	72.9359	2,548.83	75.3938	2,548.83	73.1531	2,548.83	75.0882	2,548.83	71.5725	2,548.83	74.1659	2,548.83	73.8403	2,548.83	75.0186	2,548.83	72.2494	2,548.83	74.1931	2,548.83	69.1634	2,548.83	72.6379	2,548.83	73.8553
2,639.65	81.6499	2,639.65	82.951	2,639.65	82.4361	2,639.65	84.1715	2,639.65	84.0364	2,639.65	85.7316	2,639.65	85.2917	2,639.65	85.8573	2,639.65	85.7069	2,639.65	85.508	2,639.65	85.184	2,639.65	84.728	2,639.65	83.5507	2,639.65	82.7134	2,639.65	81.5041	2,639.65	81.0324	2,639.65	79.6758	2,639.65	79.2746	2,639.65	77.5943	2,639.65	76.6581	2,639.65	74.4963	2,639.65	74.8864	2,639.65	75.0741	2,639.65	74.8366	2,639.65	74.0998	2,639.65	73.2785	2,639.65	73.8332	2,639.65	73.5661	2,639.65	71.6853	2,639.65	74.4982	2,639.65	74.5394	2,639.65	73.3828	2,639.65	71.5255	2,639.65	71.1572	2,639.65	69.4164	2,639.65	73.8652
2,731.93	82.1519	2,731.93	82.5892	2,731.93	81.9596	2,731.93	84.5548	2,731.93	84.2471	2,731.93	86.1234	2,731.93	85.5433	2,731.93	85.8166	2,731.93	86.1549	2,731.93	84.4667	2,731.93	84.9268	2,731.93	83.4496	2,731.93	83.4128	2,731.93	81.9044	2,731.93	81.1049	2,731.93	77.4583	2,731.93	78.6499	2,731.93	77.7292	2,731.93	77.4998	2,731.93	74.1025	2,731.93	75.4366	2,731.93	73.4636	2,731.93	74.6674	2,731.93	73.7549	2,731.93	72.1836	2,731.93	73.6848	2,731.93	74.1864	2,731.93	72.7782	2,731.93	71.9633	2,731.93	74.3643	2,731.93	73.4468	2,731.93	73.1832	2,731.93	71.2809	2,731.93	67.9331	2,731.93	66.0427	2,731.93	71.0479
2,828.61	81.7778	2,828.61	82.8191	2,828.61	83.3256	2,828.61	85.1443	2,828.61	84.9908	2,828.61	86.2965	2,828.61	86.6953	2,828.61	86.9096	2,828.61	86.7776	2,828.61	85.4794	2,828.61	85.7051	2,828.61	83.4528	2,828.61	83.8406	2,828.61	80.8698	2,828.61	81.6233	2,828.61	77.3122	2,828.61	79.5722	2,828.61	75.9203	2,828.61	78.4247	2,828.61	74.6096	2,828.61	75.5628	2,828.61	72.4483	2,828.61	73.7391	2,828.61	73.4438	2,828.61	72.64	2,828.61	71.7511	2,828.61	73.0389	2,828.61	73.1683	2,828.61	72.8071	2,828.61	71.6029	2,828.61	73.5174	2,828.61	73.4811	2,828.61	72.8771	2,828.61	62.8264	2,828.61	63.3802	2,828.61	68.8735
2,928.22	81.7636	2,928.22	82.6	2,928.22	83.2129	2,928.22	85.2587	2,928.22	84.7021	2,928.22	86.2962	2,928.22	86.3555	2,928.22	86.6531	2,928.22	85.8713	2,928.22	85.0419	2,928.22	84.6203	2,928.22	82.8323	2,928.22	83.0932	2,928.22	80.4301	2,928.22	80.4283	2,928.22	77.617	2,928.22	77.0737	2,928.22	75.8413	2,928.22	75.0585	2,928.22	74.9529	2,928.22	73.9186	2,928.22	72.9985	2,928.22	69.7564	2,928.22	72.2701	2,928.22	71.2652	2,928.22	70.9637	2,928.22	70.2043	2,928.22	73.2616	2,928.22	71.0279	2,928.22	72.0049	2,928.22	72.3199	2,928.22	73.1485	2,928.22	71.1777	2,928.22	62.7466	2,928.22	65.6839	2,928.22	68.7103
3,030.76	82.5131	3,030.76	83.5667	3,030.76	84.3832	3,030.76	84.8759	3,030.76	85.7499	3,030.76	85.5716	3,030.76	86.5391	3,030.76	85.515	3,030.76	86.1895	3,030.76	84.9969	3,030.76	84.27	3,030.76	81.3471	3,030.76	81.2176	3,030.76	79.1398	3,030.76	79.0845	3,030.76	78.1238	3,030.76	76.2558	3,030.76	74.5184	3,030.76	74.297	3,030.76	74.1606	3,030.76	73.192	3,030.76	71.988	3,030.76	71.2905	3,030.76	71.2155	3,030.76	71.3683	3,030.76	70.3494	3,030.76	68.6661	3,030.76	71.8511	3,030.76	72.7807	3,030.76	70.3771	3,030.76	70.4849	3,030.76	70.3996	3,030.76	72.3783	3,030.76	68.5224	3,030.76	67.5613	3,030.76	67.1688
3,137.7	82.9974	3,137.7	83.8946	3,137.7	83.9546	3,137.7	85.5199	3,137.7	86.2297	3,137.7	86.4669	3,137.7	86.5826	3,137.7	85.8741	3,137.7	86.2136	3,137.7	84.6215	3,137.7	84.0248	3,137.7	82.1978	3,137.7	81.0533	3,137.7	80.0513	3,137.7	78.2197	3,137.7	77.3931	3,137.7	76.1433	3,137.7	74.5236	3,137.7	75.0616	3,137.7	72.8039	3,137.7	72.6608	3,137.7	71.0261	3,137.7	72.6211	3,137.7	71.2905	3,137.7	71.5233	3,137.7	69.6816	3,137.7	70.6435	3,137.7	72.8447	3,137.7	73.1624	3,137.7	71.6308	3,137.7	70.9552	3,137.7	72.0307	3,137.7	72.7677	3,137.7	70.5709	3,137.7	68.7187	3,137.7	71.8445
3,249.02	83.26	3,249.02	84.0327	3,249.02	83.7993	3,249.02	85.3549	3,249.02	85.9632	3,249.02	86.4453	3,249.02	86.3566	3,249.02	85.6365	3,249.02	85.522	3,249.02	83.0742	3,249.02	83.0193	3,249.02	80.8217	3,249.02	80.1987	3,249.02	78.6676	3,249.02	76.5439	3,249.02	75.397	3,249.02	74.715	3,249.02	73.0383	3,249.02	74.0966	3,249.02	71.4678	3,249.02	71.492	3,249.02	70.2772	3,249.02	70.792	3,249.02	69.234	3,249.02	70.6158	3,249.02	68.917	3,249.02	71.4072	3,249.02	71.3104	3,249.02	71.3493	3,249.02	70.4177	3,249.02	69.8941	3,249.02	73.0759	3,249.02	71.5171	3,249.02	68.2495	3,249.02	67.1715	3,249.02	68.9812
3,363.28	81.9622	3,363.28	82.6132	3,363.28	83.6019	3,363.28	85.3211	3,363.28	85.191	3,363.28	86.4733	3,363.28	85.9079	3,363.28	85.4477	3,363.28	84.2413	3,363.28	81.6898	3,363.28	82.2922	3,363.28	80.1355	3,363.28	80.1331	3,363.28	76.4251	3,363.28	77.2778	3,363.28	75.3529	3,363.28	76.0314	3,363.28	74.2043	3,363.28	72.7767	3,363.28	73.2657	3,363.28	72.017	3,363.28	70.3945	3,363.28	70.7002	3,363.28	69.3582	3,363.28	69.1773	3,363.28	66.9998	3,363.28	67.6795	3,363.28	70.7941	3,363.28	72.0675	3,363.28	69.1966	3,363.28	70.4208	3,363.28	72.2686	3,363.28	72.4646	3,363.28	60.767	3,363.28	66.9409	3,363.28	67.085
3,481.93	82.4843	3,481.93	82.9413	3,481.93	84.2468	3,481.93	85.0291	3,481.93	85.779	3,481.93	86.3244	3,481.93	86.6357	3,481.93	84.6795	3,481.93	85.2976	3,481.93	83.1696	3,481.93	83.7266	3,481.93	79.6323	3,481.93	80.4892	3,481.93	76.9275	3,481.93	78.0926	3,481.93	76.3322	3,481.93	77.6952	3,481.93	75.0111	3,481.93	74.9059	3,481.93	73.3457	3,481.93	72.2571	3,481.93	70.9521	3,481.93	71.7015	3,481.93	69.7735	3,481.93	71.5234	3,481.93	69.193	3,481.93	66.1963	3,481.93	70.9585	3,481.93	72.568	3,481.93	71.5005	3,481.93	71.4694	3,481.93	72.9528	3,481.93	72.7329	3,481.93	67.3662	3,481.93	65.6419	3,481.93	68.5373
3,604.98	82.0135	3,604.98	83.3461	3,604.98	83.8669	3,604.98	85.2479	3,604.98	85.7321	3,604.98	86.2016	3,604.98	86.1719	3,604.98	84.8223	3,604.98	84.9393	3,604.98	82.7194	3,604.98	82.5591	3,604.98	80.6153	3,604.98	80.147	3,604.98	78.5333	3,604.98	78.3855	3,604.98	77.5777	3,604.98	77.5555	3,604.98	75.8996	3,604.98	73.6444	3,604.98	74.5331	3,604.98	73.6862	3,604.98	72.0434	3,604.98	70.6137	3,604.98	70.768	3,604.98	70.808	3,604.98	70.954	3,604.98	70.3016	3,604.98	71.406	3,604.98	71.724	3,604.98	70.4001	3,604.98	71.2526	3,604.98	72.6063	3,604.98	72.3498	3,604.98	69.7775	3,604.98	67.3921	3,604.98	69.9699
3,732.42	80.6539	3,732.42	83.1096	3,732.42	82.0826	3,732.42	84.8771	3,732.42	85.6922	3,732.42	85.3243	3,732.42	85.8913	3,732.42	84.2159	3,732.42	84.565	3,732.42	82.7298	3,732.42	81.4607	3,732.42	81.0896	3,732.42	79.923	3,732.42	79.6962	3,732.42	80.176	3,732.42	77.7814	3,732.42	77.0624	3,732.42	76.9843	3,732.42	74.9997	3,732.42	73.4069	3,732.42	75.0566	3,732.42	72.5332	3,732.42	71.9974	3,732.42	72.379	3,732.42	73.1836	3,732.42	69.2545	3,732.42	69.5389	3,732.42	71.2567	3,732.42	70.7931	3,732.42	71.9793	3,732.42	72.9952	3,732.42	73.1236	3,732.42	72.929	3,732.42	68.0708	3,732.42	67.2758	3,732.42	69.6175
3,864.26	82.6776	3,864.26	83.3577	3,864.26	82.5478	3,864.26	85.1139	3,864.26	84.982	3,864.26	84.9333	3,864.26	84.9542	3,864.26	84.1994	3,864.26	83.2529	3,864.26	81.1419	3,864.26	80.4975	3,864.26	80.1673	3,864.26	80.5814	3,864.26	80.3934	3,864.26	81.192	3,864.26	78.9164	3,864.26	77.4894	3,864.26	77.7787	3,864.26	78.1188	3,864.26	73.8892	3,864.26	74.6665	3,864.26	73.5662	3,864.26	72.7109	3,864.26	73.2123	3,864.26	70.2638	3,864.26	71.5091	3,864.26	69.7053	3,864.26	71.1107	3,864.26	71.5361	3,864.26	73.3023	3,864.26	72.3809	3,864.26	74.8036	3,864.26	74.5656	3,864.26	68.4986	3,864.26	66.8721	3,864.26	71.4448
4,000.49	84.8835	4,000.49	83.6557	4,000.49	85.4316	4,000.49	84.5458	4,000.49	84.6032	4,000.49	85.0117	4,000.49	84.6309	4,000.49	82.8131	4,000.49	81.6389	4,000.49	81.4672	4,000.49	81.6519	4,000.49	81.9685	4,000.49	82.5707	4,000.49	81.7979	4,000.49	81.4728	4,000.49	80.0954	4,000.49	79.4787	4,000.49	77.9264	4,000.49	78.7872	4,000.49	77.3531	4,000.49	76.5799	4,000.49	73.5508	4,000.49	74.4464	4,000.49	72.77	4,000.49	72.6963	4,000.49	71.8413	4,000.49	73.7781	4,000.49	70.146	4,000.49	73.0029	4,000.49	72.5627	4,000.49	72.0519	4,000.49	73.7131	4,000.49	75.1478	4,000.49	69.2062	4,000.49	69.0299	4,000.49	71.2311
4,141.11	86.5309	4,141.11	84.8978	4,141.11	85.7182	4,141.11	84.6374	4,141.11	84.5129	4,141.11	83.311	4,141.11	83.443	4,141.11	80.4291	4,141.11	82.9505	4,141.11	82.9912	4,141.11	84.6857	4,141.11	84.0185	4,141.11	84.2904	4,141.11	83.8937	4,141.11	82.3821	4,141.11	82.2868	4,141.11	81.3885	4,141.11	80.0109	4,141.11	79.9128	4,141.11	78.3931	4,141.11	77.2206	4,141.11	75.786	4,141.11	75.246	4,141.11	75.0082	4,141.11	73.3127	4,141.11	73.9169	4,141.11	72.4442	4,141.11	71.7014	4,141.11	72.1965	4,141.11	74.6726	4,141.11	74.5873	4,141.11	75.1368	4,141.11	74.9947	4,141.11	72.0123	4,141.11	67.6909	4,141.11	71.4176
4,287.6	86.918	4,287.6	86.3912	4,287.6	84.6083	4,287.6	83.3958	4,287.6	84.1261	4,287.6	82.5888	4,287.6	82.2768	4,287.6	84.0187	4,287.6	84.4892	4,287.6	86.0392	4,287.6	86.2097	4,287.6	86.4334	4,287.6	85.4549	4,287.6	84.3702	4,287.6	83.5881	4,287.6	81.9223	4,287.6	81.8305	4,287.6	79.2567	4,287.6	79.8773	4,287.6	76.2368	4,287.6	77.1158	4,287.6	76.0185	4,287.6	76.6705	4,287.6	74.4936	4,287.6	74.5482	4,287.6	73.4586	4,287.6	72.7476	4,287.6	72.4962	4,287.6	70.3778	4,287.6	75.4546	4,287.6	75.0359	4,287.6	74.7893	4,287.6	74.2019	4,287.6	71.6071	4,287.6	69.0909	4,287.6	70.9089
4,438.48	87.647	4,438.48	85.3176	4,438.48	85.4596	4,438.48	81.2139	4,438.48	81.4373	4,438.48	80.9656	4,438.48	82.5737	4,438.48	85.2413	4,438.48	84.3004	4,438.48	87.107	4,438.48	85.765	4,438.48	85.9319	4,438.48	86.015	4,438.48	83.9317	4,438.48	83.9832	4,438.48	81.3118	4,438.48	82.0638	4,438.48	79.0952	4,438.48	78.7669	4,438.48	78.0464	4,438.48	77.0212	4,438.48	75.4137	4,438.48	75.187	4,438.48	72.8295	4,438.48	74.8851	4,438.48	72.0698	4,438.48	71.4262	4,438.48	72.6327	4,438.48	71.8483	4,438.48	75.3626	4,438.48	74.7357	4,438.48	74.2722	4,438.48	73.15	4,438.48	71.0952	4,438.48	70.9649	4,438.48	69.5642
4,595.21	88.1789	4,595.21	86.0404	4,595.21	85.9256	4,595.21	83.2188	4,595.21	81.4897	4,595.21	82.7733	4,595.21	82.057	4,595.21	85.469	4,595.21	86.0915	4,595.21	87.1062	4,595.21	87.1646	4,595.21	86.4567	4,595.21	85.8963	4,595.21	83.8588	4,595.21	83.4049	4,595.21	80.793	4,595.21	80.1873	4,595.21	76.6716	4,595.21	77.4043	4,595.21	75.2782	4,595.21	74.9162	4,595.21	72.156	4,595.21	73.1237	4,595.21	71.5059	4,595.21	72.899	4,595.21	70.5965	4,595.21	71.4424	4,595.21	68.8256	4,595.21	70.693	4,595.21	72.6049	4,595.21	73.1089	4,595.21	72.606	4,595.21	73.9213	4,595.21	71.5882	4,595.21	70.2606	4,595.21	65.7208
4,756.35	87.7223	4,756.35	85.8868	4,756.35	85.7756	4,756.35	80.6623	4,756.35	83.1921	4,756.35	82.3386	4,756.35	83.5864	4,756.35	85.2016	4,756.35	86.9301	4,756.35	85.3535	4,756.35	87.3207	4,756.35	84.1761	4,756.35	85.1119	4,756.35	81.6306	4,756.35	81.799	4,756.35	77.4138	4,756.35	79.1008	4,756.35	73.9555	4,756.35	75.4127	4,756.35	69.9709	4,756.35	72.1866	4,756.35	72.4163	4,756.35	71.8883	4,756.35	70.0499	4,756.35	70.0421	4,756.35	70.0745	4,756.35	70.5539	4,756.35	68.2038	4,756.35	69.2612	4,756.35	73.078	4,756.35	72.1985	4,756.35	71.8778	4,756.35	72.5358	4,756.35	70.2588	4,756.35	68.3805	4,756.35	64.555
4,924.8	88.3376	4,924.8	86.421	4,924.8	86.8859	4,924.8	83.5048	4,924.8	83.729	4,924.8	83.8482	4,924.8	85.4793	4,924.8	86.5668	4,924.8	86.8606	4,924.8	86.6075	4,924.8	86.232	4,924.8	84.2938	4,924.8	84.052	4,924.8	80.513	4,924.8	80.2219	4,924.8	76.546	4,924.8	76.7027	4,924.8	75.4461	4,924.8	74.8542	4,924.8	72.6812	4,924.8	72.2624	4,924.8	69.3213	4,924.8	68.8448	4,924.8	64.5294	4,924.8	69.5858	4,924.8	68.5843	4,924.8	67.5806	4,924.8	66.4461	4,924.8	70.5511	4,924.8	71.7781	4,924.8	72.3214	4,924.8	71.5266	4,924.8	70.5609	4,924.8	70.3381	4,924.8	70.1255	4,924.8	66.2797
5,097.66	88.2333	5,097.66	86.5339	5,097.66	86.5024	5,097.66	84.6257	5,097.66	83.7673	5,097.66	84.7699	5,097.66	85.207	5,097.66	86.2446	5,097.66	86.3043	5,097.66	84.6424	5,097.66	85.4629	5,097.66	81.3804	5,097.66	82.3507	5,097.66	75.0652	5,097.66	78.8718	5,097.66	73.9105	5,097.66	75.9507	5,097.66	70.2764	5,097.66	72.7838	5,097.66	71.9706	5,097.66	71.7732	5,097.66	68.0904	5,097.66	66.678	5,097.66	63.9747	5,097.66	63.8531	5,097.66	64.1495	5,097.66	64.7877	5,097.66	66.0431	5,097.66	66.5262	5,097.66	67.776	5,097.66	71.92	5,097.66	66.8609	5,097.66	70.5997	5,097.66	69.9179	5,097.66	69.5522	5,097.66	61.6611
5,277.83	88.0575	5,277.83	86.8381	5,277.83	85.8594	5,277.83	83.3502	5,277.83	84.7268	5,277.83	85.3958	5,277.83	84.9846	5,277.83	85.7004	5,277.83	86.6206	5,277.83	84.3831	5,277.83	85.2689	5,277.83	80.8795	5,277.83	81.578	5,277.83	78.1217	5,277.83	78.1884	5,277.83	76.5394	5,277.83	76.3281	5,277.83	74.8244	5,277.83	72.8037	5,277.83	70.6838	5,277.83	71.1335	5,277.83	69.9581	5,277.83	70.0264	5,277.83	68.3137	5,277.83	65.9933	5,277.83	65.0804	5,277.83	63.8221	5,277.83	66.018	5,277.83	65.6313	5,277.83	69.6674	5,277.83	71.4729	5,277.83	70.3861	5,277.83	71.2779	5,277.83	70.9324	5,277.83	70.1348	5,277.83	62.7634
5,463.87	89.0502	5,463.87	87.63	5,463.87	87.808	5,463.87	85.2243	5,463.87	85.0995	5,463.87	85.161	5,463.87	86.2419	5,463.87	85.3022	5,463.87	85.6044	5,463.87	83.0054	5,463.87	83.3932	5,463.87	80.3481	5,463.87	80.2353	5,463.87	78.2006	5,463.87	79.1518	5,463.87	75.4909	5,463.87	72.7012	5,463.87	73.7294	5,463.87	72.285	5,463.87	66.9462	5,463.87	70.3111	5,463.87	67.3557	5,463.87	70.0386	5,463.87	64.7309	5,463.87	64.3771	5,463.87	64.0605	5,463.87	68.6046	5,463.87	54.3	5,463.87	65.7366	5,463.87	66.5324	5,463.87	69.1929	5,463.87	68.4049	5,463.87	66.2189	5,463.87	67.505	5,463.87	69.4795	5,463.87	59.7687
5,657.23	88.7954	5,657.23	87.2367	5,657.23	87.0013	5,657.23	85.9005	5,657.23	86.4267	5,657.23	86.5001	5,657.23	86.0555	5,657.23	85.6731	5,657.23	85.4181	5,657.23	82.0483	5,657.23	82.0958	5,657.23	78.3544	5,657.23	79.2024	5,657.23	76.1422	5,657.23	76.9507	5,657.23	76.5114	5,657.23	76.5114	5,657.23	73.2414	5,657.23	75.2417	5,657.23	74.2723	5,657.23	72.7826	5,657.23	69.2196	5,657.23	70.2241	5,657.23	69.7157	5,657.23	69.8434	5,657.23	66.5294	5,657.23	67.7053	5,657.23	66.2941	5,657.23	64.5643	5,657.23	67.6778	5,657.23	70.4314	5,657.23	67.0311	5,657.23	69.9669	5,657.23	69.9749	5,657.23	68.8233	5,657.23	60.0704
5,856.45	87.6101	5,856.45	85.8557	5,856.45	86.4684	5,856.45	85.5807	5,856.45	85.7689	5,856.45	85.5791	5,856.45	85.8212	5,856.45	84.4088	5,856.45	84.7888	5,856.45	81.178	5,856.45	81.1402	5,856.45	80.1067	5,856.45	80.101	5,856.45	81.5749	5,856.45	80.8618	5,856.45	78.2348	5,856.45	79.0086	5,856.45	76.3139	5,856.45	76.3351	5,856.45	73.846	5,856.45	73.6915	5,856.45	71.8179	5,856.45	73.1293	5,856.45	71.656	5,856.45	70.0023	5,856.45	70.5454	5,856.45	70.7429	5,856.45	59.7545	5,856.45	63.9739	5,856.45	66.2341	5,856.45	70.3327	5,856.45	69.0508	5,856.45	71.4568	5,856.45	70.5756	5,856.45	70.8027	5,856.45	58.0022
6,062.99	86.4853	6,062.99	86.4236	6,062.99	86.573	6,062.99	86.552	6,062.99	85.6313	6,062.99	84.235	6,062.99	84.8419	6,062.99	82.5733	6,062.99	81.721	6,062.99	82.0716	6,062.99	80.512	6,062.99	83.3518	6,062.99	82.4528	6,062.99	83.0096	6,062.99	80.9318	6,062.99	79.3967	6,062.99	78.7418	6,062.99	77.1184	6,062.99	76.8063	6,062.99	73.4595	6,062.99	73.8024	6,062.99	71.5501	6,062.99	71.5207	6,062.99	71.2329	6,062.99	72.7738	6,062.99	73.1898	6,062.99	67.3071	6,062.99	69.986	6,062.99	64.8029	6,062.99	68.0145	6,062.99	67.1573	6,062.99	69.4548	6,062.99	70.6099	6,062.99	70.7789	6,062.99	69.7201	6,062.99	62.3408
6,276.86	86.3738	6,276.86	87.1352	6,276.86	86.585	6,276.86	87.0321	6,276.86	86.9064	6,276.86	83.4648	6,276.86	82.6449	6,276.86	81.223	6,276.86	82.1462	6,276.86	82.6809	6,276.86	84.6052	6,276.86	83.3916	6,276.86	83.6589	6,276.86	80.2235	6,276.86	81.4562	6,276.86	78.6076	6,276.86	79.4801	6,276.86	75.3817	6,276.86	76.1424	6,276.86	71.9838	6,276.86	72.2723	6,276.86	70.8304	6,276.86	70.4562	6,276.86	71.221	6,276.86	70.4464	6,276.86	69.5746	6,276.86	70.5628	6,276.86	69.1862	6,276.86	65.6826	6,276.86	69.1876	6,276.86	69.6942	6,276.86	70.4564	6,276.86	70.8458	6,276.86	70.7226	6,276.86	69.3009	6,276.86	59.1544
6,498.05	85.0768	6,498.05	86.5446	6,498.05	87.4116	6,498.05	86.8968	6,498.05	86.4946	6,498.05	83.0782	6,498.05	83.0889	6,498.05	80.2091	6,498.05	80.7177	6,498.05	83.0351	6,498.05	83.05	6,498.05	82.041	6,498.05	83.2738	6,498.05	79.3339	6,498.05	80.9893	6,498.05	76.072	6,498.05	76.9491	6,498.05	71.3828	6,498.05	72.5852	6,498.05	69.9037	6,498.05	70.8739	6,498.05	66.9437	6,498.05	67.2714	6,498.05	65.3299	6,498.05	65.3862	6,498.05	62.2215	6,498.05	65.6198	6,498.05	61.9717	6,498.05	62.2494	6,498.05	65.6295	6,498.05	65.483	6,498.05	67.3046	6,498.05	68.9932	6,498.05	66.7448	6,498.05	66.9116	6,498.05	52.0919
6,726.56	85.3357	6,726.56	86.5592	6,726.56	86.4404	6,726.56	86.5858	6,726.56	86.7155	6,726.56	82.8325	6,726.56	81.8125	6,726.56	81.6453	6,726.56	82.9206	6,726.56	81.6229	6,726.56	83.3177	6,726.56	81.3391	6,726.56	81.1621	6,726.56	77.7496	6,726.56	76.9424	6,726.56	73.8315	6,726.56	73.9358	6,726.56	70.2378	6,726.56	70.779	6,726.56	66.4158	6,726.56	68.7797	6,726.56	61.2968	6,726.56	63.3355	6,726.56	62.5947	6,726.56	59.1168	6,726.56	63.6354	6,726.56	64.5923	6,726.56	61.2439	6,726.56	63.4073	6,726.56	62.6045	6,726.56	65.5946	6,726.56	67.4779	6,726.56	66.3394	6,726.56	66.9116	6,726.56	64.4773	6,726.56	53.0515
6,963.87	84.4151	6,963.87	86.5396	6,963.87	86.8159	6,963.87	86.1551	6,963.87	86.0485	6,963.87	83.2862	6,963.87	83.2617	6,963.87	83.1851	6,963.87	82.7103	6,963.87	82.9229	6,963.87	83.4962	6,963.87	80.3431	6,963.87	80.7876	6,963.87	75.2858	6,963.87	77.306	6,963.87	69.1102	6,963.87	70.8965	6,963.87	67.7474	6,963.87	69.7019	6,963.87	65.5878	6,963.87	66.4353	6,963.87	62.2197	6,963.87	63.9451	6,963.87	51.5122	6,963.87	60.3522	6,963.87	54.1694	6,963.87	66.7274	6,963.87	56.1882	6,963.87	62.2458	6,963.87	61.2491	6,963.87	66.5838	6,963.87	67.1665	6,963.87	67.5061	6,963.87	62.7745	6,963.87	64.6872	6,963.87	37.6513
7,209.96	85.2193	7,209.96	86.5846	7,209.96	86.6203	7,209.96	86.1595	7,209.96	85.8216	7,209.96	83.1261	7,209.96	83.1813	7,209.96	83.5532	7,209.96	83.9805	7,209.96	83.1012	7,209.96	82.3889	7,209.96	77.707	7,209.96	78.749	7,209.96	73.1873	7,209.96	72.9677	7,209.96	72.3953	7,209.96	72.1263	7,209.96	70.3553	7,209.96	68.9309	7,209.96	66.9639	7,209.96	66.7795	7,209.96	66.9874	7,209.96	61.5097	7,209.96	61.047	7,209.96	61.8803	7,209.96	59.7356	7,209.96	54.1991	7,209.96	51.8576	7,209.96	61.7713	7,209.96	56.1631	7,209.96	61.7412	7,209.96	65.9374	7,209.96	63.5603	7,209.96	62.2078	7,209.96	64.8222	7,209.96	46.9694
7,464.84	85.2803	7,464.84	86.7082	7,464.84	86.9578	7,464.84	85.8287	7,464.84	85.6476	7,464.84	83.3327	7,464.84	83.3038	7,464.84	83.7177	7,464.84	83.7944	7,464.84	81.8856	7,464.84	82.4451	7,464.84	78.2805	7,464.84	77.4912	7,464.84	75.0235	7,464.84	74.8075	7,464.84	73.3679	7,464.84	73.0455	7,464.84	70.066	7,464.84	70.6198	7,464.84	68.7639	7,464.84	69.4882	7,464.84	66.4909	7,464.84	66.5289	7,464.84	64.6955	7,464.84	64.0092	7,464.84	60.2421	7,464.84	59.3728	7,464.84	57.5567	7,464.84	54.1692	7,464.84	55.4785	7,464.84	57.9808	7,464.84	64.0204	7,464.84	63.1856	7,464.84	65.8436	7,464.84	61.563	7,464.84	47.3163
7,727.05	85.4491	7,727.05	86.5847	7,727.05	87.0189	7,727.05	85.6868	7,727.05	85.5565	7,727.05	84.0974	7,727.05	84.093	7,727.05	83.9817	7,727.05	84.1816	7,727.05	81.3294	7,727.05	81.419	7,727.05	77.6045	7,727.05	78.1439	7,727.05	76.5857	7,727.05	76.2364	7,727.05	75.8323	7,727.05	75.5996	7,727.05	71.9611	7,727.05	72.0798	7,727.05	69.8701	7,727.05	69.7709	7,727.05	68.2989	7,727.05	67.3652	7,727.05	66.9404	7,727.05	63.8048	7,727.05	63.5441	7,727.05	50.0885	7,727.05	58.1603	7,727.05	56.3664	7,727.05	58.7167	7,727.05	59.1933	7,727.05	63.9794	7,727.05	64.1116	7,727.05	65.899	7,727.05	63.2955	7,727.05	36.9665
7,999.51	86.1631	7,999.51	86.3687	7,999.51	86.6311	7,999.51	85.4693	7,999.51	85.3848	7,999.51	84.9376	7,999.51	84.6732	7,999.51	83.0426	7,999.51	83.7037	7,999.51	79.1582	7,999.51	80.6266	7,999.51	79.1662	7,999.51	79.3998	7,999.51	78.2626	7,999.51	78.1932	7,999.51	75.5571	7,999.51	75.6127	7,999.51	72.15	7,999.51	72.1748	7,999.51	68.9943	7,999.51	69.8789	7,999.51	65.7836	7,999.51	67.4554	7,999.51	66.1324	7,999.51	65.1455	7,999.51	63.2678	7,999.51	60.3034	7,999.51	57.858	7,999.51	58.6703	7,999.51	59.2676	7,999.51	59.8799	7,999.51	65.0549	7,999.51	63.5264	7,999.51	64.1503	7,999.51	63.5737	7,999.51	54.391
8,282.23	86.124	8,282.23	85.7965	8,282.23	85.6131	8,282.23	85.5118	8,282.23	86.0173	8,282.23	85.1957	8,282.23	85.24	8,282.23	81.8906	8,282.23	82.3529	8,282.23	79.6546	8,282.23	80.1728	8,282.23	79.693	8,282.23	79.8891	8,282.23	77.5729	8,282.23	77.5651	8,282.23	73.5079	8,282.23	74.5997	8,282.23	68.7087	8,282.23	70.0467	8,282.23	65.9674	8,282.23	67.408	8,282.23	64.9272	8,282.23	65.1498	8,282.23	63.9941	8,282.23	62.8487	8,282.23	60.9202	8,282.23	58.7571	8,282.23	54.0742	8,282.23	52.1739	8,282.23	57.7802	8,282.23	57.6681	8,282.23	62.5256	8,282.23	63.1835	8,282.23	59.4249	8,282.23	58.1775	8,282.23	52.1718
8,573.73	86.015	8,573.73	85.099	8,573.73	85.0999	8,573.73	84.9781	8,573.73	85.3394	8,573.73	84.7477	8,573.73	84.7976	8,573.73	80.9269	8,573.73	81.7843	8,573.73	79.7515	8,573.73	80.6233	8,573.73	78.8114	8,573.73	79.4277	8,573.73	75.3777	8,573.73	76.1883	8,573.73	69.4232	8,573.73	72.3345	8,573.73	64.0891	8,573.73	67.0668	8,573.73	62.3739	8,573.73	65.6494	8,573.73	60.7932	8,573.73	63.4603	8,573.73	55.3175	8,573.73	59.4838	8,573.73	58.3535	8,573.73	57.1257	8,573.73	50.992	8,573.73	29.6667	8,573.73	51.1348	8,573.73	55.4689	8,573.73	61.2802	8,573.73	63.4447	8,573.73	56.3563	8,573.73	58.458	8,573.73	55.3214
8,876.95	86.264	8,876.95	84.4811	8,876.95	85.0613	8,876.95	85.3119	8,876.95	85.309	8,876.95	84.4158	8,876.95	84.725	8,876.95	81.5751	8,876.95	81.1135	8,876.95	80.3156	8,876.95	80.1064	8,876.95	77.963	8,876.95	78.5973	8,876.95	72.7086	8,876.95	75.0114	8,876.95	68.4045	8,876.95	68.9039	8,876.95	65.6314	8,876.95	66.2395	8,876.95	63.1102	8,876.95	62.8716	8,876.95	62.9136	8,876.95	60.6054	8,876.95	58.484	8,876.95	59.6952	8,876.95	54.8031	8,876.95	60.0296	8,876.95	55.4025	8,876.95	45.5327	8,876.95	45.8942	8,876.95	51.1286	8,876.95	59.6758	8,876.95	61.3934	8,876.95	56.1316	8,876.95	53.6146	8,876.95	53.5103
9,188.96	86.0233	9,188.96	84.3895	9,188.96	84.7151	9,188.96	85.6407	9,188.96	85.6788	9,188.96	84.0946	9,188.96	84.0925	9,188.96	81.9787	9,188.96	80.6992	9,188.96	80.5688	9,188.96	79.9842	9,188.96	77.4298	9,188.96	77.5763	9,188.96	72.0801	9,188.96	73.2089	9,188.96	67.8285	9,188.96	66.1128	9,188.96	65.504	9,188.96	63.7441	9,188.96	62.5425	9,188.96	59.893	9,188.96	60.9717	9,188.96	57.4502	9,188.96	62.7666	9,188.96	57.9383	9,188.96	58.2009	9,188.96	54.0674	9,188.96	57.8887	9,188.96	51.2233	9,188.96	53.6787	9,188.96	42.4786	9,188.96	57.0857	9,188.96	58.5698	9,188.96	55.7701	9,188.96	55.4476	9,188.96	49.0395
9,514.16	85.9341	9,514.16	84.1607	9,514.16	84.2277	9,514.16	85.2354	9,514.16	85.5365	9,514.16	83.9814	9,514.16	83.0405	9,514.16	81.4295	9,514.16	80.9961	9,514.16	80.3949	9,514.16	79.9372	9,514.16	76.4636	9,514.16	75.8662	9,514.16	72.9388	9,514.16	70.3543	9,514.16	69.481	9,514.16	66.7147	9,514.16	66.6472	9,514.16	64.3004	9,514.16	62.4522	9,514.16	60.5473	9,514.16	58.4648	9,514.16	59.9599	9,514.16	61.9068	9,514.16	59.1149	9,514.16	59.8171	9,514.16	58.2914	9,514.16	59.2842	9,514.16	55.0338	9,514.16	53.7183	9,514.16	51.6999	9,514.16	56.6017	9,514.16	57.5164	9,514.16	56.1002	9,514.16	54.7312	9,514.16	42.3591
9,849.61	85.9669	9,849.61	83.9501	9,849.61	83.9025	9,849.61	85.1347	9,849.61	85.1876	9,849.61	83.346	9,849.61	81.8957	9,849.61	81.6868	9,849.61	81.2969	9,849.61	79.495	9,849.61	79.3628	9,849.61	76.4632	9,849.61	74.3013	9,849.61	73.5582	9,849.61	70.5391	9,849.61	69.6121	9,849.61	67.3573	9,849.61	66.4756	9,849.61	65.4579	9,849.61	64.9663	9,849.61	61.6106	9,849.61	61.9267	9,849.61	60.9025	9,849.61	62.575	9,849.61	62.237	9,849.61	57.2717	9,849.61	59.9338	9,849.61	59.2045	9,849.61	56.1744	9,849.61	56.819	9,849.61	49.8392	9,849.61	59.5439	9,849.61	58.3707	9,849.61	54.756	9,849.61	56.674	9,849.61	44.9657
10,196.8	85.7037	10,196.8	83.8453	10,196.8	84.2671	10,196.8	84.6688	10,196.8	84.4709	10,196.8	82.401	10,196.8	81.9865	10,196.8	81.5581	10,196.8	80.6088	10,196.8	78.6692	10,196.8	77.6875	10,196.8	75.7263	10,196.8	74.4485	10,196.8	73.1046	10,196.8	71.7028	10,196.8	69.902	10,196.8	68.0584	10,196.8	66.1001	10,196.8	65.8285	10,196.8	63.0788	10,196.8	62.7375	10,196.8	59.3113	10,196.8	58.908	10,196.8	58.9571	10,196.8	61.1419	10,196.8	53.8707	10,196.8	54.9132	10,196.8	53.7762	10,196.8	55.5713	10,196.8	52.7455	10,196.8	52.4072	10,196.8	58.2796	10,196.8	58.0489	10,196.8	54.5336	10,196.8	52.5222	10,196.8	47.9878
10,555.7	85.0511	10,555.7	84.2573	10,555.7	84.35	10,555.7	84.185	10,555.7	83.9946	10,555.7	82.401	10,555.7	82.1387	10,555.7	81.1576	10,555.7	79.7246	10,555.7	78.5287	10,555.7	76.6869	10,555.7	76.1793	10,555.7	74.4126	10,555.7	72.6623	10,555.7	71.0874	10,555.7	68.5993	10,555.7	67.5129	10,555.7	64.8774	10,555.7	63.5507	10,555.7	62.5537	10,555.7	62.7692	10,555.7	59.74	10,555.7	58.4086	10,555.7	56.862	10,555.7	60.0325	10,555.7	54.0204	10,555.7	53.5661	10,555.7	54.4558	10,555.7	55.8985	10,555.7	54.3317	10,555.7	54.3285	10,555.7	58.9221	10,555.7	57.3676	10,555.7	55.6075	10,555.7	52.6032	10,555.7	45.6548
10,927.7	84.4815	10,927.7	84.5767	10,927.7	84.4871	10,927.7	83.1746	10,927.7	83.0635	10,927.7	82.2373	10,927.7	82.1264	10,927.7	79.95	10,927.7	78.3779	10,927.7	78.8021	10,927.7	76.5703	10,927.7	75.659	10,927.7	74.5045	10,927.7	71.847	10,927.7	70.8062	10,927.7	67.398	10,927.7	65.8515	10,927.7	63.6748	10,927.7	62.1334	10,927.7	61.8317	10,927.7	61.3013	10,927.7	60.2518	10,927.7	58.2813	10,927.7	55.0104	10,927.7	56.3787	10,927.7	54.5977	10,927.7	53.3687	10,927.7	56.1124	10,927.7	54.0402	10,927.7	52.7137	10,927.7	52.8391	10,927.7	57.1684	10,927.7	56.9122	10,927.7	55.005	10,927.7	50.9262	10,927.7	49.095
11,313	84.0925	11,313	84.5938	11,313	84.6529	11,313	82.0711	11,313	82.1314	11,313	82.2071	11,313	82.6279	11,313	78.5238	11,313	76.8403	11,313	78.5042	11,313	77.0286	11,313	75.0356	11,313	73.5851	11,313	70.332	11,313	67.9881	11,313	67.4907	11,313	64.3205	11,313	62.3418	11,313	61.602	11,313	61.7912	11,313	60.2275	11,313	56.7347	11,313	58.0628	11,313	56.6202	11,313	54.8157	11,313	57.7499	11,313	52.2888	11,313	54.1756	11,313	53.7858	11,313	50.5969	11,313	49.0971	11,313	55.4727	11,313	57.9253	11,313	50.4481	11,313	48.8293	11,313	45.9366
11,712.9	83.5708	11,712.9	84.8714	11,712.9	84.412	11,712.9	81.2524	11,712.9	81.5497	11,712.9	81.8275	11,712.9	82.228	11,712.9	76.381	11,712.9	76.5605	11,712.9	78.0945	11,712.9	77.0269	11,712.9	74.2894	11,712.9	72.6359	11,712.9	69.6471	11,712.9	69.0764	11,712.9	67.1266	11,712.9	65.7752	11,712.9	64.9345	11,712.9	63.482	11,712.9	60.0613	11,712.9	59.5901	11,712.9	56.4987	11,712.9	56.9142	11,712.9	57.6854	11,712.9	56.0228	11,712.9	58.5748	11,712.9	50.8699	11,712.9	55.2746	11,712.9	54.1984	11,712.9	51.5452	11,712.9	46.5619	11,712.9	56.866	11,712.9	58.3907	11,712.9	51.2448	11,712.9	46.1212	11,712.9	47.3519
12,126	83.328	12,126	84.5256	12,126	84.0174	12,126	80.68	12,126	80.4065	12,126	81.1159	12,126	81.0187	12,126	76.5278	12,126	77.0315	12,126	77.2414	12,126	76.0176	12,126	74.6616	12,126	73.4407	12,126	71.3397	12,126	70.9268	12,126	66.9679	12,126	66.2499	12,126	66.2265	12,126	64.1555	12,126	57.8688	12,126	57.4626	12,126	56.8024	12,126	57.6481	12,126	57.626	12,126	58.7505	12,126	58.7404	12,126	54.6178	12,126	57.5177	12,126	53.6663	12,126	53.8076	12,126	50.7637	12,126	57.7756	12,126	58.2624	12,126	53.0167	12,126	38.8986	12,126	49.7195
12,553.7	83.629	12,553.7	84.0196	12,553.7	83.5551	12,553.7	81.0952	12,553.7	80.3933	12,553.7	80.4979	12,553.7	79.8887	12,553.7	78.2189	12,553.7	78.3367	12,553.7	75.6362	12,553.7	74.8775	12,553.7	76.4325	12,553.7	75.0018	12,553.7	72.0056	12,553.7	71.017	12,553.7	68.1004	12,553.7	66.2494	12,553.7	66.4412	12,553.7	64.5436	12,553.7	57.6563	12,553.7	54.9265	12,553.7	57.9708	12,553.7	55.9637	12,553.7	60.2589	12,553.7	60.1076	12,553.7	61.0416	12,553.7	57.8733	12,553.7	54.2807	12,553.7	52.3231	12,553.7	50.3505	12,553.7	49.4399	12,553.7	55.6072	12,553.7	53.6338	12,553.7	47.0439	12,553.7	35.6616	12,553.7	46.1238
12,996.1	85.0162	12,996.1	84.1909	12,996.1	83.3612	12,996.1	82.8841	12,996.1	82.0665	12,996.1	79.7452	12,996.1	77.7312	12,996.1	79.0261	12,996.1	78.7434	12,996.1	74.6132	12,996.1	74.9488	12,996.1	76.3891	12,996.1	75.259	12,996.1	72.7084	12,996.1	70.584	12,996.1	67.9805	12,996.1	68.0527	12,996.1	65.6672	12,996.1	63.7217	12,996.1	57.741	12,996.1	55.1476	12,996.1	61.1283	12,996.1	59.0378	12,996.1	60.6209	12,996.1	59.6778	12,996.1	59.2472	12,996.1	57.2329	12,996.1	54.6575	12,996.1	54.2705	12,996.1	43.6068	12,996.1	52.5897	12,996.1	52.7	12,996.1	51.1673	12,996.1	47.5143	12,996.1	42.0186	12,996.1	47.4393
13,454.6	85.8655	13,454.6	84.6272	13,454.6	84.3803	13,454.6	83.1496	13,454.6	82.7723	13,454.6	80.22	13,454.6	79.0179	13,454.6	79.0043	13,454.6	77.7791	13,454.6	75.0526	13,454.6	74.9655	13,454.6	75.3674	13,454.6	73.577	13,454.6	71.7785	13,454.6	70.1641	13,454.6	65.7769	13,454.6	67.5373	13,454.6	62.7989	13,454.6	60.6996	13,454.6	56.6745	13,454.6	59.2647	13,454.6	60.7148	13,454.6	60.3951	13,454.6	57.9736	13,454.6	58.972	13,454.6	55.975	13,454.6	54.1816	13,454.6	53.5315	13,454.6	53.9447	13,454.6	45.6362	13,454.6	53.5978	13,454.6	50.1374	13,454.6	50.6081	13,454.6	52.7334	13,454.6	45.5501	13,454.6	46.1801
13,929.2	86.0819	13,929.2	84.9785	13,929.2	84.8224	13,929.2	83.2723	13,929.2	82.8906	13,929.2	80.7079	13,929.2	79.2398	13,929.2	78.0872	13,929.2	76.664	13,929.2	75.3977	13,929.2	74.7597	13,929.2	73.524	13,929.2	71.6692	13,929.2	70.3691	13,929.2	68.9696	13,929.2	65.2702	13,929.2	65.4168	13,929.2	57.0391	13,929.2	57.2685	13,929.2	58.8037	13,929.2	59.8597	13,929.2	59.9357	13,929.2	58.1082	13,929.2	55.907	13,929.2	55.0341	13,929.2	54.088	13,929.2	51.3019	13,929.2	53.3193	13,929.2	51.9559	13,929.2	44.7344	13,929.2	52.3741	13,929.2	49.8841	13,929.2	51.0716	13,929.2	54.003	13,929.2	46.6089	13,929.2	43.8828
14,419.9	86.0541	14,419.9	85.015	14,419.9	84.7664	14,419.9	83.6532	14,419.9	82.9536	14,419.9	80.6576	14,419.9	79.5526	14,419.9	77.0659	14,419.9	75.5176	14,419.9	75.2917	14,419.9	73.9061	14,419.9	71.3684	14,419.9	71.3684	14,419.9	69.2061	14,419.9	67.8036	14,419.9	64.3868	14,419.9	64.839	14,419.9	55.0079	14,419.9	55.3477	14,419.9	60.3818	14,419.9	59.7595	14,419.9	57.4351	14,419.9	56.0846	14,419.9	50.9482	14,419.9	50.5048	14,419.9	51.2434	14,419.9	44.0022	14,419.9	52.3555	14,419.9	49.7081	14,419.9	40.9893	14,419.9	51.5027	14,419.9	46.3099	14,419.9	48.865	14,419.9	55.0634	14,419.9	50.1754	14,419.9	42.4629
14,928.2	85.3386	14,928.2	84.7938	14,928.2	84.8087	14,928.2	82.8421	14,928.2	82.216	14,928.2	80.5689	14,928.2	79.7182	14,928.2	75.9687	14,928.2	75.0909	14,928.2	73.7323	14,928.2	72.2331	14,928.2	71.007	14,928.2	71.2715	14,928.2	67.4695	14,928.2	65.0413	14,928.2	65.1355	14,928.2	61.5148	14,928.2	58.8885	14,928.2	58.9488	14,928.2	61.0161	14,928.2	58.5648	14,928.2	55.3614	14,928.2	53.0458	14,928.2	45.7633	14,928.2	39.3499	14,928.2	40.3448	14,928.2	50.5307	14,928.2	52.1472	14,928.2	49.2299	14,928.2	32.4738	14,928.2	50.6839	14,928.2	43.0311	14,928.2	45.419	14,928.2	53.6924	14,928.2	49.1784	14,928.2	38.7484
15,455.6	84.5795	15,455.6	84.4517	15,455.6	84.4781	15,455.6	83.0368	15,455.6	82.3378	15,455.6	80.2631	15,455.6	79.684	15,455.6	76.5454	15,455.6	76.2285	15,455.6	72.7544	15,455.6	71.641	15,455.6	71.1486	15,455.6	70.5726	15,455.6	68.5522	15,455.6	65.4595	15,455.6	63.7293	15,455.6	60.5737	15,455.6	60.7533	15,455.6	58.7771	15,455.6	58.3016	15,455.6	57.1439	15,455.6	54.3002	15,455.6	49.0744	15,455.6	47.2461	15,455.6	43.0487	15,455.6	38.5386	15,455.6	54.643	15,455.6	49.5498	15,455.6	45.5597	15,455.6	24.9443	15,455.6	46.8939	15,455.6	40.681	15,455.6	41.7578	15,455.6	49.7355	15,455.6	50.4341	15,455.6	39.5403
16,000.5	85.1256	16,000.5	85.0665	16,000.5	84.8912	16,000.5	83.5153	16,000.5	82.7928	16,000.5	80.4795	16,000.5	80.0857	16,000.5	76.3864	16,000.5	76.436	16,000.5	72.0724	16,000.5	71.3141	16,000.5	69.6261	16,000.5	68.1421	16,000.5	67.2082	16,000.5	65.6436	16,000.5	60.4389	16,000.5	59.5837	16,000.5	58.3691	16,000.5	56.4493	16,000.5	54.4206	16,000.5	52.8758	16,000.5	51.2471	16,000.5	49.791	16,000.5	48.8504	16,000.5	44.6471	16,000.5	38.1841	16,000.5	52.9763	16,000.5	47.0172	16,000.5	40.2345	16,000.5	33.0536	16,000.5	42.8001	16,000.5	45.4369	16,000.5	45.166	16,000.5	43.5946	16,000.5	49.6147	16,000.5	37.8441
16,564.5	85.6641	16,564.5	85.3671	16,564.5	85.301	16,564.5	83.441	16,564.5	82.9583	16,564.5	80.0926	16,564.5	80.1062	16,564.5	74.9174	16,564.5	75.945	16,564.5	70.0124	16,564.5	71.4424	16,564.5	65.5247	16,564.5	67.2154	16,564.5	64.0872	16,564.5	64.5913	16,564.5	59.9673	16,564.5	57.1499	16,564.5	53.2962	16,564.5	52.6666	16,564.5	55.2048	16,564.5	50.8742	16,564.5	53.2635	16,564.5	48.9679	16,564.5	47.4965	16,564.5	39.2846	16,564.5	33.714	16,564.5	53.6759	16,564.5	44.1097	16,564.5	30.7674	16,564.5	25.7537	16,564.5	35.6627	16,564.5	43.3838	16,564.5	47.2832	16,564.5	40.4576	16,564.5	45.9404	16,564.5	39.4238
17,148.9	85.5733	17,148.9	85.0043	17,148.9	85.0246	17,148.9	82.5616	17,148.9	82.676	17,148.9	78.7225	17,148.9	79.301	17,148.9	71.9565	17,148.9	74.159	17,148.9	67.2974	17,148.9	69.4868	17,148.9	63.8992	17,148.9	65.4915	17,148.9	65.0565	17,148.9	60.1874	17,148.9	61.6737	17,148.9	55.9833	17,148.9	57.3954	17,148.9	53.2573	17,148.9	56.3766	17,148.9	50.3085	17,148.9	51.4685	17,148.9	46.471	17,148.9	44.3345	17,148.9	33.5484	17,148.9	39.2307	17,148.9	50.6931	17,148.9	43.4813	17,148.9	30.9217	17,148.9	36.4858	17,148.9	41.0198	17,148.9	48.3151	17,148.9	50.3305	17,148.9	47.7358	17,148.9	44.2033	17,148.9	40.7884
17,752.4	84.8688	17,752.4	84.0947	17,752.4	84.203	17,752.4	81.0331	17,752.4	81.5039	17,752.4	76.5396	17,752.4	77.7577	17,752.4	69.2985	17,752.4	72.3893	17,752.4	65.5449	17,752.4	66.4119	17,752.4	65.8972	17,752.4	64.1055	17,752.4	64.467	17,752.4	60.3571	17,752.4	60.6695	17,752.4	55.3108	17,752.4	55.6686	17,752.4	53.7905	17,752.4	54.354	17,752.4	50.5992	17,752.4	47.8206	17,752.4	43.5619	17,752.4	36.2404	17,752.4	35.9925	17,752.4	43.4613	17,752.4	47.4908	17,752.4	41.7523	17,752.4	35.1909	17,752.4	43.8047	17,752.4	40.1626	17,752.4	49.1792	17,752.4	50.0125	17,752.4	44.535	17,752.4	42.6799	17,752.4	42.3727
18,379.4	84.0396	18,379.4	82.8507	18,379.4	83.2206	18,379.4	79.5531	18,379.4	80.5099	18,379.4	74.4675	18,379.4	76.4676	18,379.4	67.9073	18,379.4	70.0293	18,379.4	63.0468	18,379.4	63.3225	18,379.4	63.6377	18,379.4	59.7223	18,379.4	60.3112	18,379.4	59.9608	18,379.4	55.903	18,379.4	52.3695	18,379.4	54.0218	18,379.4	50.5956	18,379.4	50.6937	18,379.4	43.7184	18,379.4	40.9841	18,379.4	39.0075	18,379.4	36.6933	18,379.4	40.9482	18,379.4	35.7561	18,379.4	44.5236	18,379.4	40.0648	18,379.4	20.8867	18,379.4	44.0121	18,379.4	40.7406	18,379.4	44.1617	18,379.4	46.7202	18,379.4	42.3456	18,379.4	37.0738	18,379.4	38.2601
19,026.9	83.3458	19,026.9	82.0859	19,026.9	82.5616	19,026.9	78.4921	19,026.9	79.5348	19,026.9	72.4713	19,026.9	74.7894	19,026.9	65.517	19,026.9	66.2141	19,026.9	61.5475	19,026.9	60.0491	19,026.9	62.5174	19,026.9	59.4111	19,026.9	60.5431	19,026.9	58.8791	19,026.9	56.327	19,026.9	55.805	19,026.9	52.3071	19,026.9	49.5139	19,026.9	48.2179	19,026.9	47.1474	19,026.9	42.5643	19,026.9	45.789	19,026.9	38.3864	19,026.9	45.9508	19,026.9	38.5402	19,026.9	48.2048	19,026.9	36.872	19,026.9	31.1326	19,026.9	39.433	19,026.9	39.4083	19,026.9	41.6583	19,026.9	38.8393	19,026.9	31.1153	19,026.9	26.3092	19,026.9	39.2218
19,697.8	82.207	19,697.8	80.75	19,697.8	81.5165	19,697.8	77.1892	19,697.8	78.4909	19,697.8	70.3172	19,697.8	72.6215	19,697.8	66.185	19,697.8	64.4772	19,697.8	64.0133	19,697.8	60.4249	19,697.8	64.0817	19,697.8	63.3316	19,697.8	61.1732	19,697.8	60.0209	19,697.8	54.6258	19,697.8	55.8368	19,697.8	49.9379	19,697.8	51.9208	19,697.8	48.4323	19,697.8	47.6882	19,697.8	37.8314	19,697.8	45.637	19,697.8	38.5055	19,697.8	42.7214	19,697.8	30.5171	19,697.8	45.5089	19,697.8	23.9566	19,697.8	34.5618	19,697.8	37.6556	19,697.8	33.6238	19,697.8	29.9357	19,697.8	34.913	19,697.8	40.768	19,697.8	36.5664	19,697.8	39.8204
19,999.5	81.7384	19,999.5	80.3752	19,999.5	81.1821	19,999.5	76.4658	19,999.5	78.3028	19,999.5	68.3693	19,999.5	71.9133	19,999.5	66.1488	19,999.5	63.811	19,999.5	63.8408	19,999.5	62.5237	19,999.5	63.8904	19,999.5	65.232	19,999.5	61.0903	19,999.5	60.4404	19,999.5	51.1617	19,999.5	56.5354	19,999.5	48.0391	19,999.5	54.3058	19,999.5	41.3005	19,999.5	44.7352	19,999.5	46.6749	19,999.5	42.3323	19,999.5	44.1231	19,999.5	43.4886	19,999.5	34.5759	19,999.5	47.118	19,999.5	43.9809	19,999.5	41.1951	19,999.5	34.5219	19,999.5	53.1059	19,999.5	39.5654	19,999.5	29.3916	19,999.5	48.4011	19,999.5	47.9093	19,999.5	37.1067
