"SPL Vertical"
"On-Axis"		"10°"		"-10°"		"20°"		"-20°"		"30°"		"-30°"		"40°"		"-40°"		"50°"		"-50°"		"60°"		"-60°"		"70°"		"-70°"		"80°"		"-80°"		"90°"		"-90°"		"100°"		"-100°"		"110°"		"-110°"		"120°"		"-120°"		"130°"		"-130°"		"140°"		"-140°"		"150°"		"-150°"		"160°"		"-160°"		"170°"		"-170°"		"180°"
"Frequency / Hz"	"Sound Pressure Level / dB (re 20 µPa/V)  [2.83  V @ 1. m]"	"Frequency / Hz"	"Sound Pressure Level / dB (re 20 µPa/V)  [2.83  V @ 1. m]"	"Frequency / Hz"	"Sound Pressure Level / dB (re 20 µPa/V)  [2.83  V @ 1. m]"	"Frequency / Hz"	"Sound Pressure Level / dB (re 20 µPa/V)  [2.83  V @ 1. m]"	"Frequency / Hz"	"Sound Pressure Level / dB (re 20 µPa/V)  [2.83  V @ 1. m]"	"Frequency / Hz"	"Sound Pressure Level / dB (re 20 µPa/V)  [2.83  V @ 1. m]"	"Frequency / Hz"	"Sound Pressure Level / dB (re 20 µPa/V)  [2.83  V @ 1. m]"	"Frequency / Hz"	"Sound Pressure Level / dB (re 20 µPa/V)  [2.83  V @ 1. m]"	"Frequency / Hz"	"Sound Pressure Level / dB (re 20 µPa/V)  [2.83  V @ 1. m]"	"Frequency / Hz"	"Sound Pressure Level / dB (re 20 µPa/V)  [2.83  V @ 1. m]"	"Frequency / Hz"	"Sound Pressure Level / dB (re 20 µPa/V)  [2.83  V @ 1. m]"	"Frequency / Hz"	"Sound Pressure Level / dB (re 20 µPa/V)  [2.83  V @ 1. m]"	"Frequency / Hz"	"Sound Pressure Level / dB (re 20 µPa/V)  [2.83  V @ 1. m]"	"Frequency / Hz"	"Sound Pressure Level / dB (re 20 µPa/V)  [2.83  V @ 1. m]"	"Frequency / Hz"	"Sound Pressure Level / dB (re 20 µPa/V)  [2.83  V @ 1. m]"	"Frequency / Hz"	"Sound Pressure Level / dB (re 20 µPa/V)  [2.83  V @ 1. m]"	"Frequency / Hz"	"Sound Pressure Level / dB (re 20 µPa/V)  [2.83  V @ 1. m]"	"Frequency / Hz"	"Sound Pressure Level / dB (re 20 µPa/V)  [2.83  V @ 1. m]"	"Frequency / Hz"	"Sound Pressure Level / dB (re 20 µPa/V)  [2.83  V @ 1. m]"	"Frequency / Hz"	"Sound Pressure Level / dB (re 20 µPa/V)  [2.83  V @ 1. m]"	"Frequency / Hz"	"Sound Pressure Level / dB (re 20 µPa/V)  [2.83  V @ 1. m]"	"Frequency / Hz"	"Sound Pressure Level / dB (re 20 µPa/V)  [2.83  V @ 1. m]"	"Frequency / Hz"	"Sound Pressure Level / dB (re 20 µPa/V)  [2.83  V @ 1. m]"	"Frequency / Hz"	"Sound Pressure Level / dB (re 20 µPa/V)  [2.83  V @ 1. m]"	"Frequency / Hz"	"Sound Pressure Level / dB (re 20 µPa/V)  [2.83  V @ 1. m]"	"Frequency / Hz"	"Sound Pressure Level / dB (re 20 µPa/V)  [2.83  V @ 1. m]"	"Frequency / Hz"	"Sound Pressure Level / dB (re 20 µPa/V)  [2.83  V @ 1. m]"	"Frequency / Hz"	"Sound Pressure Level / dB (re 20 µPa/V)  [2.83  V @ 1. m]"	"Frequency / Hz"	"Sound Pressure Level / dB (re 20 µPa/V)  [2.83  V @ 1. m]"	"Frequency / Hz"	"Sound Pressure Level / dB (re 20 µPa/V)  [2.83  V @ 1. m]"	"Frequency / Hz"	"Sound Pressure Level / dB (re 20 µPa/V)  [2.83  V @ 1. m]"	"Frequency / Hz"	"Sound Pressure Level / dB (re 20 µPa/V)  [2.83  V @ 1. m]"	"Frequency / Hz"	"Sound Pressure Level / dB (re 20 µPa/V)  [2.83  V @ 1. m]"	"Frequency / Hz"	"Sound Pressure Level / dB (re 20 µPa/V)  [2.83  V @ 1. m]"	"Frequency / Hz"	"Sound Pressure Level / dB (re 20 µPa/V)  [2.83  V @ 1. m]"	"Frequency / Hz"	"Sound Pressure Level / dB (re 20 µPa/V)  [2.83  V @ 1. m]"
20.5078	52.1005	20.5078	51.508	20.5078	52.5551	20.5078	50.8251	20.5078	52.8462	20.5078	50.1454	20.5078	52.9575	20.5078	49.6329	20.5078	52.8751	20.5078	49.5042	20.5078	52.5877	20.5078	49.9102	20.5078	52.0918	20.5078	50.8047	20.5078	51.4119	20.5078	51.989	20.5078	50.6474	20.5078	53.2619	20.5078	50.0506	20.5078	54.4924	20.5078	50.0262	20.5078	55.6113	20.5078	50.8163	20.5078	56.5841	20.5078	52.1928	20.5078	57.3918	20.5078	53.7379	20.5078	58.0212	20.5078	55.1774	20.5078	58.4601	20.5078	56.3957	20.5078	58.6962	20.5078	57.3576	20.5078	58.7167	20.5078	58.0593	20.5078	58.5086
21.9727	52.8348	21.9727	52.3899	21.9727	53.1966	21.9727	51.9265	21.9727	53.4353	21.9727	51.5449	21.9727	53.5252	21.9727	51.3765	21.9727	53.4489	21.9727	51.543	21.9727	53.1979	21.9727	52.086	21.9727	52.7805	21.9727	52.9384	21.9727	52.2454	21.9727	53.9722	21.9727	51.7249	21.9727	55.0654	21.9727	51.4723	21.9727	56.1315	21.9727	51.7787	21.9727	57.1169	21.9727	52.7151	21.9727	57.9887	21.9727	54.0451	21.9727	58.7251	21.9727	55.4637	21.9727	59.3089	21.9727	56.7741	21.9727	59.7242	21.9727	57.8852	21.9727	59.9558	21.9727	58.7641	21.9727	59.9887	21.9727	59.4039	21.9727	59.8089
23.4375	55.8352	23.4375	55.4285	23.4375	56.1544	23.4375	54.9791	23.4375	56.3582	23.4375	54.5581	23.4375	56.4288	23.4375	54.2664	23.4375	56.355	23.4375	54.2188	23.4375	56.1341	23.4375	54.4967	23.4375	55.7779	23.4375	55.0992	23.4375	55.3292	23.4375	55.9428	23.4375	54.8876	23.4375	56.9121	23.4375	54.6297	23.4375	57.9057	23.4375	54.7655	23.4375	58.8515	23.4375	55.394	23.4375	59.7028	23.4375	56.4048	23.4375	60.4288	23.4375	57.5765	23.4375	61.0073	23.4375	58.7205	23.4375	61.4204	23.4375	59.7259	23.4375	61.6527	23.4375	60.5395	23.4375	61.6905	23.4375	61.1399	23.4375	61.5224
24.9023	57.8467	24.9023	57.5234	24.9023	58.1097	24.9023	57.182	24.9023	58.285	24.9023	56.8831	24.9023	58.3555	24.9023	56.7049	24.9023	58.3128	24.9023	56.7274	24.9023	58.1586	24.9023	57.0031	24.9023	57.9106	24.9023	57.5298	24.9023	57.6137	24.9023	58.2522	24.9023	57.3541	24.9023	59.0885	24.9023	57.2605	24.9023	59.96	24.9023	57.4653	24.9023	60.8043	24.9023	58.0233	24.9023	61.5764	24.9023	58.8645	24.9023	62.2436	24.9023	59.8434	24.9023	62.7814	24.9023	60.8194	24.9023	63.1702	24.9023	61.6951	24.9023	63.3933	24.9023	62.4147	24.9023	63.4372	24.9023	62.9505	24.9023	63.2915
26.3672	59.9256	26.3672	59.6746	26.3672	60.1399	26.3672	59.4218	26.3672	60.2927	26.3672	59.2132	26.3672	60.368	26.3672	59.1026	26.3672	60.3585	26.3672	59.1422	26.3672	60.2663	26.3672	59.3671	26.3672	60.1078	26.3672	59.7812	26.3672	59.9198	26.3672	60.3551	26.3672	59.7664	26.3672	61.037	26.3672	59.7361	26.3672	61.7691	26.3672	59.9178	26.3672	62.4985	26.3672	60.3548	26.3672	63.1816	26.3672	61.0145	26.3672	63.7839	26.3672	61.8044	26.3672	64.2774	26.3672	62.6181	26.3672	64.6397	26.3672	63.3689	26.3672	64.8522	26.3672	63.9986	26.3672	64.9006	26.3672	64.473	26.3672	64.7753
27.832	61.4011	27.832	61.157	27.832	61.6054	27.832	60.9042	27.832	61.7482	27.832	60.6841	27.832	61.8155	27.832	60.5466	27.832	61.8008	27.832	60.5429	27.832	61.7067	27.832	60.7114	27.832	61.5483	27.832	61.0638	27.832	61.3595	27.832	61.579	27.832	61.1985	27.832	62.2111	27.832	61.1465	27.832	62.9044	27.832	61.2868	27.832	63.6051	27.832	61.6658	27.832	64.2677	27.832	62.2614	27.832	64.8557	27.832	62.993	27.832	65.3397	27.832	63.7602	27.832	65.6963	27.832	64.4771	27.832	65.9065	27.832	65.0833	27.832	65.9559	27.832	65.5424	27.832	65.8353
29.2969	63.2889	29.2969	63.0781	29.2969	63.4689	29.2969	62.8621	29.2969	63.5996	29.2969	62.6741	29.2969	63.669	29.2969	62.5531	29.2969	63.6718	29.2969	62.5393	29.2969	63.6103	29.2969	62.6649	29.2969	63.4975	29.2969	62.9438	29.2969	63.3608	29.2969	63.3661	29.2969	63.2457	29.2969	63.9	29.2969	63.2134	29.2969	64.5014	29.2969	63.3273	29.2969	65.1235	29.2969	63.6273	29.2969	65.7231	29.2969	64.1062	29.2969	66.2632	29.2969	64.7102	29.2969	66.7134	29.2969	65.3616	29.2969	67.0486	29.2969	65.9849	29.2969	67.2493	29.2969	66.5217	29.2969	67.301	29.2969	66.9328	29.2969	67.1957
30.7617	64.7094	30.7617	64.5164	30.7617	64.8785	30.7617	64.322	30.7617	65.0069	30.7617	64.1546	30.7617	65.0835	30.7617	64.047	30.7617	65.1033	30.7617	64.0321	30.7617	65.0685	30.7617	64.1367	30.7617	64.9901	30.7617	64.3736	30.7617	64.8916	30.7617	64.7369	30.7617	64.8102	30.7617	65.203	30.7617	64.7952	30.7617	65.7361	30.7617	64.8976	30.7617	66.2959	30.7617	65.1509	30.7617	66.843	30.7617	65.5541	30.7617	67.3423	30.7617	66.0682	30.7617	67.7635	30.7617	66.631	30.7617	68.0816	30.7617	67.1772	30.7617	68.2769	30.7617	67.6521	30.7617	68.3349	30.7617	68.0169	30.7617	68.2481
32.2266	66.0727	32.2266	65.9094	32.2266	66.2175	32.2266	65.7466	32.2266	66.3294	32.2266	65.6077	32.2266	66.3988	32.2266	65.5191	32.2266	66.421	32.2266	65.5078	32.2266	66.3976	32.2266	65.5961	32.2266	66.3382	32.2266	65.7963	32.2266	66.2622	32.2266	66.1064	32.2266	66.2006	32.2266	66.5098	32.2266	66.1936	32.2266	66.9784	32.2266	66.2831	32.2266	67.4777	32.2266	66.4986	32.2266	67.972	32.2266	66.843	32.2266	68.4277	32.2266	67.2883	32.2266	68.8151	32.2266	67.7843	32.2266	69.1088	32.2266	68.2739	32.2266	69.2888	32.2266	68.7062	32.2266	69.3409	32.2266	69.0426	32.2266	69.2582
33.6914	67.5207	33.6914	67.3743	33.6914	67.6514	33.6914	67.2283	33.6914	67.7543	33.6914	67.1025	33.6914	67.8214	33.6914	67.0192	33.6914	67.8489	33.6914	67.0011	33.6914	67.8386	33.6914	67.068	33.6914	67.7987	33.6914	67.2318	33.6914	67.7456	33.6914	67.4934	33.6914	67.7046	33.6914	67.841	33.6914	67.7081	33.6914	68.2524	33.6914	67.7898	33.6914	68.6981	33.6914	67.9744	33.6914	69.1459	33.6914	68.2665	33.6914	69.5642	33.6914	68.6461	33.6914	69.9239	33.6914	69.0732	33.6914	70.2003	33.6914	69.4993	33.6914	70.3735	33.6914	69.8787	33.6914	70.4297	33.6914	70.1746	33.6914	70.3626
35.1562	68.7009	35.1562	68.5651	35.1562	68.8255	35.1562	68.4322	35.1562	68.9277	35.1562	68.3194	35.1562	69.0002	35.1562	68.2456	35.1562	69.0393	35.1562	68.2301	35.1562	69.046	35.1562	68.2894	35.1562	69.0273	35.1562	68.4341	35.1562	68.9969	35.1562	68.6659	35.1562	68.9758	35.1562	68.9762	35.1562	68.9909	35.1562	69.3465	35.1562	69.0703	35.1562	69.7518	35.1562	69.235	35.1562	70.1634	35.1562	69.4903	35.1562	70.552	35.1562	69.8212	35.1562	70.89	35.1562	70.1952	35.1562	71.1533	35.1562	70.5707	35.1562	71.3223	35.1562	70.9063	35.1562	71.3836	35.1562	71.1677	35.1562	71.3312
36.6211	69.6806	36.6211	69.5561	36.6211	69.7957	36.6211	69.4351	36.6211	69.8917	36.6211	69.3328	36.6211	69.9619	36.6211	69.2664	36.6211	70.0033	36.6211	69.2532	36.6211	70.017	36.6211	69.3083	36.6211	70.0094	36.6211	69.4414	36.6211	69.9923	36.6211	69.6545	36.6211	69.9842	36.6211	69.9404	36.6211	70.0081	36.6211	70.2832	36.6211	70.0879	36.6211	70.6602	36.6211	70.2419	36.6211	71.045	36.6211	70.475	36.6211	71.4101	36.6211	70.7753	36.6211	71.7291	36.6211	71.115	36.6211	71.9788	36.6211	71.4573	36.6211	72.1402	36.6211	71.7646	36.6211	72.2006	36.6211	72.0047	36.6211	72.1544
38.0859	71.0115	38.0859	70.9104	38.0859	71.1112	38.0859	70.8183	38.0859	71.2013	38.0859	70.7471	38.0859	71.2756	38.0859	70.7092	38.0859	71.3309	38.0859	70.7167	38.0859	71.3674	38.0859	70.7799	38.0859	71.3896	38.0859	70.9055	38.0859	71.4065	38.0859	71.0948	38.0859	71.4314	38.0859	71.3428	38.0859	71.4815	38.0859	71.6383	38.0859	71.5737	38.0859	71.9643	38.0859	71.7212	38.0859	72.2998	38.0859	71.9275	38.0859	72.6219	38.0859	72.1838	38.0859	72.9075	38.0859	72.4691	38.0859	73.1355	38.0859	72.7547	38.0859	73.2882	38.0859	73.0098	38.0859	73.3532	38.0859	73.2067	38.0859	73.3251
39.5508	71.9748	39.5508	71.8744	39.5508	72.0714	39.5508	71.779	39.5508	72.1575	39.5508	71.6985	39.5508	72.2279	39.5508	71.644	39.5508	72.2801	39.5508	71.6267	39.5508	72.3141	39.5508	71.6568	39.5508	72.3333	39.5508	71.742	39.5508	72.345	39.5508	71.8858	39.5508	72.3601	39.5508	72.0862	39.5508	72.393	39.5508	72.335	39.5508	72.4586	39.5508	72.6181	39.5508	72.5693	39.5508	72.9167	39.5508	72.7303	39.5508	73.2093	39.5508	72.9363	39.5508	73.4735	39.5508	73.1712	39.5508	73.6883	39.5508	73.4104	39.5508	73.8362	39.5508	73.6261	39.5508	73.905	39.5508	73.7924	39.5508	73.8893
41.0156	72.7617	41.0156	72.6606	41.0156	72.8626	41.0156	72.5672	41.0156	72.957	41.0156	72.4906	41.0156	73.0402	41.0156	72.4403	41.0156	73.1093	41.0156	72.4262	41.0156	73.1639	41.0156	72.4568	41.0156	73.2063	41.0156	72.5386	41.0156	73.2417	41.0156	72.6745	41.0156	73.2785	41.0156	72.8626	41.0156	73.3274	41.0156	73.0955	41.0156	73.3999	41.0156	73.3608	41.0156	73.5056	41.0156	73.6418	41.0156	73.6487	41.0156	73.9189	41.0156	73.8257	41.0156	74.1716	41.0156	74.0239	41.0156	74.3805	41.0156	74.2238	41.0156	74.5293	41.0156	74.4019	41.0156	74.6067	41.0156	74.536	41.0156	74.6079
42.4805	73.5447	42.4805	73.4596	42.4805	73.6293	42.4805	73.3798	42.4805	73.7084	42.4805	73.3118	42.4805	73.7782	42.4805	73.2631	42.4805	73.8361	42.4805	73.2412	42.4805	73.8809	42.4805	73.2531	42.4805	73.9138	42.4805	73.305	42.4805	73.9383	42.4805	73.4002	42.4805	73.9607	42.4805	73.5391	42.4805	73.9898	42.4805	73.7174	42.4805	74.0357	42.4805	73.9266	42.4805	74.1075	42.4805	74.1537	42.4805	74.2108	42.4805	74.3826	42.4805	74.3446	42.4805	74.5952	42.4805	74.4999	42.4805	74.774	42.4805	74.6607	42.4805	74.9033	42.4805	74.8067	42.4805	74.9722	42.4805	74.9174	42.4805	74.976
43.9453	74.3527	43.9453	74.2692	43.9453	74.4324	43.9453	74.1874	43.9453	74.5042	43.9453	74.1136	43.9453	74.5649	43.9453	74.055	43.9453	74.6126	43.9453	74.0192	43.9453	74.6473	43.9453	74.0137	43.9453	74.6707	43.9453	74.0449	43.9453	74.6865	43.9453	74.1172	43.9453	74.7011	43.9453	74.232	43.9453	74.7225	43.9453	74.3864	43.9453	74.7599	43.9453	74.5734	43.9453	74.8215	43.9453	74.7811	43.9453	74.912	43.9453	74.9943	43.9453	75.0303	43.9453	75.1958	43.9453	75.1682	43.9453	75.3683	43.9453	75.3107	43.9453	75.4962	43.9453	75.4391	43.9453	75.5687	43.9453	75.5343	43.9453	75.5807
45.4102	74.9815	45.4102	74.9012	45.4102	75.0617	45.4102	74.8257	45.4102	75.1381	45.4102	74.7604	45.4102	75.2079	45.4102	74.7116	45.4102	75.2693	45.4102	74.6861	45.4102	75.322	45.4102	74.6904	45.4102	75.3668	45.4102	74.7301	45.4102	75.4063	45.4102	74.8093	45.4102	75.445	45.4102	74.9289	45.4102	75.4886	45.4102	75.0864	45.4102	75.5438	45.4102	75.2748	45.4102	75.6168	45.4102	75.4831	45.4102	75.711	45.4102	75.6969	45.4102	75.8253	45.4102	75.8995	45.4102	75.9529	45.4102	76.0745	45.4102	76.0812	45.4102	76.207	45.4102	76.1941	45.4102	76.2865	45.4102	76.2745	45.4102	76.3083
46.875	75.5229	46.875	75.4466	46.875	75.6029	46.875	75.3785	46.875	75.6828	46.875	75.3236	46.875	75.7594	46.875	75.2871	46.875	75.8305	46.875	75.2744	46.875	75.8948	46.875	75.2905	46.875	75.9524	46.875	75.3395	46.875	76.0048	46.875	75.4239	46.875	76.0552	46.875	75.5441	46.875	76.1079	46.875	75.6975	46.875	76.1685	46.875	75.878	46.875	76.242	46.875	76.0757	46.875	76.3315	46.875	76.2779	46.875	76.4366	46.875	76.4696	46.875	76.5517	46.875	76.6355	46.875	76.6663	46.875	76.7621	46.875	76.7662	46.875	76.8396	46.875	76.8363	46.875	76.8636
48.3398	76.0563	48.3398	75.987	48.3398	76.131	48.3398	75.9271	48.3398	76.2077	48.3398	75.8805	48.3398	76.2835	48.3398	75.8518	48.3398	76.3561	48.3398	75.8452	48.3398	76.4242	48.3398	75.8648	48.3398	76.4873	48.3398	75.914	48.3398	76.546	48.3398	75.9949	48.3398	76.6024	48.3398	76.1079	48.3398	76.6597	48.3398	76.2507	48.3398	76.722	48.3398	76.4178	48.3398	76.7934	48.3398	76.6006	48.3398	76.8764	48.3398	76.7877	48.3398	76.971	48.3398	76.9654	48.3398	77.0727	48.3398	77.12	48.3398	77.1729	48.3398	77.239	48.3398	77.2593	48.3398	77.3134	48.3398	77.3187	48.3398	77.3393
51.2695	76.9639	51.2695	76.9043	51.2695	77.032	51.2695	76.855	51.2695	77.1067	51.2695	76.8182	51.2695	77.1858	51.2695	76.796	51.2695	77.2672	51.2695	76.791	51.2695	77.3487	51.2695	76.8056	51.2695	77.4284	51.2695	76.8425	51.2695	77.5049	51.2695	76.9034	51.2695	77.5775	51.2695	76.9892	51.2695	77.6466	51.2695	77.0991	51.2695	77.7133	51.2695	77.2303	51.2695	77.7793	51.2695	77.3774	51.2695	77.8458	51.2695	77.5324	51.2695	77.9124	51.2695	77.6854	51.2695	77.9767	51.2695	77.8256	51.2695	78.0333	51.2695	77.9425	51.2695	78.0745	51.2695	78.028	51.2695	78.0918	51.2695	78.0778
52.7344	77.4943	52.7344	77.4345	52.7344	77.5645	52.7344	77.3869	52.7344	77.6433	52.7344	77.3533	52.7344	77.7284	52.7344	77.3353	52.7344	77.8174	52.7344	77.3346	52.7344	77.9077	52.7344	77.3528	52.7344	77.997	52.7344	77.3916	52.7344	78.0832	52.7344	77.4521	52.7344	78.1648	52.7344	77.5348	52.7344	78.2413	52.7344	77.639	52.7344	78.3129	52.7344	77.7623	52.7344	78.3799	52.7344	77.9003	52.7344	78.443	52.7344	78.0465	52.7344	78.5017	52.7344	78.1925	52.7344	78.5539	52.7344	78.3286	52.7344	78.5955	52.7344	78.4457	52.7344	78.6205	52.7344	78.536	52.7344	78.6223	52.7344	78.5951
54.1992	77.863	54.1992	77.8085	54.1992	77.9287	54.1992	77.7665	54.1992	78.0039	54.1992	77.7378	54.1992	78.0865	54.1992	77.7231	54.1992	78.1737	54.1992	77.7229	54.1992	78.2627	54.1992	77.7377	54.1992	78.3504	54.1992	77.7682	54.1992	78.4342	54.1992	77.815	54.1992	78.5116	54.1992	77.8785	54.1992	78.5812	54.1992	77.9585	54.1992	78.6423	54.1992	78.0539	54.1992	78.6946	54.1992	78.1622	54.1992	78.7386	54.1992	78.2789	54.1992	78.7743	54.1992	78.3983	54.1992	78.8012	54.1992	78.513	54.1992	78.817	54.1992	78.6158	54.1992	78.8184	54.1992	78.7003	54.1992	78.8014	54.1992	78.7626
55.6641	78.5311	55.6641	78.4829	55.6641	78.5851	55.6641	78.4412	55.6641	78.6439	55.6641	78.4065	55.6641	78.7061	55.6641	78.379	55.6641	78.7698	55.6641	78.3593	55.6641	78.8327	55.6641	78.3481	55.6641	78.8923	55.6641	78.3463	55.6641	78.946	55.6641	78.3553	55.6641	78.9915	55.6641	78.3762	55.6641	79.0271	55.6641	78.4104	55.6641	79.0518	55.6641	78.4582	55.6641	79.0659	55.6641	78.5189	55.6641	79.0705	55.6641	78.5903	55.6641	79.0672	55.6641	78.6684	55.6641	79.0575	55.6641	78.7481	55.6641	79.0418	55.6641	78.8236	55.6641	79.0192	55.6641	78.8903	55.6641	78.9878	55.6641	78.9453
58.5938	79.4986	58.5938	79.4476	58.5938	79.5494	58.5938	79.396	58.5938	79.6003	58.5938	79.3439	58.5938	79.6511	58.5938	79.2918	58.5938	79.7012	58.5938	79.2408	58.5938	79.7493	58.5938	79.193	58.5938	79.7932	58.5938	79.1513	58.5938	79.8306	58.5938	79.1191	58.5938	79.859	58.5938	79.1001	58.5938	79.8763	58.5938	79.0979	58.5938	79.8813	58.5938	79.1149	58.5938	79.8738	58.5938	79.1521	58.5938	79.8548	58.5938	79.2078	58.5938	79.8265	58.5938	79.2782	58.5938	79.7908	58.5938	79.3574	58.5938	79.7494	58.5938	79.4389	58.5938	79.7024	58.5938	79.5168	58.5938	79.6489	58.5938	79.5873
60.0586	79.5262	60.0586	79.4658	60.0586	79.593	60.0586	79.4125	60.0586	79.6652	60.0586	79.3666	60.0586	79.7414	60.0586	79.3289	60.0586	79.8197	60.0586	79.3002	60.0586	79.8973	60.0586	79.2816	60.0586	79.9714	60.0586	79.2747	60.0586	80.0387	60.0586	79.2813	60.0586	80.0963	60.0586	79.3031	60.0586	80.1417	60.0586	79.3416	60.0586	80.1734	60.0586	79.3972	60.0586	80.1913	60.0586	79.4694	60.0586	80.1962	60.0586	79.5554	60.0586	80.1897	60.0586	79.6508	60.0586	80.1733	60.0586	79.7497	60.0586	80.1478	60.0586	79.8454	60.0586	80.1127	60.0586	79.9323	60.0586	80.0662	60.0586	80.0063
62.9883	80.2648	62.9883	80.2142	62.9883	80.3243	62.9883	80.1723	62.9883	80.3926	62.9883	80.1385	62.9883	80.4686	62.9883	80.112	62.9883	80.5506	62.9883	80.0922	62.9883	80.6357	62.9883	80.0791	62.9883	80.7204	62.9883	80.0729	62.9883	80.8005	62.9883	80.0745	62.9883	80.8717	62.9883	80.0856	62.9883	80.9298	62.9883	80.1078	62.9883	80.9715	62.9883	80.1431	62.9883	80.9947	62.9883	80.1925	62.9883	80.9985	62.9883	80.2561	62.9883	80.9835	62.9883	80.3324	62.9883	80.9512	62.9883	80.4183	62.9883	80.9038	62.9883	80.5097	62.9883	80.8432	62.9883	80.6017	62.9883	80.7713	62.9883	80.69
64.4531	80.5373	64.4531	80.4876	64.4531	80.597	64.4531	80.4471	64.4531	80.6665	64.4531	80.4149	64.4531	80.7451	64.4531	80.3902	64.4531	80.8308	64.4531	80.3721	64.4531	80.921	64.4531	80.3602	64.4531	81.0116	64.4531	80.3548	64.4531	81.0982	64.4531	80.3567	64.4531	81.176	64.4531	80.3673	64.4531	81.2403	64.4531	80.3883	64.4531	81.2871	64.4531	80.4218	64.4531	81.3136	64.4531	80.4691	64.4531	81.3184	64.4531	80.5306	64.4531	81.3019	64.4531	80.6056	64.4531	81.2656	64.4531	80.6915	64.4531	81.2119	64.4531	80.7847	64.4531	81.1436	64.4531	80.8805	64.4531	81.0636	64.4531	80.9748
67.3828	81.118	67.3828	81.0674	67.3828	81.1786	67.3828	81.0259	67.3828	81.2491	67.3828	80.9926	67.3828	81.3283	67.3828	80.966	67.3828	81.4144	67.3828	80.9448	67.3828	81.5041	67.3828	80.9283	67.3828	81.5933	67.3828	80.9159	67.3828	81.677	67.3828	80.9081	67.3828	81.75	67.3828	80.9059	67.3828	81.807	67.3828	80.9111	67.3828	81.8437	67.3828	80.926	67.3828	81.8568	67.3828	80.9528	67.3828	81.845	67.3828	80.9934	67.3828	81.8089	67.3828	81.0488	67.3828	81.7509	67.3828	81.1185	67.3828	81.6752	67.3828	81.2008	67.3828	81.5865	67.3828	81.2928	67.3828	81.49	67.3828	81.3906
68.8477	81.4005	68.8477	81.3492	68.8477	81.4615	68.8477	81.3068	68.8477	81.5324	68.8477	81.2721	68.8477	81.612	68.8477	81.2436	68.8477	81.6983	68.8477	81.2197	68.8477	81.7879	68.8477	81.1994	68.8477	81.8765	68.8477	81.182	68.8477	81.9589	68.8477	81.1678	68.8477	82.0296	68.8477	81.1577	68.8477	82.083	68.8477	81.1536	68.8477	82.1145	68.8477	81.1582	68.8477	82.1207	68.8477	81.174	68.8477	82.1	68.8477	81.204	68.8477	82.0534	68.8477	81.2498	68.8477	81.9838	68.8477	81.3121	68.8477	81.8959	68.8477	81.3901	68.8477	81.7956	68.8477	81.4815	68.8477	81.6892	68.8477	81.5827
71.7773	82.0619	71.7773	82.012	71.7773	82.1213	71.7773	81.9706	71.7773	82.1902	71.7773	81.9361	71.7773	82.2678	71.7773	81.9068	71.7773	82.3519	71.7773	81.8807	71.7773	82.4392	71.7773	81.8564	71.7773	82.5254	71.7773	81.8328	71.7773	82.6051	71.7773	81.8098	71.7773	82.6725	71.7773	81.7883	71.7773	82.7219	71.7773	81.7703	71.7773	82.748	71.7773	81.7588	71.7773	82.7469	71.7773	81.7574	71.7773	82.7169	71.7773	81.7702	71.7773	82.6583	71.7773	81.8006	71.7773	82.5745	71.7773	81.851	71.7773	82.471	71.7773	81.922	71.7773	82.3551	71.7773	82.0122	71.7773	82.2349	71.7773	82.1183
74.707	82.617	74.707	82.5699	74.707	82.6736	74.707	82.5309	74.707	82.7399	74.707	82.4984	74.707	82.8153	74.707	82.4702	74.707	82.898	74.707	82.4443	74.707	82.9847	74.707	82.4188	74.707	83.0714	74.707	82.3925	74.707	83.1524	74.707	82.3652	74.707	83.2219	74.707	82.3377	74.707	83.2735	74.707	82.312	74.707	83.3012	74.707	82.2915	74.707	83.3007	74.707	82.2805	74.707	83.2692	74.707	82.284	74.707	83.2069	74.707	82.3065	74.707	83.117	74.707	82.3516	74.707	83.0052	74.707	82.4208	74.707	82.8797	74.707	82.5132	74.707	82.7499	74.707	82.6249
77.6367	82.9985	77.6367	82.9529	77.6367	83.0541	77.6367	82.916	77.6367	83.1204	77.6367	82.8853	77.6367	83.1969	77.6367	82.8585	77.6367	83.2817	77.6367	82.8329	77.6367	83.3715	77.6367	82.8065	77.6367	83.4618	77.6367	82.7775	77.6367	83.5469	77.6367	82.7456	77.6367	83.6202	77.6367	82.7116	77.6367	83.6748	77.6367	82.6778	77.6367	83.7043	77.6367	82.648	77.6367	83.7035	77.6367	82.6273	77.6367	83.6694	77.6367	82.6218	77.6367	83.6016	77.6367	82.6373	77.6367	83.5033	77.6367	82.6785	77.6367	83.3808	77.6367	82.7478	77.6367	83.243	77.6367	82.8446	77.6367	83.1007	77.6367	82.9646
79.1016	83.2006	79.1016	83.1543	79.1016	83.2568	79.1016	83.1161	79.1016	83.3232	79.1016	83.0839	79.1016	83.3993	79.1016	83.0551	79.1016	83.4832	79.1016	83.0268	79.1016	83.5716	79.1016	82.997	79.1016	83.66	79.1016	82.9638	79.1016	83.7426	79.1016	82.9268	79.1016	83.8129	79.1016	82.8868	79.1016	83.8642	79.1016	82.8464	79.1016	83.89	79.1016	82.8095	79.1016	83.8851	79.1016	82.7819	79.1016	83.8462	79.1016	82.7699	79.1016	83.7731	79.1016	82.7801	79.1016	83.6688	79.1016	82.8176	79.1016	83.5399	79.1016	82.8855	79.1016	83.3956	79.1016	82.9831	79.1016	83.2472	79.1016	83.1062
82.0312	83.6989	82.0312	83.65	82.0312	83.756	82.0312	83.6076	82.0312	83.8216	82.0312	83.5696	82.0312	83.8952	82.0312	83.5333	82.0312	83.9747	82.0312	83.4959	82.0312	84.0571	82.0312	83.455	82.0312	84.1376	82.0312	83.4088	82.0312	84.2108	82.0312	83.3569	82.0312	84.2701	82.0312	83.3002	82.0312	84.3088	82.0312	83.2413	82.0312	84.3201	82.0312	83.1848	82.0312	84.299	82.0312	83.137	82.0312	84.2422	82.0312	83.1055	82.0312	84.1497	82.0312	83.098	82.0312	84.0252	82.0312	83.1213	82.0312	83.8764	82.0312	83.1798	82.0312	83.714	82.0312	83.2742	82.0312	83.5511	82.0312	83.4007
84.9609	84.0327	84.9609	83.9854	84.9609	84.0901	84.9609	83.9465	84.9609	84.1583	84.9609	83.9134	84.9609	84.2369	84.9609	83.8828	84.9609	84.3239	84.9609	83.8516	84.9609	84.4158	84.9609	83.8169	84.9609	84.5076	84.9609	83.7766	84.9609	84.5932	84.9609	83.7295	84.9609	84.6653	84.9609	83.6765	84.9609	84.7161	84.9609	83.6199	84.9609	84.7382	84.9609	83.5645	84.9609	84.7254	84.9609	83.5167	84.9609	84.6737	84.9609	83.4848	84.9609	84.5828	84.9609	83.4773	84.9609	84.4563	84.9609	83.5021	84.9609	84.302	84.9609	83.5642	84.9609	84.1316	84.9609	83.6646	84.9609	83.9592	84.9609	83.7993
87.8906	84.2468	87.8906	84.1935	87.8906	84.3077	87.8906	84.1467	87.8906	84.3764	87.8906	84.1041	87.8906	84.452	87.8906	84.0632	87.8906	84.5325	87.8906	84.0208	87.8906	84.6149	87.8906	83.9744	87.8906	84.6953	87.8906	83.9221	87.8906	84.7684	87.8906	83.8632	87.8906	84.8285	87.8906	83.7986	87.8906	84.8686	87.8906	83.7314	87.8906	84.882	87.8906	83.6667	87.8906	84.8625	87.8906	83.6116	87.8906	84.8059	87.8906	83.5749	87.8906	84.7112	87.8906	83.5655	87.8906	84.5811	87.8906	83.5911	87.8906	84.4229	87.8906	83.6567	87.8906	84.2477	87.8906	83.7624	87.8906	84.0696	87.8906	83.9033
90.8203	84.4924	90.8203	84.4453	90.8203	84.5464	90.8203	84.4035	90.8203	84.6079	90.8203	84.3646	90.8203	84.6765	90.8203	84.3259	90.8203	84.7507	90.8203	84.2843	90.8203	84.8279	90.8203	84.237	90.8203	84.9042	90.8203	84.1823	90.8203	84.9746	90.8203	84.1192	90.8203	85.0328	90.8203	84.0487	90.8203	85.0715	90.8203	83.9738	90.8203	85.0834	90.8203	83.8997	90.8203	85.0619	90.8203	83.8341	90.8203	85.0024	90.8203	83.786	90.8203	84.9038	90.8203	83.7652	90.8203	84.7689	90.8203	83.7805	90.8203	84.6055	90.8203	83.8377	90.8203	84.4256	90.8203	83.938	90.8203	84.2441	90.8203	84.0769
95.2148	85.0895	95.2148	85.0381	95.2148	85.1426	95.2148	84.9873	95.2148	85.198	95.2148	84.9351	95.2148	85.2553	95.2148	84.879	95.2148	85.3131	95.2148	84.8166	95.2148	85.3693	95.2148	84.7453	95.2148	85.4202	95.2148	84.6632	95.2148	85.4614	95.2148	84.5699	95.2148	85.487	95.2148	84.4661	95.2148	85.4904	95.2148	84.3551	95.2148	85.4651	95.2148	84.2425	95.2148	85.4051	95.2148	84.1369	95.2148	85.3068	95.2148	84.0488	95.2148	85.1699	95.2148	83.9902	95.2148	84.9988	95.2148	83.9724	95.2148	84.8032	95.2148	84.0042	95.2148	84.5972	95.2148	84.0889	95.2148	84.398	95.2148	84.2235
98.1445	85.1507	98.1445	85.1013	98.1445	85.2037	98.1445	85.055	98.1445	85.2602	98.1445	85.0102	98.1445	85.3192	98.1445	84.9643	98.1445	85.3792	98.1445	84.9142	98.1445	85.4378	98.1445	84.8568	98.1445	85.4919	98.1445	84.7892	98.1445	85.537	98.1445	84.7097	98.1445	85.5676	98.1445	84.6187	98.1445	85.5771	98.1445	84.5186	98.1445	85.5588	98.1445	84.4148	98.1445	85.5065	98.1445	84.3156	98.1445	85.4165	98.1445	84.2315	98.1445	85.2884	98.1445	84.1744	98.1445	85.1266	98.1445	84.1555	98.1445	84.9406	98.1445	84.1837	98.1445	84.7444	98.1445	84.2626	98.1445	84.5549	98.1445	84.3894
101.074	85.2222	101.074	85.1865	101.074	85.2586	101.074	85.1495	101.074	85.2971	101.074	85.1085	101.074	85.3383	101.074	85.0607	101.074	85.3822	101.074	85.0031	101.074	85.4276	101.074	84.933	101.074	85.4718	101.074	84.8484	101.074	85.5109	101.074	84.7487	101.074	85.5388	101.074	84.6353	101.074	85.5481	101.074	84.5119	101.074	85.5307	101.074	84.385	101.074	85.4791	101.074	84.2641	101.074	85.3878	101.074	84.1609	101.074	85.2556	101.074	84.0888	101.074	85.0862	101.074	84.0601	101.074	84.8894	101.074	84.0845	101.074	84.6802	101.074	84.1657	101.074	84.4774	101.074	84.3004
105.469	85.3237	105.469	85.2778	105.469	85.3725	105.469	85.2338	105.469	85.4243	105.469	85.1902	105.469	85.4786	105.469	85.1447	105.469	85.5344	105.469	85.0945	105.469	85.5897	105.469	85.0368	105.469	85.6419	105.469	84.9689	105.469	85.687	105.469	84.8893	105.469	85.7196	105.469	84.7979	105.469	85.7331	105.469	84.6969	105.469	85.7201	105.469	84.5914	105.469	85.6737	105.469	84.4893	105.469	85.5888	105.469	84.4012	105.469	85.464	105.469	84.3395	105.469	85.3028	105.469	84.3165	105.469	85.1147	105.469	84.3421	105.469	84.9143	105.469	84.4207	105.469	84.7197	105.469	84.5499
108.398	85.5032	108.398	85.4476	108.398	85.5586	108.398	85.3913	108.398	85.6137	108.398	85.3328	108.398	85.6678	108.398	85.2701	108.398	85.7196	108.398	85.2007	108.398	85.7673	108.398	85.122	108.398	85.8084	108.398	85.0319	108.398	85.8392	108.398	84.9294	108.398	85.855	108.398	84.8154	108.398	85.8498	108.398	84.693	108.398	85.8171	108.398	84.5684	108.398	85.7504	108.398	84.4505	108.398	85.6452	108.398	84.3508	108.398	85.5008	108.398	84.2823	108.398	85.321	108.398	84.2573	108.398	85.1156	108.398	84.2853	108.398	84.8993	108.398	84.3703	108.398	84.6908	108.398	84.509
112.793	85.4402	112.793	85.3914	112.793	85.4923	112.793	85.3449	112.793	85.5481	112.793	85.299	112.793	85.607	112.793	85.2508	112.793	85.6679	112.793	85.1972	112.793	85.7291	112.793	85.1351	112.793	85.788	112.793	85.0616	112.793	85.8406	112.793	84.9755	112.793	85.8814	112.793	84.8771	112.793	85.9034	112.793	84.7695	112.793	85.8985	112.793	84.6587	112.793	85.8587	112.793	84.5539	112.793	85.7781	112.793	84.4668	112.793	85.6541	112.793	84.4105	112.793	85.4896	112.793	84.3978	112.793	85.2936	112.793	84.4378	112.793	85.0809	112.793	84.534	112.793	84.8704	112.793	84.6822
117.188	85.6811	117.188	85.6216	117.188	85.7404	117.188	85.5621	117.188	85.7985	117.188	85.5011	117.188	85.8535	117.188	85.4363	117.188	85.9032	117.188	85.3645	117.188	85.9451	117.188	85.2823	117.188	85.9767	117.188	85.187	117.188	85.9949	117.188	85.077	117.188	85.9958	117.188	84.9531	117.188	85.9745	117.188	84.8188	117.188	85.9257	117.188	84.6807	117.188	85.8439	117.188	84.5488	117.188	85.7257	117.188	84.4356	117.188	85.5704	117.188	84.3552	117.188	85.3825	117.188	84.3208	117.188	85.1714	117.188	84.3421	117.188	84.9517	117.188	84.423	117.188	84.7415	117.188	84.5598
120.117	85.7455	120.117	85.6793	120.117	85.8086	120.117	85.6106	120.117	85.8673	120.117	85.5387	120.117	85.9197	120.117	85.462	120.117	85.9638	120.117	85.3781	120.117	85.9975	120.117	85.2841	120.117	86.0185	120.117	85.1774	120.117	86.0238	120.117	85.0566	120.117	86.0097	120.117	84.9223	120.117	85.9714	120.117	84.7778	120.117	85.9035	120.117	84.6296	120.117	85.8014	120.117	84.4874	120.117	85.662	120.117	84.3635	120.117	85.4863	120.117	84.2719	120.117	85.2803	120.117	84.2258	120.117	85.0551	120.117	84.2355	120.117	84.8267	120.117	84.306	120.117	84.6139	120.117	84.4353
124.512	85.7584	124.512	85.6884	124.512	85.8241	124.512	85.6145	124.512	85.8838	124.512	85.5361	124.512	85.9355	124.512	85.4511	124.512	85.9773	124.512	85.3566	124.512	86.0071	124.512	85.249	124.512	86.023	124.512	85.1257	124.512	86.0225	124.512	84.9851	124.512	86.0015	124.512	84.8281	124.512	85.955	124.512	84.6587	124.512	85.8767	124.512	84.4847	124.512	85.7607	124.512	84.3172	124.512	85.6035	124.512	84.1707	124.512	85.4055	124.512	84.061	124.512	85.1734	124.512	84.0031	124.512	84.9198	124.512	84.0089	124.512	84.6631	124.512	84.084	124.512	84.4248	124.512	84.2261
128.906	85.6849	128.906	85.622	128.906	85.7421	128.906	85.5537	128.906	85.7929	128.906	85.4793	128.906	85.8361	128.906	85.3968	128.906	85.8713	128.906	85.303	128.906	85.8978	128.906	85.1944	128.906	85.9144	128.906	85.0679	128.906	85.9187	128.906	84.9218	128.906	85.9058	128.906	84.7571	128.906	85.8687	128.906	84.5778	128.906	85.7989	128.906	84.3919	128.906	85.6882	128.906	84.2113	128.906	85.5311	128.906	84.0511	128.906	85.3273	128.906	83.9284	128.906	85.0838	128.906	83.8597	128.906	84.8149	128.906	83.8586	128.906	84.5416	128.906	83.9322	128.906	84.2884	128.906	84.079
133.301	85.5252	133.301	85.4612	133.301	85.5838	133.301	85.3919	133.301	85.6367	133.301	85.3167	133.301	85.6838	133.301	85.2338	133.301	85.7253	133.301	85.1404	133.301	85.7617	133.301	85.0332	133.301	85.7921	133.301	84.9094	133.301	85.8142	133.301	84.7675	133.301	85.8227	133.301	84.6085	133.301	85.8094	133.301	84.4367	133.301	85.764	133.301	84.2605	133.301	85.6763	133.301	84.0918	133.301	85.5386	133.301	83.9461	133.301	85.3488	133.301	83.8404	133.301	85.1126	133.301	83.7909	133.301	84.8437	133.301	83.8102	133.301	84.5636	133.301	83.9046	133.301	84.2976	133.301	84.0711
139.16	85.085	139.16	85.0203	139.16	85.1489	139.16	84.9548	139.16	85.2127	139.16	84.8889	139.16	85.2776	139.16	84.8225	139.16	85.3453	139.16	84.7547	139.16	85.4171	139.16	84.6836	139.16	85.493	139.16	84.6069	139.16	85.5705	139.16	84.5221	139.16	85.6432	139.16	84.428	139.16	85.7011	139.16	84.3257	139.16	85.7308	139.16	84.2195	139.16	85.7179	139.16	84.1175	139.16	85.6502	139.16	84.0319	139.16	85.5209	139.16	83.9775	139.16	85.332	139.16	83.9704	139.16	85.095	139.16	84.0238	139.16	84.8308	139.16	84.1446	139.16	84.5666	139.16	84.3301
143.555	84.8641	143.555	84.7755	143.555	84.9551	143.555	84.6918	143.555	85.0459	143.555	84.6147	143.555	85.1341	143.555	84.5453	143.555	85.2179	143.555	84.4831	143.555	85.2965	143.555	84.4269	143.555	85.3699	143.555	84.3749	143.555	85.438	143.555	84.3248	143.555	85.4993	143.555	84.2756	143.555	85.5496	143.555	84.2276	143.555	85.5811	143.555	84.1832	143.555	85.5839	143.555	84.1474	143.555	85.5474	143.555	84.1277	143.555	85.4644	143.555	84.1332	143.555	85.3333	143.555	84.1733	143.555	85.1603	143.555	84.2554	143.555	84.9591	143.555	84.3825	143.555	84.749	143.555	84.5509
147.949	85.2317	147.949	85.1376	147.949	85.3166	147.949	85.0364	147.949	85.3894	147.949	84.9287	147.949	85.4469	147.949	84.8139	147.949	85.4868	147.949	84.6904	147.949	85.5077	147.949	84.5566	147.949	85.5098	147.949	84.4118	147.949	85.4937	147.949	84.2571	147.949	85.4599	147.949	84.0963	147.949	85.4074	147.949	83.9363	147.949	85.3329	147.949	83.7868	147.949	85.2317	147.949	83.6591	147.949	85.0992	147.949	83.5653	147.949	84.9331	147.949	83.5159	147.949	84.7356	147.949	83.5186	147.949	84.5144	147.949	83.5773	147.949	84.2826	147.949	83.6914	147.949	84.057	147.949	83.8549
153.809	85.1062	153.809	85.0033	153.809	85.1983	153.809	84.8923	153.809	85.2767	153.809	84.7748	153.809	85.339	153.809	84.651	153.809	85.384	153.809	84.5194	153.809	85.4121	153.809	84.3777	153.809	85.4248	153.809	84.2239	153.809	85.423	153.809	84.0574	153.809	85.4058	153.809	83.8806	153.809	85.3691	153.809	83.6996	153.809	85.3057	153.809	83.5244	153.809	85.2063	153.809	83.3686	153.809	85.063	153.809	83.2476	153.809	84.8717	153.809	83.1763	153.809	84.6352	153.809	83.167	153.809	84.3647	153.809	83.2272	153.809	84.0787	153.809	83.358	153.809	83.8004	153.809	83.5535
159.668	85.1214	159.668	85.0101	159.668	85.2166	159.668	84.8862	159.668	85.2925	159.668	84.7524	159.668	85.3467	159.668	84.6105	159.668	85.3788	159.668	84.4607	159.668	85.3903	159.668	84.3027	159.668	85.3843	159.668	84.1361	159.668	85.3642	159.668	83.962	159.668	85.332	159.668	83.7839	159.668	85.2867	159.668	83.6088	159.668	85.2237	159.668	83.4468	159.668	85.1354	159.668	83.3111	159.668	85.0134	159.668	83.2158	159.668	84.8516	159.668	83.1742	159.668	84.6489	159.668	83.1955	159.668	84.4112	159.668	83.2839	159.668	84.1515	159.668	83.4364	159.668	83.8885	159.668	83.6433
165.527	85.044	165.527	84.9426	165.527	85.13	165.527	84.8307	165.527	85.1964	165.527	84.7114	165.527	85.2399	165.527	84.5862	165.527	85.2602	165.527	84.4547	165.527	85.2593	165.527	84.3149	165.527	85.2415	165.527	84.1649	165.527	85.2111	165.527	84.004	165.527	85.1706	165.527	83.8344	165.527	85.1189	165.527	83.6624	165.527	85.0509	165.527	83.4981	165.527	84.9586	165.527	83.3549	165.527	84.8342	165.527	83.2476	165.527	84.673	165.527	83.1897	165.527	84.4758	165.527	83.1907	165.527	84.25	165.527	83.2546	165.527	84.0095	165.527	83.3791	165.527	83.7718	165.527	83.556
171.387	84.8964	171.387	84.7975	171.387	84.9748	171.387	84.6826	171.387	85.0292	171.387	84.5562	171.387	85.0588	171.387	84.421	171.387	85.0648	171.387	84.2781	171.387	85.051	171.387	84.1266	171.387	85.022	171.387	83.9648	171.387	84.9815	171.387	83.7923	171.387	84.9311	171.387	83.6116	171.387	84.8684	171.387	83.4291	171.387	84.7878	171.387	83.2559	171.387	84.6818	171.387	83.1059	171.387	84.5441	171.387	82.9942	171.387	84.3719	171.387	82.9336	171.387	84.1682	171.387	82.9319	171.387	83.9419	171.387	82.9914	171.387	83.7069	171.387	83.1084	171.387	83.4792	171.387	83.2749
177.246	84.6862	177.246	84.5701	177.246	84.7817	177.246	84.4366	177.246	84.854	177.246	84.2892	177.246	84.9019	177.246	84.1307	177.246	84.9261	177.246	83.9631	177.246	84.9293	177.246	83.7877	177.246	84.9146	177.246	83.6057	177.246	84.885	177.246	83.4191	177.246	84.8404	177.246	83.2322	177.246	84.7771	177.246	83.0522	177.246	84.6879	177.246	82.8891	177.246	84.564	177.246	82.7549	177.246	84.399	177.246	82.6609	177.246	84.1923	177.246	82.6164	177.246	83.9512	177.246	82.6262	177.246	83.6906	177.246	82.6911	177.246	83.4293	177.246	82.8091	177.246	83.1862	177.246	82.9762
183.105	84.5968	183.105	84.4987	183.105	84.6686	183.105	84.3777	183.105	84.7116	183.105	84.237	183.105	84.7259	183.105	84.0785	183.105	84.7143	183.105	83.9033	183.105	84.6829	183.105	83.7119	183.105	84.6398	183.105	83.5057	183.105	84.5926	183.105	83.2883	183.105	84.545	183.105	83.0664	183.105	84.495	183.105	82.8512	183.105	84.434	183.105	82.657	183.105	84.3485	183.105	82.4995	183.105	84.2251	183.105	82.393	183.105	84.0549	183.105	82.3475	183.105	83.8376	183.105	82.3675	183.105	83.5831	183.105	82.4523	183.105	83.3099	183.105	82.5981	183.105	83.041	183.105	82.7981
188.965	84.4594	188.965	84.365	188.965	84.5326	188.965	84.2535	188.965	84.5806	188.965	84.1279	188.965	84.6012	188.965	83.9887	188.965	84.5954	188.965	83.8344	188.965	84.5681	188.965	83.6624	188.965	84.5274	188.965	83.4704	188.965	84.4819	188.965	83.2589	188.965	84.4377	188.965	83.033	188.965	84.3949	188.965	82.8033	188.965	84.3466	188.965	82.5862	188.965	84.2797	188.965	82.4026	188.965	84.1789	188.965	82.2734	188.965	84.032	188.965	82.2159	188.965	83.8338	188.965	82.2391	188.965	83.5891	188.965	82.3431	188.965	83.3126	188.965	82.5195	188.965	83.0258	188.965	82.7536
196.289	84.5935	196.289	84.4725	196.289	84.6843	196.289	84.3269	196.289	84.7404	196.289	84.1621	196.289	84.7588	196.289	83.9825	196.289	84.7392	196.289	83.7907	196.289	84.6835	196.289	83.588	196.289	84.5955	196.289	83.3757	196.289	84.4803	196.289	83.1564	196.289	84.3431	196.289	82.9361	196.289	84.1885	196.289	82.7245	196.289	84.0214	196.289	82.5351	196.289	83.8466	196.289	82.3829	196.289	83.6693	196.289	82.2814	196.289	83.4936	196.289	82.2397	196.289	83.3202	196.289	82.2601	196.289	83.1468	196.289	82.3379	196.289	82.9706	196.289	82.4623	196.289	82.7924	196.289	82.6188
203.613	84.2974	203.613	84.2308	203.613	84.3402	203.613	84.1451	203.613	84.3556	203.613	84.0442	203.613	84.3444	203.613	83.9282	203.613	84.3117	203.613	83.7931	203.613	84.2664	203.613	83.6314	203.613	84.2177	203.613	83.4356	203.613	84.1717	203.613	83.201	203.613	84.1266	203.613	82.9303	203.613	84.0708	203.613	82.6348	203.613	83.9855	203.613	82.3356	203.613	83.8498	203.613	82.0607	203.613	83.65	203.613	81.8387	203.613	83.3859	203.613	81.6921	203.613	83.0738	203.613	81.6312	203.613	82.7425	203.613	81.6543	203.613	82.4241	203.613	81.7529	203.613	82.1445	203.613	81.9184
210.938	84.2127	210.938	84.0738	210.938	84.3262	210.938	83.9188	210.938	84.4047	210.938	83.7552	210.938	84.4402	210.938	83.5873	210.938	84.4286	210.938	83.4152	210.938	84.3712	210.938	83.236	210.938	84.2751	210.938	83.0452	210.938	84.1511	210.938	82.8395	210.938	84.0104	210.938	82.6193	210.938	83.8602	210.938	82.3911	210.938	83.7017	210.938	82.1684	210.938	83.5308	210.938	81.9707	210.938	83.3425	210.938	81.8189	210.938	83.1344	210.938	81.7304	210.938	82.9099	210.938	81.7136	210.938	82.6772	210.938	81.7662	210.938	82.447	210.938	81.8784	210.938	82.2302	210.938	82.0372
218.262	83.9892	218.262	83.8511	218.262	84.0912	218.262	83.6894	218.262	84.1485	218.262	83.5177	218.262	84.1586	218.262	83.347	218.262	84.1256	218.262	83.1842	218.262	84.0602	218.262	83.0308	218.262	83.9763	218.262	82.884	218.262	83.8876	218.262	82.7388	218.262	83.8026	218.262	82.5916	218.262	83.721	218.262	82.4427	218.262	83.6338	218.262	82.298	218.262	83.527	218.262	82.1685	218.262	83.3888	218.262	82.0682	218.262	83.2158	218.262	82.0099	218.262	83.0155	218.262	82.0007	218.262	82.8033	218.262	82.0414	218.262	82.5969	218.262	82.1272	218.262	82.4103	218.262	82.2519
225.586	84.0541	225.586	83.9206	225.586	84.1469	225.586	83.755	225.586	84.1924	225.586	83.5662	225.586	84.188	225.586	83.3611	225.586	84.1357	225.586	83.1444	225.586	84.0436	225.586	82.9185	225.586	83.9242	225.586	82.6857	225.586	83.7923	225.586	82.4501	225.586	83.66	225.586	82.2196	225.586	83.5324	225.586	82.0064	225.586	83.4044	225.586	81.8256	225.586	83.265	225.586	81.692	225.586	83.1032	225.586	81.6163	225.586	82.9162	225.586	81.6011	225.586	82.7114	225.586	81.6408	225.586	82.5032	225.586	81.7236	225.586	82.3064	225.586	81.8371	225.586	82.1292	225.586	81.973
232.91	84.0962	232.91	83.951	232.91	84.2017	232.91	83.7776	232.91	84.2571	232.91	83.5865	232.91	84.2555	232.91	83.385	232.91	84.1946	232.91	83.1758	232.91	84.0781	232.91	82.9569	232.91	83.9163	232.91	82.7244	232.91	83.7235	232.91	82.4755	232.91	83.5151	232.91	82.2121	232.91	83.3016	232.91	81.9439	232.91	83.0854	232.91	81.688	232.91	82.861	232.91	81.4668	232.91	82.6216	232.91	81.3009	232.91	82.3666	232.91	81.2026	232.91	82.107	232.91	81.1713	232.91	81.8626	232.91	81.1952	232.91	81.6523	232.91	81.2598	232.91	81.4844	232.91	81.3559
241.699	83.8129	241.699	83.628	241.699	83.963	241.699	83.4244	241.699	84.0649	241.699	83.2177	241.699	84.1101	241.699	83.0186	241.699	84.0966	241.699	82.8311	241.699	84.0286	241.699	82.6517	241.699	83.9153	241.699	82.4718	241.699	83.7677	241.699	82.2822	241.699	83.5954	241.699	82.0775	241.699	83.4032	241.699	81.8593	241.699	83.1895	241.699	81.637	241.699	82.9484	241.699	81.4266	241.699	82.6742	241.699	81.2459	241.699	82.3688	241.699	81.1096	241.699	82.0458	241.699	81.0252	241.699	81.7309	241.699	80.994	241.699	81.4544	241.699	81.0159	241.699	81.2398	241.699	81.0951
250.488	84.0546	250.488	83.8178	250.488	84.2324	250.488	83.5317	250.488	84.345	250.488	83.2089	250.488	84.3909	250.488	82.8628	250.488	84.3729	250.488	82.5059	250.488	84.2978	250.488	82.1481	250.488	84.1755	250.488	81.797	250.488	84.0158	250.488	81.4588	250.488	83.8261	250.488	81.1413	250.488	83.6082	250.488	80.8559	250.488	83.3586	250.488	80.6179	250.488	83.0716	250.488	80.4433	250.488	82.7448	250.488	80.3429	250.488	82.3839	250.488	80.3179	250.488	82.005	250.488	80.359	250.488	81.6328	250.488	80.453	250.488	81.2931	250.488	80.5907	250.488	81.0045	250.488	80.7721
259.277	83.7229	259.277	83.548	259.277	83.8652	259.277	83.3502	259.277	83.9652	259.277	83.1372	259.277	84.017	259.277	82.9126	259.277	84.02	259.277	82.6761	259.277	83.9804	259.277	82.4249	259.277	83.9084	259.277	82.156	259.277	83.8139	259.277	81.8689	259.277	83.7005	259.277	81.5674	259.277	83.563	259.277	81.2617	259.277	83.3892	259.277	80.9684	259.277	83.1656	259.277	80.7104	259.277	82.8844	259.277	80.5128	259.277	82.5485	259.277	80.3965	259.277	82.1727	259.277	80.3714	259.277	81.7818	259.277	80.4348	259.277	81.4053	259.277	80.5773	259.277	81.0693	259.277	80.7907
268.066	83.1435	268.066	82.9494	268.066	83.2892	268.066	82.7252	268.066	83.3765	268.066	82.4917	268.066	83.4072	268.066	82.2658	268.066	83.3952	268.066	82.0561	268.066	83.3632	268.066	81.8615	268.066	83.3339	268.066	81.6727	268.066	83.3192	268.066	81.4768	268.066	83.3103	268.066	81.2617	268.066	83.2771	268.066	81.0209	268.066	83.1775	268.066	80.757	268.066	82.9734	268.066	80.4842	268.066	82.6458	268.066	80.2278	268.066	82.2042	268.066	80.0181	268.066	81.6874	268.066	79.8815	268.066	81.1564	268.066	79.8333	268.066	80.6762	268.066	79.8807	268.066	80.2948	268.066	80.031
276.855	82.6142	276.855	82.4331	276.855	82.752	276.855	82.2225	276.855	82.8387	276.855	81.9961	276.855	82.8778	276.855	81.7633	276.855	82.8863	276.855	81.528	276.855	82.8936	276.855	81.2908	276.855	82.9323	276.855	81.0539	276.855	83.0232	276.855	80.8231	276.855	83.1603	276.855	80.6062	276.855	83.3076	276.855	80.4091	276.855	83.4118	276.855	80.2317	276.855	83.4213	276.855	80.0701	276.855	83.3005	276.855	79.9255	276.855	83.0357	276.855	79.8143	276.855	82.6344	276.855	79.7716	276.855	82.1231	276.855	79.8437	276.855	81.5467	276.855	80.0683	276.855	80.9666	276.855	80.4532
287.109	82.7585	287.109	82.3617	287.109	83.0034	287.109	81.8517	287.109	83.0731	287.109	81.2857	287.109	82.9582	287.109	80.7418	287.109	82.6677	287.109	80.3106	287.109	82.244	287.109	80.0719	287.109	81.7858	287.109	80.063	287.109	81.4599	287.109	80.2617	287.109	81.4468	287.109	80.6034	287.109	81.8063	287.109	81.013	287.109	82.4146	287.109	81.4304	287.109	83.0695	287.109	81.8187	287.109	83.6158	287.109	82.1632	287.109	83.9785	287.109	82.4659	287.109	84.1451	287.109	82.7397	287.109	84.1398	287.109	83.0018	287.109	84.0054	287.109	83.2653	287.109	83.7888	287.109	83.5322
297.363	85.232	297.363	84.954	297.363	85.3899	297.363	84.5728	297.363	85.4131	297.363	84.1068	297.363	85.2908	297.363	83.5729	297.363	85.0162	297.363	82.9854	297.363	84.5895	297.363	82.3586	297.363	84.0238	297.363	81.7166	297.363	83.3559	297.363	81.1112	297.363	82.6609	297.363	80.6355	297.363	82.0603	297.363	80.4098	297.363	81.6984	297.363	80.516	297.363	81.6681	297.363	80.9269	297.363	81.9417	297.363	81.5194	297.363	82.3926	297.363	82.153	297.363	82.8775	297.363	82.727	297.363	83.2918	297.363	83.1873	297.363	83.5774	297.363	83.5106	297.363	83.7106	297.363	83.687
307.617	84.8612	307.617	84.5956	307.617	85.0255	307.617	84.2426	307.617	85.0786	307.617	83.8195	307.617	85.0138	307.617	83.3462	307.617	84.8279	307.617	82.8431	307.617	84.5226	307.617	82.3292	307.617	84.1084	307.617	81.823	307.617	83.6097	307.617	81.3444	307.617	83.069	307.617	80.9215	307.617	82.545	307.617	80.5947	307.617	82.1024	307.617	80.4142	307.617	81.7941	307.617	80.4217	307.617	81.6487	307.617	80.6226	307.617	81.6657	307.617	80.9729	307.617	81.8137	307.617	81.3931	307.617	82.0289	307.617	81.7979	307.617	82.2282	307.617	82.1167	307.617	82.3354	307.617	82.3024
319.336	84.6248	319.336	84.4047	319.336	84.754	319.336	84.1034	319.336	84.7824	319.336	83.7295	319.336	84.7028	319.336	83.289	319.336	84.511	319.336	82.7871	319.336	84.2088	319.336	82.2336	319.336	83.8054	319.336	81.6526	319.336	83.3212	319.336	81.0914	319.336	82.7911	319.336	80.6217	319.336	82.2669	319.336	80.3221	319.336	81.8108	319.336	80.242	319.336	81.4772	319.336	80.3722	319.336	81.2915	319.336	80.6506	319.336	81.2446	319.336	80.9949	319.336	81.3079	319.336	81.3307	319.336	81.4449	319.336	81.6012	319.336	81.611	319.336	81.7687	319.336	81.7523	319.336	81.8163
329.59	84.4899	329.59	84.2578	329.59	84.6424	329.59	83.9641	329.59	84.7005	329.59	83.6245	329.59	84.6561	329.59	83.2459	329.59	84.5086	329.59	82.8228	329.59	84.2646	329.59	82.3408	329.59	83.9351	329.59	81.7888	329.59	83.5332	329.59	81.1767	329.59	83.0714	329.59	80.5559	329.59	82.5615	329.59	80.029	329.59	82.0214	329.59	79.7245	329.59	81.4884	329.59	79.7214	329.59	81.0314	329.59	79.9842	329.59	80.7385	329.59	80.3878	329.59	80.6665	329.59	80.7975	329.59	80.7895	329.59	81.1187	329.59	81.0102	329.59	81.3012	329.59	81.2177	329.59	81.3297
341.309	84.1965	341.309	83.9072	341.309	84.386	341.309	83.5458	341.309	84.4581	341.309	83.1463	341.309	84.4057	341.309	82.7402	341.309	84.2312	341.309	82.3445	341.309	83.9471	341.309	81.9559	341.309	83.5779	341.309	81.5546	341.309	83.1598	341.309	81.1207	341.309	82.7341	341.309	80.6562	341.309	82.3333	341.309	80.2036	341.309	81.9663	341.309	79.848	341.309	81.6183	341.309	79.6861	341.309	81.276	341.309	79.7639	341.309	80.961	341.309	80.0369	341.309	80.74	341.309	80.3953	341.309	80.6783	341.309	80.7225	341.309	80.7667	341.309	80.9338	341.309	80.9098	341.309	80.9908
353.027	84.4256	353.027	84.1641	353.027	84.5801	353.027	83.8113	353.027	84.6167	353.027	83.3831	353.027	84.5322	353.027	82.8916	353.027	84.3326	353.027	82.3438	353.027	84.0328	353.027	81.7459	353.027	83.6557	353.027	81.1126	353.027	83.2284	353.027	80.4792	353.027	82.7779	353.027	79.9074	353.027	82.326	353.027	79.4769	353.027	81.8881	353.027	79.259	353.027	81.4767	353.027	79.2816	353.027	81.1092	353.027	79.5106	353.027	80.8141	353.027	79.8627	353.027	80.6259	353.027	80.2373	353.027	80.5662	353.027	80.546	353.027	80.6181	353.027	80.7319	353.027	80.7178	353.027	80.7791
366.211	84.7196	366.211	84.4865	366.211	84.8327	366.211	84.1451	366.211	84.8193	366.211	83.7088	366.211	84.6782	366.211	83.1891	366.211	84.4136	366.211	82.5919	366.211	84.0377	366.211	81.9194	366.211	83.5745	366.211	81.1792	366.211	83.0632	366.211	80.3977	366.211	82.553	366.211	79.6356	366.211	82.0864	366.211	78.9945	366.211	81.6796	366.211	78.5961	366.211	81.3197	366.211	78.5235	366.211	80.9892	366.211	78.7603	366.211	80.6968	366.211	79.1952	366.211	80.4843	366.211	79.684	366.211	80.394	366.211	80.1063	366.211	80.4194	366.211	80.3877	366.211	80.4896	366.211	80.5052
379.395	84.4523	379.395	84.1863	379.395	84.6238	379.395	83.8548	379.395	84.6797	379.395	83.4898	379.395	84.6081	379.395	83.1126	379.395	84.4059	379.395	82.7193	379.395	84.0811	379.395	82.2777	379.395	83.6536	379.395	81.7457	379.395	83.1535	379.395	81.101	379.395	82.6178	379.395	80.3713	379.395	82.0845	379.395	79.6538	379.395	81.5873	379.395	79.1043	379.395	81.1546	379.395	78.8675	379.395	80.8136	379.395	78.9773	379.395	80.5919	379.395	79.3345	379.395	80.505	379.395	79.7859	379.395	80.5347	379.395	80.2029	379.395	80.6231	379.395	80.5072	379.395	80.6911	379.395	80.6672
392.578	84.157	392.578	83.9141	392.578	84.2768	392.578	83.5711	392.578	84.2646	392.578	83.1613	392.578	84.124	392.578	82.7188	392.578	83.869	392.578	82.2629	392.578	83.5194	392.578	81.7857	392.578	83.0977	392.578	81.2574	392.578	82.6277	392.578	80.6528	392.578	82.133	392.578	79.9888	392.578	81.6366	392.578	79.3582	392.578	81.1568	392.578	78.9287	392.578	80.7099	392.578	78.8564	392.578	80.3233	392.578	79.1526	392.578	80.0529	392.578	79.6673	392.578	79.972	392.578	80.2097	392.578	80.1113	392.578	80.6384	392.578	80.4027	392.578	80.8746	392.578	80.7067	392.578	80.8904
405.762	84.1588	405.762	83.952	405.762	84.2263	405.762	83.622	405.762	84.1524	405.762	83.1944	405.762	83.9489	405.762	82.6965	405.762	83.6386	405.762	82.1463	405.762	83.2501	405.762	81.5439	405.762	82.8141	405.762	80.8719	405.762	82.3596	405.762	80.1131	405.762	81.9076	405.762	79.2835	405.762	81.4638	405.762	78.4742	405.762	81.0193	405.762	77.8721	405.762	80.5649	405.762	77.6878	405.762	80.1183	405.762	77.9806	405.762	79.747	405.762	78.5905	405.762	79.5561	405.762	79.2771	405.762	79.6143	405.762	79.8525	405.762	79.8668	405.762	80.2071	405.762	80.151	405.762	80.2985
420.41	84.1945	420.41	83.9503	420.41	84.3302	420.41	83.6202	420.41	84.3483	420.41	83.2368	420.41	84.2501	420.41	82.8289	420.41	84.0418	420.41	82.4052	420.41	83.7352	420.41	81.9476	420.41	83.3527	420.41	81.4193	420.41	82.9269	420.41	80.7867	420.41	82.4867	420.41	80.0434	420.41	82.0338	420.41	79.2353	420.41	81.5335	420.41	78.483	420.41	80.9399	420.41	77.9751	420.41	80.2474	420.41	77.8797	420.41	79.5438	420.41	78.1965	420.41	79.0171	420.41	78.7341	420.41	78.8495	420.41	79.2481	420.41	79.0363	420.41	79.5594	420.41	79.3648	420.41	79.5887
435.059	83.5428	435.059	83.3196	435.059	83.6518	435.059	83.0043	435.059	83.6411	435.059	82.6363	435.059	83.5152	435.059	82.257	435.059	83.2826	435.059	81.8861	435.059	82.9579	435.059	81.5047	435.059	82.5686	435.059	81.0668	435.059	82.1585	435.059	80.5336	435.059	81.7779	435.059	79.913	435.059	81.4548	435.059	79.2897	435.059	81.1695	435.059	78.8204	435.059	80.8658	435.059	78.6613	435.059	80.5027	435.059	78.8526	435.059	80.1076	435.059	79.2831	435.059	79.7915	435.059	79.774	435.059	79.687	435.059	80.1671	435.059	79.8281	435.059	80.3608	435.059	80.0996	435.059	80.3221
451.172	84.3247	451.172	83.9688	451.172	84.519	451.172	83.4881	451.172	84.5304	451.172	82.9281	451.172	84.354	451.172	82.3305	451.172	84	451.172	81.7171	451.172	83.4907	451.172	81.0781	451.172	82.8635	451.172	80.3773	451.172	82.1764	451.172	79.5765	451.172	81.5055	451.172	78.6731	451.172	80.9109	451.172	77.7526	451.172	80.3876	451.172	77.0394	451.172	79.8605	451.172	76.8358	451.172	79.2536	451.172	77.2413	451.172	78.5848	451.172	77.9979	451.172	78.0248	451.172	78.7438	451.172	77.8326	451.172	79.2388	451.172	78.1103	451.172	79.3772	451.172	78.6555	451.172	79.1517
465.82	83.8539	465.82	83.5494	465.82	83.9888	465.82	83.0915	465.82	83.9613	465.82	82.5293	465.82	83.7839	465.82	81.9343	465.82	83.4602	465.82	81.3645	465.82	82.9889	465.82	80.8238	465.82	82.3842	465.82	80.254	465.82	81.6979	465.82	79.5735	465.82	81.0257	465.82	78.731	465.82	80.4767	465.82	77.7596	465.82	80.1058	465.82	76.8374	465.82	79.8567	465.82	76.2908	465.82	79.5964	465.82	76.367	465.82	79.2262	465.82	76.9358	465.82	78.7724	465.82	77.634	465.82	78.3927	465.82	78.1809	465.82	78.2505	465.82	78.4581	465.82	78.3379	465.82	78.4729
483.398	83.7971	483.398	83.4769	483.398	83.9485	483.398	83.0138	483.398	83.9267	483.398	82.4615	483.398	83.7374	483.398	81.8905	483.398	83.3917	483.398	81.3544	483.398	82.9123	483.398	80.8525	483.398	82.3401	483.398	80.3187	483.398	81.7326	483.398	79.6505	483.398	81.1534	483.398	78.7573	483.398	80.6556	483.398	77.6247	483.398	80.2538	483.398	76.4276	483.398	79.9088	483.398	75.6593	483.398	79.5609	483.398	75.8412	483.398	79.1972	483.398	76.7931	483.398	78.8893	483.398	77.8873	483.398	78.7569	483.398	78.7224	483.398	78.8546	483.398	79.1713	483.398	79.0863	483.398	79.2544
499.512	84.1178	499.512	83.7878	499.512	84.2734	499.512	83.2993	499.512	84.2581	499.512	82.7014	499.512	84.0802	499.512	82.0747	499.512	83.746	499.512	81.5017	499.512	83.2615	499.512	81.0128	499.512	82.6412	499.512	80.5542	499.512	81.9234	499.512	80.0134	499.512	81.1885	499.512	79.2836	499.512	80.5562	499.512	78.3245	499.512	80.1225	499.512	77.2188	499.512	79.872	499.512	76.2439	499.512	79.692	499.512	75.8477	499.512	79.4875	499.512	76.2603	499.512	79.2645	499.512	77.1667	499.512	79.1109	499.512	78.0856	499.512	79.0867	499.512	78.74	499.512	79.1258	499.512	79.0628
517.09	83.6951	517.09	83.3382	517.09	83.8846	517.09	82.8645	517.09	83.8969	517.09	82.371	517.09	83.7463	517.09	81.9698	517.09	83.4597	517.09	81.7119	517.09	83.0709	517.09	81.5336	517.09	82.6139	517.09	81.2961	517.09	82.1132	517.09	80.8709	517.09	81.5726	517.09	80.1848	517.09	80.9771	517.09	79.2194	517.09	80.3103	517.09	78.033	517.09	79.5876	517.09	76.8966	517.09	78.8952	517.09	76.4139	517.09	78.4048	517.09	76.9563	517.09	78.2932	517.09	78.0324	517.09	78.5773	517.09	79.0037	517.09	79.0738	517.09	79.5909	517.09	79.532	517.09	79.7477
536.133	84.1104	536.133	83.7186	536.133	84.2081	536.133	83.0415	536.133	84.0225	536.133	82.1292	536.133	83.5786	536.133	81.1151	536.133	82.9168	536.133	80.2444	536.133	82.0978	536.133	79.7749	536.133	81.2133	536.133	79.7315	536.133	80.4042	536.133	79.8593	536.133	79.8479	536.133	79.8569	536.133	79.6484	536.133	79.5358	536.133	79.6968	536.133	78.8528	536.133	79.7178	536.133	77.9653	536.133	79.4655	536.133	77.3203	536.133	78.8911	536.133	77.42	536.133	78.267	536.133	78.1729	536.133	78.1035	536.133	79.016	536.133	78.558	536.133	79.5396	536.133	79.2026	536.133	79.5952
555.176	84.461	555.176	84.0668	555.176	84.5776	555.176	83.3602	555.176	84.4571	555.176	82.3393	555.176	84.1293	555.176	81.0796	555.176	83.6053	555.176	79.7896	555.176	82.8859	555.176	78.7973	555.176	81.9839	555.176	78.3277	555.176	80.9492	555.176	78.2646	555.176	79.8844	555.176	78.293	555.176	78.9659	555.176	78.1659	555.176	78.4363	555.176	77.7883	555.176	78.4066	555.176	77.2366	555.176	78.6145	555.176	76.8064	555.176	78.6431	555.176	76.8877	555.176	78.3463	555.176	77.5177	555.176	78.0272	555.176	78.2995	555.176	78.1392	555.176	78.8362	555.176	78.6021	555.176	78.9324
574.219	84.638	574.219	84.2743	574.219	84.7527	574.219	83.6743	574.219	84.6193	574.219	82.8655	574.219	84.2444	574.219	81.8811	574.219	83.6406	574.219	80.7566	574.219	82.8435	574.219	79.5694	574.219	81.9273	574.219	78.512	574.219	80.9833	574.219	77.8389	574.219	80.0602	574.219	77.5838	574.219	79.1522	574.219	77.4688	574.219	78.3045	574.219	77.2115	574.219	77.7243	574.219	76.7885	574.219	77.5905	574.219	76.5074	574.219	77.6867	574.219	76.7537	574.219	77.6306	574.219	77.4602	574.219	77.4081	574.219	78.176	574.219	77.432	574.219	78.537	574.219	77.8978	574.219	78.4061
594.727	84.4945	594.727	84.2265	594.727	84.4764	594.727	83.6729	594.727	84.2076	594.727	82.8934	594.727	83.7318	594.727	82.0053	594.727	83.0895	594.727	81.1278	594.727	82.3303	594.727	80.2902	594.727	81.5234	594.727	79.4227	594.727	80.7424	594.727	78.4861	594.727	80.0474	594.727	77.5896	594.727	79.4607	594.727	76.9128	594.727	78.9057	594.727	76.4792	594.727	78.2083	594.727	76.1819	594.727	77.3224	594.727	76.0851	594.727	76.6902	594.727	76.4614	594.727	76.9458	594.727	77.3407	594.727	77.8101	594.727	78.3217	594.727	78.602	594.727	79.0037	594.727	79.0876	594.727	79.2439
615.234	84.4539	615.234	84.1381	615.234	84.4985	615.234	83.5484	615.234	84.2848	615.234	82.7084	615.234	83.8247	615.234	81.6916	615.234	83.1329	615.234	80.6376	615.234	82.2466	615.234	79.6993	615.234	81.2392	615.234	78.9277	615.234	80.2119	615.234	78.2741	615.234	79.2713	615.234	77.7355	615.234	78.5237	615.234	77.3786	615.234	78.105	615.234	77.1942	615.234	78.0808	615.234	77.0795	615.234	78.1855	615.234	77.0529	615.234	77.9814	615.234	77.3174	615.234	77.4131	615.234	77.9252	615.234	77.1039	615.234	78.5972	615.234	77.6071	615.234	79.0076	615.234	78.4401	615.234	78.9712
637.207	85.4343	637.207	84.9596	637.207	85.5537	637.207	84.1482	637.207	85.3428	637.207	83.0705	637.207	84.845	637.207	81.8336	637.207	84.1106	637.207	80.567	637.207	83.2025	637.207	79.4235	637.207	82.1848	637.207	78.5483	637.207	81.0979	637.207	77.9719	637.207	79.9785	637.207	77.5441	637.207	78.9192	637.207	77.0548	637.207	78.0544	637.207	76.4414	637.207	77.4644	637.207	75.9362	637.207	77.1269	637.207	76.0157	637.207	76.8911	637.207	76.9159	637.207	76.6705	637.207	78.2539	637.207	76.8995	637.207	79.4551	637.207	78.0007	637.207	80.142	637.207	79.3285	637.207	80.1189
659.18	85.5407	659.18	85.2548	659.18	85.4771	659.18	84.6119	659.18	85.1033	659.18	83.68	659.18	84.4734	659.18	82.6212	659.18	83.6596	659.18	81.6134	659.18	82.7357	659.18	80.7107	659.18	81.7601	659.18	79.8403	659.18	80.7873	659.18	78.9817	659.18	79.8674	659.18	78.247	659.18	79.0389	659.18	77.6791	659.18	78.3451	659.18	77.1269	659.18	77.7455	659.18	76.5315	659.18	77.0139	659.18	76.2354	659.18	76.1249	659.18	76.6939	659.18	75.823	659.18	77.7116	659.18	76.639	659.18	78.6894	659.18	77.8269	659.18	79.2506	659.18	78.7652	659.18	79.2698
682.617	86.4642	682.617	86.2126	682.617	86.3751	682.617	85.5754	682.617	86.0285	682.617	84.596	682.617	85.4748	682.617	83.3989	682.617	84.7129	682.617	82.1253	682.617	83.7333	682.617	80.8739	682.617	82.5395	682.617	79.7521	682.617	81.1798	682.617	78.9263	682.617	79.9371	682.617	78.4232	682.617	79.3573	682.617	77.9953	682.617	79.4402	682.617	77.4404	682.617	79.4922	682.617	76.9488	682.617	79.0879	682.617	77.0624	682.617	78.2274	682.617	77.9849	682.617	77.0899	682.617	79.2272	682.617	76.4125	682.617	80.2327	682.617	77.3521	682.617	80.6666	682.617	79.1025	682.617	80.3206
707.52	86.7552	707.52	86.4419	707.52	86.6616	707.52	85.7285	707.52	86.2171	707.52	84.6777	707.52	85.5065	707.52	83.3709	707.52	84.5904	707.52	81.9145	707.52	83.4887	707.52	80.5659	707.52	82.2172	707.52	79.6661	707.52	80.8063	707.52	79.1095	707.52	79.3404	707.52	78.4918	707.52	78.1255	707.52	77.7262	707.52	77.4391	707.52	76.9647	707.52	77.0459	707.52	76.2265	707.52	76.66	707.52	75.6828	707.52	76.0706	707.52	76.2449	707.52	75.2307	707.52	78.1041	707.52	75.5795	707.52	80.0323	707.52	77.9422	707.52	81.1907	707.52	80.1804	707.52	81.2821
732.422	86.387	732.422	86.279	732.422	86.1874	732.422	85.831	732.422	85.7151	732.422	85.0508	732.422	84.9882	732.422	83.9802	732.422	84.0743	732.422	82.6686	732.422	83.1283	732.422	81.195	732.422	82.2331	732.422	79.7731	732.422	81.2156	732.422	78.7468	732.422	79.7642	732.422	78.2041	732.422	77.8863	732.422	77.8079	732.422	76.6504	732.422	77.297	732.422	76.973	732.422	76.7741	732.422	77.2833	732.422	76.497	732.422	76.6144	732.422	76.7603	732.422	75.7487	732.422	77.7574	732.422	75.697	732.422	79.1144	732.422	76.9433	732.422	80.0765	732.422	78.8658	732.422	80.0652
757.324	87.0002	757.324	86.9133	757.324	86.6268	757.324	86.304	757.324	85.9684	757.324	85.3049	757.324	85.1862	757.324	84.1858	757.324	84.3666	757.324	83.0878	757.324	83.5516	757.324	81.8772	757.324	82.7437	757.324	80.4573	757.324	81.8482	757.324	79.0897	757.324	80.6768	757.324	78.2446	757.324	79.1488	757.324	77.8845	757.324	77.7385	757.324	77.3847	757.324	77.4562	757.324	76.439	757.324	77.9456	757.324	75.8282	757.324	77.7938	757.324	76.7531	757.324	76.4989	757.324	78.4503	757.324	75.0638	757.324	79.8433	757.324	76.0428	757.324	80.5455	757.324	78.5584	757.324	80.2115
785.156	86.4676	785.156	86.4874	785.156	86.553	785.156	86.4651	785.156	86.4125	785.156	85.9942	785.156	85.6484	785.156	84.8008	785.156	84.2082	785.156	82.8649	785.156	82.4984	785.156	80.546	785.156	81.0745	785.156	78.6711	785.156	80	785.156	77.7486	785.156	78.9001	785.156	77.2948	785.156	77.6092	785.156	76.6825	785.156	76.6658	785.156	75.9111	785.156	76.2354	785.156	75.6348	785.156	75.588	785.156	75.7904	785.156	74.8632	785.156	75.93	785.156	74.2163	785.156	76.7435	785.156	74.3615	785.156	78.4597	785.156	76.1875	785.156	79.6256	785.156	78.1392	785.156	79.4415
811.523	86.2329	811.523	86.1214	811.523	86.0056	811.523	85.71	811.523	85.5541	811.523	85.1614	811.523	85.0122	811.523	84.4956	811.523	84.4375	811.523	83.5052	811.523	83.7746	811.523	82.2001	811.523	82.9049	811.523	81.0323	811.523	81.808	811.523	79.8371	811.523	80.454	811.523	77.8828	811.523	78.5517	811.523	75.4817	811.523	76.197	811.523	74.0135	811.523	75.6905	811.523	73.3643	811.523	76.9678	811.523	73.4763	811.523	76.7729	811.523	75.3375	811.523	74.0123	811.523	77.6913	811.523	71.4054	811.523	79.1628	811.523	74.6712	811.523	79.5225	811.523	77.4092	811.523	78.8888
840.82	86.2699	840.82	86.4118	840.82	85.8856	840.82	86.0999	840.82	85.344	840.82	85.2869	840.82	84.5034	840.82	84.1798	840.82	83.425	840.82	83.0989	840.82	82.5848	840.82	81.9744	840.82	82.2732	840.82	80.4597	840.82	82.1823	840.82	78.8513	840.82	81.8035	840.82	77.8246	840.82	80.6538	840.82	77.1077	840.82	78.5481	840.82	76.3323	840.82	76.2741	840.82	76.0061	840.82	75.3237	840.82	76.2214	840.82	74.7865	840.82	76.5315	840.82	73.7901	840.82	77.4058	840.82	74.0663	840.82	78.2476	840.82	75.3992	840.82	78.2065	840.82	76.4752	840.82	77.4329
870.117	86.6096	870.117	86.7805	870.117	85.8427	870.117	86.2636	870.117	84.8466	870.117	85.2853	870.117	83.8604	870.117	84.0118	870.117	82.9291	870.117	82.3877	870.117	82.1767	870.117	80.6214	870.117	81.7065	870.117	79.2324	870.117	81.2368	870.117	78.4437	870.117	80.2207	870.117	78.5929	870.117	78.516	870.117	79.1272	870.117	76.8874	870.117	78.3888	870.117	76.3194	870.117	75.8794	870.117	76.5967	870.117	74.3095	870.117	76.5828	870.117	75.905	870.117	74.9846	870.117	77.3692	870.117	72.0982	870.117	77.9945	870.117	73.3731	870.117	78.1816	870.117	76.4221	870.117	77.8746
900.879	85.3068	900.879	85.5815	900.879	84.9736	900.879	85.3823	900.879	84.482	900.879	84.6123	900.879	83.3209	900.879	83.4545	900.879	81.6689	900.879	81.8113	900.879	80.4365	900.879	79.4377	900.879	80.0088	900.879	77.2317	900.879	80.0198	900.879	76.406	900.879	80.0432	900.879	75.6812	900.879	79.2753	900.879	75.0515	900.879	76.9626	900.879	75.387	900.879	74.9622	900.879	75.3524	900.879	75.8577	900.879	73.5528	900.879	76.8264	900.879	71.4588	900.879	76.7345	900.879	74.3526	900.879	74.4514	900.879	77.4576	900.879	72.812	900.879	78.7073	900.879	75.9955	900.879	78.201
933.105	85.0824	933.105	84.9062	933.105	84.8608	933.105	84.3277	933.105	84.2204	933.105	83.4511	933.105	83.1474	933.105	82.2343	933.105	81.8917	933.105	80.4341	933.105	80.7574	933.105	78.1872	933.105	79.7682	933.105	75.8366	933.105	78.8851	933.105	73.074	933.105	78.277	933.105	70.3285	933.105	77.88	933.105	70.2926	933.105	76.9729	933.105	72.1111	933.105	75.7227	933.105	73.2794	933.105	75.4336	933.105	73.4365	933.105	74.6188	933.105	73.1694	933.105	73.464	933.105	73.7165	933.105	73.3405	933.105	74.7931	933.105	72.4918	933.105	75.6687	933.105	74.5446	933.105	76.0228
965.332	84.5729	965.332	84.6421	965.332	83.9748	965.332	84.1433	965.332	83.1127	965.332	83.1815	965.332	82.0401	965.332	81.6968	965.332	80.7611	965.332	79.4647	965.332	79.6645	965.332	76.6303	965.332	79.0272	965.332	74.934	965.332	78.613	965.332	75.1001	965.332	77.9723	965.332	75.0189	965.332	76.6782	965.332	73.7714	965.332	75.1054	965.332	72.1666	965.332	74.4528	965.332	70.1799	965.332	74.1953	965.332	68.8648	965.332	73.1853	965.332	70.9482	965.332	71.0412	965.332	73.5873	965.332	71.202	965.332	75.4156	965.332	73.3858	965.332	76.692	965.332	74.7257	965.332	76.3252
1,000.49	83.2618	1,000.49	83.7863	1,000.49	82.9054	1,000.49	83.5494	1,000.49	82.4711	1,000.49	82.2736	1,000.49	81.1566	1,000.49	80.303	1,000.49	79.7238	1,000.49	77.9677	1,000.49	78.9831	1,000.49	75.5134	1,000.49	78.0128	1,000.49	73.2537	1,000.49	76.8719	1,000.49	71.3473	1,000.49	76.6362	1,000.49	70.0652	1,000.49	76.6966	1,000.49	69.4774	1,000.49	75.2313	1,000.49	69.9513	1,000.49	72.6358	1,000.49	71.6923	1,000.49	73.5793	1,000.49	72.6211	1,000.49	74.133	1,000.49	72.2153	1,000.49	71.7893	1,000.49	72.5798	1,000.49	67.1024	1,000.49	73.9242	1,000.49	67.6035	1,000.49	75.4731	1,000.49	73.9237	1,000.49	76.0581
1,035.64	83.694	1,035.64	84.0359	1,035.64	83.5217	1,035.64	83.9648	1,035.64	82.7061	1,035.64	82.9867	1,035.64	80.7267	1,035.64	81.3692	1,035.64	78.7264	1,035.64	79.1238	1,035.64	77.6148	1,035.64	75.3932	1,035.64	76.7028	1,035.64	70.7437	1,035.64	75.3639	1,035.64	68.1595	1,035.64	73.9862	1,035.64	65.3667	1,035.64	73.3934	1,035.64	65.0453	1,035.64	73.0642	1,035.64	68.9933	1,035.64	72.1112	1,035.64	70.4767	1,035.64	72.7981	1,035.64	70.6478	1,035.64	74.826	1,035.64	70.9889	1,035.64	74.0524	1,035.64	72.3369	1,035.64	68.8861	1,035.64	73.8614	1,035.64	66.1957	1,035.64	74.6758	1,035.64	71.7162	1,035.64	74.2611
1,072.27	83.0462	1,072.27	82.8315	1,072.27	82.9722	1,072.27	82.667	1,072.27	81.8407	1,072.27	82.0117	1,072.27	80.1577	1,072.27	80.4798	1,072.27	79.1073	1,072.27	77.9289	1,072.27	78.1522	1,072.27	74.7138	1,072.27	76.7201	1,072.27	72.0526	1,072.27	75.1317	1,072.27	70.2983	1,072.27	73.8025	1,072.27	68.2895	1,072.27	73.7397	1,072.27	65.4886	1,072.27	73.282	1,072.27	62.7714	1,072.27	70.0621	1,072.27	64.3824	1,072.27	68.3803	1,072.27	68.749	1,072.27	71.4002	1,072.27	70.6988	1,072.27	72.1523	1,072.27	72.2956	1,072.27	69.9853	1,072.27	73.6931	1,072.27	65.1252	1,072.27	74.4115	1,072.27	69.5478	1,072.27	73.5037
1,108.89	83.0679	1,108.89	82.7601	1,108.89	83.0525	1,108.89	82.5483	1,108.89	82.0146	1,108.89	81.8402	1,108.89	80.2276	1,108.89	80.3299	1,108.89	78.6306	1,108.89	78.7503	1,108.89	77.0496	1,108.89	76.8934	1,108.89	75.4022	1,108.89	73.548	1,108.89	73.8963	1,108.89	70.698	1,108.89	72.2244	1,108.89	71.0748	1,108.89	71.8798	1,108.89	70.4418	1,108.89	72.7193	1,108.89	67.9078	1,108.89	71.6138	1,108.89	67.0319	1,108.89	67.9684	1,108.89	67.1392	1,108.89	70.6156	1,108.89	67.8448	1,108.89	73.0579	1,108.89	69.7577	1,108.89	70.5467	1,108.89	71.7272	1,108.89	64.828	1,108.89	72.884	1,108.89	70.5486	1,108.89	72.991
1,148.44	83.3883	1,148.44	83.6713	1,148.44	82.776	1,148.44	83.0343	1,148.44	81.7694	1,148.44	81.1986	1,148.44	80.0362	1,148.44	78.9321	1,148.44	77.8676	1,148.44	77.0038	1,148.44	76.3673	1,148.44	75.2409	1,148.44	76.1913	1,148.44	73.7566	1,148.44	75.5699	1,148.44	71.8997	1,148.44	73.489	1,148.44	69.7223	1,148.44	71.2437	1,148.44	69.0775	1,148.44	70.4446	1,148.44	67.7712	1,148.44	69.8779	1,148.44	64.7273	1,148.44	70.1176	1,148.44	63.5529	1,148.44	69.6961	1,148.44	64.3139	1,148.44	69.6937	1,148.44	68.4868	1,148.44	70.1303	1,148.44	72.0824	1,148.44	65.8588	1,148.44	73.613	1,148.44	67.3648	1,148.44	72.488
1,189.45	83.8564	1,189.45	83.5301	1,189.45	83.2551	1,189.45	82.7303	1,189.45	81.3174	1,189.45	81.2971	1,189.45	79.0037	1,189.45	79.063	1,189.45	77.4371	1,189.45	76.5769	1,189.45	76.0055	1,189.45	74.1473	1,189.45	74.8395	1,189.45	71.753	1,189.45	73.8265	1,189.45	70.4158	1,189.45	72.6791	1,189.45	69.4861	1,189.45	71.7584	1,189.45	69.3107	1,189.45	70.7076	1,189.45	69.2638	1,189.45	69.8237	1,189.45	68.1009	1,189.45	66.2959	1,189.45	67.5996	1,189.45	59.3516	1,189.45	66.0736	1,189.45	69.9666	1,189.45	64.7889	1,189.45	69.7276	1,189.45	69.9631	1,189.45	63.9981	1,189.45	72.1467	1,189.45	69.8361	1,189.45	72.3452
1,230.47	84.0374	1,230.47	83.7355	1,230.47	83.2393	1,230.47	82.9586	1,230.47	80.9627	1,230.47	81.6844	1,230.47	78.734	1,230.47	79.4111	1,230.47	76.6381	1,230.47	76.0129	1,230.47	73.8138	1,230.47	72.5463	1,230.47	73.4389	1,230.47	70.3836	1,230.47	73.9869	1,230.47	68.2505	1,230.47	73.7289	1,230.47	65.9401	1,230.47	72.3032	1,230.47	66.766	1,230.47	70.0633	1,230.47	67.3419	1,230.47	68.462	1,230.47	67.2412	1,230.47	65.9378	1,230.47	68.0547	1,230.47	67.7525	1,230.47	67.5507	1,230.47	68.669	1,230.47	65.7061	1,230.47	70.8113	1,230.47	68.9324	1,230.47	69.0294	1,230.47	73.0161	1,230.47	68.9119	1,230.47	73.927
1,274.41	83.6459	1,274.41	83.8203	1,274.41	82.5645	1,274.41	83.1861	1,274.41	80.4556	1,274.41	81.5952	1,274.41	78.0105	1,274.41	79.0646	1,274.41	75.5715	1,274.41	76.2207	1,274.41	73.7877	1,274.41	74.0955	1,274.41	73.7541	1,274.41	71.9381	1,274.41	74.3219	1,274.41	69.4823	1,274.41	73.5316	1,274.41	67.4701	1,274.41	71.9403	1,274.41	63.5184	1,274.41	70.6308	1,274.41	62.5164	1,274.41	69.9932	1,274.41	66.2068	1,274.41	71.0289	1,274.41	68.1384	1,274.41	68.5919	1,274.41	67.5523	1,274.41	63.0985	1,274.41	65.2282	1,274.41	68.3672	1,274.41	67.7125	1,274.41	67.9191	1,274.41	71.7697	1,274.41	67.6497	1,274.41	72.2673
1,319.82	83.4307	1,319.82	83.8406	1,319.82	82.1101	1,319.82	83.1856	1,319.82	80.3221	1,319.82	81.5767	1,319.82	78.1563	1,319.82	79.4229	1,319.82	75.3706	1,319.82	76.6337	1,319.82	74.6358	1,319.82	72.776	1,319.82	74.6352	1,319.82	66.3606	1,319.82	74.5806	1,319.82	65.1122	1,319.82	74.764	1,319.82	67.8601	1,319.82	73.3543	1,319.82	67.31	1,319.82	71.0729	1,319.82	65.4557	1,319.82	69.3513	1,319.82	63.6848	1,319.82	68.5805	1,319.82	65.8123	1,319.82	69.3871	1,319.82	64.5439	1,319.82	67.6629	1,319.82	61.8303	1,319.82	67.817	1,319.82	69.628	1,319.82	67.3491	1,319.82	72.3913	1,319.82	67.7163	1,319.82	71.1653
1,366.7	83.3096	1,366.7	83.6162	1,366.7	82.2	1,366.7	83.063	1,366.7	80.3584	1,366.7	81.0886	1,366.7	77.8129	1,366.7	78.2533	1,366.7	74.8818	1,366.7	76.2118	1,366.7	74.1632	1,366.7	74.0995	1,366.7	74.7143	1,366.7	69.3112	1,366.7	75.4416	1,366.7	56.1377	1,366.7	75.5716	1,366.7	61.5753	1,366.7	74.0454	1,366.7	62.7987	1,366.7	71.4945	1,366.7	61.5432	1,366.7	67.5675	1,366.7	65.1124	1,366.7	66.8248	1,366.7	69.4734	1,366.7	68.3217	1,366.7	69.3083	1,366.7	65.5191	1,366.7	64.4619	1,366.7	66.7597	1,366.7	66.8715	1,366.7	69.6362	1,366.7	71.9561	1,366.7	67.9297	1,366.7	71.8103
1,413.57	83.1453	1,413.57	83.4023	1,413.57	81.9925	1,413.57	82.7884	1,413.57	80.0725	1,413.57	81.3137	1,413.57	77.3158	1,413.57	79.5179	1,413.57	74.0738	1,413.57	77.3453	1,413.57	74.0886	1,413.57	74.6488	1,413.57	73.7498	1,413.57	70.9912	1,413.57	73.2569	1,413.57	62.1598	1,413.57	74.1988	1,413.57	48.126	1,413.57	73.9412	1,413.57	55.7664	1,413.57	71.925	1,413.57	60.4218	1,413.57	70.1988	1,413.57	58.1001	1,413.57	68.0079	1,413.57	64.6971	1,413.57	66.1591	1,413.57	70.3621	1,413.57	65.0202	1,413.57	67.7276	1,413.57	66.8287	1,413.57	64.9703	1,413.57	65.3979	1,413.57	70.6223	1,413.57	68.9974	1,413.57	72.5494
1,463.38	84.2534	1,463.38	84.1407	1,463.38	82.8707	1,463.38	82.8783	1,463.38	80.2539	1,463.38	80.8068	1,463.38	76.7174	1,463.38	77.9836	1,463.38	73.5399	1,463.38	74.5732	1,463.38	72.2892	1,463.38	71.7496	1,463.38	72.3416	1,463.38	69.0438	1,463.38	73.9409	1,463.38	62.1106	1,463.38	75.0196	1,463.38	60.6686	1,463.38	74.1923	1,463.38	64.2842	1,463.38	73.3382	1,463.38	46.0652	1,463.38	72.1951	1,463.38	57.7072	1,463.38	69.7648	1,463.38	62.5811	1,463.38	64.9553	1,463.38	66.8327	1,463.38	62.1561	1,463.38	67.5306	1,463.38	65.6671	1,463.38	65.8203	1,463.38	65.7221	1,463.38	69.8266	1,463.38	67.2253	1,463.38	70.922
1,516.11	84.6648	1,516.11	84.5305	1,516.11	83.2754	1,516.11	83.3573	1,516.11	79.9336	1,516.11	80.5933	1,516.11	76.4452	1,516.11	76.6594	1,516.11	74.3941	1,516.11	73.9505	1,516.11	72.9918	1,516.11	69.0995	1,516.11	73.4949	1,516.11	62.5839	1,516.11	74.5607	1,516.11	65.5461	1,516.11	76.0538	1,516.11	50.3239	1,516.11	76.1443	1,516.11	60.5763	1,516.11	73.7285	1,516.11	63.757	1,516.11	70.5889	1,516.11	56.2384	1,516.11	68.9813	1,516.11	56.3148	1,516.11	69.0724	1,516.11	63.8794	1,516.11	59.7293	1,516.11	66.4415	1,516.11	65.8897	1,516.11	64.5092	1,516.11	64.9001	1,516.11	70.915	1,516.11	70.6656	1,516.11	72.9082
1,568.85	84.7023	1,568.85	84.6577	1,568.85	83.1718	1,568.85	83.2068	1,568.85	80.884	1,568.85	81.2846	1,568.85	76.2147	1,568.85	78.4477	1,568.85	73.4682	1,568.85	72.585	1,568.85	74.2508	1,568.85	60.7454	1,568.85	73.625	1,568.85	58.1634	1,568.85	73.6393	1,568.85	63.9382	1,568.85	74.6517	1,568.85	52.7654	1,568.85	74.5848	1,568.85	53.059	1,568.85	73.0395	1,568.85	61.2361	1,568.85	70.9669	1,568.85	53.8883	1,568.85	68.4099	1,568.85	53.3818	1,568.85	69.5664	1,568.85	64.5635	1,568.85	66.7533	1,568.85	69.4927	1,568.85	63.6898	1,568.85	66.5617	1,568.85	66.4885	1,568.85	70.3407	1,568.85	68.3043	1,568.85	72.8834
1,624.51	83.7152	1,624.51	84.4136	1,624.51	82.1762	1,624.51	82.9497	1,624.51	79.3643	1,624.51	80.2769	1,624.51	72.8708	1,624.51	76.3155	1,624.51	75.0063	1,624.51	67.8583	1,624.51	75.4633	1,624.51	65.7392	1,624.51	72.3851	1,624.51	54.9869	1,624.51	71.4719	1,624.51	62.4151	1,624.51	74.6216	1,624.51	65.8735	1,624.51	75.1604	1,624.51	49.1829	1,624.51	73.474	1,624.51	60.128	1,624.51	70.1562	1,624.51	52.2334	1,624.51	70.6882	1,624.51	64.0035	1,624.51	70.9396	1,624.51	54.8616	1,624.51	64.688	1,624.51	65.4538	1,624.51	62.6306	1,624.51	65.736	1,624.51	64.8406	1,624.51	68.3884	1,624.51	67.9309	1,624.51	70.3419
1,681.64	83.7097	1,681.64	83.9405	1,681.64	82.6013	1,681.64	82.9409	1,681.64	78.137	1,681.64	79.6768	1,681.64	76.1899	1,681.64	75.5561	1,681.64	74.7631	1,681.64	70.8483	1,681.64	77.3679	1,681.64	71.4822	1,681.64	75.22	1,681.64	70.2535	1,681.64	71.2883	1,681.64	65.2251	1,681.64	74.4978	1,681.64	56.1055	1,681.64	75.1787	1,681.64	55.1644	1,681.64	74.926	1,681.64	62.123	1,681.64	73.8103	1,681.64	56.2049	1,681.64	74.487	1,681.64	65.2477	1,681.64	71.738	1,681.64	54.3763	1,681.64	69.2417	1,681.64	64.333	1,681.64	66.4942	1,681.64	66.8384	1,681.64	60.0767	1,681.64	67.7748	1,681.64	60.5345	1,681.64	69.4478
1,741.7	85.3801	1,741.7	84.2325	1,741.7	83.874	1,741.7	82.5935	1,741.7	79.3897	1,741.7	79.6169	1,741.7	74.9661	1,741.7	73.9963	1,741.7	75.0316	1,741.7	70.0813	1,741.7	76.7576	1,741.7	66.8341	1,741.7	77.0993	1,741.7	65.8837	1,741.7	75.5659	1,741.7	65.5353	1,741.7	75.2943	1,741.7	67.9273	1,741.7	75.4475	1,741.7	62.5078	1,741.7	74.4583	1,741.7	61.085	1,741.7	72.9507	1,741.7	58.8588	1,741.7	71.6612	1,741.7	65.5502	1,741.7	72.4988	1,741.7	64.817	1,741.7	69.204	1,741.7	54.3385	1,741.7	67.4495	1,741.7	65.4856	1,741.7	62.3662	1,741.7	70.8311	1,741.7	67.5004	1,741.7	70.7715
1,803.22	86.1059	1,803.22	85.1422	1,803.22	84.2768	1,803.22	82.5921	1,803.22	80.4823	1,803.22	80.4021	1,803.22	73.9222	1,803.22	74.6014	1,803.22	75.4395	1,803.22	69.1342	1,803.22	78.2063	1,803.22	67.8768	1,803.22	78.0512	1,803.22	64.5415	1,803.22	75.0011	1,803.22	61.5339	1,803.22	72.1311	1,803.22	57.7496	1,803.22	74.328	1,803.22	68.6288	1,803.22	75.1904	1,803.22	60.7687	1,803.22	73.8413	1,803.22	66.871	1,803.22	72.8175	1,803.22	57.9962	1,803.22	75.5503	1,803.22	59.6323	1,803.22	67.591	1,803.22	66.048	1,803.22	71.0817	1,803.22	62.2983	1,803.22	65.4335	1,803.22	70.5142	1,803.22	71.0617	1,803.22	71.8789
1,866.21	85.9324	1,866.21	85.4957	1,866.21	84.5984	1,866.21	83.2287	1,866.21	80.2807	1,866.21	77.8931	1,866.21	75.1858	1,866.21	67.7028	1,866.21	79.5364	1,866.21	70.689	1,866.21	79.7546	1,866.21	66.2015	1,866.21	78.3976	1,866.21	62.9123	1,866.21	76.3791	1,866.21	63.7523	1,866.21	72.6162	1,866.21	55.5124	1,866.21	71.8802	1,866.21	60.1924	1,866.21	76.0464	1,866.21	59.8218	1,866.21	75.2362	1,866.21	58.1566	1,866.21	74.6064	1,866.21	68.4482	1,866.21	74.3397	1,866.21	68.8877	1,866.21	70.7016	1,866.21	64.0251	1,866.21	68.212	1,866.21	63.1561	1,866.21	55.3104	1,866.21	69.8507	1,866.21	70.3785	1,866.21	72.7478
1,932.13	85.1108	1,932.13	83.5695	1,932.13	83.7653	1,932.13	80.6727	1,932.13	78.8436	1,932.13	78.832	1,932.13	70.4649	1,932.13	72.7605	1,932.13	78.3273	1,932.13	63.6649	1,932.13	80.4191	1,932.13	64.9396	1,932.13	79.146	1,932.13	66.7823	1,932.13	77.5436	1,932.13	59.6803	1,932.13	75.6837	1,932.13	66.3431	1,932.13	73.6881	1,932.13	66.3092	1,932.13	75.4326	1,932.13	65.7644	1,932.13	74.6979	1,932.13	59.3075	1,932.13	71.3688	1,932.13	62.0067	1,932.13	73.0054	1,932.13	63.5686	1,932.13	69.4314	1,932.13	61.0414	1,932.13	71.6563	1,932.13	66.2361	1,932.13	59.6959	1,932.13	69.249	1,932.13	70.2248	1,932.13	70.3788
1,999.51	85.5081	1,999.51	83.0566	1,999.51	84.1149	1,999.51	80.4044	1,999.51	77.5152	1,999.51	77.5659	1,999.51	71.569	1,999.51	68.9147	1,999.51	78.314	1,999.51	57.9063	1,999.51	80.025	1,999.51	61.5495	1,999.51	79.5803	1,999.51	64.9456	1,999.51	77.7498	1,999.51	66.712	1,999.51	77.0489	1,999.51	64.493	1,999.51	71.3182	1,999.51	52.3762	1,999.51	71.6905	1,999.51	68.7429	1,999.51	73.3995	1,999.51	66.6369	1,999.51	71.7761	1,999.51	60.7849	1,999.51	71.2562	1,999.51	67.8313	1,999.51	70.6344	1,999.51	63.6861	1,999.51	69.5351	1,999.51	57.5786	1,999.51	61.4434	1,999.51	63.0177	1,999.51	71.5818	1,999.51	71.9609
2,069.82	85.8853	2,069.82	83.6458	2,069.82	85.0239	2,069.82	80.428	2,069.82	78.3416	2,069.82	72.8457	2,069.82	72.092	2,069.82	63.008	2,069.82	78.2491	2,069.82	50.3112	2,069.82	80.5292	2,069.82	61.7756	2,069.82	79.7726	2,069.82	65.4786	2,069.82	76.8241	2,069.82	69.1318	2,069.82	77.1026	2,069.82	71.1672	2,069.82	74.5824	2,069.82	71.4068	2,069.82	69.9843	2,069.82	62.8106	2,069.82	70.8787	2,069.82	69.8318	2,069.82	70.5738	2,069.82	63.9837	2,069.82	69.8848	2,069.82	66.8088	2,069.82	67.5355	2,069.82	63.1382	2,069.82	69.3818	2,069.82	56.2694	2,069.82	60.9338	2,069.82	62.9961	2,069.82	72.6137	2,069.82	71.8075
2,143.07	84.8403	2,143.07	84.008	2,143.07	84.6504	2,143.07	80.1251	2,143.07	78.3088	2,143.07	71.1087	2,143.07	72.4226	2,143.07	63.7686	2,143.07	79.2337	2,143.07	63.6047	2,143.07	80.4183	2,143.07	71.888	2,143.07	79.6839	2,143.07	74.2497	2,143.07	76.0949	2,143.07	69.5626	2,143.07	76.075	2,143.07	68.5813	2,143.07	75.0341	2,143.07	73.1012	2,143.07	66.5093	2,143.07	68.6686	2,143.07	71.1472	2,143.07	69.8672	2,143.07	70.6457	2,143.07	68.498	2,143.07	68.2436	2,143.07	66.6843	2,143.07	66.1386	2,143.07	66.3559	2,143.07	67.3972	2,143.07	59.4722	2,143.07	53.0678	2,143.07	64.0989	2,143.07	73.4639	2,143.07	72.6199
2,219.24	84.7878	2,219.24	83.3282	2,219.24	83.7009	2,219.24	79.1297	2,219.24	76.9758	2,219.24	75.2362	2,219.24	74.7774	2,219.24	45.7131	2,219.24	80.5534	2,219.24	73.6302	2,219.24	80.7093	2,219.24	75.5052	2,219.24	80.3589	2,219.24	75.4854	2,219.24	76.3133	2,219.24	75.6404	2,219.24	69.4927	2,219.24	73.9764	2,219.24	74.0315	2,219.24	73.1362	2,219.24	71.4725	2,219.24	72.1102	2,219.24	71.0956	2,219.24	69.5722	2,219.24	69.9344	2,219.24	70.9907	2,219.24	72.3376	2,219.24	67.6991	2,219.24	66.363	2,219.24	65.7025	2,219.24	66.5263	2,219.24	53.1738	2,219.24	63.3404	2,219.24	64.9892	2,219.24	73.7058	2,219.24	73.013
2,296.88	85.6977	2,296.88	83.0663	2,296.88	84.1837	2,296.88	78.5674	2,296.88	76.5001	2,296.88	73.8545	2,296.88	74.159	2,296.88	68.8941	2,296.88	79.945	2,296.88	75.839	2,296.88	81.145	2,296.88	77.7131	2,296.88	80.1224	2,296.88	77.8544	2,296.88	77.984	2,296.88	76.683	2,296.88	72.2364	2,296.88	76.1318	2,296.88	73.4193	2,296.88	74.9986	2,296.88	71.3011	2,296.88	73.7862	2,296.88	69.746	2,296.88	69.395	2,296.88	70.0165	2,296.88	72.8744	2,296.88	72.5787	2,296.88	69.0572	2,296.88	70.0073	2,296.88	67.1591	2,296.88	66.9108	2,296.88	56.9475	2,296.88	65.7858	2,296.88	66.3307	2,296.88	74.0609	2,296.88	72.8176
2,378.91	85.6243	2,378.91	83.3713	2,378.91	84.468	2,378.91	80.1553	2,378.91	76.4483	2,378.91	71.4896	2,378.91	74.6728	2,378.91	73.663	2,378.91	79.9385	2,378.91	76.9794	2,378.91	80.6226	2,378.91	78.8559	2,378.91	79.4375	2,378.91	75.5457	2,378.91	79.2208	2,378.91	76.3225	2,378.91	77.1722	2,378.91	75.5161	2,378.91	78.4851	2,378.91	72.0242	2,378.91	76.6338	2,378.91	75.9441	2,378.91	66.3127	2,378.91	71.2242	2,378.91	70.565	2,378.91	72.8862	2,378.91	73.4288	2,378.91	71.3645	2,378.91	71.9046	2,378.91	69.408	2,378.91	64.398	2,378.91	52.4183	2,378.91	65.056	2,378.91	68.3713	2,378.91	75.3511	2,378.91	73.6832
2,462.4	84.0527	2,462.4	82.9069	2,462.4	82.8314	2,462.4	80.9287	2,462.4	74.2169	2,462.4	75.5305	2,462.4	72.0498	2,462.4	75.3845	2,462.4	78.7992	2,462.4	79.7724	2,462.4	80.9934	2,462.4	78.8327	2,462.4	81.0488	2,462.4	80.0012	2,462.4	79.2175	2,462.4	78.9274	2,462.4	75.0601	2,462.4	71.799	2,462.4	77.2789	2,462.4	75.3128	2,462.4	77.6799	2,462.4	73.2686	2,462.4	72.2236	2,462.4	73.7123	2,462.4	70.5125	2,462.4	71.013	2,462.4	73.4417	2,462.4	73.058	2,462.4	73.8086	2,462.4	66.9397	2,462.4	67.0898	2,462.4	60.8691	2,462.4	70.3477	2,462.4	68.3866	2,462.4	74.232	2,462.4	73.6012
2,548.83	83.2694	2,548.83	82.6469	2,548.83	82.2099	2,548.83	80.4538	2,548.83	71.8312	2,548.83	77.906	2,548.83	71.7039	2,548.83	76.2101	2,548.83	76.8588	2,548.83	81.0355	2,548.83	80.2851	2,548.83	81.3214	2,548.83	81.6496	2,548.83	80.354	2,548.83	78.7123	2,548.83	79.138	2,548.83	79.7712	2,548.83	78.4236	2,548.83	79.6883	2,548.83	75.7863	2,548.83	77.4296	2,548.83	73.7368	2,548.83	69.9027	2,548.83	73.2819	2,548.83	70.6029	2,548.83	70.9091	2,548.83	71.1392	2,548.83	71.3202	2,548.83	76.0362	2,548.83	69.786	2,548.83	70.7042	2,548.83	63.3861	2,548.83	68.4073	2,548.83	67.4545	2,548.83	73.6693	2,548.83	73.8553
2,639.65	81.6499	2,639.65	82.6294	2,639.65	81.1647	2,639.65	80.8429	2,639.65	76.8583	2,639.65	76.8352	2,639.65	67.3976	2,639.65	79.0936	2,639.65	78.2754	2,639.65	81.6141	2,639.65	82.2884	2,639.65	81.4504	2,639.65	83.9325	2,639.65	79.7504	2,639.65	80.2709	2,639.65	76.0774	2,639.65	78.3252	2,639.65	76.4663	2,639.65	79.38	2,639.65	71.7861	2,639.65	76.7925	2,639.65	74.2587	2,639.65	66.8389	2,639.65	70.0829	2,639.65	71.3376	2,639.65	72.0827	2,639.65	70.1546	2,639.65	70.5868	2,639.65	76.0133	2,639.65	69.2652	2,639.65	72.1866	2,639.65	59.3299	2,639.65	70.2683	2,639.65	68.2464	2,639.65	73.4042	2,639.65	73.8652
2,731.93	82.1519	2,731.93	82.8252	2,731.93	79.9222	2,731.93	82.4849	2,731.93	77.9868	2,731.93	74.5996	2,731.93	57.9658	2,731.93	81.5252	2,731.93	79.3672	2,731.93	81.3303	2,731.93	83.6404	2,731.93	81.2766	2,731.93	83.7804	2,731.93	75.7235	2,731.93	81.2645	2,731.93	75.7282	2,731.93	77.76	2,731.93	72.5575	2,731.93	76.3747	2,731.93	73.1378	2,731.93	69.8537	2,731.93	71.1706	2,731.93	69.9815	2,731.93	72.8899	2,731.93	70.9147	2,731.93	69.679	2,731.93	73.4696	2,731.93	71.0505	2,731.93	74.4383	2,731.93	68.6468	2,731.93	67.2964	2,731.93	60.2471	2,731.93	67.4536	2,731.93	66.4848	2,731.93	72.7065	2,731.93	71.0479
2,828.61	81.7778	2,828.61	84.1537	2,828.61	78.8833	2,828.61	81.0619	2,828.61	75.986	2,828.61	78.2415	2,828.61	63.294	2,828.61	82.5743	2,828.61	78.8978	2,828.61	82.4232	2,828.61	84.6181	2,828.61	78.9589	2,828.61	84.1009	2,828.61	77.341	2,828.61	83.9265	2,828.61	75.0736	2,828.61	80.3832	2,828.61	75.611	2,828.61	72.4418	2,828.61	73.1067	2,828.61	66.6723	2,828.61	72.7156	2,828.61	74.431	2,828.61	68.7391	2,828.61	72.7192	2,828.61	69.6138	2,828.61	69.3532	2,828.61	69.4664	2,828.61	72.3659	2,828.61	67.1987	2,828.61	67.6502	2,828.61	57.2109	2,828.61	67.2118	2,828.61	68.4455	2,828.61	73.3029	2,828.61	68.8735
2,928.22	81.7636	2,928.22	84.3954	2,928.22	78.8098	2,928.22	78.7166	2,928.22	76.5845	2,928.22	81.0729	2,928.22	69.5126	2,928.22	82.316	2,928.22	78.0894	2,928.22	80.7693	2,928.22	84.8025	2,928.22	77.2372	2,928.22	84.9747	2,928.22	78.9533	2,928.22	83.9299	2,928.22	75.7961	2,928.22	79.3283	2,928.22	73.3552	2,928.22	69.9988	2,928.22	72.3997	2,928.22	76.633	2,928.22	71.7325	2,928.22	77.4047	2,928.22	71.0492	2,928.22	71.627	2,928.22	69.2994	2,928.22	70.0354	2,928.22	71.063	2,928.22	69.0747	2,928.22	70.0625	2,928.22	67.5444	2,928.22	66.591	2,928.22	63.6649	2,928.22	65.2503	2,928.22	73.5545	2,928.22	68.7103
3,030.76	82.5131	3,030.76	83.1782	3,030.76	77.1012	3,030.76	78.9716	3,030.76	77.5887	3,030.76	82.281	3,030.76	76.3055	3,030.76	82.545	3,030.76	79.3465	3,030.76	79.8978	3,030.76	84.5875	3,030.76	80.506	3,030.76	85.5926	3,030.76	78.8192	3,030.76	84.8786	3,030.76	77.0753	3,030.76	78.9932	3,030.76	76.3862	3,030.76	78.0234	3,030.76	75.4521	3,030.76	79.0984	3,030.76	74.6248	3,030.76	76.137	3,030.76	72.4097	3,030.76	68.5634	3,030.76	71.743	3,030.76	71.1978	3,030.76	72.2034	3,030.76	68.7175	3,030.76	70.4362	3,030.76	63.2747	3,030.76	65.4803	3,030.76	65.3484	3,030.76	67.4175	3,030.76	72.6111	3,030.76	67.1688
3,137.7	82.9974	3,137.7	82.7398	3,137.7	75.1054	3,137.7	80.7946	3,137.7	77.5793	3,137.7	82.77	3,137.7	80.7056	3,137.7	81.8504	3,137.7	80.1237	3,137.7	80.3139	3,137.7	84.6834	3,137.7	80.9478	3,137.7	85.7127	3,137.7	78.994	3,137.7	85.3011	3,137.7	80.24	3,137.7	80.6461	3,137.7	78.0405	3,137.7	81.0005	3,137.7	75.5499	3,137.7	79.2178	3,137.7	73.5319	3,137.7	72.4662	3,137.7	72.8389	3,137.7	67.2209	3,137.7	69.7265	3,137.7	72.2821	3,137.7	72.3589	3,137.7	65.7501	3,137.7	70.0697	3,137.7	56.2452	3,137.7	66.6637	3,137.7	61.5775	3,137.7	68.2178	3,137.7	72.7519	3,137.7	71.8445
3,249.02	83.26	3,249.02	80.4188	3,249.02	79.5651	3,249.02	81.9714	3,249.02	77.678	3,249.02	82.3448	3,249.02	81.4978	3,249.02	80.9864	3,249.02	80.8034	3,249.02	82.1702	3,249.02	84.7273	3,249.02	81.4427	3,249.02	85.3212	3,249.02	81.0588	3,249.02	86.0423	3,249.02	77.8294	3,249.02	82.8031	3,249.02	72.1957	3,249.02	81.5431	3,249.02	73.8281	3,249.02	77.5015	3,249.02	71.8655	3,249.02	67.8436	3,249.02	72.937	3,249.02	69.4685	3,249.02	68.0786	3,249.02	73.1556	3,249.02	72.3402	3,249.02	66.7286	3,249.02	70.4724	3,249.02	57.6937	3,249.02	68.5306	3,249.02	64.449	3,249.02	67.2515	3,249.02	71.6714	3,249.02	68.9812
3,363.28	81.9622	3,363.28	79.7615	3,363.28	82.1051	3,363.28	81.4463	3,363.28	78.0805	3,363.28	81.7592	3,363.28	82.5521	3,363.28	81.8041	3,363.28	81.5061	3,363.28	82.9541	3,363.28	84.0375	3,363.28	81.4394	3,363.28	86.4474	3,363.28	79.078	3,363.28	85.546	3,363.28	74.6271	3,363.28	83.8605	3,363.28	76.2837	3,363.28	81.4116	3,363.28	74.2393	3,363.28	75.7862	3,363.28	70.9695	3,363.28	70.6232	3,363.28	70.6518	3,363.28	71.6666	3,363.28	68.732	3,363.28	73.2161	3,363.28	70.6418	3,363.28	69.3327	3,363.28	69.5424	3,363.28	64.5695	3,363.28	66.8654	3,363.28	51.3191	3,363.28	65.1818	3,363.28	70.712	3,363.28	67.085
3,481.93	82.4843	3,481.93	81.1597	3,481.93	83.0755	3,481.93	82.4523	3,481.93	79.9322	3,481.93	81.1949	3,481.93	83.6029	3,481.93	82.4202	3,481.93	81.7506	3,481.93	83.3562	3,481.93	84.3478	3,481.93	81.4658	3,481.93	87.6393	3,481.93	76.4914	3,481.93	84.9891	3,481.93	77.3046	3,481.93	84.6644	3,481.93	70.636	3,481.93	78.4013	3,481.93	70.217	3,481.93	67.4484	3,481.93	67.8054	3,481.93	73.0808	3,481.93	69.1336	3,481.93	74.4043	3,481.93	67.9878	3,481.93	72.3797	3,481.93	68.0707	3,481.93	71.011	3,481.93	66.3586	3,481.93	59.062	3,481.93	60.3567	3,481.93	52.7454	3,481.93	66.4329	3,481.93	71.3434	3,481.93	68.5373
3,604.98	82.0135	3,604.98	81.657	3,604.98	83.1282	3,604.98	82.6803	3,604.98	81.9138	3,604.98	81.2368	3,604.98	84.3105	3,604.98	84.2006	3,604.98	82.513	3,604.98	82.1436	3,604.98	83.791	3,604.98	76.6282	3,604.98	88.0381	3,604.98	73.9315	3,604.98	85.7164	3,604.98	71.8041	3,604.98	81.0807	3,604.98	74.6871	3,604.98	69.6441	3,604.98	72.8526	3,604.98	70.7461	3,604.98	69.987	3,604.98	69.8537	3,604.98	68.1125	3,604.98	74.4229	3,604.98	65.739	3,604.98	70.8134	3,604.98	67.4463	3,604.98	71.0228	3,604.98	69.1788	3,604.98	59.5672	3,604.98	63.7614	3,604.98	60.8969	3,604.98	63.8976	3,604.98	71.2923	3,604.98	69.9699
3,732.42	80.6539	3,732.42	83.207	3,732.42	82.2036	3,732.42	81.2587	3,732.42	82.6848	3,732.42	82.9862	3,732.42	85.5867	3,732.42	83.8128	3,732.42	83.4971	3,732.42	79.1867	3,732.42	84.09	3,732.42	77.0602	3,732.42	87.3225	3,732.42	77.0196	3,732.42	85.4329	3,732.42	78.0582	3,732.42	81.5641	3,732.42	76.1906	3,732.42	72.9511	3,732.42	73.5351	3,732.42	77.0233	3,732.42	73.2784	3,732.42	66.7363	3,732.42	69.3674	3,732.42	73.4569	3,732.42	68.4799	3,732.42	73.7282	3,732.42	62.7341	3,732.42	70.9497	3,732.42	69.7718	3,732.42	66.9017	3,732.42	63.6732	3,732.42	58.3826	3,732.42	62.2089	3,732.42	71.9459	3,732.42	69.6175
3,864.26	82.6776	3,864.26	83.2917	3,864.26	82.9249	3,864.26	79.1596	3,864.26	82.5749	3,864.26	83.8667	3,864.26	86.8417	3,864.26	83.4614	3,864.26	84.176	3,864.26	80.3541	3,864.26	83.6939	3,864.26	81.0163	3,864.26	86.3566	3,864.26	81.6185	3,864.26	84.1924	3,864.26	78.4624	3,864.26	79.0101	3,864.26	74.323	3,864.26	74.9155	3,864.26	74.9273	3,864.26	68.8017	3,864.26	71.2143	3,864.26	54.9882	3,864.26	72.8949	3,864.26	74.1452	3,864.26	66.7764	3,864.26	74.8552	3,864.26	66.5288	3,864.26	68.7365	3,864.26	68.9738	3,864.26	69.8214	3,864.26	58.2792	3,864.26	55.0906	3,864.26	56.6114	3,864.26	73.1217	3,864.26	71.4448
4,000.49	84.8835	4,000.49	81.6718	4,000.49	84.3953	4,000.49	82.016	4,000.49	83.6261	4,000.49	86.6284	4,000.49	86.2519	4,000.49	83.1008	4,000.49	83.2395	4,000.49	83.3642	4,000.49	81.8876	4,000.49	82.5476	4,000.49	85.0229	4,000.49	80.8959	4,000.49	80.1609	4,000.49	75.1441	4,000.49	76.7969	4,000.49	75.3295	4,000.49	73.9573	4,000.49	72.4416	4,000.49	73.3721	4,000.49	71.3707	4,000.49	69.1042	4,000.49	70.1392	4,000.49	75.6596	4,000.49	68.1771	4,000.49	74.4085	4,000.49	67.195	4,000.49	69.1976	4,000.49	68.1264	4,000.49	66.5494	4,000.49	55.8447	4,000.49	66.5803	4,000.49	59.7556	4,000.49	72.724	4,000.49	71.2311
4,141.11	86.5309	4,141.11	84.5505	4,141.11	86.4622	4,141.11	85.3562	4,141.11	84.9658	4,141.11	86.3979	4,141.11	87.4574	4,141.11	83.2187	4,141.11	84.3411	4,141.11	84.436	4,141.11	81.3563	4,141.11	82.1347	4,141.11	83.9761	4,141.11	78.6058	4,141.11	78.2156	4,141.11	76.9269	4,141.11	77.7517	4,141.11	72.622	4,141.11	77.452	4,141.11	71.223	4,141.11	76.8843	4,141.11	71.0539	4,141.11	73.1219	4,141.11	69.3027	4,141.11	73.3623	4,141.11	68.7317	4,141.11	70.2194	4,141.11	67.184	4,141.11	71.3957	4,141.11	65.8427	4,141.11	64.5492	4,141.11	61.1529	4,141.11	65.866	4,141.11	65.3142	4,141.11	72.6163	4,141.11	71.4176
4,287.6	86.918	4,287.6	85.6564	4,287.6	88.1807	4,287.6	86.7301	4,287.6	86.5263	4,287.6	85.0476	4,287.6	87.1043	4,287.6	84.8161	4,287.6	85.2376	4,287.6	84.298	4,287.6	79.6884	4,287.6	80.4092	4,287.6	78.4763	4,287.6	77.6051	4,287.6	78.4019	4,287.6	73.9485	4,287.6	78.7971	4,287.6	76.8285	4,287.6	77.3139	4,287.6	73.9136	4,287.6	74.5787	4,287.6	72.7679	4,287.6	71.0318	4,287.6	67.4862	4,287.6	66.9261	4,287.6	69.0944	4,287.6	72.3578	4,287.6	68.2289	4,287.6	72.2098	4,287.6	66.4648	4,287.6	64.3446	4,287.6	65.7094	4,287.6	65.223	4,287.6	62.9566	4,287.6	73.0706	4,287.6	70.9089
4,438.48	87.647	4,438.48	85.8938	4,438.48	87.8088	4,438.48	86.7765	4,438.48	88.1782	4,438.48	85.9152	4,438.48	87.36	4,438.48	86.1182	4,438.48	84.4679	4,438.48	82.7865	4,438.48	75.5724	4,438.48	79.2724	4,438.48	73.0532	4,438.48	78.5201	4,438.48	79.1401	4,438.48	78.7779	4,438.48	78.865	4,438.48	74.3803	4,438.48	71.3026	4,438.48	74.1305	4,438.48	66.7105	4,438.48	74.0573	4,438.48	64.0115	4,438.48	70.8644	4,438.48	64.2466	4,438.48	69.9853	4,438.48	74.3063	4,438.48	69.4309	4,438.48	67.0601	4,438.48	67.4282	4,438.48	67.3382	4,438.48	66.4095	4,438.48	65.12	4,438.48	61.6459	4,438.48	73.8323	4,438.48	69.5642
4,595.21	88.1789	4,595.21	87.596	4,595.21	87.7986	4,595.21	87.2543	4,595.21	87.5133	4,595.21	85.236	4,595.21	86.9149	4,595.21	85.7706	4,595.21	83.2818	4,595.21	81.715	4,595.21	72.1259	4,595.21	81.3867	4,595.21	75.3691	4,595.21	81.0229	4,595.21	80.6107	4,595.21	77.1642	4,595.21	77.4513	4,595.21	76.1987	4,595.21	70.0018	4,595.21	74.4224	4,595.21	64.974	4,595.21	72.6553	4,595.21	68.2235	4,595.21	71.2163	4,595.21	64.5934	4,595.21	70.0418	4,595.21	75.0458	4,595.21	68.0963	4,595.21	64.3968	4,595.21	69.5037	4,595.21	69.3104	4,595.21	67.7638	4,595.21	64.1686	4,595.21	61.4387	4,595.21	72.0605	4,595.21	65.7208
4,756.35	87.7223	4,756.35	87.5202	4,756.35	87.5894	4,756.35	86.3786	4,756.35	87.7385	4,756.35	86.6147	4,756.35	86.2253	4,756.35	86.0165	4,756.35	83.7567	4,756.35	82.082	4,756.35	67.6392	4,756.35	82.7129	4,756.35	80.6552	4,756.35	80.1334	4,756.35	81.5337	4,756.35	78.174	4,756.35	76.9299	4,756.35	73.8335	4,756.35	72.6325	4,756.35	71.4959	4,756.35	68.6535	4,756.35	71.5834	4,756.35	70.6322	4,756.35	67.4872	4,756.35	66.4886	4,756.35	70.2369	4,756.35	74.1744	4,756.35	67.3289	4,756.35	68.4964	4,756.35	67.7496	4,756.35	67.6581	4,756.35	65.0586	4,756.35	66.3748	4,756.35	51.7887	4,756.35	70.0393	4,756.35	64.555
4,924.8	88.3376	4,924.8	87.6197	4,924.8	88.0417	4,924.8	86.1826	4,924.8	87.8063	4,924.8	88.2656	4,924.8	86.1373	4,924.8	83.7474	4,924.8	84.7514	4,924.8	83.9025	4,924.8	74.4158	4,924.8	80.665	4,924.8	83.2831	4,924.8	78.3341	4,924.8	80.3403	4,924.8	70.3866	4,924.8	75.8468	4,924.8	72.7932	4,924.8	74.2125	4,924.8	70.9343	4,924.8	68.9327	4,924.8	67.9018	4,924.8	71.0472	4,924.8	67.4557	4,924.8	61.5252	4,924.8	69.6498	4,924.8	71.0741	4,924.8	65.8145	4,924.8	68.1557	4,924.8	67.6192	4,924.8	67.0385	4,924.8	67.0966	4,924.8	63.4637	4,924.8	65.3213	4,924.8	67.2892	4,924.8	66.2797
5,097.66	88.2333	5,097.66	86.9754	5,097.66	87.9154	5,097.66	87.308	5,097.66	88.5108	5,097.66	87.8365	5,097.66	87.6472	5,097.66	84.1187	5,097.66	84.5713	5,097.66	84.4923	5,097.66	79.0331	5,097.66	78.8284	5,097.66	83.271	5,097.66	76.4813	5,097.66	79.7026	5,097.66	75.6801	5,097.66	79.3573	5,097.66	73.8979	5,097.66	74.9769	5,097.66	73.0074	5,097.66	70.1463	5,097.66	71.0492	5,097.66	70.4329	5,097.66	69.263	5,097.66	45.5421	5,097.66	69.7946	5,097.66	65.5038	5,097.66	68.4686	5,097.66	64.8433	5,097.66	69.8906	5,097.66	65.3457	5,097.66	70.5955	5,097.66	59.8842	5,097.66	68.044	5,097.66	66.9203	5,097.66	61.6611
5,277.83	88.0575	5,277.83	86.826	5,277.83	87.5614	5,277.83	87.9245	5,277.83	88.5903	5,277.83	87.8185	5,277.83	88.7256	5,277.83	85.31	5,277.83	85.3158	5,277.83	83.2479	5,277.83	81.3286	5,277.83	79.2259	5,277.83	80.7465	5,277.83	80.4284	5,277.83	80.2058	5,277.83	77.2	5,277.83	80.3374	5,277.83	76.2404	5,277.83	77.0327	5,277.83	73.4059	5,277.83	76.1453	5,277.83	72.9302	5,277.83	73.2271	5,277.83	70.3216	5,277.83	66.2534	5,277.83	70.1442	5,277.83	69.0897	5,277.83	68.8731	5,277.83	65.2428	5,277.83	70.5906	5,277.83	65.1055	5,277.83	68.9171	5,277.83	65.9038	5,277.83	57.1236	5,277.83	64.9205	5,277.83	62.7634
5,463.87	89.0502	5,463.87	86.1568	5,463.87	86.4876	5,463.87	87.9377	5,463.87	88.3314	5,463.87	85.7164	5,463.87	87.7101	5,463.87	85.9415	5,463.87	86.3048	5,463.87	82.2568	5,463.87	84.9038	5,463.87	82.5396	5,463.87	78.0451	5,463.87	81.1137	5,463.87	80.9296	5,463.87	77.5645	5,463.87	80.4317	5,463.87	72.4928	5,463.87	76.5048	5,463.87	70.4292	5,463.87	76.0644	5,463.87	68.9981	5,463.87	72.7865	5,463.87	69.9291	5,463.87	67.6808	5,463.87	67.7445	5,463.87	69.7995	5,463.87	66.8299	5,463.87	67.1926	5,463.87	69.2876	5,463.87	63.0808	5,463.87	69.6802	5,463.87	69.0176	5,463.87	63.0029	5,463.87	64.8689	5,463.87	59.7687
5,657.23	88.7954	5,657.23	86.5798	5,657.23	87.0374	5,657.23	88.2846	5,657.23	87.0966	5,657.23	86.7141	5,657.23	85.8466	5,657.23	85.7923	5,657.23	87.0455	5,657.23	83.0452	5,657.23	84.9573	5,657.23	82.3734	5,657.23	74.9928	5,657.23	75.548	5,657.23	83.8276	5,657.23	70.4979	5,657.23	80.8083	5,657.23	71.3974	5,657.23	75.4223	5,657.23	68.9023	5,657.23	74.2166	5,657.23	67.6681	5,657.23	71.8956	5,657.23	66.0181	5,657.23	52.1863	5,657.23	64.8691	5,657.23	69.2374	5,657.23	66.2137	5,657.23	63.8474	5,657.23	68.4369	5,657.23	63.2714	5,657.23	65.9133	5,657.23	67.0592	5,657.23	67.0217	5,657.23	66.5609	5,657.23	60.0704
5,856.45	87.6101	5,856.45	87.014	5,856.45	87.0797	5,856.45	87.0539	5,856.45	87.4103	5,856.45	87.9215	5,856.45	83.8011	5,856.45	83.8201	5,856.45	86.9532	5,856.45	84.7851	5,856.45	84.8413	5,856.45	75.6993	5,856.45	76.055	5,856.45	77.0184	5,856.45	83.6659	5,856.45	75.9238	5,856.45	82.8775	5,856.45	74.1674	5,856.45	76.468	5,856.45	73.3997	5,856.45	71.6733	5,856.45	70.618	5,856.45	76.9567	5,856.45	70.7049	5,856.45	61.014	5,856.45	67.6146	5,856.45	70.8563	5,856.45	68.3172	5,856.45	65.1453	5,856.45	70.8878	5,856.45	64.0901	5,856.45	70.8759	5,856.45	66.84	5,856.45	69.4455	5,856.45	67.3537	5,856.45	58.0022
6,062.99	86.4853	6,062.99	86.035	6,062.99	87.2292	6,062.99	86.7028	6,062.99	88.6346	6,062.99	87.1603	6,062.99	85.7972	6,062.99	84.6313	6,062.99	86.4094	6,062.99	83.5717	6,062.99	84.3769	6,062.99	80.9203	6,062.99	78.3278	6,062.99	80.7203	6,062.99	83.3118	6,062.99	78.2711	6,062.99	81.7779	6,062.99	72.7873	6,062.99	76.3228	6,062.99	72.2692	6,062.99	68.5241	6,062.99	70.1661	6,062.99	76.1788	6,062.99	70.4126	6,062.99	62.8767	6,062.99	68.6341	6,062.99	66.093	6,062.99	68.3643	6,062.99	55.289	6,062.99	69.3967	6,062.99	60.9192	6,062.99	72.0341	6,062.99	67.3231	6,062.99	69.9584	6,062.99	65.8418	6,062.99	62.3408
6,276.86	86.3738	6,276.86	84.8845	6,276.86	86.3614	6,276.86	85.6495	6,276.86	87.1774	6,276.86	85.7348	6,276.86	86.2942	6,276.86	84.9777	6,276.86	84.216	6,276.86	81.876	6,276.86	83.865	6,276.86	82.9367	6,276.86	75.063	6,276.86	77.3565	6,276.86	81.1394	6,276.86	73.8304	6,276.86	78.0035	6,276.86	69.7031	6,276.86	73.3731	6,276.86	68.6704	6,276.86	61.6152	6,276.86	68.6368	6,276.86	72.862	6,276.86	67.5648	6,276.86	58.3261	6,276.86	65.7347	6,276.86	53.3903	6,276.86	67.5057	6,276.86	51.5172	6,276.86	68.3487	6,276.86	55.7964	6,276.86	70.6211	6,276.86	68.0959	6,276.86	69.1716	6,276.86	63.772	6,276.86	59.1544
6,498.05	85.0768	6,498.05	82.8017	6,498.05	84.171	6,498.05	84.5298	6,498.05	82.3658	6,498.05	85.2258	6,498.05	84.6904	6,498.05	83.8154	6,498.05	82.9965	6,498.05	82.654	6,498.05	84.0253	6,498.05	80.5058	6,498.05	75.9971	6,498.05	73.929	6,498.05	77.3758	6,498.05	73.182	6,498.05	72.2611	6,498.05	71.4342	6,498.05	72.4278	6,498.05	70.4015	6,498.05	68.6682	6,498.05	68.1868	6,498.05	58.163	6,498.05	68.0637	6,498.05	48.9053	6,498.05	66.5294	6,498.05	51.6712	6,498.05	67.1699	6,498.05	54.3393	6,498.05	66.0157	6,498.05	54.5885	6,498.05	71.6965	6,498.05	65.3826	6,498.05	68.279	6,498.05	63.3158	6,498.05	52.0919
6,726.56	85.3357	6,726.56	83.6272	6,726.56	85.9937	6,726.56	83.3949	6,726.56	83.5727	6,726.56	84.836	6,726.56	81.4029	6,726.56	83.0378	6,726.56	83.4536	6,726.56	82.586	6,726.56	85.3614	6,726.56	78.4706	6,726.56	77.1985	6,726.56	77.2771	6,726.56	75.3964	6,726.56	74.2151	6,726.56	67.5865	6,726.56	70.9345	6,726.56	68.138	6,726.56	69.1682	6,726.56	56.3119	6,726.56	67.5819	6,726.56	48.0959	6,726.56	65.8539	6,726.56	44.8935	6,726.56	64.1798	6,726.56	56.1582	6,726.56	66.7995	6,726.56	53.7281	6,726.56	65.131	6,726.56	45.6221	6,726.56	68.9478	6,726.56	64.1539	6,726.56	69.6463	6,726.56	64.0858	6,726.56	53.0515
6,963.87	84.4151	6,963.87	83.9662	6,963.87	85.012	6,963.87	83.7806	6,963.87	83.152	6,963.87	83.8202	6,963.87	81.5864	6,963.87	83.075	6,963.87	84.9577	6,963.87	81.6992	6,963.87	85.3779	6,963.87	79.1961	6,963.87	77.2851	6,963.87	76.7841	6,963.87	71.4848	6,963.87	70.301	6,963.87	71.6303	6,963.87	67.0577	6,963.87	71.0132	6,963.87	63.9019	6,963.87	61.8439	6,963.87	63.5473	6,963.87	58.7123	6,963.87	63.1984	6,963.87	57.77	6,963.87	62.1988	6,963.87	57.6122	6,963.87	64.068	6,963.87	59.7019	6,963.87	62.0265	6,963.87	44.7409	6,963.87	67.2863	6,963.87	66.3267	6,963.87	66.587	6,963.87	61.7092	6,963.87	37.6513
7,209.96	85.2193	7,209.96	83.8935	7,209.96	83.8118	7,209.96	82.6938	7,209.96	80.9033	7,209.96	83.177	7,209.96	83.6221	7,209.96	83.6653	7,209.96	84.2971	7,209.96	80.3419	7,209.96	84.9123	7,209.96	78.6533	7,209.96	75.6009	7,209.96	70.6932	7,209.96	73.9536	7,209.96	70.2526	7,209.96	71.5877	7,209.96	69.2399	7,209.96	69.7309	7,209.96	67.537	7,209.96	51.573	7,209.96	64.9486	7,209.96	60.6725	7,209.96	66.3213	7,209.96	58.6561	7,209.96	63.0978	7,209.96	59.3141	7,209.96	63.3825	7,209.96	54.3287	7,209.96	63.804	7,209.96	55.4566	7,209.96	67.0786	7,209.96	63.3366	7,209.96	66.1366	7,209.96	59.5045	7,209.96	46.9694
7,464.84	85.2803	7,464.84	83.1697	7,464.84	84.4146	7,464.84	81.2061	7,464.84	81.003	7,464.84	83.0772	7,464.84	83.7438	7,464.84	82.9691	7,464.84	83.7086	7,464.84	80.3589	7,464.84	84.4684	7,464.84	77.1978	7,464.84	74.5414	7,464.84	75.2539	7,464.84	76.7713	7,464.84	72.639	7,464.84	67.3566	7,464.84	70.0979	7,464.84	68.5065	7,464.84	66.8061	7,464.84	56.8353	7,464.84	65.5827	7,464.84	60.2247	7,464.84	65.2835	7,464.84	54.2876	7,464.84	63.6941	7,464.84	54.7379	7,464.84	63.5369	7,464.84	59.7875	7,464.84	64.0794	7,464.84	57.1026	7,464.84	67.8699	7,464.84	58.9354	7,464.84	67.4602	7,464.84	57.625	7,464.84	47.3163
7,727.05	85.4491	7,727.05	84.1139	7,727.05	84.3633	7,727.05	81.5929	7,727.05	81.7229	7,727.05	83.116	7,727.05	82.3537	7,727.05	81.8425	7,727.05	82.9712	7,727.05	79.8539	7,727.05	83.2643	7,727.05	77.9033	7,727.05	77.2005	7,727.05	75.2907	7,727.05	76.4349	7,727.05	69.7564	7,727.05	67.4743	7,727.05	67.6602	7,727.05	67.9849	7,727.05	63.0814	7,727.05	65.8434	7,727.05	63.1112	7,727.05	66.1335	7,727.05	62.0407	7,727.05	56.5521	7,727.05	62.6232	7,727.05	48.8617	7,727.05	61.2136	7,727.05	58.5827	7,727.05	61.3937	7,727.05	52.6923	7,727.05	66.8858	7,727.05	59.2709	7,727.05	67.1105	7,727.05	60.4775	7,727.05	36.9665
7,999.51	86.1631	7,999.51	85.1615	7,999.51	84.0328	7,999.51	83.0433	7,999.51	81.6727	7,999.51	82.7366	7,999.51	82.34	7,999.51	82.0474	7,999.51	82.6336	7,999.51	79.6939	7,999.51	80.0243	7,999.51	77.843	7,999.51	78.2309	7,999.51	71.4225	7,999.51	71.6726	7,999.51	71.504	7,999.51	73.5827	7,999.51	67.8937	7,999.51	61.2563	7,999.51	66.6689	7,999.51	64.8755	7,999.51	63.8373	7,999.51	66.1999	7,999.51	61.2935	7,999.51	58.4667	7,999.51	64.2184	7,999.51	55.5198	7,999.51	61.7185	7,999.51	59.8766	7,999.51	61.4771	7,999.51	49.5423	7,999.51	66.9873	7,999.51	62.1624	7,999.51	66.4618	7,999.51	60.3638	7,999.51	54.391
8,282.23	86.124	8,282.23	86.1516	8,282.23	84.1943	8,282.23	83.3789	8,282.23	82.5604	8,282.23	82.0012	8,282.23	83.6536	8,282.23	81.513	8,282.23	81.8369	8,282.23	79.8756	8,282.23	75.8674	8,282.23	77.0381	8,282.23	77.326	8,282.23	74.6953	8,282.23	54.9316	8,282.23	71.7781	8,282.23	75.8593	8,282.23	65.6368	8,282.23	61.894	8,282.23	66.3765	8,282.23	65.9075	8,282.23	62.4511	8,282.23	68.7014	8,282.23	60.5713	8,282.23	60.2199	8,282.23	63.3278	8,282.23	57.8512	8,282.23	61.2148	8,282.23	58.6159	8,282.23	62.1674	8,282.23	54.2976	8,282.23	65.1033	8,282.23	59.7496	8,282.23	64.6729	8,282.23	53.902	8,282.23	52.1718
8,573.73	86.015	8,573.73	86.3221	8,573.73	84.517	8,573.73	83.3587	8,573.73	84.1307	8,573.73	82.3244	8,573.73	83.7489	8,573.73	80.934	8,573.73	79.4783	8,573.73	79.1733	8,573.73	76.9408	8,573.73	77.243	8,573.73	75.0355	8,573.73	73.1278	8,573.73	72.342	8,573.73	67.096	8,573.73	73.5753	8,573.73	65.7994	8,573.73	58.8128	8,573.73	63.6822	8,573.73	58.0301	8,573.73	59.8522	8,573.73	66.0118	8,573.73	60.4707	8,573.73	59.915	8,573.73	59.7843	8,573.73	54.3529	8,573.73	58.053	8,573.73	57.3871	8,573.73	56.456	8,573.73	54.5363	8,573.73	62.5356	8,573.73	54.6278	8,573.73	64.4978	8,573.73	58.3443	8,573.73	55.3214
8,876.95	86.264	8,876.95	86.659	8,876.95	85.432	8,876.95	84.481	8,876.95	84.7322	8,876.95	82.3783	8,876.95	82.6598	8,876.95	80.4003	8,876.95	76.1477	8,876.95	78.7885	8,876.95	79.2115	8,876.95	76.3222	8,876.95	74.5414	8,876.95	70.9653	8,876.95	71.8546	8,876.95	69.1634	8,876.95	67.1019	8,876.95	65.6748	8,876.95	62.5645	8,876.95	62.487	8,876.95	58.4114	8,876.95	61.2526	8,876.95	56.5761	8,876.95	59.2604	8,876.95	57.2846	8,876.95	56.257	8,876.95	51.4104	8,876.95	58.2846	8,876.95	48.9105	8,876.95	56.1034	8,876.95	42.9038	8,876.95	61.707	8,876.95	53.5614	8,876.95	63.0441	8,876.95	53.0127	8,876.95	53.5103
9,188.96	86.0233	9,188.96	86.9837	9,188.96	85.8622	9,188.96	85.0456	9,188.96	85.8121	9,188.96	81.7764	9,188.96	81.0798	9,188.96	80.3439	9,188.96	75.5997	9,188.96	77.8212	9,188.96	78.8032	9,188.96	74.837	9,188.96	75.7102	9,188.96	70.4739	9,188.96	67.364	9,188.96	66.0399	9,188.96	68.0047	9,188.96	62.3664	9,188.96	59.2091	9,188.96	58.1083	9,188.96	57.5554	9,188.96	58.8709	9,188.96	55.7677	9,188.96	53.9733	9,188.96	48.9457	9,188.96	56.7137	9,188.96	36.3678	9,188.96	58.7285	9,188.96	53.1051	9,188.96	53.8335	9,188.96	47.9564	9,188.96	59.8208	9,188.96	52.2315	9,188.96	60.4756	9,188.96	55.0005	9,188.96	49.0395
9,514.16	85.9341	9,514.16	87.1378	9,514.16	86.4364	9,514.16	84.8803	9,514.16	85.9692	9,514.16	82.2465	9,514.16	82.3979	9,514.16	79.2343	9,514.16	77.634	9,514.16	76.7903	9,514.16	77.5944	9,514.16	73.7971	9,514.16	75.3107	9,514.16	67.5974	9,514.16	68.0453	9,514.16	65.9157	9,514.16	70.0738	9,514.16	61.7774	9,514.16	63.6405	9,514.16	60.0718	9,514.16	60.5508	9,514.16	54.5736	9,514.16	52.9081	9,514.16	53.5793	9,514.16	57.5823	9,514.16	56.4179	9,514.16	50.6575	9,514.16	56.6209	9,514.16	53.1834	9,514.16	54.7881	9,514.16	39.8592	9,514.16	57.8352	9,514.16	44.5394	9,514.16	60.4229	9,514.16	53.1381	9,514.16	42.3591
9,849.61	85.9669	9,849.61	86.7541	9,849.61	86.3773	9,849.61	85.0457	9,849.61	85.7684	9,849.61	82.5016	9,849.61	82.1239	9,849.61	78.6175	9,849.61	77.5163	9,849.61	75.9539	9,849.61	75.8479	9,849.61	72.2999	9,849.61	73.8304	9,849.61	66.8193	9,849.61	68.1912	9,849.61	63.1637	9,849.61	69.2449	9,849.61	57.0233	9,849.61	64.4614	9,849.61	55.4412	9,849.61	55.5086	9,849.61	52.4393	9,849.61	54.9226	9,849.61	52.6342	9,849.61	59.8296	9,849.61	54.0137	9,849.61	45.724	9,849.61	53.1891	9,849.61	47.602	9,849.61	50.0388	9,849.61	43.9617	9,849.61	56.2666	9,849.61	41.8603	9,849.61	58.3543	9,849.61	54.4091	9,849.61	44.9657
10,196.8	85.7037	10,196.8	86.5834	10,196.8	86.4564	10,196.8	85.3364	10,196.8	85.7137	10,196.8	82.003	10,196.8	81.2199	10,196.8	79.0057	10,196.8	78.0472	10,196.8	74.1684	10,196.8	77.2812	10,196.8	71.1729	10,196.8	71.6279	10,196.8	63.6518	10,196.8	69.0932	10,196.8	62.1055	10,196.8	64.939	10,196.8	59.2237	10,196.8	65.5057	10,196.8	55.2822	10,196.8	61.4037	10,196.8	56.3453	10,196.8	52.1107	10,196.8	50.7504	10,196.8	53.6733	10,196.8	54.7171	10,196.8	48.9334	10,196.8	53.7835	10,196.8	42.3835	10,196.8	52.0388	10,196.8	48.1824	10,196.8	52.4963	10,196.8	39.1696	10,196.8	54.9512	10,196.8	52.8486	10,196.8	47.9878
10,555.7	85.0511	10,555.7	86.2137	10,555.7	85.9866	10,555.7	84.7649	10,555.7	85.0934	10,555.7	82.2677	10,555.7	81.3325	10,555.7	78.5401	10,555.7	79.5211	10,555.7	73.5956	10,555.7	77.0541	10,555.7	69.9586	10,555.7	69.3916	10,555.7	64.0299	10,555.7	70.0692	10,555.7	60.9791	10,555.7	61.6448	10,555.7	55.1954	10,555.7	63.541	10,555.7	52.7857	10,555.7	59.1821	10,555.7	54.7651	10,555.7	54.6863	10,555.7	52.6938	10,555.7	51.3285	10,555.7	53.1377	10,555.7	46.7411	10,555.7	53.1181	10,555.7	43.8811	10,555.7	48.6617	10,555.7	51.2552	10,555.7	43.0978	10,555.7	47.6096	10,555.7	53.6606	10,555.7	50.4936	10,555.7	45.6548
10,927.7	84.4815	10,927.7	85.2545	10,927.7	85.3091	10,927.7	83.9826	10,927.7	84.7618	10,927.7	81.6197	10,927.7	81.4472	10,927.7	78.2537	10,927.7	79.2927	10,927.7	72.6931	10,927.7	74.9777	10,927.7	69.1125	10,927.7	70.1362	10,927.7	60.7481	10,927.7	69.5091	10,927.7	56.7887	10,927.7	61.1779	10,927.7	51.3025	10,927.7	58.4325	10,927.7	50.1673	10,927.7	59.1471	10,927.7	54.2291	10,927.7	54.776	10,927.7	53.0162	10,927.7	42.512	10,927.7	50.8748	10,927.7	48.3527	10,927.7	53.7804	10,927.7	43.6582	10,927.7	50.652	10,927.7	53.1462	10,927.7	38.4738	10,927.7	49.8134	10,927.7	54.5205	10,927.7	43.0817	10,927.7	49.095
11,313	84.0925	11,313	84.8086	11,313	84.2825	11,313	83.2594	11,313	83.1954	11,313	80.8586	11,313	80.9985	11,313	77.5532	11,313	77.0734	11,313	72.3303	11,313	73.303	11,313	67.3546	11,313	71.1561	11,313	61.0671	11,313	68.2344	11,313	57.2217	11,313	63.3832	11,313	54.0042	11,313	62.1111	11,313	51.0337	11,313	59.3108	11,313	54.0274	11,313	55.232	11,313	51.6288	11,313	44.8533	11,313	51.7568	11,313	41.8966	11,313	52.2397	11,313	50.9924	11,313	51.8163	11,313	50.1083	11,313	46.5823	11,313	47.2448	11,313	53.433	11,313	46.437	11,313	45.9366
11,712.9	83.5708	11,712.9	84.2595	11,712.9	83.8721	11,712.9	82.5947	11,712.9	82.2818	11,712.9	79.7244	11,712.9	79.9311	11,712.9	77.0376	11,712.9	76.3803	11,712.9	71.9142	11,712.9	72.7502	11,712.9	68.0049	11,712.9	71.9187	11,712.9	61.9426	11,712.9	71.2444	11,712.9	58.1497	11,712.9	63.5014	11,712.9	55.8794	11,712.9	61.1301	11,712.9	54.4187	11,712.9	59.8339	11,712.9	53.2425	11,712.9	57.7459	11,712.9	53.0623	11,712.9	47.1422	11,712.9	55.9219	11,712.9	39.7297	11,712.9	51.1122	11,712.9	54.3811	11,712.9	52.8284	11,712.9	52.9575	11,712.9	48.6333	11,712.9	51.213	11,712.9	51.9491	11,712.9	49.5043	11,712.9	47.3519
12,126	83.328	12,126	83.0745	12,126	83.6061	12,126	81.722	12,126	80.6576	12,126	77.9567	12,126	79.9923	12,126	76.1373	12,126	74.5942	12,126	72.1236	12,126	72.7955	12,126	68.3907	12,126	71.893	12,126	63.1189	12,126	71.4586	12,126	60.6902	12,126	59.2242	12,126	57.9713	12,126	58.6224	12,126	54.3372	12,126	60.3683	12,126	51.7166	12,126	59.1421	12,126	52.6071	12,126	52.2791	12,126	55.8929	12,126	45.5935	12,126	51.2208	12,126	52.1243	12,126	52.9528	12,126	55.4546	12,126	53.1454	12,126	52.621	12,126	52.0361	12,126	48.1516	12,126	49.7195
12,553.7	83.629	12,553.7	82.6058	12,553.7	83.3209	12,553.7	81.2313	12,553.7	79.6222	12,553.7	77.8298	12,553.7	78.7685	12,553.7	75.3175	12,553.7	72.6469	12,553.7	72.5661	12,553.7	74.4959	12,553.7	70.1931	12,553.7	73.0984	12,553.7	62.5442	12,553.7	70.4072	12,553.7	61.2764	12,553.7	55.4277	12,553.7	57.3098	12,553.7	56.1686	12,553.7	53.7742	12,553.7	58.0234	12,553.7	51.815	12,553.7	57.7335	12,553.7	52.0814	12,553.7	49.8615	12,553.7	53.9415	12,553.7	44.0131	12,553.7	46.0972	12,553.7	33.093	12,553.7	51.2019	12,553.7	54.1909	12,553.7	52.5798	12,553.7	52.3106	12,553.7	50.3305	12,553.7	44.6939	12,553.7	46.1238
12,996.1	85.0162	12,996.1	83.1732	12,996.1	83.8498	12,996.1	81.8186	12,996.1	80.6001	12,996.1	78.3119	12,996.1	79.7456	12,996.1	75.3799	12,996.1	75.7629	12,996.1	72.9093	12,996.1	73.8441	12,996.1	69.8316	12,996.1	73.4826	12,996.1	62.4992	12,996.1	68.5952	12,996.1	60.5251	12,996.1	57.3346	12,996.1	55.8468	12,996.1	56.2435	12,996.1	55.0855	12,996.1	54.4265	12,996.1	47.2534	12,996.1	55.0346	12,996.1	51.794	12,996.1	52.3756	12,996.1	52.8781	12,996.1	52.1001	12,996.1	41.645	12,996.1	34.8658	12,996.1	45.4652	12,996.1	53.789	12,996.1	53.0203	12,996.1	53.0844	12,996.1	51.4027	12,996.1	51.6709	12,996.1	47.4393
13,454.6	85.8655	13,454.6	84.0847	13,454.6	84.5431	13,454.6	82.6346	13,454.6	82.1419	13,454.6	79.4212	13,454.6	80.5193	13,454.6	75.5319	13,454.6	75.6322	13,454.6	72.7598	13,454.6	73.6866	13,454.6	68.5027	13,454.6	71.9065	13,454.6	60.5739	13,454.6	65.2438	13,454.6	58.6767	13,454.6	55.6808	13,454.6	55.834	13,454.6	54.571	13,454.6	52.3766	13,454.6	56.2057	13,454.6	45.9542	13,454.6	58.4432	13,454.6	51.4751	13,454.6	47.7845	13,454.6	52.1079	13,454.6	48.17	13,454.6	37.8133	13,454.6	46.1806	13,454.6	47.3527	13,454.6	47.9344	13,454.6	53.3001	13,454.6	55.7313	13,454.6	50.7929	13,454.6	50.4823	13,454.6	46.1801
13,929.2	86.0819	13,929.2	84.512	13,929.2	84.356	13,929.2	82.6783	13,929.2	82.3608	13,929.2	79.2805	13,929.2	79.277	13,929.2	75.2474	13,929.2	76.9967	13,929.2	71.88	13,929.2	72.6935	13,929.2	68.0473	13,929.2	70.9673	13,929.2	62.8065	13,929.2	65.4423	13,929.2	58.6371	13,929.2	54.4759	13,929.2	55.3961	13,929.2	49.6562	13,929.2	49.9186	13,929.2	53.8235	13,929.2	47.9142	13,929.2	57.5778	13,929.2	52.9545	13,929.2	49.9187	13,929.2	50.3122	13,929.2	48.8813	13,929.2	41.555	13,929.2	50.5907	13,929.2	47.1386	13,929.2	47.5865	13,929.2	52.8135	13,929.2	54.3378	13,929.2	50.4954	13,929.2	52.1495	13,929.2	43.8828
14,419.9	86.0541	14,419.9	84.4598	14,419.9	84.0262	14,419.9	82.8751	14,419.9	82.2851	14,419.9	79.0499	14,419.9	79.5566	14,419.9	75.0558	14,419.9	76.9705	14,419.9	70.88	14,419.9	72.0389	14,419.9	68.3213	14,419.9	70.6253	14,419.9	63.0948	14,419.9	63.4137	14,419.9	58.6159	14,419.9	58.6773	14,419.9	55.0857	14,419.9	50.7745	14,419.9	47.6668	14,419.9	57.2185	14,419.9	51.0293	14,419.9	57.8476	14,419.9	52.6034	14,419.9	50.1304	14,419.9	45.2176	14,419.9	49.2261	14,419.9	40.2012	14,419.9	50.5167	14,419.9	47.6314	14,419.9	47.6381	14,419.9	50.0365	14,419.9	53.0534	14,419.9	50.8951	14,419.9	53.4186	14,419.9	42.4629
14,928.2	85.3386	14,928.2	84.0467	14,928.2	83.6395	14,928.2	82.6098	14,928.2	82.5609	14,928.2	78.5717	14,928.2	78.9911	14,928.2	74.477	14,928.2	76.6582	14,928.2	70.3059	14,928.2	72.3674	14,928.2	66.7727	14,928.2	70.6761	14,928.2	63.319	14,928.2	62.3702	14,928.2	55.4549	14,928.2	58.9175	14,928.2	54.7759	14,928.2	42.3796	14,928.2	45.2638	14,928.2	59.9503	14,928.2	50.4123	14,928.2	60.0528	14,928.2	50.4765	14,928.2	48.5343	14,928.2	41.4762	14,928.2	48.423	14,928.2	35.1732	14,928.2	53.4454	14,928.2	47.5514	14,928.2	46.7159	14,928.2	46.6095	14,928.2	50.4437	14,928.2	50.7537	14,928.2	53.0078	14,928.2	38.7484
15,455.6	84.5795	15,455.6	83.9098	15,455.6	83.7659	15,455.6	82.1689	15,455.6	82.8583	15,455.6	78.1853	15,455.6	79.5379	15,455.6	73.3146	15,455.6	75.1677	15,455.6	69.5261	15,455.6	71.7266	15,455.6	65.9139	15,455.6	67.31	15,455.6	61.6731	15,455.6	62.3292	15,455.6	55.7638	15,455.6	57.8951	15,455.6	52.9592	15,455.6	48.4082	15,455.6	47.0057	15,455.6	60.5512	15,455.6	50.5101	15,455.6	59.8116	15,455.6	48.4446	15,455.6	45.777	15,455.6	42.7462	15,455.6	40.6684	15,455.6	42.4665	15,455.6	48.0277	15,455.6	47.1428	15,455.6	47.4641	15,455.6	33.9493	15,455.6	46.0994	15,455.6	39.9873	15,455.6	49.5039	15,455.6	39.5403
16,000.5	85.1256	16,000.5	84.6203	16,000.5	84.9956	16,000.5	82.4259	16,000.5	83.0303	16,000.5	78.0368	16,000.5	80.4002	16,000.5	72.6023	16,000.5	74.6771	16,000.5	68.1392	16,000.5	72.2898	16,000.5	64.2851	16,000.5	67.8582	16,000.5	60.7462	16,000.5	59.1403	16,000.5	53.1248	16,000.5	54.9088	16,000.5	52.6752	16,000.5	41.211	16,000.5	46.7726	16,000.5	59.8118	16,000.5	47.4404	16,000.5	58.3144	16,000.5	40.4712	16,000.5	43.1498	16,000.5	39.7302	16,000.5	39.4847	16,000.5	48.0072	16,000.5	41.6758	16,000.5	46.3209	16,000.5	44.8895	16,000.5	41.6153	16,000.5	43.4395	16,000.5	42.4393	16,000.5	44.1303	16,000.5	37.8441
16,564.5	85.6641	16,564.5	85.0351	16,564.5	85.8053	16,564.5	82.1053	16,564.5	83.3662	16,564.5	77.2768	16,564.5	80.2306	16,564.5	71.3232	16,564.5	72.8758	16,564.5	66.2947	16,564.5	70.8625	16,564.5	64.0001	16,564.5	65.6843	16,564.5	59.0126	16,564.5	55.3986	16,564.5	52.3341	16,564.5	38.0505	16,564.5	51.1254	16,564.5	33.1137	16,564.5	44.8754	16,564.5	58.9982	16,564.5	45.8874	16,564.5	58.3644	16,564.5	42.0902	16,564.5	40.9662	16,564.5	44.3754	16,564.5	41.8404	16,564.5	46.5271	16,564.5	40.8969	16,564.5	43.4945	16,564.5	44.3553	16,564.5	42.1479	16,564.5	46.3524	16,564.5	41.5853	16,564.5	41.0499	16,564.5	39.4238
17,148.9	85.5733	17,148.9	84.9492	17,148.9	85.7411	17,148.9	81.4919	17,148.9	82.8345	17,148.9	76.1034	17,148.9	79.5971	17,148.9	69.8709	17,148.9	71.1157	17,148.9	65.3354	17,148.9	67.1192	17,148.9	63.5175	17,148.9	62.4706	17,148.9	57.0031	17,148.9	54.7708	17,148.9	50.2531	17,148.9	54.235	17,148.9	49.7889	17,148.9	34.5389	17,148.9	39.9982	17,148.9	58.5447	17,148.9	45.6434	17,148.9	58.2848	17,148.9	44.2553	17,148.9	43.0281	17,148.9	47.5182	17,148.9	36.8483	17,148.9	46.8136	17,148.9	35.4492	17,148.9	44.1186	17,148.9	37.4611	17,148.9	40.3567	17,148.9	41.5726	17,148.9	46.4131	17,148.9	41.673	17,148.9	40.7884
17,752.4	84.8688	17,752.4	84.0632	17,752.4	84.7614	17,752.4	80.4935	17,752.4	81.5365	17,752.4	75.094	17,752.4	78.0167	17,752.4	68.25	17,752.4	68.768	17,752.4	64.1885	17,752.4	65.8747	17,752.4	61.511	17,752.4	60.024	17,752.4	53.4563	17,752.4	56.7158	17,752.4	50.7408	17,752.4	55.3078	17,752.4	47.353	17,752.4	19.5681	17,752.4	35.0924	17,752.4	55.7843	17,752.4	47.3904	17,752.4	55.9529	17,752.4	43.3564	17,752.4	40.8593	17,752.4	44.7834	17,752.4	39.1633	17,752.4	45.1189	17,752.4	30.2572	17,752.4	44.1465	17,752.4	33.8221	17,752.4	42.8401	17,752.4	44.385	17,752.4	46.8682	17,752.4	40.3298	17,752.4	42.3727
18,379.4	84.0396	18,379.4	82.879	18,379.4	83.5005	18,379.4	78.9451	18,379.4	80.0253	18,379.4	73.936	18,379.4	75.7555	18,379.4	66.3709	18,379.4	69.2712	18,379.4	61.2257	18,379.4	59.637	18,379.4	57.8968	18,379.4	54.0346	18,379.4	48.6398	18,379.4	54.2988	18,379.4	45.4559	18,379.4	51.8686	18,379.4	41.3586	18,379.4	27.6334	18,379.4	35.9459	18,379.4	54.2092	18,379.4	43.5272	18,379.4	51.1607	18,379.4	39.3247	18,379.4	18.4595	18,379.4	43.4372	18,379.4	40.9799	18,379.4	39.9618	18,379.4	37.945	18,379.4	44.0131	18,379.4	24.0789	18,379.4	37.8741	18,379.4	39.1972	18,379.4	40.8017	18,379.4	32.0925	18,379.4	38.2601
19,026.9	83.3458	19,026.9	82.0445	19,026.9	82.5136	19,026.9	78.1222	19,026.9	78.5974	19,026.9	72.512	19,026.9	73.5517	19,026.9	62.7635	19,026.9	67.5029	19,026.9	51.4018	19,026.9	49.0077	19,026.9	50.781	19,026.9	52.7146	19,026.9	51.0512	19,026.9	59.2481	19,026.9	41.2333	19,026.9	52.6744	19,026.9	33.9401	19,026.9	39.7234	19,026.9	29.6684	19,026.9	55.4555	19,026.9	41.0278	19,026.9	53.4263	19,026.9	38.8559	19,026.9	35.2231	19,026.9	44.2815	19,026.9	28.2384	19,026.9	39.7876	19,026.9	29.1118	19,026.9	40.07	19,026.9	26.8157	19,026.9	40.0728	19,026.9	38.0381	19,026.9	38.8157	19,026.9	30.1398	19,026.9	39.2218
19,697.8	82.207	19,697.8	81.0745	19,697.8	81.3299	19,697.8	76.6356	19,697.8	77.3706	19,697.8	68.9481	19,697.8	70.9913	19,697.8	58.4524	19,697.8	65.213	19,697.8	53.7331	19,697.8	56.6578	19,697.8	54.5614	19,697.8	60.035	19,697.8	52.8058	19,697.8	60.3363	19,697.8	46.1859	19,697.8	53.3545	19,697.8	30.1834	19,697.8	42.6391	19,697.8	38.9998	19,697.8	56.7726	19,697.8	45.8143	19,697.8	55.2705	19,697.8	39.7412	19,697.8	40.473	19,697.8	42.1482	19,697.8	31.276	19,697.8	40.2189	19,697.8	28.3248	19,697.8	40.3521	19,697.8	34.0065	19,697.8	43.9896	19,697.8	37.4537	19,697.8	43.073	19,697.8	39.6816	19,697.8	39.8204
19,999.5	81.7384	19,999.5	80.598	19,999.5	80.5829	19,999.5	76.479	19,999.5	76.4223	19,999.5	67.7791	19,999.5	69.267	19,999.5	54.3743	19,999.5	64.3376	19,999.5	58.4533	19,999.5	58.6182	19,999.5	55.4639	19,999.5	55.4009	19,999.5	52.3317	19,999.5	60.8223	19,999.5	43.8803	19,999.5	51.282	19,999.5	44.3178	19,999.5	40.9651	19,999.5	28.9105	19,999.5	57.4727	19,999.5	46.4406	19,999.5	55.1435	19,999.5	39.5639	19,999.5	44.2257	19,999.5	45.1116	19,999.5	42.7541	19,999.5	46.7531	19,999.5	45.6509	19,999.5	31.9356	19,999.5	45.9817	19,999.5	48.0421	19,999.5	41.8013	19,999.5	41.2965	19,999.5	32.2486	19,999.5	37.1067
