"SPL Vertical"																																																																							
"On-Axis"		"10°"		"-10°"		"20°"		"-20°"		"30°"		"-30°"		"40°"		"-40°"		"50°"		"-50°"		"60°"		"-60°"		"70°"		"-70°"		"80°"		"-80°"		"90°"		"-90°"		"100°"		"-100°"		"110°"		"-110°"		"120°"		"-120°"		"130°"		"-130°"		"140°"		"-140°"		"150°"		"-150°"		"160°"		"-160°"		"170°"		"-170°"		"180°"	
"Frequency [Hz]"	"Sound Pessure Level [dB]  / [2.83V 1m] "	"Frequency [Hz]"	"Sound Pessure Level [dB]  / [2.83V 1m] "	"Frequency [Hz]"	"Sound Pessure Level [dB]  / [2.83V 1m] "	"Frequency [Hz]"	"Sound Pessure Level [dB]  / [2.83V 1m] "	"Frequency [Hz]"	"Sound Pessure Level [dB]  / [2.83V 1m] "	"Frequency [Hz]"	"Sound Pessure Level [dB]  / [2.83V 1m] "	"Frequency [Hz]"	"Sound Pessure Level [dB]  / [2.83V 1m] "	"Frequency [Hz]"	"Sound Pessure Level [dB]  / [2.83V 1m] "	"Frequency [Hz]"	"Sound Pessure Level [dB]  / [2.83V 1m] "	"Frequency [Hz]"	"Sound Pessure Level [dB]  / [2.83V 1m] "	"Frequency [Hz]"	"Sound Pessure Level [dB]  / [2.83V 1m] "	"Frequency [Hz]"	"Sound Pessure Level [dB]  / [2.83V 1m] "	"Frequency [Hz]"	"Sound Pessure Level [dB]  / [2.83V 1m] "	"Frequency [Hz]"	"Sound Pessure Level [dB]  / [2.83V 1m] "	"Frequency [Hz]"	"Sound Pessure Level [dB]  / [2.83V 1m] "	"Frequency [Hz]"	"Sound Pessure Level [dB]  / [2.83V 1m] "	"Frequency [Hz]"	"Sound Pessure Level [dB]  / [2.83V 1m] "	"Frequency [Hz]"	"Sound Pessure Level [dB]  / [2.83V 1m] "	"Frequency [Hz]"	"Sound Pessure Level [dB]  / [2.83V 1m] "	"Frequency [Hz]"	"Sound Pessure Level [dB]  / [2.83V 1m] "	"Frequency [Hz]"	"Sound Pessure Level [dB]  / [2.83V 1m] "	"Frequency [Hz]"	"Sound Pessure Level [dB]  / [2.83V 1m] "	"Frequency [Hz]"	"Sound Pessure Level [dB]  / [2.83V 1m] "	"Frequency [Hz]"	"Sound Pessure Level [dB]  / [2.83V 1m] "	"Frequency [Hz]"	"Sound Pessure Level [dB]  / [2.83V 1m] "	"Frequency [Hz]"	"Sound Pessure Level [dB]  / [2.83V 1m] "	"Frequency [Hz]"	"Sound Pessure Level [dB]  / [2.83V 1m] "	"Frequency [Hz]"	"Sound Pessure Level [dB]  / [2.83V 1m] "	"Frequency [Hz]"	"Sound Pessure Level [dB]  / [2.83V 1m] "	"Frequency [Hz]"	"Sound Pessure Level [dB]  / [2.83V 1m] "	"Frequency [Hz]"	"Sound Pessure Level [dB]  / [2.83V 1m] "	"Frequency [Hz]"	"Sound Pessure Level [dB]  / [2.83V 1m] "	"Frequency [Hz]"	"Sound Pessure Level [dB]  / [2.83V 1m] "	"Frequency [Hz]"	"Sound Pessure Level [dB]  / [2.83V 1m] "	"Frequency [Hz]"	"Sound Pessure Level [dB]  / [2.83V 1m] "	"Frequency [Hz]"	"Sound Pessure Level [dB]  / [2.83V 1m] "
20.5078	69.9357	20.5078	69.7385	20.5078	70.1244	20.5078	69.538	20.5078	70.2987	20.5078	69.3389	20.5078	70.4522	20.5078	69.1453	20.5078	70.578	20.5078	68.9609	20.5078	70.6692	20.5078	68.7888	20.5078	70.7193	20.5078	68.6319	20.5078	70.7228	20.5078	68.493	20.5078	70.6759	20.5078	68.3745	20.5078	70.5775	20.5078	68.2788	20.5078	70.4293	20.5078	68.208	20.5078	70.237	20.5078	68.1643	20.5078	70.0093	20.5078	68.1497	20.5078	69.7578	20.5078	68.1665	20.5078	69.4956	20.5078	68.2165	20.5078	69.2359	20.5078	68.3012	20.5078	68.9907	20.5078	68.4219	20.5078	68.7693	20.5078	68.5785
21.2402	71.0325	21.2402	70.8318	21.2402	71.2252	21.2402	70.6283	21.2402	71.4039	21.2402	70.4267	21.2402	71.5623	21.2402	70.231	21.2402	71.6934	21.2402	70.045	21.2402	71.7902	21.2402	69.8719	21.2402	71.8462	21.2402	69.7147	21.2402	71.8554	21.2402	69.576	21.2402	71.8139	21.2402	69.4586	21.2402	71.7201	21.2402	69.3647	21.2402	71.5756	21.2402	69.2965	21.2402	71.3854	21.2402	69.2563	21.2402	71.1582	21.2402	69.246	21.2402	70.9055	21.2402	69.2676	21.2402	70.6406	21.2402	69.3229	21.2402	70.3768	21.2402	69.4134	21.2402	70.1265	21.2402	69.54	21.2402	69.8994	21.2402	69.7026
21.9727	71.0825	21.9727	70.8812	21.9727	71.2731	21.9727	70.6746	21.9727	71.447	21.9727	70.4675	21.9727	71.5976	21.9727	70.2642	21.9727	71.718	21.9727	70.0685	21.9727	71.8011	21.9727	69.8839	21.9727	71.8403	21.9727	69.7136	21.9727	71.8303	21.9727	69.5605	21.9727	71.7672	21.9727	69.4275	21.9727	71.6504	21.9727	69.3172	21.9727	71.4822	21.9727	69.2321	21.9727	71.269	21.9727	69.1746	21.9727	71.0207	21.9727	69.1471	21.9727	70.7501	21.9727	69.1518	21.9727	70.4717	21.9727	69.1909	21.9727	70.1997	21.9727	69.2664	21.9727	69.9466	21.9727	69.3798	21.9727	69.722	21.9727	69.532
22.7051	71.5985	22.7051	71.3997	22.7051	71.7874	22.7051	71.1962	22.7051	71.9603	22.7051	70.9928	22.7051	72.1108	22.7051	70.7937	22.7051	72.2322	22.7051	70.6027	22.7051	72.3175	22.7051	70.4233	22.7051	72.3603	22.7051	70.2586	22.7051	72.3553	22.7051	70.1115	22.7051	72.299	22.7051	69.9848	22.7051	72.1903	22.7051	69.8811	22.7051	72.0316	22.7051	69.8026	22.7051	71.8288	22.7051	69.7518	22.7051	71.5912	22.7051	69.7309	22.7051	71.331	22.7051	69.7418	22.7051	71.0618	22.7051	69.7866	22.7051	70.7972	22.7051	69.8668	22.7051	70.5492	22.7051	69.9837	22.7051	70.3273	22.7051	70.1376
23.4375	71.2995	23.4375	71.1029	23.4375	71.4776	23.4375	70.8931	23.4375	71.631	23.4375	70.6748	23.4375	71.7525	23.4375	70.4519	23.4375	71.8345	23.4375	70.2279	23.4375	71.8688	23.4375	70.0058	23.4375	71.8475	23.4375	69.7888	23.4375	71.7643	23.4375	69.5796	23.4375	71.6152	23.4375	69.3813	23.4375	71.4003	23.4375	69.197	23.4375	71.1248	23.4375	69.0304	23.4375	70.8002	23.4375	68.8854	23.4375	70.4435	23.4375	68.7665	23.4375	70.0762	23.4375	68.6788	23.4375	69.7211	23.4375	68.6278	23.4375	69.3991	23.4375	68.6195	23.4375	69.1257	23.4375	68.6602	23.4375	68.9102	23.4375	68.7556
24.1699	71.5559	24.1699	71.3596	24.1699	71.733	24.1699	71.1496	24.1699	71.8848	24.1699	70.9304	24.1699	72.004	24.1699	70.7062	24.1699	72.083	24.1699	70.4805	24.1699	72.1135	24.1699	70.2565	24.1699	72.0881	24.1699	70.0373	24.1699	72.0001	24.1699	69.826	24.1699	71.846	24.1699	69.6257	24.1699	71.6261	24.1699	69.4397	24.1699	71.3461	24.1699	69.2717	24.1699	71.0178	24.1699	69.1257	24.1699	70.6589	24.1699	69.0062	24.1699	70.2911	24.1699	68.9179	24.1699	69.9375	24.1699	68.8662	24.1699	69.6185	24.1699	68.8567	24.1699	69.3493	24.1699	68.8953	24.1699	69.1382	24.1699	68.9876
25.6348	71.9338	25.6348	71.7396	25.6348	72.106	25.6348	71.5289	25.6348	72.2499	25.6348	71.3062	25.6348	72.3583	25.6348	71.0757	25.6348	72.4234	25.6348	70.8409	25.6348	72.437	25.6348	70.6052	25.6348	72.3912	25.6348	70.3717	25.6348	72.2798	25.6348	70.1436	25.6348	72.0991	25.6348	69.9242	25.6348	71.85	25.6348	69.717	25.6348	71.5388	25.6348	69.526	25.6348	71.1789	25.6348	69.3555	25.6348	70.7897	25.6348	69.2105	25.6348	70.3956	25.6348	69.0963	25.6348	70.0218	25.6348	69.0189	25.6348	69.6909	25.6348	68.985	25.6348	69.4187	25.6348	69.0014	25.6348	69.2132	25.6348	69.0754
26.3672	72.1221	26.3672	71.9258	26.3672	72.295	26.3672	71.7117	26.3672	72.4382	26.3672	71.4845	26.3672	72.5445	26.3672	71.2483	26.3672	72.6059	26.3672	71.0069	26.3672	72.6142	26.3672	70.7636	26.3672	72.5615	26.3672	70.5218	26.3672	72.4415	26.3672	70.2849	26.3672	72.2505	26.3672	70.0564	26.3672	71.9898	26.3672	69.8401	26.3672	71.666	26.3672	69.6403	26.3672	71.2932	26.3672	69.4616	26.3672	70.8919	26.3672	69.3092	26.3672	70.4872	26.3672	69.1886	26.3672	70.1054	26.3672	69.1059	26.3672	69.7693	26.3672	69.0677	26.3672	69.4946	26.3672	69.0809	26.3672	69.2889	26.3672	69.1524
27.0996	72.2321	27.0996	72.037	27.0996	72.402	27.0996	71.8223	27.0996	72.5404	27.0996	71.5928	27.0996	72.6399	27.0996	71.3526	27.0996	72.6924	27.0996	71.1053	27.0996	72.6894	27.0996	70.8544	27.0996	72.6229	27.0996	70.6031	27.0996	72.4863	27.0996	70.3547	27.0996	72.276	27.0996	70.1128	27.0996	71.9932	27.0996	69.8812	27.0996	71.6451	27.0996	69.6642	27.0996	71.2468	27.0996	69.4667	27.0996	70.8203	27.0996	69.2941	27.0996	70.3929	27.0996	69.1525	27.0996	69.9932	27.0996	69.0486	27.0996	69.6459	27.0996	68.9899	27.0996	69.3679	27.0996	68.9843	27.0996	69.1663	27.0996	69.0404
27.832	72.4523	27.832	72.2573	27.832	72.6208	27.832	72.0416	27.832	72.7564	27.832	71.8099	27.832	72.8518	27.832	71.5663	27.832	72.8987	27.832	71.3147	27.832	72.8886	27.832	71.0585	27.832	72.8133	27.832	70.801	27.832	72.6664	27.832	70.5457	27.832	72.4443	27.832	70.2962	27.832	72.1483	27.832	70.0565	27.832	71.7863	27.832	69.8312	27.832	71.374	27.832	69.6251	27.832	70.9346	27.832	69.4438	27.832	70.4967	27.832	69.2935	27.832	70.0902	27.832	69.181	27.832	69.7403	27.832	69.1136	27.832	69.4637	27.832	69.0995	27.832	69.2668	27.832	69.1477
29.2969	72.3628	29.2969	72.1686	29.2969	72.526	29.2969	71.9489	29.2969	72.6515	29.2969	71.7086	29.2969	72.7319	29.2969	71.4517	29.2969	72.7587	29.2969	71.182	29.2969	72.7229	29.2969	70.9029	29.2969	72.6161	29.2969	70.6179	29.2969	72.4313	29.2969	70.3307	29.2969	72.1647	29.2969	70.0452	29.2969	71.8181	29.2969	69.7661	29.2969	71.4002	29.2969	69.4985	29.2969	70.9292	29.2969	69.2484	29.2969	70.4321	29.2969	69.0225	29.2969	69.9423	29.2969	68.8282	29.2969	69.4949	29.2969	68.6736	29.2969	69.1191	29.2969	68.5674	29.2969	68.8329	29.2969	68.5194	29.2969	68.6415	29.2969	68.5403
30.0293	72.3971	30.0293	72.2112	30.0293	72.5501	30.0293	71.9979	30.0293	72.6636	30.0293	71.7618	30.0293	72.73	30.0293	71.5068	30.0293	72.7404	30.0293	71.2363	30.0293	72.6859	30.0293	70.9534	30.0293	72.5576	30.0293	70.6613	30.0293	72.3482	30.0293	70.3633	30.0293	72.0538	30.0293	70.0631	30.0293	71.6762	30.0293	69.7653	30.0293	71.2252	30.0293	69.4751	30.0293	70.7202	30.0293	69.1986	30.0293	70.191	30.0293	68.9431	30.0293	69.6745	30.0293	68.7167	30.0293	69.2094	30.0293	68.5283	30.0293	68.8275	30.0293	68.3878	30.0293	68.5475	30.0293	68.3065	30.0293	68.3731	30.0293	68.297
31.4941	72.1285	31.4941	71.9359	31.4941	72.2826	31.4941	71.7104	31.4941	72.3913	31.4941	71.4569	31.4941	72.4461	31.4941	71.1792	31.4941	72.4378	31.4941	70.8805	31.4941	72.3564	31.4941	70.5639	31.4941	72.1916	31.4941	70.2322	31.4941	71.9351	31.4941	69.8885	31.4941	71.5815	31.4941	69.5365	31.4941	71.1316	31.4941	69.1808	31.4941	70.5948	31.4941	68.8268	31.4941	69.9924	31.4941	68.4816	31.4941	69.3586	31.4941	68.1538	31.4941	68.7389	31.4941	67.8535	31.4941	68.1833	31.4941	67.5923	31.4941	67.7348	31.4941	67.3837	31.4941	67.4192	31.4941	67.2431	31.4941	67.241	31.4941	67.1888
32.2266	72.0707	32.2266	71.8775	32.2266	72.2223	32.2266	71.6485	32.2266	72.3253	32.2266	71.3883	32.2266	72.3712	32.2266	71.1008	32.2266	72.3505	32.2266	70.7891	32.2266	72.2525	32.2266	70.456	32.2266	72.0669	32.2266	70.1042	32.2266	71.7844	32.2266	69.7366	32.2266	71.3991	32.2266	69.3568	32.2266	70.9111	32.2266	68.9691	32.2266	70.3296	32.2266	68.5794	32.2266	69.6764	32.2266	68.195	32.2266	68.9879	32.2266	67.8253	32.2266	68.3136	32.2266	67.4816	32.2266	67.7094	32.2266	67.1773	32.2266	67.2247	32.2266	66.9283	32.2266	66.8896	32.2266	66.7527	32.2266	66.7099	32.2266	66.6719
33.6914	71.6849	33.6914	71.5053	33.6914	71.8154	33.6914	71.2824	33.6914	71.8895	33.6914	71.0206	33.6914	71.8983	33.6914	70.723	33.6914	71.8314	33.6914	70.3922	33.6914	71.6768	33.6914	70.03	33.6914	71.4224	33.6914	69.6381	33.6914	71.0569	33.6914	69.2182	33.6914	70.5719	33.6914	68.7726	33.6914	69.965	33.6914	68.3047	33.6914	69.2444	33.6914	67.8196	33.6914	68.4333	33.6914	67.3247	33.6914	67.5754	33.6914	66.8304	33.6914	66.7358	33.6914	66.3505	33.6914	65.9938	33.6914	65.9023	33.6914	65.4232	33.6914	65.5074	33.6914	65.0684	33.6914	65.1916	33.6914	64.9325	33.6914	64.9871
34.4238	71.6576	34.4238	71.4789	34.4238	71.7844	34.4238	71.2541	34.4238	71.8523	34.4238	70.9873	34.4238	71.8519	34.4238	70.6812	34.4238	71.7725	34.4238	70.3377	34.4238	71.6015	34.4238	69.958	34.4238	71.3258	34.4238	69.5428	34.4238	70.9324	34.4238	69.0925	34.4238	70.4108	34.4238	68.6082	34.4238	69.7559	34.4238	68.0917	34.4238	68.9719	34.4238	67.5466	34.4238	68.0779	34.4238	66.9792	34.4238	67.115	34.4238	66.3995	34.4238	66.1502	34.4238	65.8223	34.4238	65.2746	34.4238	65.2686	34.4238	64.5844	34.4238	64.7667	34.4238	64.15	34.4238	64.3536	34.4238	63.9905	34.4238	64.0764
35.8887	71.1049	35.8887	70.9275	35.8887	71.2216	35.8887	70.6949	35.8887	71.2699	35.8887	70.4106	35.8887	71.2398	35.8887	70.0767	35.8887	71.1192	35.8887	69.6939	35.8887	70.8936	35.8887	69.2617	35.8887	70.5465	35.8887	68.7787	35.8887	70.0609	35.8887	68.2429	35.8887	69.4203	35.8887	67.6522	35.8887	68.6115	35.8887	67.0051	35.8887	67.6286	35.8887	66.3015	35.8887	66.4796	35.8887	65.5444	35.8887	65.1976	35.8887	64.7415	35.8887	63.8554	35.8887	63.9078	35.8887	62.5804	35.8887	63.0685	35.8887	61.5469	35.8887	62.2626	35.8887	60.9182	35.8887	61.548	35.8887	60.7588	35.8887	61.0089
37.3535	70.8436	37.3535	70.6522	37.3535	70.9691	37.3535	70.3991	37.3535	71.022	37.3535	70.0867	37.3535	70.9935	37.3535	69.715	37.3535	70.8725	37.3535	69.2827	37.3535	70.646	37.3535	68.7863	37.3535	70.2998	37.3535	68.2211	37.3535	69.8199	37.3535	67.5808	37.3535	69.1947	37.3535	66.8584	37.3535	68.4175	37.3535	66.0473	37.3535	67.4908	37.3535	65.1431	37.3535	66.4307	37.3535	64.1482	37.3535	65.2707	37.3535	63.08	37.3535	64.0628	37.3535	61.9842	37.3535	62.8718	37.3535	60.9517	37.3535	61.7649	37.3535	60.1253	37.3535	60.8067	37.3535	59.6634	37.3535	60.0706	37.3535	59.6553
38.8184	71.3912	38.8184	71.2138	38.8184	71.5125	38.8184	70.9845	38.8184	71.572	38.8184	70.7057	38.8184	71.562	38.8184	70.3784	38.8184	71.4733	38.8184	70.0021	38.8184	71.2952	38.8184	69.5755	38.8184	71.0166	38.8184	69.0962	38.8184	70.6273	38.8184	68.5613	38.8184	70.1191	38.8184	67.9679	38.8184	69.4887	38.8184	67.3142	38.8184	68.7395	38.8184	66.601	38.8184	67.8847	38.8184	65.8347	38.8184	66.9484	38.8184	65.0319	38.8184	65.9667	38.8184	64.2262	38.8184	64.9871	38.8184	63.4752	38.8184	64.0686	38.8184	62.8634	38.8184	63.2823	38.8184	62.4894	38.8184	62.7103	38.8184	62.4315
39.5508	70.9116	39.5508	70.7304	39.5508	71.033	39.5508	70.4931	39.5508	71.0887	39.5508	70.2016	39.5508	71.0714	39.5508	69.8563	39.5508	70.9717	39.5508	69.4561	39.5508	70.7789	39.5508	68.9986	39.5508	70.482	39.5508	68.4803	39.5508	70.0709	39.5508	67.897	39.5508	69.5382	39.5508	67.2444	39.5508	68.8821	39.5508	66.5197	39.5508	68.1087	39.5508	65.7237	39.5508	67.2348	39.5508	64.865	39.5508	66.2888	39.5508	63.9673	39.5508	65.308	39.5508	63.0795	39.5508	64.335	39.5508	62.2846	39.5508	63.4131	39.5508	61.6954	39.5508	62.59	39.5508	61.4207	39.5508	61.9278	39.5508	61.5099
41.0156	71.6719	41.0156	71.5175	41.0156	71.7792	41.0156	71.3183	41.0156	71.8361	41.0156	71.0759	41.0156	71.8384	41.0156	70.7907	41.0156	71.7819	41.0156	70.4628	41.0156	71.6628	41.0156	70.0919	41.0156	71.4792	41.0156	69.6783	41.0156	71.232	41.0156	69.2235	41.0156	70.927	41.0156	68.732	41.0156	70.5743	41.0156	68.2134	41.0156	70.188	41.0156	67.6855	41.0156	69.7825	41.0156	67.1775	41.0156	69.3684	41.0156	66.7311	41.0156	68.9495	41.0156	66.3976	41.0156	68.5225	41.0156	66.225	41.0156	68.0825	41.0156	66.2397	41.0156	67.6303	41.0156	66.4332	41.0156	67.1802	41.0156	66.7648
42.4805	74.7142	42.4805	74.5681	42.4805	74.8487	42.4805	74.4113	42.4805	74.9715	42.4805	74.2448	42.4805	75.0834	42.4805	74.07	42.4805	75.1861	42.4805	73.8886	42.4805	75.2823	42.4805	73.7024	42.4805	75.375	42.4805	73.514	42.4805	75.4656	42.4805	73.3269	42.4805	75.5519	42.4805	73.1461	42.4805	75.6263	42.4805	72.9788	42.4805	75.6743	42.4805	72.8353	42.4805	75.6768	42.4805	72.7288	42.4805	75.6135	42.4805	72.6762	42.4805	75.4683	42.4805	72.6958	42.4805	75.2337	42.4805	72.804	42.4805	74.9143	42.4805	73.0103	42.4805	74.5284	42.4805	73.3111	42.4805	74.1065	42.4805	73.6875
43.9453	75.6784	43.9453	75.5019	43.9453	75.8525	43.9453	75.3244	43.9453	76.0229	43.9453	75.1476	43.9453	76.1888	43.9453	74.9733	43.9453	76.3496	43.9453	74.8033	43.9453	76.5048	43.9453	74.6398	43.9453	76.6531	43.9453	74.4852	43.9453	76.7915	43.9453	74.3426	43.9453	76.9141	43.9453	74.2162	43.9453	77.0108	43.9453	74.1116	43.9453	77.0676	43.9453	74.0362	43.9453	77.0686	43.9453	73.9995	43.9453	76.9984	43.9453	74.0128	43.9453	76.8465	43.9453	74.0882	43.9453	76.61	43.9453	74.2364	43.9453	76.297	43.9453	74.4631	43.9453	75.926	43.9453	74.7649	43.9453	75.5251	43.9453	75.1273
45.4102	76.731	45.4102	76.5505	45.4102	76.915	45.4102	76.3752	45.4102	77.1008	45.4102	76.2066	45.4102	77.2869	45.4102	76.0464	45.4102	77.4711	45.4102	75.8962	45.4102	77.6512	45.4102	75.7577	45.4102	77.8234	45.4102	75.6328	45.4102	77.9824	45.4102	75.5238	45.4102	78.12	45.4102	75.4339	45.4102	78.2252	45.4102	75.3671	45.4102	78.2847	45.4102	75.3288	45.4102	78.2846	45.4102	75.3259	45.4102	78.2127	45.4102	75.3667	45.4102	78.062	45.4102	75.4601	45.4102	77.833	45.4102	75.6142	45.4102	77.5354	45.4102	75.8335	45.4102	77.188	45.4102	76.1158	45.4102	76.8167	45.4102	76.4503
47.6074	78.2889	47.6074	78.0918	47.6074	78.4954	47.6074	77.9067	47.6074	78.7082	47.6074	77.7357	47.6074	78.9239	47.6074	77.5808	47.6074	79.1381	47.6074	77.4433	47.6074	79.3457	47.6074	77.3245	47.6074	79.5405	47.6074	77.2255	47.6074	79.7146	47.6074	77.1474	47.6074	79.8582	47.6074	77.0919	47.6074	79.9602	47.6074	77.061	47.6074	80.0089	47.6074	77.0576	47.6074	79.9932	47.6074	77.086	47.6074	79.9052	47.6074	77.1514	47.6074	79.7421	47.6074	77.2599	47.6074	79.5082	47.6074	77.4173	47.6074	79.2156	47.6074	77.6276	47.6074	78.8837	47.6074	77.8902	47.6074	78.5363	47.6074	78.198
49.0723	79.2167	49.0723	79.0138	49.0723	79.4306	49.0723	78.8251	49.0723	79.652	49.0723	78.6528	49.0723	79.8765	49.0723	78.499	49.0723	80.0991	49.0723	78.365	49.0723	80.3137	49.0723	78.252	49.0723	80.5128	49.0723	78.1607	49.0723	80.6879	49.0723	78.092	49.0723	80.8287	49.0723	78.0468	49.0723	80.9244	49.0723	78.0266	49.0723	80.9639	49.0723	78.0336	49.0723	80.9379	49.0723	78.0709	49.0723	80.8402	49.0723	78.1428	49.0723	80.6701	49.0723	78.2543	49.0723	80.4336	49.0723	78.4103	49.0723	80.1439	49.0723	78.6143	49.0723	79.8201	49.0723	78.8664	49.0723	79.4849	49.0723	79.1607
50.5371	80.0185	50.5371	79.8117	50.5371	80.2377	50.5371	79.6204	50.5371	80.465	50.5371	79.4474	50.5371	80.6958	50.5371	79.2947	50.5371	80.924	50.5371	79.1636	50.5371	81.143	50.5371	79.0552	50.5371	81.3445	50.5371	78.97	50.5371	81.5195	50.5371	78.9086	50.5371	81.6576	50.5371	78.8714	50.5371	81.748	50.5371	78.8596	50.5371	81.7805	50.5371	78.8746	50.5371	81.7469	50.5371	78.9189	50.5371	81.6424	50.5371	78.9959	50.5371	81.468	50.5371	79.1097	50.5371	81.2307	50.5371	79.2647	50.5371	80.9444	50.5371	79.4638	50.5371	80.628	50.5371	79.7074	50.5371	80.3032	50.5371	79.9907
52.7344	81.1576	52.7344	80.9424	52.7344	81.3869	52.7344	80.7455	52.7344	81.6255	52.7344	80.57	52.7344	81.8674	52.7344	80.4182	52.7344	82.1058	52.7344	80.2916	52.7344	82.3327	52.7344	80.1912	52.7344	82.5393	52.7344	80.1172	52.7344	82.7156	52.7344	80.0696	52.7344	82.8513	52.7344	80.0482	52.7344	82.9361	52.7344	80.053	52.7344	82.9606	52.7344	80.0844	52.7344	82.9184	52.7344	80.1436	52.7344	82.8067	52.7344	80.2324	52.7344	82.6285	52.7344	80.3535	52.7344	82.3925	52.7344	80.51	52.7344	82.1132	52.7344	80.7044	52.7344	81.8093	52.7344	80.9372	52.7344	81.5007	52.7344	81.2054
54.1992	81.8665	54.1992	81.6519	54.1992	82.0947	54.1992	81.4553	54.1992	82.3314	54.1992	81.2802	54.1992	82.5703	54.1992	81.129	54.1992	82.8042	54.1992	81.0033	54.1992	83.0249	54.1992	80.9039	54.1992	83.2233	54.1992	80.8309	54.1992	83.3896	54.1992	80.7841	54.1992	83.5136	54.1992	80.7629	54.1992	83.5853	54.1992	80.7669	54.1992	83.5965	54.1992	80.7959	54.1992	83.5414	54.1992	80.8508	54.1992	83.4189	54.1992	80.9328	54.1992	83.2328	54.1992	81.0445	54.1992	82.9933	54.1992	81.189	54.1992	82.7154	54.1992	81.3691	54.1992	82.4179	54.1992	81.5863	54.1992	82.1201	54.1992	81.8389
56.3965	82.7794	56.3965	82.5636	56.3965	83.0095	56.3965	82.3668	56.3965	83.2482	56.3965	82.1924	56.3965	83.4889	56.3965	82.0432	56.3965	83.724	56.3965	81.9207	56.3965	83.9447	56.3965	81.8256	56.3965	84.1417	56.3965	81.7577	56.3965	84.3048	56.3965	81.7166	56.3965	84.4241	56.3965	81.7012	56.3965	84.4899	56.3965	81.7107	56.3965	84.4946	56.3965	81.7445	56.3965	84.4336	56.3965	81.8028	56.3965	84.3067	56.3965	81.8864	56.3965	84.1189	56.3965	81.9973	56.3965	83.881	56.3965	82.1383	56.3965	83.6084	56.3965	82.3122	56.3965	83.3194	56.3965	82.5206	56.3965	83.0323	56.3965	82.7624
58.5938	83.5932	58.5938	83.3731	58.5938	83.8277	58.5938	83.1725	58.5938	84.0704	58.5938	82.9953	58.5938	84.3142	58.5938	82.8445	58.5938	84.551	58.5938	82.7217	58.5938	84.7718	58.5938	82.6278	58.5938	84.9669	58.5938	82.5624	58.5938	85.126	58.5938	82.5249	58.5938	85.2393	58.5938	82.5138	58.5938	85.2975	58.5938	82.528	58.5938	85.2939	58.5938	82.5663	58.5938	85.2247	58.5938	82.6283	58.5938	85.0908	58.5938	82.7144	58.5938	84.8985	58.5938	82.8259	58.5938	84.6595	58.5938	82.965	58.5938	84.3896	58.5938	83.1342	58.5938	84.1068	58.5938	83.3354	58.5938	83.8283	58.5938	83.5682
60.0586	84.0465	60.0586	83.8227	60.0586	84.2846	60.0586	83.6187	60.0586	84.5307	60.0586	83.4386	60.0586	84.7773	60.0586	83.2854	60.0586	85.016	60.0586	83.1611	60.0586	85.2376	60.0586	83.0664	60.0586	85.4323	60.0586	83.0011	60.0586	85.5897	60.0586	82.9643	60.0586	85.6999	60.0586	82.9545	60.0586	85.754	60.0586	82.9703	60.0586	85.7455	60.0586	83.0102	60.0586	85.6711	60.0586	83.0737	60.0586	85.5324	60.0586	83.1608	60.0586	85.3362	60.0586	83.2726	60.0586	85.0946	60.0586	83.4111	60.0586	84.8239	60.0586	83.5789	60.0586	84.5418	60.0586	83.7779	60.0586	84.2654	60.0586	84.0079
62.2559	84.6845	62.2559	84.4563	62.2559	84.9268	62.2559	84.2479	62.2559	85.1765	62.2559	84.0641	62.2559	85.4256	62.2559	83.9081	62.2559	85.6656	62.2559	83.7819	62.2559	85.8869	62.2559	83.6866	62.2559	86.0795	62.2559	83.6219	62.2559	86.2333	62.2559	83.5868	62.2559	86.3384	62.2559	83.5796	62.2559	86.3865	62.2559	83.5987	62.2559	86.3715	62.2559	83.6423	62.2559	86.2911	62.2559	83.7093	62.2559	86.1478	62.2559	83.7994	62.2559	85.949	62.2559	83.9133	62.2559	85.7075	62.2559	84.0525	62.2559	85.4394	62.2559	84.219	62.2559	85.1622	62.2559	84.4148	62.2559	84.8916	62.2559	84.64
64.4531	85.2528	64.4531	85.0217	64.4531	85.4976	64.4531	84.8106	64.4531	85.7491	64.4531	84.6244	64.4531	85.9991	64.4531	84.4666	64.4531	86.2387	64.4531	84.3395	64.4531	86.4582	64.4531	84.2442	64.4531	86.6475	64.4531	84.1805	64.4531	86.7965	64.4531	84.1471	64.4531	86.8957	64.4531	84.1424	64.4531	86.9369	64.4531	84.1641	64.4531	86.9149	64.4531	84.2103	64.4531	86.8281	64.4531	84.2795	64.4531	86.6797	64.4531	84.3708	64.4531	86.4782	64.4531	84.4845	64.4531	86.2367	64.4531	84.6218	64.4531	85.9717	64.4531	84.7845	64.4531	85.6999	64.4531	84.9746	64.4531	85.4366	64.4531	85.1927
66.6504	85.688	66.6504	85.453	66.6504	85.9366	66.6504	85.2383	66.6504	86.1914	66.6504	85.0489	66.6504	86.4437	66.6504	84.8889	66.6504	86.6844	66.6504	84.7608	66.6504	86.9036	66.6504	84.6656	66.6504	87.0911	66.6504	84.6032	66.6504	87.2367	66.6504	84.5721	66.6504	87.3312	66.6504	84.5703	66.6504	87.3668	66.6504	84.5955	66.6504	87.3388	66.6504	84.6452	66.6504	87.2463	66.6504	84.7175	66.6504	87.0933	66.6504	84.8111	66.6504	86.8892	66.6504	84.9258	66.6504	86.6475	66.6504	85.0625	66.6504	86.3847	66.6504	85.223	66.6504	86.1173	66.6504	85.4091	66.6504	85.8597	66.6504	85.6218
69.5801	86.6491	69.5801	86.3997	69.5801	86.912	69.5801	86.171	69.5801	87.1803	69.5801	85.969	69.5801	87.4448	69.5801	85.7981	69.5801	87.6956	69.5801	85.6614	69.5801	87.9224	69.5801	85.5602	69.5801	88.1145	69.5801	85.4945	69.5801	88.2614	69.5801	85.463	69.5801	88.3534	69.5801	85.4635	69.5801	88.3827	69.5801	85.493	69.5801	88.3445	69.5801	85.5486	69.5801	88.2385	69.5801	85.6273	69.5801	88.0698	69.5801	85.7271	69.5801	87.8492	69.5801	85.8468	69.5801	87.5924	69.5801	85.9866	69.5801	87.3177	69.5801	86.1479	69.5801	87.043	69.5801	86.3331	69.5801	86.7823	69.5801	86.5445
71.7773	87.0463	71.7773	86.795	71.7773	87.3102	71.7773	86.5635	71.7773	87.5781	71.7773	86.3581	71.7773	87.8408	71.7773	86.1834	71.7773	88.0883	71.7773	86.0427	71.7773	88.3102	71.7773	85.9376	71.7773	88.4957	71.7773	85.868	71.7773	88.6346	71.7773	85.8328	71.7773	88.7174	71.7773	85.8297	71.7773	88.7365	71.7773	85.8557	71.7773	88.6879	71.7773	85.9077	71.7773	88.5719	71.7773	85.9828	71.7773	88.3945	71.7773	86.0786	71.7773	88.1673	71.7773	86.1939	71.7773	87.9068	71.7773	86.3287	71.7773	87.6313	71.7773	86.4845	71.7773	87.3585	71.7773	86.6639	71.7773	87.1018	71.7773	86.8694
73.9746	87.4442	73.9746	87.1922	73.9746	87.7085	73.9746	86.96	73.9746	87.9763	73.9746	86.754	73.9746	88.2382	73.9746	86.5791	73.9746	88.484	73.9746	86.4386	73.9746	88.7034	73.9746	86.3341	73.9746	88.8855	73.9746	86.2657	73.9746	89.02	73.9746	86.232	73.9746	89.0976	73.9746	86.2306	73.9746	89.1113	73.9746	86.2583	73.9746	89.0574	73.9746	86.3116	73.9746	88.9367	73.9746	86.3873	73.9746	88.7561	73.9746	86.4829	73.9746	88.5277	73.9746	86.5969	73.9746	88.2683	73.9746	86.7292	73.9746	87.9965	73.9746	86.8811	73.9746	87.7293	73.9746	87.0551	73.9746	87.4795	73.9746	87.2541
76.9043	87.8029	76.9043	87.5467	76.9043	88.0715	76.9043	87.3108	76.9043	88.3434	76.9043	87.1021	76.9043	88.6088	76.9043	86.9258	76.9043	88.8572	76.9043	86.7854	76.9043	89.0778	76.9043	86.6825	76.9043	89.2599	76.9043	86.6173	76.9043	89.3931	76.9043	86.588	76.9043	89.4681	76.9043	86.592	76.9043	89.4783	76.9043	86.6255	76.9043	89.4203	76.9043	86.6848	76.9043	89.2961	76.9043	86.7661	76.9043	89.1129	76.9043	86.8663	76.9043	88.8838	76.9043	86.9835	76.9043	88.6261	76.9043	87.1171	76.9043	88.3582	76.9043	87.2682	76.9043	88.0966	76.9043	87.4394	76.9043	87.8531	76.9043	87.6337
79.834	88.0905	79.834	87.829	79.834	88.3639	79.834	87.588	79.834	88.6396	79.834	87.3748	79.834	88.9075	79.834	87.195	79.834	89.1567	79.834	87.0526	79.834	89.3763	79.834	86.9493	79.834	89.5554	79.834	86.8851	79.834	89.6838	79.834	86.8584	79.834	89.7526	79.834	86.8659	79.834	89.7557	79.834	86.9037	79.834	89.6905	79.834	86.9673	79.834	89.5597	79.834	87.0526	79.834	89.3717	79.834	87.156	79.834	89.1404	79.834	87.275	79.834	88.8835	79.834	87.4088	79.834	88.6194	79.834	87.5583	79.834	88.3637	79.834	87.7257	79.834	88.1271	79.834	87.9145
82.7637	88.3299	82.7637	88.0621	82.7637	88.6088	82.7637	87.8145	82.7637	88.8887	82.7637	87.5951	82.7637	89.1591	82.7637	87.41	82.7637	89.4088	82.7637	87.2635	82.7637	89.6267	82.7637	87.1578	82.7637	89.8019	82.7637	87.0929	82.7637	89.9245	82.7637	87.0669	82.7637	89.9857	82.7637	87.0764	82.7637	89.98	82.7637	87.117	82.7637	89.9056	82.7637	87.1838	82.7637	89.7661	82.7637	87.272	82.7637	89.5709	82.7637	87.3776	82.7637	89.3349	82.7637	87.4976	82.7637	89.0764	82.7637	87.6308	82.7637	88.8137	82.7637	87.7779	82.7637	88.5621	82.7637	87.9413	82.7637	88.3312	82.7637	88.1246
85.6934	88.5408	85.6934	88.2654	85.6934	88.8265	85.6934	88.0099	85.6934	89.1118	85.6934	87.7829	85.6934	89.3859	85.6934	87.591	85.6934	89.6374	85.6934	87.4391	85.6934	89.855	85.6934	87.3295	85.6934	90.0279	85.6934	87.2624	85.6934	90.1461	85.6934	87.2359	85.6934	90.2013	85.6934	87.2462	85.6934	90.188	85.6934	87.2885	85.6934	90.1053	85.6934	87.3576	85.6934	89.9573	85.6934	87.4482	85.6934	89.7544	85.6934	87.5557	85.6934	89.5122	85.6934	87.677	85.6934	89.2496	85.6934	87.8106	85.6934	88.9851	85.6934	87.9571	85.6934	88.7337	85.6934	88.1189	85.6934	88.5045	85.6934	88.3001
88.623	88.6924	88.623	88.4096	88.623	88.9847	88.623	88.1465	88.623	89.2756	88.623	87.9123	88.623	89.5536	88.623	87.7143	88.623	89.8072	88.623	87.5577	88.623	90.0251	88.623	87.4453	88.623	90.1964	88.623	87.3773	88.623	90.3114	88.623	87.3517	88.623	90.362	88.623	87.3645	88.623	90.3434	88.623	87.4105	88.623	90.2548	88.623	87.4838	88.623	90.1014	88.623	87.5789	88.623	89.8941	88.623	87.6907	88.623	89.649	88.623	87.8156	88.623	89.3854	88.623	87.9519	88.623	89.1216	88.623	88.0999	88.623	88.8721	88.623	88.262	88.623	88.6449	88.623	88.4423
91.5527	88.7809	91.5527	88.4887	91.5527	89.0815	91.5527	88.2159	91.5527	89.379	91.5527	87.9722	91.5527	89.6616	91.5527	87.7656	91.5527	89.9177	91.5527	87.6022	91.5527	90.1359	91.5527	87.485	91.5527	90.3054	91.5527	87.4146	91.5527	90.4165	91.5527	87.3889	91.5527	90.4615	91.5527	87.4036	91.5527	90.4361	91.5527	87.4532	91.5527	90.3403	91.5527	87.5312	91.5527	90.1799	91.5527	87.6315	91.5527	89.9666	91.5527	87.7484	91.5527	89.7173	91.5527	87.878	91.5527	89.4516	91.5527	88.018	91.5527	89.1875	91.5527	88.1685	91.5527	88.9391	91.5527	88.3318	91.5527	88.7134	91.5527	88.512
94.4824	88.8732	94.4824	88.5714	94.4824	89.1816	94.4824	88.2877	94.4824	89.4848	94.4824	88.0326	94.4824	89.7708	94.4824	87.8149	94.4824	90.0278	94.4824	87.6412	94.4824	90.2443	94.4824	87.5154	94.4824	90.4097	94.4824	87.4384	94.4824	90.5147	94.4824	87.4084	94.4824	90.5518	94.4824	87.421	94.4824	90.517	94.4824	87.4704	94.4824	90.4112	94.4824	87.5499	94.4824	90.2408	94.4824	87.6526	94.4824	90.0185	94.4824	87.7727	94.4824	89.762	94.4824	87.9054	94.4824	89.4911	94.4824	88.0483	94.4824	89.2241	94.4824	88.201	94.4824	88.9742	94.4824	88.3657	94.4824	88.7482	94.4824	88.5465
98.1445	88.9529	98.1445	88.6407	98.1445	89.2708	98.1445	88.3463	98.1445	89.5818	98.1445	88.0808	98.1445	89.8736	98.1445	87.854	98.1445	90.134	98.1445	87.6729	98.1445	90.3518	98.1445	87.542	98.1445	90.516	98.1445	87.4623	98.1445	90.6176	98.1445	87.4317	98.1445	90.6494	98.1445	87.4459	98.1445	90.6079	98.1445	87.4984	98.1445	90.4944	98.1445	87.5819	98.1445	90.3162	98.1445	87.6891	98.1445	90.0867	98.1445	87.8136	98.1445	89.8244	98.1445	87.9504	98.1445	89.5494	98.1445	88.0967	98.1445	89.28	98.1445	88.2521	98.1445	89.0291	98.1445	88.4186	98.1445	88.8026	98.1445	88.6004
101.807	89.2347	101.807	88.8979	101.807	89.5749	101.807	88.5779	101.807	89.905	101.807	88.2872	101.807	90.2122	101.807	88.0373	101.807	90.484	101.807	87.837	101.807	90.7089	101.807	87.6919	101.807	90.876	101.807	87.604	101.807	90.9761	101.807	87.5716	101.807	91.0025	101.807	87.5897	101.807	90.9519	101.807	87.6512	101.807	90.8263	101.807	87.7474	101.807	90.6343	101.807	87.8698	101.807	90.3908	101.807	88.0105	101.807	90.1157	101.807	88.1632	101.807	89.8305	101.807	88.324	101.807	89.5536	101.807	88.4918	101.807	89.2971	101.807	88.6683	101.807	89.0657	101.807	88.8577
105.469	89.353	105.469	88.9979	105.469	89.7057	105.469	88.6544	105.469	90.0427	105.469	88.3363	105.469	90.3513	105.469	88.0565	105.469	90.6197	105.469	87.8259	105.469	90.837	105.469	87.6523	105.469	90.9932	105.469	87.5396	105.469	91.0799	105.469	87.4875	105.469	91.0913	105.469	87.4919	105.469	91.0251	105.469	87.5457	105.469	90.8843	105.469	87.6402	105.469	90.6786	105.469	87.7659	105.469	90.4236	105.469	87.9142	105.469	90.1393	105.469	88.0782	105.469	89.8464	105.469	88.2529	105.469	89.5622	105.469	88.4362	105.469	89.2971	105.469	88.6288	105.469	89.0548	105.469	88.8335
109.131	89.4961	109.131	89.1434	109.131	89.8467	109.131	88.802	109.131	90.182	109.131	88.4852	109.131	90.4897	109.131	88.2057	109.131	90.758	109.131	87.9743	109.131	90.9759	109.131	87.799	109.131	91.1335	109.131	87.6844	109.131	91.2222	109.131	87.6312	109.131	91.236	109.131	87.6362	109.131	91.1728	109.131	87.693	109.131	91.0359	109.131	87.793	109.131	90.8349	109.131	87.927	109.131	90.586	109.131	88.0855	109.131	90.3095	109.131	88.2603	109.131	90.0257	109.131	88.4454	109.131	89.7511	109.131	88.6372	109.131	89.4948	109.131	88.8348	109.131	89.259	109.131	89.0407
112.793	89.4763	112.793	89.1199	112.793	89.8311	112.793	88.7759	112.793	90.1704	112.793	88.4584	112.793	90.4814	112.793	88.1805	112.793	90.7518	112.793	87.9533	112.793	90.9707	112.793	87.7848	112.793	91.1281	112.793	87.6793	112.793	91.2157	112.793	87.6368	112.793	91.2283	112.793	87.6536	112.793	91.1643	112.793	87.7226	112.793	91.0281	112.793	87.8347	112.793	90.8304	112.793	87.9798	112.793	90.5881	112.793	88.1482	112.793	90.3216	112.793	88.3312	112.793	90.0508	112.793	88.5219	112.793	89.7905	112.793	88.7163	112.793	89.5482	112.793	88.9131	112.793	89.3242	112.793	89.1143
116.455	89.4085	116.455	89.0396	116.455	89.7742	116.455	88.6824	116.455	90.1221	116.455	88.3522	116.455	90.439	116.455	88.0633	116.455	90.7125	116.455	87.8278	116.455	90.9316	116.455	87.6546	116.455	91.0865	116.455	87.5485	116.455	91.1693	116.455	87.5093	116.455	91.1751	116.455	87.5326	116.455	91.1031	116.455	87.6107	116.455	90.9586	116.455	87.7334	116.455	90.7536	116.455	87.8896	116.455	90.5061	116.455	88.0684	116.455	90.2375	116.455	88.2603	116.455	89.968	116.455	88.4577	116.455	89.712	116.455	88.656	116.455	89.4757	116.455	88.8537	116.455	89.2577	116.455	89.0526
120.85	89.429	120.85	89.0453	120.85	89.8082	120.85	88.6732	120.85	90.168	120.85	88.3288	120.85	90.4945	120.85	88.0275	120.85	90.7753	120.85	87.7829	120.85	90.9993	120.85	87.6048	120.85	91.1565	120.85	87.4987	120.85	91.2394	120.85	87.4647	120.85	91.2434	120.85	87.4981	120.85	91.1683	120.85	87.5901	120.85	91.0201	120.85	87.7295	120.85	90.8119	120.85	87.9037	120.85	90.5627	120.85	88.1003	120.85	90.2948	120.85	88.3083	120.85	90.0284	120.85	88.5191	120.85	89.7774	120.85	88.727	120.85	89.5466	120.85	88.9301	120.85	89.3332	120.85	89.1303
125.244	89.3428	125.244	88.9412	125.244	89.738	125.244	88.5502	125.244	90.1114	125.244	88.1873	125.244	90.4485	125.244	87.8696	125.244	90.737	125.244	87.612	125.244	90.9656	125.244	87.4258	125.244	91.125	125.244	87.3172	125.244	91.2079	125.244	87.2867	125.244	91.2101	125.244	87.3291	125.244	91.1324	125.244	87.4348	125.244	90.9813	125.244	87.5911	125.244	90.7709	125.244	87.7841	125.244	90.5208	125.244	87.9998	125.244	90.2535	125.244	88.2259	125.244	89.9892	125.244	88.4527	125.244	89.7407	125.244	88.6737	125.244	89.5118	125.244	88.8865	125.244	89.2985	125.244	89.0928
129.639	89.2632	129.639	88.8456	129.639	89.6724	129.639	88.4374	129.639	90.0569	129.639	88.0575	129.639	90.4023	129.639	87.7243	129.639	90.6959	129.639	87.4542	129.639	90.9268	129.639	87.2596	129.639	91.0859	129.639	87.1475	129.639	91.1664	129.639	87.1186	129.639	91.1648	129.639	87.1673	129.639	91.0825	129.639	87.2831	129.639	90.9271	129.639	87.4523	129.639	90.7134	129.639	87.6599	129.639	90.4618	129.639	87.8908	129.639	90.1951	129.639	88.1316	129.639	89.9326	129.639	88.3717	129.639	89.6864	129.639	88.6038	129.639	89.459	129.639	88.8251	129.639	89.2454	129.639	89.037
134.033	89.1704	134.033	88.7314	134.033	89.5986	134.033	88.3006	134.033	89.9989	134.033	87.8984	134.033	90.3566	134.033	87.5452	134.033	90.6589	134.033	87.2596	134.033	90.8952	134.033	87.0558	134.033	91.0566	134.033	86.9419	134.033	91.137	134.033	86.9185	134.033	91.1335	134.033	86.9795	134.033	91.0486	134.033	87.113	134.033	90.8909	134.033	87.3033	134.033	90.6762	134.033	87.5336	134.033	90.4256	134.033	87.7872	134.033	90.1618	134.033	88.0494	134.033	89.9036	134.033	88.3083	134.033	89.6613	134.033	88.5561	134.033	89.4362	134.033	88.7893	134.033	89.222	134.033	89.0093
138.428	89.0703	138.428	88.6109	138.428	89.5143	138.428	88.1559	138.428	89.9256	138.428	87.727	138.428	90.2897	138.428	87.3468	138.428	90.5943	138.428	87.0362	138.428	90.8291	138.428	86.8123	138.428	90.9862	138.428	86.6855	138.428	91.0601	138.428	86.6579	138.428	91.0492	138.428	86.7235	138.428	90.9571	138.428	86.8695	138.428	90.7938	138.428	87.0785	138.428	90.5763	138.428	87.3314	138.428	90.3266	138.428	87.6096	138.428	90.0672	138.428	87.8963	138.428	89.8153	138.428	88.1781	138.428	89.5793	138.428	88.4457	138.428	89.3579	138.428	88.6946	138.428	89.1434	138.428	88.9253
143.555	88.9986	143.555	88.5007	143.555	89.4751	143.555	88.003	143.555	89.9123	143.555	87.5294	143.555	90.2951	143.555	87.1057	143.555	90.6113	143.555	86.7569	143.555	90.8511	143.555	86.5041	143.555	91.0072	143.555	86.3609	143.555	91.0754	143.555	86.3314	143.555	91.0553	143.555	86.4091	143.555	90.9522	143.555	86.5792	143.555	90.7781	143.555	86.8214	143.555	90.5519	143.555	87.1131	143.555	90.2971	143.555	87.4321	143.555	90.0364	143.555	87.7587	143.555	89.7865	143.555	88.0768	143.555	89.5539	143.555	88.3749	143.555	89.3348	143.555	88.647	143.555	89.1187	143.555	88.893
148.682	88.9713	148.682	88.4454	148.682	89.4657	148.682	87.9099	148.682	89.9105	148.682	87.3904	148.682	90.2915	148.682	86.9157	148.682	90.5972	148.682	86.515	148.682	90.8192	148.682	86.2146	148.682	90.9515	148.682	86.033	148.682	90.9915	148.682	85.9776	148.682	90.9411	148.682	86.0431	148.682	90.8082	148.682	86.2138	148.682	90.6077	148.682	86.4669	148.682	90.3616	148.682	86.7768	148.682	90.0949	148.682	87.1183	148.682	89.8302	148.682	87.4691	148.682	89.5818	148.682	87.8111	148.682	89.3524	148.682	88.1311	148.682	89.1346	148.682	88.4215	148.682	88.9154	148.682	88.6812
153.809	89.1414	153.809	88.6042	153.809	89.6367	153.809	88.0455	153.809	90.0732	153.809	87.4906	153.809	90.438	153.809	86.9685	153.809	90.7206	153.809	86.5107	153.809	90.9135	153.809	86.1477	153.809	91.0115	153.809	85.9041	153.809	91.0132	153.809	85.7931	153.809	90.9218	153.809	85.8145	153.809	90.7472	153.809	85.9545	153.809	90.507	153.809	86.19	153.809	90.2255	153.809	86.4931	153.809	89.9303	153.809	86.836	153.809	89.6446	153.809	87.1935	153.809	89.3818	153.809	87.5452	153.809	89.1424	153.809	87.876	153.809	88.9167	153.809	88.1771	153.809	88.6897	153.809	88.4468
159.668	89.3097	159.668	88.7812	159.668	89.7923	159.668	88.2261	159.668	90.213	159.668	87.6684	159.668	90.5593	159.668	87.1359	159.668	90.8212	159.668	86.6599	159.668	90.9915	159.668	86.2718	159.668	91.0657	159.668	85.9992	159.668	91.0435	159.668	85.8601	159.668	90.9297	159.668	85.8592	159.668	90.7367	159.668	85.9865	159.668	90.4852	159.668	86.2202	159.668	90.2031	159.668	86.532	159.668	89.9195	159.668	86.8914	159.668	89.6574	159.668	87.27	159.668	89.4259	159.668	87.6435	159.668	89.2195	159.668	87.9932	159.668	89.0222	159.668	88.3069	159.668	88.8145	159.668	88.5797
164.795	89.4386	164.795	88.9139	164.795	89.9147	164.795	88.3605	164.795	90.3259	164.795	87.8017	164.795	90.6588	164.795	87.2648	164.795	90.9029	164.795	86.7794	164.795	91.0505	164.795	86.3759	164.795	91.097	164.795	86.0813	164.795	91.042	164.795	85.9148	164.795	90.8913	164.795	85.8833	164.795	90.6588	164.795	85.9803	164.795	90.3677	164.795	86.187	164.795	90.0495	164.795	86.4763	164.795	89.7371	164.795	86.8179	164.795	89.4565	164.795	87.1817	164.795	89.2182	164.795	87.5414	164.795	89.016	164.795	87.8763	164.795	88.8314	164.795	88.1731	164.795	88.6417	164.795	88.4267
170.654	89.4454	170.654	88.9131	170.654	89.9268	170.654	88.3514	170.654	90.3398	170.654	87.7863	170.654	90.6708	170.654	87.2473	170.654	90.9094	170.654	86.7667	170.654	91.0486	170.654	86.3761	170.654	91.085	170.654	86.102	170.654	91.0201	170.654	85.9612	170.654	90.8617	170.654	85.9573	170.654	90.6264	170.654	86.08	170.654	90.34	170.654	86.308	170.654	90.0354	170.654	86.6131	170.654	89.7448	170.654	86.9646	170.654	89.4911	170.654	87.3334	170.654	89.2803	170.654	87.6938	170.654	89.1026	170.654	88.0257	170.654	88.9379	170.654	88.3163	170.654	88.7639	170.654	88.5609
176.514	89.2915	176.514	88.746	176.514	89.7774	176.514	88.1617	176.514	90.1868	176.514	87.5649	176.514	90.5066	176.514	86.9863	176.514	90.727	176.514	86.4612	176.514	90.8414	176.514	86.0257	176.514	90.8468	176.514	85.712	176.514	90.7455	176.514	85.5423	176.514	90.5475	176.514	85.5235	176.514	90.2729	176.514	85.6456	176.514	89.9533	176.514	85.885	176.514	89.628	176.514	86.2096	176.514	89.334	176.514	86.5849	176.514	89.0937	176.514	86.978	176.514	88.9075	176.514	87.3603	176.514	88.7573	176.514	87.7097	176.514	88.616	176.514	88.0115	176.514	88.457	176.514	88.2596
183.105	89.0777	183.105	88.508	183.105	89.5812	183.105	87.894	183.105	90.0011	183.105	87.2628	183.105	90.3237	183.105	86.6471	183.105	90.5384	183.105	86.0847	183.105	90.6381	183.105	85.6152	183.105	90.6201	183.105	85.2749	183.105	90.4873	183.105	85.0894	183.105	90.252	183.105	85.0677	183.105	89.9386	183.105	85.1999	183.105	89.5854	183.105	85.4604	183.105	89.2395	183.105	85.814	183.105	88.944	183.105	86.2227	183.105	88.7219	183.105	86.6502	183.105	88.5676	183.105	87.0647	183.105	88.4536	183.105	87.4407	183.105	88.3437	183.105	87.7605	183.105	88.2053	183.105	88.0149
189.697	89.4268	189.697	88.8401	189.697	89.9343	189.697	88.1949	189.697	90.3458	189.697	87.5168	189.697	90.6479	189.697	86.8374	189.697	90.8298	189.697	86.1944	189.697	90.8836	189.697	85.6301	189.697	90.8055	189.697	85.1866	189.697	90.5971	189.697	84.8988	189.697	90.2702	189.697	84.7861	189.697	89.8507	189.697	84.8464	189.697	89.3825	189.697	85.0577	189.697	88.9243	189.697	85.3837	189.697	88.5346	189.697	85.7819	189.697	88.2493	189.697	86.2096	189.697	88.0668	189.697	86.6289	189.697	87.9527	189.697	87.0084	189.697	87.8594	189.697	87.326	189.697	87.7424	189.697	87.5701
196.289	89.7658	196.289	89.1778	196.289	90.2722	196.289	88.5289	196.289	90.6801	196.289	87.8442	196.289	90.9756	196.289	87.1536	196.289	91.148	196.289	86.4931	196.289	91.1896	196.289	85.9027	196.289	91.0973	196.289	85.4243	196.289	90.8741	196.289	85.0951	196.289	90.533	196.289	84.939	196.289	90.1017	196.289	84.9609	196.289	89.6247	196.289	85.1439	196.289	89.1597	196.289	85.4543	196.289	88.7625	196.289	85.8487	196.289	88.466	196.289	86.2822	196.289	88.2678	196.289	86.7134	196.289	88.1357	196.289	87.108	196.289	88.0242	196.289	87.4415	196.289	87.8902	196.289	87.7017
202.881	89.6834	202.881	89.096	202.881	90.1861	202.881	88.4454	202.881	90.5863	202.881	87.7572	202.881	90.8694	202.881	87.0618	202.881	91.0242	202.881	86.395	202.881	91.0434	202.881	85.797	202.881	90.9247	202.881	85.3096	202.881	90.674	202.881	84.9712	202.881	90.3089	202.881	84.8081	202.881	89.8642	202.881	84.8277	202.881	89.3936	202.881	85.0161	202.881	88.9615	202.881	85.3409	202.881	88.6226	202.881	85.7586	202.881	88.3978	202.881	86.2224	202.881	88.2672	202.881	86.6879	202.881	88.1848	202.881	87.1177	202.881	88.0998	202.881	87.4835	202.881	87.9703	202.881	87.7688
210.205	89.4532	210.205	88.8511	210.205	89.9646	210.205	88.1807	210.205	90.3659	210.205	87.4688	210.205	90.6412	210.205	86.7465	210.205	90.7775	210.205	86.0496	210.205	90.7652	210.205	85.4182	210.205	90.5993	210.205	84.8945	210.205	90.2826	210.205	84.5176	210.205	89.8312	210.205	84.317	210.205	89.2823	210.205	84.3042	210.205	88.7002	210.205	84.4697	210.205	88.1705	210.205	84.7831	210.205	87.7726	210.205	85.2001	210.205	87.5414	210.205	85.6699	210.205	87.4505	210.205	86.1427	210.205	87.4337	210.205	86.5745	210.205	87.4189	210.205	86.9312	210.205	87.3497	210.205	87.1915
217.529	89.3931	217.529	88.7635	217.529	89.932	217.529	88.0694	217.529	90.358	217.529	87.3416	217.529	90.6533	217.529	86.615	217.529	90.8038	217.529	85.9277	217.529	90.7998	217.529	85.3191	217.529	90.637	217.529	84.8264	217.529	90.319	217.529	84.4804	217.529	89.8622	217.529	84.3003	217.529	89.3021	217.529	84.2906	217.529	88.6985	217.529	84.4393	217.529	88.13	217.529	84.7196	217.529	87.672	217.529	85.0932	217.529	87.3656	217.529	85.5157	217.529	87.2009	217.529	85.9413	217.529	87.1289	217.529	86.329	217.529	87.0862	217.529	86.6465	217.529	87.0154	217.529	86.8755
225.586	89.6166	225.586	88.9588	225.586	90.1648	225.586	88.2167	225.586	90.5832	225.586	87.4218	225.586	90.8558	225.586	86.6128	225.586	90.9701	225.586	85.8356	225.586	90.9176	225.586	85.1417	225.586	90.6951	225.586	84.5825	225.586	90.3082	225.586	84.201	225.586	89.7778	225.586	84.0222	225.586	89.1503	225.586	84.0476	225.586	88.5037	225.586	84.2552	225.586	87.9378	225.586	84.6063	225.586	87.5372	225.586	85.0523	225.586	87.3263	225.586	85.5418	225.586	87.2617	225.586	86.0255	225.586	87.267	225.586	86.4607	225.586	87.2691	225.586	86.8145	225.586	87.2136	225.586	87.0667
232.91	89.5387	232.91	88.8827	232.91	90.0874	232.91	88.1445	232.91	90.5075	232.91	87.3534	232.91	90.7812	232.91	86.5441	232.91	90.8936	232.91	85.7564	232.91	90.8329	232.91	85.0345	232.91	90.5919	232.91	84.4246	232.91	90.1709	232.91	83.9687	232.91	89.5847	232.91	83.6983	232.91	88.8733	232.91	83.6272	232.91	88.1128	232.91	83.7476	232.91	87.4134	232.91	84.0308	232.91	86.8856	232.91	84.4318	232.91	86.5835	232.91	84.8962	232.91	86.4779	232.91	85.3678	232.91	86.4847	232.91	85.7953	232.91	86.5128	232.91	86.1382	232.91	86.4902	232.91	86.3716
241.699	89.4167	241.699	88.7214	241.699	90.0039	241.699	87.9488	241.699	90.4577	241.699	87.1353	241.699	90.7575	241.699	86.3226	241.699	90.8875	241.699	85.5561	241.699	90.8363	241.699	84.8824	241.699	90.598	241.699	84.3435	241.699	90.1748	241.699	83.9711	241.699	89.5837	241.699	83.782	241.699	88.8668	241.699	83.7761	241.699	88.1013	241.699	83.9376	241.699	87.3963	241.699	84.2376	241.699	86.8602	241.699	84.6359	241.699	86.5478	241.699	85.0847	241.699	86.4359	241.699	85.5323	241.699	86.4488	241.699	85.9298	241.699	86.4986	241.699	86.2374	241.699	86.5102	241.699	86.4314
249.756	89.3006	249.756	88.5202	249.756	89.938	249.756	87.6287	249.756	90.4088	249.756	86.6682	249.756	90.6959	249.756	85.6918	249.756	90.7879	249.756	84.7627	249.756	90.6785	249.756	83.9486	249.756	90.3682	249.756	83.3107	249.756	89.869	249.756	82.8909	249.756	89.2126	249.756	82.7029	249.756	88.4629	249.756	82.7331	249.756	87.7206	249.756	82.9489	249.756	87.1019	249.756	83.3071	249.756	86.6818	249.756	83.7599	249.756	86.451	249.756	84.2574	249.756	86.3382	249.756	84.7511	249.756	86.2669	249.756	85.1992	249.756	86.1837	249.756	85.572	249.756	86.0548	249.756	85.8562
258.545	90.2581	258.545	89.5216	258.545	90.8443	258.545	88.6623	258.545	91.2581	258.545	87.7146	258.545	91.4818	258.545	86.7212	258.545	91.5011	258.545	85.7342	258.545	91.3051	258.545	84.8148	258.545	90.8871	258.545	84.0291	258.545	90.249	258.545	83.438	258.545	89.4119	258.545	83.0832	258.545	88.4357	258.545	82.9772	258.545	87.4436	258.545	83.101	258.545	86.6188	258.545	83.4128	258.545	86.1225	258.545	83.8574	258.545	85.9739	258.545	84.3747	258.545	86.0463	258.545	84.9052	258.545	86.1812	258.545	85.3947	258.545	86.2665	258.545	85.7993	258.545	86.2432	258.545	86.0876
268.066	89.8639	268.066	89.0969	268.066	90.4756	268.066	88.2005	268.066	90.9115	268.066	87.2069	268.066	91.1553	268.066	86.1567	268.066	91.194	268.066	85.1005	268.066	91.0181	268.066	84.1003	268.066	90.6234	268.066	83.2283	268.066	90.0155	268.066	82.5587	268.066	89.2213	268.066	82.1524	268.066	88.3078	268.066	82.038	268.066	87.3989	268.066	82.2016	268.066	86.6574	268.066	82.591	268.066	86.1986	268.066	83.1317	268.066	86.0076	268.066	83.7424	268.066	85.9711	268.066	84.3486	268.066	85.9746	268.066	84.8904	268.066	85.9464	268.066	85.3285	268.066	85.8459	268.066	85.6459
277.588	89.9259	277.588	89.18	277.588	90.5216	277.588	88.3126	277.588	90.943	277.588	87.357	277.588	91.17	277.588	86.3519	277.588	91.1858	277.588	85.341	277.588	90.9772	277.588	84.3732	277.588	90.5352	277.588	83.5011	277.588	89.8604	277.588	82.7778	277.588	88.9753	277.588	82.2511	277.588	87.9492	277.588	81.9566	277.588	86.9296	277.588	81.9113	277.588	86.1318	277.588	82.1089	277.588	85.7171	277.588	82.5156	277.588	85.6506	277.588	83.072	277.588	85.7482	277.588	83.7025	277.588	85.8358	277.588	84.3304	277.588	85.8168	277.588	84.892	277.588	85.6542	277.588	85.3422
287.109	89.9437	287.109	89.1778	287.109	90.5504	287.109	88.284	287.109	90.9735	287.109	87.3007	287.109	91.1932	287.109	86.2748	287.109	91.1933	287.109	85.2606	287.109	90.9595	287.109	84.3184	287.109	90.48	287.109	83.5092	287.109	89.7491	287.109	82.8863	287.109	88.7796	287.109	82.4859	287.109	87.6309	287.109	82.32	287.109	86.4524	287.109	82.3776	287.109	85.4961	287.109	82.63	287.109	84.9891	287.109	83.0342	287.109	84.9275	287.109	83.5352	287.109	85.1021	287.109	84.0688	287.109	85.307	287.109	84.5703	287.109	85.4296	287.109	84.9849	287.109	85.4242	287.109	85.2756
297.363	89.9044	297.363	89.1021	297.363	90.5442	297.363	88.1674	297.363	90.9957	297.363	87.1354	297.363	91.2369	297.363	86.048	297.363	91.2482	297.363	84.955	297.363	91.0116	297.363	83.9153	297.363	90.511	297.363	82.9942	297.363	89.7345	297.363	82.2557	297.363	88.685	297.363	81.7483	297.363	87.4071	297.363	81.4922	297.363	86.0419	297.363	81.4782	297.363	84.872	297.363	81.6763	297.363	84.2125	297.363	82.0449	297.363	84.1152	297.363	82.5329	297.363	84.3255	297.363	83.0798	297.363	84.5673	297.363	83.6199	297.363	84.6933	297.363	84.0923	297.363	84.6547	297.363	84.4483
307.617	90.0975	307.617	89.2641	307.617	90.7669	307.617	88.3024	307.617	91.2436	307.617	87.2545	307.617	91.5048	307.617	86.1691	307.617	91.5321	307.617	85.1003	307.617	91.3103	307.617	84.1071	307.617	90.8265	307.617	83.2498	307.617	90.072	307.617	82.582	307.617	89.0513	307.617	82.1395	307.617	87.8059	307.617	81.9315	307.617	86.4574	307.617	81.9407	307.617	85.2428	307.617	82.1321	307.617	84.4365	307.617	82.4613	307.617	84.1272	307.617	82.8772	307.617	84.15	307.617	83.3229	307.617	84.2837	307.617	83.7402	307.617	84.3902	307.617	84.0787	307.617	84.4063	307.617	84.3049
318.604	89.4189	318.604	88.5014	318.604	90.1721	318.604	87.4634	318.604	90.7262	318.604	86.356	318.604	91.054	318.604	85.235	318.604	91.1348	318.604	84.1568	318.604	90.9531	318.604	83.1757	318.604	90.4999	318.604	82.3451	318.604	89.7765	318.604	81.716	318.604	88.8069	318.604	81.3284	318.604	87.6664	318.604	81.1957	318.604	86.5194	318.604	81.2954	318.604	85.6085	318.604	81.5762	318.604	85.1034	318.604	81.9754	318.604	84.933	318.604	82.4327	318.604	84.8779	318.604	82.897	318.604	84.7771	318.604	83.3297	318.604	84.5881	318.604	83.711	318.604	84.3345	318.604	84.0419
329.59	89.7305	329.59	88.5842	329.59	90.6333	329.59	87.2312	329.59	91.2693	329.59	85.7315	329.59	91.6229	329.59	84.1801	329.59	91.6822	329.59	82.7104	329.59	91.4369	329.59	81.4737	329.59	90.8781	329.59	80.5861	329.59	90.0003	329.59	80.0805	329.59	88.8161	329.59	79.9148	329.59	87.4001	329.59	80.0209	329.59	85.9882	329.59	80.3399	329.59	85.0423	329.59	80.8292	329.59	84.922	329.59	81.4537	329.59	85.3888	329.59	82.1786	329.59	85.9238	329.59	82.9659	329.59	86.214	329.59	83.7745	329.59	86.1736	329.59	84.5596	329.59	85.8333	329.59	85.2685
341.309	90.4932	341.309	89.4106	341.309	91.3266	341.309	88.1028	341.309	91.8935	341.309	86.605	341.309	92.1813	341.309	84.9715	341.309	92.1808	341.309	83.2904	341.309	91.8847	341.309	81.7039	341.309	91.2873	341.309	80.4146	341.309	90.3864	341.309	79.6351	341.309	89.1935	341.309	79.4694	341.309	87.7689	341.309	79.8473	341.309	86.3056	341.309	80.6016	341.309	85.2206	341.309	81.5735	341.309	84.9544	341.309	82.6468	341.309	85.439	341.309	83.7359	341.309	86.1865	341.309	84.7691	341.309	86.8143	341.309	85.6832	341.309	87.1637	341.309	86.4235	341.309	87.201	341.309	86.9429
353.76	90.5282	353.76	89.4454	353.76	91.3778	353.76	88.1572	353.76	91.9722	353.76	86.6997	353.76	92.2942	353.76	85.1184	353.76	92.3289	353.76	83.4716	353.76	92.0623	353.76	81.8357	353.76	91.4798	353.76	80.3151	353.76	90.5658	353.76	79.0487	353.76	89.3087	353.76	78.1964	353.76	87.7265	353.76	77.8834	353.76	85.9449	353.76	78.131	353.76	84.3561	353.76	78.8462	353.76	83.6027	353.76	79.8791	353.76	83.8768	353.76	81.0776	353.76	84.6137	353.76	82.3072	353.76	85.2608	353.76	83.4531	353.76	85.5859	353.76	84.421	353.76	85.5383	353.76	85.1356
366.211	90.231	366.211	89.1253	366.211	91.0706	366.211	87.7799	366.211	91.6269	366.211	86.2339	366.211	91.8882	366.211	84.5463	366.211	91.8465	366.211	82.8048	366.211	91.4959	366.211	81.1359	366.211	90.832	366.211	79.7085	366.211	89.853	366.211	78.7077	366.211	88.5675	366.211	78.2635	366.211	87.0231	366.211	78.3788	366.211	85.3764	366.211	78.9393	366.211	83.9904	366.211	79.7932	366.211	83.3403	366.211	80.8119	366.211	83.5297	366.211	81.8963	366.211	84.1564	366.211	82.9578	366.211	84.7938	366.211	83.9075	366.211	85.2182	366.211	84.6619	366.211	85.3451	366.211	85.1549
378.662	90.0071	378.662	88.9134	378.662	90.8364	378.662	87.5795	378.662	91.3837	378.662	86.0385	378.662	91.6357	378.662	84.3363	378.662	91.5825	378.662	82.5403	378.662	91.2153	378.662	80.7574	378.662	90.5254	378.662	79.1617	378.662	89.5033	378.662	78.0076	378.662	88.1463	378.662	77.5498	378.662	86.4868	378.662	77.8579	378.662	84.6803	378.662	78.7499	378.662	83.1689	378.662	79.954	378.662	82.6048	378.662	81.255	378.662	83.0882	378.662	82.5138	378.662	84.0103	378.662	83.6369	378.662	84.8547	378.662	84.5556	378.662	85.4214	378.662	85.2198	378.662	85.6678	378.662	85.5967
392.578	89.5744	392.578	88.3739	392.578	90.4924	392.578	86.9154	392.578	91.1126	392.578	85.2352	392.578	91.4264	392.578	83.3867	392.578	91.4298	392.578	81.4493	392.578	91.1227	392.578	79.5459	392.578	90.5085	392.578	77.8706	392.578	89.5971	392.578	76.6979	392.578	88.4141	392.578	76.293	392.578	87.0246	392.578	76.706	392.578	85.5775	392.578	77.7108	392.578	84.3351	392.578	78.9999	392.578	83.5771	392.578	80.3478	392.578	83.384	392.578	81.6236	392.578	83.6017	392.578	82.748	392.578	84.0116	392.578	83.6593	392.578	84.4193	392.578	84.3036	392.578	84.665	392.578	84.6413
405.762	89.1727	405.762	87.8876	405.762	90.1395	405.762	86.2924	405.762	90.7836	405.762	84.4046	405.762	91.1019	405.762	82.2589	405.762	91.091	405.762	79.9201	405.762	90.7479	405.762	77.5093	405.762	90.0721	405.762	75.2533	405.762	89.071	405.762	73.5564	405.762	87.7739	405.762	72.936	405.762	86.2719	405.762	73.5894	405.762	84.8047	405.762	75.1429	405.762	83.8134	405.762	77.0839	405.762	83.6531	405.762	79.0796	405.762	84.1478	405.762	80.95	405.762	84.8379	405.762	82.5895	405.762	85.4185	405.762	83.9282	405.762	85.7647	405.762	84.9215	405.762	85.822	405.762	85.5504
420.41	89.5621	420.41	88.1922	420.41	90.6144	420.41	86.5109	420.41	91.3402	420.41	84.5218	420.41	91.7281	420.41	82.2297	420.41	91.7653	420.41	79.6459	420.41	91.4396	420.41	76.7959	420.41	90.7394	420.41	73.7333	420.41	89.6534	420.41	70.6077	420.41	88.1745	420.41	68.0303	420.41	86.3295	420.41	67.6279	420.41	84.2993	420.41	69.798	420.41	82.6772	420.41	72.7765	420.41	82.2814	420.41	75.6332	420.41	82.9597	420.41	78.1682	420.41	83.8556	420.41	80.332	420.41	84.5066	420.41	82.0887	420.41	84.8076	420.41	83.41	420.41	84.7432	420.41	84.2886
435.059	89.7143	435.059	88.3448	435.059	90.7607	435.059	86.6818	435.059	91.461	435.059	84.7584	435.059	91.7998	435.059	82.6074	435.059	91.7693	435.059	80.2592	435.059	91.3684	435.059	77.7413	435.059	90.6	435.059	75.0692	435.059	89.4695	435.059	72.2182	435.059	87.9859	435.059	69.2411	435.059	86.1777	435.059	67.4267	435.059	84.1687	435.059	69.3802	435.059	82.3815	435.059	72.9874	435.059	81.6118	435.059	76.1885	435.059	82.106	435.059	78.7585	435.059	83.0943	435.059	80.7789	435.059	83.9188	435.059	82.32	435.059	84.3712	435.059	83.4243	435.059	84.435	435.059	84.1218
450.439	88.9292	450.439	87.4368	450.439	90.076	450.439	85.6295	450.439	90.8583	450.439	83.5516	450.439	91.2659	450.439	81.2617	450.439	91.2954	450.439	78.8316	450.439	90.9484	450.439	76.3422	450.439	90.2303	450.439	73.8626	450.439	89.1492	450.439	71.3925	450.439	87.7159	450.439	68.8706	450.439	85.956	450.439	66.8809	450.439	83.981	450.439	67.9603	450.439	82.2188	450.439	71.6964	450.439	81.5891	450.439	75.4389	450.439	82.4525	450.439	78.578	450.439	83.8957	450.439	81.1283	450.439	85.116	450.439	83.1367	450.439	85.8313	450.439	84.6199	450.439	85.9827	450.439	85.5735
466.553	88.8829	466.553	87.3784	466.553	90.0057	466.553	85.5111	466.553	90.7376	466.553	83.3172	466.553	91.0753	466.553	80.8687	466.553	91.0201	466.553	78.3098	466.553	90.5782	466.553	75.8884	466.553	89.7616	466.553	73.8496	466.553	88.5903	466.553	72.0995	466.553	87.0937	466.553	69.9702	466.553	85.3178	466.553	65.9372	466.553	83.3568	466.553	50.6223	466.553	81.4349	466.553	65.6689	466.553	80.0185	466.553	73.4038	466.553	79.7405	466.553	77.865	466.553	80.7572	466.553	80.8805	466.553	82.365	466.553	82.9395	466.553	83.7815	466.553	84.2177	466.553	84.6232	466.553	84.7748
482.666	89.1922	482.666	87.609	482.666	90.3985	482.666	85.6893	482.666	91.2028	482.666	83.5013	482.666	91.5905	482.666	81.1672	482.666	91.5557	482.666	78.8959	482.666	91.1002	482.666	76.9594	482.666	90.2334	482.666	75.5101	482.666	88.9714	482.666	74.3623	482.666	87.3399	482.666	73.0218	482.666	85.3991	482.666	70.7252	482.666	83.3403	482.666	65.6876	482.666	81.6602	482.666	55.4032	482.666	80.9892	482.666	69.7142	482.666	81.3178	482.666	75.8656	482.666	82.1251	482.666	79.5864	482.666	83.0509	482.666	82.0119	482.666	83.8594	482.666	83.5099	482.666	84.3187	482.666	84.2434
500.244	88.779	500.244	87.1341	500.244	90.0179	500.244	85.1269	500.244	90.8299	500.244	82.8365	500.244	91.2094	500.244	80.4011	500.244	91.159	500.244	78.057	500.244	90.6844	500.244	76.1275	500.244	89.79	500.244	74.8024	500.244	88.4761	500.244	73.8341	500.244	86.7385	500.244	72.6075	500.244	84.5881	500.244	70.2549	500.244	82.1904	500.244	64.7843	500.244	80.2844	500.244	59.1778	500.244	79.9972	500.244	70.77	500.244	80.9504	500.244	76.3742	500.244	82.0633	500.244	79.8411	500.244	83.0079	500.244	82.1033	500.244	83.7549	500.244	83.4878	500.244	84.1909	500.244	84.147
517.822	88.6517	517.822	87.04	517.822	89.8668	517.822	85.1004	517.822	90.6513	517.822	82.9526	517.822	90.9927	517.822	80.7903	517.822	90.8897	517.822	78.8928	517.822	90.3467	517.822	77.5397	517.822	89.3713	517.822	76.7641	517.822	87.971	517.822	76.2374	517.822	86.1443	517.822	75.4655	517.822	83.8719	517.822	73.9001	517.822	81.1959	517.822	70.6557	517.822	78.7972	517.822	63.849	517.822	78.686	517.822	68.0724	517.822	80.6803	517.822	75.2338	517.822	82.7011	517.822	79.4378	517.822	84.1107	517.822	82.1391	517.822	84.9064	517.822	83.8536	517.822	85.1412	517.822	84.812
536.133	88.9766	536.133	87.2045	536.133	90.2709	536.133	85.0109	536.133	91.0655	536.133	82.5193	536.133	91.3548	536.133	79.9702	536.133	91.1402	536.133	77.7649	536.133	90.4264	536.133	76.374	536.133	89.2186	536.133	75.9523	536.133	87.5188	536.133	76.1019	536.133	85.3223	536.133	76.2347	536.133	82.6391	536.133	75.8754	536.133	79.6777	536.133	74.5679	536.133	77.4339	536.133	71.4398	536.133	77.2411	536.133	62.5316	536.133	78.4083	536.133	64.8735	536.133	79.9096	536.133	74.3633	536.133	81.3994	536.133	78.7723	536.133	82.5308	536.133	81.2953	536.133	82.9939	536.133	82.6225
554.443	88.1451	554.443	86.3817	554.443	89.4271	554.443	84.1886	554.443	90.2222	554.443	81.716	554.443	90.5422	554.443	79.2786	554.443	90.4007	554.443	77.3452	554.443	89.802	554.443	76.283	554.443	88.733	554.443	76.0222	554.443	87.1553	554.443	76.1349	554.443	84.983	554.443	76.1563	554.443	82.0322	554.443	75.6897	554.443	78.0377	554.443	74.2744	554.443	74.326	554.443	70.9956	554.443	76.1698	554.443	63.8563	554.443	79.43	554.443	69.4557	554.443	81.5713	554.443	76.3066	554.443	82.9003	554.443	80.1712	554.443	83.7069	554.443	82.4549	554.443	84.0061	554.443	83.6513
574.219	88.9938	574.219	87.2281	574.219	90.2604	574.219	85.0053	574.219	91.0194	574.219	82.4545	574.219	91.2715	574.219	79.8893	574.219	91.0155	574.219	77.8591	574.219	90.2417	574.219	76.8643	574.219	88.9269	574.219	76.8538	574.219	87.022	574.219	77.3087	574.219	84.4095	574.219	77.6884	574.219	80.7632	574.219	77.5811	574.219	75.0511	574.219	76.5864	574.219	66.127	574.219	73.9884	574.219	73.4374	574.219	67.2788	574.219	78.3233	574.219	63.7675	574.219	80.8744	574.219	74.7495	574.219	82.3542	574.219	79.4216	574.219	83.2236	574.219	81.9487	574.219	83.555	574.219	83.2069
594.727	89.0234	594.727	87.1262	594.727	90.3691	594.727	84.7435	594.727	91.1466	594.727	82.0547	594.727	91.3592	594.727	79.4548	594.727	91.0153	594.727	77.5414	594.727	90.1195	594.727	76.6892	594.727	88.6651	594.727	76.6862	594.727	86.6205	594.727	77.0513	594.727	83.8918	594.727	77.3518	594.727	80.1985	594.727	77.2241	594.727	74.6749	594.727	76.2763	594.727	66.6082	594.727	73.8227	594.727	72.3335	594.727	67.6228	594.727	77.3967	594.727	62.2756	594.727	80.3306	594.727	74.0843	594.727	82.2081	594.727	79.0434	594.727	83.3152	594.727	81.7772	594.727	83.6725	594.727	83.2099
615.234	89.0213	615.234	87.2278	615.234	90.3147	615.234	85.0118	615.234	91.0828	615.234	82.5693	615.234	91.3212	615.234	80.2897	615.234	91.0325	615.234	78.6899	615.234	90.2181	615.234	78.0713	615.234	88.8704	615.234	78.2862	615.234	86.9658	615.234	78.924	615.234	84.4423	615.234	79.5586	615.234	81.1022	615.234	79.8359	615.234	76.2215	615.234	79.4297	615.234	66.0071	615.234	77.8951	615.234	67.5853	615.234	74.2072	615.234	75.7771	615.234	62.6975	615.234	79.3845	615.234	69.7081	615.234	81.4205	615.234	77.4183	615.234	82.5807	615.234	80.869	615.234	82.989	615.234	82.5141
637.207	90.0308	637.207	88.1289	637.207	91.3025	637.207	85.645	637.207	91.9456	637.207	82.7506	637.207	91.979	637.207	79.8675	637.207	91.4202	637.207	77.6935	637.207	90.2718	637.207	76.7878	637.207	88.5097	637.207	77.0723	637.207	86.0684	637.207	77.9891	637.207	82.79	637.207	78.9557	637.207	78.2068	637.207	79.5744	637.207	70.39	637.207	79.5607	637.207	62.1555	637.207	78.5731	637.207	73.1836	637.207	75.9281	637.207	77.4285	637.207	69.9441	637.207	80.0482	637.207	70.7085	637.207	82.0842	637.207	78.003	637.207	83.5427	637.207	81.7958	637.207	84.1441	637.207	83.65
659.912	90.2991	659.912	88.4624	659.912	91.5446	659.912	86.0731	659.912	92.1894	659.912	83.2526	659.912	92.2323	659.912	80.2918	659.912	91.6742	659.912	77.6868	659.912	90.5127	659.912	76.0062	659.912	88.7324	659.912	75.6991	659.912	86.2901	659.912	76.7041	659.912	83.0763	659.912	78.2882	659.912	78.7429	659.912	79.7188	659.912	71.846	659.912	80.548	659.912	62.5602	659.912	80.4177	659.912	73.6135	659.912	78.7859	659.912	78.4912	659.912	74.274	659.912	81.2204	659.912	66.5424	659.912	82.9158	659.912	76.3296	659.912	83.9358	659.912	81.2286	659.912	84.2224	659.912	83.4814
683.35	91.1757	683.35	89.3594	683.35	92.2991	683.35	86.8233	683.35	92.7547	683.35	83.5492	683.35	92.5731	683.35	79.6067	683.35	91.7908	683.35	75.3926	683.35	90.437	683.35	71.9759	683.35	88.5089	683.35	70.8918	683.35	85.9419	683.35	72.5162	683.35	82.5477	683.35	75.213	683.35	77.7566	683.35	77.6693	683.35	68.9161	683.35	79.3912	683.35	63.6257	683.35	80.0901	683.35	74.3511	683.35	79.37	683.35	78.2539	683.35	76.3654	683.35	80.4585	683.35	69.8047	683.35	82.2043	683.35	75.219	683.35	83.6511	683.35	80.9111	683.35	84.2714	683.35	83.5353
706.787	91.3571	706.787	89.3286	706.787	92.5358	706.787	86.3715	706.787	92.9336	706.787	82.4161	706.787	92.6168	706.787	77.6784	706.787	91.643	706.787	73.7436	706.787	90.0422	706.787	72.1303	706.787	87.8036	706.787	70.8225	706.787	84.8659	706.787	69.7254	706.787	81.0437	706.787	71.4959	706.787	75.6114	706.787	74.5143	706.787	63.8278	706.787	76.7235	706.787	68.0028	706.787	77.8257	706.787	75.7322	706.787	77.7368	706.787	79.0327	706.787	76.3007	706.787	80.7318	706.787	74.3603	706.787	81.9096	706.787	76.2441	706.787	82.907	706.787	80.018	706.787	83.2564	706.787	82.4052
731.689	90.9255	731.689	88.9501	731.689	92.0976	731.689	86.133	731.689	92.5146	731.689	82.5602	731.689	92.2193	731.689	78.9233	731.689	91.2421	731.689	76.7374	731.689	89.5947	731.689	75.809	731.689	87.277	731.689	74.5882	731.689	84.291	731.689	72.8214	731.689	80.6152	731.689	72.2222	731.689	75.955	731.689	74.1323	731.689	68.4943	731.689	76.3959	731.689	56.6186	731.689	77.6036	731.689	70.9518	731.689	77.2225	731.689	75.4197	731.689	74.6147	731.689	77.5656	731.689	71.5176	731.689	79.0655	731.689	76.3173	731.689	80.7152	731.689	80.3736	731.689	81.991	731.689	82.0622
758.057	91.3556	758.057	88.8505	758.057	92.7087	758.057	84.9105	758.057	93.0597	758.057	79.2092	758.057	92.4897	758.057	75.3687	758.057	91.0363	758.057	77.8912	758.057	88.7271	758.057	79.5004	758.057	85.7364	758.057	79.44	758.057	82.8871	758.057	77.9621	758.057	81.4977	758.057	74.9352	758.057	80.9666	758.057	70.7706	758.057	79.6381	758.057	72.1641	758.057	76.3853	758.057	75.9816	758.057	72.5123	758.057	77.457	758.057	76.268	758.057	76.249	758.057	79.7534	758.057	72.1102	758.057	81.4773	758.057	74.1677	758.057	82.5602	758.057	79.6251	758.057	83.0656	758.057	82.3224
784.424	90.8669	784.424	88.6062	784.424	92.1364	784.424	85.1996	784.424	92.5198	784.424	80.6872	784.424	92.0771	784.424	77.3137	784.424	90.8226	784.424	78.0328	784.424	88.72	784.424	79.1338	784.424	85.6941	784.424	79.0412	784.424	81.7901	784.424	77.5	784.424	77.9532	784.424	73.5939	784.424	76.1873	784.424	63.7202	784.424	75.7291	784.424	71.8701	784.424	75.2669	784.424	77.8079	784.424	75.6554	784.424	79.9937	784.424	77.5721	784.424	79.3449	784.424	79.5848	784.424	74.3724	784.424	81.2186	784.424	71.6075	784.424	83.0362	784.424	80.5583	784.424	84.3403	784.424	83.8822
812.256	90.8952	812.256	88.4204	812.256	92.2062	812.256	84.6239	812.256	92.4699	812.256	79.7991	812.256	91.7667	812.256	77.6435	812.256	90.1522	812.256	79.1608	812.256	87.6869	812.256	80.0274	812.256	84.6937	812.256	79.6217	812.256	82.4452	812.256	78.1058	812.256	81.9405	812.256	75.6182	812.256	81.694	812.256	73.7944	812.256	80.3793	812.256	76.1093	812.256	77.2994	812.256	79.049	812.256	72.7814	812.256	80.1259	812.256	74.9056	812.256	78.5948	812.256	78.8606	812.256	72.9184	812.256	80.9647	812.256	73.9735	812.256	82.2291	812.256	80.2619	812.256	83.0169	812.256	82.6975
840.82	89.9598	840.82	87.0022	840.82	91.6219	840.82	82.7746	840.82	92.1812	840.82	79.788	840.82	91.7603	840.82	81.1325	840.82	90.3585	840.82	82.717	840.82	87.7794	840.82	83.2174	840.82	83.4354	840.82	82.8086	840.82	75.4537	840.82	81.5975	840.82	69.1397	840.82	79.3535	840.82	75.862	840.82	75.2644	840.82	77.305	840.82	70.8428	840.82	76.8843	840.82	76.0383	840.82	76.9313	840.82	79.6142	840.82	78.2645	840.82	79.9826	840.82	79.2563	840.82	76.4791	840.82	79.5139	840.82	66.4419	840.82	80.5372	840.82	77.1694	840.82	81.837	840.82	81.3009
870.85	90.4386	870.85	86.0165	870.85	92.64	870.85	79.2694	870.85	93.2773	870.85	82.1842	870.85	92.5768	870.85	86.352	870.85	90.4005	870.85	88.4635	870.85	85.914	870.85	89.4963	870.85	73.7031	870.85	89.8984	870.85	79.5795	870.85	89.8595	870.85	86.5284	870.85	89.3422	870.85	89.0086	870.85	88.0525	870.85	89.3558	870.85	85.4192	870.85	88.1566	870.85	80.748	870.85	86.1902	870.85	79.1565	870.85	85.1559	870.85	83.0213	870.85	85.1721	870.85	84.0725	870.85	84.6965	870.85	81.4581	870.85	83.4743	870.85	71.5795	870.85	81.2306	870.85	75.0105
901.611	89.0072	901.611	89.2791	901.611	89.8665	901.611	89.4484	901.611	91.4159	901.611	88.7341	901.611	92.3814	901.611	87.0571	901.611	92.38	901.611	84.9724	901.611	91.5267	901.611	84.0561	901.611	89.9787	901.611	84.9996	901.611	88.2532	901.611	86.5119	901.611	87.9525	901.611	87.9025	901.611	89.0527	901.611	89.0235	901.611	89.726	901.611	89.619	901.611	89.3542	901.611	89.2355	901.611	88.0057	901.611	87.2072	901.611	85.7281	901.611	82.1953	901.611	82.3205	901.611	75.0412	901.611	77.6991	901.611	81.2284	901.611	71.936	901.611	83.1931	901.611	75.6547	901.611	81.3197
933.105	91.3719	933.105	88.7503	933.105	92.1569	933.105	83.3434	933.105	91.6357	933.105	76.5335	933.105	90.3099	933.105	82.2641	933.105	88.698	933.105	85.9825	933.105	87.2974	933.105	87.7008	933.105	86.3425	933.105	88.214	933.105	85.5383	933.105	87.6954	933.105	84.6491	933.105	86.0755	933.105	83.8365	933.105	83.3103	933.105	82.9811	933.105	81.2972	933.105	81.6288	933.105	83.4418	933.105	79.288	933.105	85.6493	933.105	75.1836	933.105	85.5493	933.105	74.7318	933.105	81.7933	933.105	77.8412	933.105	64.4269	933.105	80.824	933.105	80.4648	933.105	83.9593	933.105	84.4725
966.064	89.3113	966.064	88.0376	966.064	90.82	966.064	87.5505	966.064	91.7639	966.064	87.1871	966.064	91.8615	966.064	86.3562	966.064	91.0564	966.064	85.2057	966.064	89.2406	966.064	84.2304	966.064	86.0223	966.064	83.8269	966.064	81.0211	966.064	84.0648	966.064	80.0995	966.064	84.5648	966.064	83.5662	966.064	84.6105	966.064	85.1315	966.064	83.3823	966.064	85.1754	966.064	79.7078	966.064	84.4298	966.064	72.5436	966.064	83.9495	966.064	77.3151	966.064	84.2756	966.064	80.2376	966.064	84.0424	966.064	78.1606	966.064	82.924	966.064	73.2506	966.064	81.7086	966.064	78.7034
999.756	91.5299	999.756	89.941	999.756	91.552	999.756	85.8236	999.756	90.7735	999.756	76.6006	999.756	90.1082	999.756	81.3224	999.756	90.0481	999.756	86.8598	999.756	90.2189	999.756	89.178	999.756	89.9948	999.756	89.9316	999.756	89.1935	999.756	89.5978	999.756	88.6901	999.756	88.1859	999.756	89.3668	999.756	85.4671	999.756	89.9322	999.756	82.6532	999.756	89.3064	999.756	84.2965	999.756	87.4776	999.756	86.3119	999.756	84.6929	999.756	85.4759	999.756	81.4493	999.756	80.5206	999.756	79.0263	999.756	73.5139	999.756	78.1925	999.756	79.4554	999.756	79.4907	999.756	80.8587
1,034.91	89.944	1,034.91	88.5158	1,034.91	90.6031	1,034.91	87.0817	1,034.91	90.4923	1,034.91	86.5509	1,034.91	89.9437	1,034.91	86.5645	1,034.91	89.1483	1,034.91	86.464	1,034.91	88.0516	1,034.91	86.0307	1,034.91	86.5697	1,034.91	85.1403	1,034.91	84.5361	1,034.91	83.794	1,034.91	81.5002	1,034.91	82.2535	1,034.91	78.1892	1,034.91	80.5312	1,034.91	77.6025	1,034.91	77.6385	1,034.91	76.7026	1,034.91	73.4036	1,034.91	74.1616	1,034.91	77.2935	1,034.91	72.9179	1,034.91	81.2464	1,034.91	75.7632	1,034.91	81.5296	1,034.91	76.4025	1,034.91	77.6166	1,034.91	76.8004	1,034.91	76.5564	1,034.91	80.9816	1,034.91	81.2424
1,071.53	90.229	1,071.53	89.1178	1,071.53	90.2482	1,071.53	86.9444	1,071.53	89.6221	1,071.53	85.1773	1,071.53	88.8081	1,071.53	85.3286	1,071.53	88.0477	1,071.53	85.8253	1,071.53	87.3593	1,071.53	85.6068	1,071.53	86.6319	1,071.53	84.4647	1,071.53	85.7267	1,071.53	82.0343	1,071.53	84.5827	1,071.53	78.6234	1,071.53	83.5341	1,071.53	79.2645	1,071.53	83.8578	1,071.53	82.1857	1,071.53	85.3637	1,071.53	82.7036	1,071.53	85.5888	1,071.53	79.1579	1,071.53	84.0996	1,071.53	55.7323	1,071.53	83.8284	1,071.53	79.2728	1,071.53	83.2614	1,071.53	81.9915	1,071.53	79.9833	1,071.53	77.8437	1,071.53	77.2748	1,071.53	68.262
1,109.62	90.1002	1,109.62	89.036	1,109.62	90.3953	1,109.62	87.6801	1,109.62	90.0317	1,109.62	87.143	1,109.62	89.296	1,109.62	87.2624	1,109.62	88.5078	1,109.62	87.0059	1,109.62	87.5154	1,109.62	86.1469	1,109.62	85.0712	1,109.62	85.3424	1,109.62	77.6997	1,109.62	85.7188	1,109.62	73.7427	1,109.62	87.0206	1,109.62	82.9296	1,109.62	87.9476	1,109.62	84.7252	1,109.62	87.5128	1,109.62	83.8732	1,109.62	84.5032	1,109.62	81.8728	1,109.62	74.2567	1,109.62	80.0481	1,109.62	77.7246	1,109.62	79.9739	1,109.62	82.7979	1,109.62	80.0463	1,109.62	80.829	1,109.62	79.9121	1,109.62	72.5859	1,109.62	80.9201	1,109.62	78.8454
1,148.44	89.458	1,148.44	88.4461	1,148.44	90.0495	1,148.44	87.7962	1,148.44	90.0457	1,148.44	88.1117	1,148.44	89.5213	1,148.44	88.6927	1,148.44	88.3442	1,148.44	88.7988	1,148.44	86.0202	1,148.44	88.4482	1,148.44	82.3751	1,148.44	87.9039	1,148.44	81.2159	1,148.44	87.1163	1,148.44	83.6363	1,148.44	85.9618	1,148.44	84.6256	1,148.44	84.449	1,148.44	83.5408	1,148.44	82.3922	1,148.44	80.6146	1,148.44	79.2595	1,148.44	76.7589	1,148.44	75.2678	1,148.44	73.8231	1,148.44	77.192	1,148.44	77.2434	1,148.44	80.6803	1,148.44	79.4104	1,148.44	81.0642	1,148.44	77.5233	1,148.44	78.5543	1,148.44	76.8239	1,148.44	76.9187
1,189.45	90.6268	1,189.45	88.9768	1,189.45	91.0099	1,189.45	87.1175	1,189.45	90.1818	1,189.45	87.1462	1,189.45	88.6543	1,189.45	88.0644	1,189.45	87.0862	1,189.45	88.2278	1,189.45	85.7969	1,189.45	87.5691	1,189.45	84.5872	1,189.45	86.3007	1,189.45	82.5001	1,189.45	84.0917	1,189.45	77.5219	1,189.45	79.7598	1,189.45	71.8396	1,189.45	73.6824	1,189.45	78.2408	1,189.45	79.1459	1,189.45	80.2204	1,189.45	82.2811	1,189.45	79.8303	1,189.45	81.1341	1,189.45	79.234	1,189.45	73.7836	1,189.45	78.778	1,189.45	76.9086	1,189.45	77.3829	1,189.45	80.6099	1,189.45	75.3173	1,189.45	78.8394	1,189.45	74.1479	1,189.45	74.9819
1,231.2	90.6051	1,231.2	89.3044	1,231.2	91.0879	1,231.2	88.5138	1,231.2	90.3366	1,231.2	88.3662	1,231.2	88.308	1,231.2	87.6031	1,231.2	84.8054	1,231.2	85.8305	1,231.2	81.6988	1,231.2	83.4779	1,231.2	84.0732	1,231.2	81.075	1,231.2	85.7664	1,231.2	78.5955	1,231.2	84.3056	1,231.2	76.15	1,231.2	79.7271	1,231.2	75.9129	1,231.2	77.2223	1,231.2	77.8479	1,231.2	77.1872	1,231.2	78.7274	1,231.2	73.0906	1,231.2	77.7948	1,231.2	61.7561	1,231.2	77.286	1,231.2	72.9867	1,231.2	78.0874	1,231.2	77.0823	1,231.2	77.244	1,231.2	77.1822	1,231.2	76.5006	1,231.2	77.3548	1,231.2	77.6766
1,274.41	91.1641	1,274.41	89.855	1,274.41	91.1687	1,274.41	88.5575	1,274.41	89.9278	1,274.41	88.7625	1,274.41	87.8509	1,274.41	88.9988	1,274.41	85.3802	1,274.41	88.2253	1,274.41	83.9414	1,274.41	86.6161	1,274.41	85.0205	1,274.41	84.8405	1,274.41	86.0857	1,274.41	83.3779	1,274.41	85.8499	1,274.41	81.5747	1,274.41	84.4161	1,274.41	77.6096	1,274.41	81.5507	1,274.41	69.0359	1,274.41	76.9769	1,274.41	77.3691	1,274.41	76.4241	1,274.41	81.549	1,274.41	77.5384	1,274.41	81.2935	1,274.41	76.4	1,274.41	76.2149	1,274.41	72.9504	1,274.41	73.0406	1,274.41	68.5762	1,274.41	77.9632	1,274.41	72.6496	1,274.41	77.3531
1,319.82	90.6751	1,319.82	89.5627	1,319.82	91.1415	1,319.82	89.2617	1,319.82	90.1655	1,319.82	89.5312	1,319.82	87.4608	1,319.82	89.017	1,319.82	82.6182	1,319.82	87.4156	1,319.82	78.5288	1,319.82	84.9168	1,319.82	84.7181	1,319.82	81.8793	1,319.82	87.6523	1,319.82	79.8143	1,319.82	86.9665	1,319.82	80.673	1,319.82	82.0475	1,319.82	81.8117	1,319.82	75.4862	1,319.82	81.1582	1,319.82	80.2509	1,319.82	77.6297	1,319.82	80.0509	1,319.82	71.2623	1,319.82	74.7623	1,319.82	76.4579	1,319.82	71.3961	1,319.82	78.9099	1,319.82	77.6589	1,319.82	78.1343	1,319.82	77.3512	1,319.82	76.7929	1,319.82	76.5466	1,319.82	76.9068
1,365.97	89.9728	1,365.97	89.3052	1,365.97	89.9347	1,365.97	89.099	1,365.97	88.7213	1,365.97	89.3009	1,365.97	86.6259	1,365.97	88.5678	1,365.97	84.2008	1,365.97	86.4962	1,365.97	82.609	1,365.97	83.4241	1,365.97	83.3486	1,365.97	79.4656	1,365.97	84.5968	1,365.97	74.2317	1,365.97	84.4577	1,365.97	70.1719	1,365.97	81.6505	1,365.97	70.1123	1,365.97	73.568	1,365.97	68.9353	1,365.97	71.5979	1,365.97	72.2073	1,365.97	75.8165	1,365.97	77.0189	1,365.97	76.7909	1,365.97	78.0716	1,365.97	75.4493	1,365.97	74.225	1,365.97	69.1618	1,365.97	74.3508	1,365.97	66.6557	1,365.97	78.5539	1,365.97	72.0851	1,365.97	77.3177
1,414.31	89.4182	1,414.31	88.8988	1,414.31	89.438	1,414.31	89.0465	1,414.31	87.9438	1,414.31	89.0936	1,414.31	84.9543	1,414.31	87.8584	1,414.31	81.1066	1,414.31	84.9167	1,414.31	79.586	1,414.31	80.5296	1,414.31	82.8659	1,414.31	75.925	1,414.31	84.6291	1,414.31	73.6205	1,414.31	83.7246	1,414.31	74.7557	1,414.31	80.2861	1,414.31	75.1364	1,414.31	74.6651	1,414.31	70.4926	1,414.31	68.4242	1,414.31	67.3349	1,414.31	70.2372	1,414.31	78.1463	1,414.31	60.9554	1,414.31	79.9797	1,414.31	69.3821	1,414.31	76.9351	1,414.31	70.8328	1,414.31	74.5457	1,414.31	69.7286	1,414.31	76.9523	1,414.31	69.1619	1,414.31	74.9894
1,464.11	89.6448	1,464.11	88.8268	1,464.11	89.5258	1,464.11	88.7258	1,464.11	87.2902	1,464.11	88.8903	1,464.11	83.1414	1,464.11	87.846	1,464.11	79.7904	1,464.11	85.2126	1,464.11	82.3711	1,464.11	81.7369	1,464.11	85.5985	1,464.11	78.5647	1,464.11	86.5116	1,464.11	75.5333	1,464.11	84.5419	1,464.11	73.0609	1,464.11	78.7989	1,464.11	73.7807	1,464.11	73.034	1,464.11	74.1589	1,464.11	73.9096	1,464.11	70.2605	1,464.11	73.1341	1,464.11	63.0971	1,464.11	76.708	1,464.11	75.7285	1,464.11	73.8264	1,464.11	77.2369	1,464.11	57.6617	1,464.11	73.6358	1,464.11	63.3056	1,464.11	75.1203	1,464.11	74.7301	1,464.11	77.3846
1,515.38	90.0325	1,515.38	89.197	1,515.38	89.378	1,515.38	88.2358	1,515.38	86.663	1,515.38	87.5738	1,515.38	81.8036	1,515.38	86.4084	1,515.38	78.1323	1,515.38	84.0895	1,515.38	81.3199	1,515.38	80.6175	1,515.38	84.0322	1,515.38	76.8829	1,515.38	83.2634	1,515.38	73.108	1,515.38	78.526	1,515.38	68.5211	1,515.38	69.7365	1,515.38	67.0631	1,515.38	69.9636	1,515.38	67.1048	1,515.38	65.3561	1,515.38	63.2007	1,515.38	62.524	1,515.38	67.221	1,515.38	60.1864	1,515.38	75.5089	1,515.38	72.0628	1,515.38	77.9368	1,515.38	67.5024	1,515.38	75.236	1,515.38	68.2087	1,515.38	73.5349	1,515.38	71.9079	1,515.38	74.5272
1,568.85	89.7854	1,568.85	89.1138	1,568.85	89.3506	1,568.85	88.5708	1,568.85	86.5309	1,568.85	87.3673	1,568.85	80.505	1,568.85	84.7718	1,568.85	74.0275	1,568.85	80.8453	1,568.85	78.8806	1,568.85	76.5118	1,568.85	83.2624	1,568.85	74.2934	1,568.85	83.6994	1,568.85	73.3112	1,568.85	80.6135	1,568.85	70.2442	1,568.85	75.7476	1,568.85	61.641	1,568.85	71.5769	1,568.85	69.9788	1,568.85	65.631	1,568.85	71.3665	1,568.85	52.4684	1,568.85	62.4894	1,568.85	72.3663	1,568.85	72.539	1,568.85	73.7307	1,568.85	75.0625	1,568.85	62.6268	1,568.85	72.2747	1,568.85	58.3415	1,568.85	73.6731	1,568.85	72.7523	1,568.85	76.5095
1,624.51	89.1153	1,624.51	88.679	1,624.51	88.1448	1,624.51	87.7177	1,624.51	84.8989	1,624.51	86.1769	1,624.51	78.8229	1,624.51	83.357	1,624.51	72.2809	1,624.51	79.5433	1,624.51	75.1572	1,624.51	76.1678	1,624.51	80.7296	1,624.51	73.5062	1,624.51	83.3235	1,624.51	69.3787	1,624.51	82.5127	1,624.51	65.4068	1,624.51	75.6158	1,624.51	68.333	1,624.51	69.9983	1,624.51	70.5108	1,624.51	75.2169	1,624.51	71.2375	1,624.51	63.8935	1,624.51	68.6585	1,624.51	67.4698	1,624.51	71.9056	1,624.51	55.5845	1,624.51	75.8176	1,624.51	69.6097	1,624.51	71.4252	1,624.51	64.9856	1,624.51	72.5018	1,624.51	73.0092	1,624.51	75.625
1,681.64	89.2698	1,681.64	88.5211	1,681.64	87.4535	1,681.64	87.1927	1,681.64	81.5655	1,681.64	85.8898	1,681.64	73.3324	1,681.64	83.021	1,681.64	73.9587	1,681.64	77.5524	1,681.64	79.3355	1,681.64	69.8147	1,681.64	83.3282	1,681.64	59.5017	1,681.64	83.1523	1,681.64	57.6187	1,681.64	79.7771	1,681.64	54.3975	1,681.64	75.5707	1,681.64	60.5878	1,681.64	63.8659	1,681.64	65.7872	1,681.64	66.73	1,681.64	64.692	1,681.64	66.0134	1,681.64	63.5184	1,681.64	67.0912	1,681.64	44.6567	1,681.64	67.5468	1,681.64	69.5149	1,681.64	65.6547	1,681.64	72.948	1,681.64	61.0398	1,681.64	72.9513	1,681.64	74.2351	1,681.64	75.9111
1,740.97	89.701	1,740.97	88.1946	1,740.97	88.3983	1,740.97	86.8467	1,740.97	82.0165	1,740.97	85.6595	1,740.97	66.6856	1,740.97	82.0445	1,740.97	65.0439	1,740.97	75.7647	1,740.97	79.2678	1,740.97	72.3982	1,740.97	83.3444	1,740.97	71.5507	1,740.97	82.0026	1,740.97	70.6583	1,740.97	79.6524	1,740.97	57.5549	1,740.97	76.5176	1,740.97	65.9203	1,740.97	74.3319	1,740.97	69.4678	1,740.97	74.0565	1,740.97	65.4324	1,740.97	66.1816	1,740.97	66.7692	1,740.97	73.4967	1,740.97	66.9963	1,740.97	72.6041	1,740.97	65.7731	1,740.97	61.588	1,740.97	71.8236	1,740.97	65.5045	1,740.97	70.6164	1,740.97	70.8155	1,740.97	73.9137
1,802.49	90.227	1,802.49	88.8758	1,802.49	88.535	1,802.49	86.8005	1,802.49	81.6959	1,802.49	84.3101	1,802.49	62.8408	1,802.49	79.4679	1,802.49	65.8702	1,802.49	74.5908	1,802.49	77.925	1,802.49	75.0902	1,802.49	80.8209	1,802.49	71.9762	1,802.49	79.2996	1,802.49	54.3179	1,802.49	77.8423	1,802.49	66.1205	1,802.49	73.6295	1,802.49	68.1181	1,802.49	65.3543	1,802.49	69.9896	1,802.49	70.5617	1,802.49	65.9872	1,802.49	71.5494	1,802.49	68.7626	1,802.49	65.1126	1,802.49	64.4428	1,802.49	68.0204	1,802.49	64.899	1,802.49	64.496	1,802.49	71.7414	1,802.49	66.1561	1,802.49	74.5442	1,802.49	72.6281	1,802.49	75.466
1,866.21	89.5914	1,866.21	88.0446	1,866.21	88.1512	1,866.21	86.0035	1,866.21	82.1547	1,866.21	83.5597	1,866.21	69.3665	1,866.21	78.0078	1,866.21	68.3029	1,866.21	72.5591	1,866.21	78.8359	1,866.21	72.9911	1,866.21	81.5175	1,866.21	71.0886	1,866.21	79.4248	1,866.21	66.5825	1,866.21	77.9775	1,866.21	74.4398	1,866.21	76.2556	1,866.21	74.5552	1,866.21	70.6362	1,866.21	64.8427	1,866.21	70.0792	1,866.21	59.9219	1,866.21	66.0806	1,866.21	60.254	1,866.21	64.5506	1,866.21	58.7396	1,866.21	67.05	1,866.21	55.7004	1,866.21	63.3764	1,866.21	66.9185	1,866.21	65.0022	1,866.21	70.9701	1,866.21	70.103	1,866.21	72.1554
1,932.13	88.898	1,932.13	87.5774	1,932.13	87.0303	1,932.13	86.0714	1,932.13	79.8762	1,932.13	84.1331	1,932.13	72.288	1,932.13	78.1165	1,932.13	71.1419	1,932.13	70.1911	1,932.13	80.2688	1,932.13	68.8342	1,932.13	82.4166	1,932.13	68.1157	1,932.13	80.5906	1,932.13	67.6231	1,932.13	80.7313	1,932.13	65.5487	1,932.13	75.266	1,932.13	71.7565	1,932.13	71.3194	1,932.13	72.6875	1,932.13	70.7122	1,932.13	73.7087	1,932.13	54.899	1,932.13	68.9953	1,932.13	59.7784	1,932.13	62.2742	1,932.13	66.3231	1,932.13	67.4877	1,932.13	60.4062	1,932.13	64.8433	1,932.13	60.4319	1,932.13	73.9098	1,932.13	71.7933	1,932.13	75.8303
2,000.24	89.7791	2,000.24	87.6574	2,000.24	88.0973	2,000.24	85.5903	2,000.24	79.6475	2,000.24	83.4574	2,000.24	77.2337	2,000.24	78.2112	2,000.24	76.9569	2,000.24	75.8155	2,000.24	81.1222	2,000.24	72.6758	2,000.24	81.4767	2,000.24	64.0022	2,000.24	79.2807	2,000.24	68.066	2,000.24	81.0216	2,000.24	72.9397	2,000.24	77.6444	2,000.24	70.2393	2,000.24	64.5061	2,000.24	68.2357	2,000.24	68.1445	2,000.24	76.1401	2,000.24	70.9023	2,000.24	74.2377	2,000.24	60.6446	2,000.24	65.8204	2,000.24	57.7476	2,000.24	61.2097	2,000.24	61.5027	2,000.24	63.5367	2,000.24	68.1166	2,000.24	72.4045	2,000.24	72.5603	2,000.24	74.8385
2,070.56	90.2759	2,070.56	88.4176	2,070.56	88.3218	2,070.56	86.2463	2,070.56	79.4852	2,070.56	83.6489	2,070.56	75.5082	2,070.56	80.004	2,070.56	79.7753	2,070.56	76.7444	2,070.56	80.9607	2,070.56	73.098	2,070.56	81.8576	2,070.56	74.506	2,070.56	82.0479	2,070.56	74.7755	2,070.56	82.1891	2,070.56	75.2171	2,070.56	74.9803	2,070.56	78.2998	2,070.56	73.4134	2,070.56	78.2489	2,070.56	71.9055	2,070.56	70.7599	2,070.56	65.5986	2,070.56	68.7503	2,070.56	66.4377	2,070.56	67.8515	2,070.56	63.2564	2,070.56	58.3707	2,070.56	71.4785	2,070.56	63.3848	2,070.56	65.5987	2,070.56	69.1657	2,070.56	69.4812	2,070.56	76.297
2,143.8	89.4488	2,143.8	88.3513	2,143.8	87.4056	2,143.8	87.0101	2,143.8	80.2421	2,143.8	84.2524	2,143.8	76.3644	2,143.8	80.5076	2,143.8	81.1397	2,143.8	78.4582	2,143.8	82.5514	2,143.8	77.069	2,143.8	81.956	2,143.8	78.5743	2,143.8	84.2852	2,143.8	79.4523	2,143.8	85.2588	2,143.8	77.154	2,143.8	79.7195	2,143.8	74.8575	2,143.8	69.6958	2,143.8	73.1334	2,143.8	70.5494	2,143.8	70.8452	2,143.8	70.5049	2,143.8	68.9627	2,143.8	58.3476	2,143.8	69.1065	2,143.8	70.9329	2,143.8	65.5725	2,143.8	74.1909	2,143.8	63.96	2,143.8	67.9618	2,143.8	74.6239	2,143.8	74.8913	2,143.8	78.4672
2,219.24	88.4811	2,219.24	87.4278	2,219.24	86.6827	2,219.24	86.8474	2,219.24	79.1924	2,219.24	83.6539	2,219.24	79.7465	2,219.24	81.5363	2,219.24	83.2834	2,219.24	81.6205	2,219.24	83.9653	2,219.24	78.4164	2,219.24	81.457	2,219.24	77.5276	2,219.24	82.7691	2,219.24	78.6924	2,219.24	84.781	2,219.24	76.5023	2,219.24	78.9186	2,219.24	74.0568	2,219.24	64.5223	2,219.24	76.7113	2,219.24	72.8667	2,219.24	75.4883	2,219.24	73.5391	2,219.24	62.8371	2,219.24	56.431	2,219.24	72.0271	2,219.24	73.5128	2,219.24	71.7141	2,219.24	68.2424	2,219.24	66.9212	2,219.24	64.8824	2,219.24	69.6071	2,219.24	72.2598	2,219.24	75.4292
2,297.61	89.59	2,297.61	87.6286	2,297.61	87.6634	2,297.61	86.7549	2,297.61	78.1467	2,297.61	84.265	2,297.61	78.5423	2,297.61	82.3155	2,297.61	82.1708	2,297.61	82.274	2,297.61	84.267	2,297.61	80.0444	2,297.61	82.877	2,297.61	78.465	2,297.61	84.3437	2,297.61	78.2264	2,297.61	84.9368	2,297.61	77.4044	2,297.61	79.3774	2,297.61	74.0741	2,297.61	74.3761	2,297.61	71.4102	2,297.61	60.2919	2,297.61	68.3868	2,297.61	63.6858	2,297.61	72.4258	2,297.61	60.2221	2,297.61	66.6548	2,297.61	73.9866	2,297.61	73.6183	2,297.61	68.4811	2,297.61	70.1444	2,297.61	66.4962	2,297.61	70.6726	2,297.61	72.1855	2,297.61	73.4416
2,378.17	89.3878	2,378.17	88.1538	2,378.17	88.1445	2,378.17	86.5257	2,378.17	82.07	2,378.17	83.7606	2,378.17	79.3082	2,378.17	83.3346	2,378.17	84.0246	2,378.17	82.432	2,378.17	84.5604	2,378.17	80.6198	2,378.17	81.6914	2,378.17	79.247	2,378.17	84.6832	2,378.17	75.1188	2,378.17	87.1475	2,378.17	70.4731	2,378.17	81.164	2,378.17	65.2866	2,378.17	58.2758	2,378.17	68.7078	2,378.17	69.9142	2,378.17	75.3651	2,378.17	67.4636	2,378.17	76.1052	2,378.17	64.364	2,378.17	72.1339	2,378.17	71.9229	2,378.17	73.7399	2,378.17	65.4002	2,378.17	73.9286	2,378.17	68.7833	2,378.17	73.7035	2,378.17	74.2646	2,378.17	75.8868
2,462.4	88.9341	2,462.4	88.5401	2,462.4	88.0384	2,462.4	87.6331	2,462.4	83.6322	2,462.4	85.9432	2,462.4	80.3171	2,462.4	83.8071	2,462.4	81.9462	2,462.4	81.6906	2,462.4	84.0252	2,462.4	80.9531	2,462.4	84.4882	2,462.4	79.7534	2,462.4	83.7413	2,462.4	77.9662	2,462.4	84.9302	2,462.4	76.7924	2,462.4	81.4481	2,462.4	75.05	2,462.4	66.2882	2,462.4	73.6231	2,462.4	68.3237	2,462.4	70.4618	2,462.4	67.0509	2,462.4	64.2104	2,462.4	64.4613	2,462.4	67.5394	2,462.4	71.2581	2,462.4	72.1761	2,462.4	68.1579	2,462.4	74.4311	2,462.4	55.5274	2,462.4	74.6768	2,462.4	71.7354	2,462.4	75.0366
2,548.83	88.7119	2,548.83	87.8994	2,548.83	87.7924	2,548.83	87.5446	2,548.83	83.757	2,548.83	86.8032	2,548.83	82.454	2,548.83	84.4279	2,548.83	83.0957	2,548.83	80.5717	2,548.83	84.0229	2,548.83	79.8666	2,548.83	84.8202	2,548.83	79.6706	2,548.83	84.4826	2,548.83	77.6222	2,548.83	84.5904	2,548.83	76.9517	2,548.83	81.3643	2,548.83	74.9558	2,548.83	71.0049	2,548.83	75.2858	2,548.83	69.4134	2,548.83	74.5004	2,548.83	69.7543	2,548.83	69.5295	2,548.83	71.1263	2,548.83	69.303	2,548.83	71.9267	2,548.83	66.7491	2,548.83	68.2456	2,548.83	72.001	2,548.83	62.3433	2,548.83	73.1432	2,548.83	69.776	2,548.83	74.4698
2,638.92	88.6182	2,638.92	88.4489	2,638.92	87.5077	2,638.92	87.421	2,638.92	83.923	2,638.92	85.9911	2,638.92	82.8033	2,638.92	83.3289	2,638.92	84.6076	2,638.92	81.458	2,638.92	84.7206	2,638.92	81.94	2,638.92	84.7668	2,638.92	81.2154	2,638.92	84.4031	2,638.92	79.1856	2,638.92	84.0034	2,638.92	78.629	2,638.92	79.7184	2,638.92	77.5014	2,638.92	68.08	2,638.92	73.6977	2,638.92	70.6063	2,638.92	73.2825	2,638.92	71.3862	2,638.92	68.6213	2,638.92	70.852	2,638.92	69.8116	2,638.92	73.0076	2,638.92	68.144	2,638.92	67.4673	2,638.92	70.5586	2,638.92	55.7073	2,638.92	74.0703	2,638.92	70.3818	2,638.92	75.9102
2,731.93	88.0533	2,731.93	88.7285	2,731.93	87.0851	2,731.93	88.0496	2,731.93	85.2622	2,731.93	85.8423	2,731.93	83.563	2,731.93	83.8437	2,731.93	85.4409	2,731.93	82.8537	2,731.93	86.5316	2,731.93	82.2042	2,731.93	85.4042	2,731.93	81.2705	2,731.93	83.3829	2,731.93	78.981	2,731.93	83.9811	2,731.93	77.0878	2,731.93	82.4578	2,731.93	73.9446	2,731.93	71.1654	2,731.93	75.6031	2,731.93	67.5613	2,731.93	74.8224	2,731.93	71.4043	2,731.93	71.0269	2,731.93	71.7813	2,731.93	68.0695	2,731.93	71.4743	2,731.93	69.0826	2,731.93	70.197	2,731.93	69.6748	2,731.93	59.2847	2,731.93	72.3842	2,731.93	69.9509	2,731.93	75.5136
2,828.61	88.2254	2,828.61	88.5718	2,828.61	87.0293	2,828.61	87.7257	2,828.61	85.2799	2,828.61	86.193	2,828.61	84.1153	2,828.61	84.3517	2,828.61	85.1373	2,828.61	83.8401	2,828.61	86.6414	2,828.61	83.0756	2,828.61	85.5083	2,828.61	81.4701	2,828.61	83.6063	2,828.61	79.1509	2,828.61	83.251	2,828.61	78.1304	2,828.61	80.1439	2,828.61	78.0613	2,828.61	72.8227	2,828.61	74.1898	2,828.61	67.4369	2,828.61	72.9421	2,828.61	70.9105	2,828.61	70.1025	2,828.61	71.8002	2,828.61	68.3505	2,828.61	72.573	2,828.61	69.1331	2,828.61	69.7255	2,828.61	70.1727	2,828.61	62.1735	2,828.61	71.5003	2,828.61	72.7205	2,828.61	75.2552
2,928.22	87.8195	2,928.22	87.9604	2,928.22	86.3282	2,928.22	86.756	2,928.22	85.3275	2,928.22	86.2043	2,928.22	84.0108	2,928.22	84.9482	2,928.22	85.263	2,928.22	84.1659	2,928.22	86.7989	2,928.22	82.5133	2,928.22	85.3075	2,928.22	80.4964	2,928.22	83.2287	2,928.22	79.1581	2,928.22	83.5036	2,928.22	78.5738	2,928.22	78.8343	2,928.22	75.1066	2,928.22	71.6719	2,928.22	73.914	2,928.22	67.5009	2,928.22	73.4561	2,928.22	71.1482	2,928.22	69.6221	2,928.22	68.5569	2,928.22	69.9699	2,928.22	71.7752	2,928.22	68.1132	2,928.22	71.6787	2,928.22	71.127	2,928.22	62.629	2,928.22	70.8431	2,928.22	71.4957	2,928.22	74.5178
3,031.49	88.0927	3,031.49	87.832	3,031.49	86.9921	3,031.49	87.137	3,031.49	86.7015	3,031.49	86.5269	3,031.49	85.2411	3,031.49	85.5582	3,031.49	85.4052	3,031.49	85.1227	3,031.49	86.7774	3,031.49	82.7532	3,031.49	85.4856	3,031.49	80.6121	3,031.49	83.0238	3,031.49	77.8431	3,031.49	84.1657	3,031.49	72.2392	3,031.49	81.1764	3,031.49	75.1923	3,031.49	68.4679	3,031.49	74.6694	3,031.49	65.4375	3,031.49	72.9979	3,031.49	67.9067	3,031.49	68.6873	3,031.49	67.8546	3,031.49	67.4508	3,031.49	70.898	3,031.49	67.0632	3,031.49	71.6111	3,031.49	70.4026	3,031.49	66.0265	3,031.49	70.6591	3,031.49	71.4963	3,031.49	72.6668
3,138.43	89.0124	3,138.43	88.674	3,138.43	87.525	3,138.43	88.3501	3,138.43	87.3906	3,138.43	86.8478	3,138.43	86.05	3,138.43	85.2658	3,138.43	86.015	3,138.43	84.6859	3,138.43	86.9917	3,138.43	82.0044	3,138.43	84.9822	3,138.43	80.2154	3,138.43	83.831	3,138.43	79.8863	3,138.43	84.1707	3,138.43	80.1057	3,138.43	82.583	3,138.43	78.3868	3,138.43	71.5948	3,138.43	72.4521	3,138.43	71.0949	3,138.43	73.9056	3,138.43	68.3396	3,138.43	69.8773	3,138.43	68.6486	3,138.43	67.4282	3,138.43	71.2187	3,138.43	66.516	3,138.43	69.0246	3,138.43	65.9305	3,138.43	63.6455	3,138.43	71.2088	3,138.43	70.5724	3,138.43	72.4753
3,249.02	88.9128	3,249.02	88.5806	3,249.02	87.735	3,249.02	88.3878	3,249.02	88.058	3,249.02	87.1886	3,249.02	86.9286	3,249.02	85.911	3,249.02	85.941	3,249.02	84.4186	3,249.02	87.2205	3,249.02	83.1855	3,249.02	84.5351	3,249.02	82.0805	3,249.02	82.6325	3,249.02	80.3115	3,249.02	83.7434	3,249.02	76.682	3,249.02	82.3399	3,249.02	73.3157	3,249.02	74.2445	3,249.02	75.9314	3,249.02	69.2111	3,249.02	73.9645	3,249.02	70.7217	3,249.02	70.9513	3,249.02	68.1345	3,249.02	68.5654	3,249.02	68.6052	3,249.02	69.7638	3,249.02	69.5176	3,249.02	67.5699	3,249.02	60.2674	3,249.02	70.863	3,249.02	69.5181	3,249.02	73.0731
3,363.28	88.5593	3,363.28	88.2315	3,363.28	87.6344	3,363.28	88.0622	3,363.28	88.069	3,363.28	86.9393	3,363.28	87.1431	3,363.28	85.972	3,363.28	85.3205	3,363.28	84.62	3,363.28	85.9837	3,363.28	84.2184	3,363.28	84.2503	3,363.28	82.7162	3,363.28	81.269	3,363.28	80.0174	3,363.28	80.8308	3,363.28	77.2047	3,363.28	81.0546	3,363.28	76.9492	3,363.28	74.6977	3,363.28	73.2361	3,363.28	69.5474	3,363.28	72.8973	3,363.28	70.2363	3,363.28	70.2789	3,363.28	68.4747	3,363.28	68.6936	3,363.28	69.602	3,363.28	68.7346	3,363.28	70.1896	3,363.28	67.2973	3,363.28	61.8267	3,363.28	70.0739	3,363.28	69.6299	3,363.28	72.6493
3,481.93	88.9475	3,481.93	88.3605	3,481.93	88.0545	3,481.93	87.8512	3,481.93	88.1982	3,481.93	86.5839	3,481.93	87.656	3,481.93	85.7378	3,481.93	85.4642	3,481.93	85.5681	3,481.93	85.5226	3,481.93	83.7985	3,481.93	83.4831	3,481.93	80.893	3,481.93	81.5515	3,481.93	79.3098	3,481.93	80.2748	3,481.93	78.8055	3,481.93	78.913	3,481.93	76.5662	3,481.93	71.6918	3,481.93	72.5736	3,481.93	70.008	3,481.93	72.9469	3,481.93	68.8359	3,481.93	68.6037	3,481.93	68.4814	3,481.93	68.141	3,481.93	68.7209	3,481.93	68.1408	3,481.93	68.474	3,481.93	67.5582	3,481.93	61.9793	3,481.93	68.1652	3,481.93	68.6584	3,481.93	72.7145
3,604.98	88.8863	3,604.98	88.4001	3,604.98	88.6668	3,604.98	87.7501	3,604.98	88.7799	3,604.98	86.3936	3,604.98	87.8515	3,604.98	86.4666	3,604.98	85.1483	3,604.98	85.9216	3,604.98	84.4332	3,604.98	83.3472	3,604.98	82.9856	3,604.98	81.3217	3,604.98	81.8355	3,604.98	78.5941	3,604.98	80.6402	3,604.98	75.018	3,604.98	78.4681	3,604.98	74.0534	3,604.98	71.2897	3,604.98	74.438	3,604.98	68.4485	3,604.98	72.0257	3,604.98	68.3884	3,604.98	67.917	3,604.98	69.202	3,604.98	67.1932	3,604.98	65.7662	3,604.98	68.4179	3,604.98	68.2708	3,604.98	67.4243	3,604.98	62.16	3,604.98	68.2362	3,604.98	67.6853	3,604.98	72.5613
3,732.42	89.07	3,732.42	88.3955	3,732.42	88.6885	3,732.42	87.8394	3,732.42	89.0851	3,732.42	86.4196	3,732.42	88.3436	3,732.42	87.1928	3,732.42	84.819	3,732.42	85.9131	3,732.42	83.8289	3,732.42	83.4237	3,732.42	81.8806	3,732.42	81.6358	3,732.42	80.6824	3,732.42	79.4983	3,732.42	81.3877	3,732.42	75.6746	3,732.42	78.6807	3,732.42	75.0335	3,732.42	70.8829	3,732.42	73.0997	3,732.42	65.6075	3,732.42	72.1441	3,732.42	69.8236	3,732.42	69.3883	3,732.42	68.1672	3,732.42	65.3336	3,732.42	65.6253	3,732.42	67.8437	3,732.42	69.088	3,732.42	67.4752	3,732.42	62.5972	3,732.42	68.1188	3,732.42	65.7779	3,732.42	71.8865
3,863.53	89.5329	3,863.53	89.0507	3,863.53	89.34	3,863.53	87.5021	3,863.53	88.9057	3,863.53	86.9722	3,863.53	88.135	3,863.53	87.6131	3,863.53	84.7194	3,863.53	86.0775	3,863.53	82.2648	3,863.53	83.8065	3,863.53	82.5222	3,863.53	80.4673	3,863.53	80.3793	3,863.53	79.4241	3,863.53	78.6976	3,863.53	78.2912	3,863.53	76.7039	3,863.53	75.2944	3,863.53	74.1456	3,863.53	72.4112	3,863.53	63.7515	3,863.53	72.555	3,863.53	68.8208	3,863.53	68.7376	3,863.53	67.5567	3,863.53	63.403	3,863.53	64.8369	3,863.53	66.64	3,863.53	68.2197	3,863.53	66.798	3,863.53	66.2269	3,863.53	68.9424	3,863.53	66.5993	3,863.53	71.3787
3,999.76	89.73	3,999.76	89.296	3,999.76	89.464	3,999.76	87.9218	3,999.76	89.273	3,999.76	87.4061	3,999.76	88.15	3,999.76	87.3824	3,999.76	84.5298	3,999.76	86.1117	3,999.76	81.9609	3,999.76	83.4353	3,999.76	81.5887	3,999.76	80.7693	3,999.76	82.3726	3,999.76	78.2434	3,999.76	80.4718	3,999.76	76.8927	3,999.76	71.0896	3,999.76	73.302	3,999.76	70.8318	3,999.76	72.9797	3,999.76	64.4878	3,999.76	71.1407	3,999.76	67.184	3,999.76	69.8824	3,999.76	66.853	3,999.76	62.9105	3,999.76	64.8728	3,999.76	65.8853	3,999.76	68.1607	3,999.76	66.1196	3,999.76	65.2744	3,999.76	67.7502	3,999.76	65.6899	3,999.76	70.9997
4,141.11	89.9495	4,141.11	89.2946	4,141.11	89.7038	4,141.11	87.8067	4,141.11	89.2233	4,141.11	88.0754	4,141.11	88.1722	4,141.11	87.2386	4,141.11	83.7241	4,141.11	85.5645	4,141.11	80.8249	4,141.11	83.4462	4,141.11	81.1063	4,141.11	80.6904	4,141.11	80.6909	4,141.11	79.0522	4,141.11	81.2555	4,141.11	75.5498	4,141.11	68.285	4,141.11	73.6496	4,141.11	65.6528	4,141.11	72.5205	4,141.11	61.6403	4,141.11	71.0989	4,141.11	66.0003	4,141.11	69.8284	4,141.11	66.9625	4,141.11	66.1031	4,141.11	61.3974	4,141.11	65.2583	4,141.11	67.4182	4,141.11	64.7809	4,141.11	63.8513	4,141.11	66.5148	4,141.11	66.0747	4,141.11	71.2704
4,286.87	90.5907	4,286.87	89.6132	4,286.87	90.0714	4,286.87	88.2742	4,286.87	89.5753	4,286.87	87.8223	4,286.87	88.1163	4,286.87	87.0565	4,286.87	83.9243	4,286.87	85.4704	4,286.87	80.591	4,286.87	83.8441	4,286.87	82.092	4,286.87	81.6838	4,286.87	80.2917	4,286.87	79.0817	4,286.87	81.405	4,286.87	76.1379	4,286.87	76.878	4,286.87	74.4268	4,286.87	58.6031	4,286.87	72.0054	4,286.87	61.4038	4,286.87	71.4678	4,286.87	67.1415	4,286.87	68.1699	4,286.87	64.7822	4,286.87	66.3587	4,286.87	62.2486	4,286.87	64.8742	4,286.87	65.6268	4,286.87	64.5991	4,286.87	65.1528	4,286.87	67.1298	4,286.87	65.4135	4,286.87	70.6845
4,438.48	90.3065	4,438.48	89.4751	4,438.48	89.9117	4,438.48	88.7052	4,438.48	89.3908	4,438.48	88.2659	4,438.48	87.996	4,438.48	87.0554	4,438.48	84.001	4,438.48	85.6572	4,438.48	80.0118	4,438.48	84.5557	4,438.48	81.5187	4,438.48	82.1293	4,438.48	81.3605	4,438.48	78.869	4,438.48	82.3889	4,438.48	76.4659	4,438.48	77.5158	4,438.48	74.3335	4,438.48	68.8452	4,438.48	71.1523	4,438.48	62.319	4,438.48	70.6725	4,438.48	64.117	4,438.48	67.6759	4,438.48	65.0664	4,438.48	64.3467	4,438.48	59.2247	4,438.48	65.178	4,438.48	64.5286	4,438.48	66.0151	4,438.48	64.4366	4,438.48	67.6487	4,438.48	65.4629	4,438.48	70.1205
4,594.48	91.0096	4,594.48	89.7385	4,594.48	90.4271	4,594.48	88.9834	4,594.48	89.6191	4,594.48	88.3278	4,594.48	88.2691	4,594.48	87.0224	4,594.48	84.3141	4,594.48	85.6239	4,594.48	80.394	4,594.48	84.2526	4,594.48	81.6544	4,594.48	80.9373	4,594.48	81.0132	4,594.48	78.2234	4,594.48	82.4555	4,594.48	76.0892	4,594.48	77.3656	4,594.48	73.5888	4,594.48	69.735	4,594.48	71.4213	4,594.48	67.4822	4,594.48	70.9094	4,594.48	66.6053	4,594.48	67.9483	4,594.48	63.1006	4,594.48	62.1303	4,594.48	62.6503	4,594.48	64.9845	4,594.48	64.2004	4,594.48	63.1264	4,594.48	64.7197	4,594.48	63.9087	4,594.48	63.9056	4,594.48	67.4123
4,757.08	90.7349	4,757.08	89.9885	4,757.08	90.7154	4,757.08	89.2219	4,757.08	89.8817	4,757.08	87.9235	4,757.08	88.8223	4,757.08	86.6309	4,757.08	85.2614	4,757.08	85.5613	4,757.08	80.2307	4,757.08	82.9608	4,757.08	81.4581	4,757.08	80.4938	4,757.08	80.767	4,757.08	77.268	4,757.08	83.6414	4,757.08	74.9783	4,757.08	78.2557	4,757.08	73.1072	4,757.08	67.1801	4,757.08	71.5389	4,757.08	69.3788	4,757.08	69.4473	4,757.08	66.022	4,757.08	67.9622	4,757.08	63.2153	4,757.08	63.4832	4,757.08	63.2254	4,757.08	64.0061	4,757.08	63.6712	4,757.08	60.5488	4,757.08	66.3473	4,757.08	63.4636	4,757.08	62.8369	4,757.08	68.8082
4,924.8	90.8687	4,924.8	90.0406	4,924.8	90.858	4,924.8	88.9491	4,924.8	90.0402	4,924.8	87.9166	4,924.8	89.2624	4,924.8	86.955	4,924.8	85.9871	4,924.8	84.9548	4,924.8	81.3295	4,924.8	82.1005	4,924.8	81.3596	4,924.8	80.1376	4,924.8	81.3491	4,924.8	77.5599	4,924.8	83.983	4,924.8	75.1723	4,924.8	78.6984	4,924.8	72.7509	4,924.8	66.8159	4,924.8	72.5564	4,924.8	67.5325	4,924.8	70.0608	4,924.8	67.6659	4,924.8	68.5498	4,924.8	62.9704	4,924.8	66.217	4,924.8	62.7785	4,924.8	64.8309	4,924.8	63.5826	4,924.8	61.9696	4,924.8	65.8391	4,924.8	63.0402	4,924.8	61.3936	4,924.8	67.106
5,098.39	90.5631	5,098.39	89.9996	5,098.39	90.6271	5,098.39	88.7733	5,098.39	89.7262	5,098.39	87.8162	5,098.39	89.2585	5,098.39	87.4066	5,098.39	87.0138	5,098.39	84.6406	5,098.39	81.5751	5,098.39	82.352	5,098.39	80.6347	5,098.39	80.5241	5,098.39	80.2387	5,098.39	77.6979	5,098.39	82.9224	5,098.39	74.8299	5,098.39	76.6876	5,098.39	73.2959	5,098.39	59.4882	5,098.39	71.4589	5,098.39	62.6327	5,098.39	70.2945	5,098.39	64.385	5,098.39	67.6308	5,098.39	58.9577	5,098.39	66.1245	5,098.39	63.5951	5,098.39	64.3892	5,098.39	61.5056	5,098.39	62.9794	5,098.39	66.0275	5,098.39	62.4977	5,098.39	61.0495	5,098.39	67.2261
5,277.83	89.9762	5,277.83	90.0253	5,277.83	90.3962	5,277.83	88.4628	5,277.83	89.4519	5,277.83	88.0223	5,277.83	89.2547	5,277.83	87.1148	5,277.83	87.3724	5,277.83	84.5662	5,277.83	81.6003	5,277.83	82.2119	5,277.83	81.5524	5,277.83	80.5054	5,277.83	78.7372	5,277.83	77.7268	5,277.83	82.6321	5,277.83	75.4616	5,277.83	78.1109	5,277.83	71.5037	5,277.83	61.5385	5,277.83	72.4266	5,277.83	60.8456	5,277.83	70.014	5,277.83	63.9017	5,277.83	68.6789	5,277.83	59.1864	5,277.83	67.9867	5,277.83	66.0128	5,277.83	64.0886	5,277.83	57.3487	5,277.83	63.3197	5,277.83	66.4283	5,277.83	61.2162	5,277.83	59.5203	5,277.83	67.3004
5,463.87	90.2647	5,463.87	90.3639	5,463.87	90.1462	5,463.87	88.1813	5,463.87	89.1003	5,463.87	88.3178	5,463.87	88.8739	5,463.87	87.157	5,463.87	87.9119	5,463.87	84.86	5,463.87	82.7628	5,463.87	82.3933	5,463.87	80.9004	5,463.87	79.7555	5,463.87	80.4124	5,463.87	77.1767	5,463.87	82.5555	5,463.87	73.7299	5,463.87	76.4414	5,463.87	71.1165	5,463.87	64.0833	5,463.87	69.5056	5,463.87	63.6441	5,463.87	68.8649	5,463.87	60.7031	5,463.87	66.8719	5,463.87	61.4002	5,463.87	66.4655	5,463.87	63.6496	5,463.87	63.1894	5,463.87	54.5009	5,463.87	64.609	5,463.87	64.7115	5,463.87	58.7414	5,463.87	54.5631	5,463.87	66.3054
5,656.49	89.8199	5,656.49	89.9576	5,656.49	89.6309	5,656.49	88.5021	5,656.49	88.7515	5,656.49	88.7417	5,656.49	88.4666	5,656.49	87.2065	5,656.49	88.0536	5,656.49	85.5624	5,656.49	82.7391	5,656.49	82.2037	5,656.49	80.925	5,656.49	79.8294	5,656.49	78.7176	5,656.49	76.7014	5,656.49	82.7596	5,656.49	74.8605	5,656.49	75.9724	5,656.49	71.0248	5,656.49	67.1786	5,656.49	70.6281	5,656.49	64.3642	5,656.49	69.3337	5,656.49	62.9683	5,656.49	68.4379	5,656.49	61.4257	5,656.49	66.5911	5,656.49	63.7998	5,656.49	63.1803	5,656.49	54.9634	5,656.49	65.27	5,656.49	63.434	5,656.49	55.5523	5,656.49	54.7878	5,656.49	65.9857
5,856.45	89.6786	5,856.45	90.012	5,856.45	89.0704	5,856.45	88.655	5,856.45	88.5436	5,856.45	88.617	5,856.45	87.9492	5,856.45	87.2831	5,856.45	87.9274	5,856.45	85.6697	5,856.45	83.7935	5,856.45	82.9275	5,856.45	80.3914	5,856.45	80.2547	5,856.45	79.0652	5,856.45	77.574	5,856.45	82.4727	5,856.45	75.2873	5,856.45	79.7047	5,856.45	71.9435	5,856.45	67.0075	5,856.45	70.9821	5,856.45	62.1472	5,856.45	68.7318	5,856.45	62.8132	5,856.45	68.5913	5,856.45	57.5991	5,856.45	65.9364	5,856.45	63.7334	5,856.45	64.7543	5,856.45	49.8068	5,856.45	66.5165	5,856.45	62.2819	5,856.45	58.687	5,856.45	52.8929	5,856.45	65.608
6,062.99	89.9083	6,062.99	89.5526	6,062.99	88.9012	6,062.99	88.9172	6,062.99	88.5117	6,062.99	88.4079	6,062.99	87.6561	6,062.99	87.0811	6,062.99	88.2742	6,062.99	85.5931	6,062.99	83.9054	6,062.99	83.1132	6,062.99	80.2741	6,062.99	80.6029	6,062.99	79.0307	6,062.99	77.6131	6,062.99	83.3971	6,062.99	73.3328	6,062.99	78.1633	6,062.99	71.5528	6,062.99	64.1109	6,062.99	69.6211	6,062.99	49.6139	6,062.99	67.6258	6,062.99	62.3569	6,062.99	67.6832	6,062.99	57.8131	6,062.99	64.5394	6,062.99	62.4794	6,062.99	64.9965	6,062.99	48.8498	6,062.99	67.4097	6,062.99	60.6187	6,062.99	60.0412	6,062.99	54.7168	6,062.99	64.0764
6,276.86	90.0848	6,276.86	89.2817	6,276.86	88.6534	6,276.86	88.8916	6,276.86	88.8312	6,276.86	88.0031	6,276.86	87.4929	6,276.86	86.8531	6,276.86	88.3252	6,276.86	85.3915	6,276.86	84.4123	6,276.86	83.2755	6,276.86	80.3936	6,276.86	80.4916	6,276.86	78.4256	6,276.86	77.2797	6,276.86	80.6928	6,276.86	73.9604	6,276.86	78.4488	6,276.86	70.8581	6,276.86	64.5569	6,276.86	69.9533	6,276.86	61.9562	6,276.86	68.2318	6,276.86	51.3143	6,276.86	68.0383	6,276.86	59.0325	6,276.86	65.413	6,276.86	63.3322	6,276.86	64.2997	6,276.86	54.7625	6,276.86	66.3095	6,276.86	60.5369	6,276.86	58.209	6,276.86	53.6559	6,276.86	62.784
6,498.05	90.0383	6,498.05	89.2116	6,498.05	88.5869	6,498.05	88.8335	6,498.05	89.2137	6,498.05	87.8141	6,498.05	87.2131	6,498.05	86.7944	6,498.05	87.9155	6,498.05	85.3054	6,498.05	85.0893	6,498.05	83.0086	6,498.05	79.7715	6,498.05	80.2182	6,498.05	78.4337	6,498.05	76.8307	6,498.05	80.0609	6,498.05	74.3625	6,498.05	76.0599	6,498.05	70.4726	6,498.05	59.2531	6,498.05	69.3612	6,498.05	61.9412	6,498.05	68.1568	6,498.05	57.094	6,498.05	68.4701	6,498.05	58.4531	6,498.05	63.8756	6,498.05	63.1252	6,498.05	64.4856	6,498.05	53.3308	6,498.05	66.8906	6,498.05	60.8572	6,498.05	58.3985	6,498.05	46.0468	6,498.05	63.025
6,727.29	89.8704	6,727.29	89.6018	6,727.29	88.8208	6,727.29	88.6574	6,727.29	89.2332	6,727.29	87.6532	6,727.29	87.5166	6,727.29	86.8992	6,727.29	87.2194	6,727.29	85.2519	6,727.29	85.4519	6,727.29	82.8269	6,727.29	79.1974	6,727.29	79.9254	6,727.29	79.9245	6,727.29	76.1145	6,727.29	73.6823	6,727.29	74.6613	6,727.29	76.5427	6,727.29	69.9748	6,727.29	61.1049	6,727.29	70.1684	6,727.29	61.9857	6,727.29	67.3613	6,727.29	50.1176	6,727.29	67.257	6,727.29	59.1486	6,727.29	64.5449	6,727.29	60.712	6,727.29	63.3803	6,727.29	55.0462	6,727.29	66.0712	6,727.29	60.6949	6,727.29	57.9982	6,727.29	48.0181	6,727.29	62.6982
6,964.6	89.2271	6,964.6	89.6841	6,964.6	88.5432	6,964.6	88.4176	6,964.6	89.0086	6,964.6	87.5141	6,964.6	87.7161	6,964.6	86.8988	6,964.6	86.6016	6,964.6	85.0594	6,964.6	85.4537	6,964.6	82.0932	6,964.6	77.8121	6,964.6	79.4687	6,964.6	79.524	6,964.6	75.7305	6,964.6	75.4243	6,964.6	72.9823	6,964.6	78.3009	6,964.6	68.4654	6,964.6	66.6037	6,964.6	67.0786	6,964.6	55.6616	6,964.6	67.2047	6,964.6	54.575	6,964.6	65.908	6,964.6	59.79	6,964.6	63.5286	6,964.6	59.4324	6,964.6	62.4727	6,964.6	56.5282	6,964.6	66.1957	6,964.6	60.5924	6,964.6	59.4719	6,964.6	46.3283	6,964.6	62.4824
7,209.96	88.6765	7,209.96	89.5077	7,209.96	88.3721	7,209.96	88.4229	7,209.96	88.8167	7,209.96	87.4252	7,209.96	87.9294	7,209.96	86.8136	7,209.96	86.648	7,209.96	84.731	7,209.96	85.4882	7,209.96	81.7912	7,209.96	78.8889	7,209.96	79.1277	7,209.96	78.8279	7,209.96	75.0555	7,209.96	77.7822	7,209.96	72.3786	7,209.96	80.528	7,209.96	68.5728	7,209.96	68.1715	7,209.96	66.8809	7,209.96	50.0498	7,209.96	64.7482	7,209.96	55.6068	7,209.96	64.6135	7,209.96	58.4746	7,209.96	63.4634	7,209.96	55.3878	7,209.96	60.72	7,209.96	56.2709	7,209.96	65.9579	7,209.96	57.424	7,209.96	60.7841	7,209.96	48.9687	7,209.96	61.0595
7,464.11	88.1399	7,464.11	89.1337	7,464.11	87.9539	7,464.11	88.1558	7,464.11	88.6369	7,464.11	87.4818	7,464.11	87.8946	7,464.11	86.8503	7,464.11	86.9521	7,464.11	84.5998	7,464.11	85.5545	7,464.11	82.0879	7,464.11	80.4231	7,464.11	79.3484	7,464.11	77.3068	7,464.11	76.3022	7,464.11	78.9018	7,464.11	72.617	7,464.11	79.7664	7,464.11	70.1806	7,464.11	68.1511	7,464.11	65.6242	7,464.11	48.6244	7,464.11	66.0803	7,464.11	58.9652	7,464.11	63.3992	7,464.11	58.4912	7,464.11	63.2207	7,464.11	55.8146	7,464.11	62.5222	7,464.11	56.9387	7,464.11	66.1446	7,464.11	58.351	7,464.11	61.4715	7,464.11	49.6105	7,464.11	60.2904
7,727.78	88.2992	7,727.78	88.9109	7,727.78	87.8848	7,727.78	88.2568	7,727.78	88.6906	7,727.78	87.6227	7,727.78	87.4279	7,727.78	86.3545	7,727.78	86.963	7,727.78	84.422	7,727.78	85.1945	7,727.78	82.0178	7,727.78	80.9526	7,727.78	78.4867	7,727.78	73.6262	7,727.78	75.621	7,727.78	78.6333	7,727.78	70.5248	7,727.78	79.0547	7,727.78	70.3049	7,727.78	69.4948	7,727.78	65.3928	7,727.78	53.0238	7,727.78	63.1673	7,727.78	59.9412	7,727.78	64.3337	7,727.78	56.2803	7,727.78	60.3305	7,727.78	57.2609	7,727.78	62.5554	7,727.78	57.0706	7,727.78	65.0477	7,727.78	52.2326	7,727.78	60.2503	7,727.78	52.8915	7,727.78	59.271
8,000.24	88.8454	8,000.24	88.99	8,000.24	88.034	8,000.24	88.6475	8,000.24	89.0532	8,000.24	87.5764	8,000.24	87.0635	8,000.24	86.1388	8,000.24	86.6718	8,000.24	84.2424	8,000.24	84.6876	8,000.24	81.8183	8,000.24	81.0078	8,000.24	78.1031	8,000.24	70.6468	8,000.24	75.4409	8,000.24	75.9114	8,000.24	70.9997	8,000.24	75.5569	8,000.24	68.6998	8,000.24	67.4047	8,000.24	66.3647	8,000.24	54.1442	8,000.24	62.7726	8,000.24	54.7319	8,000.24	63.45	8,000.24	55.6681	8,000.24	60.7555	8,000.24	57.1571	8,000.24	61.5624	8,000.24	56.0424	8,000.24	64.5113	8,000.24	51.9278	8,000.24	60.1619	8,000.24	53.2899	8,000.24	55.9812
8,282.23	89.8335	8,282.23	89.2766	8,282.23	88.7632	8,282.23	88.9308	8,282.23	89.2646	8,282.23	87.1387	8,282.23	87.4757	8,282.23	85.5258	8,282.23	86.3003	8,282.23	83.9994	8,282.23	84.0585	8,282.23	81.872	8,282.23	80.8558	8,282.23	77.997	8,282.23	71.1195	8,282.23	74.8627	8,282.23	75.0033	8,282.23	69.1889	8,282.23	73.4981	8,282.23	65.896	8,282.23	63.8834	8,282.23	65.0217	8,282.23	57.9834	8,282.23	62.6414	8,282.23	55.5356	8,282.23	60.9576	8,282.23	53.0403	8,282.23	57.1826	8,282.23	58.8256	8,282.23	62.5146	8,282.23	56.2732	8,282.23	63.8044	8,282.23	53.4963	8,282.23	59.3882	8,282.23	53.9424	8,282.23	58.1448
8,574.46	89.967	8,574.46	89.3371	8,574.46	89.3793	8,574.46	89.4905	8,574.46	89.7402	8,574.46	86.8557	8,574.46	87.6112	8,574.46	85.3332	8,574.46	85.667	8,574.46	84.0234	8,574.46	83.7214	8,574.46	81.3195	8,574.46	79.9536	8,574.46	76.7223	8,574.46	73.2719	8,574.46	74.1404	8,574.46	76.2158	8,574.46	69.8284	8,574.46	73.2221	8,574.46	66.8553	8,574.46	60.935	8,574.46	64.1999	8,574.46	57.8613	8,574.46	63.3332	8,574.46	50.4084	8,574.46	57.7814	8,574.46	55.3481	8,574.46	60.1006	8,574.46	57.5427	8,574.46	63.384	8,574.46	55.3144	8,574.46	62.5336	8,574.46	52.5863	8,574.46	57.9095	8,574.46	52.6784	8,574.46	55.4315
8,876.22	89.6307	8,876.22	89.1052	8,876.22	89.2593	8,876.22	89.6067	8,876.22	89.6407	8,876.22	86.797	8,876.22	87.9066	8,876.22	85.4617	8,876.22	85.29	8,876.22	83.2857	8,876.22	83.9799	8,876.22	80.5948	8,876.22	79.6269	8,876.22	77.0833	8,876.22	73.4683	8,876.22	74.1285	8,876.22	77.667	8,876.22	69.9087	8,876.22	73.2112	8,876.22	67.0975	8,876.22	51.8734	8,876.22	64.0114	8,876.22	55.3736	8,876.22	61.9959	8,876.22	41.5576	8,876.22	55.9549	8,876.22	56.338	8,876.22	59.8061	8,876.22	57.7738	8,876.22	62.0199	8,876.22	51.5075	8,876.22	62.5991	8,876.22	55.0461	8,876.22	58.403	8,876.22	53.445	8,876.22	54.1487
9,189.7	88.9567	9,189.7	88.8025	9,189.7	88.9011	9,189.7	89.2335	9,189.7	89.2302	9,189.7	87.2755	9,189.7	87.8208	9,189.7	85.5412	9,189.7	84.765	9,189.7	82.4675	9,189.7	84.2004	9,189.7	80.2605	9,189.7	79.1759	9,189.7	77.3456	9,189.7	72.6876	9,189.7	73.4523	9,189.7	76.7175	9,189.7	69.3158	9,189.7	73.4477	9,189.7	67.41	9,189.7	48.3552	9,189.7	62.4979	9,189.7	57.2252	9,189.7	62.0971	9,189.7	47.0032	9,189.7	53.8529	9,189.7	57.8872	9,189.7	61.0673	9,189.7	58.2051	9,189.7	61.0391	9,189.7	48.5487	9,189.7	60.1495	9,189.7	55.3455	9,189.7	56.6538	9,189.7	53.0353	9,189.7	55.0403
9,513.43	88.8418	9,513.43	88.8633	9,513.43	88.8248	9,513.43	88.8503	9,513.43	88.8599	9,513.43	87.7561	9,513.43	87.7371	9,513.43	85.4536	9,513.43	84.6106	9,513.43	82.1351	9,513.43	83.9991	9,513.43	80.0682	9,513.43	79.1141	9,513.43	76.4916	9,513.43	73.2529	9,513.43	72.6603	9,513.43	74.856	9,513.43	69.6339	9,513.43	71.0675	9,513.43	66.7459	9,513.43	57.6738	9,513.43	60.2787	9,513.43	56.4519	9,513.43	61.6362	9,513.43	49.668	9,513.43	55.7963	9,513.43	57.9956	9,513.43	60.7074	9,513.43	55.1087	9,513.43	58.7946	9,513.43	49.3535	9,513.43	59.8445	9,513.43	54.9753	9,513.43	57.568	9,513.43	52.7929	9,513.43	55.7493
9,848.88	89.2952	9,848.88	89.1255	9,848.88	88.9644	9,848.88	88.9188	9,848.88	88.8435	9,848.88	87.4721	9,848.88	87.5454	9,848.88	85.563	9,848.88	84.6348	9,848.88	82.2373	9,848.88	83.5483	9,848.88	80.0045	9,848.88	78.7401	9,848.88	76.5415	9,848.88	72.1472	9,848.88	73.1233	9,848.88	75.165	9,848.88	69.9834	9,848.88	71.5288	9,848.88	65.6798	9,848.88	62.9607	9,848.88	59.9389	9,848.88	56.8265	9,848.88	60.5322	9,848.88	54.3176	9,848.88	53.8585	9,848.88	56.6281	9,848.88	59.3391	9,848.88	55.0897	9,848.88	60.0397	9,848.88	50.2718	9,848.88	58.9011	9,848.88	52.6938	9,848.88	57.714	9,848.88	51.4536	9,848.88	55.4712
10,196.8	89.6329	10,196.8	89.5033	10,196.8	89.1357	10,196.8	88.757	10,196.8	88.9117	10,196.8	87.2829	10,196.8	87.4797	10,196.8	85.02	10,196.8	84.7741	10,196.8	82.5468	10,196.8	83.1295	10,196.8	79.9707	10,196.8	79.3129	10,196.8	76.9025	10,196.8	69.9434	10,196.8	73.056	10,196.8	75.8345	10,196.8	68.3309	10,196.8	72.7835	10,196.8	63.8398	10,196.8	64.8351	10,196.8	60.0387	10,196.8	54.681	10,196.8	59.5243	10,196.8	55.6636	10,196.8	56.985	10,196.8	53.8111	10,196.8	58.8416	10,196.8	54.8231	10,196.8	58.6694	10,196.8	47.6441	10,196.8	58.1242	10,196.8	51.2933	10,196.8	55.1556	10,196.8	51.805	10,196.8	56.2544
10,556.4	89.8152	10,556.4	89.3207	10,556.4	89.0231	10,556.4	88.6396	10,556.4	88.8811	10,556.4	87.0441	10,556.4	87.3322	10,556.4	84.2648	10,556.4	84.5314	10,556.4	82.5613	10,556.4	82.5959	10,556.4	80.1425	10,556.4	79.3981	10,556.4	76.4781	10,556.4	69.7348	10,556.4	72.0091	10,556.4	75.5495	10,556.4	67.65	10,556.4	72.2258	10,556.4	63.7199	10,556.4	62.4116	10,556.4	60.2259	10,556.4	56.0528	10,556.4	59.9573	10,556.4	55.6913	10,556.4	58.671	10,556.4	55.2277	10,556.4	58.3038	10,556.4	52.4476	10,556.4	58.228	10,556.4	45.8517	10,556.4	55.6117	10,556.4	50.2515	10,556.4	51.9162	10,556.4	51.9277	10,556.4	55.7754
10,928.5	89.7084	10,928.5	88.5662	10,928.5	88.8451	10,928.5	88.6455	10,928.5	88.8575	10,928.5	86.7023	10,928.5	87.1705	10,928.5	84.0032	10,928.5	84.5428	10,928.5	81.9942	10,928.5	82.3393	10,928.5	80.1268	10,928.5	78.8167	10,928.5	75.5243	10,928.5	70.1193	10,928.5	71.2079	10,928.5	73.9214	10,928.5	67.4926	10,928.5	67.9875	10,928.5	64.6921	10,928.5	48.5169	10,928.5	60.9353	10,928.5	53.9394	10,928.5	60.6906	10,928.5	52.0442	10,928.5	54.0852	10,928.5	54.6947	10,928.5	57.618	10,928.5	50.4618	10,928.5	58.627	10,928.5	45.4582	10,928.5	55.2939	10,928.5	45.0158	10,928.5	52.2255	10,928.5	49.7299	10,928.5	56.0233
11,313.7	89.2616	11,313.7	88.3276	11,313.7	88.5629	11,313.7	88.5236	11,313.7	88.3871	11,313.7	86.8315	11,313.7	86.6787	11,313.7	83.7753	11,313.7	84.3467	11,313.7	81.924	11,313.7	82.1189	11,313.7	79.499	11,313.7	77.9984	11,313.7	75.2176	11,313.7	71.5814	11,313.7	70.9528	11,313.7	72.8872	11,313.7	67.2156	11,313.7	65.5857	11,313.7	63.332	11,313.7	56.1261	11,313.7	60.4545	11,313.7	58.437	11,313.7	57.7707	11,313.7	53.9793	11,313.7	52.2573	11,313.7	54.1523	11,313.7	56.5003	11,313.7	53.7504	11,313.7	59.054	11,313.7	45.8115	11,313.7	53.7599	11,313.7	23.0405	11,313.7	49.7207	11,313.7	47.9419	11,313.7	55.1668
11,712.9	88.4363	11,712.9	88.1594	11,712.9	87.868	11,712.9	87.939	11,712.9	87.8192	11,712.9	86.873	11,712.9	86.1928	11,712.9	83.6926	11,712.9	83.8991	11,712.9	81.8493	11,712.9	82.2908	11,712.9	79.4154	11,712.9	77.2171	11,712.9	74.6729	11,712.9	72.6901	11,712.9	70.7751	11,712.9	73.0946	11,712.9	67.8213	11,712.9	68.5759	11,712.9	63.3837	11,712.9	54.3673	11,712.9	62.3478	11,712.9	49.6911	11,712.9	57.7219	11,712.9	51.1366	11,712.9	53.5259	11,712.9	54.6205	11,712.9	56.6579	11,712.9	57.2418	11,712.9	56.8235	11,712.9	41.9544	11,712.9	50.8153	11,712.9	43.7671	11,712.9	44.9909	11,712.9	46.7608	11,712.9	53.5189
12,126	88.1553	12,126	87.345	12,126	87.2145	12,126	87.2954	12,126	87.037	12,126	86.2555	12,126	85.9153	12,126	84.1901	12,126	83.4815	12,126	81.6536	12,126	82.5735	12,126	78.2988	12,126	76.7992	12,126	75.9233	12,126	74.0118	12,126	71.2781	12,126	71.3088	12,126	67.364	12,126	67.6442	12,126	61.5433	12,126	60.9422	12,126	61.3003	12,126	48.8933	12,126	59.9103	12,126	55.2715	12,126	53.3238	12,126	59.4651	12,126	52.8652	12,126	58.4712	12,126	55.8998	12,126	43.9424	12,126	49.3929	12,126	44.6285	12,126	18.9234	12,126	48.2228	12,126	52.0707
12,553.7	87.5678	12,553.7	86.9237	12,553.7	87.2192	12,553.7	86.3274	12,553.7	86.2801	12,553.7	85.8804	12,553.7	85.6366	12,553.7	84.1425	12,553.7	82.9964	12,553.7	81.6094	12,553.7	81.9892	12,553.7	78.3993	12,553.7	77.7265	12,553.7	75.1461	12,553.7	74.3209	12,553.7	70.5084	12,553.7	70.5657	12,553.7	67.7841	12,553.7	64.0028	12,553.7	58.0985	12,553.7	62.1327	12,553.7	60.8097	12,553.7	55.4909	12,553.7	57.9389	12,553.7	57.8147	12,553.7	45.1178	12,553.7	61.371	12,553.7	54.558	12,553.7	57.3522	12,553.7	57.6664	12,553.7	51.2922	12,553.7	51.9309	12,553.7	42.0156	12,553.7	46.5256	12,553.7	46.0644	12,553.7	51.8957
12,996.1	86.9457	12,996.1	86.5775	12,996.1	86.8815	12,996.1	86.1693	12,996.1	85.5685	12,996.1	85.173	12,996.1	85.484	12,996.1	84.0778	12,996.1	83.2731	12,996.1	80.778	12,996.1	81.2556	12,996.1	78.7379	12,996.1	78.7186	12,996.1	74.8311	12,996.1	74.3236	12,996.1	68.9477	12,996.1	69.4439	12,996.1	66.6043	12,996.1	62.8351	12,996.1	58.1084	12,996.1	61.7409	12,996.1	59.042	12,996.1	59.598	12,996.1	55.8981	12,996.1	55.682	12,996.1	48.6487	12,996.1	60.2236	12,996.1	54.8677	12,996.1	54.4585	12,996.1	57.6004	12,996.1	51.3681	12,996.1	52.4224	12,996.1	42.6508	12,996.1	45.6094	12,996.1	53.6189	12,996.1	52.3038
13,454.6	86.1828	13,454.6	86.2967	13,454.6	86.2551	13,454.6	85.8521	13,454.6	85.4577	13,454.6	85.169	13,454.6	85.1469	13,454.6	83.1319	13,454.6	83.2503	13,454.6	80.967	13,454.6	80.5697	13,454.6	78.3025	13,454.6	78.6595	13,454.6	73.9445	13,454.6	73.3186	13,454.6	68.823	13,454.6	65.0509	13,454.6	66.3954	13,454.6	63.4623	13,454.6	57.4773	13,454.6	62.4402	13,454.6	59.3059	13,454.6	58.2537	13,454.6	51.9058	13,454.6	54.9926	13,454.6	54.2809	13,454.6	57.9942	13,454.6	53.3657	13,454.6	48.2915	13,454.6	54.7164	13,454.6	46.7439	13,454.6	51.8821	13,454.6	40.8986	13,454.6	34.9464	13,454.6	48.6205	13,454.6	50.1261
13,928.5	85.4499	13,928.5	85.7771	13,928.5	85.5757	13,928.5	85.3717	13,928.5	85.0327	13,928.5	85.3321	13,928.5	84.6687	13,928.5	83.109	13,928.5	82.7563	13,928.5	80.572	13,928.5	80.5259	13,928.5	77.7072	13,928.5	78.5647	13,928.5	74.1814	13,928.5	72.7156	13,928.5	68.2013	13,928.5	62.7414	13,928.5	65.9538	13,928.5	58.9823	13,928.5	58.53	13,928.5	57.6025	13,928.5	59.0179	13,928.5	58.9085	13,928.5	51.1835	13,928.5	51.3139	13,928.5	55.0906	13,928.5	54.76	13,928.5	51.4178	13,928.5	46.5035	13,928.5	52.8657	13,928.5	45.6042	13,928.5	52.1928	13,928.5	44.4254	13,928.5	36.4067	13,928.5	48.5972	13,928.5	51.7429
14,419.9	85.8272	14,419.9	85.6928	14,419.9	85.4369	14,419.9	85.2169	14,419.9	84.7941	14,419.9	85.1191	14,419.9	84.3592	14,419.9	82.8315	14,419.9	82.325	14,419.9	80.2011	14,419.9	80.2486	14,419.9	76.5172	14,419.9	77.5595	14,419.9	73.2915	14,419.9	72.0202	14,419.9	68.228	14,419.9	57.9432	14,419.9	63.4188	14,419.9	57.7318	14,419.9	55.2284	14,419.9	53.1925	14,419.9	57.9247	14,419.9	56.8781	14,419.9	50.167	14,419.9	49.8144	14,419.9	54.0291	14,419.9	52.8074	14,419.9	48.3815	14,419.9	40.5218	14,419.9	49.5928	14,419.9	45.6957	14,419.9	51.64	14,419.9	44.2855	14,419.9	32.3305	14,419.9	50.7193	14,419.9	50.645
14,928.2	86.1887	14,928.2	86.096	14,928.2	86.007	14,928.2	85.196	14,928.2	85.4542	14,928.2	84.6532	14,928.2	84.2545	14,928.2	82.8277	14,928.2	81.8185	14,928.2	79.4624	14,928.2	79.4224	14,928.2	75.8952	14,928.2	76.3808	14,928.2	71.3987	14,928.2	69.2903	14,928.2	66.4958	14,928.2	62.9289	14,928.2	61.3819	14,928.2	52.9198	14,928.2	52.463	14,928.2	41.0177	14,928.2	54.5572	14,928.2	51.3022	14,928.2	48.3858	14,928.2	49.6478	14,928.2	51.2903	14,928.2	51.0964	14,928.2	43.523	14,928.2	29.6173	14,928.2	47.0543	14,928.2	42.2985	14,928.2	49.5886	14,928.2	47.317	14,928.2	38.6608	14,928.2	47.4918	14,928.2	51.6396
15,454.8	86.6349	15,454.8	86.2008	15,454.8	86.164	15,454.8	85.7006	15,454.8	85.8023	15,454.8	84.6777	15,454.8	84.199	15,454.8	82.526	15,454.8	81.6698	15,454.8	78.9726	15,454.8	78.5476	15,454.8	75.3167	15,454.8	75.0195	15,454.8	70.2029	15,454.8	67.2909	15,454.8	65.3127	15,454.8	58.4578	15,454.8	59.348	15,454.8	49.4619	15,454.8	48.4941	15,454.8	57.5988	15,454.8	55.1625	15,454.8	49.1461	15,454.8	48.2465	15,454.8	45.3002	15,454.8	48.3165	15,454.8	46.758	15,454.8	39.0654	15,454.8	42.0889	15,454.8	45.342	15,454.8	36.3236	15,454.8	49.9664	15,454.8	39.581	15,454.8	46.6152	15,454.8	49.2722	15,454.8	49.3778
15,999.8	86.3026	15,999.8	85.8733	15,999.8	85.6132	15,999.8	85.2777	15,999.8	85.5256	15,999.8	84.2682	15,999.8	83.7615	15,999.8	81.9553	15,999.8	81.244	15,999.8	77.9097	15,999.8	77.64	15,999.8	73.9973	15,999.8	72.4753	15,999.8	68.9576	15,999.8	64.6049	15,999.8	63.5349	15,999.8	58.0952	15,999.8	58.3	15,999.8	46.5789	15,999.8	51.8183	15,999.8	59.6272	15,999.8	52.918	15,999.8	37.0387	15,999.8	45.2814	15,999.8	40.4048	15,999.8	47.0674	15,999.8	25.1594	15,999.8	35.2225	15,999.8	47.3784	15,999.8	48.4162	15,999.8	38.5804	15,999.8	53.7811	15,999.8	41.3465	15,999.8	47.7126	15,999.8	45.0818	15,999.8	45.4406
16,564.5	86.3527	16,564.5	85.7402	16,564.5	85.7046	16,564.5	84.8008	16,564.5	85.3864	16,564.5	83.9772	16,564.5	83.8124	16,564.5	81.1886	16,564.5	80.9197	16,564.5	76.9064	16,564.5	77.4152	16,564.5	72.2391	16,564.5	71.068	16,564.5	66.8156	16,564.5	60.343	16,564.5	61.563	16,564.5	57.9329	16,564.5	53.7229	16,564.5	49.0322	16,564.5	51.8744	16,564.5	60.2385	16,564.5	49.0668	16,564.5	43.9457	16,564.5	41.9208	16,564.5	48.2834	16,564.5	40.6152	16,564.5	42.1584	16,564.5	41.1491	16,564.5	46.5874	16,564.5	49.1171	16,564.5	40.5941	16,564.5	53.8555	16,564.5	39.9532	16,564.5	40.6472	16,564.5	38.416	16,564.5	41.4609
17,148.2	87.0992	17,148.2	86.298	17,148.2	86.6904	17,148.2	84.5702	17,148.2	85.4952	17,148.2	83.1553	17,148.2	83.765	17,148.2	79.9345	17,148.2	80.4385	17,148.2	75.1221	17,148.2	77.1338	17,148.2	68.6648	17,148.2	70.758	17,148.2	62.4382	17,148.2	58.9487	17,148.2	57.5282	17,148.2	54.0094	17,148.2	51.2717	17,148.2	49.594	17,148.2	49.4134	17,148.2	55.2817	17,148.2	43.1192	17,148.2	47.2752	17,148.2	42.0289	17,148.2	49.8267	17,148.2	30.7344	17,148.2	45.196	17,148.2	43.3518	17,148.2	48.1775	17,148.2	47.7173	17,148.2	41.6534	17,148.2	52.3776	17,148.2	39.8917	17,148.2	37.0896	17,148.2	38.5159	17,148.2	40.0178
17,753.2	87.4905	17,753.2	86.757	17,753.2	87.1221	17,753.2	84.5376	17,753.2	85.4819	17,753.2	82.459	17,753.2	83.3477	17,753.2	78.3001	17,753.2	79.4864	17,753.2	72.3798	17,753.2	75.4171	17,753.2	63.9685	17,753.2	68.5882	17,753.2	56.5791	17,753.2	56.8989	17,753.2	51.0951	17,753.2	52.8897	17,753.2	47.2944	17,753.2	49.1219	17,753.2	43.4442	17,753.2	46.8924	17,753.2	37.0608	17,753.2	48.8704	17,753.2	30.6298	17,753.2	48.234	17,753.2	28.624	17,753.2	45.5889	17,753.2	39.2884	17,753.2	45.9601	17,753.2	44.2795	17,753.2	41.8559	17,753.2	49.8683	17,753.2	37.9813	17,753.2	39.2448	17,753.2	38.6665	17,753.2	41.4899
18,379.4	87.0004	18,379.4	86.3586	18,379.4	86.6654	18,379.4	84.1118	18,379.4	84.8093	18,379.4	81.6672	18,379.4	82.7288	18,379.4	77.1058	18,379.4	78.7626	18,379.4	69.6419	18,379.4	73.6677	18,379.4	59.7564	18,379.4	66.5672	18,379.4	50.0855	18,379.4	56.9989	18,379.4	41.903	18,379.4	51.0379	18,379.4	31.6136	18,379.4	46.4606	18,379.4	39.4819	18,379.4	44.8778	18,379.4	27.6612	18,379.4	48.3559	18,379.4	34.4761	18,379.4	49.3561	18,379.4	37.2188	18,379.4	48.9097	18,379.4	41.361	18,379.4	46.0666	18,379.4	44.4471	18,379.4	42.4035	18,379.4	44.378	18,379.4	37.488	18,379.4	41.5407	18,379.4	42.5232	18,379.4	40.1039
19,027.6	86.634	19,027.6	85.9504	19,027.6	86.134	19,027.6	83.3546	19,027.6	83.5393	19,027.6	80.6744	19,027.6	81.1504	19,027.6	75.6572	19,027.6	77.0791	19,027.6	67.8677	19,027.6	71.5704	19,027.6	57.4561	19,027.6	64.4706	19,027.6	47.2318	19,027.6	53.7093	19,027.6	48.5196	19,027.6	39.6633	19,027.6	38.4629	19,027.6	43.9654	19,027.6	37.1741	19,027.6	50.6286	19,027.6	36.1779	19,027.6	48.069	19,027.6	37.2022	19,027.6	49.2999	19,027.6	34.5402	19,027.6	47.7992	19,027.6	35.9508	19,027.6	40.3872	19,027.6	40.68	19,027.6	34.4256	19,027.6	27.8293	19,027.6	31.3643	19,027.6	41.557	19,027.6	42.3746	19,027.6	43.4605
19,698.5	86.4163	19,698.5	85.4629	19,698.5	85.7945	19,698.5	82.4354	19,698.5	82.68	19,698.5	79.608	19,698.5	79.2172	19,698.5	74.3448	19,698.5	74.1865	19,698.5	65.7218	19,698.5	68.3426	19,698.5	54.7492	19,698.5	59.7479	19,698.5	50.0179	19,698.5	48.907	19,698.5	48.5338	19,698.5	37.2849	19,698.5	31.8476	19,698.5	44.6663	19,698.5	40.9006	19,698.5	54.116	19,698.5	31.8426	19,698.5	42.1903	19,698.5	38.4883	19,698.5	47.1676	19,698.5	37.3307	19,698.5	45.5169	19,698.5	34.318	19,698.5	37.6941	19,698.5	35.1958	19,698.5	40.1587	19,698.5	30.47	19,698.5	28.2069	19,698.5	41.4425	19,698.5	43.1161	19,698.5	44.7062
19,999.5	86.2225	19,999.5	85.1566	19,999.5	85.3972	19,999.5	82.053	19,999.5	82.3683	19,999.5	79.0285	19,999.5	78.7589	19,999.5	74.1516	19,999.5	73.3615	19,999.5	64.7499	19,999.5	66.1574	19,999.5	53.239	19,999.5	58.4494	19,999.5	52.5545	19,999.5	52.1741	19,999.5	51.1235	19,999.5	51.7747	19,999.5	45.8399	19,999.5	47.903	19,999.5	40.904	19,999.5	47.2874	19,999.5	43.474	19,999.5	44.0666	19,999.5	31.1976	19,999.5	44.6957	19,999.5	50.8493	19,999.5	47.9186	19,999.5	41.3938	19,999.5	44.1013	19,999.5	37.8235	19,999.5	36.1922	19,999.5	41.3232	19,999.5	35.1062	19,999.5	47.7224	19,999.5	45.3811	19,999.5	42.6779
