"SPL Horizontal"																																																																							
"On-Axis"		"10°"		"-10°"		"20°"		"-20°"		"30°"		"-30°"		"40°"		"-40°"		"50°"		"-50°"		"60°"		"-60°"		"70°"		"-70°"		"80°"		"-80°"		"90°"		"-90°"		"100°"		"-100°"		"110°"		"-110°"		"120°"		"-120°"		"130°"		"-130°"		"140°"		"-140°"		"150°"		"-150°"		"160°"		"-160°"		"170°"		"-170°"		"180°"	
"Frequency [Hz]"	"Sound Pessure Level [dB]  / [2.83V 1m] "	"Frequency [Hz]"	"Sound Pessure Level [dB]  / [2.83V 1m] "	"Frequency [Hz]"	"Sound Pessure Level [dB]  / [2.83V 1m] "	"Frequency [Hz]"	"Sound Pessure Level [dB]  / [2.83V 1m] "	"Frequency [Hz]"	"Sound Pessure Level [dB]  / [2.83V 1m] "	"Frequency [Hz]"	"Sound Pessure Level [dB]  / [2.83V 1m] "	"Frequency [Hz]"	"Sound Pessure Level [dB]  / [2.83V 1m] "	"Frequency [Hz]"	"Sound Pessure Level [dB]  / [2.83V 1m] "	"Frequency [Hz]"	"Sound Pessure Level [dB]  / [2.83V 1m] "	"Frequency [Hz]"	"Sound Pessure Level [dB]  / [2.83V 1m] "	"Frequency [Hz]"	"Sound Pessure Level [dB]  / [2.83V 1m] "	"Frequency [Hz]"	"Sound Pessure Level [dB]  / [2.83V 1m] "	"Frequency [Hz]"	"Sound Pessure Level [dB]  / [2.83V 1m] "	"Frequency [Hz]"	"Sound Pessure Level [dB]  / [2.83V 1m] "	"Frequency [Hz]"	"Sound Pessure Level [dB]  / [2.83V 1m] "	"Frequency [Hz]"	"Sound Pessure Level [dB]  / [2.83V 1m] "	"Frequency [Hz]"	"Sound Pessure Level [dB]  / [2.83V 1m] "	"Frequency [Hz]"	"Sound Pessure Level [dB]  / [2.83V 1m] "	"Frequency [Hz]"	"Sound Pessure Level [dB]  / [2.83V 1m] "	"Frequency [Hz]"	"Sound Pessure Level [dB]  / [2.83V 1m] "	"Frequency [Hz]"	"Sound Pessure Level [dB]  / [2.83V 1m] "	"Frequency [Hz]"	"Sound Pessure Level [dB]  / [2.83V 1m] "	"Frequency [Hz]"	"Sound Pessure Level [dB]  / [2.83V 1m] "	"Frequency [Hz]"	"Sound Pessure Level [dB]  / [2.83V 1m] "	"Frequency [Hz]"	"Sound Pessure Level [dB]  / [2.83V 1m] "	"Frequency [Hz]"	"Sound Pessure Level [dB]  / [2.83V 1m] "	"Frequency [Hz]"	"Sound Pessure Level [dB]  / [2.83V 1m] "	"Frequency [Hz]"	"Sound Pessure Level [dB]  / [2.83V 1m] "	"Frequency [Hz]"	"Sound Pessure Level [dB]  / [2.83V 1m] "	"Frequency [Hz]"	"Sound Pessure Level [dB]  / [2.83V 1m] "	"Frequency [Hz]"	"Sound Pessure Level [dB]  / [2.83V 1m] "	"Frequency [Hz]"	"Sound Pessure Level [dB]  / [2.83V 1m] "	"Frequency [Hz]"	"Sound Pessure Level [dB]  / [2.83V 1m] "	"Frequency [Hz]"	"Sound Pessure Level [dB]  / [2.83V 1m] "	"Frequency [Hz]"	"Sound Pessure Level [dB]  / [2.83V 1m] "	"Frequency [Hz]"	"Sound Pessure Level [dB]  / [2.83V 1m] "
20.5078	69.9357	20.5078	69.9296	20.5078	69.9257	20.5078	69.9077	20.5078	69.8998	20.5078	69.87	20.5078	69.8583	20.5078	69.817	20.5078	69.8016	20.5078	69.7493	20.5078	69.7305	20.5078	69.6678	20.5078	69.646	20.5078	69.5737	20.5078	69.5496	20.5078	69.4688	20.5078	69.4431	20.5078	69.3553	20.5078	69.3291	20.5078	69.2363	20.5078	69.2106	20.5078	69.1152	20.5078	69.0909	20.5078	68.9961	20.5078	68.9742	20.5078	68.8839	20.5078	68.8649	20.5078	68.7831	20.5078	68.7675	20.5078	68.6986	20.5078	68.6867	20.5078	68.6343	20.5078	68.6263	20.5078	68.5936	20.5078	68.5896	20.5078	68.5785
21.2402	71.0325	21.2402	71.0145	21.2402	71.0353	21.2402	70.9815	21.2402	71.0226	21.2402	70.9339	21.2402	70.9946	21.2402	70.8721	21.2402	70.9513	21.2402	70.7971	21.2402	70.893	21.2402	70.7097	21.2402	70.8205	21.2402	70.6116	21.2402	70.7345	21.2402	70.5045	21.2402	70.6366	21.2402	70.3909	21.2402	70.5285	21.2402	70.2738	21.2402	70.4129	21.2402	70.1569	21.2402	70.293	21.2402	70.0443	21.2402	70.1727	21.2402	69.9407	21.2402	70.0565	21.2402	69.8505	21.2402	69.9493	21.2402	69.7783	21.2402	69.8562	21.2402	69.7279	21.2402	69.7816	21.2402	69.7021	21.2402	69.7295	21.2402	69.7026
21.9727	71.0825	21.9727	71.0706	21.9727	71.0763	21.9727	71.0406	21.9727	71.0519	21.9727	70.9927	21.9727	71.0097	21.9727	70.9276	21.9727	70.95	21.9727	70.8458	21.9727	70.8735	21.9727	70.7485	21.9727	70.7815	21.9727	70.6371	21.9727	70.6753	21.9727	70.5139	21.9727	70.557	21.9727	70.3816	21.9727	70.4291	21.9727	70.2437	21.9727	70.295	21.9727	70.1047	21.9727	70.1583	21.9727	69.9695	21.9727	70.0237	21.9727	69.8438	21.9727	69.8959	21.9727	69.7331	21.9727	69.7802	21.9727	69.6427	21.9727	69.6817	21.9727	69.5772	21.9727	69.6051	21.9727	69.5397	21.9727	69.5542	21.9727	69.532
22.7051	71.5985	22.7051	71.581	22.7051	71.5992	22.7051	71.547	22.7051	71.5829	22.7051	71.4967	22.7051	71.5497	22.7051	71.4308	22.7051	71.4998	22.7051	71.3499	22.7051	71.4335	22.7051	71.2553	22.7051	71.3517	22.7051	71.1484	22.7051	71.2555	22.7051	71.0312	22.7051	71.1463	22.7051	70.9066	22.7051	71.0265	22.7051	70.7777	22.7051	70.8989	22.7051	70.6487	22.7051	70.7673	22.7051	70.5242	22.7051	70.6361	22.7051	70.4092	22.7051	70.5102	22.7051	70.3089	22.7051	70.395	22.7051	70.228	22.7051	70.2959	22.7051	70.1707	22.7051	70.2175	22.7051	70.14	22.7051	70.1639	22.7051	70.1376
23.4375	71.2995	23.4375	71.276	23.4375	71.2958	23.4375	71.2257	23.4375	71.265	23.4375	71.1487	23.4375	71.2069	23.4375	71.0455	23.4375	71.1216	23.4375	70.9169	23.4375	71.0094	23.4375	70.7638	23.4375	70.871	23.4375	70.5881	23.4375	70.7077	23.4375	70.3923	23.4375	70.5214	23.4375	70.1801	23.4375	70.3152	23.4375	69.9567	23.4375	70.0938	23.4375	69.7288	23.4375	69.863	23.4375	69.5044	23.4375	69.6309	23.4375	69.293	23.4375	69.4068	23.4375	69.1047	23.4375	69.2011	23.4375	68.9491	23.4375	69.0246	23.4375	68.8351	23.4375	68.8867	23.4375	68.7692	23.4375	68.7954	23.4375	68.7556
24.1699	71.5559	24.1699	71.5295	24.1699	71.5546	24.1699	71.4756	24.1699	71.5256	24.1699	71.3946	24.1699	71.4688	24.1699	71.2869	24.1699	71.3843	24.1699	71.1533	24.1699	71.2723	24.1699	70.9952	24.1699	71.1336	24.1699	70.8144	24.1699	70.9695	24.1699	70.6137	24.1699	70.782	24.1699	70.3973	24.1699	70.5741	24.1699	70.1705	24.1699	70.3506	24.1699	69.9404	24.1699	70.1175	24.1699	69.7153	24.1699	69.8828	24.1699	69.5047	24.1699	69.656	24.1699	69.3188	24.1699	69.4475	24.1699	69.1669	24.1699	69.2679	24.1699	69.0574	24.1699	69.1268	24.1699	68.9964	24.1699	69.0317	24.1699	68.9876
25.6348	71.9338	25.6348	71.9062	25.6348	71.9311	25.6348	71.8483	25.6348	71.8977	25.6348	71.7604	25.6348	71.8337	25.6348	71.6431	25.6348	71.7391	25.6348	71.4971	25.6348	71.6141	25.6348	71.3236	25.6348	71.4595	25.6348	71.1246	25.6348	71.2765	25.6348	70.903	25.6348	71.0674	25.6348	70.6632	25.6348	70.8357	25.6348	70.4111	25.6348	70.5863	25.6348	70.1544	25.6348	70.3262	25.6348	69.9023	25.6348	70.0645	25.6348	69.6658	25.6348	69.8118	25.6348	69.4561	25.6348	69.58	25.6348	69.2841	25.6348	69.381	25.6348	69.1592	25.6348	69.2255	25.6348	69.0882	25.6348	69.1219	25.6348	69.0754
26.3672	72.1221	26.3672	72.0896	26.3672	72.123	26.3672	72.0259	26.3672	72.0922	26.3672	71.9312	26.3672	72.0294	26.3672	71.8061	26.3672	71.9347	26.3672	71.6514	26.3672	71.8083	26.3672	71.4685	26.3672	71.6506	26.3672	71.2594	26.3672	71.463	26.3672	71.0273	26.3672	71.2475	26.3672	70.7767	26.3672	71.0076	26.3672	70.514	26.3672	70.7486	26.3672	70.2473	26.3672	70.4775	26.3672	69.9865	26.3672	70.2038	26.3672	69.7429	26.3672	69.9386	26.3672	69.5282	26.3672	69.6946	26.3672	69.3537	26.3672	69.4841	26.3672	69.2288	26.3672	69.3182	26.3672	69.1604	26.3672	69.2058	26.3672	69.1524
27.0996	72.2321	27.0996	72.1999	27.0996	72.2307	27.0996	72.1344	27.0996	72.1956	27.0996	72.0359	27.0996	72.1266	27.0996	71.9049	27.0996	72.0237	27.0996	71.7421	27.0996	71.887	27.0996	71.5487	27.0996	71.7171	27.0996	71.3269	27.0996	71.5152	27.0996	71.0799	27.0996	71.2836	27.0996	70.8123	27.0996	71.0257	27.0996	70.5307	27.0996	70.7473	27.0996	70.2436	27.0996	70.4559	27.0996	69.9617	27.0996	70.1616	27.0996	69.697	27.0996	69.8766	27.0996	69.4625	27.0996	69.6146	27.0996	69.2705	27.0996	69.3891	27.0996	69.1314	27.0996	69.2126	27.0996	69.0532	27.0996	69.0943	27.0996	69.0404
27.832	72.4523	27.832	72.4176	27.832	72.4522	27.832	72.3486	27.832	72.4173	27.832	72.2454	27.832	72.3473	27.832	72.1085	27.832	72.2422	27.832	71.9386	27.832	72.1021	27.832	71.7372	27.832	71.9274	27.832	71.5063	27.832	71.7194	27.832	71.2493	27.832	71.4802	27.832	70.9711	27.832	71.2136	27.832	70.6787	27.832	70.9251	27.832	70.3809	27.832	70.6228	27.832	70.0891	27.832	70.3171	27.832	69.816	27.832	70.0209	27.832	69.5749	27.832	69.7483	27.832	69.3783	27.832	69.5135	27.832	69.237	27.832	69.3294	27.832	69.1586	27.832	69.2054	27.832	69.1477
29.2969	72.3628	29.2969	72.3211	29.2969	72.3652	29.2969	72.2404	29.2969	72.3281	29.2969	72.1208	29.2969	72.2513	29.2969	71.9626	29.2969	72.1345	29.2969	71.7666	29.2969	71.9775	29.2969	71.534	29.2969	71.7808	29.2969	71.2671	29.2969	71.5452	29.2969	70.9693	29.2969	71.2728	29.2969	70.6462	29.2969	70.9674	29.2969	70.3059	29.2969	70.635	29.2969	69.959	29.2969	70.2846	29.2969	69.6188	29.2969	69.9283	29.2969	69.3009	29.2969	69.5811	29.2969	69.0212	29.2969	69.2599	29.2969	68.7948	29.2969	68.982	29.2969	68.6342	29.2969	68.7624	29.2969	68.5477	29.2969	68.6128	29.2969	68.5403
30.0293	72.3971	30.0293	72.3554	30.0293	72.3974	30.0293	72.2721	30.0293	72.3558	30.0293	72.1476	30.0293	72.2723	30.0293	71.9819	30.0293	72.1464	30.0293	71.7756	30.0293	71.978	30.0293	71.5297	30.0293	71.7673	30.0293	71.2463	30.0293	71.5153	30.0293	70.929	30.0293	71.2241	30.0293	70.5833	30.0293	70.8975	30.0293	70.2176	30.0293	70.5418	30.0293	69.8433	30.0293	70.1665	30.0293	69.4749	30.0293	69.7845	30.0293	69.1294	30.0293	69.412	30.0293	68.8247	30.0293	69.0674	30.0293	68.5776	30.0293	68.7691	30.0293	68.4017	30.0293	68.5338	30.0293	68.3066	30.0293	68.3738	30.0293	68.297
31.4941	72.1285	31.4941	72.0839	31.4941	72.1258	31.4941	71.9921	31.4941	72.0756	31.4941	71.8528	31.4941	71.9774	31.4941	71.6659	31.4941	71.8305	31.4941	71.4313	31.4941	71.6344	31.4941	71.1495	31.4941	71.3887	31.4941	70.8219	31.4941	71.0938	31.4941	70.4514	31.4941	70.7511	31.4941	70.0433	31.4941	70.3642	31.4941	69.6061	31.4941	69.9396	31.4941	69.1526	31.4941	69.4875	31.4941	68.6999	31.4941	69.0229	31.4941	68.2691	31.4941	68.5657	31.4941	67.8837	31.4941	68.1395	31.4941	67.5665	31.4941	67.7688	31.4941	67.3369	31.4941	67.4764	31.4941	67.2085	31.4941	67.2795	31.4941	67.1888
32.2266	72.0707	32.2266	72.0244	32.2266	72.0667	32.2266	71.9276	32.2266	72.0121	32.2266	71.7802	32.2266	71.9063	32.2266	71.5817	32.2266	71.7487	32.2266	71.3319	32.2266	71.5383	32.2266	71.0307	32.2266	71.2745	32.2266	70.6791	32.2266	70.9574	32.2266	70.2799	32.2266	70.5882	32.2266	69.838	32.2266	70.17	32.2266	69.3621	32.2266	69.7091	32.2266	68.8654	32.2266	69.2161	32.2266	68.3663	32.2266	68.7069	32.2266	67.8883	32.2266	68.2029	32.2266	67.4579	32.2266	67.7305	32.2266	67.1016	32.2266	67.318	32.2266	66.8422	32.2266	66.9917	32.2266	66.696	32.2266	66.7721	32.2266	66.6719
33.6914	71.6849	33.6914	71.629	33.6914	71.6831	33.6914	71.5153	33.6914	71.6232	33.6914	71.3429	33.6914	71.5044	33.6914	71.1109	33.6914	71.3253	33.6914	70.8179	33.6914	71.0841	33.6914	70.463	33.6914	70.779	33.6914	70.0458	33.6914	70.4085	33.6914	69.5676	33.6914	69.9721	33.6914	69.0322	33.6914	69.4714	33.6914	68.4479	33.6914	68.9113	33.6914	67.8289	33.6914	68.3022	33.6914	67.1972	33.6914	67.6617	33.6914	66.5828	33.6914	67.0163	33.6914	66.0222	33.6914	66.4007	33.6914	65.5535	33.6914	65.8552	33.6914	65.2104	33.6914	65.4191	33.6914	65.0172	33.6914	65.1234	33.6914	64.9871
34.4238	71.6576	34.4238	71.5974	34.4238	71.6571	34.4238	71.4763	34.4238	71.5956	34.4238	71.2932	34.4238	71.472	34.4238	71.0465	34.4238	71.2846	34.4238	70.7342	34.4238	71.0311	34.4238	70.3543	34.4238	70.7089	34.4238	69.9051	34.4238	70.3153	34.4238	69.3862	34.4238	69.8485	34.4238	68.7997	34.4238	69.3081	34.4238	68.1517	34.4238	68.6969	34.4238	67.4549	34.4238	68.023	34.4238	66.7308	34.4238	67.3021	34.4238	66.0121	34.4238	66.5603	34.4238	65.342	34.4238	65.8357	34.4238	64.7705	34.4238	65.1764	34.4238	64.3462	34.4238	64.6346	34.4238	64.1074	34.4238	64.257	34.4238	64.0764
35.8887	71.1049	35.8887	71.0369	35.8887	71.1032	35.8887	70.8985	35.8887	71.0312	35.8887	70.6879	35.8887	70.8872	35.8887	70.4023	35.8887	70.6684	35.8887	70.0378	35.8887	70.3709	35.8887	69.5901	35.8887	69.9898	35.8887	69.0541	35.8887	69.5194	35.8887	68.4251	35.8887	68.9541	35.8887	67.7003	35.8887	68.2887	35.8887	66.8802	35.8887	67.5206	35.8887	65.9724	35.8887	66.6524	35.8887	64.9965	35.8887	65.6958	35.8887	63.9894	35.8887	64.678	35.8887	63.0106	35.8887	63.6473	35.8887	62.1409	35.8887	62.6765	35.8887	61.47	35.8887	61.8567	35.8887	61.0764	35.8887	61.2785	35.8887	61.0089
37.3535	70.8436	37.3535	70.7688	37.3535	70.843	37.3535	70.6178	37.3535	70.7664	37.3535	70.3882	37.3535	70.612	37.3535	70.0766	37.3535	70.3764	37.3535	69.678	37.3535	70.0548	37.3535	69.1865	37.3535	69.6415	37.3535	68.5953	37.3535	69.1292	37.3535	67.8975	37.3535	68.5108	37.3535	67.0878	37.3535	67.7792	37.3535	66.1644	37.3535	66.9301	37.3535	65.1343	37.3535	65.9648	37.3535	64.0194	37.3535	64.8957	37.3535	62.8663	37.3535	63.7542	37.3535	61.7534	37.3535	62.598	37.3535	60.7866	37.3535	61.5147	37.3535	60.074	37.3535	60.6081	37.3535	59.6885	37.3535	59.9698	37.3535	59.6553
38.8184	71.3912	38.8184	71.3206	38.8184	71.3964	38.8184	71.1839	38.8184	71.3358	38.8184	70.9795	38.8184	71.2082	38.8184	70.705	38.8184	71.0114	38.8184	70.357	38.8184	70.7422	38.8184	69.932	38.8184	70.3968	38.8184	69.4264	38.8184	69.971	38.8184	68.8372	38.8184	69.4609	38.8184	68.1639	38.8184	68.8633	38.8184	67.41	38.8184	68.1779	38.8184	66.5861	38.8184	67.4092	38.8184	65.7144	38.8184	66.5694	38.8184	64.832	38.8184	65.6832	38.8184	63.9938	38.8184	64.7907	38.8184	63.2692	38.8184	63.9496	38.8184	62.7313	38.8184	63.2304	38.8184	62.4407	38.8184	62.7051	38.8184	62.4315
39.5508	70.9116	39.5508	70.8396	39.5508	70.9141	39.5508	70.6972	39.5508	70.8465	39.5508	70.4826	39.5508	70.7073	39.5508	70.1931	39.5508	70.4939	39.5508	69.8248	39.5508	70.2026	39.5508	69.3737	39.5508	69.8288	39.5508	68.8354	39.5508	69.3675	39.5508	68.2065	39.5508	68.8139	39.5508	67.4862	39.5508	68.1646	39.5508	66.6787	39.5508	67.4192	39.5508	65.7974	39.5508	66.5839	39.5508	64.8692	39.5508	65.6756	39.5508	63.9396	39.5508	64.7268	39.5508	63.073	39.5508	63.7895	39.5508	62.3434	39.5508	62.9333	39.5508	61.8165	39.5508	62.2324	39.5508	61.5334	39.5508	61.7467	39.5508	61.5099
41.0156	71.6719	41.0156	71.5955	41.0156	71.6912	41.0156	71.4618	41.0156	71.6534	41.0156	71.2705	41.0156	71.5578	41.0156	71.0214	41.0156	71.4038	41.0156	70.7148	41.0156	71.1909	41.0156	70.3523	41.0156	70.9188	41.0156	69.938	41.0156	70.5885	41.0156	69.4801	41.0156	70.2031	41.0156	68.9921	41.0156	69.7694	41.0156	68.4945	41.0156	69.2992	41.0156	68.0149	41.0156	68.8107	41.0156	67.5851	41.0156	68.3288	41.0156	67.2339	41.0156	67.8829	41.0156	66.9788	41.0156	67.5006	41.0156	66.8205	41.0156	67.2005	41.0156	66.7444	41.0156	66.9859	41.0156	66.7305	41.0156	66.8461	41.0156	66.7648
42.4805	74.7142	42.4805	74.6924	42.4805	74.7095	42.4805	74.645	42.4805	74.6782	42.4805	74.5739	42.4805	74.621	42.4805	74.4817	42.4805	74.5392	42.4805	74.3722	42.4805	74.4355	42.4805	74.2506	42.4805	74.3137	42.4805	74.1235	42.4805	74.1795	42.4805	73.9986	42.4805	74.0399	42.4805	73.8844	42.4805	73.9037	42.4805	73.7891	42.4805	73.7807	42.4805	73.719	42.4805	73.6805	42.4805	73.6769	42.4805	73.6104	42.4805	73.6614	42.4805	73.5741	42.4805	73.666	42.4805	73.5699	42.4805	73.6809	42.4805	73.5905	42.4805	73.695	42.4805	73.625	42.4805	73.699	42.4805	73.6608	42.4805	73.6875
43.9453	75.6784	43.9453	75.6604	43.9453	75.6799	43.9453	75.6265	43.9453	75.6644	43.9453	75.5784	43.9453	75.6324	43.9453	75.5181	43.9453	75.5849	43.9453	75.4486	43.9453	75.5235	43.9453	75.3735	43.9453	75.4511	43.9453	75.2973	43.9453	75.3713	43.9453	75.2252	43.9453	75.2888	43.9453	75.1624	43.9453	75.2094	43.9453	75.1135	43.9453	75.1391	43.9453	75.082	43.9453	75.0837	43.9453	75.0688	43.9453	75.0476	43.9453	75.0722	43.9453	75.0328	43.9453	75.0874	43.9453	75.0377	43.9453	75.1073	43.9453	75.0573	43.9453	75.1244	43.9453	75.0841	43.9453	75.1323	43.9453	75.1099	43.9453	75.1273
45.4102	76.731	45.4102	76.7246	45.4102	76.727	45.4102	76.7085	45.4102	76.7127	45.4102	76.6835	45.4102	76.6885	45.4102	76.6508	45.4102	76.6551	45.4102	76.6123	45.4102	76.6138	45.4102	76.5702	45.4102	76.5667	45.4102	76.5275	45.4102	76.5164	45.4102	76.4873	45.4102	76.4661	45.4102	76.4529	45.4102	76.4196	45.4102	76.4272	45.4102	76.381	45.4102	76.4122	45.4102	76.3538	45.4102	76.4086	45.4102	76.3406	45.4102	76.415	45.4102	76.342	45.4102	76.428	45.4102	76.3565	45.4102	76.4428	45.4102	76.3802	45.4102	76.4542	45.4102	76.4076	45.4102	76.4575	45.4102	76.4327	45.4102	76.4503
47.6074	78.2889	47.6074	78.2868	47.6074	78.2869	47.6074	78.281	47.6074	78.2808	47.6074	78.2716	47.6074	78.2707	47.6074	78.2591	47.6074	78.2568	47.6074	78.2444	47.6074	78.2396	47.6074	78.2282	47.6074	78.2199	47.6074	78.2118	47.6074	78.1987	47.6074	78.1965	47.6074	78.1774	47.6074	78.1837	47.6074	78.158	47.6074	78.1748	47.6074	78.1421	47.6074	78.1708	47.6074	78.1316	47.6074	78.1719	47.6074	78.1279	47.6074	78.1775	47.6074	78.1313	47.6074	78.1859	47.6074	78.1413	47.6074	78.1947	47.6074	78.156	47.6074	78.2011	47.6074	78.1724	47.6074	78.2026	47.6074	78.1873	47.6074	78.198
49.0723	79.2167	49.0723	79.2167	49.0723	79.2148	49.0723	79.2149	49.0723	79.211	49.0723	79.2114	49.0723	79.2054	49.0723	79.2062	49.0723	79.1978	49.0723	79.1995	49.0723	79.1884	49.0723	79.1915	49.0723	79.1775	49.0723	79.1828	49.0723	79.1654	49.0723	79.1741	49.0723	79.1529	49.0723	79.1661	49.0723	79.1409	49.0723	79.1598	49.0723	79.1305	49.0723	79.1558	49.0723	79.123	49.0723	79.1546	49.0723	79.1193	49.0723	79.1559	49.0723	79.1202	49.0723	79.1591	49.0723	79.1253	49.0723	79.1627	49.0723	79.1337	49.0723	79.165	49.0723	79.1437	49.0723	79.1646	49.0723	79.1533	49.0723	79.1607
50.5371	80.0185	50.5371	80.0201	50.5371	80.0165	50.5371	80.0213	50.5371	80.0142	50.5371	80.0219	50.5371	80.0112	50.5371	80.0218	50.5371	80.0076	50.5371	80.0208	50.5371	80.003	50.5371	80.0189	50.5371	79.9974	50.5371	80.016	50.5371	79.9909	50.5371	80.0124	50.5371	79.9836	50.5371	80.0084	50.5371	79.9762	50.5371	80.0045	50.5371	79.9694	50.5371	80.0013	50.5371	79.9641	50.5371	79.9992	50.5371	79.9611	50.5371	79.9983	50.5371	79.9611	50.5371	79.9982	50.5371	79.9642	50.5371	79.9982	50.5371	79.9698	50.5371	79.9975	50.5371	79.977	50.5371	79.9952	50.5371	79.9844	50.5371	79.9907
52.7344	81.1576	52.7344	81.1677	52.7344	81.1491	52.7344	81.1792	52.7344	81.1424	52.7344	81.1915	52.7344	81.1374	52.7344	81.2042	52.7344	81.1339	52.7344	81.2165	52.7344	81.1317	52.7344	81.2277	52.7344	81.1304	52.7344	81.2374	52.7344	81.1299	52.7344	81.2449	52.7344	81.1301	52.7344	81.2501	52.7344	81.131	52.7344	81.2528	52.7344	81.1328	52.7344	81.2531	52.7344	81.1359	52.7344	81.2514	52.7344	81.1408	52.7344	81.2477	52.7344	81.1477	52.7344	81.2424	52.7344	81.1567	52.7344	81.2356	52.7344	81.1677	52.7344	81.2271	52.7344	81.18	52.7344	81.217	52.7344	81.1929	52.7344	81.2054
54.1992	81.8665	54.1992	81.8756	54.1992	81.859	54.1992	81.8861	54.1992	81.8532	54.1992	81.8976	54.1992	81.8491	54.1992	81.9092	54.1992	81.8461	54.1992	81.9202	54.1992	81.8439	54.1992	81.9296	54.1992	81.8418	54.1992	81.9367	54.1992	81.8394	54.1992	81.9407	54.1992	81.8364	54.1992	81.9412	54.1992	81.8325	54.1992	81.9379	54.1992	81.8279	54.1992	81.9311	54.1992	81.8232	54.1992	81.9211	54.1992	81.8188	54.1992	81.9086	54.1992	81.8158	54.1992	81.8946	54.1992	81.8148	54.1992	81.8798	54.1992	81.8165	54.1992	81.8651	54.1992	81.8211	54.1992	81.8512	54.1992	81.8287	54.1992	81.8389
56.3965	82.7794	56.3965	82.7827	56.3965	82.7784	56.3965	82.7881	56.3965	82.7797	56.3965	82.7952	56.3965	82.7828	56.3965	82.8032	56.3965	82.7873	56.3965	82.8113	56.3965	82.7924	56.3965	82.8186	56.3965	82.7974	56.3965	82.8242	56.3965	82.8014	56.3965	82.8272	56.3965	82.8039	56.3965	82.8272	56.3965	82.8042	56.3965	82.824	56.3965	82.8022	56.3965	82.8178	56.3965	82.798	56.3965	82.8091	56.3965	82.792	56.3965	82.799	56.3965	82.7848	56.3965	82.7885	56.3965	82.7775	56.3965	82.7787	56.3965	82.7708	56.3965	82.7707	56.3965	82.7656	56.3965	82.7652	56.3965	82.7626	56.3965	82.7624
58.5938	83.5932	58.5938	83.5916	58.5938	83.5974	58.5938	83.5925	58.5938	83.6041	58.5938	83.5954	58.5938	83.6129	58.5938	83.5998	58.5938	83.6229	58.5938	83.6047	58.5938	83.6334	58.5938	83.6092	58.5938	83.6434	58.5938	83.6124	58.5938	83.6517	58.5938	83.6135	58.5938	83.6574	58.5938	83.612	58.5938	83.6597	58.5938	83.6076	58.5938	83.6582	58.5938	83.6006	58.5938	83.6526	58.5938	83.5919	58.5938	83.6434	58.5938	83.5824	58.5938	83.6311	58.5938	83.5736	58.5938	83.617	58.5938	83.5669	58.5938	83.6023	58.5938	83.5633	58.5938	83.5884	58.5938	83.5636	58.5938	83.5767	58.5938	83.5682
60.0586	84.0465	60.0586	84.0445	60.0586	84.0511	60.0586	84.0452	60.0586	84.0582	60.0586	84.0479	60.0586	84.0673	60.0586	84.0521	60.0586	84.0776	60.0586	84.0569	60.0586	84.0882	60.0586	84.0614	60.0586	84.0981	60.0586	84.0644	60.0586	84.106	60.0586	84.0652	60.0586	84.1111	60.0586	84.0632	60.0586	84.1123	60.0586	84.0581	60.0586	84.1094	60.0586	84.0502	60.0586	84.1021	60.0586	84.0402	60.0586	84.0908	60.0586	84.0292	60.0586	84.0765	60.0586	84.0187	60.0586	84.0604	60.0586	84.0102	60.0586	84.0439	60.0586	84.005	60.0586	84.0287	60.0586	84.0041	60.0586	84.0164	60.0586	84.0079
62.2559	84.6845	62.2559	84.6797	62.2559	84.692	62.2559	84.6777	62.2559	84.702	62.2559	84.6781	62.2559	84.7139	62.2559	84.6804	62.2559	84.7268	62.2559	84.6836	62.2559	84.7398	62.2559	84.6869	62.2559	84.7516	62.2559	84.6893	62.2559	84.761	62.2559	84.6898	62.2559	84.7669	62.2559	84.6878	62.2559	84.7683	62.2559	84.683	62.2559	84.7648	62.2559	84.6755	62.2559	84.7561	62.2559	84.6658	62.2559	84.7428	62.2559	84.6553	62.2559	84.7256	62.2559	84.6453	62.2559	84.7061	62.2559	84.6375	62.2559	84.686	62.2559	84.6333	62.2559	84.6671	62.2559	84.634	62.2559	84.6514	62.2559	84.64
64.4531	85.2528	64.4531	85.2463	64.4531	85.2618	64.4531	85.2426	64.4531	85.2732	64.4531	85.2412	64.4531	85.2864	64.4531	85.2417	64.4531	85.3003	64.4531	85.2432	64.4531	85.3141	64.4531	85.2449	64.4531	85.3264	64.4531	85.2458	64.4531	85.3361	64.4531	85.2449	64.4531	85.3419	64.4531	85.2415	64.4531	85.3428	64.4531	85.2354	64.4531	85.3383	64.4531	85.2267	64.4531	85.3282	64.4531	85.2161	64.4531	85.3128	64.4531	85.2047	64.4531	85.2932	64.4531	85.1942	64.4531	85.2707	64.4531	85.1863	64.4531	85.2474	64.4531	85.1827	64.4531	85.2254	64.4531	85.1847	64.4531	85.2066	64.4531	85.1927
66.6504	85.688	66.6504	85.6793	66.6504	85.6993	66.6504	85.6731	66.6504	85.7128	66.6504	85.6694	66.6504	85.7277	66.6504	85.6677	66.6504	85.7433	66.6504	85.6672	66.6504	85.7584	66.6504	85.6671	66.6504	85.7718	66.6504	85.6666	66.6504	85.7822	66.6504	85.6646	66.6504	85.7884	66.6504	85.6606	66.6504	85.7894	66.6504	85.6543	66.6504	85.7845	66.6504	85.6457	66.6504	85.7735	66.6504	85.6355	66.6504	85.7568	66.6504	85.6249	66.6504	85.7353	66.6504	85.6155	66.6504	85.7107	66.6504	85.6091	66.6504	85.6848	66.6504	85.6073	66.6504	85.66	66.6504	85.6114	66.6504	85.6384	66.6504	85.6218
69.5801	86.6491	69.5801	86.636	69.5801	86.6644	69.5801	86.6253	69.5801	86.6815	69.5801	86.6167	69.5801	86.6998	69.5801	86.61	69.5801	86.7182	69.5801	86.6043	69.5801	86.7357	69.5801	86.599	69.5801	86.7508	69.5801	86.5932	69.5801	86.7621	69.5801	86.5862	69.5801	86.7684	69.5801	86.5774	69.5801	86.7684	69.5801	86.5667	69.5801	86.7613	69.5801	86.5545	69.5801	86.7468	69.5801	86.5417	69.5801	86.7253	69.5801	86.5298	69.5801	86.6977	69.5801	86.5205	69.5801	86.6658	69.5801	86.516	69.5801	86.632	69.5801	86.5178	69.5801	86.5988	69.5801	86.5272	69.5801	86.5689	69.5801	86.5445
71.7773	87.0463	71.7773	87.0281	71.7773	87.0659	71.7773	87.0115	71.7773	87.0864	71.7773	86.9964	71.7773	87.1071	71.7773	86.9824	71.7773	87.127	71.7773	86.9692	71.7773	87.1449	71.7773	86.956	71.7773	87.1595	71.7773	86.9423	71.7773	87.1691	71.7773	86.9274	71.7773	87.1726	71.7773	86.9112	71.7773	87.1685	71.7773	86.8937	71.7773	87.1561	71.7773	86.8755	71.7773	87.1351	71.7773	86.8578	71.7773	87.1058	71.7773	86.8425	71.7773	87.0694	71.7773	86.8316	71.7773	87.028	71.7773	86.8274	71.7773	86.9842	71.7773	86.8317	71.7773	86.9411	71.7773	86.8457	71.7773	86.9019	71.7773	86.8694
73.9746	87.4442	73.9746	87.4256	73.9746	87.4641	73.9746	87.4082	73.9746	87.4848	73.9746	87.392	73.9746	87.5058	73.9746	87.3766	73.9746	87.526	73.9746	87.3615	73.9746	87.5443	73.9746	87.3461	73.9746	87.5594	73.9746	87.3298	73.9746	87.5698	73.9746	87.3123	73.9746	87.574	73.9746	87.2934	73.9746	87.5705	73.9746	87.2733	73.9746	87.5585	73.9746	87.253	73.9746	87.5374	73.9746	87.2338	73.9746	87.5075	73.9746	87.2177	73.9746	87.4698	73.9746	87.2069	73.9746	87.4263	73.9746	87.2038	73.9746	87.3797	73.9746	87.2101	73.9746	87.3332	73.9746	87.2269	73.9746	87.2903	73.9746	87.2541
76.9043	87.8029	76.9043	87.7946	76.9043	87.8125	76.9043	87.7876	76.9043	87.8234	76.9043	87.7815	76.9043	87.835	76.9043	87.7759	76.9043	87.8468	76.9043	87.77	76.9043	87.8577	76.9043	87.763	76.9043	87.8668	76.9043	87.7542	76.9043	87.8727	76.9043	87.7428	76.9043	87.8741	76.9043	87.7284	76.9043	87.87	76.9043	87.711	76.9043	87.8593	76.9043	87.6913	76.9043	87.8418	76.9043	87.6704	76.9043	87.8176	76.9043	87.6501	76.9043	87.7878	76.9043	87.6327	76.9043	87.7541	76.9043	87.6206	76.9043	87.7189	76.9043	87.6159	76.9043	87.6853	76.9043	87.6201	76.9043	87.656	76.9043	87.6337
79.834	88.0905	79.834	88.0858	79.834	88.0962	79.834	88.082	79.834	88.1027	79.834	88.0788	79.834	88.1097	79.834	88.0758	79.834	88.1167	79.834	88.0722	79.834	88.1228	79.834	88.0674	79.834	88.1273	79.834	88.0604	79.834	88.1291	79.834	88.0507	79.834	88.1271	79.834	88.0375	79.834	88.1204	79.834	88.0209	79.834	88.1083	79.834	88.0011	79.834	88.0905	79.834	87.9792	79.834	88.0675	79.834	87.9569	79.834	88.0401	79.834	87.9363	79.834	88.0102	79.834	87.9198	79.834	87.9801	79.834	87.9097	79.834	87.9525	79.834	87.9076	79.834	87.9299	79.834	87.9145
82.7637	88.3299	82.7637	88.3244	82.7637	88.3356	82.7637	88.3191	82.7637	88.3413	82.7637	88.3138	82.7637	88.3468	82.7637	88.3082	82.7637	88.3515	82.7637	88.3018	82.7637	88.3549	82.7637	88.294	82.7637	88.3563	82.7637	88.2842	82.7637	88.3547	82.7637	88.2717	82.7637	88.3493	82.7637	88.2562	82.7637	88.3393	82.7637	88.2377	82.7637	88.3242	82.7637	88.2164	82.7637	88.3039	82.7637	88.1934	82.7637	88.2789	82.7637	88.1703	82.7637	88.2501	82.7637	88.149	82.7637	88.2194	82.7637	88.1319	82.7637	88.189	82.7637	88.1212	82.7637	88.1615	82.7637	88.1185	82.7637	88.1393	82.7637	88.1246
85.6934	88.5408	85.6934	88.5359	85.6934	88.5451	85.6934	88.5303	85.6934	88.5488	85.6934	88.5241	85.6934	88.5515	85.6934	88.517	85.6934	88.5529	85.6934	88.5085	85.6934	88.5525	85.6934	88.4982	85.6934	88.5498	85.6934	88.4857	85.6934	88.5442	85.6934	88.4704	85.6934	88.5348	85.6934	88.452	85.6934	88.5212	85.6934	88.4305	85.6934	88.503	85.6934	88.4064	85.6934	88.4801	85.6934	88.3808	85.6934	88.4531	85.6934	88.3552	85.6934	88.4232	85.6934	88.3317	85.6934	88.3919	85.6934	88.3126	85.6934	88.3616	85.6934	88.2999	85.6934	88.3347	85.6934	88.2955	85.6934	88.3135	85.6934	88.3001
88.623	88.6924	88.623	88.6876	88.623	88.696	88.623	88.6818	88.623	88.6984	88.623	88.6748	88.623	88.6993	88.623	88.6666	88.623	88.6986	88.623	88.657	88.623	88.6959	88.623	88.6455	88.623	88.6908	88.623	88.6319	88.623	88.6829	88.623	88.6157	88.623	88.6716	88.623	88.5966	88.623	88.6565	88.623	88.5747	88.623	88.6374	88.623	88.5505	88.623	88.6142	88.623	88.5249	88.623	88.5875	88.623	88.4995	88.623	88.5584	88.623	88.476	88.623	88.5284	88.623	88.4568	88.623	88.4995	88.623	88.4438	88.623	88.4742	88.623	88.4388	88.623	88.4545	88.623	88.4423
91.5527	88.7809	91.5527	88.7785	91.5527	88.7815	91.5527	88.7742	91.5527	88.7801	91.5527	88.7682	91.5527	88.7766	91.5527	88.7604	91.5527	88.7711	91.5527	88.7506	91.5527	88.7633	91.5527	88.7387	91.5527	88.7531	91.5527	88.7244	91.5527	88.7404	91.5527	88.7073	91.5527	88.725	91.5527	88.6873	91.5527	88.7066	91.5527	88.6644	91.5527	88.6852	91.5527	88.639	91.5527	88.6612	91.5527	88.612	91.5527	88.6349	91.5527	88.5849	91.5527	88.6076	91.5527	88.5594	91.5527	88.5805	91.5527	88.5376	91.5527	88.5554	91.5527	88.5215	91.5527	88.5345	91.5527	88.5127	91.5527	88.5195	91.5527	88.512
94.4824	88.8732	94.4824	88.8703	94.4824	88.8729	94.4824	88.8647	94.4824	88.8694	94.4824	88.8563	94.4824	88.8626	94.4824	88.8454	94.4824	88.8526	94.4824	88.832	94.4824	88.8392	94.4824	88.8163	94.4824	88.8228	94.4824	88.7979	94.4824	88.8032	94.4824	88.7769	94.4824	88.7806	94.4824	88.753	94.4824	88.7554	94.4824	88.7265	94.4824	88.7277	94.4824	88.6976	94.4824	88.6981	94.4824	88.6673	94.4824	88.6675	94.4824	88.6368	94.4824	88.6372	94.4824	88.608	94.4824	88.6086	94.4824	88.5827	94.4824	88.5835	94.4824	88.563	94.4824	88.5638	94.4824	88.5506	94.4824	88.5511	94.4824	88.5465
98.1445	88.9529	98.1445	88.9502	98.1445	88.9518	98.1445	88.9438	98.1445	88.9467	98.1445	88.9342	98.1445	88.9374	98.1445	88.9216	98.1445	88.9242	98.1445	88.9064	98.1445	88.9071	98.1445	88.8887	98.1445	88.8865	98.1445	88.8684	98.1445	88.8627	98.1445	88.8457	98.1445	88.836	98.1445	88.8204	98.1445	88.807	98.1445	88.7926	98.1445	88.7761	98.1445	88.7627	98.1445	88.7442	98.1445	88.7314	98.1445	88.7123	98.1445	88.6999	98.1445	88.6815	98.1445	88.6699	98.1445	88.6536	98.1445	88.6432	98.1445	88.63	98.1445	88.6217	98.1445	88.6125	98.1445	88.607	98.1445	88.6023	98.1445	88.6004
101.807	89.2347	101.807	89.2324	101.807	89.2327	101.807	89.2261	101.807	89.2259	101.807	89.2167	101.807	89.214	101.807	89.2045	101.807	89.1971	101.807	89.1902	101.807	89.1754	101.807	89.1739	101.807	89.1492	101.807	89.1557	101.807	89.1192	101.807	89.1354	101.807	89.0859	101.807	89.1125	101.807	89.0503	101.807	89.0868	101.807	89.0136	101.807	89.0581	101.807	88.9769	101.807	89.0266	101.807	88.9418	101.807	88.9933	101.807	88.9101	101.807	88.9593	101.807	88.8836	101.807	88.9266	101.807	88.864	101.807	88.8974	101.807	88.8526	101.807	88.8738	101.807	88.8505	101.807	88.8577
105.469	89.353	105.469	89.3314	105.469	89.3674	105.469	89.303	105.469	89.3745	105.469	89.2686	105.469	89.3743	105.469	89.229	105.469	89.3672	105.469	89.1854	105.469	89.3533	105.469	89.1391	105.469	89.333	105.469	89.0913	105.469	89.3067	105.469	89.0434	105.469	89.2746	105.469	88.9967	105.469	89.2371	105.469	88.9524	105.469	89.1945	105.469	88.9119	105.469	89.1476	105.469	88.8762	105.469	89.0973	105.469	88.8467	105.469	89.0452	105.469	88.8248	105.469	88.9932	105.469	88.8116	105.469	88.9437	105.469	88.8082	105.469	88.8991	105.469	88.8155	105.469	88.8617	105.469	88.8335
109.131	89.4961	109.131	89.4938	109.131	89.4924	109.131	89.4856	109.131	89.4827	109.131	89.4719	109.131	89.4672	109.131	89.453	109.131	89.4464	109.131	89.4295	109.131	89.4207	109.131	89.4016	109.131	89.391	109.131	89.3699	109.131	89.3579	109.131	89.3348	109.131	89.3225	109.131	89.2969	109.131	89.2854	109.131	89.257	109.131	89.2476	109.131	89.2163	109.131	89.2099	109.131	89.1761	109.131	89.1733	109.131	89.1381	109.131	89.1388	109.131	89.1042	109.131	89.1076	109.131	89.0762	109.131	89.0809	109.131	89.0557	109.131	89.0601	109.131	89.0437	109.131	89.0463	109.131	89.0407
112.793	89.4763	112.793	89.4708	112.793	89.4763	112.793	89.4603	112.793	89.4706	112.793	89.4457	112.793	89.459	112.793	89.4278	112.793	89.4419	112.793	89.4074	112.793	89.42	112.793	89.3853	112.793	89.3939	112.793	89.3618	112.793	89.3646	112.793	89.3372	112.793	89.333	112.793	89.3118	112.793	89.3001	112.793	89.2854	112.793	89.2668	112.793	89.2583	112.793	89.2342	112.793	89.2309	112.793	89.2034	112.793	89.2038	112.793	89.1754	112.793	89.1781	112.793	89.1513	112.793	89.155	112.793	89.1324	112.793	89.1359	112.793	89.1196	112.793	89.122	112.793	89.1134	112.793	89.1143
116.455	89.4085	116.455	89.4028	116.455	89.4075	116.455	89.391	116.455	89.3992	116.455	89.3742	116.455	89.3839	116.455	89.3537	116.455	89.362	116.455	89.3308	116.455	89.3346	116.455	89.3066	116.455	89.303	116.455	89.2819	116.455	89.2685	116.455	89.2573	116.455	89.2328	116.455	89.233	116.455	89.1973	116.455	89.209	116.455	89.1634	116.455	89.1852	116.455	89.1323	116.455	89.1617	116.455	89.105	116.455	89.1386	116.455	89.0824	116.455	89.1165	116.455	89.0649	116.455	89.0959	116.455	89.0532	116.455	89.0778	116.455	89.0472	116.455	89.063	116.455	89.0471	116.455	89.0526
120.85	89.429	120.85	89.4102	120.85	89.4402	120.85	89.3852	120.85	89.4429	120.85	89.3559	120.85	89.4369	120.85	89.3244	120.85	89.4225	120.85	89.2929	120.85	89.4005	120.85	89.2635	120.85	89.3722	120.85	89.2375	120.85	89.3392	120.85	89.2162	120.85	89.3035	120.85	89.1996	120.85	89.267	120.85	89.1873	120.85	89.2316	120.85	89.1785	120.85	89.1994	120.85	89.1717	120.85	89.1719	120.85	89.1658	120.85	89.1501	120.85	89.1598	120.85	89.1349	120.85	89.153	120.85	89.1261	120.85	89.1454	120.85	89.1232	120.85	89.1375	120.85	89.125	120.85	89.1303
125.244	89.3428	125.244	89.3103	125.244	89.3663	125.244	89.2704	125.244	89.3804	125.244	89.2249	125.244	89.3852	125.244	89.1765	125.244	89.3811	125.244	89.128	125.244	89.3694	125.244	89.0827	125.244	89.3514	125.244	89.0434	125.244	89.3286	125.244	89.0126	125.244	89.3025	125.244	88.9919	125.244	89.2748	125.244	88.9816	125.244	89.2468	125.244	88.9814	125.244	89.2197	125.244	88.9895	125.244	89.1946	125.244	89.0039	125.244	89.1722	125.244	89.0219	125.244	89.1526	125.244	89.0413	125.244	89.1357	125.244	89.0601	125.244	89.1209	125.244	89.0774	125.244	89.107	125.244	89.0928
129.639	89.2632	129.639	89.234	129.639	89.282	129.639	89.1949	129.639	89.2907	129.639	89.1473	129.639	89.2905	129.639	89.0933	129.639	89.2829	129.639	89.0361	129.639	89.2701	129.639	88.979	129.639	89.2542	129.639	88.9258	129.639	89.2371	129.639	88.8804	129.639	89.2205	129.639	88.8459	129.639	89.2052	129.639	88.8249	129.639	89.1917	129.639	88.8185	129.639	89.1794	129.639	88.8265	129.639	89.1677	129.639	88.8475	129.639	89.1551	129.639	88.8787	129.639	89.1403	129.639	88.9167	129.639	89.1219	129.639	88.9579	129.639	89.0989	129.639	88.9988	129.639	89.0706	129.639	89.037
134.033	89.1704	134.033	89.1695	134.033	89.1598	134.033	89.1576	134.033	89.1384	134.033	89.1359	134.033	89.1076	134.033	89.1064	134.033	89.0701	134.033	89.0718	134.033	89.0292	134.033	89.0349	134.033	88.9885	134.033	88.9989	134.033	88.952	134.033	88.9666	134.033	88.9233	134.033	88.9407	134.033	88.905	134.033	88.9232	134.033	88.8984	134.033	88.9153	134.033	88.9033	134.033	88.9171	134.033	88.9178	134.033	88.9276	134.033	88.9388	134.033	88.9444	134.033	88.9624	134.033	88.9645	134.033	88.9843	134.033	88.9843	134.033	89.001	134.033	89.0003	134.033	89.0097	134.033	89.0093
138.428	89.0703	138.428	89.0653	138.428	89.0617	138.428	89.0485	138.428	89.039	138.428	89.0224	138.428	89.003	138.428	88.9905	138.428	88.9558	138.428	88.9566	138.428	88.9007	138.428	88.9246	138.428	88.842	138.428	88.8979	138.428	88.785	138.428	88.8792	138.428	88.7349	138.428	88.87	138.428	88.6969	138.428	88.8707	138.428	88.6748	138.428	88.8802	138.428	88.6709	138.428	88.8961	138.428	88.6852	138.428	88.9151	138.428	88.7154	138.428	88.9333	138.428	88.7572	138.428	88.9466	138.428	88.8047	138.428	88.9514	138.428	88.852	138.428	88.9447	138.428	88.8936	138.428	88.9253
143.555	88.9986	143.555	88.964	143.555	89.0157	143.555	88.9142	143.555	89.0146	143.555	88.853	143.555	88.9961	143.555	88.7855	143.555	88.9626	143.555	88.718	143.555	88.9175	143.555	88.657	143.555	88.8655	143.555	88.6091	143.555	88.812	143.555	88.5795	143.555	88.7627	143.555	88.5716	143.555	88.723	143.555	88.5859	143.555	88.6976	143.555	88.6203	143.555	88.6893	143.555	88.6696	143.555	88.6987	143.555	88.727	143.555	88.724	143.555	88.7848	143.555	88.7608	143.555	88.8355	143.555	88.803	143.555	88.8727	143.555	88.8436	143.555	88.8924	143.555	88.8755	143.555	88.893
148.682	88.9713	148.682	88.9401	148.682	88.978	148.682	88.8856	148.682	88.9608	148.682	88.8107	148.682	88.9218	148.682	88.7201	148.682	88.865	148.682	88.6203	148.682	88.7955	148.682	88.5192	148.682	88.72	148.682	88.4259	148.682	88.6459	148.682	88.3494	148.682	88.5805	148.682	88.2979	148.682	88.5307	148.682	88.2767	148.682	88.5015	148.682	88.2876	148.682	88.4949	148.682	88.3277	148.682	88.51	148.682	88.3899	148.682	88.5423	148.682	88.4645	148.682	88.5846	148.682	88.5402	148.682	88.6281	148.682	88.6065	148.682	88.6637	148.682	88.6552	148.682	88.6832	148.682	88.6812
153.809	89.1414	153.809	89.1187	153.809	89.1347	153.809	89.0679	153.809	89.0987	153.809	88.9916	153.809	89.0353	153.809	88.8941	153.809	88.948	153.809	88.7816	153.809	88.8419	153.809	88.6613	153.809	88.7239	153.809	88.542	153.809	88.6025	153.809	88.4333	153.809	88.4873	153.809	88.3443	153.809	88.3879	153.809	88.2823	153.809	88.3128	153.809	88.2515	153.809	88.2677	153.809	88.2517	153.809	88.2542	153.809	88.2777	153.809	88.2693	153.809	88.3206	153.809	88.3054	153.809	88.3691	153.809	88.3519	153.809	88.412	153.809	88.3974	153.809	88.4398	153.809	88.4315	153.809	88.4468
159.668	89.3097	159.668	89.2778	159.668	89.3098	159.668	89.2155	159.668	89.2783	159.668	89.1257	159.668	89.217	159.668	89.0131	159.668	89.1294	159.668	88.8843	159.668	89.0208	159.668	88.7475	159.668	88.8984	159.668	88.6127	159.668	88.7712	159.668	88.4909	159.668	88.6492	159.668	88.3926	159.668	88.543	159.668	88.3266	159.668	88.4618	159.668	88.2977	159.668	88.4123	159.668	88.3054	159.668	88.3963	159.668	88.3436	159.668	88.4107	159.668	88.4015	159.668	88.4472	159.668	88.4658	159.668	88.4942	159.668	88.5234	159.668	88.5391	159.668	88.5635	159.668	88.5703	159.668	88.5797
164.795	89.4386	164.795	89.4351	164.795	89.4071	164.795	89.398	164.795	89.3406	164.795	89.3298	164.795	89.2408	164.795	89.2343	164.795	89.1112	164.795	89.1166	164.795	88.9576	164.795	88.9833	164.795	88.7884	164.795	88.8423	164.795	88.6144	164.795	88.7029	164.795	88.4486	164.795	88.5752	164.795	88.3049	164.795	88.4691	164.795	88.1964	164.795	88.3925	164.795	88.1321	164.795	88.3497	164.795	88.115	164.795	88.3395	164.795	88.1405	164.795	88.3549	164.795	88.197	164.795	88.3845	164.795	88.2689	164.795	88.4145	164.795	88.3396	164.795	88.4318	164.795	88.3952	164.795	88.4267
170.654	89.4454	170.654	89.3927	170.654	89.4629	170.654	89.3088	170.654	89.4429	170.654	89.1995	170.654	89.3848	170.654	89.0724	170.654	89.2897	170.654	88.9366	170.654	89.161	170.654	88.8029	170.654	89.0044	170.654	88.6823	170.654	88.8287	170.654	88.5849	170.654	88.6457	170.654	88.5183	170.654	88.4705	170.654	88.4861	170.654	88.3197	170.654	88.4864	170.654	88.2093	170.654	88.5124	170.654	88.1508	170.654	88.5532	170.654	88.1481	170.654	88.5957	170.654	88.1955	170.654	88.6269	170.654	88.2791	170.654	88.6355	170.654	88.3802	170.654	88.6142	170.654	88.4794	170.654	88.5609
176.514	89.2915	176.514	89.2241	176.514	89.3171	176.514	89.1158	176.514	89.3014	176.514	88.9695	176.514	89.2466	176.514	88.7904	176.514	89.1563	176.514	88.5868	176.514	89.036	176.514	88.3705	176.514	88.8928	176.514	88.157	176.514	88.7358	176.514	87.965	176.514	88.5763	176.514	87.8136	176.514	88.4267	176.514	87.7189	176.514	88.2996	176.514	87.6896	176.514	88.2057	176.514	87.7235	176.514	88.1516	176.514	87.8076	176.514	88.1373	176.514	87.9212	176.514	88.1559	176.514	88.041	176.514	88.1941	176.514	88.1461	176.514	88.2349	176.514	88.2214	176.514	88.2614	176.514	88.2596
183.105	89.0777	183.105	89.0454	183.105	89.0629	183.105	88.9673	183.105	89.0015	183.105	88.8462	183.105	88.8954	183.105	88.687	183.105	88.7489	183.105	88.497	183.105	88.5691	183.105	88.2866	183.105	88.3663	183.105	88.07	183.105	88.1548	183.105	87.865	183.105	87.9524	183.105	87.6914	183.105	87.779	183.105	87.568	183.105	87.6532	183.105	87.508	183.105	87.5881	183.105	87.5147	183.105	87.5872	183.105	87.5794	183.105	87.6421	183.105	87.683	183.105	87.7343	183.105	87.8008	183.105	87.8398	183.105	87.9079	183.105	87.9341	183.105	87.9837	183.105	87.9969	183.105	88.0149
189.697	89.4268	189.697	89.3737	189.697	89.4259	189.697	89.2688	189.697	89.3698	189.697	89.1152	189.697	89.2583	189.697	88.9178	189.697	89.0925	189.697	88.6841	189.697	88.8757	189.697	88.4245	189.697	88.6143	189.697	88.1539	189.697	88.3193	189.697	87.8913	189.697	88.0077	189.697	87.6588	189.697	87.7031	189.697	87.4782	189.697	87.4345	189.697	87.3654	189.697	87.2311	189.697	87.3253	189.697	87.1152	189.697	87.3488	189.697	87.0929	189.697	87.4146	189.697	87.1514	189.697	87.4947	189.697	87.2617	189.697	87.5607	189.697	87.3885	189.697	87.5902	189.697	87.4991	189.697	87.5701
196.289	89.7658	196.289	89.7184	196.289	89.7619	196.289	89.6213	196.289	89.7056	196.289	89.4768	196.289	89.5965	196.289	89.2885	196.289	89.435	196.289	89.0615	196.289	89.2233	196.289	88.804	196.289	88.966	196.289	88.5283	196.289	88.672	196.289	88.251	196.289	88.356	196.289	87.9936	196.289	88.0394	196.289	87.779	196.289	87.75	196.289	87.627	196.289	87.5179	196.289	87.5478	196.289	87.3683	196.289	87.5372	196.289	87.312	196.289	87.5769	196.289	87.3401	196.289	87.6394	196.289	87.4266	196.289	87.6954	196.289	87.5364	196.289	87.7209	196.289	87.6362	196.289	87.7017
202.881	89.6834	202.881	89.6042	202.881	89.7091	202.881	89.4727	202.881	89.6809	202.881	89.291	202.881	89.5991	202.881	89.0636	202.881	89.4647	202.881	88.7977	202.881	89.2799	202.881	88.5049	202.881	89.0488	202.881	88.2022	202.881	88.7788	202.881	87.9127	202.881	88.4823	202.881	87.6633	202.881	88.1782	202.881	87.4802	202.881	87.892	202.881	87.3815	202.881	87.6533	202.881	87.3698	202.881	87.4892	202.881	87.4299	202.881	87.4151	202.881	87.5332	202.881	87.4273	202.881	87.6452	202.881	87.5031	202.881	87.7348	202.881	87.608	202.881	87.7794	202.881	87.7061	202.881	87.7688
210.205	89.4532	210.205	89.4064	210.205	89.4431	210.205	89.3029	210.205	89.3758	210.205	89.1429	210.205	89.2511	210.205	88.9272	210.205	89.0693	210.205	88.6586	210.205	88.8317	210.205	88.343	210.205	88.5425	210.205	87.9923	210.205	88.2099	210.205	87.6269	210.205	87.8494	210.205	87.277	210.205	87.4854	210.205	86.9807	210.205	87.1519	210.205	86.7753	210.205	86.8881	210.205	86.6847	210.205	86.7278	210.205	86.7068	210.205	86.6854	210.205	86.8125	210.205	86.747	210.205	86.9558	210.205	86.8742	210.205	87.0892	210.205	87.0183	210.205	87.175	210.205	87.1345	210.205	87.1915
217.529	89.3931	217.529	89.3208	217.529	89.4085	217.529	89.1919	217.529	89.3667	217.529	89.0077	217.529	89.2678	217.529	88.7704	217.529	89.1125	217.529	88.4842	217.529	88.9021	217.529	88.1573	217.529	88.6396	217.529	87.8029	217.529	88.3311	217.529	87.4415	217.529	87.9871	217.529	87.1013	217.529	87.6256	217.529	86.8156	217.529	87.2729	217.529	86.6153	217.529	86.9626	217.529	86.5185	217.529	86.7299	217.529	86.5217	217.529	86.5993	217.529	86.5985	217.529	86.5736	217.529	86.7089	217.529	86.6298	217.529	86.8112	217.529	86.7269	217.529	86.8726	217.529	86.8206	217.529	86.8755
225.586	89.6166	225.586	89.5777	225.586	89.5932	225.586	89.4763	225.586	89.5071	225.586	89.3122	225.586	89.358	225.586	89.0855	225.586	89.146	225.586	88.7978	225.586	88.8724	225.586	88.454	225.586	88.5411	225.586	88.0652	225.586	88.1616	225.586	87.6522	225.586	87.7508	225.586	87.2476	225.586	87.3368	225.586	86.8953	225.586	86.9591	225.586	86.6418	225.586	86.6636	225.586	86.5195	225.586	86.4898	225.586	86.5304	225.586	86.4535	225.586	86.6423	225.586	86.5365	225.586	86.8014	225.586	86.6924	225.586	86.9516	225.586	86.8639	225.586	87.0487	225.586	87.0002	225.586	87.0667
232.91	89.5387	232.91	89.4834	232.91	89.5338	232.91	89.3702	232.91	89.4657	232.91	89.2009	232.91	89.3308	232.91	88.9768	232.91	89.1254	232.91	88.7001	232.91	88.8458	232.91	88.3746	232.91	88.4905	232.91	88.0082	232.91	88.0617	232.91	87.6158	232.91	87.5698	232.91	87.2211	232.91	87.0382	232.91	86.858	232.91	86.5088	232.91	86.565	232.91	86.0431	232.91	86.3738	232.91	85.7105	232.91	86.2948	232.91	85.5615	232.91	86.3086	232.91	85.5985	232.91	86.3715	232.91	85.7712	232.91	86.4306	232.91	86.0022	232.91	86.4403	232.91	86.2186	232.91	86.3716
241.699	89.4167	241.699	89.3158	241.699	89.4581	241.699	89.1559	241.699	89.4385	241.699	88.9374	241.699	89.3554	241.699	88.6608	241.699	89.2053	241.699	88.3286	241.699	88.9842	241.699	87.9467	241.699	88.6885	241.699	87.5281	241.699	88.3175	241.699	87.0956	241.699	87.877	241.699	86.6842	241.699	87.3843	241.699	86.3388	241.699	86.874	241.699	86.1037	241.699	86.4009	241.699	86.0049	241.699	86.0328	241.699	86.0354	241.699	85.8274	241.699	86.1543	241.699	85.8022	241.699	86.3027	241.699	85.921	241.699	86.4231	241.699	86.1124	241.699	86.4731	241.699	86.3013	241.699	86.4314
249.756	89.3006	249.756	89.1967	249.756	89.3406	249.756	89.0274	249.756	89.3173	249.756	88.7904	249.756	89.23	249.756	88.4838	249.756	89.0764	249.756	88.107	249.756	88.8529	249.756	87.6634	249.756	88.5554	249.756	87.1639	249.756	88.1813	249.756	86.6323	249.756	87.7325	249.756	86.1107	249.756	87.2215	249.756	85.659	249.756	86.6775	249.756	85.3432	249.756	86.1517	249.756	85.2076	249.756	85.7144	249.756	85.248	249.756	85.4338	249.756	85.4094	249.756	85.3423	249.756	85.6123	249.756	85.4136	249.756	85.7829	249.756	85.5756	249.756	85.8714	249.756	85.7451	249.756	85.8562
258.545	90.2581	258.545	90.1745	258.545	90.2767	258.545	90.0235	258.545	90.2309	258.545	89.8013	258.545	90.1191	258.545	89.5025	258.545	89.9375	258.545	89.1216	258.545	89.6808	258.545	88.6551	258.545	89.3423	258.545	88.105	258.545	88.9163	258.545	87.4865	258.545	88.4018	258.545	86.8361	258.545	87.8084	258.545	86.22	258.545	87.1651	258.545	85.7291	258.545	86.5293	258.545	85.4481	258.545	85.9869	258.545	85.4047	258.545	85.6291	258.545	85.5464	258.545	85.5045	258.545	85.7706	258.545	85.5831	258.545	85.9759	258.545	85.7723	258.545	86.0922	258.545	85.967	258.545	86.0876
268.066	89.8639	268.066	89.7996	268.066	89.8715	268.066	89.675	268.066	89.8238	268.066	89.4844	268.066	89.7196	268.066	89.2198	268.066	89.5555	268.066	88.872	268.066	89.3258	268.066	88.4316	268.066	89.0232	268.066	87.8928	268.066	88.6409	268.066	87.2595	268.066	88.1752	268.066	86.5564	268.066	87.6317	268.066	85.8424	268.066	87.0329	268.066	85.2187	268.066	86.4265	268.066	84.8072	268.066	85.8874	268.066	84.6848	268.066	85.5009	268.066	84.8218	268.066	85.3214	268.066	85.0989	268.066	85.3338	268.066	85.3825	268.066	85.4574	268.066	85.5788	268.066	85.5896	268.066	85.6459
277.588	89.9259	277.588	89.8895	277.588	89.9094	277.588	89.7982	277.588	89.8406	277.588	89.6479	277.588	89.7174	277.588	89.4329	277.588	89.5356	277.588	89.1455	277.588	89.2879	277.588	88.7774	277.588	88.9641	277.588	88.3222	277.588	88.553	277.588	87.78	277.588	88.0463	277.588	87.1648	277.588	87.4448	277.588	86.5146	277.588	86.7689	277.588	85.8977	277.588	86.071	277.588	85.4055	277.588	85.4422	277.588	85.1164	277.588	84.9934	277.588	85.0459	277.588	84.7995	277.588	85.1303	277.588	84.8431	277.588	85.2646	277.588	85.0231	277.588	85.354	277.588	85.2189	277.588	85.3422
287.109	89.9437	287.109	89.8876	287.109	89.9514	287.109	89.7824	287.109	89.9096	287.109	89.6239	287.109	89.8157	287.109	89.4041	287.109	89.6653	287.109	89.1107	287.109	89.4521	287.109	88.7283	287.109	89.1668	287.109	88.2424	287.109	88.7977	287.109	87.6453	287.109	88.3329	287.109	86.9479	287.109	87.7652	287.109	86.1943	287.109	87.1021	287.109	85.4769	287.109	86.3796	287.109	84.9283	287.109	85.6777	287.109	84.661	287.109	85.1172	287.109	84.6835	287.109	84.8108	287.109	84.8864	287.109	84.7829	287.109	85.1197	287.109	84.9423	287.109	85.268	287.109	85.1461	287.109	85.2756
297.363	89.9044	297.363	89.8173	297.363	89.9412	297.363	89.6852	297.363	89.9213	297.363	89.5119	297.363	89.8369	297.363	89.2979	297.363	89.6783	297.363	89.0393	297.363	89.4335	297.363	88.7263	297.363	89.0881	297.363	88.3436	297.363	88.6265	297.363	87.8741	297.363	88.0348	297.363	87.3066	297.363	87.3063	297.363	86.6478	297.363	86.4534	297.363	85.9385	297.363	85.5262	297.363	85.2646	297.363	84.6353	297.363	84.7433	297.363	83.9506	297.363	84.462	297.363	83.6249	297.363	84.4079	297.363	83.6698	297.363	84.4707	297.363	83.9377	297.363	84.5156	297.363	84.2402	297.363	84.4483
307.617	90.0975	307.617	89.9819	307.617	90.1808	307.617	89.8316	307.617	90.2322	307.617	89.6423	307.617	90.2488	307.617	89.4074	307.617	90.2232	307.617	89.1179	307.617	90.1423	307.617	88.762	307.617	89.9868	307.617	88.327	307.617	89.7325	307.617	87.8035	307.617	89.353	307.617	87.1924	307.617	88.8238	307.617	86.5148	307.617	88.1297	307.617	85.8238	307.617	87.2756	307.617	85.2056	307.617	86.3068	307.617	84.7547	307.617	85.3328	307.617	84.518	307.617	84.5299	307.617	84.4546	307.617	84.0676	307.617	84.4596	307.617	83.9755	307.617	84.4277	307.617	84.1153	307.617	84.3049
318.604	89.4189	318.604	89.3591	318.604	89.4477	318.604	89.2646	318.604	89.4547	318.604	89.1353	318.604	89.4519	318.604	88.9719	318.604	89.4502	318.604	88.7715	318.604	89.4529	318.604	88.5239	318.604	89.45	318.604	88.2094	318.604	89.4165	318.604	87.8023	318.604	89.3151	318.604	87.2779	318.604	89.1032	318.604	86.6261	318.604	88.7416	318.604	85.8697	318.604	88.2045	318.604	85.0849	318.604	87.4915	318.604	84.4039	318.604	86.6439	318.604	83.9636	318.604	85.7604	318.604	83.8061	318.604	84.9878	318.604	83.8437	318.604	84.4536	318.604	83.945	318.604	84.1724	318.604	84.0419
329.59	89.7305	329.59	89.6797	329.59	89.6777	329.59	89.5322	329.59	89.5187	329.59	89.2993	329.59	89.2564	329.59	88.997	329.59	88.9018	329.59	88.6468	329.59	88.4772	329.59	88.2742	329.59	88.0187	329.59	87.9042	329.59	87.574	329.59	87.5542	329.59	87.1915	329.59	87.227	329.59	86.9016	329.59	86.9112	329.59	86.7002	329.59	86.5896	329.59	86.5519	329.59	86.2541	329.59	86.4095	329.59	85.9168	329.59	86.238	329.59	85.6113	329.59	86.0287	329.59	85.3784	329.59	85.7985	329.59	85.2449	329.59	85.5776	329.59	85.2132	329.59	85.3946	329.59	85.2685
341.309	90.4932	341.309	90.3812	341.309	90.5317	341.309	90.1977	341.309	90.4934	341.309	89.9433	341.309	90.3737	341.309	89.6166	341.309	90.1668	341.309	89.2147	341.309	89.8653	341.309	88.7355	341.309	89.4615	341.309	88.1831	341.309	88.95	341.309	87.578	341.309	88.3335	341.309	86.9689	341.309	87.6333	341.309	86.4396	341.309	86.9033	341.309	86.0905	341.309	86.2414	341.309	85.9878	341.309	85.7768	341.309	86.1144	341.309	85.61	341.309	86.3783	341.309	85.7398	341.309	86.6664	341.309	86.0604	341.309	86.8886	341.309	86.4331	341.309	86.9894	341.309	86.7486	341.309	86.9429
353.76	90.5282	353.76	90.4566	353.76	90.5402	353.76	90.3251	353.76	90.493	353.76	90.1331	353.76	90.3872	353.76	89.8779	353.76	90.222	353.76	89.553	353.76	89.9934	353.76	89.1471	353.76	89.6924	353.76	88.6455	353.76	89.3037	353.76	88.0352	353.76	88.8078	353.76	87.3156	353.76	88.1858	353.76	86.5169	353.76	87.4306	353.76	85.7217	353.76	86.5654	353.76	85.0693	353.76	85.6706	353.76	84.7028	353.76	84.9025	353.76	84.6619	353.76	84.4482	353.76	84.8387	353.76	84.3892	353.76	85.0593	353.76	84.6153	353.76	85.1823	353.76	84.9198	353.76	85.1356
366.211	90.231	366.211	90.1234	366.211	90.2714	366.211	89.9434	366.211	90.2496	366.211	89.685	366.211	90.17	366.211	89.3406	366.211	90.0362	366.211	88.9006	366.211	89.8485	366.211	88.3541	366.211	89.6017	366.211	87.6927	366.211	89.2836	366.211	86.9181	366.211	88.8753	366.211	86.059	366.211	88.3561	366.211	85.1958	366.211	87.7125	366.211	84.4778	366.211	86.9535	366.211	84.0825	366.211	86.1319	366.211	84.0887	366.211	85.3632	366.211	84.3909	366.211	84.8108	366.211	84.7836	366.211	84.5962	366.211	85.0923	366.211	84.6921	366.211	85.2226	366.211	84.938	366.211	85.1549
378.662	90.0071	378.662	89.9664	378.662	89.9931	378.662	89.8745	378.662	89.9208	378.662	89.7322	378.662	89.7869	378.662	89.5355	378.662	89.5888	378.662	89.2731	378.662	89.3232	378.662	88.9262	378.662	88.9859	378.662	88.4706	378.662	88.5712	378.662	87.884	378.662	88.0745	378.662	87.1582	378.662	87.4979	378.662	86.3193	378.662	86.8605	378.662	85.4574	378.662	86.2119	378.662	84.7431	378.662	85.6395	378.662	84.3723	378.662	85.2497	378.662	84.417	378.662	85.1102	378.662	84.7484	378.662	85.1934	378.662	85.1512	378.662	85.3863	378.662	85.4601	378.662	85.5548	378.662	85.5967
392.578	89.5744	392.578	89.4971	392.578	89.6056	392.578	89.3724	392.578	89.5946	392.578	89.1989	392.578	89.5482	392.578	88.9714	392.578	89.4733	392.578	88.6772	392.578	89.3719	392.578	88.2945	392.578	89.236	392.578	87.7956	392.578	89.0437	392.578	87.1557	392.578	88.7609	392.578	86.3696	392.578	88.3483	392.578	85.4806	392.578	87.7726	392.578	84.6149	392.578	87.0238	392.578	83.9817	392.578	86.1397	392.578	83.7589	392.578	85.2368	392.578	83.9233	392.578	84.5144	392.578	84.2665	392.578	84.1611	392.578	84.5703	392.578	84.1903	392.578	84.7068	392.578	84.4225	392.578	84.6413
405.762	89.1727	405.762	89.1894	405.762	89.0815	405.762	89.1467	405.762	88.9051	405.762	89.0596	405.762	88.6405	405.762	88.9353	405.762	88.294	405.762	88.7661	405.762	87.8813	405.762	88.5246	405.762	87.4256	405.762	88.1651	405.762	86.9521	405.762	87.6315	405.762	86.4824	405.762	86.8716	405.762	86.0322	405.762	85.8643	405.762	85.6175	405.762	84.6743	405.762	85.2677	405.762	83.548	405.762	85.031	405.762	82.9326	405.762	84.9574	405.762	83.1113	405.762	85.0573	405.762	83.8239	405.762	85.2744	405.762	84.6148	405.762	85.502	405.762	85.2176	405.762	85.6252	405.762	85.5504
420.41	89.5621	420.41	89.36	420.41	89.7151	420.41	89.1245	420.41	89.8078	420.41	88.8736	420.41	89.8319	420.41	88.6232	420.41	89.7799	420.41	88.3786	420.41	89.6413	420.41	88.1276	420.41	89.3991	420.41	87.8395	420.41	89.0264	420.41	87.4717	420.41	88.4844	420.41	86.9845	420.41	87.7252	420.41	86.3611	420.41	86.7001	420.41	85.6334	420.41	85.3852	420.41	84.9094	420.41	83.8513	420.41	84.3663	420.41	82.4149	420.41	84.1509	420.41	81.6969	420.41	84.2359	420.41	82.0198	420.41	84.4241	420.41	82.8994	420.41	84.4929	420.41	83.7433	420.41	84.2886
435.059	89.7143	435.059	89.6437	435.059	89.718	435.059	89.5013	435.059	89.6667	435.059	89.2861	435.059	89.5785	435.059	88.9971	435.059	89.4731	435.059	88.6276	435.059	89.3629	435.059	88.1599	435.059	89.2427	435.059	87.564	435.059	89.0848	435.059	86.8016	435.059	88.8422	435.059	85.8396	435.059	88.459	435.059	84.6841	435.059	87.8844	435.059	83.4498	435.059	87.0906	435.059	82.4497	435.059	86.0995	435.059	82.0995	435.059	85.0265	435.059	82.4668	435.059	84.1132	435.059	83.1564	435.059	83.635	435.059	83.7646	435.059	83.6464	435.059	84.0982	435.059	83.908	435.059	84.1218
450.439	88.9292	450.439	88.9246	450.439	88.8613	450.439	88.8675	450.439	88.714	450.439	88.7827	450.439	88.4986	450.439	88.6873	450.439	88.2464	450.439	88.5774	450.439	88.0032	450.439	88.4205	450.439	87.8115	450.439	88.1594	450.439	87.683	450.439	87.7264	450.439	87.5821	450.439	87.0643	450.439	87.4364	450.439	86.1572	450.439	87.169	450.439	85.0846	450.439	86.7355	450.439	84.0987	450.439	86.1596	450.439	83.5971	450.439	85.561	450.439	83.7774	450.439	85.1377	450.439	84.3806	450.439	85.0387	450.439	85.0111	450.439	85.2153	450.439	85.4334	450.439	85.4612	450.439	85.5735
466.553	88.8829	466.553	88.6991	466.553	88.9787	466.553	88.4664	466.553	88.9667	466.553	88.2416	466.553	88.8445	466.553	88.0844	466.553	88.6234	466.553	88.0289	466.553	88.3239	466.553	88.053	466.553	87.9673	466.553	88.0756	466.553	87.5635	466.553	87.983	466.553	87.0992	466.553	87.6639	466.553	86.5369	466.553	87.0358	466.553	85.8314	466.553	86.0725	466.553	84.9692	466.553	84.8662	466.553	84.0347	466.553	83.7371	466.553	83.2797	466.553	83.2011	466.553	83.0434	466.553	83.453	466.553	83.4	466.553	84.0794	466.553	84.0313	466.553	84.5978	466.553	84.5617	466.553	84.7748
482.666	89.1922	482.666	89.0227	482.666	89.2488	482.666	88.7404	482.666	89.1988	482.666	88.3524	482.666	89.0563	482.666	87.8732	482.666	88.8425	482.666	87.3231	482.666	88.5842	482.666	86.7243	482.666	88.3061	482.666	86.0918	482.666	88.0197	482.666	85.4274	482.666	87.7114	482.666	84.7235	482.666	87.3409	482.666	83.9903	482.666	86.8504	482.666	83.3034	482.666	86.1879	482.666	82.8362	482.666	85.3419	482.666	82.7807	482.666	84.3961	482.666	83.144	482.666	83.5855	482.666	83.6967	482.666	83.2237	482.666	84.1624	482.666	83.4019	482.666	84.3644	482.666	83.8555	482.666	84.2434
500.244	88.779	500.244	88.6773	500.244	88.7935	500.244	88.5174	500.244	88.7088	500.244	88.341	500.244	88.5314	500.244	88.1898	500.244	88.2861	500.244	88.0844	500.244	88.0103	500.244	88.0025	500.244	87.7386	500.244	87.8757	500.244	87.4809	500.244	87.6069	500.244	87.2063	500.244	87.0953	500.244	86.8492	500.244	86.26	500.244	86.3371	500.244	85.0719	500.244	85.6304	500.244	83.6339	500.244	84.772	500.244	82.3395	500.244	83.9426	500.244	81.8397	500.244	83.4379	500.244	82.3038	500.244	83.434	500.244	83.1471	500.244	83.7631	500.244	83.8307	500.244	84.0857	500.244	84.147
517.822	88.6517	517.822	88.4416	517.822	88.7149	517.822	88.1113	517.822	88.626	517.822	87.7149	517.822	88.3981	517.822	87.3343	517.822	88.0637	517.822	87.0562	517.822	87.6745	517.822	86.919	517.822	87.2915	517.822	86.8693	517.822	86.9572	517.822	86.7801	517.822	86.6623	517.822	86.5126	517.822	86.3392	517.822	85.9733	517.822	85.8957	517.822	85.1575	517.822	85.2724	517.822	84.2126	517.822	84.5048	517.822	83.4875	517.822	83.7827	517.822	83.3479	517.822	83.4154	517.822	83.7586	517.822	83.5723	517.822	84.3304	517.822	84.0666	517.822	84.7309	517.822	84.5586	517.822	84.812
536.133	88.9766	536.133	88.8147	536.133	89.0051	536.133	88.5274	536.133	88.9062	536.133	88.1394	536.133	88.6999	536.133	87.6943	536.133	88.4187	536.133	87.2508	536.133	88.1039	536.133	86.8617	536.133	87.7928	536.133	86.5356	536.133	87.4978	536.133	86.208	536.133	87.1891	536.133	85.7547	536.133	86.7921	536.133	85.0429	536.133	86.2033	536.133	83.9943	536.133	85.3156	536.133	82.6818	536.133	84.057	536.133	81.4891	536.133	82.4852	536.133	81.0545	536.133	81.0183	536.133	81.5062	536.133	80.4899	536.133	82.2317	536.133	81.1019	536.133	82.6805	536.133	82.0293	536.133	82.6225
554.443	88.1451	554.443	87.9868	554.443	88.1368	554.443	87.6882	554.443	87.958	554.443	87.3008	554.443	87.6313	554.443	86.9001	554.443	87.2171	554.443	86.5627	554.443	86.8189	554.443	86.3174	554.443	86.5542	554.443	86.1064	554.443	86.4764	554.443	85.7998	554.443	86.5134	554.443	85.2512	554.443	86.5011	554.443	84.353	554.443	86.2695	554.443	83.1075	554.443	85.7026	554.443	81.7821	554.443	84.7741	554.443	81.0501	554.443	83.6148	554.443	81.4036	554.443	82.6096	554.443	82.3605	554.443	82.2631	554.443	83.2195	554.443	82.6282	554.443	83.6685	554.443	83.235	554.443	83.6513
574.219	88.9938	574.219	88.7393	574.219	89.0444	574.219	88.2894	574.219	88.8964	574.219	87.6804	574.219	88.5653	574.219	87.0002	574.219	88.0833	574.219	86.4019	574.219	87.5131	574.219	86.05	574.219	86.9572	574.219	85.9782	574.219	86.5307	574.219	86.014	574.219	86.2772	574.219	85.8872	574.219	86.0963	574.219	85.3642	574.219	85.7812	574.219	84.3026	574.219	85.1194	574.219	82.7229	574.219	83.9718	574.219	81.0917	574.219	82.3792	574.219	80.5423	574.219	80.8572	574.219	81.3996	574.219	80.4856	574.219	82.5417	574.219	81.4083	574.219	83.209	574.219	82.5432	574.219	83.2069
594.727	89.0234	594.727	88.777	594.727	89.0532	594.727	88.3205	594.727	88.8657	594.727	87.6743	594.727	88.467	594.727	86.8906	594.727	87.8778	594.727	86.0768	594.727	87.1521	594.727	85.3972	594.727	86.3985	594.727	84.9904	594.727	85.7731	594.727	84.8258	594.727	85.3924	594.727	84.6856	594.727	85.2102	594.727	84.3077	594.727	85.0225	594.727	83.5205	594.727	84.5991	594.727	82.3493	594.727	83.798	594.727	81.2152	594.727	82.6585	594.727	80.9256	594.727	81.5679	594.727	81.6474	594.727	81.2347	594.727	82.6033	594.727	81.8299	594.727	83.1889	594.727	82.6829	594.727	83.2099
615.234	89.0213	615.234	88.7798	615.234	89.0628	615.234	88.3329	615.234	88.9078	615.234	87.6842	615.234	88.5582	615.234	86.8711	615.234	88.0227	615.234	86.0052	615.234	87.3374	615.234	85.2907	615.234	86.5962	615.234	84.9191	615.234	85.963	615.234	84.8538	615.234	85.5928	615.234	84.8087	615.234	85.4677	615.234	84.4547	615.234	85.3607	615.234	83.5536	615.234	84.9962	615.234	82.0022	615.234	84.1985	615.234	80.0636	615.234	82.9847	615.234	78.9794	615.234	81.7186	615.234	79.8146	615.234	81.1259	615.234	81.2825	615.234	81.4824	615.234	82.2545	615.234	82.1576	615.234	82.5141
637.207	90.0308	637.207	89.8278	637.207	90.0109	637.207	89.3869	637.207	89.775	637.207	88.694	637.207	89.3227	637.207	87.7562	637.207	88.6562	637.207	86.6504	637.207	87.8083	637.207	85.5984	637.207	86.8947	637.207	84.9546	637.207	86.1568	637.207	84.8841	637.207	85.8531	637.207	85.0805	637.207	85.9586	637.207	85.0605	637.207	86.1138	637.207	84.4893	637.207	85.9184	637.207	83.243	637.207	85.1082	637.207	81.5727	637.207	83.5997	637.207	80.5783	637.207	81.7373	637.207	81.2792	637.207	80.8129	637.207	82.6446	637.207	81.6504	637.207	83.5453	637.207	82.9369	637.207	83.65
659.912	90.2991	659.912	90.1407	659.912	90.2984	659.912	89.8127	659.912	90.1433	659.912	89.3013	659.912	89.8324	659.912	88.5983	659.912	89.3598	659.912	87.7253	659.912	88.7254	659.912	86.7698	659.912	87.9573	659.912	85.8957	659.912	87.14	659.912	85.2412	659.912	86.4068	659.912	84.7375	659.912	85.845	659.912	84.0967	659.912	85.3697	659.912	82.9865	659.912	84.7334	659.912	81.1994	659.912	83.6684	659.912	79.0532	659.912	82.0702	659.912	78.3771	659.912	80.4198	659.912	80.0881	659.912	80.1574	659.912	82.0541	659.912	81.4777	659.912	83.2278	659.912	82.8442	659.912	83.4814
683.35	91.1757	683.35	91.0547	683.35	91.1339	683.35	90.7519	683.35	90.9345	683.35	90.24	683.35	90.5648	683.35	89.4955	683.35	89.9973	683.35	88.5208	683.35	89.2062	683.35	87.3937	683.35	88.2117	683.35	86.3373	683.35	87.1692	683.35	85.6745	683.35	86.4267	683.35	85.4838	683.35	86.2584	683.35	85.3804	683.35	86.4216	683.35	84.8322	683.35	86.3543	683.35	83.4306	683.35	85.5995	683.35	81.0041	683.35	83.8571	683.35	78.6105	683.35	81.0873	683.35	79.4287	683.35	78.9174	683.35	81.8236	683.35	80.2944	683.35	83.3092	683.35	82.4783	683.35	83.5353
706.787	91.3571	706.787	91.1882	706.787	91.3537	706.787	90.8484	706.787	91.1731	706.787	90.3317	706.787	90.809	706.787	89.6257	706.787	90.251	706.787	88.7325	706.787	89.4872	706.787	87.7193	706.787	88.5234	706.787	86.7733	706.787	87.4363	706.787	86.1334	706.787	86.4348	706.787	85.8155	706.787	85.792	706.787	85.5018	706.787	85.5403	706.787	84.7957	706.787	85.3356	706.787	83.4318	706.787	84.7401	706.787	81.4026	706.787	83.4534	706.787	79.4986	706.787	81.4685	706.787	79.5329	706.787	79.7286	706.787	81.0541	706.787	80.0527	706.787	82.2265	706.787	81.5274	706.787	82.4052
731.689	90.9255	731.689	90.7877	731.689	90.9115	731.689	90.4932	731.689	90.7533	731.689	90.0367	731.689	90.4538	731.689	89.4074	731.689	89.9996	731.689	88.594	731.689	89.3558	731.689	87.6139	731.689	88.4886	731.689	86.5758	731.689	87.4244	731.689	85.7142	731.689	86.3287	731.689	85.2208	731.689	85.4888	731.689	84.9392	731.689	85.0291	731.689	84.4365	731.689	84.6671	731.689	83.3484	731.689	83.9428	731.689	81.6239	731.689	82.5122	731.689	79.9694	731.689	80.3685	731.689	79.8763	731.689	78.6729	731.689	81.0644	731.689	79.3803	731.689	82.0106	731.689	81.0816	731.689	82.0622
758.057	91.3556	758.057	91.1386	758.057	91.3866	758.057	90.7244	758.057	91.2349	758.057	90.0893	758.057	90.8978	758.057	89.1963	758.057	90.3614	758.057	88.016	758.057	89.5936	758.057	86.6056	758.057	88.5567	758.057	85.2708	758.057	87.2707	758.057	84.5512	758.057	85.9476	758.057	84.5338	758.057	85.0374	758.057	84.5746	758.057	84.7628	758.057	84.0543	758.057	84.6712	758.057	82.7022	758.057	84.1208	758.057	80.7151	758.057	82.7167	758.057	79.4674	758.057	80.4603	758.057	80.3385	758.057	78.5898	758.057	81.7982	758.057	79.2893	758.057	82.5462	758.057	81.1251	758.057	82.3224
784.424	90.8669	784.424	90.7293	784.424	90.8573	784.424	90.4372	784.424	90.714	784.424	89.9825	784.424	90.4516	784.424	89.3436	784.424	90.0707	784.424	88.475	784.424	89.5431	784.424	87.3199	784.424	88.8115	784.424	85.8753	784.424	87.818	784.424	84.3566	784.424	86.5741	784.424	83.299	784.424	85.2589	784.424	82.9394	784.424	84.1743	784.424	82.589	784.424	83.3195	784.424	81.387	784.424	82.136	784.424	79.08	784.424	79.8662	784.424	77.8455	784.424	76.2279	784.424	80.2556	784.424	75.7084	784.424	82.7613	784.424	79.6892	784.424	83.961	784.424	82.5307	784.424	83.8822
812.256	90.8952	812.256	90.6893	812.256	90.9261	812.256	90.2922	812.256	90.7964	812.256	89.68	812.256	90.5222	812.256	88.8131	812.256	90.112	812.256	87.6323	812.256	89.5459	812.256	86.086	812.256	88.7628	812.256	84.2724	812.256	87.6906	812.256	82.7583	812.256	86.3465	812.256	82.3299	812.256	85.0022	812.256	82.5896	812.256	84.1436	812.256	82.4594	812.256	83.7985	812.256	81.3885	812.256	83.2729	812.256	79.5199	812.256	81.8438	812.256	78.5187	812.256	79.1933	812.256	79.9942	812.256	76.8994	812.256	81.9053	812.256	78.6387	812.256	82.8818	812.256	81.2679	812.256	82.6975
840.82	89.9598	840.82	89.873	840.82	89.8888	840.82	89.6469	840.82	89.6739	840.82	89.3078	840.82	89.3581	840.82	88.8533	840.82	88.9772	840.82	88.23	840.82	88.5065	840.82	87.3414	840.82	87.8446	840.82	86.0997	840.82	86.8655	840.82	84.5444	840.82	85.513	840.82	83.0226	840.82	83.9196	840.82	82.0405	840.82	82.4858	840.82	81.4248	840.82	81.5527	840.82	80.2849	840.82	80.7593	840.82	77.8236	840.82	79.2567	840.82	74.5063	840.82	76.4179	840.82	75.5521	840.82	74.3206	840.82	78.936	840.82	77.2625	840.82	80.8927	840.82	80.1438	840.82	81.3009
870.85	90.4386	870.85	90.2938	870.85	90.5046	870.85	90.0765	870.85	90.4826	870.85	89.788	870.85	90.3664	870.85	89.4117	870.85	90.1633	870.85	88.9008	870.85	89.8918	870.85	88.2039	870.85	89.5563	870.85	87.3465	870.85	89.1292	870.85	86.5071	870.85	88.5777	870.85	85.8983	870.85	87.917	870.85	85.4259	870.85	87.2116	870.85	84.6451	870.85	86.4576	870.85	83.0441	870.85	85.4387	870.85	80.0607	870.85	83.7187	870.85	74.4655	870.85	80.6197	870.85	57.5892	870.85	74.5926	870.85	69.9118	870.85	54.4902	870.85	74.5681	870.85	71.473	870.85	75.0105
901.611	89.0072	901.611	88.5681	901.611	89.0444	901.611	87.8201	901.611	88.6475	901.611	86.9021	901.611	87.8545	901.611	85.9249	901.611	86.7862	901.611	84.8186	901.611	85.6318	901.611	83.25	901.611	84.5368	901.611	80.7593	901.611	83.4501	901.611	77.8608	901.611	82.2724	901.611	78.9448	901.611	81.4376	901.611	82.293	901.611	81.8486	901.611	84.3405	901.611	83.0953	901.611	84.9139	901.611	83.944	901.611	84.2876	901.611	83.786	901.611	82.9595	901.611	82.5014	901.611	81.8747	901.611	80.501	901.611	81.6676	901.611	79.4172	901.611	81.7369	901.611	80.2416	901.611	81.3197
933.105	91.3719	933.105	91.0807	933.105	91.4874	933.105	90.6335	933.105	91.4201	933.105	90.072	933.105	91.1659	933.105	89.4366	933.105	90.725	933.105	88.7088	933.105	90.097	933.105	87.7622	933.105	89.248	933.105	86.374	933.105	88.0708	933.105	84.325	933.105	86.3784	933.105	81.6479	933.105	83.9717	933.105	79.0536	933.105	80.9919	933.105	77.2207	933.105	78.9476	933.105	74.7726	933.105	78.9235	933.105	70.3394	933.105	78.7989	933.105	74.7487	933.105	77.8525	933.105	80.5363	933.105	78.1915	933.105	83.5728	933.105	80.6664	933.105	84.731	933.105	83.0505	933.105	84.4725
966.064	89.3113	966.064	88.8839	966.064	89.4272	966.064	88.2134	966.064	89.2042	966.064	87.4208	966.064	88.6722	966.064	86.6716	966.064	87.9509	966.064	86.0571	966.064	87.2404	966.064	85.4346	966.064	86.6704	966.064	84.4994	966.064	86.1171	966.064	83.1026	966.064	85.3207	966.064	81.7376	966.064	84.2638	966.064	81.5002	966.064	83.4537	966.064	82.0577	966.064	83.3138	966.064	81.9444	966.064	83.12	966.064	80.2426	966.064	81.7396	966.064	76.3633	966.064	78.0914	966.064	73.1416	966.064	69.1804	966.064	76.5113	966.064	68.8956	966.064	78.7513	966.064	76.2606	966.064	78.7034
999.756	91.5299	999.756	91.1445	999.756	91.6319	999.756	90.5186	999.756	91.4564	999.756	89.7386	999.756	91.04	999.756	88.8878	999.756	90.4291	999.756	87.965	999.756	89.669	999.756	86.8232	999.756	88.7758	999.756	85.1619	999.756	87.6457	999.756	82.5514	999.756	85.95	999.756	78.6774	999.756	83.1641	999.756	75.9542	999.756	79.4152	999.756	77.6709	999.756	79.1428	999.756	78.703	999.756	81.5172	999.756	77.7719	999.756	82.1451	999.756	76.931	999.756	80.5694	999.756	78.8044	999.756	76.7171	999.756	80.8832	999.756	74.2522	999.756	81.651	999.756	78.1432	999.756	80.8587
1,034.91	89.944	1,034.91	89.5742	1,034.91	89.9249	1,034.91	88.8076	1,034.91	89.5447	1,034.91	87.7293	1,034.91	88.843	1,034.91	86.6133	1,034.91	87.9197	1,034.91	85.8574	1,034.91	86.9903	1,034.91	85.5483	1,034.91	86.3004	1,034.91	85.206	1,034.91	85.8375	1,034.91	84.2115	1,034.91	85.2286	1,034.91	82.3753	1,034.91	84.0316	1,034.91	80.7229	1,034.91	82.1468	1,034.91	80.6179	1,034.91	80.4862	1,034.91	80.5413	1,034.91	80.2406	1,034.91	78.7391	1,034.91	80.0368	1,034.91	74.4152	1,034.91	77.8382	1,034.91	73.209	1,034.91	70.5689	1,034.91	78.2371	1,034.91	70.9853	1,034.91	80.9583	1,034.91	78.7631	1,034.91	81.2424
1,071.53	90.229	1,071.53	89.9205	1,071.53	90.3001	1,071.53	89.3737	1,071.53	90.0932	1,071.53	88.5532	1,071.53	89.5471	1,071.53	87.4438	1,071.53	88.6352	1,071.53	86.1536	1,071.53	87.4649	1,071.53	84.9306	1,071.53	86.3474	1,071.53	83.8505	1,071.53	85.5614	1,071.53	82.5429	1,071.53	84.9358	1,071.53	80.6252	1,071.53	84.0711	1,071.53	78.8217	1,071.53	82.9736	1,071.53	78.8622	1,071.53	82.3248	1,071.53	79.4249	1,071.53	82.5213	1,071.53	78.6206	1,071.53	82.7532	1,071.53	75.674	1,071.53	82.0252	1,071.53	68.9204	1,071.53	79.4696	1,071.53	59.451	1,071.53	73.3954	1,071.53	68.5619	1,071.53	44.3688	1,071.53	68.262
1,109.62	90.1002	1,109.62	89.6097	1,109.62	90.2179	1,109.62	88.747	1,109.62	89.9653	1,109.62	87.5537	1,109.62	89.3304	1,109.62	86.1606	1,109.62	88.3009	1,109.62	84.8412	1,109.62	86.933	1,109.62	83.9091	1,109.62	85.4784	1,109.62	83.2428	1,109.62	84.3427	1,109.62	82.2079	1,109.62	83.5911	1,109.62	80.4125	1,109.62	82.7874	1,109.62	78.6145	1,109.62	81.6771	1,109.62	78.4422	1,109.62	81.0005	1,109.62	78.7243	1,109.62	81.5389	1,109.62	76.9764	1,109.62	81.8884	1,109.62	69.2388	1,109.62	80.5195	1,109.62	68.914	1,109.62	76.2022	1,109.62	77.7338	1,109.62	67.0441	1,109.62	79.8907	1,109.62	74.287	1,109.62	78.8454
1,148.44	89.458	1,148.44	88.9881	1,148.44	89.6838	1,148.44	88.3569	1,148.44	89.6169	1,148.44	87.6402	1,148.44	89.2536	1,148.44	86.8946	1,148.44	88.5985	1,148.44	86.1893	1,148.44	87.677	1,148.44	85.5943	1,148.44	86.6913	1,148.44	85.0234	1,148.44	86.0509	1,148.44	84.1331	1,148.44	85.8253	1,148.44	82.4957	1,148.44	85.4644	1,148.44	79.8298	1,148.44	84.4722	1,148.44	76.5797	1,148.44	83.0314	1,148.44	74.9318	1,148.44	82.0448	1,148.44	74.2344	1,148.44	81.4233	1,148.44	70.9296	1,148.44	79.676	1,148.44	69.1995	1,148.44	75.2071	1,148.44	75.2643	1,148.44	64.3093	1,148.44	77.7544	1,148.44	72.0626	1,148.44	76.9187
1,189.45	90.6268	1,189.45	90.2346	1,189.45	90.7132	1,189.45	89.5723	1,189.45	90.4751	1,189.45	88.6593	1,189.45	89.918	1,189.45	87.4865	1,189.45	89.073	1,189.45	86.1115	1,189.45	88.0359	1,189.45	84.8015	1,189.45	87.0212	1,189.45	83.7873	1,189.45	86.2599	1,189.45	82.6575	1,189.45	85.6999	1,189.45	80.5854	1,189.45	84.9212	1,189.45	77.3787	1,189.45	83.4439	1,189.45	75.8648	1,189.45	81.2984	1,189.45	77.0551	1,189.45	79.9319	1,189.45	76.6846	1,189.45	80.1442	1,189.45	72.9108	1,189.45	79.6676	1,189.45	66.5245	1,189.45	76.5859	1,189.45	71.2999	1,189.45	70.4595	1,189.45	74.5499	1,189.45	72.3792	1,189.45	74.9819
1,231.2	90.6051	1,231.2	90.2249	1,231.2	90.767	1,231.2	89.5868	1,231.2	90.712	1,231.2	88.6524	1,231.2	90.3932	1,231.2	87.4005	1,231.2	89.7359	1,231.2	85.8793	1,231.2	88.6673	1,231.2	84.4025	1,231.2	87.2111	1,231.2	83.4492	1,231.2	85.6612	1,231.2	82.7952	1,231.2	84.5296	1,231.2	81.6357	1,231.2	83.77	1,231.2	79.846	1,231.2	82.5847	1,231.2	79.0555	1,231.2	80.8165	1,231.2	79.7095	1,231.2	80.2641	1,231.2	79.1353	1,231.2	81.2268	1,231.2	75.1782	1,231.2	81.0277	1,231.2	63.5736	1,231.2	77.7096	1,231.2	73.3657	1,231.2	66.5885	1,231.2	77.5398	1,231.2	73.2752	1,231.2	77.6766
1,274.41	91.1641	1,274.41	90.9623	1,274.41	91.0752	1,274.41	90.4935	1,274.41	90.6916	1,274.41	89.7707	1,274.41	90.0505	1,274.41	88.7515	1,274.41	89.2083	1,274.41	87.3192	1,274.41	88.1422	1,274.41	85.4629	1,274.41	86.7051	1,274.41	83.7517	1,274.41	84.8928	1,274.41	82.9074	1,274.41	83.3133	1,274.41	82.0544	1,274.41	82.5408	1,274.41	79.9613	1,274.41	81.8412	1,274.41	77.616	1,274.41	80.3978	1,274.41	78.4316	1,274.41	79.2994	1,274.41	79.4222	1,274.41	80.4846	1,274.41	77.734	1,274.41	81.1838	1,274.41	72.1486	1,274.41	79.4821	1,274.41	73.1166	1,274.41	75.4966	1,274.41	77.2587	1,274.41	74.8004	1,274.41	77.3531
1,319.82	90.6751	1,319.82	90.3156	1,319.82	90.7093	1,319.82	89.7244	1,319.82	90.3862	1,319.82	88.9761	1,319.82	89.7664	1,319.82	88.0537	1,319.82	88.9228	1,319.82	86.8679	1,319.82	87.8059	1,319.82	85.4136	1,319.82	86.351	1,319.82	83.9966	1,319.82	84.8508	1,319.82	83.012	1,319.82	83.8985	1,319.82	82.0242	1,319.82	83.4817	1,319.82	80.0597	1,319.82	82.7447	1,319.82	77.2909	1,319.82	81.0753	1,319.82	76.9029	1,319.82	79.297	1,319.82	77.7667	1,319.82	78.9965	1,319.82	76.4251	1,319.82	78.3204	1,319.82	73.318	1,319.82	74.7831	1,319.82	75.2844	1,319.82	68.4173	1,319.82	77.5751	1,319.82	73.0836	1,319.82	76.9068
1,365.97	89.9728	1,365.97	89.6398	1,365.97	89.9833	1,365.97	89.0308	1,365.97	89.6559	1,365.97	88.2106	1,365.97	88.9895	1,365.97	87.1942	1,365.97	88.0092	1,365.97	85.9053	1,365.97	86.7556	1,365.97	84.3046	1,365.97	85.2168	1,365.97	82.7379	1,365.97	83.3895	1,365.97	81.8524	1,365.97	81.6776	1,365.97	81.3394	1,365.97	80.8664	1,365.97	80.1778	1,365.97	80.3196	1,365.97	78.501	1,365.97	78.265	1,365.97	78.1078	1,365.97	75.0845	1,365.97	78.0088	1,365.97	76.4647	1,365.97	75.6885	1,365.97	77.8593	1,365.97	68.7116	1,365.97	76.1357	1,365.97	70.5585	1,365.97	71.0761	1,365.97	76.5644	1,365.97	73.5359	1,365.97	77.3177
1,414.31	89.4182	1,414.31	89.0458	1,414.31	89.426	1,414.31	88.2971	1,414.31	89.162	1,414.31	87.3561	1,414.31	88.6467	1,414.31	86.4231	1,414.31	87.8053	1,414.31	85.3914	1,414.31	86.5773	1,414.31	83.9532	1,414.31	85.0757	1,414.31	82.1232	1,414.31	83.5454	1,414.31	80.5377	1,414.31	82.0741	1,414.31	79.6476	1,414.31	80.8159	1,414.31	78.6041	1,414.31	80.0204	1,414.31	76.8272	1,414.31	78.828	1,414.31	76.6651	1,414.31	76.8152	1,414.31	77.0103	1,414.31	76.4994	1,414.31	74.3047	1,414.31	77.7525	1,414.31	67.8382	1,414.31	77.0059	1,414.31	70.2197	1,414.31	73.1908	1,414.31	74.115	1,414.31	72.7381	1,414.31	74.9894
1,464.11	89.6448	1,464.11	89.0815	1,464.11	89.8705	1,464.11	88.2361	1,464.11	89.6893	1,464.11	87.1761	1,464.11	89.0641	1,464.11	85.978	1,464.11	88.0511	1,464.11	84.6061	1,464.11	86.8003	1,464.11	82.8739	1,464.11	85.4584	1,464.11	80.7219	1,464.11	84.0294	1,464.11	79.0033	1,464.11	82.4942	1,464.11	78.8455	1,464.11	81.1712	1,464.11	78.3036	1,464.11	80.1763	1,464.11	75.9513	1,464.11	78.6245	1,464.11	74.9023	1,464.11	75.8197	1,464.11	75.9287	1,464.11	74.4107	1,464.11	74.7928	1,464.11	76.0588	1,464.11	69.9188	1,464.11	75.8679	1,464.11	72.4099	1,464.11	72.3452	1,464.11	77.2632	1,464.11	73.3465	1,464.11	77.3846
1,515.38	90.0325	1,515.38	89.6934	1,515.38	89.9992	1,515.38	89.015	1,515.38	89.5826	1,515.38	88.0394	1,515.38	88.9346	1,515.38	86.9033	1,515.38	88.1799	1,515.38	85.6975	1,515.38	87.1235	1,515.38	84.315	1,515.38	85.6282	1,515.38	82.5999	1,515.38	84.056	1,515.38	80.7159	1,515.38	82.6992	1,515.38	79.4596	1,515.38	81.3995	1,515.38	78.5453	1,515.38	80.3174	1,515.38	76.5431	1,515.38	78.985	1,515.38	74.832	1,515.38	76.5574	1,515.38	75.87	1,515.38	75.9758	1,515.38	75.719	1,515.38	76.7734	1,515.38	72.4776	1,515.38	74.3383	1,515.38	69.4133	1,515.38	68.8117	1,515.38	73.2919	1,515.38	71.7547	1,515.38	74.5272
1,568.85	89.7854	1,568.85	89.1948	1,568.85	89.8089	1,568.85	88.3079	1,568.85	89.2506	1,568.85	87.4062	1,568.85	88.3068	1,568.85	86.508	1,568.85	87.2033	1,568.85	85.4469	1,568.85	86.0949	1,568.85	84.1724	1,568.85	84.9645	1,568.85	82.6904	1,568.85	83.6639	1,568.85	80.8924	1,568.85	82.0728	1,568.85	79.2822	1,568.85	80.5379	1,568.85	78.6027	1,568.85	79.9728	1,568.85	77.4257	1,568.85	79.2014	1,568.85	76.1096	1,568.85	76.5918	1,568.85	77.1509	1,568.85	74.0953	1,568.85	76.2681	1,568.85	75.2989	1,568.85	71.6504	1,568.85	74.0996	1,568.85	71.0208	1,568.85	70.0897	1,568.85	75.4105	1,568.85	74.098	1,568.85	76.5095
1,624.51	89.1153	1,624.51	88.74	1,624.51	89.0512	1,624.51	87.8634	1,624.51	88.6891	1,624.51	86.7565	1,624.51	88.0208	1,624.51	85.8567	1,624.51	86.9318	1,624.51	84.9856	1,624.51	85.4021	1,624.51	83.5883	1,624.51	83.5882	1,624.51	81.8766	1,624.51	81.9252	1,624.51	80.5152	1,624.51	80.6809	1,624.51	79.5874	1,624.51	79.0714	1,624.51	79.0501	1,624.51	76.8776	1,624.51	78.1715	1,624.51	76.1533	1,624.51	76.3838	1,624.51	75.7271	1,624.51	75.7578	1,624.51	73.627	1,624.51	75.6907	1,624.51	73.4024	1,624.51	72.4984	1,624.51	73.0105	1,624.51	70.7585	1,624.51	67.7027	1,624.51	74.8431	1,624.51	72.5857	1,624.51	75.625
1,681.64	89.2698	1,681.64	88.8428	1,681.64	89.0919	1,681.64	87.7394	1,681.64	88.6286	1,681.64	86.3848	1,681.64	87.9141	1,681.64	85.1151	1,681.64	86.8066	1,681.64	83.693	1,681.64	85.4099	1,681.64	81.8548	1,681.64	83.955	1,681.64	80.0061	1,681.64	82.4799	1,681.64	79.0871	1,681.64	80.954	1,681.64	79.0517	1,681.64	79.4377	1,681.64	78.4635	1,681.64	77.9758	1,681.64	76.2207	1,681.64	76.6251	1,681.64	74.5035	1,681.64	73.6554	1,681.64	74.6281	1,681.64	71.7098	1,681.64	72.499	1,681.64	73.2487	1,681.64	66.4437	1,681.64	72.0919	1,681.64	72.0039	1,681.64	63.1669	1,681.64	76.4383	1,681.64	69.9428	1,681.64	75.9111
1,740.97	89.701	1,740.97	88.9365	1,740.97	89.9125	1,740.97	87.9923	1,740.97	89.4166	1,740.97	86.9823	1,740.97	88.3907	1,740.97	85.5406	1,740.97	87.078	1,740.97	83.7149	1,740.97	85.6231	1,740.97	82.4539	1,740.97	84.1633	1,740.97	81.5686	1,740.97	82.5769	1,740.97	79.7796	1,740.97	81.1137	1,740.97	77.984	1,740.97	80.0579	1,740.97	77.8305	1,740.97	78.4366	1,740.97	76.6126	1,740.97	77.2078	1,740.97	74.404	1,740.97	75.8533	1,740.97	76.7247	1,740.97	72.3161	1,740.97	76.656	1,740.97	73.8728	1,740.97	69.328	1,740.97	76.2874	1,740.97	70.5669	1,740.97	74.0276	1,740.97	74.6844	1,740.97	70.1018	1,740.97	73.9137
1,802.49	90.227	1,802.49	89.6143	1,802.49	90.1913	1,802.49	88.6429	1,802.49	89.6269	1,802.49	87.6004	1,802.49	88.7004	1,802.49	86.2124	1,802.49	87.3979	1,802.49	84.1951	1,802.49	85.9281	1,802.49	82.4636	1,802.49	84.6659	1,802.49	82.0424	1,802.49	83.3451	1,802.49	81.2643	1,802.49	81.5137	1,802.49	78.4294	1,802.49	80.2338	1,802.49	75.7807	1,802.49	80.253	1,802.49	73.4239	1,802.49	79.5393	1,802.49	70.4259	1,802.49	77.2605	1,802.49	76.4906	1,802.49	73.6776	1,802.49	78.135	1,802.49	74.5386	1,802.49	72.1109	1,802.49	75.7737	1,802.49	72.6369	1,802.49	72.1004	1,802.49	77.897	1,802.49	67.3151	1,802.49	75.466
1,866.21	89.5914	1,866.21	89.1806	1,866.21	89.6201	1,866.21	88.4561	1,866.21	89.3034	1,866.21	87.5594	1,866.21	88.5407	1,866.21	86.4079	1,866.21	87.2447	1,866.21	84.8735	1,866.21	85.8193	1,866.21	83.4198	1,866.21	84.6639	1,866.21	82.4804	1,866.21	83.0935	1,866.21	81.4689	1,866.21	80.6864	1,866.21	79.5243	1,866.21	78.4196	1,866.21	77.0711	1,866.21	77.0911	1,866.21	75.7809	1,866.21	76.7789	1,866.21	72.3021	1,866.21	75.5916	1,866.21	71.7135	1,866.21	71.2608	1,866.21	74.3458	1,866.21	73.1821	1,866.21	72.0351	1,866.21	75.4146	1,866.21	71.3268	1,866.21	73.007	1,866.21	72.517	1,866.21	69.4853	1,866.21	72.1554
1,932.13	88.898	1,932.13	88.4431	1,932.13	88.7646	1,932.13	87.6576	1,932.13	88.1919	1,932.13	86.8044	1,932.13	87.5687	1,932.13	85.796	1,932.13	86.8629	1,932.13	84.4799	1,932.13	85.6728	1,932.13	82.7544	1,932.13	83.9137	1,932.13	80.8347	1,932.13	81.9659	1,932.13	79.646	1,932.13	80.4736	1,932.13	78.9982	1,932.13	79.3433	1,932.13	77.8578	1,932.13	77.6853	1,932.13	77.5471	1,932.13	75.6667	1,932.13	74.222	1,932.13	74.7824	1,932.13	69.1762	1,932.13	72.6471	1,932.13	72.8223	1,932.13	70.0437	1,932.13	69.9542	1,932.13	74.466	1,932.13	70.9463	1,932.13	74.4206	1,932.13	76.7725	1,932.13	70.6095	1,932.13	75.8303
2,000.24	89.7791	2,000.24	89.5543	2,000.24	89.477	2,000.24	88.4748	2,000.24	89.3294	2,000.24	87.1523	2,000.24	89.04	2,000.24	86.1055	2,000.24	88.0263	2,000.24	84.8366	2,000.24	86.6714	2,000.24	82.6953	2,000.24	85.5396	2,000.24	80.0683	2,000.24	83.9327	2,000.24	78.8998	2,000.24	81.0519	2,000.24	78.0654	2,000.24	78.2688	2,000.24	76.6135	2,000.24	77.4827	2,000.24	76.1998	2,000.24	76.2407	2,000.24	72.2108	2,000.24	76.6426	2,000.24	64.8096	2,000.24	75.0857	2,000.24	69.6815	2,000.24	71.7022	2,000.24	68.2941	2,000.24	74.6611	2,000.24	68.9758	2,000.24	74.9217	2,000.24	75.7452	2,000.24	69.6369	2,000.24	74.8385
2,070.56	90.2759	2,070.56	90.0225	2,070.56	90.0978	2,070.56	89.1782	2,070.56	89.9398	2,070.56	87.875	2,070.56	89.6994	2,070.56	86.5702	2,070.56	88.8425	2,070.56	85.3843	2,070.56	87.3437	2,070.56	83.4765	2,070.56	85.6314	2,070.56	80.9461	2,070.56	83.7431	2,070.56	80.1146	2,070.56	80.9819	2,070.56	80.3382	2,070.56	79.2455	2,070.56	78.0271	2,070.56	78.9779	2,070.56	75.599	2,070.56	76.9304	2,070.56	71.9486	2,070.56	75.8902	2,070.56	67.2793	2,070.56	74.7433	2,070.56	75.7384	2,070.56	73.79	2,070.56	75.9954	2,070.56	77.982	2,070.56	70.6632	2,070.56	77.4133	2,070.56	75.1487	2,070.56	75.012	2,070.56	76.297
2,143.8	89.4488	2,143.8	88.8763	2,143.8	89.4749	2,143.8	88.3826	2,143.8	88.7596	2,143.8	87.5595	2,143.8	88.2612	2,143.8	86.3277	2,143.8	87.8274	2,143.8	85.3337	2,143.8	86.4185	2,143.8	84.4035	2,143.8	84.2345	2,143.8	82.9664	2,143.8	82.5891	2,143.8	81.11	2,143.8	81.2704	2,143.8	79.5402	2,143.8	79.4655	2,143.8	78.5698	2,143.8	77.8205	2,143.8	77.2035	2,143.8	75.4681	2,143.8	75.3699	2,143.8	75.5076	2,143.8	71.208	2,143.8	75.7644	2,143.8	73.204	2,143.8	71.1693	2,143.8	74.3747	2,143.8	72.6038	2,143.8	69.4056	2,143.8	70.6459	2,143.8	77.2885	2,143.8	74.0207	2,143.8	78.4672
2,219.24	88.4811	2,219.24	88.0932	2,219.24	88.4077	2,219.24	87.2507	2,219.24	88.5293	2,219.24	86.7704	2,219.24	88.2916	2,219.24	85.9454	2,219.24	87.0861	2,219.24	84.4352	2,219.24	85.886	2,219.24	83.1287	2,219.24	84.8593	2,219.24	82.038	2,219.24	82.2999	2,219.24	80.3092	2,219.24	78.6607	2,219.24	78.1228	2,219.24	77.5348	2,219.24	76.479	2,219.24	77.4464	2,219.24	74.9497	2,219.24	75.0393	2,219.24	73.8088	2,219.24	71.7063	2,219.24	70.8263	2,219.24	73.3904	2,219.24	75.3098	2,219.24	73.6373	2,219.24	76.3932	2,219.24	75.18	2,219.24	72.8663	2,219.24	74.7532	2,219.24	74.9416	2,219.24	72.0004	2,219.24	75.4292
2,297.61	89.59	2,297.61	89.4317	2,297.61	89.48	2,297.61	88.7618	2,297.61	89.564	2,297.61	87.8398	2,297.61	89.3562	2,297.61	86.8484	2,297.61	88.1594	2,297.61	85.3137	2,297.61	86.8167	2,297.61	83.1839	2,297.61	85.8528	2,297.61	81.3761	2,297.61	84.1899	2,297.61	79.7986	2,297.61	81.7105	2,297.61	78.306	2,297.61	80.6866	2,297.61	76.4354	2,297.61	80.3932	2,297.61	72.6863	2,297.61	78.2528	2,297.61	74.4218	2,297.61	75.6201	2,297.61	71.4287	2,297.61	74.2119	2,297.61	73.2588	2,297.61	71.726	2,297.61	73.3436	2,297.61	70.8531	2,297.61	65.3661	2,297.61	73.5142	2,297.61	72.6223	2,297.61	71.3027	2,297.61	73.4416
2,378.17	89.3878	2,378.17	89.5024	2,378.17	89.4352	2,378.17	89.1624	2,378.17	89.7012	2,378.17	88.4122	2,378.17	89.2773	2,378.17	87.6151	2,378.17	87.7949	2,378.17	86.313	2,378.17	86.4774	2,378.17	84.5068	2,378.17	85.8448	2,378.17	82.904	2,378.17	84.1501	2,378.17	80.4352	2,378.17	81.7634	2,378.17	78.3873	2,378.17	80.873	2,378.17	75.886	2,378.17	79.3825	2,378.17	73.2278	2,378.17	77.5332	2,378.17	74.4743	2,378.17	74.4661	2,378.17	69.5219	2,378.17	72.9135	2,378.17	71.5729	2,378.17	72.6048	2,378.17	73.3497	2,378.17	72.7508	2,378.17	68.0173	2,378.17	73.268	2,378.17	74.5757	2,378.17	71.4618	2,378.17	75.8868
2,462.4	88.9341	2,462.4	88.7459	2,462.4	88.9344	2,462.4	88.4405	2,462.4	88.672	2,462.4	87.8465	2,462.4	88.1317	2,462.4	86.915	2,462.4	87.2813	2,462.4	85.7239	2,462.4	86.0582	2,462.4	84.1165	2,462.4	84.6387	2,462.4	82.3778	2,462.4	83.1274	2,462.4	80.5987	2,462.4	81.0332	2,462.4	78.2278	2,462.4	78.5484	2,462.4	77.5654	2,462.4	76.5973	2,462.4	75.6861	2,462.4	74.7177	2,462.4	74.7321	2,462.4	74.3354	2,462.4	73.0763	2,462.4	73.0441	2,462.4	71.7948	2,462.4	71.1976	2,462.4	74.5294	2,462.4	71.4387	2,462.4	69.5676	2,462.4	73.2804	2,462.4	73.2366	2,462.4	70.2246	2,462.4	75.0366
2,548.83	88.7119	2,548.83	88.5422	2,548.83	88.7758	2,548.83	88.0724	2,548.83	88.7963	2,548.83	87.4506	2,548.83	88.6621	2,548.83	86.3112	2,548.83	88.2081	2,548.83	84.8014	2,548.83	87.129	2,548.83	83.3679	2,548.83	85.5844	2,548.83	81.3727	2,548.83	83.9385	2,548.83	79.7042	2,548.83	81.8633	2,548.83	78.1183	2,548.83	80.1669	2,548.83	76.5652	2,548.83	78.3265	2,548.83	74.9933	2,548.83	76.4533	2,548.83	73.9712	2,548.83	74.9861	2,548.83	73.8737	2,548.83	74.7388	2,548.83	72.6646	2,548.83	72.4238	2,548.83	73.925	2,548.83	72.2142	2,548.83	71.5197	2,548.83	73.9428	2,548.83	74.8953	2,548.83	70.7742	2,548.83	74.4698
2,638.92	88.6182	2,638.92	88.6225	2,638.92	88.6275	2,638.92	88.6545	2,638.92	88.809	2,638.92	88.3852	2,638.92	88.8693	2,638.92	87.4781	2,638.92	88.6607	2,638.92	85.8454	2,638.92	87.9841	2,638.92	84.1129	2,638.92	86.3817	2,638.92	82.1153	2,638.92	84.7211	2,638.92	79.7706	2,638.92	83.0131	2,638.92	77.9141	2,638.92	80.564	2,638.92	75.842	2,638.92	78.7219	2,638.92	75.267	2,638.92	76.9029	2,638.92	73.1427	2,638.92	75.0146	2,638.92	72.2179	2,638.92	74.4058	2,638.92	71.6041	2,638.92	74.161	2,638.92	74.5243	2,638.92	71.6098	2,638.92	68.8388	2,638.92	74.8217	2,638.92	74.6745	2,638.92	71.3921	2,638.92	75.9102
2,731.93	88.0533	2,731.93	88.2522	2,731.93	88.2851	2,731.93	88.6517	2,731.93	88.4887	2,731.93	88.697	2,731.93	88.4774	2,731.93	88.2456	2,731.93	88.4132	2,731.93	86.8193	2,731.93	88.0609	2,731.93	84.8264	2,731.93	86.6083	2,731.93	82.9677	2,731.93	84.4535	2,731.93	80.9102	2,731.93	82.3305	2,731.93	79.1668	2,731.93	80.4862	2,731.93	77.1406	2,731.93	78.3802	2,731.93	74.7854	2,731.93	76.7211	2,731.93	73.2534	2,731.93	75.1564	2,731.93	73.4198	2,731.93	73.4049	2,731.93	71.8005	2,731.93	73.2982	2,731.93	75.0703	2,731.93	71.7935	2,731.93	71.4773	2,731.93	74.314	2,731.93	75.4343	2,731.93	70.1063	2,731.93	75.5136
2,828.61	88.2254	2,828.61	88.4791	2,828.61	88.3615	2,828.61	88.7141	2,828.61	88.8211	2,828.61	88.6818	2,828.61	89.024	2,828.61	88.043	2,828.61	88.8471	2,828.61	86.8157	2,828.61	88.2523	2,828.61	84.6791	2,828.61	87.0763	2,828.61	82.6887	2,828.61	85.0226	2,828.61	80.3372	2,828.61	83.0756	2,828.61	78.2319	2,828.61	80.6866	2,828.61	76.5426	2,828.61	78.541	2,828.61	75.771	2,828.61	76.8929	2,828.61	73.6613	2,828.61	75.7083	2,828.61	73.2193	2,828.61	73.5408	2,828.61	68.1037	2,828.61	74.153	2,828.61	75.1218	2,828.61	69.778	2,828.61	70.1689	2,828.61	75.1094	2,828.61	73.9444	2,828.61	71.1066	2,828.61	75.2552
2,928.22	87.8195	2,928.22	88.3798	2,928.22	87.7725	2,928.22	88.9614	2,928.22	88.3449	2,928.22	88.7977	2,928.22	88.8577	2,928.22	88.1189	2,928.22	88.4908	2,928.22	86.9847	2,928.22	87.5131	2,928.22	84.7425	2,928.22	86.0468	2,928.22	82.4175	2,928.22	84.1131	2,928.22	80.5126	2,928.22	81.6002	2,928.22	78.2282	2,928.22	79.5421	2,928.22	76.3539	2,928.22	77.9945	2,928.22	74.5062	2,928.22	75.384	2,928.22	72.8411	2,928.22	75.1366	2,928.22	72.6879	2,928.22	72.518	2,928.22	71.3633	2,928.22	72.7317	2,928.22	73.1791	2,928.22	69.0575	2,928.22	72.501	2,928.22	73.2123	2,928.22	74.2254	2,928.22	68.7388	2,928.22	74.5178
3,031.49	88.0927	3,031.49	88.6843	3,031.49	88.1284	3,031.49	89.0291	3,031.49	88.5202	3,031.49	88.8328	3,031.49	88.7925	3,031.49	87.5292	3,031.49	88.679	3,031.49	85.9261	3,031.49	87.3885	3,031.49	83.9813	3,031.49	85.617	3,031.49	81.6633	3,031.49	83.5624	3,031.49	79.9594	3,031.49	81.1897	3,031.49	78.0064	3,031.49	78.8459	3,031.49	75.6525	3,031.49	76.5865	3,031.49	74.5918	3,031.49	74.9905	3,031.49	73.8979	3,031.49	73.9426	3,031.49	72.5869	3,031.49	71.7918	3,031.49	67.7834	3,031.49	72.706	3,031.49	71.4111	3,031.49	70.1594	3,031.49	69.1923	3,031.49	72.3215	3,031.49	72.7192	3,031.49	69.6057	3,031.49	72.6668
3,138.43	89.0124	3,138.43	89.4344	3,138.43	89.0008	3,138.43	89.7181	3,138.43	89.337	3,138.43	89.4468	3,138.43	89.4667	3,138.43	88.2032	3,138.43	89.0864	3,138.43	86.3218	3,138.43	87.8194	3,138.43	84.0866	3,138.43	85.9501	3,138.43	81.6146	3,138.43	83.8212	3,138.43	79.2993	3,138.43	81.6294	3,138.43	77.161	3,138.43	79.136	3,138.43	75.0228	3,138.43	77.352	3,138.43	72.8863	3,138.43	75.1982	3,138.43	71.7011	3,138.43	73.2626	3,138.43	70.869	3,138.43	72.6381	3,138.43	71.5183	3,138.43	71.5291	3,138.43	73.1927	3,138.43	67.3077	3,138.43	69.7132	3,138.43	70.8402	3,138.43	72.2402	3,138.43	67.987	3,138.43	72.4753
3,249.02	88.9128	3,249.02	89.117	3,249.02	88.9807	3,249.02	89.3944	3,249.02	89.2806	3,249.02	88.8569	3,249.02	89.2801	3,249.02	87.7984	3,249.02	88.6674	3,249.02	85.9495	3,249.02	87.5471	3,249.02	83.762	3,249.02	85.3325	3,249.02	81.5796	3,249.02	83.2062	3,249.02	79.6516	3,249.02	81.0592	3,249.02	77.5567	3,249.02	78.9214	3,249.02	75.4086	3,249.02	76.7009	3,249.02	72.8816	3,249.02	74.3004	3,249.02	72.6593	3,249.02	72.6921	3,249.02	70.6278	3,249.02	71.869	3,249.02	69.3152	3,249.02	70.7217	3,249.02	69.7204	3,249.02	71.616	3,249.02	71.0631	3,249.02	72.3138	3,249.02	72.4811	3,249.02	70.5515	3,249.02	73.0731
3,363.28	88.5593	3,363.28	88.9154	3,363.28	88.6843	3,363.28	89.0365	3,363.28	89.0761	3,363.28	88.5578	3,363.28	89.2199	3,363.28	87.2961	3,363.28	88.5273	3,363.28	85.3073	3,363.28	87.0852	3,363.28	83.199	3,363.28	85.2691	3,363.28	81.1791	3,363.28	82.8745	3,363.28	79.0495	3,363.28	80.6821	3,363.28	77.0407	3,363.28	78.5663	3,363.28	75.2762	3,363.28	75.8321	3,363.28	73.3724	3,363.28	74.6813	3,363.28	71.8112	3,363.28	72.5716	3,363.28	69.976	3,363.28	70.3212	3,363.28	69.2095	3,363.28	69.4141	3,363.28	72.1806	3,363.28	67.4942	3,363.28	70.7056	3,363.28	70.2698	3,363.28	71.7085	3,363.28	69.3174	3,363.28	72.6493
3,481.93	88.9475	3,481.93	89.2615	3,481.93	89.048	3,481.93	89.2709	3,481.93	89.4432	3,481.93	88.6666	3,481.93	89.5514	3,481.93	87.4756	3,481.93	88.7882	3,481.93	85.7871	3,481.93	87.1392	3,481.93	83.6675	3,481.93	85.4865	3,481.93	81.672	3,481.93	83.3367	3,481.93	79.4567	3,481.93	81.3299	3,481.93	77.1801	3,481.93	79.2852	3,481.93	74.9592	3,481.93	77.4007	3,481.93	72.7511	3,481.93	75.9087	3,481.93	71.7395	3,481.93	73.5278	3,481.93	68.6551	3,481.93	71.942	3,481.93	69.6936	3,481.93	68.791	3,481.93	70.1899	3,481.93	65.9803	3,481.93	71.1859	3,481.93	69.8626	3,481.93	72.2353	3,481.93	69.541	3,481.93	72.7145
3,604.98	88.8863	3,604.98	89.1973	3,604.98	88.917	3,604.98	89.3357	3,604.98	89.272	3,604.98	88.7086	3,604.98	89.3016	3,604.98	87.4	3,604.98	88.4157	3,604.98	85.7379	3,604.98	86.7336	3,604.98	83.8086	3,604.98	84.9783	3,604.98	81.8656	3,604.98	83.154	3,604.98	80.2019	3,604.98	81.3149	3,604.98	78.354	3,604.98	79.1677	3,604.98	76.3985	3,604.98	77.4534	3,604.98	74.1564	3,604.98	75.1952	3,604.98	72.9487	3,604.98	73.3208	3,604.98	70.0366	3,604.98	71.7651	3,604.98	68.2749	3,604.98	70.833	3,604.98	67.9217	3,604.98	69.7587	3,604.98	72.0517	3,604.98	69.7351	3,604.98	71.803	3,604.98	70.5983	3,604.98	72.5613
3,732.42	89.07	3,732.42	89.1585	3,732.42	89.0841	3,732.42	89.0731	3,732.42	89.1803	3,732.42	88.4291	3,732.42	89.0527	3,732.42	87.3335	3,732.42	88.4168	3,732.42	85.685	3,732.42	87.1011	3,732.42	84.0649	3,732.42	85.4378	3,732.42	82.0953	3,732.42	84.08	3,732.42	80.1075	3,732.42	82.1455	3,732.42	78.2382	3,732.42	79.979	3,732.42	76.0331	3,732.42	77.6536	3,732.42	74.1501	3,732.42	75.5543	3,732.42	72.3056	3,732.42	74.4379	3,732.42	71.5987	3,732.42	72.5272	3,732.42	68.0363	3,732.42	71.7665	3,732.42	69.9881	3,732.42	70.4785	3,732.42	70.7949	3,732.42	67.5541	3,732.42	72.0618	3,732.42	70.9318	3,732.42	71.8865
3,863.53	89.5329	3,863.53	89.5385	3,863.53	89.5481	3,863.53	89.4072	3,863.53	89.6309	3,863.53	88.6936	3,863.53	89.4129	3,863.53	87.6481	3,863.53	88.6056	3,863.53	86.2517	3,863.53	87.5348	3,863.53	84.671	3,863.53	86.2699	3,863.53	82.7362	3,863.53	84.684	3,863.53	80.4042	3,863.53	82.7688	3,863.53	78.3127	3,863.53	80.3255	3,863.53	76.184	3,863.53	78.0881	3,863.53	74.5978	3,863.53	76.3268	3,863.53	71.4586	3,863.53	75.127	3,863.53	71.5458	3,863.53	72.7052	3,863.53	69.6238	3,863.53	71.052	3,863.53	69.2109	3,863.53	69.9261	3,863.53	71.4628	3,863.53	69.6175	3,863.53	70.8885	3,863.53	71.4443	3,863.53	71.3787
3,999.76	89.73	3,999.76	89.5671	3,999.76	89.6597	3,999.76	89.212	3,999.76	89.4913	3,999.76	88.6024	3,999.76	89.1191	3,999.76	87.7113	3,999.76	88.3987	3,999.76	86.5887	3,999.76	87.5256	3,999.76	84.9791	3,999.76	86.7268	3,999.76	83.0802	3,999.76	84.8962	3,999.76	80.8907	3,999.76	82.945	3,999.76	78.5579	3,999.76	80.4899	3,999.76	76.4867	3,999.76	78.3867	3,999.76	75.0588	3,999.76	76.4762	3,999.76	73.0699	3,999.76	74.6404	3,999.76	72.0562	3,999.76	72.3015	3,999.76	70.8849	3,999.76	71.2384	3,999.76	69.434	3,999.76	70.5488	3,999.76	72.471	3,999.76	69.4882	3,999.76	70.0638	3,999.76	72.6277	3,999.76	70.9997
4,141.11	89.9495	4,141.11	89.475	4,141.11	89.8292	4,141.11	88.9104	4,141.11	89.2827	4,141.11	88.4531	4,141.11	88.7324	4,141.11	88.0263	4,141.11	88.1695	4,141.11	87.108	4,141.11	87.5559	4,141.11	85.4748	4,141.11	86.7727	4,141.11	83.5295	4,141.11	85.0262	4,141.11	81.1774	4,141.11	82.888	4,141.11	78.6101	4,141.11	80.2442	4,141.11	76.4629	4,141.11	78.1976	4,141.11	74.5984	4,141.11	75.921	4,141.11	72.7367	4,141.11	74.217	4,141.11	71.0808	4,141.11	71.9836	4,141.11	69.8781	4,141.11	71.6866	4,141.11	69.6844	4,141.11	70.0509	4,141.11	72.7267	4,141.11	69.226	4,141.11	70.1966	4,141.11	72.5534	4,141.11	71.2704
4,286.87	90.5907	4,286.87	89.7119	4,286.87	90.5348	4,286.87	88.8589	4,286.87	89.6009	4,286.87	88.3953	4,286.87	88.8731	4,286.87	87.9584	4,286.87	88.3824	4,286.87	86.9119	4,286.87	87.8949	4,286.87	84.8873	4,286.87	86.9138	4,286.87	82.7471	4,286.87	85.0919	4,286.87	80.2693	4,286.87	82.7539	4,286.87	77.8711	4,286.87	80.1593	4,286.87	75.953	4,286.87	77.7969	4,286.87	74.2114	4,286.87	75.2968	4,286.87	71.923	4,286.87	73.4244	4,286.87	70.4509	4,286.87	71.2726	4,286.87	68.8631	4,286.87	70.7115	4,286.87	70.5329	4,286.87	68.5269	4,286.87	73.1462	4,286.87	69.0251	4,286.87	71.0505	4,286.87	72.8974	4,286.87	70.6845
4,438.48	90.3065	4,438.48	89.4385	4,438.48	90.1724	4,438.48	88.7484	4,438.48	89.1095	4,438.48	88.4297	4,438.48	88.1424	4,438.48	88.0314	4,438.48	87.6013	4,438.48	87.0717	4,438.48	87.0434	4,438.48	85.249	4,438.48	85.8403	4,438.48	82.9727	4,438.48	83.9432	4,438.48	80.4248	4,438.48	81.3741	4,438.48	77.3106	4,438.48	78.7117	4,438.48	75.0744	4,438.48	76.4253	4,438.48	72.6429	4,438.48	73.4176	4,438.48	70.5691	4,438.48	72.2487	4,438.48	68.4447	4,438.48	69.606	4,438.48	64.3479	4,438.48	68.223	4,438.48	67.9406	4,438.48	65.3397	4,438.48	72.2859	4,438.48	67.2348	4,438.48	69.6177	4,438.48	71.3239	4,438.48	70.1205
4,594.48	91.0096	4,594.48	89.9579	4,594.48	90.809	4,594.48	88.9978	4,594.48	89.5825	4,594.48	88.7084	4,594.48	88.6732	4,594.48	88.3903	4,594.48	88.3294	4,594.48	86.9357	4,594.48	87.9643	4,594.48	84.6601	4,594.48	86.5381	4,594.48	82.1172	4,594.48	84.615	4,594.48	79.3898	4,594.48	81.8645	4,594.48	77.0434	4,594.48	79.1984	4,594.48	75.2591	4,594.48	76.5756	4,594.48	73.4618	4,594.48	74.068	4,594.48	71.9168	4,594.48	72.4929	4,594.48	70.8679	4,594.48	70.4188	4,594.48	68.052	4,594.48	68.9041	4,594.48	67.8027	4,594.48	66.0708	4,594.48	72.7961	4,594.48	62.9298	4,594.48	68.7829	4,594.48	71.8701	4,594.48	67.4123
4,757.08	90.7349	4,757.08	89.4915	4,757.08	90.6024	4,757.08	88.5005	4,757.08	89.191	4,757.08	88.3975	4,757.08	88.3683	4,757.08	88.163	4,757.08	88.1573	4,757.08	86.9538	4,757.08	87.7783	4,757.08	84.8962	4,757.08	86.2243	4,757.08	82.6143	4,757.08	83.9835	4,757.08	80.316	4,757.08	81.1953	4,757.08	77.3038	4,757.08	78.5852	4,757.08	74.698	4,757.08	76.114	4,757.08	71.868	4,757.08	74.165	4,757.08	69.7599	4,757.08	71.7477	4,757.08	68.5874	4,757.08	69.7491	4,757.08	65.8608	4,757.08	68.8153	4,757.08	66.1631	4,757.08	64.9443	4,757.08	72.0846	4,757.08	63.3162	4,757.08	68.5492	4,757.08	71.8356	4,757.08	68.8082
4,924.8	90.8687	4,924.8	89.6413	4,924.8	90.6453	4,924.8	88.7057	4,924.8	89.1811	4,924.8	88.5959	4,924.8	88.3075	4,924.8	88.0614	4,924.8	88.2522	4,924.8	86.5426	4,924.8	87.6184	4,924.8	84.0042	4,924.8	86.1274	4,924.8	81.2383	4,924.8	83.972	4,924.8	78.5979	4,924.8	81.055	4,924.8	75.7171	4,924.8	78.6515	4,924.8	74.1947	4,924.8	76.0346	4,924.8	72.1496	4,924.8	74.2576	4,924.8	70.182	4,924.8	72.0421	4,924.8	68.5431	4,924.8	69.887	4,924.8	66.9268	4,924.8	68.3212	4,924.8	65.7979	4,924.8	65.2558	4,924.8	71.5216	4,924.8	60.036	4,924.8	67.748	4,924.8	71.0661	4,924.8	67.106
5,098.39	90.5631	5,098.39	89.2836	5,098.39	90.497	5,098.39	88.3402	5,098.39	89.1965	5,098.39	88.0972	5,098.39	88.6008	5,098.39	87.2366	5,098.39	88.5292	5,098.39	85.6933	5,098.39	87.6538	5,098.39	83.3664	5,098.39	85.9917	5,098.39	81.2899	5,098.39	83.7454	5,098.39	79.094	5,098.39	81.0665	5,098.39	76.8509	5,098.39	79.0893	5,098.39	74.7108	5,098.39	76.1132	5,098.39	72.0483	5,098.39	74.088	5,098.39	69.833	5,098.39	71.7	5,098.39	67.4652	5,098.39	70.2716	5,098.39	65.3463	5,098.39	68.7274	5,098.39	64.4462	5,098.39	64.5861	5,098.39	70.3529	5,098.39	61.8977	5,098.39	67.4913	5,098.39	70.2934	5,098.39	67.2261
5,277.83	89.9762	5,277.83	88.8413	5,277.83	89.8674	5,277.83	88.31	5,277.83	88.804	5,277.83	88.3682	5,277.83	88.2965	5,277.83	87.7489	5,277.83	88.2384	5,277.83	86.275	5,277.83	87.5021	5,277.83	84.183	5,277.83	85.8107	5,277.83	81.7688	5,277.83	83.9271	5,277.83	79.0641	5,277.83	81.392	5,277.83	75.9999	5,277.83	78.9601	5,277.83	73.3728	5,277.83	76.4089	5,277.83	71.216	5,277.83	74.2461	5,277.83	69.3361	5,277.83	72.1978	5,277.83	67.4393	5,277.83	69.7076	5,277.83	63.8512	5,277.83	68.2958	5,277.83	63.9984	5,277.83	65.3015	5,277.83	69.189	5,277.83	62.5768	5,277.83	67.1122	5,277.83	68.7276	5,277.83	67.3004
5,463.87	90.2647	5,463.87	89.4456	5,463.87	90.1207	5,463.87	88.9407	5,463.87	89.2019	5,463.87	88.6577	5,463.87	88.7339	5,463.87	87.4924	5,463.87	88.5016	5,463.87	85.6677	5,463.87	87.5798	5,463.87	83.386	5,463.87	85.844	5,463.87	81.0381	5,463.87	84.0007	5,463.87	78.2037	5,463.87	81.428	5,463.87	76.3658	5,463.87	79.049	5,463.87	74.1463	5,463.87	76.1785	5,463.87	72.2999	5,463.87	74.1938	5,463.87	70.6701	5,463.87	72.0454	5,463.87	67.9494	5,463.87	69.7707	5,463.87	66.6543	5,463.87	67.6374	5,463.87	61.964	5,463.87	63.9729	5,463.87	68.9072	5,463.87	64.6712	5,463.87	65.1471	5,463.87	69.0234	5,463.87	66.3054
5,656.49	89.8199	5,656.49	89.2056	5,656.49	89.8247	5,656.49	88.7516	5,656.49	89.2497	5,656.49	88.1649	5,656.49	88.86	5,656.49	87.2266	5,656.49	88.3704	5,656.49	85.9818	5,656.49	87.2788	5,656.49	84.0904	5,656.49	85.84	5,656.49	82.1283	5,656.49	83.8212	5,656.49	79.4438	5,656.49	81.2412	5,656.49	76.7898	5,656.49	78.5447	5,656.49	73.8072	5,656.49	75.6794	5,656.49	71.7854	5,656.49	73.417	5,656.49	68.7591	5,656.49	71.5715	5,656.49	66.4154	5,656.49	69.5187	5,656.49	65.1869	5,656.49	66.6656	5,656.49	61.3891	5,656.49	62.6624	5,656.49	67.8466	5,656.49	63.0787	5,656.49	64.5655	5,656.49	68.0182	5,656.49	65.9857
5,856.45	89.6786	5,856.45	89.4394	5,856.45	89.6693	5,856.45	89.0737	5,856.45	89.4373	5,856.45	88.5899	5,856.45	89.0255	5,856.45	87.72	5,856.45	88.3951	5,856.45	86.5278	5,856.45	87.175	5,856.45	84.4963	5,856.45	85.9799	5,856.45	81.7486	5,856.45	83.7255	5,856.45	77.9638	5,856.45	81.0918	5,856.45	75.254	5,856.45	78.2917	5,856.45	72.7076	5,856.45	75.1008	5,856.45	70.9726	5,856.45	73.0594	5,856.45	68.5964	5,856.45	70.6345	5,856.45	66.9141	5,856.45	68.7403	5,856.45	65.908	5,856.45	66.3683	5,856.45	61.4065	5,856.45	62.0211	5,856.45	67.2876	5,856.45	63.5451	5,856.45	63.1331	5,856.45	66.695	5,856.45	65.608
6,062.99	89.9083	6,062.99	89.9661	6,062.99	89.9449	6,062.99	89.6351	6,062.99	89.8433	6,062.99	88.7243	6,062.99	89.2	6,062.99	87.6163	6,062.99	88.298	6,062.99	86.1415	6,062.99	87.1042	6,062.99	83.8971	6,062.99	85.7609	6,062.99	80.8898	6,062.99	83.4607	6,062.99	77.6976	6,062.99	80.4461	6,062.99	75.2639	6,062.99	77.4255	6,062.99	72.7167	6,062.99	74.5815	6,062.99	70.8374	6,062.99	71.8873	6,062.99	68.3918	6,062.99	69.5768	6,062.99	66.7951	6,062.99	68.4429	6,062.99	65.7304	6,062.99	64.9445	6,062.99	61.6264	6,062.99	63.0174	6,062.99	66.7001	6,062.99	62.1933	6,062.99	63.1441	6,062.99	66.2074	6,062.99	64.0764
6,276.86	90.0848	6,276.86	90.3518	6,276.86	90.1931	6,276.86	89.6996	6,276.86	90.3995	6,276.86	88.495	6,276.86	89.7129	6,276.86	87.4234	6,276.86	88.4885	6,276.86	86.0194	6,276.86	87.3941	6,276.86	83.6336	6,276.86	85.8475	6,276.86	80.8276	6,276.86	83.2536	6,276.86	77.5799	6,276.86	80.2034	6,276.86	74.6967	6,276.86	76.907	6,276.86	72.1262	6,276.86	73.992	6,276.86	70.1714	6,276.86	71.3464	6,276.86	67.7065	6,276.86	69.3424	6,276.86	65.5729	6,276.86	67.4963	6,276.86	63.9348	6,276.86	65.02	6,276.86	62.1637	6,276.86	63.5091	6,276.86	66.0812	6,276.86	61.506	6,276.86	61.9684	6,276.86	65.4187	6,276.86	62.784
6,498.05	90.0383	6,498.05	90.3992	6,498.05	90.2743	6,498.05	89.5711	6,498.05	90.6988	6,498.05	88.4163	6,498.05	89.8181	6,498.05	87.3792	6,498.05	88.7244	6,498.05	85.7822	6,498.05	87.4841	6,498.05	83.4242	6,498.05	85.7945	6,498.05	80.1326	6,498.05	82.9515	6,498.05	76.6626	6,498.05	79.934	6,498.05	73.8614	6,498.05	76.7488	6,498.05	71.0515	6,498.05	73.8461	6,498.05	68.8083	6,498.05	71.4803	6,498.05	67.0405	6,498.05	68.8895	6,498.05	65.5617	6,498.05	67.1799	6,498.05	61.9202	6,498.05	65.6796	6,498.05	60.0837	6,498.05	64.3349	6,498.05	65.854	6,498.05	58.5327	6,498.05	61.8551	6,498.05	64.2852	6,498.05	63.025
6,727.29	89.8704	6,727.29	90.1078	6,727.29	90.2038	6,727.29	89.5521	6,727.29	90.2945	6,727.29	88.4945	6,727.29	89.4491	6,727.29	87.505	6,727.29	88.3442	6,727.29	85.4497	6,727.29	87.2695	6,727.29	82.8668	6,727.29	85.4247	6,727.29	79.4757	6,727.29	82.5264	6,727.29	75.9628	6,727.29	79.3977	6,727.29	73.3966	6,727.29	76.4252	6,727.29	70.4325	6,727.29	73.7947	6,727.29	68.9796	6,727.29	71.77	6,727.29	67.5512	6,727.29	69.3706	6,727.29	64.9848	6,727.29	67.6401	6,727.29	63.1098	6,727.29	65.8707	6,727.29	54.4995	6,727.29	64.9809	6,727.29	65.0317	6,727.29	56.3648	6,727.29	61.7615	6,727.29	62.8658	6,727.29	62.6982
6,964.6	89.2271	6,964.6	89.9824	6,964.6	89.5018	6,964.6	89.2497	6,964.6	90.1006	6,964.6	88.2583	6,964.6	89.1713	6,964.6	87.3184	6,964.6	88.2733	6,964.6	85.3416	6,964.6	87.2547	6,964.6	82.8563	6,964.6	85.3931	6,964.6	79.8237	6,964.6	82.7065	6,964.6	77.146	6,964.6	80.1604	6,964.6	74.4195	6,964.6	76.9411	6,964.6	72.3645	6,964.6	74.3717	6,964.6	70.1065	6,964.6	72.3115	6,964.6	67.6947	6,964.6	69.6286	6,964.6	66.1928	6,964.6	66.9349	6,964.6	64.0705	6,964.6	66.7648	6,964.6	55.7013	6,964.6	66.6333	6,964.6	63.4918	6,964.6	58.3266	6,964.6	62.0305	6,964.6	62.8862	6,964.6	62.4824
7,209.96	88.6765	7,209.96	89.3934	7,209.96	89.0561	7,209.96	88.7897	7,209.96	89.3567	7,209.96	87.9851	7,209.96	88.6712	7,209.96	87.1222	7,209.96	87.8254	7,209.96	85.0254	7,209.96	86.8674	7,209.96	83.0271	7,209.96	85.11	7,209.96	80.2345	7,209.96	82.5702	7,209.96	77.4216	7,209.96	79.9819	7,209.96	74.4372	7,209.96	76.7797	7,209.96	71.1693	7,209.96	73.9453	7,209.96	69.6854	7,209.96	71.621	7,209.96	67.8397	7,209.96	69.6107	7,209.96	66.3291	7,209.96	67.3304	7,209.96	63.9198	7,209.96	66.86	7,209.96	56.8636	7,209.96	66.3821	7,209.96	62.881	7,209.96	59.2935	7,209.96	60.9934	7,209.96	62.06	7,209.96	61.0595
7,464.11	88.1399	7,464.11	88.8325	7,464.11	88.3035	7,464.11	88.3369	7,464.11	88.8615	7,464.11	87.4376	7,464.11	88.2682	7,464.11	86.3191	7,464.11	87.4315	7,464.11	84.5988	7,464.11	86.3947	7,464.11	82.7501	7,464.11	84.5467	7,464.11	79.7562	7,464.11	82.2139	7,464.11	76.7469	7,464.11	79.4173	7,464.11	73.35	7,464.11	75.9138	7,464.11	71.1579	7,464.11	73.1906	7,464.11	69.0658	7,464.11	71.0339	7,464.11	67.3664	7,464.11	68.9086	7,464.11	66.0806	7,464.11	66.7446	7,464.11	64.0161	7,464.11	66.4217	7,464.11	56.4303	7,464.11	65.435	7,464.11	61.3476	7,464.11	57.6904	7,464.11	59.5308	7,464.11	58.8429	7,464.11	60.2904
7,727.78	88.2992	7,727.78	88.6755	7,727.78	88.5616	7,727.78	88.2877	7,727.78	88.7771	7,727.78	87.3064	7,727.78	88.2573	7,727.78	86.1013	7,727.78	87.3988	7,727.78	84.3863	7,727.78	86.1861	7,727.78	82.4029	7,727.78	84.5268	7,727.78	79.1139	7,727.78	82.1884	7,727.78	75.669	7,727.78	79.0571	7,727.78	72.5593	7,727.78	75.2653	7,727.78	69.638	7,727.78	72.6124	7,727.78	67.7389	7,727.78	69.8372	7,727.78	67.1298	7,727.78	68.0536	7,727.78	66.2211	7,727.78	65.9855	7,727.78	63.5872	7,727.78	65.7871	7,727.78	56.1735	7,727.78	64.6809	7,727.78	60.3154	7,727.78	56.9954	7,727.78	57.4384	7,727.78	58.9814	7,727.78	59.271
8,000.24	88.8454	8,000.24	89.3366	8,000.24	88.9874	8,000.24	88.8681	8,000.24	89.2352	8,000.24	87.7036	8,000.24	88.8341	8,000.24	86.3668	8,000.24	87.7608	8,000.24	84.7863	8,000.24	86.375	8,000.24	82.5777	8,000.24	84.8282	8,000.24	78.814	8,000.24	82.1325	8,000.24	75.3236	8,000.24	78.8613	8,000.24	71.602	8,000.24	74.7619	8,000.24	69.1907	8,000.24	71.726	8,000.24	67.1101	8,000.24	69.9667	8,000.24	65.407	8,000.24	67.3024	8,000.24	65.4845	8,000.24	65.3996	8,000.24	63.0594	8,000.24	65.2513	8,000.24	56.2888	8,000.24	64.0438	8,000.24	59.296	8,000.24	57.0078	8,000.24	55.8708	8,000.24	57.3619	8,000.24	55.9812
8,282.23	89.8335	8,282.23	89.912	8,282.23	89.8716	8,282.23	89.5739	8,282.23	89.848	8,282.23	88.3007	8,282.23	89.5254	8,282.23	86.8863	8,282.23	88.2797	8,282.23	85.4104	8,282.23	87.0379	8,282.23	82.819	8,282.23	85.5215	8,282.23	78.8285	8,282.23	82.7406	8,282.23	75.3044	8,282.23	79.3136	8,282.23	71.9486	8,282.23	75.3602	8,282.23	69.3357	8,282.23	72.8759	8,282.23	66.715	8,282.23	69.8397	8,282.23	65.5317	8,282.23	68.1218	8,282.23	64.9671	8,282.23	65.9726	8,282.23	62.7116	8,282.23	65.2992	8,282.23	58.6633	8,282.23	62.4038	8,282.23	59.0085	8,282.23	55.5513	8,282.23	55.3286	8,282.23	59.8943	8,282.23	58.1448
8,574.46	89.967	8,574.46	89.9518	8,574.46	89.9546	8,574.46	89.6801	8,574.46	90.0866	8,574.46	88.1438	8,574.46	89.7256	8,574.46	87.01	8,574.46	88.3795	8,574.46	85.4331	8,574.46	87.2108	8,574.46	82.6057	8,574.46	85.6447	8,574.46	78.6007	8,574.46	82.7481	8,574.46	75.3428	8,574.46	79.072	8,574.46	72.0816	8,574.46	75.3046	8,574.46	68.6199	8,574.46	72.6417	8,574.46	66.6079	8,574.46	69.1245	8,574.46	65.312	8,574.46	67.8486	8,574.46	65.1943	8,574.46	65.5451	8,574.46	62.3355	8,574.46	65.0476	8,574.46	58.1309	8,574.46	62.0067	8,574.46	58.695	8,574.46	56.9706	8,574.46	55.7021	8,574.46	57.9763	8,574.46	55.4315
8,876.22	89.6307	8,876.22	89.5044	8,876.22	89.6817	8,876.22	89.215	8,876.22	89.556	8,876.22	87.783	8,876.22	89.4	8,876.22	86.5959	8,876.22	87.8855	8,876.22	84.9499	8,876.22	86.7417	8,876.22	81.7444	8,876.22	84.9583	8,876.22	78.0285	8,876.22	81.9791	8,876.22	74.3552	8,876.22	78.1778	8,876.22	71.2615	8,876.22	74.6057	8,876.22	67.7946	8,876.22	71.9407	8,876.22	65.4377	8,876.22	68.7978	8,876.22	64.3075	8,876.22	66.9424	8,876.22	64.6019	8,876.22	65.9418	8,876.22	62.9688	8,876.22	64.6409	8,876.22	57.9119	8,876.22	62.4436	8,876.22	56.9131	8,876.22	56.7856	8,876.22	55.0221	8,876.22	56.5917	8,876.22	54.1487
9,189.7	88.9567	9,189.7	88.8214	9,189.7	88.8679	9,189.7	88.4636	9,189.7	88.8644	9,189.7	87.0164	9,189.7	88.5504	9,189.7	85.9621	9,189.7	87.1975	9,189.7	84.069	9,189.7	86.0114	9,189.7	81.1625	9,189.7	84.0761	9,189.7	77.9279	9,189.7	81.2196	9,189.7	74.0193	9,189.7	78.2056	9,189.7	71.1182	9,189.7	74.5873	9,189.7	67.2262	9,189.7	71.688	9,189.7	66.1278	9,189.7	68.3769	9,189.7	65.5165	9,189.7	66.7339	9,189.7	63.2158	9,189.7	65.192	9,189.7	62.2329	9,189.7	63.6824	9,189.7	58.808	9,189.7	62.6191	9,189.7	57.0565	9,189.7	57.6177	9,189.7	53.8616	9,189.7	57.0585	9,189.7	55.0403
9,513.43	88.8418	9,513.43	88.3667	9,513.43	88.8663	9,513.43	87.864	9,513.43	88.441	9,513.43	86.5134	9,513.43	88.0471	9,513.43	85.1051	9,513.43	86.6502	9,513.43	82.9528	9,513.43	85.3081	9,513.43	80.2645	9,513.43	83.1941	9,513.43	77.0319	9,513.43	80.7418	9,513.43	73.2798	9,513.43	77.6654	9,513.43	70.0136	9,513.43	74.0976	9,513.43	67.318	9,513.43	71.3279	9,513.43	65.9432	9,513.43	67.6567	9,513.43	64.4305	9,513.43	65.6212	9,513.43	62.4297	9,513.43	63.9154	9,513.43	61.8043	9,513.43	62.7607	9,513.43	58.676	9,513.43	62.4742	9,513.43	57.6273	9,513.43	57.3892	9,513.43	56.3346	9,513.43	56.3289	9,513.43	55.7493
9,848.88	89.2952	9,848.88	88.6866	9,848.88	89.2985	9,848.88	87.8744	9,848.88	88.7339	9,848.88	86.559	9,848.88	88.157	9,848.88	84.699	9,848.88	86.7168	9,848.88	82.5789	9,848.88	84.9846	9,848.88	79.7478	9,848.88	83.0536	9,848.88	76.344	9,848.88	80.6753	9,848.88	72.9297	9,848.88	76.8239	9,848.88	69.0564	9,848.88	73.1499	9,848.88	67.0472	9,848.88	70.4311	9,848.88	64.462	9,848.88	66.4031	9,848.88	62.4779	9,848.88	65.209	9,848.88	61.3746	9,848.88	62.4933	9,848.88	62.47	9,848.88	61.3569	9,848.88	57.9478	9,848.88	62.7967	9,848.88	57.251	9,848.88	57.2291	9,848.88	55.2424	9,848.88	55.4081	9,848.88	55.4712
10,196.8	89.6329	10,196.8	89.0214	10,196.8	89.5864	10,196.8	88.1399	10,196.8	89.0594	10,196.8	86.9234	10,196.8	88.4957	10,196.8	84.6473	10,196.8	87.0496	10,196.8	82.6999	10,196.8	85.0339	10,196.8	79.7094	10,196.8	83.0819	10,196.8	76.3414	10,196.8	80.6343	10,196.8	72.8753	10,196.8	77.0307	10,196.8	68.816	10,196.8	73.2587	10,196.8	66.4248	10,196.8	70.2346	10,196.8	63.9068	10,196.8	65.8822	10,196.8	62.6902	10,196.8	65.5493	10,196.8	60.8485	10,196.8	60.4022	10,196.8	63.3901	10,196.8	61.7276	10,196.8	57.6235	10,196.8	63.7323	10,196.8	56.4535	10,196.8	58.7579	10,196.8	52.202	10,196.8	55.0888	10,196.8	56.2544
10,556.4	89.8152	10,556.4	89.0154	10,556.4	89.8492	10,556.4	88.1553	10,556.4	89.0912	10,556.4	86.886	10,556.4	88.6485	10,556.4	84.4946	10,556.4	87.0708	10,556.4	82.8925	10,556.4	84.955	10,556.4	80.273	10,556.4	83.2237	10,556.4	77.196	10,556.4	81.0435	10,556.4	72.8349	10,556.4	77.8968	10,556.4	69.8589	10,556.4	74.0588	10,556.4	66.0082	10,556.4	70.8404	10,556.4	65.2074	10,556.4	67.1515	10,556.4	63.1366	10,556.4	65.7546	10,556.4	61.3999	10,556.4	61.2048	10,556.4	64.0284	10,556.4	62.3542	10,556.4	57.3341	10,556.4	63.8649	10,556.4	54.7014	10,556.4	60.0304	10,556.4	49.4166	10,556.4	54.0848	10,556.4	55.7754
10,928.5	89.7084	10,928.5	88.6614	10,928.5	89.7003	10,928.5	87.8411	10,928.5	88.8061	10,928.5	86.4591	10,928.5	88.4723	10,928.5	84.2472	10,928.5	86.8043	10,928.5	82.6666	10,928.5	84.8444	10,928.5	80.1124	10,928.5	83.269	10,928.5	76.7104	10,928.5	81.2592	10,928.5	72.5332	10,928.5	78.1893	10,928.5	69.8312	10,928.5	74.1225	10,928.5	67.0564	10,928.5	71.1435	10,928.5	64.5655	10,928.5	68.6534	10,928.5	61.2204	10,928.5	64.4734	10,928.5	62.8187	10,928.5	63.777	10,928.5	64.643	10,928.5	63.1111	10,928.5	56.3041	10,928.5	63.8529	10,928.5	54.9954	10,928.5	60.5649	10,928.5	43.0469	10,928.5	55.639	10,928.5	56.0233
11,313.7	89.2616	11,313.7	88.1733	11,313.7	89.3407	11,313.7	87.5422	11,313.7	88.1124	11,313.7	86.084	11,313.7	88.0649	11,313.7	83.9933	11,313.7	86.3809	11,313.7	82.3746	11,313.7	84.6539	11,313.7	79.3306	11,313.7	83.0863	11,313.7	75.8797	11,313.7	81.0938	11,313.7	72.9102	11,313.7	78.1143	11,313.7	69.9534	11,313.7	74.1656	11,313.7	67.2526	11,313.7	71.2673	11,313.7	62.8135	11,313.7	68.6138	11,313.7	61.3551	11,313.7	63.0485	11,313.7	63.4304	11,313.7	65.5752	11,313.7	64.6531	11,313.7	63.5599	11,313.7	55.8584	11,313.7	62.8654	11,313.7	55.1245	11,313.7	60.143	11,313.7	37.8272	11,313.7	55.0875	11,313.7	55.1668
11,712.9	88.4363	11,712.9	87.4028	11,712.9	88.4671	11,712.9	87.0421	11,712.9	87.4056	11,712.9	85.4508	11,712.9	87.3933	11,712.9	83.8078	11,712.9	85.8748	11,712.9	82.5788	11,712.9	84.2493	11,712.9	80.1873	11,712.9	82.878	11,712.9	77.4342	11,712.9	81.1399	11,712.9	73.1412	11,712.9	78.1455	11,712.9	71.567	11,712.9	73.9298	11,712.9	66.2381	11,712.9	71.2056	11,712.9	64.2418	11,712.9	67.5601	11,712.9	63.2831	11,712.9	61.7593	11,712.9	63.2415	11,712.9	66.0318	11,712.9	63.9612	11,712.9	62.7024	11,712.9	54.1344	11,712.9	60.2682	11,712.9	53.1672	11,712.9	58.6564	11,712.9	33.7993	11,712.9	56.3284	11,712.9	53.5189
12,126	88.1553	12,126	86.8413	12,126	88.3662	12,126	86.42	12,126	86.9844	12,126	85.2398	12,126	86.8397	12,126	83.244	12,126	85.832	12,126	82.8912	12,126	84.3789	12,126	80.9676	12,126	83.0976	12,126	77.5078	12,126	81.1929	12,126	73.2962	12,126	78.4923	12,126	70.9295	12,126	73.6963	12,126	66.3771	12,126	70.9309	12,126	64.9089	12,126	67.733	12,126	63.3931	12,126	64.3579	12,126	62.3955	12,126	64.8356	12,126	62.8673	12,126	61.7563	12,126	53.8016	12,126	61.2829	12,126	52.46	12,126	56.9839	12,126	32.7514	12,126	56.8107	12,126	52.0707
12,553.7	87.5678	12,553.7	86.5674	12,553.7	87.777	12,553.7	85.859	12,553.7	86.7223	12,553.7	85.0341	12,553.7	86.4506	12,553.7	83.3081	12,553.7	86.0912	12,553.7	82.6757	12,553.7	84.8403	12,553.7	80.578	12,553.7	83.4204	12,553.7	77.2744	12,553.7	81.4225	12,553.7	73.6783	12,553.7	78.7935	12,553.7	70.7221	12,553.7	74.0858	12,553.7	66.3031	12,553.7	71.3798	12,553.7	63.8335	12,553.7	67.1572	12,553.7	62.5083	12,553.7	65.4272	12,553.7	61.0506	12,553.7	64.8931	12,553.7	61.4479	12,553.7	62.5911	12,553.7	49.6885	12,553.7	61.64	12,553.7	54.734	12,553.7	57.3417	12,553.7	47.1643	12,553.7	57.2335	12,553.7	51.8957
12,996.1	86.9457	12,996.1	85.974	12,996.1	87.2913	12,996.1	84.8958	12,996.1	86.1045	12,996.1	84.4834	12,996.1	85.5247	12,996.1	83.4887	12,996.1	85.6543	12,996.1	82.4036	12,996.1	84.8394	12,996.1	80.7968	12,996.1	83.2122	12,996.1	77.9637	12,996.1	81.4357	12,996.1	73.252	12,996.1	78.6063	12,996.1	70.4261	12,996.1	74.0786	12,996.1	65.0867	12,996.1	70.7157	12,996.1	64.2188	12,996.1	66.1292	12,996.1	63.1147	12,996.1	65.0306	12,996.1	58.8916	12,996.1	62.3197	12,996.1	59.0289	12,996.1	61.6493	12,996.1	40.0508	12,996.1	61.9668	12,996.1	55.3803	12,996.1	57.9582	12,996.1	40.893	12,996.1	55.818	12,996.1	52.3038
13,454.6	86.1828	13,454.6	85.3225	13,454.6	86.2909	13,454.6	84.16	13,454.6	85.555	13,454.6	84.0384	13,454.6	84.8793	13,454.6	83.2781	13,454.6	85.0654	13,454.6	82.4986	13,454.6	84.6975	13,454.6	81.2705	13,454.6	83.1489	13,454.6	77.669	13,454.6	81.4954	13,454.6	73.3253	13,454.6	78.5019	13,454.6	69.2279	13,454.6	73.6127	13,454.6	64.8476	13,454.6	70.3526	13,454.6	63.9302	13,454.6	65.7857	13,454.6	62.3091	13,454.6	64.7631	13,454.6	57.3545	13,454.6	62.7374	13,454.6	57.3945	13,454.6	61.7421	13,454.6	39.5781	13,454.6	61.799	13,454.6	55.2384	13,454.6	57.3951	13,454.6	48.6421	13,454.6	53.5113	13,454.6	50.1261
13,928.5	85.4499	13,928.5	84.8217	13,928.5	85.9087	13,928.5	83.4185	13,928.5	85.3404	13,928.5	83.5188	13,928.5	84.5658	13,928.5	83.0934	13,928.5	84.858	13,928.5	82.5802	13,928.5	84.4224	13,928.5	80.5139	13,928.5	83.2838	13,928.5	77.051	13,928.5	80.8734	13,928.5	72.9553	13,928.5	77.3674	13,928.5	67.9935	13,928.5	73.1583	13,928.5	64.8796	13,928.5	69.8392	13,928.5	63.3928	13,928.5	65.3914	13,928.5	61.1072	13,928.5	64.3812	13,928.5	56.3895	13,928.5	62.9173	13,928.5	56.2504	13,928.5	60.7461	13,928.5	45.39	13,928.5	61.0761	13,928.5	55.9949	13,928.5	57.6042	13,928.5	49.6654	13,928.5	53.3871	13,928.5	51.7429
14,419.9	85.8272	14,419.9	85.0003	14,419.9	86.3134	14,419.9	83.667	14,419.9	85.8781	14,419.9	83.6315	14,419.9	85.029	14,419.9	83.1819	14,419.9	85.0971	14,419.9	82.7031	14,419.9	84.4443	14,419.9	80.2152	14,419.9	83.2207	14,419.9	77.4496	14,419.9	80.9482	14,419.9	72.5692	14,419.9	77.7038	14,419.9	67.9115	14,419.9	73.0664	14,419.9	64.698	14,419.9	68.6698	14,419.9	62.6365	14,419.9	63.7574	14,419.9	61.5051	14,419.9	63.7342	14,419.9	57.5768	14,419.9	61.3211	14,419.9	54.9069	14,419.9	59.2758	14,419.9	31.2263	14,419.9	59.2226	14,419.9	55.9806	14,419.9	55.5423	14,419.9	49.4703	14,419.9	49.7335	14,419.9	50.645
14,928.2	86.1887	14,928.2	85.6445	14,928.2	86.6767	14,928.2	84.2179	14,928.2	86.6475	14,928.2	83.8554	14,928.2	85.8451	14,928.2	83.1408	14,928.2	85.3589	14,928.2	82.5381	14,928.2	84.7677	14,928.2	79.9577	14,928.2	83.2255	14,928.2	77.1852	14,928.2	80.7216	14,928.2	71.8895	14,928.2	77.4375	14,928.2	65.3634	14,928.2	72.0135	14,928.2	64.0044	14,928.2	67.1312	14,928.2	61.959	14,928.2	63.8996	14,928.2	60.4355	14,928.2	62.5744	14,928.2	55.105	14,928.2	57.5036	14,928.2	52.5884	14,928.2	56.6681	14,928.2	40.8801	14,928.2	57.4713	14,928.2	56.4991	14,928.2	55.4085	14,928.2	52.6762	14,928.2	33.3335	14,928.2	51.6396
15,454.8	86.6349	15,454.8	85.9868	15,454.8	87.2623	15,454.8	84.7822	15,454.8	87.1781	15,454.8	83.9445	15,454.8	86.3689	15,454.8	83.5869	15,454.8	85.7539	15,454.8	82.1216	15,454.8	84.9359	15,454.8	79.3359	15,454.8	83.0457	15,454.8	75.9969	15,454.8	79.8281	15,454.8	71.1924	15,454.8	75.8301	15,454.8	63.5344	15,454.8	71.1024	15,454.8	62.0078	15,454.8	65.6665	15,454.8	60.6006	15,454.8	63.3416	15,454.8	57.7288	15,454.8	61.0986	15,454.8	50.948	15,454.8	55.5516	15,454.8	50.7517	15,454.8	55.5488	15,454.8	41.2038	15,454.8	56.1763	15,454.8	55.5754	15,454.8	52.1137	15,454.8	50.0275	15,454.8	47.0269	15,454.8	49.3778
15,999.8	86.3026	15,999.8	85.634	15,999.8	86.7539	15,999.8	84.8766	15,999.8	86.9893	15,999.8	83.9048	15,999.8	86.3114	15,999.8	83.4544	15,999.8	85.66	15,999.8	81.819	15,999.8	84.4526	15,999.8	78.5789	15,999.8	82.5064	15,999.8	75.318	15,999.8	78.9331	15,999.8	70.7836	15,999.8	75.1286	15,999.8	62.7495	15,999.8	70.1389	15,999.8	61.7485	15,999.8	63.8817	15,999.8	58.0625	15,999.8	62.4628	15,999.8	55.9463	15,999.8	58.9219	15,999.8	38.6521	15,999.8	55.3549	15,999.8	47.7829	15,999.8	53.7317	15,999.8	44.7918	15,999.8	53.7909	15,999.8	52.8014	15,999.8	50.294	15,999.8	50.7282	15,999.8	49.7009	15,999.8	45.4406
16,564.5	86.3527	16,564.5	85.8999	16,564.5	86.6105	16,564.5	85.3362	16,564.5	86.9259	16,564.5	84.2834	16,564.5	86.292	16,564.5	82.9037	16,564.5	85.4805	16,564.5	81.3031	16,564.5	83.9791	16,564.5	77.2299	16,564.5	81.7143	16,564.5	73.1654	16,564.5	77.6066	16,564.5	69.0252	16,564.5	73.2029	16,564.5	60.6544	16,564.5	67.8003	16,564.5	60.1454	16,564.5	63.1684	16,564.5	56.2104	16,564.5	60.0581	16,564.5	53.474	16,564.5	58.184	16,564.5	38.8651	16,564.5	54.0296	16,564.5	45.9789	16,564.5	52.6489	16,564.5	45.5359	16,564.5	53.7676	16,564.5	48.5344	16,564.5	46.9171	16,564.5	46.1236	16,564.5	48.5414	16,564.5	41.4609
17,148.2	87.0992	17,148.2	86.6453	17,148.2	87.1659	17,148.2	85.9351	17,148.2	87.1866	17,148.2	84.5338	17,148.2	86.3158	17,148.2	82.371	17,148.2	85.3695	17,148.2	80.0493	17,148.2	83.5163	17,148.2	75.2455	17,148.2	80.6256	17,148.2	69.8875	17,148.2	75.8341	17,148.2	66.0849	17,148.2	71.3114	17,148.2	58.7154	17,148.2	66.0443	17,148.2	57.5292	17,148.2	60.5747	17,148.2	53.6608	17,148.2	57.5432	17,148.2	49.5952	17,148.2	55.833	17,148.2	36.1453	17,148.2	53.0883	17,148.2	42.6706	17,148.2	51.7248	17,148.2	41.5463	17,148.2	53.5312	17,148.2	42.0724	17,148.2	40.7151	17,148.2	34.7959	17,148.2	43.8415	17,148.2	40.0178
17,753.2	87.4905	17,753.2	87.1409	17,753.2	87.4245	17,753.2	86.1324	17,753.2	87.2494	17,753.2	84.4854	17,753.2	86.1351	17,753.2	81.5776	17,753.2	84.7572	17,753.2	78.4898	17,753.2	82.4379	17,753.2	72.4171	17,753.2	79.0269	17,753.2	67.1041	17,753.2	73.5183	17,753.2	63.7034	17,753.2	69.3022	17,753.2	57.117	17,753.2	64.7581	17,753.2	55.359	17,753.2	59.2373	17,753.2	49.2739	17,753.2	55.3767	17,753.2	45.8162	17,753.2	55.9434	17,753.2	39.9383	17,753.2	53.9513	17,753.2	40.7395	17,753.2	51.8469	17,753.2	44.7795	17,753.2	53.5253	17,753.2	39.7192	17,753.2	41.536	17,753.2	34.5022	17,753.2	43.2134	17,753.2	41.4899
18,379.4	87.0004	18,379.4	86.596	18,379.4	86.9445	18,379.4	85.4631	18,379.4	86.5723	18,379.4	83.5358	18,379.4	85.2966	18,379.4	80.0838	18,379.4	83.6141	18,379.4	76.6545	18,379.4	80.9258	18,379.4	69.5921	18,379.4	76.9424	18,379.4	64.4047	18,379.4	71.41	18,379.4	59.0568	18,379.4	67.119	18,379.4	54.5935	18,379.4	62.6774	18,379.4	53.0714	18,379.4	55.21	18,379.4	45.9456	18,379.4	54.2153	18,379.4	41.6748	18,379.4	54.5716	18,379.4	42.897	18,379.4	51.6287	18,379.4	40.1624	18,379.4	49.9362	18,379.4	44.8439	18,379.4	52.0461	18,379.4	41.6996	18,379.4	26.8263	18,379.4	42.2956	18,379.4	40.2746	18,379.4	40.1039
19,027.6	86.634	19,027.6	86.0624	19,027.6	86.6562	19,027.6	84.4746	19,027.6	86.0564	19,027.6	82.1493	19,027.6	84.4798	19,027.6	78.4719	19,027.6	82.6409	19,027.6	74.0094	19,027.6	79.3093	19,027.6	65.3702	19,027.6	74.6273	19,027.6	59.877	19,027.6	68.2859	19,027.6	57.7877	19,027.6	65.4525	19,027.6	51.2846	19,027.6	62.4115	19,027.6	52.8197	19,027.6	54.5895	19,027.6	42.3445	19,027.6	53.8719	19,027.6	42.5975	19,027.6	54.7227	19,027.6	43.2006	19,027.6	53.0524	19,027.6	40.2152	19,027.6	50.5081	19,027.6	45.5261	19,027.6	52.3308	19,027.6	44.464	19,027.6	41.2062	19,027.6	47.4192	19,027.6	46.6455	19,027.6	43.4605
19,698.5	86.4163	19,698.5	85.6757	19,698.5	86.4146	19,698.5	83.8686	19,698.5	85.6065	19,698.5	80.9716	19,698.5	83.6725	19,698.5	76.5982	19,698.5	81.3708	19,698.5	71.2054	19,698.5	77.7174	19,698.5	63.4616	19,698.5	72.0955	19,698.5	59.7161	19,698.5	65.5416	19,698.5	56.5033	19,698.5	65.5997	19,698.5	50.5868	19,698.5	63.114	19,698.5	50.8026	19,698.5	52.6293	19,698.5	39.2001	19,698.5	55.4378	19,698.5	39.8755	19,698.5	55.3035	19,698.5	43.4267	19,698.5	52.9809	19,698.5	38.8193	19,698.5	50.2037	19,698.5	46.0904	19,698.5	52.9572	19,698.5	45.6198	19,698.5	44.1214	19,698.5	48.6782	19,698.5	46.85	19,698.5	44.7062
19,999.5	86.2225	19,999.5	85.5171	19,999.5	86.0555	19,999.5	83.2377	19,999.5	85.0985	19,999.5	80.259	19,999.5	83.0222	19,999.5	75.9962	19,999.5	80.639	19,999.5	70.0129	19,999.5	76.5425	19,999.5	62.6771	19,999.5	70.7172	19,999.5	58.976	19,999.5	64.8569	19,999.5	55.4484	19,999.5	66.054	19,999.5	48.5587	19,999.5	63.818	19,999.5	50.4322	19,999.5	52.6722	19,999.5	44.4772	19,999.5	56.9158	19,999.5	31.6873	19,999.5	52.0212	19,999.5	47.6386	19,999.5	54.1641	19,999.5	43.7982	19,999.5	45.9158	19,999.5	44.2192	19,999.5	53.6144	19,999.5	47.2396	19,999.5	47.4151	19,999.5	48.2712	19,999.5	42.3543	19,999.5	42.6779
