Freq[Hz]     dBSPL  Phase[Deg]
5.00000    -27.908  -155.562
5.07273    -27.019  -151.468
5.14651    -26.205  -148.885
5.22137    -25.631  -150.355
5.29732    -25.057  -151.825
5.37437    -24.483  -153.295
5.45254    -23.888  -154.813
5.53185    -23.582  -157.039
5.61231    -23.585  -160.007
5.69394    -23.587  -162.974
5.77676    -23.572  -165.949
5.86079    -23.564  -168.909
5.94604    -24.450  -170.878
6.03252    -25.337  -172.846
6.12027    -26.204  -174.787
6.20929    -27.064  -176.719
6.29961    -28.525  -163.711
6.39124    -30.120  -147.390
6.48420    -31.691  -130.989
6.57851    -33.263  -114.587
6.67420    -31.185  -105.278
6.77128    -28.507   -97.071
6.86977    -25.817   -88.798
6.96969    -23.298   -81.943
7.07107    -22.066   -85.869
7.17392    -20.821   -89.660
7.27827    -19.576   -93.451
7.38413    -18.905   -98.280
7.49154    -18.670  -103.779
7.60050    -18.434  -109.251
7.71105    -18.446  -114.846
7.82321    -19.548  -120.853
7.93701    -20.649  -126.820
8.05245    -21.751  -132.787
8.16958    -26.720   158.032
8.28841    -31.834    86.514
8.40896    -36.948    14.997
8.53128    -31.443     4.655
8.65537    -24.567     2.189
8.78126    -17.694    -0.241
8.90899    -15.563    -8.046
9.03857    -13.742   -16.209
9.17004    -12.070   -24.540
9.30342    -11.502   -34.739
9.43874    -10.936   -44.927
9.57603    -10.772   -57.149
9.71532    -11.196   -72.594
9.85663    -11.635   -87.999
10.0000    -11.866  -113.805
10.1455    -12.046  -142.504
10.2930    -11.630  -170.263
10.4427     -9.510   164.555
10.5946     -7.411   139.367
10.7487     -5.536   122.764
10.9051     -3.725   107.841
11.0637     -2.277    94.401
11.2246     -1.223    82.483
11.3879     -0.314    70.706
11.5535      0.077    59.437
11.7216      0.452    48.133
11.8921      0.180    36.470
12.0650     -0.097    24.769
12.2405     -1.090    11.579
12.4186     -2.176    -1.827
12.5992     -4.210   -20.442
12.7825     -6.455   -40.209
12.9684     -8.204   -78.209
13.1570     -9.836  -120.452
13.3484     -7.779  -154.425
13.5426     -5.120   172.900
13.7395     -3.168   156.317
13.9394     -1.339   140.825
14.1421     -0.303   129.617
14.3478      0.578   119.117
14.5565      1.098   110.343
14.7683      1.464   102.603
14.9831      1.722    95.657
15.2010      1.886    89.763
15.4221      2.039    84.110
15.6464      2.160    78.785
15.8740      2.219    73.430
16.1049      2.236    68.080
16.3392      2.024    63.234
16.5768      1.692    59.397
16.8179      1.195    56.985
17.0626      0.737    59.202
17.3107      0.653    63.821
17.5625      1.132    71.172
17.8180      2.664    75.683
18.0771      4.363    77.139
18.3401      6.119    75.448
18.6068      7.584    70.931
18.8775      8.739    65.969
19.1521      9.652    61.345
19.4306     10.348    57.633
19.7133     10.926    56.064
20.0000     11.626    56.226
20.2909     12.530    57.110
20.5860     13.655    57.850
20.8855     14.939    57.488
21.1893     16.203    55.389
21.4975     17.316    52.364
21.8102     18.261    49.074
22.1274     19.064    46.062
22.4492     19.785    43.726
22.7758     20.517    42.175
23.1071     21.345    41.130
23.4432     22.309    39.994
23.7841     23.370    38.164
24.1301     24.443    35.541
24.4811     25.473    32.378
24.8372     26.440    29.040
25.1984     27.359    25.860
25.5649     28.267    23.023
25.9368     29.200    20.532
26.3141     30.180    18.250
26.6968     31.207    16.011
27.0851     32.265    13.706
27.4791     33.339    11.291
27.8788     34.413     8.765
28.2843     35.477     6.142
28.6957     36.520     3.425
29.1131     37.536     0.622
29.5365     38.519    -2.225
29.9661     39.472    -5.072
30.4020     40.405    -7.909
30.8442     41.335   -10.786
31.2929     42.267   -13.785
31.7480     43.201   -16.984
32.2098     44.132   -20.414
32.6783     45.055   -24.103
33.1536     45.965   -28.003
33.6359     46.861   -32.061
34.1251     47.742   -36.231
34.6215     48.609   -40.455
35.1250     49.468   -44.696
35.6359     50.318   -48.984
36.1543     51.155   -53.319
36.6802     51.974   -57.706
37.2137     52.766   -62.102
37.7550     53.536   -66.488
38.3041     54.286   -70.899
38.8613     55.017   -75.377
39.4265     55.717   -79.930
40.0000     56.394   -84.501
40.5818     57.055   -89.074
41.1721     57.711   -93.723
41.7710     58.353   -98.507
42.3785     58.953  -103.362
42.9949     59.512  -108.049
43.6203     60.052  -112.417
44.2548     60.606  -116.492
44.8985     61.174  -120.479
45.5515     61.733  -124.455
46.2141     62.264  -128.347
46.8863     62.772  -132.079
47.5683     63.266  -135.696
48.2602     63.743  -139.313
48.9621     64.193  -142.970
49.6743     64.613  -146.653
50.3968     65.005  -150.361
51.1299     65.376  -154.112
51.8736     65.726  -157.895
52.6281     66.061  -161.672
53.3936     66.388  -165.418
54.1702     66.710  -169.109
54.9581     67.031  -172.691
55.7575     67.351  -176.123
56.5685     67.667  -179.387
57.3914     67.968   177.540
58.2261     68.241   174.677
59.0730     68.471   172.079
59.9323     68.655   169.765
60.8040     68.800   167.674
61.6884     68.912   165.620
62.5857     68.990   163.459
63.4960     69.041   161.148
64.4196     69.086   158.694
65.3566     69.147   156.138
66.3073     69.237   153.558
67.2717     69.357   151.059
68.2502     69.495   148.841
69.2429     69.647   147.044
70.2501     69.800   145.645
71.2719     69.928   144.562
72.3086     70.023   143.601
73.3603     70.068   142.594
74.4274     70.085   141.494
75.5099     70.097   140.195
76.6083     70.112   138.877
77.7226     70.170   137.826
78.8531     70.285   137.077
80.0000     70.438   136.706
81.1636     70.594   136.630
82.3442     70.713   136.793
83.5419     70.789   137.018
84.7570     70.820   137.108
85.9899     70.825   137.030
87.2406     70.827   136.928
88.5096     70.863   136.934
89.7970     70.931   137.008
91.1031     70.999   137.144
92.4282     71.033   137.337
93.7726     71.018   137.593
95.1366     70.959   138.070
96.5204     70.921   138.837
97.9243     70.918   139.726
99.3486     70.949   140.793
100.794     70.992   141.957
102.260     71.034   143.229
103.747     71.059   144.559
105.256     71.074   145.986
106.787     71.086   147.492
108.340     71.083   149.035
109.916     71.043   150.666
111.515     70.975   152.595
113.137     70.934   154.682
114.783     70.910   156.782
116.452     70.887   159.010
118.146     70.869   161.511
119.865     70.853   164.182
121.608     70.825   166.987
123.377     70.802   170.032
125.171     70.788   172.577
126.992     70.781   175.591
128.839     70.771   178.611
130.713     70.745  -178.383
132.615     70.698  -174.782
134.543     70.658  -171.498
136.500     70.636  -168.153
138.486     70.611  -164.178
140.500     70.561  -160.375
142.544     70.514  -156.568
144.617     70.487  -152.660
146.721     70.441  -148.078
148.855     70.430  -143.372
151.020     70.454  -138.932
153.217     70.441  -134.702
155.445     70.422  -130.289
157.706     70.404  -125.815
160.000     70.232  -121.664
162.327     70.088  -116.315
164.688     70.072  -109.708
167.084     70.113  -103.496
169.514     70.177   -98.962
171.980     70.034   -94.655
174.481     69.863   -88.418
177.019     69.800   -81.665
179.594     69.778   -75.199
182.206     69.732   -68.209
184.856     69.758   -61.265
187.545     69.787   -54.664
190.273     69.810   -48.105
193.041     69.829   -41.872
195.849     69.819   -35.038
198.697     69.873   -28.283
201.587     69.847   -21.732
204.520     69.681   -14.524
207.494     69.555    -6.564
210.512     69.505     1.713
213.574     69.488     9.520
216.681     69.370    17.350
219.833     69.369    26.120
223.030     69.366    34.972
226.274     69.421    43.592
229.565     69.494    51.967
232.905     69.426    60.155
236.292     69.312    69.128
239.729     69.271    78.497
243.216     69.304    88.550
246.754     69.317    97.379
250.343     69.214   106.111
253.984     69.110   116.388
257.678     69.063   126.793
261.426     69.049   136.914
265.229     69.013   147.312
269.087     68.946   157.259
273.001     68.772   168.311
276.972     68.717  -179.650
281.000     68.735  -168.191
285.088     68.708  -156.649
289.234     68.700  -145.357
293.441     68.702  -134.065
297.709     68.648  -122.184
302.040     68.504  -110.514
306.433     68.232   -98.205
310.890     68.113   -84.651
315.412     68.051   -71.375
320.000     67.955   -57.725
324.655     67.835   -44.470
329.377     67.653   -29.980
334.168     67.545   -14.564
339.028     67.461     1.479
343.959     67.853    16.406
348.962     67.843    29.460
354.038     67.662    44.583
359.188     67.643    60.625
364.412     67.642    76.426
369.713     67.584    92.300
375.090     67.554   109.560
380.546     67.672   126.792
386.081     67.796   143.325
391.697     67.746   160.477
397.394     67.894   177.803
403.175     67.930  -165.051
409.039     67.990  -146.567
414.989     68.162  -127.984
421.025     68.394  -110.189
427.149     68.413   -93.056
433.362     68.450   -74.054
439.665     68.621   -55.091
446.060     68.812   -36.971
452.548     68.853   -19.004
459.131     68.927    -0.407
465.809     68.925    18.360
472.584     68.909    37.344
479.458     68.928    56.653
486.432     68.848    76.053
493.507     68.739    95.791
500.686     68.615   115.272
507.968     68.400   135.378
515.357     68.158   156.165
522.853     67.833   177.771
530.458     67.473  -159.954
538.174     67.073  -137.190
546.002     66.643  -113.949
553.943     66.171   -89.640
562.001     65.689   -64.149
570.175     65.208   -37.811
578.469     64.772   -10.194
586.883     64.424    18.927
595.419     64.214    49.200
604.080     64.176    80.468
612.866     64.346   111.604
621.780     64.693   142.784
630.824     65.177   173.679
640.000     65.739  -156.387
649.309     66.336  -126.921
658.753     66.943   -97.431
668.335     67.515   -68.620
678.056     68.030   -40.470
687.919     68.496   -11.873
697.925     68.898    16.759
708.077     69.220    45.158
718.376     69.477    73.783
728.825     69.655   102.760
739.426     69.762   132.173
750.181     69.783   162.061
761.093     69.733  -167.506
772.163     69.603  -136.434
783.394     69.405  -104.615
794.789     69.119   -72.004
806.349     68.782   -38.933
818.078     68.379    -4.384
829.977     67.943    31.329
842.050     67.507    67.799
854.298     67.081   106.073
866.724     66.719   145.583
879.330     66.462  -173.919
892.120     66.333  -132.551
905.097     66.320   -90.895
918.262     66.430   -49.202
931.618     66.591    -7.631
945.169     66.766    34.214
958.917     66.905    75.867
972.864     66.973   117.439
987.015     66.930   159.246
1001.37     66.762  -158.700
1015.94     66.461  -115.378
1030.71     66.017   -70.968
1045.71     65.436   -25.161
1060.92     64.783    23.181
1076.35     64.142    73.984
1092.00     63.691   127.337
1107.89     63.609  -177.399
1124.00     63.965  -122.051
1140.35     64.681   -67.303
1156.94     65.567   -13.931
1173.77     66.442    37.713
1190.84     67.187    88.474
1208.16     67.770   138.486
1225.73     68.153  -171.905
1243.56     68.336  -121.713
1261.65     68.303   -71.163
1280.00     68.058   -19.494
1298.62     67.610    33.598
1317.51     66.977    88.581
1336.67     66.177   145.312
1356.11     65.304  -155.759
1375.84     64.441   -93.967
1395.85     63.712   -29.412
1416.15     63.259    37.033
1436.75     63.078   104.423
1457.65     63.077   171.221
1478.85     63.134  -122.247
1500.36     63.149   -55.646
1522.19     63.070    10.829
1544.33     62.898    78.484
1566.79     62.645   146.985
1589.58     62.315  -144.333
1612.70     61.912   -74.934
1636.16     61.318    -4.433
1659.95     60.470    66.825
1684.10     59.233   138.818
1708.60     57.478  -145.588
1733.45     55.188   -63.865
1758.66     53.005    28.037
1784.24     52.656   129.671
1810.19     54.261  -134.941
1836.52     56.005   -49.492
1863.24     57.016    30.985
1890.34     57.297   111.568
1917.83     56.920  -166.267
1945.73     56.029   -80.897
1974.03     55.005    10.301
2002.74     54.379   107.009
2031.87     54.344  -155.284
2061.43     54.595   -58.833
2091.41     54.721    37.825
2121.83     54.636   135.753
2152.69     54.689  -123.788
2184.01     55.114   -22.447
2215.77     55.750    77.515
2248.00     56.143   174.745
2280.70     56.005   -88.215
2313.87     55.137    11.827
2347.53     53.779   117.078
2381.68     52.650  -129.746
2416.32     52.576   -13.687
2451.46     52.993    97.938
2487.12     52.891  -154.182
2523.30     51.733   -44.934
2560.00     49.520    72.776
2597.24     47.890  -153.590
2635.01     48.912   -17.901
2673.34     50.495   105.610
2712.23     51.121  -136.079
2751.68     50.717   -15.369
2791.70     50.024   112.197
2832.31     49.770  -115.428
2873.50     49.851    15.803
2915.30     49.509   146.186
2957.70     48.486   -78.913
3000.72     47.734    65.489
3044.37     48.332  -146.744
3088.65     49.687    -4.881
3133.58     50.579   131.853
3179.16     50.709   -91.742
3225.40     50.166    47.777
3272.31     49.200  -169.058
3319.91     48.122   -22.605
3368.20     46.800   125.747
3417.19     44.577   -83.871
3466.89     40.942    74.946
3517.32     37.354  -105.430
3568.48     36.646    85.041
3620.39     36.855   -90.108
3673.05     38.511    99.411
3726.47     40.942   -85.126
3780.67     41.549    90.404
3835.67     42.516   -81.358
3891.46     45.660   100.004
3948.06     47.537   -91.110
4005.49     46.998    83.236
4063.75     46.620   -82.805
4122.86     49.045   108.018
4182.82     50.654   -74.367
4243.66     50.216   106.405
4305.39     49.444   -62.050
4368.01     49.042   129.987
4431.55     46.998   -34.594
4496.01     45.835  -172.979
4561.40     48.962    36.426
4627.75     50.079  -134.218
4695.06     48.692    60.539
4763.35     47.329   -94.765
4832.64     45.653   102.216
4902.93     37.874   -52.545
4974.24     37.835  -118.691
5046.60     44.524    83.696
5120.00     44.276   -76.934
5194.47     43.376   150.924
5270.03     45.724    18.055
5346.68     46.673  -121.155
5424.45     46.807   111.804
5503.35     47.388   -12.246
5583.40     46.718  -131.235
5664.61     46.609   125.180
5747.01     47.396    20.358
5830.60     47.662   -83.068
5915.41     47.167   176.688
6001.45     46.065    89.251
6088.74     46.696     4.775
6177.30     45.396   -82.272
6267.15     44.924  -149.981
6358.31     44.351   129.947
6450.80     42.021    79.868
6544.62     43.723    14.013
6639.82     39.451   -38.947
6736.40     40.955   -66.692
6834.38     40.781  -114.129
6933.79     38.837  -144.857
7034.64     42.118  -145.768
7136.96     46.014   161.347
7240.77     44.750   131.237
7346.09     45.601   102.257
7452.94     43.175    90.852
7561.35     44.221    90.535
7671.33     45.562    92.314
7782.91     46.961    83.604
7896.12     46.946    86.707
8010.97     47.553    96.002
8127.49     47.932   106.769
8245.71     48.750   127.491
8365.65     48.240   138.966
8487.33     47.585   177.010
8610.78     47.073  -147.666
8736.03     47.956  -103.820
8863.09     47.911   -56.684
8992.01     46.834   -12.211
9122.80     46.044    56.310
9255.50     44.957   141.108
9390.12     47.772  -148.892
9526.70     47.854   -67.331
9665.27     48.852    20.077
9805.86     49.932   108.267
9948.49     51.171  -157.303
10093.2     52.283   -55.665
10240.0     53.608    42.989
10388.9     53.803   146.087
10540.1     53.587  -106.597
10693.4     50.870    12.178
10848.9     48.544   148.023
11006.7     46.330   -66.856
11166.8     44.322    90.109
11329.2     42.420   -99.805
11494.0     39.958    81.973
11661.2     40.869   -90.580
11830.8     39.748    89.338
12002.9     39.731   -72.612
12177.5     38.947   122.314
12354.6     37.769   -36.715
12534.3     36.853   168.256
12716.6     36.068    -2.848
12901.6     28.588  -174.868
13089.2     26.841    67.653
13279.6     29.285   -79.767
13472.8     29.841   145.387
13668.8     28.711    16.154
13867.6     26.583   -80.665
14069.3     24.632   176.169
14273.9     19.613   110.314
14481.5     20.402    90.501
14692.2     24.751     0.877
14905.9     25.216   -76.710
15122.7     31.946  -138.133
15342.7     33.085  -179.923
15565.8     34.580   172.702
15792.2     35.209   179.186
16021.9     36.078  -168.350
16255.0     35.186  -148.245
16491.4     34.372  -110.341
16731.3     33.427   -54.215
16974.7     34.921    11.850
17221.6     37.118    96.508
17472.1     39.086   173.509
17726.2     39.695   -92.946
17984.0     40.132     7.502
18245.6     39.622   114.370
18511.0     39.077  -112.777
18780.2     39.298    31.044
19053.4     39.696  -164.487
19330.5     40.011     6.980
19611.7     40.130  -170.432
19897.0     38.332   -39.009
20186.4     38.106  -106.014
20480.0     37.881  -173.019
20777.9     37.656   119.976
21080.1     37.430    52.971
21386.7     37.205   -14.033
21697.8     36.979   -81.038
22013.4     36.754  -148.043
22333.6     36.529   144.952
22658.4     36.303    77.947
22988.0     36.078    10.942
23322.4     35.853   -56.063
23661.6     35.627  -123.068
24005.8     35.402   169.927
24355.0     35.176   102.922
24709.2     34.951    35.917
25068.6     34.726   -31.088
25433.2     34.500   -98.093
25803.2     34.275  -165.098
26178.5     34.049   127.897
26559.3     33.824    60.893
26945.6     33.599    -6.112
27337.5     33.373   -73.117
27735.2     33.148  -140.122
28138.6     32.923   152.873
28547.9     32.697    85.868
28963.1     32.472    18.863
29384.4     32.246   -48.142
29811.8     32.021  -115.147
30245.4     31.796   177.848
30685.3     31.570   110.843
31131.7     31.345    43.838
31584.5     31.119   -23.167
32043.9     30.894   -90.172
32510.0     30.669  -157.177
32982.8     30.443   135.819
33462.6     30.218    68.814
33949.3     29.993     1.809
34443.1     29.767   -65.196
34944.1     29.542  -132.201
35452.4     29.316   160.794
35968.0     29.091    93.789
36491.2     28.866    26.784
37022.0     28.640   -40.221
37560.5     28.415  -107.226
38106.8     28.189  -174.231
38661.1     27.964   118.764
39223.4     27.739    51.759
39793.9     27.513   -15.246
