"SPL Vertical"
"On-Axis"		"10°"		"-10°"		"20°"		"-20°"		"30°"		"-30°"		"40°"		"-40°"		"50°"		"-50°"		"60°"		"-60°"		"70°"		"-70°"		"80°"		"-80°"		"90°"		"-90°"		"100°"		"-100°"		"110°"		"-110°"		"120°"		"-120°"		"130°"		"-130°"		"140°"		"-140°"		"150°"		"-150°"		"160°"		"-160°"		"170°"		"-170°"		"180°"
"Frequency / Hz"	"Sound Pressure Level / dB (re 20 µPa/V)  [2.83  V @ 1. m]"	"Frequency / Hz"	"Sound Pressure Level / dB (re 20 µPa/V)  [2.83  V @ 1. m]"	"Frequency / Hz"	"Sound Pressure Level / dB (re 20 µPa/V)  [2.83  V @ 1. m]"	"Frequency / Hz"	"Sound Pressure Level / dB (re 20 µPa/V)  [2.83  V @ 1. m]"	"Frequency / Hz"	"Sound Pressure Level / dB (re 20 µPa/V)  [2.83  V @ 1. m]"	"Frequency / Hz"	"Sound Pressure Level / dB (re 20 µPa/V)  [2.83  V @ 1. m]"	"Frequency / Hz"	"Sound Pressure Level / dB (re 20 µPa/V)  [2.83  V @ 1. m]"	"Frequency / Hz"	"Sound Pressure Level / dB (re 20 µPa/V)  [2.83  V @ 1. m]"	"Frequency / Hz"	"Sound Pressure Level / dB (re 20 µPa/V)  [2.83  V @ 1. m]"	"Frequency / Hz"	"Sound Pressure Level / dB (re 20 µPa/V)  [2.83  V @ 1. m]"	"Frequency / Hz"	"Sound Pressure Level / dB (re 20 µPa/V)  [2.83  V @ 1. m]"	"Frequency / Hz"	"Sound Pressure Level / dB (re 20 µPa/V)  [2.83  V @ 1. m]"	"Frequency / Hz"	"Sound Pressure Level / dB (re 20 µPa/V)  [2.83  V @ 1. m]"	"Frequency / Hz"	"Sound Pressure Level / dB (re 20 µPa/V)  [2.83  V @ 1. m]"	"Frequency / Hz"	"Sound Pressure Level / dB (re 20 µPa/V)  [2.83  V @ 1. m]"	"Frequency / Hz"	"Sound Pressure Level / dB (re 20 µPa/V)  [2.83  V @ 1. m]"	"Frequency / Hz"	"Sound Pressure Level / dB (re 20 µPa/V)  [2.83  V @ 1. m]"	"Frequency / Hz"	"Sound Pressure Level / dB (re 20 µPa/V)  [2.83  V @ 1. m]"	"Frequency / Hz"	"Sound Pressure Level / dB (re 20 µPa/V)  [2.83  V @ 1. m]"	"Frequency / Hz"	"Sound Pressure Level / dB (re 20 µPa/V)  [2.83  V @ 1. m]"	"Frequency / Hz"	"Sound Pressure Level / dB (re 20 µPa/V)  [2.83  V @ 1. m]"	"Frequency / Hz"	"Sound Pressure Level / dB (re 20 µPa/V)  [2.83  V @ 1. m]"	"Frequency / Hz"	"Sound Pressure Level / dB (re 20 µPa/V)  [2.83  V @ 1. m]"	"Frequency / Hz"	"Sound Pressure Level / dB (re 20 µPa/V)  [2.83  V @ 1. m]"	"Frequency / Hz"	"Sound Pressure Level / dB (re 20 µPa/V)  [2.83  V @ 1. m]"	"Frequency / Hz"	"Sound Pressure Level / dB (re 20 µPa/V)  [2.83  V @ 1. m]"	"Frequency / Hz"	"Sound Pressure Level / dB (re 20 µPa/V)  [2.83  V @ 1. m]"	"Frequency / Hz"	"Sound Pressure Level / dB (re 20 µPa/V)  [2.83  V @ 1. m]"	"Frequency / Hz"	"Sound Pressure Level / dB (re 20 µPa/V)  [2.83  V @ 1. m]"	"Frequency / Hz"	"Sound Pressure Level / dB (re 20 µPa/V)  [2.83  V @ 1. m]"	"Frequency / Hz"	"Sound Pressure Level / dB (re 20 µPa/V)  [2.83  V @ 1. m]"	"Frequency / Hz"	"Sound Pressure Level / dB (re 20 µPa/V)  [2.83  V @ 1. m]"	"Frequency / Hz"	"Sound Pressure Level / dB (re 20 µPa/V)  [2.83  V @ 1. m]"	"Frequency / Hz"	"Sound Pressure Level / dB (re 20 µPa/V)  [2.83  V @ 1. m]"	"Frequency / Hz"	"Sound Pressure Level / dB (re 20 µPa/V)  [2.83  V @ 1. m]"	"Frequency / Hz"	"Sound Pressure Level / dB (re 20 µPa/V)  [2.83  V @ 1. m]"
20.5078	49.5086	20.5078	49.4461	20.5078	49.4188	20.5078	49.2308	20.5078	49.1724	20.5078	48.8568	20.5078	48.7606	20.5078	48.3127	20.5078	48.1708	20.5078	47.5812	20.5078	47.3884	20.5078	46.6412	20.5078	46.4034	20.5078	45.4752	20.5078	45.2284	20.5078	44.0946	20.5078	43.9461	20.5078	42.6146	20.5078	42.802	20.5078	41.4069	20.5078	42.2459	20.5078	41.1021	20.5078	42.6029	20.5078	41.9232	20.5078	43.6424	20.5078	43.3282	20.5078	44.8786	20.5078	44.7539	20.5078	45.9963	20.5078	45.9524	20.5078	46.8678	20.5078	46.8544	20.5078	47.4541	20.5078	47.4508	20.5078	47.7473	20.5078	47.7468
21.9727	49.4013	21.9727	49.326	21.9727	49.2725	21.9727	49.0418	21.9727	48.9326	21.9727	48.532	21.9727	48.362	21.9727	47.7647	21.9727	47.525	21.9727	46.6876	21.9727	46.3636	21.9727	45.2176	21.9727	44.789	21.9727	43.2308	21.9727	42.6817	21.9727	40.602	21.9727	40.0051	21.9727	37.7101	21.9727	37.6471	21.9727	37.2315	21.9727	38.3686	21.9727	40.0578	21.9727	41.3025	21.9727	43.07	21.9727	44.0304	21.9727	45.4145	21.9727	46.1324	21.9727	47.1605	21.9727	47.692	21.9727	48.4306	21.9727	48.8098	21.9727	49.3076	21.9727	49.5528	21.9727	49.8405	21.9727	49.9611	21.9727	50.0553
23.4375	50.3233	23.4375	50.2492	23.4375	50.2086	23.4375	49.9837	23.4375	49.9003	23.4375	49.5164	23.4375	49.3861	23.4375	48.8298	23.4375	48.6475	23.4375	47.9008	23.4375	47.6637	23.4375	46.7118	23.4375	46.429	23.4375	45.2879	23.4375	45.0103	23.4375	43.8151	23.4375	43.6982	23.4375	42.8567	23.4375	43.1558	23.4375	43.1507	23.4375	43.8891	23.4375	44.5765	23.4375	45.4589	23.4375	46.3484	23.4375	47.1632	23.4375	47.9823	23.4375	48.6642	23.4375	49.3309	23.4375	49.8703	23.4375	50.3738	23.4375	50.774	23.4375	51.1227	23.4375	51.3876	23.4375	51.592	23.4375	51.7239	23.4375	51.7912
24.9023	51.3093	24.9023	51.2037	24.9023	51.1965	24.9023	50.8754	24.9023	50.8565	24.9023	50.3054	24.9023	50.2654	24.9023	49.4566	24.9023	49.3806	24.9023	48.2649	24.9023	48.1312	24.9023	46.6239	24.9023	46.4042	24.9023	44.3643	24.9023	44.0378	24.9023	41.3052	24.9023	40.9909	24.9023	38.2271	24.9023	38.8112	24.9023	39.2023	24.9023	40.7867	24.9023	42.848	24.9023	44.1764	24.9023	45.924	24.9023	46.9243	24.9023	48.2125	24.9023	48.9741	24.9023	49.9041	24.9023	50.4806	24.9023	51.1366	24.9023	51.5554	24.9023	51.9919	24.9023	52.2662	24.9023	52.5164	24.9023	52.6524	24.9023	52.7339
26.3672	51.029	26.3672	50.9223	26.3672	50.9055	26.3672	50.5804	26.3672	50.543	26.3672	49.9846	26.3672	49.9184	26.3672	49.1001	26.3672	48.9934	26.3672	47.8758	26.3672	47.7162	26.3672	46.2584	26.3672	46.0491	26.3672	44.2878	26.3672	44.1152	26.3672	42.5115	26.3672	42.7103	26.3672	42.4717	26.3672	43.3053	26.3672	44.4922	26.3672	45.5228	26.3672	46.9866	26.3672	47.9089	26.3672	49.1657	26.3672	49.9318	26.3672	50.9193	26.3672	51.5394	26.3672	52.2873	26.3672	52.7739	26.3672	53.3189	26.3672	53.6801	26.3672	54.0505	26.3672	54.29	26.3672	54.5051	26.3672	54.6246	26.3672	54.6951
27.832	53.1069	27.832	52.9955	27.832	52.9938	27.832	52.6559	27.832	52.6484	27.832	52.0719	27.832	52.0503	27.832	51.2135	27.832	51.1657	27.832	50.037	27.832	49.9495	27.832	48.4959	27.832	48.3657	27.832	46.6122	27.832	46.4956	27.832	44.7826	27.832	44.9283	27.832	44.2877	27.832	45.0087	27.832	45.8579	27.832	46.8708	27.832	48.2016	27.832	49.1582	27.832	50.3579	27.832	51.1704	27.832	52.1202	27.832	52.7855	27.832	53.5016	27.832	54.0278	27.832	54.5455	27.832	54.9381	27.832	55.2873	27.832	55.5486	27.832	55.7502	27.832	55.8808	27.832	55.9467
29.2969	54.0911	29.2969	53.9758	29.2969	54.0038	29.2969	53.6554	29.2969	53.7092	29.2969	53.1206	29.2969	53.1968	29.2969	52.3577	29.2969	52.4531	29.2969	51.357	29.2969	51.4736	29.2969	50.1414	29.2969	50.2981	29.2969	48.8489	29.2969	49.1037	29.2969	47.8901	29.2969	48.3454	29.2969	47.9049	29.2969	48.5949	29.2969	49.0397	29.2969	49.8332	29.2969	50.7134	29.2969	51.4735	29.2969	52.3936	29.2969	53.0633	29.2969	53.8613	29.2969	54.4251	29.2969	55.0612	29.2969	55.5156	29.2969	55.9916	29.2969	56.3348	29.2969	56.6629	29.2969	56.8931	29.2969	57.0849	29.2969	57.2005	29.2969	57.2636
30.7617	54.5952	30.7617	54.4709	30.7617	54.4892	30.7617	54.1118	30.7617	54.1446	30.7617	53.5002	30.7617	53.5395	30.7617	52.6033	30.7617	52.6361	30.7617	51.3726	30.7617	51.3795	30.7617	49.7546	30.7617	49.7094	30.7617	47.7709	30.7617	47.6529	30.7617	45.8793	30.7617	45.7612	30.7617	45.5369	30.7617	45.6747	30.7617	47.3415	30.7617	47.7292	30.7617	49.7783	30.7617	50.2254	30.7617	51.9445	30.7617	52.3668	30.7617	53.6895	30.7617	54.0597	30.7617	55.046	30.7617	55.3526	30.7617	56.0634	30.7617	56.2995	30.7617	56.779	30.7617	56.9394	30.7617	57.2164	30.7617	57.2976	30.7617	57.3882
32.2266	55.5735	32.2266	55.4629	32.2266	55.47	32.2266	55.1359	32.2266	55.1455	32.2266	54.581	32.2266	54.5841	32.2266	53.7794	32.2266	53.7621	32.2266	52.7118	32.2266	52.6565	32.2266	51.3863	32.2266	51.2783	32.2266	49.9305	32.2266	49.7879	32.2266	48.8068	32.2266	48.7491	32.2266	48.8187	32.2266	49.0205	32.2266	50.1327	32.2266	50.5601	32.2266	51.9893	32.2266	52.4916	32.2266	53.7861	32.2266	54.2729	32.2266	55.3183	32.2266	55.7507	32.2266	56.5517	32.2266	56.912	32.2266	57.4978	32.2266	57.7759	32.2266	58.1741	32.2266	58.3632	32.2266	58.5941	32.2266	58.6898	32.2266	58.7655
33.6914	56.0689	33.6914	55.9289	33.6914	55.9892	33.6914	55.5663	33.6914	55.686	33.6914	54.9725	33.6914	55.1505	33.6914	54.1393	33.6914	54.3751	33.6914	53.0781	33.6914	53.3736	33.6914	51.877	33.6914	52.2381	33.6914	50.8304	33.6914	51.263	33.6914	50.5183	33.6914	51.0057	33.6914	51.3334	33.6914	51.8264	33.6914	52.908	33.6914	53.3689	33.6914	54.6496	33.6914	55.0674	33.6914	56.2459	33.6914	56.618	33.6914	57.5994	33.6914	57.9223	33.6914	58.6947	33.6914	58.9634	33.6914	59.54	33.6914	59.7483	33.6914	60.1461	33.6914	60.2886	33.6914	60.5214	33.6914	60.5938	33.6914	60.6704
35.1562	57.0221	35.1562	56.8922	35.1562	56.9311	35.1562	56.5405	35.1562	56.6143	35.1562	55.9617	35.1562	56.0621	35.1562	55.1529	35.1562	55.267	35.1562	54.1337	35.1562	54.2448	35.1562	53.0029	35.1562	53.0951	35.1562	52.0517	35.1562	52.1304	35.1562	51.8058	35.1562	51.9243	35.1562	52.5931	35.1562	52.8071	35.1562	54.0841	35.1562	54.3815	35.1562	55.7485	35.1562	56.0844	35.1562	57.2906	35.1562	57.6275	35.1562	58.6087	35.1562	58.9209	35.1562	59.6817	35.1562	59.9511	35.1562	60.5132	35.1562	60.7267	35.1562	61.1117	35.1562	61.2594	35.1562	61.4837	35.1562	61.5592	35.1562	61.6329
36.6211	58.9191	36.6211	58.825	36.6211	58.8272	36.6211	58.5474	36.6211	58.5479	36.6211	58.0921	36.6211	58.0832	36.6211	57.4761	36.6211	57.4465	36.6211	56.7468	36.6211	56.6842	36.6211	56.0161	36.6211	55.9161	36.6211	55.497	36.6211	55.3817	36.6211	55.4626	36.6211	55.3901	36.6211	56.0489	36.6211	56.0742	36.6211	57.1109	36.6211	57.2386	36.6211	58.3713	36.6211	58.5684	36.6211	59.6158	36.6211	59.8438	36.6211	60.7311	36.6211	60.9594	36.6211	61.6688	36.6211	61.8748	36.6211	62.4107	36.6211	62.5783	36.6211	62.951	36.6211	63.0689	36.6211	63.2882	36.6211	63.349	36.6211	63.4214
38.0859	60.301	38.0859	60.228	38.0859	60.2002	38.0859	59.9836	38.0859	59.9247	38.0859	59.5731	38.0859	59.4769	38.0859	59.012	38.0859	58.8702	38.0859	58.3402	38.0859	58.1471	38.0859	57.6496	38.0859	57.4123	38.0859	57.1143	38.0859	56.8711	38.0859	56.9715	38.0859	56.7963	38.0859	57.3801	38.0859	57.3375	38.0859	58.2702	38.0859	58.3628	38.0859	59.4101	38.0859	59.594	38.0859	60.5839	38.0859	60.8095	38.0859	61.6613	38.0859	61.891	38.0859	62.5795	38.0859	62.7873	38.0859	63.3115	38.0859	63.4804	38.0859	63.8471	38.0859	63.9655	38.0859	64.1821	38.0859	64.243	38.0859	64.3146
39.5508	61.3043	39.5508	61.2415	39.5508	61.2125	39.5508	61.0275	39.5508	60.9673	39.5508	60.6722	39.5508	60.5773	39.5508	60.1986	39.5508	60.066	39.5508	59.6559	39.5508	59.4882	39.5508	59.1389	39.5508	58.9532	39.5508	58.7992	39.5508	58.636	39.5508	58.8094	39.5508	58.7245	39.5508	59.2597	39.5508	59.289	39.5508	60.0808	39.5508	60.216	39.5508	61.1007	39.5508	61.3047	39.5508	62.1545	39.5508	62.3875	39.5508	63.1331	39.5508	63.3636	39.5508	63.9768	39.5508	64.1827	39.5508	64.6559	39.5508	64.8219	39.5508	65.1562	39.5508	65.2721	39.5508	65.4708	39.5508	65.5303	39.5508	65.5962
41.0156	62.856	41.0156	62.7961	41.0156	62.7643	41.0156	62.5876	41.0156	62.5199	41.0156	62.237	41.0156	62.1253	41.0156	61.7583	41.0156	61.5916	41.0156	61.1823	41.0156	60.9507	41.0156	60.5728	41.0156	60.2757	41.0156	60.0444	41.0156	59.7069	41.0156	59.761	41.0156	59.4466	41.0156	59.8723	41.0156	59.6624	41.0156	60.4072	41.0156	60.3464	41.0156	61.2455	41.0156	61.3184	41.0156	62.2105	41.0156	62.3694	41.0156	63.1581	41.0156	63.3544	41.0156	64.0002	41.0156	64.1956	41.0156	64.6898	41.0156	64.8571	41.0156	65.2031	41.0156	65.3241	41.0156	65.5283	41.0156	65.5915	41.0156	65.659
42.4805	63.2106	42.4805	63.1537	42.4805	63.1283	42.4805	62.9604	42.4805	62.9086	42.4805	62.6397	42.4805	62.5604	42.4805	62.2124	42.4805	62.1065	42.4805	61.7216	42.4805	61.5963	42.4805	61.2477	42.4805	61.1227	42.4805	60.9173	42.4805	60.8302	42.4805	60.8783	42.4805	60.8752	42.4805	61.2234	42.4805	61.3317	42.4805	61.9187	42.4805	62.1276	42.4805	62.8285	42.4805	63.1009	42.4805	63.802	42.4805	64.0973	42.4805	64.7281	42.4805	65.0132	42.4805	65.5397	42.4805	65.7911	42.4805	66.2009	42.4805	66.402	42.4805	66.6928	42.4805	66.8327	42.4805	67.006	42.4805	67.0776	42.4805	67.1351
43.9453	64.3267	43.9453	64.2684	43.9453	64.2461	43.9453	64.074	43.9453	64.0293	43.9453	63.753	43.9453	63.6866	43.9453	63.3272	43.9453	63.2421	43.9453	62.8413	43.9453	62.7468	43.9453	62.377	43.9453	62.2935	43.9453	62.0604	43.9453	62.0219	43.9453	62.035	43.9453	62.0797	43.9453	62.3866	43.9453	62.5329	43.9453	63.0778	43.9453	63.3111	43.9453	63.9754	43.9453	64.2605	43.9453	64.9334	43.9453	65.2334	43.9453	65.8441	43.9453	66.1296	43.9453	66.6426	43.9453	66.8923	43.9453	67.2933	43.9453	67.4923	43.9453	67.7777	43.9453	67.9158	43.9453	68.0861	43.9453	68.1567	43.9453	68.2133
45.4102	65.348	45.4102	65.2943	45.4102	65.2776	45.4102	65.1202	45.4102	65.0864	45.4102	64.8379	45.4102	64.7864	45.4102	64.473	45.4102	64.4048	45.4102	64.0729	45.4102	63.9934	45.4102	63.716	45.4102	63.6394	45.4102	63.5111	45.4102	63.4623	45.4102	63.5688	45.4102	63.5772	45.4102	63.944	45.4102	64.0282	45.4102	64.5981	45.4102	64.754	45.4102	65.4231	45.4102	65.6291	45.4102	66.3007	45.4102	66.5293	45.4102	67.1392	45.4102	67.3652	45.4102	67.879	45.4102	68.0822	45.4102	68.4852	45.4102	68.6504	45.4102	68.938	45.4102	69.054	45.4102	69.226	45.4102	69.2858	45.4102	69.3429
46.875	66.4192	46.875	66.3707	46.875	66.3525	46.875	66.2109	46.875	66.1749	46.875	65.9529	46.875	65.9002	46.875	65.6235	46.875	65.5575	46.875	65.27	46.875	65.1993	46.875	64.9672	46.875	64.9083	46.875	64.8135	46.875	64.7907	46.875	64.9032	46.875	64.9417	46.875	65.2794	46.875	65.3917	46.875	65.9056	46.875	66.0839	46.875	66.6869	46.875	66.9091	46.875	67.5184	46.875	67.758	46.875	68.3158	46.875	68.5491	46.875	69.0227	46.875	69.2307	46.875	69.6044	46.875	69.7725	46.875	70.0404	46.875	70.1581	46.875	70.3188	46.875	70.3794	46.875	70.4329
48.3398	67.4763	48.3398	67.4341	48.3398	67.4207	48.3398	67.2987	48.3398	67.2718	48.3398	67.0846	48.3398	67.0448	48.3398	66.8199	48.3398	66.7693	48.3398	66.5504	48.3398	66.4951	48.3398	66.3422	48.3398	66.2946	48.3398	66.2747	48.3398	66.2533	48.3398	66.4167	48.3398	66.4411	48.3398	66.7947	48.3398	66.8762	48.3398	67.3762	48.3398	67.5121	48.3398	68.0866	48.3398	68.2622	48.3398	68.8414	48.3398	69.0365	48.3398	69.5694	48.3398	69.7638	48.3398	70.2192	48.3398	70.3956	48.3398	70.7572	48.3398	70.9016	48.3398	71.1622	48.3398	71.2642	48.3398	71.4209	48.3398	71.4736	48.3398	71.5259
51.2695	69.9328	51.2695	69.899	51.2695	69.894	51.2695	69.7965	51.2695	69.7869	51.2695	69.6375	51.2695	69.6249	51.2695	69.445	51.2695	69.4325	51.2695	69.2546	51.2695	69.2478	51.2695	69.1147	51.2695	69.1229	51.2695	69.0812	51.2695	69.1161	51.2695	69.2028	51.2695	69.2757	51.2695	69.5024	51.2695	69.6189	51.2695	69.9646	51.2695	70.1217	51.2695	70.5418	51.2695	70.7279	51.2695	71.1717	51.2695	71.3708	51.2695	71.7948	51.2695	71.9899	51.2695	72.3628	51.2695	72.5385	51.2695	72.8411	51.2695	72.9844	51.2695	73.2057	51.2695	73.3068	51.2695	73.4412	51.2695	73.4934	51.2695	73.5384
52.7344	71.1744	52.7344	71.1443	52.7344	71.1381	52.7344	71.0514	52.7344	71.0391	52.7344	70.9073	52.7344	70.8894	52.7344	70.7325	52.7344	70.7109	52.7344	70.5589	52.7344	70.5376	52.7344	70.4291	52.7344	70.4154	52.7344	70.3921	52.7344	70.3965	52.7344	70.4915	52.7344	70.5254	52.7344	70.7501	52.7344	70.8215	52.7344	71.1588	52.7344	71.2682	52.7344	71.6785	52.7344	71.8188	52.7344	72.2547	52.7344	72.4128	52.7344	72.832	52.7344	72.9926	52.7344	73.3637	52.7344	73.512	52.7344	73.8145	52.7344	73.9376	52.7344	74.1596	52.7344	74.2474	52.7344	74.3825	52.7344	74.4281	52.7344	74.4734
54.1992	72.3459	54.1992	72.3211	54.1992	72.3081	54.1992	72.2366	54.1992	72.2111	54.1992	72.1025	54.1992	72.0659	54.1992	71.9367	54.1992	71.8921	54.1992	71.7671	54.1992	71.7203	54.1992	71.6314	54.1992	71.5916	54.1992	71.5741	54.1992	71.5534	54.1992	71.6368	54.1992	71.6484	54.1992	71.8449	54.1992	71.8979	54.1992	72.1959	54.1992	72.292	54.1992	72.6592	54.1992	72.7911	54.1992	73.1862	54.1992	73.3403	54.1992	73.7244	54.1992	73.8841	54.1992	74.2269	54.1992	74.3762	54.1992	74.6574	54.1992	74.7822	54.1992	74.9894	54.1992	75.0788	54.1992	75.2053	54.1992	75.2519	54.1992	75.2944
55.6641	73.3449	55.6641	73.3194	55.6641	73.3088	55.6641	73.2351	55.6641	73.215	55.6641	73.1018	55.6641	73.0745	55.6641	72.9373	55.6641	72.9067	55.6641	72.7691	55.6641	72.7417	55.6641	72.6342	55.6641	72.6194	55.6641	72.5764	55.6641	72.5852	55.6641	72.6363	55.6641	72.6795	55.6641	72.839	55.6641	72.9227	55.6641	73.1822	55.6641	73.3053	55.6641	73.6364	55.6641	73.7898	55.6641	74.1539	55.6641	74.3237	55.6641	74.6832	55.6641	74.8535	55.6641	75.1781	55.6641	75.3339	55.6641	75.6025	55.6641	75.731	55.6641	75.9302	55.6641	76.0214	55.6641	76.1435	55.6641	76.1908	55.6641	76.2319
58.5938	75.1744	58.5938	75.1607	58.5938	75.1502	58.5938	75.1117	58.5938	75.092	58.5938	75.0364	58.5938	75.01	58.5938	74.9507	58.5938	74.9221	58.5938	74.8776	58.5938	74.853	58.5938	74.8458	58.5938	74.8335	58.5938	74.8862	58.5938	74.895	58.5938	75.0242	58.5938	75.0617	58.5938	75.2724	58.5938	75.3422	58.5938	75.6242	58.5938	75.725	58.5938	76.0556	58.5938	76.1802	58.5938	76.5303	58.5938	76.6681	58.5938	77.0087	58.5938	77.1473	58.5938	77.4542	58.5938	77.5815	58.5938	77.8362	58.5938	77.9415	58.5938	78.1312	58.5938	78.2063	58.5938	78.3231	58.5938	78.362	58.5938	78.4014
60.0586	76.3085	60.0586	76.2835	60.0586	76.2998	60.0586	76.2277	60.0586	76.2599	60.0586	76.1501	60.0586	76.1974	60.0586	76.0655	60.0586	76.127	60.0586	75.9949	60.0586	76.07	60.0586	75.9636	60.0586	76.0523	60.0586	75.9985	60.0586	76.1013	60.0586	76.1214	60.0586	76.2393	60.0586	76.3432	60.0586	76.4767	60.0586	76.6588	60.0586	76.8064	60.0586	77.0478	60.0586	77.2055	60.0586	77.479	60.0586	77.6398	60.0586	77.9171	60.0586	78.072	60.0586	78.3282	60.0586	78.4674	60.0586	78.6834	60.0586	78.7974	60.0586	78.9599	60.0586	79.0407	60.0586	79.1412	60.0586	79.1831	60.0586	79.2171
62.9883	78.3059	62.9883	78.2901	62.9883	78.2967	62.9883	78.2521	62.9883	78.2645	62.9883	78.1996	62.9883	78.2167	62.9883	78.1451	62.9883	78.1663	62.9883	78.1057	62.9883	78.1312	62.9883	78.1011	62.9883	78.133	62.9883	78.1517	62.9883	78.194	62.9883	78.2739	62.9883	78.3317	62.9883	78.476	62.9883	78.5538	62.9883	78.7548	62.9883	78.8545	62.9883	79.0952	62.9883	79.2144	62.9883	79.473	62.9883	79.6051	62.9883	79.8592	62.9883	79.9943	62.9883	80.2247	62.9883	80.3513	62.9883	80.5433	62.9883	80.6499	62.9883	80.7932	62.9883	80.8702	62.9883	80.9585	62.9883	80.9989	62.9883	81.0286
64.4531	79.2334	64.4531	79.2224	64.4531	79.2248	64.4531	79.1942	64.4531	79.1987	64.4531	79.1553	64.4531	79.162	64.4531	79.1168	64.4531	79.126	64.4531	79.0929	64.4531	79.1067	64.4531	79.1006	64.4531	79.1227	64.4531	79.1572	64.4531	79.193	64.4531	79.2767	64.4531	79.3321	64.4531	79.4667	64.4531	79.5461	64.4531	79.7249	64.4531	79.8295	64.4531	80.039	64.4531	80.1656	64.4531	80.3882	64.4531	80.5289	64.4531	80.7467	64.4531	80.8907	64.4531	81.088	64.4531	81.2227	64.4531	81.3871	64.4531	81.5005	64.4531	81.6234	64.4531	81.7052	64.4531	81.7809	64.4531	81.8238	64.4531	81.8493
67.3828	81.0345	67.3828	81.0199	67.3828	81.0363	67.3828	80.9943	67.3828	81.0275	67.3828	80.9627	67.3828	81.0136	67.3828	80.9336	67.3828	81.0034	67.3828	80.9186	67.3828	81.0089	67.3828	80.931	67.3828	81.0438	67.3828	80.9848	67.3828	81.1215	67.3828	81.0915	67.3828	81.2524	67.3828	81.2577	67.3828	81.4411	67.3828	81.4826	67.3828	81.6839	67.3828	81.7568	67.3828	81.9686	67.3828	82.0637	67.3828	82.276	67.3828	82.3817	67.3828	82.5831	67.3828	82.6874	67.3828	82.8661	67.3828	82.9583	67.3828	83.1032	67.3828	83.175	67.3828	83.2771	67.3828	83.3225	67.3828	83.3753	67.3828	83.3908
68.8477	81.9165	68.8477	81.9002	68.8477	81.9237	68.8477	81.8764	68.8477	81.9233	68.8477	81.8495	68.8477	81.9196	68.8477	81.8267	68.8477	81.9199	68.8477	81.8177	68.8477	81.9337	68.8477	81.834	68.8477	81.9722	68.8477	81.887	68.8477	82.0466	68.8477	81.9868	68.8477	82.166	68.8477	82.1392	68.8477	82.3348	68.8477	82.3436	68.8477	82.5509	68.8477	82.5927	68.8477	82.8048	68.8477	82.872	68.8477	83.0804	68.8477	83.1625	68.8477	83.3575	68.8477	83.4432	68.8477	83.6146	68.8477	83.693	68.8477	83.8314	68.8477	83.8938	68.8477	83.9909	68.8477	84.0309	68.8477	84.081	68.8477	84.0947
71.7773	83.5927	71.7773	83.5755	71.7773	83.6035	71.7773	83.5532	71.7773	83.6085	71.7773	83.5296	71.7773	83.6106	71.7773	83.5103	71.7773	83.615	71.7773	83.5029	71.7773	83.6287	71.7773	83.5163	71.7773	83.6603	71.7773	83.5596	71.7773	83.7189	71.7773	83.6412	71.7773	83.8126	71.7773	83.7662	71.7773	83.9462	71.7773	83.9352	71.7773	84.1198	71.7773	84.1429	71.7773	84.3274	71.7773	84.3786	71.7773	84.5568	71.7773	84.6264	71.7773	84.7916	71.7773	84.8682	71.7773	85.0128	71.7773	85.0854	71.7773	85.2019	71.7773	85.2609	71.7773	85.3427	71.7773	85.381	71.7773	85.4232	71.7773	85.4364
74.707	84.9233	74.707	84.9097	74.707	84.9331	74.707	84.8935	74.707	84.9396	74.707	84.8778	74.707	84.9447	74.707	84.8669	74.707	84.9524	74.707	84.8668	74.707	84.9683	74.707	84.8844	74.707	84.9993	74.707	84.9268	74.707	85.0528	74.707	85.0005	74.707	85.1356	74.707	85.1099	74.707	85.252	74.707	85.2558	74.707	85.4025	74.707	85.4346	74.707	85.5827	74.707	85.6377	74.707	85.7828	74.707	85.8525	74.707	85.9887	74.707	86.0634	74.707	86.1841	74.707	86.2539	74.707	86.3522	74.707	86.4086	74.707	86.4782	74.707	86.5147	74.707	86.5508	74.707	86.5634
77.6367	85.9191	77.6367	85.9077	77.6367	85.9292	77.6367	85.8962	77.6367	85.9384	77.6367	85.8868	77.6367	85.9483	77.6367	85.8832	77.6367	85.9619	77.6367	85.8899	77.6367	85.9835	77.6367	85.9122	77.6367	86.0186	77.6367	85.9556	77.6367	86.0728	77.6367	86.0251	77.6367	86.1513	77.6367	86.1242	77.6367	86.2575	77.6367	86.2536	77.6367	86.3918	77.6367	86.4106	77.6367	86.5507	77.6367	86.5885	77.6367	86.7261	77.6367	86.7767	77.6367	86.9064	77.6367	86.9623	77.6367	87.0776	77.6367	87.1308	77.6367	87.2249	77.6367	87.2685	77.6367	87.3353	77.6367	87.3637	77.6367	87.3984	77.6367	87.4082
79.1016	86.3178	79.1016	86.3077	79.1016	86.3294	79.1016	86.2998	79.1016	86.3426	79.1016	86.2962	79.1016	86.3588	79.1016	86.2998	79.1016	86.3803	79.1016	86.3141	79.1016	86.4107	79.1016	86.3435	79.1016	86.4542	79.1016	86.3925	79.1016	86.5153	79.1016	86.465	79.1016	86.598	79.1016	86.5639	79.1016	86.7049	79.1016	86.6895	79.1016	86.836	79.1016	86.8395	79.1016	86.9879	79.1016	87.0079	79.1016	87.1534	79.1016	87.1855	79.1016	87.3221	79.1016	87.3603	79.1016	87.4814	79.1016	87.5194	79.1016	87.6179	79.1016	87.6498	79.1016	87.7195	79.1016	87.7406	79.1016	87.7768	79.1016	87.7842
82.0312	87.0109	82.0312	87.001	82.0312	87.0268	82.0312	86.9977	82.0312	87.0488	82.0312	87.002	82.0312	87.0771	82.0312	87.0153	82.0312	87.1128	82.0312	87.0395	82.0312	87.1573	82.0312	87.0768	82.0312	87.2124	82.0312	87.1296	82.0312	87.2804	82.0312	87.2004	82.0312	87.3631	82.0312	87.2908	82.0312	87.462	82.0312	87.4013	82.0312	87.5766	82.0312	87.53	82.0312	87.7047	82.0312	87.673	82.0312	87.8413	82.0312	87.8232	82.0312	87.9788	82.0312	87.9717	82.0312	88.1074	82.0312	88.1077	82.0312	88.2169	82.0312	88.2206	82.0312	88.2972	82.0312	88.3009	82.0312	88.3405	82.0312	88.342
84.9609	87.4858	84.9609	87.4733	84.9609	87.5059	84.9609	87.4687	84.9609	87.5332	84.9609	87.4726	84.9609	87.5671	84.9609	87.4853	84.9609	87.6074	84.9609	87.5075	84.9609	87.6538	84.9609	87.5401	84.9609	87.7067	84.9609	87.5844	84.9609	87.7667	84.9609	87.6418	84.9609	87.8348	84.9609	87.7135	84.9609	87.9118	84.9609	87.7999	84.9609	87.9982	84.9609	87.9004	84.9609	88.0929	84.9609	88.0124	84.9609	88.1934	84.9609	88.1311	84.9609	88.2946	84.9609	88.2495	84.9609	88.3897	84.9609	88.3596	84.9609	88.4707	84.9609	88.4523	84.9609	88.5296	84.9609	88.5199	84.9609	88.5596	84.9609	88.5566
87.8906	87.7042	87.8906	87.6899	87.8906	87.7252	87.8906	87.6825	87.8906	87.7525	87.8906	87.6825	87.8906	87.7857	87.8906	87.6903	87.8906	87.8246	87.8906	87.7067	87.8906	87.8688	87.8906	87.7327	87.8906	87.9185	87.8906	87.7697	87.8906	87.974	87.8906	87.8191	87.8906	88.0357	87.8906	87.8818	87.8906	88.1044	87.8906	87.9584	87.8906	88.1801	87.8906	88.048	87.8906	88.2622	87.8906	88.1485	87.8906	88.3483	87.8906	88.2554	87.8906	88.4345	87.8906	88.3627	87.8906	88.515	87.8906	88.4629	87.8906	88.5829	87.8906	88.5483	87.8906	88.6312	87.8906	88.6117	87.8906	88.6541	87.8906	88.6478
90.8203	87.7052	90.8203	87.6923	90.8203	87.7281	90.8203	87.6897	90.8203	87.7604	90.8203	87.6975	90.8203	87.8014	90.8203	87.7157	90.8203	87.85	90.8203	87.7443	90.8203	87.9053	90.8203	87.7833	90.8203	87.9661	90.8203	87.8327	90.8203	88.0317	90.8203	87.8924	90.8203	88.1012	90.8203	87.9621	90.8203	88.1742	90.8203	88.0413	90.8203	88.25	90.8203	88.1287	90.8203	88.3278	90.8203	88.2221	90.8203	88.4056	90.8203	88.3181	90.8203	88.4809	90.8203	88.4122	90.8203	88.5493	90.8203	88.4988	90.8203	88.606	90.8203	88.572	90.8203	88.6456	90.8203	88.6263	90.8203	88.6638	90.8203	88.6575
95.2148	87.6682	95.2148	87.6609	95.2148	87.6909	95.2148	87.6689	95.2148	87.7279	95.2148	87.6916	95.2148	87.7773	95.2148	87.7274	95.2148	87.8366	95.2148	87.7744	95.2148	87.9029	95.2148	87.83	95.2148	87.973	95.2148	87.8919	95.2148	88.0439	95.2148	87.9577	95.2148	88.1132	95.2148	88.0256	95.2148	88.1791	95.2148	88.094	95.2148	88.2406	95.2148	88.1618	95.2148	88.2974	95.2148	88.228	95.2148	88.3494	95.2148	88.2915	95.2148	88.3961	95.2148	88.3506	95.2148	88.4366	95.2148	88.4034	95.2148	88.4693	95.2148	88.4471	95.2148	88.4917	95.2148	88.4793	95.2148	88.5018	95.2148	88.4978
98.1445	87.6097	98.1445	87.6078	98.1445	87.628	98.1445	87.6222	98.1445	87.6618	98.1445	87.6516	98.1445	87.7088	98.1445	87.6938	98.1445	87.7661	98.1445	87.7458	98.1445	87.83	98.1445	87.8043	98.1445	87.8967	98.1445	87.8661	98.1445	87.9624	98.1445	87.9281	98.1445	88.0242	98.1445	87.9879	98.1445	88.08	98.1445	88.0438	98.1445	88.1287	98.1445	88.0951	98.1445	88.1704	98.1445	88.1413	98.1445	88.2057	98.1445	88.1826	98.1445	88.2355	98.1445	88.2189	98.1445	88.2604	98.1445	88.2497	98.1445	88.2803	98.1445	88.2743	98.1445	88.2943	98.1445	88.2916	98.1445	88.3015	98.1445	88.3007
101.074	87.5456	101.074	87.5514	101.074	87.5575	101.074	87.5744	101.074	87.586	101.074	87.6129	101.074	87.6287	101.074	87.664	101.074	87.6821	101.074	87.7237	101.074	87.742	101.074	87.7879	101.074	87.8039	101.074	87.8521	101.074	87.8635	101.074	87.9124	101.074	87.9173	101.074	87.9658	101.074	87.9628	101.074	88.0102	101.074	87.999	101.074	88.0449	101.074	88.0262	101.074	88.0702	101.074	88.0457	101.074	88.0871	101.074	88.0596	101.074	88.0974	101.074	88.0701	101.074	88.1025	101.074	88.0786	101.074	88.1039	101.074	88.0862	101.074	88.1023	101.074	88.0929	101.074	88.0985
105.469	87.4232	105.469	87.4469	105.469	87.4183	105.469	87.488	105.469	87.4314	105.469	87.5439	105.469	87.4601	105.469	87.6101	105.469	87.5006	105.469	87.6815	105.469	87.5483	105.469	87.7523	105.469	87.5982	105.469	87.8171	105.469	87.6453	105.469	87.8712	105.469	87.6856	105.469	87.911	105.469	87.7164	105.469	87.9348	105.469	87.7364	105.469	87.9423	105.469	87.7463	105.469	87.935	105.469	87.748	105.469	87.9157	105.469	87.745	105.469	87.8882	105.469	87.7409	105.469	87.8564	105.469	87.7392	105.469	87.8242	105.469	87.7427	105.469	87.7948	105.469	87.753	105.469	87.7706
108.398	87.4319	108.398	87.4555	108.398	87.4257	108.398	87.4951	108.398	87.4363	108.398	87.5478	108.398	87.4618	108.398	87.6095	108.398	87.4985	108.398	87.6749	108.398	87.542	108.398	87.7387	108.398	87.5873	108.398	87.7956	108.398	87.6293	108.398	87.8408	108.398	87.6638	108.398	87.8711	108.398	87.6876	108.398	87.8844	108.398	87.6992	108.398	87.8806	108.398	87.699	108.398	87.8613	108.398	87.6891	108.398	87.8298	108.398	87.673	108.398	87.7904	108.398	87.6554	108.398	87.7481	108.398	87.6408	108.398	87.7078	108.398	87.6333	108.398	87.6738	108.398	87.6356	108.398	87.6491
112.793	87.3665	112.793	87.3865	112.793	87.3642	112.793	87.4231	112.793	87.3793	112.793	87.4732	112.793	87.4094	112.793	87.5324	112.793	87.4507	112.793	87.5953	112.793	87.4982	112.793	87.656	112.793	87.5463	112.793	87.7086	112.793	87.5891	112.793	87.7479	112.793	87.6215	112.793	87.7701	112.793	87.6396	112.793	87.7729	112.793	87.6413	112.793	87.756	112.793	87.6268	112.793	87.7215	112.793	87.5984	112.793	87.6735	112.793	87.5608	112.793	87.6176	112.793	87.5199	112.793	87.5607	112.793	87.4826	112.793	87.5097	112.793	87.455	112.793	87.4704	112.793	87.4423	112.793	87.4473
117.188	87.309	117.188	87.3299	117.188	87.3065	117.188	87.3678	117.188	87.3217	117.188	87.4194	117.188	87.3521	117.188	87.4798	117.188	87.3933	117.188	87.5431	117.188	87.4398	117.188	87.6028	117.188	87.4854	117.188	87.6525	117.188	87.5239	117.188	87.6866	117.188	87.5497	117.188	87.7007	117.188	87.5586	117.188	87.6926	117.188	87.5485	117.188	87.6619	117.188	87.5196	117.188	87.6113	117.188	87.4749	117.188	87.5454	117.188	87.4198	117.188	87.4713	117.188	87.3618	117.188	87.3971	117.188	87.3091	117.188	87.3315	117.188	87.2696	117.188	87.2818	117.188	87.2499	117.188	87.2537
120.117	87.2172	120.117	87.2432	120.117	87.2112	120.117	87.2873	120.117	87.2247	120.117	87.346	120.117	87.2554	120.117	87.4143	120.117	87.2992	120.117	87.4858	120.117	87.3506	120.117	87.5539	120.117	87.4032	120.117	87.6118	120.117	87.4503	120.117	87.6536	120.117	87.4857	120.117	87.6748	120.117	87.5046	120.117	87.6727	120.117	87.5041	120.117	87.6467	120.117	87.4837	120.117	87.5993	120.117	87.446	120.117	87.5351	120.117	87.3961	120.117	87.4612	120.117	87.3416	120.117	87.3862	120.117	87.2908	120.117	87.319	120.117	87.2525	120.117	87.2678	120.117	87.2336	120.117	87.2384
124.512	87.1137	124.512	87.1354	124.512	87.1137	124.512	87.1774	124.512	87.1347	124.512	87.2363	124.512	87.1741	124.512	87.307	124.512	87.2272	124.512	87.3831	124.512	87.2881	124.512	87.4573	124.512	87.3496	124.512	87.5224	124.512	87.4044	124.512	87.5716	124.512	87.4457	124.512	87.5993	124.512	87.468	124.512	87.602	124.512	87.4679	124.512	87.5788	124.512	87.4449	124.512	87.5314	124.512	87.4015	124.512	87.4647	124.512	87.3436	124.512	87.3863	124.512	87.2793	124.512	87.3057	124.512	87.2187	124.512	87.2333	124.512	87.1716	124.512	87.1786	124.512	87.1465	124.512	87.1485
128.906	87.0568	128.906	87.0747	128.906	87.0602	128.906	87.1126	128.906	87.0842	128.906	87.1671	128.906	87.126	128.906	87.2331	128.906	87.1809	128.906	87.3041	128.906	87.2424	128.906	87.3727	128.906	87.3032	128.906	87.4317	128.906	87.3554	128.906	87.4739	128.906	87.392	128.906	87.4936	128.906	87.407	128.906	87.4873	128.906	87.397	128.906	87.4538	128.906	87.3614	128.906	87.3952	128.906	87.3031	128.906	87.3168	128.906	87.2284	128.906	87.2269	128.906	87.1469	128.906	87.1361	128.906	87.0696	128.906	87.056	128.906	87.0081	128.906	86.9974	128.906	86.9723	128.906	86.9682
133.301	87.0205	133.301	87.0303	133.301	87.031	133.301	87.0593	133.301	87.0607	133.301	87.1045	133.301	87.1064	133.301	87.1611	133.301	87.1633	133.301	87.2228	133.301	87.2248	133.301	87.2824	133.301	87.2834	133.301	87.3323	133.301	87.3314	133.301	87.3655	133.301	87.3613	133.301	87.3761	133.301	87.3675	133.301	87.3603	133.301	87.3462	133.301	87.3168	133.301	87.297	133.301	87.248	133.301	87.2229	133.301	87.1595	133.301	87.1309	133.301	87.0605	133.301	87.0309	133.301	86.9624	133.301	86.9355	133.301	86.8782	133.301	86.8576	133.301	86.8194	133.301	86.8082	133.301	86.7948
139.16	86.9444	139.16	86.9488	139.16	86.9583	139.16	86.9708	139.16	86.9894	139.16	87.0075	139.16	87.0347	139.16	87.0547	139.16	87.0896	139.16	87.1066	139.16	87.1478	139.16	87.1561	139.16	87.2018	139.16	87.1959	139.16	87.244	139.16	87.2191	139.16	87.2668	139.16	87.2196	139.16	87.2643	139.16	87.1936	139.16	87.2326	139.16	87.1398	139.16	87.1711	139.16	87.0605	139.16	87.0829	139.16	86.9617	139.16	86.9752	139.16	86.8531	139.16	86.859	139.16	86.747	139.16	86.7477	139.16	86.6573	139.16	86.6556	139.16	86.5968	139.16	86.5952	139.16	86.5747
143.555	86.8279	143.555	86.8319	143.555	86.8428	143.555	86.8538	143.555	86.8756	143.555	86.8909	143.555	86.9235	143.555	86.939	143.555	86.9818	143.555	86.9922	143.555	87.0443	143.555	87.0436	143.555	87.1031	143.555	87.0857	143.555	87.1502	143.555	87.1111	143.555	87.1774	143.555	87.1137	143.555	87.1781	143.555	87.089	143.555	87.1481	143.555	87.0357	143.555	87.0863	143.555	86.9559	143.555	86.996	143.555	86.8557	143.555	86.8844	143.555	86.7448	143.555	86.7631	143.555	86.6364	143.555	86.6462	143.555	86.5446	143.555	86.5489	143.555	86.483	143.555	86.4844	143.555	86.4616
147.949	86.8024	147.949	86.8056	147.949	86.8168	147.949	86.8257	147.949	86.8478	147.949	86.8605	147.949	86.8929	147.949	86.9058	147.949	86.9475	147.949	86.9561	147.949	87.0056	147.949	87.0047	147.949	87.0599	147.949	87.0439	147.949	87.1021	147.949	87.0662	147.949	87.1243	147.949	87.0651	147.949	87.1199	147.949	87.036	147.949	87.0843	147.949	86.9772	147.949	87.0166	147.949	86.8908	147.949	86.9198	147.949	86.783	147.949	86.8015	147.949	86.6641	147.949	86.6734	147.949	86.5477	147.949	86.5505	147.949	86.4491	147.949	86.4484	147.949	86.3824	147.949	86.3813	147.949	86.3583
153.809	86.7478	153.809	86.7492	153.809	86.7597	153.809	86.7637	153.809	86.7844	153.809	86.7894	153.809	86.8198	153.809	86.8233	153.809	86.8624	153.809	86.8606	153.809	86.9071	153.809	86.8955	153.809	86.9475	153.809	86.921	153.809	86.976	153.809	86.9299	153.809	86.985	153.809	86.9158	153.809	86.9678	153.809	86.874	153.809	86.9199	153.809	86.8027	153.809	86.84	153.809	86.704	153.809	86.7311	153.809	86.5843	153.809	86.6009	153.809	86.4541	153.809	86.4617	153.809	86.3277	153.809	86.3289	153.809	86.221	153.809	86.2191	153.809	86.149	153.809	86.1471	153.809	86.1227
159.668	86.7157	159.668	86.7008	159.668	86.7441	159.668	86.699	159.668	86.7856	159.668	86.7088	159.668	86.8384	159.668	86.7273	159.668	86.8988	159.668	86.7509	159.668	86.9617	159.668	86.7742	159.668	87.0198	159.668	86.791	159.668	87.0647	159.668	86.7946	159.668	87.0879	159.668	86.7789	159.668	87.0817	159.668	86.7394	159.668	87.0408	159.668	86.6744	159.668	86.9634	159.668	86.586	159.668	86.8522	159.668	86.4805	159.668	86.7147	159.668	86.3684	159.668	86.5632	159.668	86.2635	159.668	86.4136	159.668	86.1812	159.668	86.2828	159.668	86.1354	159.668	86.1866	159.668	86.1361
165.527	86.7598	165.527	86.7594	165.527	86.7729	165.527	86.7712	165.527	86.7986	165.527	86.7934	165.527	86.836	165.527	86.8236	165.527	86.8823	165.527	86.8577	165.527	86.933	165.527	86.8904	165.527	86.9817	165.527	86.9151	165.527	87.0203	165.527	86.9245	165.527	87.0402	165.527	86.912	165.527	87.0337	165.527	86.8727	165.527	86.995	165.527	86.8047	165.527	86.9221	165.527	86.71	165.527	86.8173	165.527	86.5951	165.527	86.6881	165.527	86.471	165.527	86.5468	165.527	86.352	165.527	86.4091	165.527	86.2541	165.527	86.292	165.527	86.192	165.527	86.2109	165.527	86.1763
171.387	86.7546	171.387	86.7517	171.387	86.7649	171.387	86.7562	171.387	86.7824	171.387	86.7672	171.387	86.8059	171.387	86.783	171.387	86.8334	171.387	86.8005	171.387	86.8611	171.387	86.8153	171.387	86.8838	171.387	86.8214	171.387	86.8948	171.387	86.8122	171.387	86.8868	171.387	86.7816	171.387	86.8535	171.387	86.725	171.387	86.79	171.387	86.6405	171.387	86.6954	171.387	86.5302	171.387	86.5728	171.387	86.4006	171.387	86.4303	171.387	86.2627	171.387	86.2805	171.387	86.1306	171.387	86.1393	171.387	86.0204	171.387	86.0234	171.387	85.9468	171.387	85.9473	171.387	85.9209
177.246	86.639	177.246	86.6244	177.246	86.6553	177.246	86.6119	177.246	86.6733	177.246	86.602	177.246	86.6931	177.246	86.5947	177.246	86.7137	177.246	86.5892	177.246	86.7331	177.246	86.583	177.246	86.7473	177.246	86.5719	177.246	86.7505	177.246	86.5503	177.246	86.7357	177.246	86.5122	177.246	86.6964	177.246	86.4526	177.246	86.6277	177.246	86.369	177.246	86.5279	177.246	86.2625	177.246	86.3999	177.246	86.139	177.246	86.2517	177.246	86.0086	177.246	86.0956	177.246	85.8853	177.246	85.9476	177.246	85.7844	177.246	85.8241	177.246	85.7206	177.246	85.7397	177.246	85.7043
183.105	86.6582	183.105	86.6534	183.105	86.6617	183.105	86.6463	183.105	86.6652	183.105	86.636	183.105	86.6698	183.105	86.6214	183.105	86.6756	183.105	86.6011	183.105	86.6807	183.105	86.5724	183.105	86.681	183.105	86.5314	183.105	86.6702	183.105	86.4738	183.105	86.6405	183.105	86.395	183.105	86.584	183.105	86.2923	183.105	86.4949	183.105	86.1655	183.105	86.3711	183.105	86.0183	183.105	86.2155	183.105	85.8587	183.105	86.0369	183.105	85.6991	183.105	85.8494	183.105	85.5547	183.105	85.6709	183.105	85.4418	183.105	85.5204	183.105	85.3751	183.105	85.4147	183.105	85.3649
188.965	86.5885	188.965	86.589	188.965	86.5843	188.965	86.5841	188.965	86.5783	188.965	86.5728	188.965	86.5729	188.965	86.5547	188.965	86.5692	188.965	86.5285	188.965	86.5668	188.965	86.4924	188.965	86.5625	188.965	86.4433	188.965	86.5505	188.965	86.377	188.965	86.5233	188.965	86.2895	188.965	86.4725	188.965	86.1784	188.965	86.3914	188.965	86.0435	188.965	86.2766	188.965	85.8892	188.965	86.1295	188.965	85.7242	188.965	85.957	188.965	85.5617	188.965	85.772	188.965	85.4183	188.965	85.5913	188.965	85.3106	188.965	85.4338	188.965	85.2531	188.965	85.3172	188.965	85.2549
196.289	86.5878	196.289	86.5937	196.289	86.5732	196.289	86.5898	196.289	86.5519	196.289	86.5758	196.289	86.5264	196.289	86.5518	196.289	86.4989	196.289	86.5173	196.289	86.4704	196.289	86.4708	196.289	86.4394	196.289	86.4098	196.289	86.4019	196.289	86.3304	196.289	86.3519	196.289	86.2292	196.289	86.2823	196.289	86.104	196.289	86.1874	196.289	85.9553	196.289	86.0643	196.289	85.7878	196.289	85.9147	196.289	85.6109	196.289	85.7455	196.289	85.4383	196.289	85.5684	196.289	85.2861	196.289	85.3991	196.289	85.1708	196.289	85.2544	196.289	85.1057	196.289	85.1502	196.289	85.0986
203.613	86.4607	203.613	86.4863	203.613	86.4206	203.613	86.4975	203.613	86.3677	203.613	86.4956	203.613	86.3051	203.613	86.4823	203.613	86.2366	203.613	86.4586	203.613	86.1655	203.613	86.424	203.613	86.0935	203.613	86.3759	203.613	86.0194	203.613	86.3104	203.613	85.9398	203.613	86.2228	203.613	85.8496	203.613	86.1094	203.613	85.7446	203.613	85.9695	203.613	85.623	203.613	85.8062	203.613	85.4873	203.613	85.6271	203.613	85.3449	203.613	85.4443	203.613	85.2073	203.613	85.2726	203.613	85.0882	203.613	85.1272	203.613	85.0012	203.613	85.0212	203.613	84.9573	203.613	84.9633
210.938	86.3954	210.938	86.4069	210.938	86.3682	210.938	86.4029	210.938	86.3271	210.938	86.385	210.938	86.2753	210.938	86.3551	210.938	86.2169	210.938	86.3147	210.938	86.1556	210.938	86.2634	210.938	86.0929	210.938	86.1989	210.938	86.0276	210.938	86.1173	210.938	85.9556	210.938	86.0141	210.938	85.8706	210.938	85.8861	210.938	85.7669	210.938	85.7333	210.938	85.6411	210.938	85.5599	210.938	85.4944	210.938	85.3753	210.938	85.3335	210.938	85.1932	210.938	85.1703	210.938	85.0296	210.938	85.0197	210.938	84.9002	210.938	84.8977	210.938	84.8178	210.938	84.8178	210.938	84.7898
218.262	86.2055	218.262	86.2155	218.262	86.1765	218.262	86.2088	218.262	86.1289	218.262	86.1897	218.262	86.0659	218.262	86.1628	218.262	85.9927	218.262	86.1317	218.262	85.9152	218.262	86.0973	218.262	85.8381	218.262	86.0571	218.262	85.7638	218.262	86.0063	218.262	85.6916	218.262	85.9387	218.262	85.6181	218.262	85.8495	218.262	85.5393	218.262	85.737	218.262	85.4524	218.262	85.6044	218.262	85.3574	218.262	85.4595	218.262	85.2581	218.262	85.3142	218.262	85.1612	218.262	85.182	218.262	85.0755	218.262	85.0753	218.262	85.0098	218.262	85.0028	218.262	84.9721	218.262	84.9685
225.586	86.3764	225.586	86.3863	225.586	86.3343	225.586	86.3666	225.586	86.2614	225.586	86.3224	225.586	86.162	225.586	86.2605	225.586	86.0436	225.586	86.1876	225.586	85.9148	225.586	86.1083	225.586	85.7837	225.586	86.0243	225.586	85.6565	225.586	85.9335	225.586	85.5361	225.586	85.8321	225.586	85.4224	225.586	85.7164	225.586	85.3138	225.586	85.5852	225.586	85.2089	225.586	85.4417	225.586	85.1085	225.586	85.2936	225.586	85.0157	225.586	85.1516	225.586	84.9354	225.586	85.027	225.586	84.8725	225.586	84.9284	225.586	84.831	225.586	84.8601	225.586	84.8135	225.586	84.8224
232.91	86.4801	232.91	86.4927	232.91	86.4288	232.91	86.4694	232.91	86.3384	232.91	86.4153	232.91	86.2111	232.91	86.3367	232.91	86.0515	232.91	86.2398	232.91	85.8661	232.91	86.1295	232.91	85.6622	232.91	86.0079	232.91	85.4471	232.91	85.8742	232.91	85.2275	232.91	85.7255	232.91	85.0094	232.91	85.5592	232.91	84.7993	232.91	85.3746	232.91	84.6048	232.91	85.1757	232.91	84.4348	232.91	84.9709	232.91	84.2986	232.91	84.772	232.91	84.2034	232.91	84.5914	232.91	84.1516	232.91	84.438	232.91	84.1411	232.91	84.3162	232.91	84.1674	232.91	84.2262
241.699	86.1266	241.699	86.1003	241.699	86.116	241.699	86.043	241.699	86.0658	241.699	85.9626	241.699	85.9762	241.699	85.8682	241.699	85.85	241.699	85.7676	241.699	85.6912	241.699	85.6656	241.699	85.5044	241.699	85.5619	241.699	85.2932	241.699	85.4519	241.699	85.0609	241.699	85.3276	241.699	84.8105	241.699	85.1811	241.699	84.5479	241.699	85.0078	241.699	84.2832	241.699	84.8085	241.699	84.0323	241.699	84.5903	241.699	83.8154	241.699	84.3654	241.699	83.6519	241.699	84.148	241.699	83.555	241.699	83.9507	241.699	83.5274	241.699	83.7829	241.699	83.563	241.699	83.6513
250.488	86.308	250.488	86.1988	250.488	86.3607	250.488	86.0371	250.488	86.3571	250.488	85.8314	250.488	86.3006	250.488	85.5951	250.488	86.1964	250.488	85.3446	250.488	86.0504	250.488	85.0972	250.488	85.868	250.488	84.8669	250.488	85.6525	250.488	84.6611	250.488	85.4055	250.488	84.4793	250.488	85.1278	250.488	84.3147	250.488	84.822	250.488	84.1583	250.488	84.4957	250.488	84.0033	250.488	84.1644	250.488	83.8476	250.488	83.8514	250.488	83.6945	250.488	83.5839	250.488	83.5502	250.488	83.3854	250.488	83.4223	250.488	83.2672	250.488	83.3186	250.488	83.2262	250.488	83.2487
259.277	86.2988	259.277	86.2292	259.277	86.3207	259.277	86.1141	259.277	86.2969	259.277	85.9597	259.277	86.2328	259.277	85.7753	259.277	86.1355	259.277	85.5723	259.277	86.0123	259.277	85.3612	259.277	85.8686	259.277	85.1499	259.277	85.7061	259.277	84.9418	259.277	85.5228	259.277	84.7362	259.277	85.3142	259.277	84.5305	259.277	85.0768	259.277	84.3231	259.277	84.8114	259.277	84.1165	259.277	84.5262	259.277	83.9182	259.277	84.2376	259.277	83.7397	259.277	83.968	259.277	83.5927	259.277	83.7398	259.277	83.4863	259.277	83.5692	259.277	83.4263	259.277	83.4622	259.277	83.4165
268.066	86.0622	268.066	85.9527	268.066	86.1085	268.066	85.7817	268.066	86.095	268.066	85.5567	268.066	86.0292	268.066	85.2911	268.066	85.9219	268.066	85.004	268.066	85.7845	268.066	84.7176	268.066	85.6269	268.066	84.4529	268.066	85.4546	268.066	84.2244	268.066	85.2676	268.066	84.0361	268.066	85.0614	268.066	83.8811	268.066	84.8308	268.066	83.7465	268.066	84.5739	268.066	83.6203	268.066	84.296	268.066	83.4964	268.066	84.0114	268.066	83.3772	268.066	83.741	268.066	83.2714	268.066	83.5069	268.066	83.191	268.066	83.3265	268.066	83.1473	268.066	83.2078	268.066	83.1501
276.855	86.5078	276.855	86.4464	276.855	86.4936	276.855	86.3062	276.855	86.411	276.855	86.0889	276.855	86.272	276.855	85.8007	276.855	86.092	276.855	85.4526	276.855	85.8885	276.855	85.0598	276.855	85.6783	276.855	84.6414	276.855	85.4732	276.855	84.2205	276.855	85.2776	276.855	83.823	276.855	85.0876	276.855	83.4763	276.855	84.8943	276.855	83.2049	276.855	84.6895	276.855	83.0249	276.855	84.4706	276.855	82.9393	276.855	84.2433	276.855	82.9366	276.855	84.0197	276.855	82.9957	276.855	83.8132	276.855	83.0929	276.855	83.6318	276.855	83.2098	276.855	83.4753	276.855	83.337
287.109	86.2836	287.109	86.2485	287.109	86.2483	287.109	86.1447	287.109	86.1459	287.109	85.978	287.109	85.9845	287.109	85.7584	287.109	85.7774	287.109	85.4988	287.109	85.5425	287.109	85.2133	287.109	85.3003	287.109	84.9154	287.109	85.07	287.109	84.6156	287.109	84.8652	287.109	84.3218	287.109	84.6903	287.109	84.0406	287.109	84.5408	287.109	83.7807	287.109	84.4065	287.109	83.556	287.109	84.2767	287.109	83.3839	287.109	84.1444	287.109	83.2799	287.109	84.0078	287.109	83.2495	287.109	83.8695	287.109	83.2844	287.109	83.733	287.109	83.3666	287.109	83.6011	287.109	83.4768
297.363	86.7461	297.363	86.7348	297.363	86.6707	297.363	86.6382	297.363	86.5101	297.363	86.4598	297.363	86.2701	297.363	86.2052	297.363	85.9622	297.363	85.8826	297.363	85.6053	297.363	85.5028	297.363	85.2249	297.363	85.0793	297.363	84.8501	297.363	84.6288	297.363	84.508	297.363	84.1724	297.363	84.2182	297.363	83.7368	297.363	83.9902	297.363	83.3542	297.363	83.8238	297.363	83.0585	297.363	83.7117	297.363	82.8767	297.363	83.6414	297.363	82.8181	297.363	83.5962	297.363	82.8678	297.363	83.5562	297.363	82.9911	297.363	83.5016	297.363	83.146	297.363	83.4167	297.363	83.2956
307.617	86.2721	307.617	86.2308	307.617	86.2278	307.617	86.1115	307.617	86.0956	307.617	85.9261	307.617	85.8789	307.617	85.6904	307.617	85.5876	307.617	85.4212	307.617	85.2388	307.617	85.1339	307.617	84.8554	307.617	84.8378	307.617	84.4633	307.617	84.5332	307.617	84.0867	307.617	84.2133	307.617	83.7431	307.617	83.8695	307.617	83.4414	307.617	83.5013	307.617	83.1842	307.617	83.1253	307.617	82.9717	307.617	82.7779	307.617	82.8048	307.617	82.5064	307.617	82.6823	307.617	82.3461	307.617	82.597	307.617	82.2988	307.617	82.5328	307.617	82.3322	307.617	82.4709	307.617	82.4007
319.336	86.4196	319.336	86.384	319.336	86.3241	319.336	86.2216	319.336	86.1003	319.336	85.9447	319.336	85.7595	319.336	85.5751	319.336	85.3223	319.336	85.1454	319.336	84.82	319.336	84.6994	319.336	84.2937	319.336	84.2848	319.336	83.7903	319.336	83.9392	319.336	83.3536	319.336	83.6756	319.336	83.0129	319.336	83.4775	319.336	82.7748	319.336	83.311	319.336	82.6249	319.336	83.1449	319.336	82.5375	319.336	82.9657	319.336	82.4869	319.336	82.7815	319.336	82.4546	319.336	82.6149	319.336	82.4295	319.336	82.4894	319.336	82.4074	319.336	82.4157	319.336	82.3904	319.336	82.3879
329.59	87.5287	329.59	87.4956	329.59	87.4625	329.59	87.3617	329.59	87.2973	329.59	87.1245	329.59	87.0326	329.59	86.782	329.59	86.6695	329.59	86.3363	329.59	86.2132	329.59	85.7983	329.59	85.6768	329.59	85.194	329.59	85.085	329.59	84.57	329.59	84.4768	329.59	83.9921	329.59	83.9039	329.59	83.5325	329.59	83.4244	329.59	83.2433	329.59	83.0876	329.59	83.1319	329.59	82.9171	329.59	83.1607	329.59	82.9012	329.59	83.2688	329.59	82.9991	329.59	83.3972	329.59	83.1568	329.59	83.5015	329.59	83.3234	329.59	83.5537	329.59	83.4594	329.59	83.54
341.309	86.8953	341.309	86.8559	341.309	86.8357	341.309	86.7181	341.309	86.6792	341.309	86.484	341.309	86.4307	341.309	86.158	341.309	86.0997	341.309	85.7466	341.309	85.7011	341.309	85.2598	341.309	85.2549	341.309	84.7117	341.309	84.7858	341.309	84.1226	341.309	84.3208	341.309	83.5226	341.309	83.8866	341.309	82.9548	341.309	83.508	341.309	82.4762	341.309	83.2066	341.309	82.1486	341.309	82.9992	341.309	82.0151	341.309	82.8926	341.309	82.0741	341.309	82.8766	341.309	82.2727	341.309	82.9195	341.309	82.5284	341.309	82.9734	341.309	82.7621	341.309	82.9868	341.309	82.921
353.027	87.0227	353.027	86.9515	353.027	86.983	353.027	86.7749	353.027	86.8291	353.027	86.5004	353.027	86.5604	353.027	86.1371	353.027	86.1802	353.027	85.6947	353.027	85.697	353.027	85.1831	353.027	85.1263	353.027	84.612	353.027	84.4936	353.027	83.9934	353.027	83.8373	353.027	83.3482	353.027	83.2109	353.027	82.7155	353.027	82.6789	353.027	82.159	353.027	82.303	353.027	81.7594	353.027	82.1176	353.027	81.5817	353.027	82.1109	353.027	81.6328	353.027	82.2277	353.027	81.8497	353.027	82.3922	353.027	82.1317	353.027	82.5329	353.027	82.385	353.027	82.5955	353.027	82.5481
366.211	86.9031	366.211	86.8946	366.211	86.8066	366.211	86.7832	366.211	86.6045	366.211	86.5729	366.211	86.2987	366.211	86.2707	366.211	85.8944	366.211	85.8883	366.211	85.403	366.211	85.442	366.211	84.8444	366.211	84.9508	366.211	84.2501	366.211	84.4309	366.211	83.6614	366.211	83.892	366.211	83.124	366.211	83.3379	366.211	82.6763	366.211	82.7764	366.211	82.3398	366.211	82.2345	366.211	82.1158	366.211	81.767	366.211	81.988	366.211	81.4434	366.211	81.928	366.211	81.3094	366.211	81.8993	366.211	81.3492	366.211	81.8628	366.211	81.4924	366.211	81.7864	366.211	81.6569
379.395	87.2868	379.395	87.2205	379.395	87.2615	379.395	87.0691	379.395	87.1369	379.395	86.8375	379.395	86.9043	379.395	86.5293	379.395	86.5551	379.395	86.148	379.395	86.0824	379.395	85.6985	379.395	85.4857	379.395	85.1907	379.395	84.7757	379.395	84.6415	379.395	83.9822	379.395	84.0748	379.395	83.1614	379.395	83.5194	379.395	82.4005	379.395	83.0061	379.395	81.8066	379.395	82.5674	379.395	81.4691	379.395	82.2364	379.395	81.4068	379.395	82.0397	379.395	81.551	379.395	81.9812	379.395	81.786	379.395	82.0279	379.395	82.0048	379.395	82.1149	379.395	82.1402	379.395	82.1703
392.578	86.4928	392.578	86.3798	392.578	86.5093	392.578	86.1721	392.578	86.43	392.578	85.8764	392.578	86.2561	392.578	85.5052	392.578	85.9893	392.578	85.0783	392.578	85.6321	392.578	84.6199	392.578	85.1895	392.578	84.1557	392.578	84.6709	392.578	83.7101	392.578	84.0927	392.578	83.3043	392.578	83.4819	392.578	82.9563	392.578	82.8811	392.578	82.6821	392.578	82.3518	392.578	82.4943	392.578	81.9662	392.578	82.3995	392.578	81.7808	392.578	82.392	392.578	81.8015	392.578	82.4475	392.578	81.9725	392.578	82.5231	392.578	82.2034	392.578	82.5669	392.578	82.409	392.578	82.5353
405.762	87.1034	405.762	87.0764	405.762	87.0025	405.762	86.9219	405.762	86.7727	405.762	86.6377	405.762	86.4157	405.762	86.2199	405.762	85.9408	405.762	85.666	405.762	85.3678	405.762	84.9817	405.762	84.7311	405.762	84.1919	405.762	84.0787	405.762	83.3542	405.762	83.4702	405.762	82.5695	405.762	82.9688	405.762	81.9735	405.762	82.631	405.762	81.686	405.762	82.4923	405.762	81.7409	405.762	82.554	405.762	82.0661	405.762	82.7778	405.762	82.5349	405.762	83.0957	405.762	83.0263	405.762	83.429	405.762	83.4502	405.762	83.7062	405.762	83.7487	405.762	83.8722	405.762	83.8915
420.41	87.6515	420.41	87.6228	420.41	87.5616	420.41	87.4824	420.41	87.3462	420.41	87.2364	420.41	86.9998	420.41	86.8887	420.41	86.5182	420.41	86.4401	420.41	85.8997	420.41	85.8882	420.41	85.1483	420.41	85.2293	420.41	84.2791	420.41	84.4638	420.41	83.3306	420.41	83.6066	420.41	82.3824	420.41	82.7057	420.41	81.5733	420.41	81.8656	420.41	81.0827	420.41	81.2524	420.41	81.034	420.41	81.0309	420.41	81.3808	420.41	81.237	420.41	81.9332	420.41	81.7308	420.41	82.4872	420.41	82.301	420.41	82.9021	420.41	82.7772	420.41	83.1027	420.41	83.0592
435.059	87.1066	435.059	87.08	435.059	87.0214	435.059	86.9449	435.059	86.8206	435.059	86.7032	435.059	86.4995	435.059	86.3554	435.059	86.0542	435.059	85.9004	435.059	85.4831	435.059	85.3361	435.059	84.7908	435.059	84.6628	435.059	83.993	435.059	83.8903	435.059	83.1241	435.059	83.05	435.059	82.2507	435.059	82.2122	435.059	81.4896	435.059	81.5005	435.059	81.0056	435.059	81.0777	435.059	80.9411	435.059	81.0666	435.059	81.2943	435.059	81.4445	435.059	81.899	435.059	82.0428	435.059	82.5398	435.059	82.6558	435.059	83.0528	435.059	83.1279	435.059	83.3433	435.059	83.3693
451.172	87.6483	451.172	87.565	451.172	87.599	451.172	87.3506	451.172	87.4115	451.172	87.0052	451.172	87.0773	451.172	86.5309	451.172	86.5871	451.172	85.9354	451.172	85.9339	451.172	85.2322	451.172	85.1149	451.172	84.4362	451.172	84.1304	451.172	83.5582	451.172	82.983	451.172	82.6037	451.172	81.6842	451.172	81.5847	451.172	80.2869	451.172	80.553	451.172	78.9683	451.172	79.6523	451.172	78.1107	451.172	79.1285	451.172	78.0935	451.172	79.1718	451.172	78.8024	451.172	79.6851	451.172	79.7457	451.172	80.3531	451.172	80.5429	451.172	80.8907	451.172	81.0239	451.172	81.1369
465.82	87.5172	465.82	87.3952	465.82	87.5169	465.82	87.1563	465.82	87.3836	465.82	86.8006	465.82	87.1045	465.82	86.3246	465.82	86.6678	465.82	85.7255	465.82	86.0674	465.82	85.0059	465.82	85.305	465.82	84.1787	465.82	84.3897	465.82	83.2709	465.82	83.3373	465.82	82.326	465.82	82.1765	465.82	81.4104	465.82	80.9729	465.82	80.6225	465.82	79.8803	465.82	80.0924	465.82	79.1704	465.82	79.934	465.82	79.087	465.82	80.1526	465.82	79.5693	465.82	80.6086	465.82	80.293	465.82	81.0985	465.82	80.9584	465.82	81.453	465.82	81.4041	465.82	81.5698
483.398	87.7815	483.398	87.7477	483.398	87.7077	483.398	87.6006	483.398	87.5267	483.398	87.3291	483.398	87.2354	483.398	86.9188	483.398	86.8302	483.398	86.3553	483.398	86.3095	483.398	85.6257	483.398	85.674	483.398	84.7192	483.398	84.926	483.398	83.6264	483.398	84.0697	483.398	82.3422	483.398	83.113	483.398	80.8848	483.398	82.0807	483.398	79.3609	483.398	81.0463	483.398	78.1035	483.398	80.1803	483.398	77.6734	483.398	79.7384	483.398	78.273	483.398	79.8685	483.398	79.3932	483.398	80.4107	483.398	80.464	483.398	81.0306	483.398	81.2073	483.398	81.4563	483.398	81.5371
499.512	87.2247	499.512	87.2085	499.512	87.14	499.512	87.0938	499.512	86.945	499.512	86.877	499.512	86.6277	499.512	86.5528	499.512	86.1789	499.512	86.1185	499.512	85.5975	499.512	85.5763	499.512	84.8915	499.512	84.9311	499.512	84.0752	499.512	84.1839	499.512	83.1667	499.512	83.3257	499.512	82.1944	499.512	82.3393	499.512	81.2235	499.512	81.2261	499.512	80.3991	499.512	80.0787	499.512	79.9443	499.512	79.1834	499.512	80.0097	499.512	78.9504	499.512	80.4869	499.512	79.465	499.512	81.0889	499.512	80.3299	499.512	81.5627	499.512	81.1192	499.512	81.7615	499.512	81.6177
517.09	86.8763	517.09	86.826	517.09	86.8366	517.09	86.6875	517.09	86.7025	517.09	86.4626	517.09	86.468	517.09	86.158	517.09	86.1296	517.09	85.7854	517.09	85.6867	517.09	85.353	517.09	85.1383	517.09	84.8499	517.09	84.477	517.09	84.234	517.09	83.6856	517.09	83.436	517.09	82.7422	517.09	82.3864	517.09	81.6457	517.09	81.0718	517.09	80.4798	517.09	79.6498	517.09	79.5183	517.09	78.6114	517.09	79.1994	517.09	78.5782	517.09	79.6811	517.09	79.4659	517.09	80.5732	517.09	80.5894	517.09	81.3937	517.09	81.4639	517.09	81.8735	517.09	81.9058
536.133	86.8316	536.133	86.7338	536.133	86.7449	536.133	86.4809	536.133	86.4502	536.133	86.1073	536.133	85.9372	536.133	85.6558	536.133	85.2192	536.133	85.1748	536.133	84.3424	536.133	84.6999	536.133	83.386	536.133	84.2253	536.133	82.4482	536.133	83.6903	536.133	81.6095	536.133	82.9945	536.133	80.8956	536.133	82.0379	536.133	80.2921	536.133	80.7911	536.133	79.837	536.133	79.4436	536.133	79.7012	536.133	78.6152	536.133	80.0733	536.133	78.9824	536.133	80.8875	536.133	80.2305	536.133	81.8308	536.133	81.5526	536.133	82.6028	536.133	82.5199	536.133	83.0262	536.133	83.0124
555.176	87.1538	555.176	86.9585	555.176	87.2048	555.176	86.6312	555.176	87.1009	555.176	86.1942	555.176	86.8294	555.176	85.6891	555.176	86.3738	555.176	85.1772	555.176	85.7106	555.176	84.717	555.176	84.8074	555.176	84.3241	555.176	83.6224	555.176	83.9431	555.176	82.1095	555.176	83.4609	555.176	80.2428	555.176	82.7466	555.176	78.1257	555.176	81.6843	555.176	76.3316	555.176	80.2004	555.176	75.9977	555.176	78.3589	555.176	77.1621	555.176	76.7056	555.176	78.6435	555.176	76.435	555.176	79.7813	555.176	77.6448	555.176	80.4196	555.176	79.0918	555.176	80.5328	555.176	80.0966
574.219	87.2776	574.219	87.0017	574.219	87.4065	574.219	86.5723	574.219	87.3931	574.219	85.9979	574.219	87.2347	574.219	85.3234	574.219	86.9232	574.219	84.6401	574.219	86.4506	574.219	84.0618	574.219	85.8087	574.219	83.6565	574.219	84.9786	574.219	83.3797	574.219	83.9108	574.219	83.0816	574.219	82.5026	574.219	82.5898	574.219	80.5822	574.219	81.8013	574.219	77.9497	574.219	80.7793	574.219	74.9276	574.219	79.8904	574.219	74.4141	574.219	79.7405	574.219	77.1638	574.219	80.4699	574.219	79.7858	574.219	81.5107	574.219	81.5036	574.219	82.3242	574.219	82.4197	574.219	82.6629
594.727	86.8791	594.727	86.7008	594.727	86.8498	594.727	86.3097	594.727	86.6335	594.727	85.7143	594.727	86.2669	594.727	84.9389	594.727	85.7986	594.727	84.0301	594.727	85.2744	594.727	83.0679	594.727	84.7189	594.727	82.1645	594.727	84.1187	594.727	81.4218	594.727	83.4157	594.727	80.8441	594.727	82.503	594.727	80.2943	594.727	81.2206	594.727	79.5611	594.727	79.37	594.727	78.5116	594.727	76.8949	594.727	77.3564	594.727	74.936	594.727	76.9563	594.727	76.02	594.727	77.9513	594.727	78.5056	594.727	79.5345	594.727	80.3551	594.727	80.8018	594.727	81.3008	594.727	81.4235
615.234	87.5104	615.234	87.3589	615.234	87.4832	615.234	87.0188	615.234	87.2854	615.234	86.4824	615.234	86.9192	615.234	85.7511	615.234	86.3816	615.234	84.8492	615.234	85.6721	615.234	83.8353	615.234	84.804	615.234	82.793	615.234	83.804	615.234	81.7874	615.234	82.6958	615.234	80.8029	615.234	81.4759	615.234	79.7203	615.234	80.1056	615.234	78.375	615.234	78.5346	615.234	76.7032	615.234	76.8039	615.234	75.1025	615.234	75.3654	615.234	74.8107	615.234	75.269	615.234	76.2355	615.234	76.6412	615.234	78.0131	615.234	78.2657	615.234	79.2461	615.234	79.3628	615.234	79.7052
637.207	87.0657	637.207	86.8709	637.207	87.1577	637.207	86.5611	637.207	87.1438	637.207	86.124	637.207	87.004	637.207	85.5695	637.207	86.7162	637.207	84.9496	637.207	86.2731	637.207	84.3519	637.207	85.6769	637.207	83.8485	637.207	84.9082	637.207	83.4255	637.207	83.9045	637.207	82.9594	637.207	82.5765	637.207	82.2557	637.207	80.8295	637.207	81.1028	637.207	78.5657	637.207	79.3064	637.207	75.7804	637.207	76.8146	637.207	73.3737	637.207	74.4806	637.207	73.8334	637.207	74.6824	637.207	76.1588	637.207	76.687	637.207	78.0437	637.207	78.3261	637.207	79.0216	637.207	79.1094
659.18	86.5736	659.18	86.4917	659.18	86.5067	659.18	86.2408	659.18	86.3145	659.18	85.8116	659.18	86.029	659.18	85.2255	659.18	85.6935	659.18	84.5472	659.18	85.3414	659.18	83.8651	659.18	84.9603	659.18	83.2375	659.18	84.4878	659.18	82.6574	659.18	83.8529	659.18	82.0697	659.18	83.0038	659.18	81.3948	659.18	81.879	659.18	80.531	659.18	80.3689	659.18	79.3785	659.18	78.3951	659.18	77.9693	659.18	76.3916	659.18	76.8429	659.18	75.9861	659.18	77.0386	659.18	77.5156	659.18	78.3752	659.18	79.179	659.18	79.6627	659.18	80.1472	659.18	80.3013
682.617	87.3147	682.617	87.2497	682.617	87.1299	682.617	86.9164	682.617	86.7469	682.617	86.3444	682.617	86.2494	682.617	85.6256	682.617	85.7463	682.617	84.8898	682.617	85.3272	682.617	84.2266	682.617	85.0008	682.617	83.6332	682.617	84.6855	682.617	83.058	682.617	84.2495	682.617	82.4531	682.617	83.5506	682.617	81.7263	682.617	82.4716	682.617	80.6648	682.617	80.9621	682.617	78.953	682.617	79.151	682.617	76.4174	682.617	77.6811	682.617	74.4471	682.617	77.6832	682.617	76.1365	682.617	79.0665	682.617	78.9708	682.617	80.6009	682.617	80.8655	682.617	81.5608	682.617	81.6907
707.52	87.4345	707.52	87.1812	707.52	87.5197	707.52	86.7604	707.52	87.4392	707.52	86.196	707.52	87.2059	707.52	85.5719	707.52	86.8437	707.52	85.0151	707.52	86.3615	707.52	84.5899	707.52	85.7404	707.52	84.2164	707.52	84.9569	707.52	83.7454	707.52	84.0018	707.52	83.1102	707.52	82.8385	707.52	82.3625	707.52	81.3212	707.52	81.5168	707.52	79.162	707.52	80.3605	707.52	76.0556	707.52	78.4771	707.52	73.0681	707.52	75.6091	707.52	74.6658	707.52	73.6147	707.52	77.9483	707.52	75.856	707.52	80.0148	707.52	78.6986	707.52	80.778	707.52	80.3454
732.422	87.4746	732.422	87.5277	732.422	87.2395	732.422	87.3316	732.422	86.9111	732.422	86.8729	732.422	86.5684	732.422	86.2162	732.422	86.2486	732.422	85.4814	732.422	85.932	732.422	84.7737	732.422	85.5647	732.422	84.1437	732.422	85.1004	732.422	83.5857	732.422	84.503	732.422	83.013	732.422	83.7018	732.422	82.2746	732.422	82.5676	732.422	81.2262	732.422	80.9035	732.422	79.7704	732.422	78.4509	732.422	77.9401	732.422	75.5143	732.422	76.3672	732.422	75.3294	732.422	76.6518	732.422	78.1688	732.422	78.6215	732.422	80.4384	732.422	80.4835	732.422	81.5138	732.422	81.4987
757.324	88.0666	757.324	87.8351	757.324	88.0197	757.324	87.3525	757.324	87.6977	757.324	86.6714	757.324	87.1489	757.324	85.8763	757.324	86.4744	757.324	85.0849	757.324	85.8171	757.324	84.4411	757.324	85.3035	757.324	84.0463	757.324	84.9279	757.324	83.787	757.324	84.4865	757.324	83.3487	757.324	83.6798	757.324	82.4887	757.324	82.271	757.324	81.1355	757.324	80.1375	757.324	79.2104	757.324	77.3543	757.324	76.4632	757.324	75.1692	757.324	73.2186	757.324	76.1447	757.324	73.6086	757.324	78.4631	757.324	77.0162	757.324	80.0914	757.324	79.4487	757.324	80.8049	757.324	80.6299
785.156	88.3138	785.156	88.3717	785.156	87.8444	785.156	87.9875	785.156	87.0956	785.156	87.2371	785.156	86.2847	785.156	86.2786	785.156	85.6319	785.156	85.2676	785.156	85.2054	785.156	84.3182	785.156	84.8776	785.156	83.4922	785.156	84.4793	785.156	82.7512	785.156	83.9135	785.156	82.0484	785.156	83.1047	785.156	81.3708	785.156	81.9558	785.156	80.6584	785.156	80.3368	785.156	79.8218	785.156	77.81	785.156	78.6844	785.156	72.9048	785.156	76.8693	785.156	64.8554	785.156	74.5853	785.156	73.8013	785.156	74.9006	785.156	78.2045	785.156	77.6445	785.156	79.7562	785.156	79.4824
811.523	88.1603	811.523	88.144	811.523	87.8169	811.523	87.7879	811.523	87.1722	811.523	87.1636	811.523	86.3635	811.523	86.3801	811.523	85.5236	811.523	85.5236	811.523	84.7176	811.523	84.611	811.523	83.987	811.523	83.6813	811.523	83.3413	811.523	82.8468	811.523	82.7107	811.523	82.1665	811.523	81.9923	811.523	81.4643	811.523	81.1446	811.523	80.3132	811.523	80.2611	811.523	78.1983	811.523	79.1071	811.523	74.7619	811.523	76.666	811.523	71.0526	811.523	72.5521	811.523	71.0968	811.523	74.003	811.523	73.7874	811.523	77.6082	811.523	76.5002	811.523	78.8955	811.523	78.3674
840.82	87.2011	840.82	86.7944	840.82	87.2006	840.82	86.1155	840.82	86.8197	840.82	85.4139	840.82	86.2159	840.82	84.89	840.82	85.6075	840.82	84.5601	840.82	85.1782	840.82	84.3737	840.82	84.9924	840.82	84.2814	840.82	84.9981	840.82	84.1745	840.82	85.0108	840.82	84.0241	840.82	84.7201	840.82	83.851	840.82	83.8331	840.82	83.4753	840.82	82.1102	840.82	82.5668	840.82	79.2419	840.82	80.8878	840.82	75.423	840.82	78.3296	840.82	74.506	840.82	75.1634	840.82	76.4443	840.82	73.663	840.82	77.3632	840.82	75.0531	840.82	77.246	840.82	76.4947
870.117	87.989	870.117	87.983	870.117	87.6777	870.117	87.698	870.117	87.0601	870.117	87.1536	870.117	86.1968	870.117	86.2399	870.117	85.2059	870.117	84.8001	870.117	84.2943	870.117	83.1179	870.117	83.7351	870.117	82.1978	870.117	83.6686	870.117	82.3671	870.117	83.8581	870.117	82.8304	870.117	83.9073	870.117	82.9481	870.117	83.6387	870.117	82.3264	870.117	82.9704	870.117	80.7127	870.117	81.5087	870.117	78.3693	870.117	78.4844	870.117	76.8404	870.117	75.7329	870.117	77.4464	870.117	78.9435	870.117	79.0454	870.117	81.666	870.117	80.7051	870.117	82.4707	870.117	81.9828
900.879	88.1349	900.879	87.6137	900.879	88.1263	900.879	86.671	900.879	87.6552	900.879	85.5738	900.879	86.8474	900.879	84.4843	900.879	85.7617	900.879	83.2449	900.879	84.4317	900.879	81.7314	900.879	83.0867	900.879	80.324	900.879	82.1251	900.879	79.5657	900.879	81.6218	900.879	79.4843	900.879	81.1415	900.879	79.7571	900.879	80.1637	900.879	79.8781	900.879	78.3275	900.879	79.2175	900.879	75.4093	900.879	77.3074	900.879	72.5006	900.879	74.3825	900.879	73.782	900.879	73.5388	900.879	76.8554	900.879	76.2604	900.879	78.9737	900.879	78.7092	900.879	79.9867	900.879	79.9256
933.105	87.975	933.105	88.2162	933.105	87.5827	933.105	88.1543	933.105	87.1194	933.105	87.6152	933.105	86.5043	933.105	86.3929	933.105	85.5183	933.105	84.2943	933.105	84.0405	933.105	81.4322	933.105	82.3851	933.105	78.7721	933.105	81.4135	933.105	77.7869	933.105	81.466	933.105	78.4478	933.105	81.5105	933.105	79.521	933.105	80.8926	933.105	79.8201	933.105	79.6713	933.105	78.5137	933.105	77.1761	933.105	75.3915	933.105	69.9144	933.105	73.0667	933.105	68.7262	933.105	75.604	933.105	78.1234	933.105	78.7803	933.105	81.3883	933.105	80.9764	933.105	82.428	933.105	82.1923
965.332	88.5423	965.332	88.7869	965.332	88.141	965.332	88.7514	965.332	87.726	965.332	88.3655	965.332	87.3617	965.332	87.513	965.332	86.9325	965.332	85.8894	965.332	86.1701	965.332	83.1532	965.332	84.8647	965.332	79.6637	965.332	83.2657	965.332	77.7148	965.332	82.3198	965.332	78.6456	965.332	82.3796	965.332	79.9918	965.332	82.4291	965.332	80.5845	965.332	81.6117	965.332	80.2249	965.332	79.6739	965.332	78.6068	965.332	76.1986	965.332	74.585	965.332	70.2631	965.332	63.9895	965.332	73.0733	965.332	74.3065	965.332	78.7402	965.332	79.792	965.332	81.3525	965.332	81.719
1,000.49	89.6809	1,000.49	89.8396	1,000.49	89.1073	1,000.49	89.5523	1,000.49	88.2777	1,000.49	88.9343	1,000.49	87.2887	1,000.49	88.0334	1,000.49	86.0398	1,000.49	86.6492	1,000.49	84.3705	1,000.49	84.6832	1,000.49	82.4482	1,000.49	82.3609	1,000.49	81.1647	1,000.49	79.8211	1,000.49	81.2904	1,000.49	78.9681	1,000.49	82.0057	1,000.49	80.7976	1,000.49	82.6436	1,000.49	82.5584	1,000.49	83.4715	1,000.49	83.3829	1,000.49	84.0752	1,000.49	83.0792	1,000.49	82.9267	1,000.49	81.4433	1,000.49	77.8977	1,000.49	77.841	1,000.49	67.3895	1,000.49	70.0123	1,000.49	76.3669	1,000.49	71.6824	1,000.49	78.5956	1,000.49	77.2266
1,035.64	90.1402	1,035.64	90.4707	1,035.64	89.1858	1,035.64	90.0165	1,035.64	88.0187	1,035.64	88.9579	1,035.64	87.0236	1,035.64	87.6406	1,035.64	86.3086	1,035.64	86.2207	1,035.64	85.5439	1,035.64	84.6024	1,035.64	84.1597	1,035.64	82.3601	1,035.64	81.7365	1,035.64	78.7847	1,035.64	79.009	1,035.64	75.5832	1,035.64	78.6979	1,035.64	77.709	1,035.64	79.675	1,035.64	80.7022	1,035.64	80.0707	1,035.64	81.9363	1,035.64	80.1779	1,035.64	81.2312	1,035.64	79.7555	1,035.64	79.1721	1,035.64	77.5527	1,035.64	76.8413	1,035.64	75.1385	1,035.64	75.7833	1,035.64	77.4749	1,035.64	77.3268	1,035.64	79.443	1,035.64	79.2267
1,072.27	89.106	1,072.27	89.1962	1,072.27	88.6994	1,072.27	88.9441	1,072.27	87.9464	1,072.27	88.4206	1,072.27	86.8336	1,072.27	87.7232	1,072.27	85.5025	1,072.27	86.8514	1,072.27	84.0674	1,072.27	85.9141	1,072.27	82.4061	1,072.27	84.6734	1,072.27	80.508	1,072.27	82.3308	1,072.27	79.0794	1,072.27	78.7693	1,072.27	79.1338	1,072.27	74.992	1,072.27	79.4437	1,072.27	73.8742	1,072.27	79.3562	1,072.27	76.4037	1,072.27	78.9462	1,072.27	77.7849	1,072.27	77.1794	1,072.27	77.0422	1,072.27	73.2915	1,072.27	76.2019	1,072.27	73.3034	1,072.27	77.6371	1,072.27	76.271	1,072.27	79.0727	1,072.27	78.17	1,072.27	79.1897
1,108.89	88.7431	1,108.89	88.5597	1,108.89	88.5799	1,108.89	88.2208	1,108.89	88.0959	1,108.89	88.0321	1,108.89	87.2816	1,108.89	87.9727	1,108.89	86.0366	1,108.89	87.6127	1,108.89	84.5209	1,108.89	86.5909	1,108.89	82.9915	1,108.89	84.8726	1,108.89	81.014	1,108.89	82.7303	1,108.89	78.1067	1,108.89	80.5847	1,108.89	76.2036	1,108.89	78.6763	1,108.89	76.609	1,108.89	77.6502	1,108.89	75.6918	1,108.89	77.2952	1,108.89	72.3859	1,108.89	75.9996	1,108.89	69.6353	1,108.89	73.9305	1,108.89	67.724	1,108.89	73.4608	1,108.89	72.2357	1,108.89	75.8273	1,108.89	77.1213	1,108.89	78.6375	1,108.89	79.6165	1,108.89	80.0568
1,148.44	88.7616	1,148.44	88.2801	1,148.44	88.393	1,148.44	87.2661	1,148.44	87.4324	1,148.44	86.491	1,148.44	86.2955	1,148.44	86.2711	1,148.44	85.2715	1,148.44	86.1919	1,148.44	84.4835	1,148.44	85.9586	1,148.44	83.7932	1,148.44	85.1953	1,148.44	82.4703	1,148.44	83.3725	1,148.44	79.8704	1,148.44	81.2028	1,148.44	77.1717	1,148.44	79.2023	1,148.44	76.3996	1,148.44	77.2119	1,148.44	76.6148	1,148.44	77.3541	1,148.44	76.6934	1,148.44	77.2617	1,148.44	74.6665	1,148.44	73.5646	1,148.44	65.0034	1,148.44	63.3112	1,148.44	71.1208	1,148.44	72.9214	1,148.44	77.3993	1,148.44	78.1809	1,148.44	79.7469	1,148.44	80.0407
1,189.45	89.2388	1,189.45	88.6984	1,189.45	89.0303	1,189.45	87.4487	1,189.45	88.1085	1,189.45	85.9012	1,189.45	86.4781	1,189.45	84.6865	1,189.45	84.6149	1,189.45	84.2954	1,189.45	83.5445	1,189.45	84.7092	1,189.45	83.481	1,189.45	84.8087	1,189.45	83.4238	1,189.45	83.3259	1,189.45	82.3728	1,189.45	80.5165	1,189.45	80.5621	1,189.45	78.3049	1,189.45	79.6615	1,189.45	77.059	1,189.45	79.9226	1,189.45	76.7712	1,189.45	79.476	1,189.45	77.6061	1,189.45	77.5917	1,189.45	77.5118	1,189.45	74.2751	1,189.45	74.3368	1,189.45	68.2906	1,189.45	66.4679	1,189.45	76.2574	1,189.45	76.7811	1,189.45	80.6019	1,189.45	80.7867
1,230.47	89.1874	1,230.47	88.7513	1,230.47	88.718	1,230.47	87.3771	1,230.47	87.6003	1,230.47	85.7728	1,230.47	85.9522	1,230.47	84.9478	1,230.47	84.3029	1,230.47	84.7183	1,230.47	83.8209	1,230.47	84.2438	1,230.47	84.0597	1,230.47	82.6836	1,230.47	83.0616	1,230.47	79.5607	1,230.47	80.4132	1,230.47	77.5257	1,230.47	78.2923	1,230.47	78.1708	1,230.47	78.5657	1,230.47	77.3729	1,230.47	78.8349	1,230.47	74.2192	1,230.47	77.658	1,230.47	73.757	1,230.47	76.1519	1,230.47	75.2911	1,230.47	71.4908	1,230.47	74.388	1,230.47	64.9179	1,230.47	70.2209	1,230.47	74.2748	1,230.47	71.6863	1,230.47	76.5252	1,230.47	75.6365
1,274.41	88.7756	1,274.41	87.9327	1,274.41	88.9393	1,274.41	86.9124	1,274.41	88.2293	1,274.41	86.6858	1,274.41	86.5598	1,274.41	87.2284	1,274.41	84.2365	1,274.41	87.4224	1,274.41	82.0828	1,274.41	86.7057	1,274.41	81.124	1,274.41	85.1115	1,274.41	80.9162	1,274.41	82.6167	1,274.41	80.5842	1,274.41	79.8969	1,274.41	80.6087	1,274.41	78.8167	1,274.41	81.7338	1,274.41	78.1522	1,274.41	82.7583	1,274.41	75.8341	1,274.41	82.1385	1,274.41	71.7449	1,274.41	78.93	1,274.41	68.6284	1,274.41	71.3727	1,274.41	73.9212	1,274.41	73.8255	1,274.41	76.7193	1,274.41	76.6027	1,274.41	76.7675	1,274.41	76.5137	1,274.41	76.1915
1,319.82	89.105	1,319.82	88.168	1,319.82	89.426	1,319.82	87.4852	1,319.82	88.752	1,319.82	87.5528	1,319.82	86.8869	1,319.82	87.5477	1,319.82	83.9299	1,319.82	87.0756	1,319.82	81.035	1,319.82	85.9989	1,319.82	80.3585	1,319.82	83.8631	1,319.82	80.4444	1,319.82	80.6544	1,319.82	79.552	1,319.82	77.8013	1,319.82	78.6156	1,319.82	76.2843	1,319.82	79.8682	1,319.82	76.084	1,319.82	80.8905	1,319.82	76.2893	1,319.82	78.4376	1,319.82	75.5006	1,319.82	74.2541	1,319.82	72.7286	1,319.82	69.5924	1,319.82	71.8259	1,319.82	69.3943	1,319.82	73.5217	1,319.82	76.032	1,319.82	75.1299	1,319.82	77.6859	1,319.82	76.9181
1,366.7	88.8471	1,366.7	88.4858	1,366.7	88.8626	1,366.7	88.198	1,366.7	88.4209	1,366.7	87.9374	1,366.7	87.3064	1,366.7	87.3693	1,366.7	85.2224	1,366.7	86.3942	1,366.7	82.3521	1,366.7	84.627	1,366.7	80.008	1,366.7	82.1627	1,366.7	79.619	1,366.7	80.0275	1,366.7	79.7163	1,366.7	79.1624	1,366.7	80.0271	1,366.7	79.8383	1,366.7	81.4912	1,366.7	80.1003	1,366.7	81.6683	1,366.7	79.0415	1,366.7	78.8752	1,366.7	77.6965	1,366.7	74.4815	1,366.7	74.931	1,366.7	69.6655	1,366.7	65.3355	1,366.7	66.7335	1,366.7	70.2468	1,366.7	73.2576	1,366.7	75.995	1,366.7	77.0786	1,366.7	77.6958
1,413.57	88.3172	1,413.57	88.501	1,413.57	88.4603	1,413.57	88.8973	1,413.57	88.2425	1,413.57	88.713	1,413.57	87.1284	1,413.57	87.7915	1,413.57	85.2732	1,413.57	86.4937	1,413.57	82.9641	1,413.57	83.9488	1,413.57	79.8475	1,413.57	78.7941	1,413.57	76.48	1,413.57	73.6502	1,413.57	74.8327	1,413.57	72.8042	1,413.57	73.5841	1,413.57	72.6962	1,413.57	74.4146	1,413.57	76.6037	1,413.57	78.7416	1,413.57	77.5237	1,413.57	79.6246	1,413.57	75.2467	1,413.57	76.1109	1,413.57	72.7585	1,413.57	68.9583	1,413.57	72.3752	1,413.57	67.2257	1,413.57	74.1724	1,413.57	74.3893	1,413.57	76.7707	1,413.57	76.9961	1,413.57	77.6018
1,463.38	87.6097	1,463.38	88.3914	1,463.38	87.1692	1,463.38	88.5966	1,463.38	87.2181	1,463.38	87.5653	1,463.38	86.8798	1,463.38	85.4563	1,463.38	85.5155	1,463.38	83.0722	1,463.38	83.1967	1,463.38	80.3185	1,463.38	80.0892	1,463.38	77.4236	1,463.38	77.0663	1,463.38	75.8032	1,463.38	74.3293	1,463.38	71.6092	1,463.38	70.2529	1,463.38	69.0803	1,463.38	71.1758	1,463.38	73.8521	1,463.38	75.2965	1,463.38	75.2384	1,463.38	76.5261	1,463.38	73.9387	1,463.38	74.9369	1,463.38	71.8956	1,463.38	70.3059	1,463.38	66.7447	1,463.38	54.8347	1,463.38	66.1113	1,463.38	73.1508	1,463.38	74.6472	1,463.38	77.21	1,463.38	77.3157
1,516.11	89.0437	1,516.11	88.5974	1,516.11	88.4724	1,516.11	87.4508	1,516.11	87.2933	1,516.11	86.6774	1,516.11	85.8351	1,516.11	85.8831	1,516.11	84.2465	1,516.11	83.1729	1,516.11	82.8444	1,516.11	79.8609	1,516.11	81.2263	1,516.11	80.2687	1,516.11	79.7848	1,516.11	80.8464	1,516.11	79.179	1,516.11	78.6446	1,516.11	77.6551	1,516.11	72.3497	1,516.11	73.0743	1,516.11	62.7738	1,516.11	74.417	1,516.11	76.0963	1,516.11	77.7188	1,516.11	78.1609	1,516.11	74.8088	1,516.11	76.173	1,516.11	67.7885	1,516.11	70.5476	1,516.11	62.6121	1,516.11	67.1504	1,516.11	62.8535	1,516.11	75.3235	1,516.11	73.0929	1,516.11	76.1884
1,568.85	87.6576	1,568.85	87.1619	1,568.85	87.6291	1,568.85	86.6742	1,568.85	87.6046	1,568.85	86.862	1,568.85	87.3544	1,568.85	86.5919	1,568.85	86.0826	1,568.85	84.4852	1,568.85	83.8559	1,568.85	81.9887	1,568.85	81.5494	1,568.85	80.652	1,568.85	80.4339	1,568.85	78.7913	1,568.85	79.1572	1,568.85	75.5323	1,568.85	77.2133	1,568.85	73.3545	1,568.85	74.5079	1,568.85	70.9101	1,568.85	72.4007	1,568.85	71.7669	1,568.85	76.1716	1,568.85	76.1921	1,568.85	74.6678	1,568.85	76.3398	1,568.85	69.5784	1,568.85	73.6928	1,568.85	63.3952	1,568.85	69.1403	1,568.85	64.7821	1,568.85	70.046	1,568.85	70.6525	1,568.85	71.8487
1,624.51	89.2854	1,624.51	89.0884	1,624.51	88.7657	1,624.51	88.4107	1,624.51	87.9328	1,624.51	87.7951	1,624.51	87.1922	1,624.51	87.1343	1,624.51	86.4003	1,624.51	86.0273	1,624.51	84.5154	1,624.51	84.4473	1,624.51	81.2333	1,624.51	82.585	1,624.51	78.7488	1,624.51	79.2577	1,624.51	78.08	1,624.51	75.12	1,624.51	76.9611	1,624.51	72.4345	1,624.51	73.0674	1,624.51	72.5239	1,624.51	65.1008	1,624.51	71.0673	1,624.51	64.6816	1,624.51	68.8294	1,624.51	64.2607	1,624.51	69.9233	1,624.51	56.6718	1,624.51	73.0361	1,624.51	69.5556	1,624.51	75.5507	1,624.51	72.0832	1,624.51	76.6689	1,624.51	74.4081	1,624.51	76.4854
1,681.64	89.6087	1,681.64	89.0639	1,681.64	89.5141	1,681.64	88.5333	1,681.64	88.8004	1,681.64	88.0518	1,681.64	87.7299	1,681.64	86.6045	1,681.64	85.8974	1,681.64	84.4935	1,681.64	83.3683	1,681.64	84.0289	1,681.64	80.4549	1,681.64	83.598	1,681.64	77.8951	1,681.64	80.9737	1,681.64	78.4846	1,681.64	77.6497	1,681.64	78.0449	1,681.64	74.0798	1,681.64	73.9088	1,681.64	72.9987	1,681.64	72.4684	1,681.64	74.3088	1,681.64	73.5213	1,681.64	74.7366	1,681.64	72.655	1,681.64	67.967	1,681.64	69.6783	1,681.64	70.3965	1,681.64	72.3669	1,681.64	75.8572	1,681.64	74.9751	1,681.64	76.7739	1,681.64	76.2556	1,681.64	76.9766
1,741.7	89.4154	1,741.7	88.8346	1,741.7	89.2972	1,741.7	88.1413	1,741.7	88.5201	1,741.7	87.2831	1,741.7	87.6437	1,741.7	85.7051	1,741.7	86.6114	1,741.7	84.7829	1,741.7	85.0103	1,741.7	85.5531	1,741.7	82.0861	1,741.7	84.903	1,741.7	77.5513	1,741.7	81.9922	1,741.7	74.6248	1,741.7	78.2091	1,741.7	71.8053	1,741.7	76.5096	1,741.7	69.0399	1,741.7	76.681	1,741.7	70.9248	1,741.7	75.2108	1,741.7	70.423	1,741.7	76.0263	1,741.7	62.9426	1,741.7	75.8051	1,741.7	65.0185	1,741.7	69.2018	1,741.7	71.5259	1,741.7	66.4852	1,741.7	73.8038	1,741.7	71.2498	1,741.7	73.8793	1,741.7	73.044
1,803.22	88.9799	1,803.22	89.3297	1,803.22	88.1006	1,803.22	88.21	1,803.22	87.6523	1,803.22	86.2608	1,803.22	87.311	1,803.22	85.0339	1,803.22	86.5598	1,803.22	84.5851	1,803.22	85.1555	1,803.22	84.5282	1,803.22	81.8381	1,803.22	83.4542	1,803.22	77.2835	1,803.22	80.0362	1,803.22	75.5195	1,803.22	76.4453	1,803.22	76.1876	1,803.22	71.6371	1,803.22	77.4387	1,803.22	72.8571	1,803.22	74.4746	1,803.22	71.662	1,803.22	67.8972	1,803.22	71.2245	1,803.22	58.668	1,803.22	74.6999	1,803.22	70.6426	1,803.22	71.4547	1,803.22	66.9471	1,803.22	73.5	1,803.22	68.297	1,803.22	75.843	1,803.22	74.4776	1,803.22	76.6544
1,866.21	88.1508	1,866.21	88.6653	1,866.21	88.0961	1,866.21	88.9183	1,866.21	87.7679	1,866.21	87.3362	1,866.21	86.2618	1,866.21	83.0542	1,866.21	84.5999	1,866.21	79.9099	1,866.21	83.487	1,866.21	81.7275	1,866.21	81.4063	1,866.21	81.2554	1,866.21	77.4852	1,866.21	79.0229	1,866.21	71.9398	1,866.21	78.1319	1,866.21	71.2014	1,866.21	74.8434	1,866.21	70.9754	1,866.21	74.0898	1,866.21	69.1409	1,866.21	74.3905	1,866.21	66.1565	1,866.21	67.635	1,866.21	72.3263	1,866.21	69.9253	1,866.21	72.8171	1,866.21	73.198	1,866.21	67.8462	1,866.21	73.7265	1,866.21	72.4162	1,866.21	77.2009	1,866.21	78.0667	1,866.21	78.7327
1,932.13	87.9975	1,932.13	88.4107	1,932.13	87.4544	1,932.13	87.7301	1,932.13	87.0155	1,932.13	86.1832	1,932.13	86.032	1,932.13	84.7107	1,932.13	85.8473	1,932.13	83.4495	1,932.13	84.5486	1,932.13	81.8174	1,932.13	81.3773	1,932.13	79.2001	1,932.13	78.5919	1,932.13	77.804	1,932.13	76.6693	1,932.13	75.6609	1,932.13	75.0366	1,932.13	72.1962	1,932.13	67.0063	1,932.13	76.798	1,932.13	75.92	1,932.13	77.6354	1,932.13	72.7735	1,932.13	73.3326	1,932.13	75.5829	1,932.13	60.1063	1,932.13	78.5048	1,932.13	70.8229	1,932.13	74.0708	1,932.13	76.3243	1,932.13	77.5514	1,932.13	78.6787	1,932.13	81.0658	1,932.13	80.8344
1,999.51	88.7909	1,999.51	88.135	1,999.51	88.0352	1,999.51	86.7978	1,999.51	87.2453	1,999.51	87.2405	1,999.51	86.9813	1,999.51	87.1153	1,999.51	85.8641	1,999.51	84.3925	1,999.51	83.5061	1,999.51	81.9698	1,999.51	81.96	1,999.51	80.7404	1,999.51	79.6186	1,999.51	79.0986	1,999.51	76.458	1,999.51	76.0727	1,999.51	73.4554	1,999.51	69.062	1,999.51	64.5003	1,999.51	67.217	1,999.51	72.8841	1,999.51	76.2314	1,999.51	78.1511	1,999.51	77.6508	1,999.51	78.0859	1,999.51	73.157	1,999.51	76.978	1,999.51	64.0713	1,999.51	75.5205	1,999.51	75.7019	1,999.51	78.6859	1,999.51	80.4337	1,999.51	81.5005	1,999.51	82.1089
2,069.82	89.2566	2,069.82	88.0968	2,069.82	88.7099	2,069.82	86.6321	2,069.82	87.3671	2,069.82	86.6033	2,069.82	86.5262	2,069.82	86.0487	2,069.82	85.7242	2,069.82	84.9968	2,069.82	84.0334	2,069.82	82.9543	2,069.82	82.5006	2,069.82	77.4239	2,069.82	79.7123	2,069.82	76.9935	2,069.82	76.0958	2,069.82	80.4204	2,069.82	77.6903	2,069.82	78.4401	2,069.82	76.1336	2,069.82	63.8232	2,069.82	68.4487	2,069.82	74.4733	2,069.82	77.62	2,069.82	78.3076	2,069.82	78.4803	2,069.82	76.9996	2,069.82	76.2858	2,069.82	70.3642	2,069.82	74.2332	2,069.82	73.212	2,069.82	79.4542	2,069.82	79.7415	2,069.82	82.406	2,069.82	82.4444
2,143.07	89.5297	2,143.07	88.6864	2,143.07	89.4652	2,143.07	87.8443	2,143.07	88.1928	2,143.07	86.554	2,143.07	86.4746	2,143.07	85.0104	2,143.07	84.8505	2,143.07	84.1055	2,143.07	83.0405	2,143.07	83.028	2,143.07	81.6117	2,143.07	80.8986	2,143.07	79.9961	2,143.07	76.28	2,143.07	77.5641	2,143.07	74.6573	2,143.07	77.5954	2,143.07	76.3992	2,143.07	77.0702	2,143.07	71.7107	2,143.07	70.2115	2,143.07	66.985	2,143.07	72.6654	2,143.07	76.1617	2,143.07	76.0057	2,143.07	75.8383	2,143.07	74.3425	2,143.07	71.8231	2,143.07	73.9328	2,143.07	61.2739	2,143.07	78.1418	2,143.07	74.4083	2,143.07	80.4807	2,143.07	79.4155
2,219.24	88.984	2,219.24	88.6516	2,219.24	89.2925	2,219.24	88.6366	2,219.24	88.6133	2,219.24	87.1413	2,219.24	86.9413	2,219.24	84.4239	2,219.24	84.5656	2,219.24	83.2678	2,219.24	82.9722	2,219.24	82.7706	2,219.24	82.0851	2,219.24	80.5781	2,219.24	78.9389	2,219.24	78.771	2,219.24	75.334	2,219.24	76.9667	2,219.24	76.53	2,219.24	75.8422	2,219.24	75.2257	2,219.24	72.5206	2,219.24	69.46	2,219.24	67.2252	2,219.24	68.3355	2,219.24	75.7473	2,219.24	73.4264	2,219.24	74.632	2,219.24	72.1301	2,219.24	68.9156	2,219.24	70.4446	2,219.24	58.854	2,219.24	73.3948	2,219.24	67.5738	2,219.24	76.266	2,219.24	74.6855
2,296.88	87.7809	2,296.88	87.769	2,296.88	88.2544	2,296.88	88.4073	2,296.88	87.866	2,296.88	87.2861	2,296.88	86.5967	2,296.88	85.0039	2,296.88	84.7002	2,296.88	84.4211	2,296.88	83.9616	2,296.88	83.2677	2,296.88	82.6462	2,296.88	83.7649	2,296.88	78.7889	2,296.88	80.7284	2,296.88	78.3669	2,296.88	74.7216	2,296.88	78.9186	2,296.88	76.537	2,296.88	75.6657	2,296.88	75.3398	2,296.88	68.1268	2,296.88	51.6549	2,296.88	62.1946	2,296.88	76.8601	2,296.88	70.6798	2,296.88	76.433	2,296.88	70.2627	2,296.88	69.2634	2,296.88	66.9376	2,296.88	64.1425	2,296.88	68.8494	2,296.88	69.6198	2,296.88	74.1069	2,296.88	74.3051
2,378.91	87.6526	2,378.91	87.8357	2,378.91	87.437	2,378.91	87.0408	2,378.91	87.1493	2,378.91	85.1625	2,378.91	85.8619	2,378.91	85.4451	2,378.91	84.3211	2,378.91	84.9682	2,378.91	83.3785	2,378.91	83.55	2,378.91	82.0398	2,378.91	81.9859	2,378.91	80.4979	2,378.91	77.3591	2,378.91	80.1701	2,378.91	77.2897	2,378.91	78.3842	2,378.91	72.1139	2,378.91	73.6079	2,378.91	75.0468	2,378.91	71.0754	2,378.91	72.5259	2,378.91	65.8186	2,378.91	72.3026	2,378.91	65.88	2,378.91	74.9814	2,378.91	63.907	2,378.91	63.8224	2,378.91	65.5613	2,378.91	66.741	2,378.91	65.032	2,378.91	67.8958	2,378.91	73.8951	2,378.91	75.2411
2,462.4	87.8907	2,462.4	88.118	2,462.4	87.5948	2,462.4	86.7344	2,462.4	86.8841	2,462.4	85.6757	2,462.4	85.3665	2,462.4	86.0029	2,462.4	83.6847	2,462.4	84.2364	2,462.4	82.2329	2,462.4	81.8468	2,462.4	81.8499	2,462.4	81.0924	2,462.4	79.4995	2,462.4	80.2973	2,462.4	77.1855	2,462.4	74.9557	2,462.4	77.0806	2,462.4	72.4101	2,462.4	68.9722	2,462.4	72.0396	2,462.4	58.4021	2,462.4	72.2621	2,462.4	67.2145	2,462.4	64.9515	2,462.4	64.9896	2,462.4	75.1439	2,462.4	64.1448	2,462.4	70.3731	2,462.4	63.4432	2,462.4	63.0323	2,462.4	66.2843	2,462.4	67.8149	2,462.4	74.0159	2,462.4	73.1896
2,548.83	87.7595	2,548.83	87.6431	2,548.83	87.4386	2,548.83	87.042	2,548.83	86.6142	2,548.83	86.7749	2,548.83	85.5634	2,548.83	85.3294	2,548.83	83.9085	2,548.83	82.6275	2,548.83	82.5154	2,548.83	82.0001	2,548.83	79.7616	2,548.83	79.0711	2,548.83	79.2029	2,548.83	78.4866	2,548.83	79.6631	2,548.83	77.4162	2,548.83	78.6819	2,548.83	70.2276	2,548.83	75.1293	2,548.83	70.6286	2,548.83	64.5247	2,548.83	72.7718	2,548.83	64.4461	2,548.83	66.3477	2,548.83	54.9353	2,548.83	71.3904	2,548.83	63.4512	2,548.83	70.6182	2,548.83	60.0878	2,548.83	64.2536	2,548.83	66.7488	2,548.83	66.8176	2,548.83	71.2795	2,548.83	69.0779
2,639.65	86.4604	2,639.65	85.9984	2,639.65	86.7129	2,639.65	86.9353	2,639.65	86.4391	2,639.65	86.6106	2,639.65	85.7069	2,639.65	83.9674	2,639.65	84.6088	2,639.65	83.6135	2,639.65	83.247	2,639.65	82.5348	2,639.65	80.5119	2,639.65	81.9434	2,639.65	79.7384	2,639.65	80.7544	2,639.65	78.8052	2,639.65	74.4863	2,639.65	73.8122	2,639.65	74.0639	2,639.65	69.6118	2,639.65	71.502	2,639.65	67.4117	2,639.65	71.2019	2,639.65	70.3785	2,639.65	72.5351	2,639.65	67.2808	2,639.65	72.5435	2,639.65	64.8758	2,639.65	71.301	2,639.65	53.2716	2,639.65	64.0932	2,639.65	67.6859	2,639.65	65.7974	2,639.65	71.8168	2,639.65	68.7377
2,731.93	84.9941	2,731.93	85.1207	2,731.93	85.4934	2,731.93	85.6489	2,731.93	85.4522	2,731.93	84.7384	2,731.93	84.6902	2,731.93	84.6129	2,731.93	84.5681	2,731.93	83.9405	2,731.93	83.0206	2,731.93	82.5547	2,731.93	81.304	2,731.93	81.147	2,731.93	80.0171	2,731.93	77.7624	2,731.93	77.8364	2,731.93	75.6223	2,731.93	74.1485	2,731.93	72.0956	2,731.93	71.2187	2,731.93	71.3579	2,731.93	66.8228	2,731.93	69.0162	2,731.93	66.0128	2,731.93	71.2801	2,731.93	68.7016	2,731.93	71.4632	2,731.93	68.7516	2,731.93	70.5748	2,731.93	60.8506	2,731.93	65.6059	2,731.93	66.0471	2,731.93	63.958	2,731.93	70.6652	2,731.93	65.1186
2,828.61	84.3287	2,828.61	85.5775	2,828.61	84.7577	2,828.61	84.9846	2,828.61	84.7008	2,828.61	84.4422	2,828.61	84.0926	2,828.61	85.0058	2,828.61	84.2131	2,828.61	84.3115	2,828.61	83.1254	2,828.61	82.3957	2,828.61	81.2966	2,828.61	80.951	2,828.61	80.9673	2,828.61	78.1485	2,828.61	77.9212	2,828.61	74.9719	2,828.61	70.997	2,828.61	73.0221	2,828.61	73.1187	2,828.61	73.1543	2,828.61	71.0621	2,828.61	69.0423	2,828.61	67.4394	2,828.61	71.8458	2,828.61	66.8751	2,828.61	72.0401	2,828.61	67.373	2,828.61	69.3807	2,828.61	56.7301	2,828.61	64.0901	2,828.61	65.7727	2,828.61	67.7384	2,828.61	71.1063	2,828.61	66.8435
2,928.22	85.2115	2,928.22	85.9957	2,928.22	85.1735	2,928.22	85.3117	2,928.22	84.948	2,928.22	84.6293	2,928.22	84.4091	2,928.22	84.3328	2,928.22	84.2391	2,928.22	84.2658	2,928.22	82.9722	2,928.22	83.0113	2,928.22	81.1271	2,928.22	80.5342	2,928.22	80.9546	2,928.22	79.8842	2,928.22	75.8739	2,928.22	77.5264	2,928.22	72.4299	2,928.22	69.4922	2,928.22	70.3607	2,928.22	71.8058	2,928.22	70.065	2,928.22	71.0568	2,928.22	69.8296	2,928.22	68.6237	2,928.22	65.5303	2,928.22	72.6178	2,928.22	67.9707	2,928.22	72.0614	2,928.22	55.5538	2,928.22	61.2426	2,928.22	63.289	2,928.22	64.7723	2,928.22	70.5137	2,928.22	67.0263
3,030.76	85.5772	3,030.76	85.5491	3,030.76	84.7724	3,030.76	85.3728	3,030.76	84.3841	3,030.76	84.5352	3,030.76	85.2303	3,030.76	83.7439	3,030.76	84.4495	3,030.76	84.3308	3,030.76	82.7717	3,030.76	82.5964	3,030.76	81.3826	3,030.76	81.0309	3,030.76	79.0354	3,030.76	80.4712	3,030.76	73.9061	3,030.76	75.4569	3,030.76	75.3102	3,030.76	70.6617	3,030.76	67.1594	3,030.76	70.0353	3,030.76	64.3561	3,030.76	72.0194	3,030.76	64.806	3,030.76	68.1854	3,030.76	66.4456	3,030.76	71.4401	3,030.76	67.0912	3,030.76	70.4503	3,030.76	57.6764	3,030.76	64.557	3,030.76	63.5749	3,030.76	64.8457	3,030.76	71.125	3,030.76	62.6926
3,137.7	85.2189	3,137.7	84.4365	3,137.7	85.6048	3,137.7	84.4819	3,137.7	84.872	3,137.7	85.099	3,137.7	85.1977	3,137.7	85.3123	3,137.7	84.3092	3,137.7	84.0468	3,137.7	83.2216	3,137.7	83.1262	3,137.7	82.1562	3,137.7	81.7681	3,137.7	79.2462	3,137.7	77.3529	3,137.7	76.2865	3,137.7	71.8685	3,137.7	75.4776	3,137.7	72.2454	3,137.7	64.6926	3,137.7	67.7877	3,137.7	64.8727	3,137.7	71.0466	3,137.7	60.6272	3,137.7	70.401	3,137.7	63.9838	3,137.7	70.1047	3,137.7	63.6856	3,137.7	71.0479	3,137.7	58.7926	3,137.7	65.7879	3,137.7	60.7083	3,137.7	66.3235	3,137.7	70.3143	3,137.7	58.0569
3,249.02	85.4494	3,249.02	83.7243	3,249.02	86.6611	3,249.02	84.3096	3,249.02	86.089	3,249.02	85.3646	3,249.02	85.161	3,249.02	85.6541	3,249.02	83.9351	3,249.02	83.9444	3,249.02	82.7006	3,249.02	82.2072	3,249.02	81.676	3,249.02	79.3027	3,249.02	78.9969	3,249.02	75.5036	3,249.02	77.2668	3,249.02	73.7664	3,249.02	73.1019	3,249.02	66.7087	3,249.02	68.7906	3,249.02	70.4234	3,249.02	56.2906	3,249.02	65.4304	3,249.02	62.6119	3,249.02	71.7417	3,249.02	65.3715	3,249.02	68.6795	3,249.02	54.1135	3,249.02	70.3936	3,249.02	59.2017	3,249.02	62.5187	3,249.02	62.2124	3,249.02	66.1931	3,249.02	69.589	3,249.02	43.7045
3,363.28	85.0518	3,363.28	84.2677	3,363.28	86.0048	3,363.28	84.8483	3,363.28	86.3837	3,363.28	85.0569	3,363.28	85.215	3,363.28	84.9458	3,363.28	83.2859	3,363.28	83.4738	3,363.28	82.1662	3,363.28	81.1294	3,363.28	81.1549	3,363.28	77.1677	3,363.28	76.4116	3,363.28	77.8813	3,363.28	76.0055	3,363.28	73.0367	3,363.28	69.9478	3,363.28	69.1195	3,363.28	64.0561	3,363.28	65.1007	3,363.28	46.2933	3,363.28	68.5383	3,363.28	64.3084	3,363.28	67.4739	3,363.28	62.5233	3,363.28	69.7363	3,363.28	60.6527	3,363.28	67.691	3,363.28	61.729	3,363.28	63.3979	3,363.28	61.6567	3,363.28	65.0933	3,363.28	66.7946	3,363.28	44.8209
3,481.93	84.518	3,481.93	85.1818	3,481.93	84.9738	3,481.93	85.9488	3,481.93	85.8085	3,481.93	85.1837	3,481.93	85.6301	3,481.93	84.4915	3,481.93	83.5126	3,481.93	83.9351	3,481.93	82.8795	3,481.93	80.1712	3,481.93	80.1166	3,481.93	78.4639	3,481.93	74.0404	3,481.93	76.8096	3,481.93	70.3257	3,481.93	67.162	3,481.93	62.8409	3,481.93	68.5263	3,481.93	67.4231	3,481.93	61.0282	3,481.93	46.989	3,481.93	67.6104	3,481.93	61.6304	3,481.93	64.855	3,481.93	59.5832	3,481.93	68.875	3,481.93	57.7941	3,481.93	67.0983	3,481.93	58.83	3,481.93	63.3195	3,481.93	62.4129	3,481.93	65.3271	3,481.93	64.4199	3,481.93	55.79
3,604.98	84.6711	3,604.98	84.316	3,604.98	85.3676	3,604.98	85.2851	3,604.98	84.6813	3,604.98	85.6453	3,604.98	85.1224	3,604.98	84.2656	3,604.98	83.6449	3,604.98	82.0509	3,604.98	83.51	3,604.98	79.4073	3,604.98	78.0346	3,604.98	77.8009	3,604.98	73.6806	3,604.98	71.6689	3,604.98	65.8739	3,604.98	70.8696	3,604.98	65.9735	3,604.98	63.2472	3,604.98	63.3129	3,604.98	63.2882	3,604.98	61.2636	3,604.98	64.1691	3,604.98	55.8906	3,604.98	68.0518	3,604.98	62.35	3,604.98	67.4579	3,604.98	61.3305	3,604.98	69.3406	3,604.98	63.6285	3,604.98	68.0096	3,604.98	53.3072	3,604.98	67.6959	3,604.98	64.08	3,604.98	61.8837
3,732.42	85.0329	3,732.42	84.8087	3,732.42	86.7583	3,732.42	85.5074	3,732.42	86.5384	3,732.42	85.1742	3,732.42	84.3462	3,732.42	84.2675	3,732.42	82.9686	3,732.42	81.6121	3,732.42	82.8282	3,732.42	80.3924	3,732.42	76.2012	3,732.42	76.8081	3,732.42	74.1189	3,732.42	74.6357	3,732.42	74.6228	3,732.42	71.7011	3,732.42	69.9558	3,732.42	62.5951	3,732.42	65.0882	3,732.42	64.626	3,732.42	65.6801	3,732.42	64.5633	3,732.42	62.0582	3,732.42	67.6015	3,732.42	61.215	3,732.42	68.4461	3,732.42	63.4248	3,732.42	65.9646	3,732.42	63.8345	3,732.42	67.2201	3,732.42	55.8691	3,732.42	69.1038	3,732.42	54.0646	3,732.42	67.498
3,864.26	83.522	3,864.26	84.1585	3,864.26	85.8811	3,864.26	85.9703	3,864.26	87.2313	3,864.26	85.2995	3,864.26	85.4974	3,864.26	83.68	3,864.26	83.3749	3,864.26	82.3605	3,864.26	81.1911	3,864.26	79.1818	3,864.26	77.909	3,864.26	76.9909	3,864.26	78.6736	3,864.26	76.8267	3,864.26	76.8281	3,864.26	71.6458	3,864.26	70.4381	3,864.26	67.2202	3,864.26	67.6743	3,864.26	62.6407	3,864.26	63.974	3,864.26	61.278	3,864.26	63.3402	3,864.26	65.2651	3,864.26	58.6071	3,864.26	69.2901	3,864.26	52.2041	3,864.26	61.8536	3,864.26	61.2744	3,864.26	66.2368	3,864.26	58.0714	3,864.26	69.168	3,864.26	61.3178	3,864.26	64.2175
4,000.49	84.0319	4,000.49	85.0307	4,000.49	85.2261	4,000.49	85.9715	4,000.49	86.2828	4,000.49	85.1475	4,000.49	85.3125	4,000.49	83.216	4,000.49	84.7345	4,000.49	82.4627	4,000.49	80.6439	4,000.49	79.5071	4,000.49	79.8362	4,000.49	79.3029	4,000.49	79.1163	4,000.49	75.8764	4,000.49	76.1569	4,000.49	70.1965	4,000.49	72.0862	4,000.49	65.6251	4,000.49	65.0497	4,000.49	64.6047	4,000.49	60.5553	4,000.49	61.9683	4,000.49	58.8305	4,000.49	66.5212	4,000.49	60.0275	4,000.49	68.0461	4,000.49	51.3506	4,000.49	64.8407	4,000.49	61.1027	4,000.49	63.8084	4,000.49	56.9983	4,000.49	68.1399	4,000.49	60.6802	4,000.49	64.7929
4,141.11	85.8324	4,141.11	86.8525	4,141.11	86.3086	4,141.11	86.4224	4,141.11	87.5548	4,141.11	85.5563	4,141.11	85.3606	4,141.11	85.0237	4,141.11	84.769	4,141.11	82.5872	4,141.11	79.8318	4,141.11	81.3045	4,141.11	81.2131	4,141.11	79.4214	4,141.11	78.8247	4,141.11	73.6728	4,141.11	76.8674	4,141.11	73.2603	4,141.11	75.2762	4,141.11	68.6899	4,141.11	55.5716	4,141.11	62.9633	4,141.11	61.851	4,141.11	64.7112	4,141.11	62.036	4,141.11	68.3976	4,141.11	57.3462	4,141.11	68.8044	4,141.11	48.1264	4,141.11	65.8764	4,141.11	59.6233	4,141.11	64.338	4,141.11	59.668	4,141.11	67.9922	4,141.11	61.0409	4,141.11	65.7982
4,287.6	86.6945	4,287.6	87.2871	4,287.6	85.8	4,287.6	87.3026	4,287.6	86.8493	4,287.6	85.7408	4,287.6	85.5743	4,287.6	83.9833	4,287.6	84.3021	4,287.6	83.1052	4,287.6	81.6529	4,287.6	81.2561	4,287.6	80.8251	4,287.6	77.8421	4,287.6	78.6388	4,287.6	78.5294	4,287.6	76.8977	4,287.6	73.612	4,287.6	74.2331	4,287.6	68.3832	4,287.6	59.156	4,287.6	63.4402	4,287.6	58.3623	4,287.6	64.7829	4,287.6	63.886	4,287.6	68.1482	4,287.6	52.8668	4,287.6	67.9454	4,287.6	45.8177	4,287.6	64.5075	4,287.6	61.4501	4,287.6	67.3305	4,287.6	55.5233	4,287.6	66.0689	4,287.6	61.6218	4,287.6	64.4189
4,438.48	87.6283	4,438.48	88.0105	4,438.48	86.7821	4,438.48	86.4801	4,438.48	86.6758	4,438.48	85.5983	4,438.48	85.9666	4,438.48	84.0668	4,438.48	84.6653	4,438.48	84.5611	4,438.48	81.7612	4,438.48	80.1085	4,438.48	80.6469	4,438.48	80.2303	4,438.48	78.9624	4,438.48	75.6406	4,438.48	75.821	4,438.48	71.5819	4,438.48	68.9077	4,438.48	69.4836	4,438.48	66.8656	4,438.48	59.2307	4,438.48	51.0235	4,438.48	64.212	4,438.48	60.7775	4,438.48	64.0231	4,438.48	54.1095	4,438.48	68.6063	4,438.48	60.7515	4,438.48	64.1836	4,438.48	64.9735	4,438.48	66.058	4,438.48	54.0107	4,438.48	63.3618	4,438.48	53.7775	4,438.48	64.6893
4,595.21	87.6856	4,595.21	87.8876	4,595.21	87.1024	4,595.21	86.3254	4,595.21	86.9036	4,595.21	84.9589	4,595.21	86.4679	4,595.21	84.9325	4,595.21	84.6274	4,595.21	83.5906	4,595.21	81.5913	4,595.21	81.7119	4,595.21	80.6079	4,595.21	80.0922	4,595.21	78.4827	4,595.21	74.7615	4,595.21	75.0923	4,595.21	73.1932	4,595.21	67.2963	4,595.21	65.863	4,595.21	60.6171	4,595.21	63.9803	4,595.21	59.6331	4,595.21	66.3969	4,595.21	61.8096	4,595.21	66.9898	4,595.21	61.9367	4,595.21	69.9105	4,595.21	64.0335	4,595.21	64.6446	4,595.21	63.2908	4,595.21	63.0456	4,595.21	62.344	4,595.21	64.8845	4,595.21	59.9437	4,595.21	66.023
4,756.35	88.3886	4,756.35	86.9242	4,756.35	87.006	4,756.35	86.4302	4,756.35	86.3745	4,756.35	86.5733	4,756.35	86.5273	4,756.35	85.1263	4,756.35	84.8653	4,756.35	83.5442	4,756.35	83.1575	4,756.35	81.5834	4,756.35	81.4493	4,756.35	77.4626	4,756.35	76.4645	4,756.35	77.5621	4,756.35	69.9903	4,756.35	71.0523	4,756.35	69.1632	4,756.35	66.6612	4,756.35	62.5791	4,756.35	59.003	4,756.35	55.2916	4,756.35	64.5834	4,756.35	64.0653	4,756.35	66.5066	4,756.35	57.7121	4,756.35	66.0703	4,756.35	67.3797	4,756.35	64.7603	4,756.35	62.3356	4,756.35	54.8544	4,756.35	65.1427	4,756.35	66.5294	4,756.35	64.9465	4,756.35	62.0473
4,924.8	89.1694	4,924.8	88.0261	4,924.8	87.7587	4,924.8	87.0643	4,924.8	86.381	4,924.8	86.2186	4,924.8	86.5677	4,924.8	83.7118	4,924.8	84.2391	4,924.8	83.7419	4,924.8	83.5103	4,924.8	80.2113	4,924.8	80.866	4,924.8	79.9802	4,924.8	75.4421	4,924.8	74.0793	4,924.8	74.391	4,924.8	70.3726	4,924.8	71.2925	4,924.8	68.4386	4,924.8	68.7855	4,924.8	60.7138	4,924.8	56.9052	4,924.8	59.1111	4,924.8	60.781	4,924.8	67.1202	4,924.8	61.282	4,924.8	66.6758	4,924.8	65.7836	4,924.8	64.7314	4,924.8	50.055	4,924.8	58.0141	4,924.8	62.4339	4,924.8	64.0138	4,924.8	68.0986	4,924.8	64.22
5,097.66	88.5575	5,097.66	88.0682	5,097.66	87.9701	5,097.66	87.6604	5,097.66	86.551	5,097.66	84.8199	5,097.66	86.8053	5,097.66	85.0701	5,097.66	83.4084	5,097.66	82.9219	5,097.66	84.9922	5,097.66	80.8968	5,097.66	78.621	5,097.66	77.5865	5,097.66	75.3374	5,097.66	73.5316	5,097.66	72.5654	5,097.66	69.385	5,097.66	70.9732	5,097.66	64.4628	5,097.66	63.1224	5,097.66	59.1853	5,097.66	60.6086	5,097.66	59.4195	5,097.66	57.9767	5,097.66	67.3181	5,097.66	59.8555	5,097.66	65.7191	5,097.66	66.2814	5,097.66	64.0968	5,097.66	56.4254	5,097.66	63.3828	5,097.66	59.9467	5,097.66	61.2865	5,097.66	66.5679	5,097.66	58.1708
5,277.83	87.963	5,277.83	87.4104	5,277.83	87.5722	5,277.83	86.2738	5,277.83	86.8397	5,277.83	85.8658	5,277.83	86.8547	5,277.83	85.185	5,277.83	84.7992	5,277.83	83.052	5,277.83	84.0883	5,277.83	79.7281	5,277.83	76.5374	5,277.83	76.6636	5,277.83	77.3568	5,277.83	74.6387	5,277.83	73.9605	5,277.83	67.536	5,277.83	72.2081	5,277.83	61.714	5,277.83	65.3828	5,277.83	60.2044	5,277.83	61.663	5,277.83	59.8536	5,277.83	64.7992	5,277.83	62.0161	5,277.83	50.7166	5,277.83	65.4944	5,277.83	65.7949	5,277.83	64.7576	5,277.83	58.5253	5,277.83	61.7152	5,277.83	60.1851	5,277.83	59.9155	5,277.83	66.3288	5,277.83	58.9565
5,463.87	87.7827	5,463.87	86.4711	5,463.87	87.4365	5,463.87	86.6241	5,463.87	87.0238	5,463.87	86.5672	5,463.87	85.9782	5,463.87	83.8817	5,463.87	84.7525	5,463.87	82.4709	5,463.87	82.0317	5,463.87	77.8989	5,463.87	77.9837	5,463.87	77.4919	5,463.87	77.6442	5,463.87	70.2922	5,463.87	73.4339	5,463.87	66.2417	5,463.87	68.9444	5,463.87	62.826	5,463.87	67.5267	5,463.87	55.4219	5,463.87	67.0174	5,463.87	47.4426	5,463.87	62.5744	5,463.87	62.7319	5,463.87	53.8017	5,463.87	66.3116	5,463.87	61.9767	5,463.87	63.9514	5,463.87	60.195	5,463.87	58.6611	5,463.87	58.6369	5,463.87	54.2445	5,463.87	63.6325	5,463.87	59.6344
5,657.23	87.9716	5,657.23	87.5393	5,657.23	88.8001	5,657.23	87.1519	5,657.23	87.0893	5,657.23	86.0584	5,657.23	84.9348	5,657.23	84.2024	5,657.23	84.065	5,657.23	82.2998	5,657.23	78.6583	5,657.23	78.6184	5,657.23	78.691	5,657.23	73.8013	5,657.23	74.6324	5,657.23	73.6372	5,657.23	73.4362	5,657.23	65.4362	5,657.23	69.8239	5,657.23	57.6351	5,657.23	67.7267	5,657.23	55.2454	5,657.23	65.4121	5,657.23	57.9927	5,657.23	50.8261	5,657.23	64.8426	5,657.23	55.8539	5,657.23	65.5007	5,657.23	51.5711	5,657.23	60.0431	5,657.23	55.6884	5,657.23	59.7727	5,657.23	58.7274	5,657.23	51.1913	5,657.23	60.0798	5,657.23	58.2829
5,856.45	88.3382	5,856.45	88.162	5,856.45	88.6374	5,856.45	86.9226	5,856.45	86.7115	5,856.45	85.4405	5,856.45	84.0012	5,856.45	84.058	5,856.45	84.1001	5,856.45	81.4758	5,856.45	79.0334	5,856.45	77.6781	5,856.45	78.0718	5,856.45	75.8169	5,856.45	73.4216	5,856.45	72.3643	5,856.45	70.4188	5,856.45	64.6345	5,856.45	67.8004	5,856.45	61.6729	5,856.45	63.5776	5,856.45	54.9491	5,856.45	64.7844	5,856.45	53.4386	5,856.45	56.3273	5,856.45	65.3591	5,856.45	55.0436	5,856.45	66.0161	5,856.45	48.7872	5,856.45	60.9004	5,856.45	58.0144	5,856.45	63.7601	5,856.45	56.8692	5,856.45	58.0164	5,856.45	60.203	5,856.45	61.5995
6,062.99	88.6007	6,062.99	88.2536	6,062.99	87.7411	6,062.99	86.958	6,062.99	85.7011	6,062.99	85.3824	6,062.99	84.6643	6,062.99	83.6038	6,062.99	84.8194	6,062.99	81.5425	6,062.99	81.813	6,062.99	79.6337	6,062.99	78.4728	6,062.99	74.9974	6,062.99	75.5066	6,062.99	73.1807	6,062.99	71.6981	6,062.99	69.6134	6,062.99	70.6796	6,062.99	62.1508	6,062.99	68.8501	6,062.99	43.9407	6,062.99	64.5158	6,062.99	54.4321	6,062.99	57.4817	6,062.99	66.1185	6,062.99	61.282	6,062.99	65.056	6,062.99	61.7292	6,062.99	60.2822	6,062.99	57.833	6,062.99	60.4873	6,062.99	57.9928	6,062.99	56.0004	6,062.99	58.9408	6,062.99	57.2571
6,276.86	88.5966	6,276.86	87.6407	6,276.86	87.2378	6,276.86	86.1655	6,276.86	85.1346	6,276.86	85.0538	6,276.86	83.6559	6,276.86	83.5199	6,276.86	84.6069	6,276.86	81.9307	6,276.86	83.1982	6,276.86	80.6732	6,276.86	79.784	6,276.86	78.5392	6,276.86	76.7959	6,276.86	76.4501	6,276.86	74.3251	6,276.86	69.5816	6,276.86	73.8415	6,276.86	64.6407	6,276.86	72.5488	6,276.86	47.8625	6,276.86	64.0406	6,276.86	56.0901	6,276.86	55.3473	6,276.86	64.2127	6,276.86	56.3878	6,276.86	67.8001	6,276.86	58.4768	6,276.86	61.845	6,276.86	58.2956	6,276.86	58.3691	6,276.86	52.8545	6,276.86	59.3246	6,276.86	59.2068	6,276.86	59.9302
6,498.05	88.7478	6,498.05	88.0916	6,498.05	86.8901	6,498.05	85.887	6,498.05	85.8104	6,498.05	83.6711	6,498.05	83.6846	6,498.05	83.7087	6,498.05	84.8812	6,498.05	83.0407	6,498.05	83.1212	6,498.05	81.2524	6,498.05	79.2425	6,498.05	78.1824	6,498.05	73.6208	6,498.05	74.2905	6,498.05	72.1028	6,498.05	71.9865	6,498.05	73.2013	6,498.05	64.5152	6,498.05	71.8913	6,498.05	53.2799	6,498.05	63.8173	6,498.05	53.2704	6,498.05	54.159	6,498.05	65.7728	6,498.05	60.5485	6,498.05	67.0365	6,498.05	54.1617	6,498.05	61.5042	6,498.05	50.0597	6,498.05	62.1413	6,498.05	51.5525	6,498.05	63.8152	6,498.05	55.9376	6,498.05	59.9249
6,726.56	89.2556	6,726.56	88.5202	6,726.56	88.1515	6,726.56	86.4751	6,726.56	85.4651	6,726.56	83.4424	6,726.56	83.6079	6,726.56	82.9556	6,726.56	83.6621	6,726.56	82.6706	6,726.56	82.2871	6,726.56	80.3804	6,726.56	78.4317	6,726.56	77.4383	6,726.56	75.687	6,726.56	76.7128	6,726.56	75.5922	6,726.56	69.2716	6,726.56	73.6578	6,726.56	62.2345	6,726.56	66.9005	6,726.56	55.2463	6,726.56	62.266	6,726.56	43.1775	6,726.56	49.8086	6,726.56	63.9351	6,726.56	46.2183	6,726.56	66.435	6,726.56	52.8812	6,726.56	63.7184	6,726.56	58.9672	6,726.56	61.9917	6,726.56	56.656	6,726.56	61.296	6,726.56	59.8967	6,726.56	61.7721
6,963.87	88.5319	6,963.87	87.8607	6,963.87	88.4181	6,963.87	85.5	6,963.87	85.6348	6,963.87	84.1699	6,963.87	84.4711	6,963.87	83.8678	6,963.87	83.2514	6,963.87	81.3054	6,963.87	82.0435	6,963.87	80.3481	6,963.87	76.5936	6,963.87	76.4536	6,963.87	78.4051	6,963.87	73.6415	6,963.87	75.9492	6,963.87	68.7466	6,963.87	75.4882	6,963.87	63.6705	6,963.87	70.2881	6,963.87	55.561	6,963.87	68.7727	6,963.87	55.8767	6,963.87	59.4422	6,963.87	63.0659	6,963.87	57.3436	6,963.87	64.8614	6,963.87	56.8917	6,963.87	62.581	6,963.87	54.4278	6,963.87	59.538	6,963.87	55.239	6,963.87	60.7015	6,963.87	56.1008	6,963.87	60.2861
7,209.96	87.7095	7,209.96	87.8591	7,209.96	87.3254	7,209.96	86.4095	7,209.96	85.8171	7,209.96	84.0751	7,209.96	83.8326	7,209.96	82.0317	7,209.96	79.8814	7,209.96	80.8079	7,209.96	81.749	7,209.96	78.8029	7,209.96	76.4725	7,209.96	77.7671	7,209.96	77.5909	7,209.96	75.8258	7,209.96	72.1762	7,209.96	69.8636	7,209.96	72.0869	7,209.96	60.8502	7,209.96	74.2404	7,209.96	55.8923	7,209.96	67.8704	7,209.96	54.6727	7,209.96	63.6067	7,209.96	65.9651	7,209.96	60.0656	7,209.96	64.5491	7,209.96	57.8701	7,209.96	63.5579	7,209.96	51.3406	7,209.96	58.3292	7,209.96	56.6255	7,209.96	63.2859	7,209.96	56.9208	7,209.96	58.9858
7,464.84	87.3018	7,464.84	87.143	7,464.84	86.2563	7,464.84	86.1234	7,464.84	85.7191	7,464.84	84.3462	7,464.84	83.2268	7,464.84	81.1184	7,464.84	80.5662	7,464.84	79.3205	7,464.84	79.6347	7,464.84	78.7592	7,464.84	79.5727	7,464.84	75.1194	7,464.84	72.3198	7,464.84	72.7144	7,464.84	69.8958	7,464.84	68.1649	7,464.84	73.5491	7,464.84	61.8207	7,464.84	72.6772	7,464.84	55.4893	7,464.84	68.0147	7,464.84	54.4657	7,464.84	59.9168	7,464.84	63.8792	7,464.84	55.6604	7,464.84	64.5495	7,464.84	58.6557	7,464.84	63.5079	7,464.84	50.9275	7,464.84	50.5425	7,464.84	59.8373	7,464.84	61.5527	7,464.84	55.1564	7,464.84	50.1196
7,727.05	87.1889	7,727.05	86.9656	7,727.05	86.2217	7,727.05	86.4173	7,727.05	86.7045	7,727.05	82.5468	7,727.05	81.9741	7,727.05	80.2923	7,727.05	81.9277	7,727.05	79.3418	7,727.05	78.8416	7,727.05	77.6144	7,727.05	79.1498	7,727.05	76.4474	7,727.05	67.7697	7,727.05	73.2301	7,727.05	73.5936	7,727.05	69.4513	7,727.05	73.1155	7,727.05	61.2135	7,727.05	71.1762	7,727.05	58.5249	7,727.05	67.5162	7,727.05	55.8576	7,727.05	50.6591	7,727.05	63.0934	7,727.05	44.2409	7,727.05	65.8766	7,727.05	51.6335	7,727.05	62.1028	7,727.05	56.5138	7,727.05	56.6973	7,727.05	59.2273	7,727.05	51.5787	7,727.05	40.751	7,727.05	53.9316
7,999.51	86.3846	7,999.51	85.5401	7,999.51	87.7813	7,999.51	85.7923	7,999.51	86.6321	7,999.51	82.0146	7,999.51	80.04	7,999.51	80.2938	7,999.51	81.7792	7,999.51	79.135	7,999.51	80.5695	7,999.51	78.4979	7,999.51	77.5405	7,999.51	74.5501	7,999.51	76.998	7,999.51	73.6688	7,999.51	76.3374	7,999.51	69.3755	7,999.51	73.6483	7,999.51	65.2915	7,999.51	73.4999	7,999.51	51.1148	7,999.51	66.6854	7,999.51	59.0892	7,999.51	58.5241	7,999.51	58.3355	7,999.51	54.8688	7,999.51	65.9948	7,999.51	58.8654	7,999.51	64.2089	7,999.51	57.0901	7,999.51	60.7112	7,999.51	57.7576	7,999.51	59.3703	7,999.51	52.7036	7,999.51	58.2912
8,282.23	85.0584	8,282.23	86.0592	8,282.23	86.5801	8,282.23	85.5604	8,282.23	85.0127	8,282.23	82.1402	8,282.23	81.1636	8,282.23	80.6555	8,282.23	80.9083	8,282.23	80.0107	8,282.23	81.9606	8,282.23	79.028	8,282.23	74.4006	8,282.23	76.0088	8,282.23	77.7977	8,282.23	72.0315	8,282.23	72.9985	8,282.23	67.5225	8,282.23	73.5015	8,282.23	64.0505	8,282.23	74.7812	8,282.23	57.0156	8,282.23	68.5527	8,282.23	50.6932	8,282.23	60.5075	8,282.23	59.6856	8,282.23	56.4353	8,282.23	64.5132	8,282.23	48.1463	8,282.23	64.7373	8,282.23	59.273	8,282.23	58.6283	8,282.23	51.2757	8,282.23	58.7909	8,282.23	50.6301	8,282.23	52.9126
8,573.73	86.0552	8,573.73	86.661	8,573.73	84.5279	8,573.73	85.6526	8,573.73	83.4916	8,573.73	83.2019	8,573.73	83.9633	8,573.73	81.6796	8,573.73	81.149	8,573.73	79.9825	8,573.73	80.3697	8,573.73	79.374	8,573.73	77.3924	8,573.73	76.0951	8,573.73	74.0287	8,573.73	74.9023	8,573.73	70.6268	8,573.73	69.1646	8,573.73	74.5652	8,573.73	62.7124	8,573.73	73.5402	8,573.73	56.5214	8,573.73	67.0924	8,573.73	52.8503	8,573.73	61.5258	8,573.73	61.9686	8,573.73	57.5879	8,573.73	63.3878	8,573.73	56.0273	8,573.73	63.4167	8,573.73	54.6809	8,573.73	58.7924	8,573.73	50.5235	8,573.73	47.2607	8,573.73	49.2276	8,573.73	54.1694
8,876.95	86.8273	8,876.95	86.4605	8,876.95	87.001	8,876.95	86.008	8,876.95	84.5025	8,876.95	84.1431	8,876.95	85.0401	8,876.95	81.7369	8,876.95	80.8707	8,876.95	79.6648	8,876.95	77.68	8,876.95	78.7276	8,876.95	78.9466	8,876.95	74.3719	8,876.95	67.473	8,876.95	72.1426	8,876.95	70.7616	8,876.95	68.2446	8,876.95	73.868	8,876.95	61.268	8,876.95	72.5385	8,876.95	61.7275	8,876.95	66.0103	8,876.95	45.2058	8,876.95	54.882	8,876.95	62.8387	8,876.95	55.4848	8,876.95	63.367	8,876.95	54.2865	8,876.95	60.6333	8,876.95	47.3882	8,876.95	58.2769	8,876.95	57.0774	8,876.95	58.8748	8,876.95	57.5134	8,876.95	56.309
9,188.96	87.7827	9,188.96	87.4197	9,188.96	88.3286	9,188.96	86.7509	9,188.96	85.4461	9,188.96	84.3909	9,188.96	84.1798	9,188.96	82.2368	9,188.96	80.0533	9,188.96	79.6587	9,188.96	78.5856	9,188.96	78.4148	9,188.96	77.4669	9,188.96	75.0812	9,188.96	71.6059	9,188.96	71.1592	9,188.96	70.416	9,188.96	65.6976	9,188.96	72.1018	9,188.96	56.786	9,188.96	72.0419	9,188.96	56.0876	9,188.96	62.0965	9,188.96	53.1716	9,188.96	56.3375	9,188.96	62.149	9,188.96	45.5682	9,188.96	63.4752	9,188.96	48.6234	9,188.96	54.0645	9,188.96	57.6639	9,188.96	49.9763	9,188.96	54.5625	9,188.96	56.7179	9,188.96	59.6817	9,188.96	53.2242
9,514.16	87.4371	9,514.16	87.4357	9,514.16	86.6439	9,514.16	86.2416	9,514.16	86.0718	9,514.16	84.9976	9,514.16	82.2665	9,514.16	81.9101	9,514.16	80.5378	9,514.16	79.6141	9,514.16	79.565	9,514.16	79.0641	9,514.16	74.0597	9,514.16	73.1789	9,514.16	72.9032	9,514.16	71.5207	9,514.16	67.137	9,514.16	66.4595	9,514.16	68.9544	9,514.16	56.1372	9,514.16	71.9543	9,514.16	59.4346	9,514.16	61.8572	9,514.16	52.7577	9,514.16	59.12	9,514.16	59.5699	9,514.16	55.7874	9,514.16	61.8753	9,514.16	50.8683	9,514.16	56.6424	9,514.16	39.0182	9,514.16	50.3069	9,514.16	51.2752	9,514.16	55.6686	9,514.16	50.7723	9,514.16	49.8738
9,849.61	87.6896	9,849.61	87.5425	9,849.61	86.3194	9,849.61	86.6664	9,849.61	85.4749	9,849.61	84.5714	9,849.61	81.7895	9,849.61	81.8723	9,849.61	80.8871	9,849.61	79.5619	9,849.61	77.5347	9,849.61	78.3415	9,849.61	76.2729	9,849.61	74.0439	9,849.61	69.811	9,849.61	70.0054	9,849.61	65.8629	9,849.61	67.6836	9,849.61	70.1875	9,849.61	56.5123	9,849.61	67.8664	9,849.61	59.8493	9,849.61	49.9376	9,849.61	52.3772	9,849.61	62.4451	9,849.61	55.3193	9,849.61	55.58	9,849.61	59.9785	9,849.61	54.5821	9,849.61	60.714	9,849.61	53.8927	9,849.61	50.8277	9,849.61	49.6971	9,849.61	50.4776	9,849.61	34.7603	9,849.61	52.0419
10,196.8	88.7848	10,196.8	87.587	10,196.8	87.4788	10,196.8	86.6129	10,196.8	86.7266	10,196.8	84.296	10,196.8	83.0015	10,196.8	82.378	10,196.8	81.106	10,196.8	79.5575	10,196.8	78.1853	10,196.8	78.2437	10,196.8	75.596	10,196.8	74.42	10,196.8	71.2447	10,196.8	68.9413	10,196.8	60.1057	10,196.8	66.284	10,196.8	69.5041	10,196.8	58.112	10,196.8	66.5797	10,196.8	56.354	10,196.8	50.9082	10,196.8	49.4368	10,196.8	62.8913	10,196.8	60.5851	10,196.8	53.5776	10,196.8	60.7544	10,196.8	55.6707	10,196.8	59.8702	10,196.8	43.1874	10,196.8	53.94	10,196.8	54.9966	10,196.8	49.1135	10,196.8	47.2045	10,196.8	46.7039
10,555.7	88.1596	10,555.7	87.4003	10,555.7	87.4773	10,555.7	86.8651	10,555.7	86.2217	10,555.7	84.8443	10,555.7	83.6585	10,555.7	82.4411	10,555.7	80.6359	10,555.7	79.9884	10,555.7	79.2243	10,555.7	78.1975	10,555.7	75.2426	10,555.7	74.5617	10,555.7	71.4743	10,555.7	69.5539	10,555.7	60.8638	10,555.7	67.7266	10,555.7	66.9194	10,555.7	57.1835	10,555.7	64.0844	10,555.7	62.1081	10,555.7	56.5988	10,555.7	55.0991	10,555.7	64.6488	10,555.7	57.2236	10,555.7	56.3534	10,555.7	61.4667	10,555.7	48.348	10,555.7	60.9217	10,555.7	51.5995	10,555.7	53.2202	10,555.7	52.2268	10,555.7	53.3621	10,555.7	43.2429	10,555.7	49.9666
10,927.7	88.2518	10,927.7	87.4542	10,927.7	86.9921	10,927.7	86.6004	10,927.7	85.8342	10,927.7	84.8112	10,927.7	83.479	10,927.7	82.5807	10,927.7	79.821	10,927.7	79.9752	10,927.7	79.7922	10,927.7	78.4779	10,927.7	74.8289	10,927.7	74.4053	10,927.7	72.185	10,927.7	70.3537	10,927.7	65.9186	10,927.7	66.9042	10,927.7	68.6374	10,927.7	58.279	10,927.7	61.6531	10,927.7	58.1441	10,927.7	57.944	10,927.7	55.7598	10,927.7	63.3461	10,927.7	56.5911	10,927.7	56.572	10,927.7	60.3857	10,927.7	53.9167	10,927.7	58.1718	10,927.7	40.5717	10,927.7	56.5242	10,927.7	53.7051	10,927.7	56.4235	10,927.7	37.6028	10,927.7	53.5529
11,313	88.3052	11,313	87.6598	11,313	87.3263	11,313	86.9574	11,313	85.6889	11,313	84.9379	11,313	83.7005	11,313	82.956	11,313	81.1861	11,313	79.5938	11,313	79.4652	11,313	78.6644	11,313	74.9808	11,313	74.49	11,313	71.6659	11,313	69.5042	11,313	56.7196	11,313	67.7499	11,313	63.1194	11,313	58.3283	11,313	58.9877	11,313	57.0076	11,313	59.4579	11,313	54.1092	11,313	64.9452	11,313	54.8727	11,313	59.2458	11,313	59.2378	11,313	48.7918	11,313	57.695	11,313	49.5994	11,313	57.4389	11,313	52.1723	11,313	52.2872	11,313	51.3768	11,313	52.2024
11,712.9	87.5061	11,712.9	87.4206	11,712.9	87.7175	11,712.9	86.764	11,712.9	86.2466	11,712.9	84.743	11,712.9	83.9478	11,712.9	83.1783	11,712.9	80.7853	11,712.9	79.887	11,712.9	78.9098	11,712.9	78.6045	11,712.9	76.0503	11,712.9	73.2636	11,712.9	69.3669	11,712.9	68.4103	11,712.9	63.9375	11,712.9	66.3328	11,712.9	62.2491	11,712.9	58.7144	11,712.9	58.8535	11,712.9	59.6562	11,712.9	63.6973	11,712.9	56.0713	11,712.9	65.6682	11,712.9	54.9722	11,712.9	56.5223	11,712.9	56.4803	11,712.9	54.5452	11,712.9	58.5587	11,712.9	46.5181	11,712.9	56.9797	11,712.9	49.662	11,712.9	53.0558	11,712.9	52.3328	11,712.9	54.1818
12,126	86.9168	12,126	87.2194	12,126	86.711	12,126	86.1497	12,126	85.7232	12,126	84.8654	12,126	83.9687	12,126	83.2804	12,126	81.4226	12,126	80.0158	12,126	78.4856	12,126	77.9868	12,126	75.379	12,126	72.5871	12,126	69.3486	12,126	67.7289	12,126	65.1587	12,126	63.8519	12,126	61.1137	12,126	54.6698	12,126	59.8779	12,126	56.0607	12,126	64.4953	12,126	52.3658	12,126	65.1503	12,126	51.9842	12,126	58.568	12,126	57.2307	12,126	52.0669	12,126	56.8521	12,126	47.8935	12,126	54.4247	12,126	45.8419	12,126	46.6585	12,126	48.0616	12,126	50.7792
12,553.7	86.8645	12,553.7	86.889	12,553.7	86.723	12,553.7	86.3626	12,553.7	86.2823	12,553.7	84.7077	12,553.7	83.5092	12,553.7	83.1143	12,553.7	81.6737	12,553.7	79.1715	12,553.7	77.0809	12,553.7	76.6449	12,553.7	75.0394	12,553.7	72.1404	12,553.7	67.218	12,553.7	66.6227	12,553.7	58.8468	12,553.7	63.9303	12,553.7	60.259	12,553.7	52.0946	12,553.7	56.9346	12,553.7	53.789	12,553.7	65.9357	12,553.7	51.2627	12,553.7	64.9339	12,553.7	51.0762	12,553.7	59.2363	12,553.7	56.3134	12,553.7	46.585	12,553.7	54.7267	12,553.7	50.6447	12,553.7	46.1919	12,553.7	50.1002	12,553.7	37.7204	12,553.7	53.6071	12,553.7	47.0041
12,996.1	87.2401	12,996.1	87.2364	12,996.1	87.703	12,996.1	86.2981	12,996.1	86.8619	12,996.1	84.977	12,996.1	84.3724	12,996.1	82.5836	12,996.1	80.9233	12,996.1	78.4327	12,996.1	77.7811	12,996.1	76.0651	12,996.1	73.0756	12,996.1	70.5291	12,996.1	69.7689	12,996.1	65.6318	12,996.1	60.3586	12,996.1	62.9797	12,996.1	60.888	12,996.1	56.3843	12,996.1	58.1883	12,996.1	55.3265	12,996.1	65.4874	12,996.1	54.0023	12,996.1	63.5995	12,996.1	52.3659	12,996.1	59.1277	12,996.1	55.3068	12,996.1	52.9837	12,996.1	52.238	12,996.1	51.755	12,996.1	42.7726	12,996.1	34.3995	12,996.1	48.1139	12,996.1	49.9232	12,996.1	44.802
13,454.6	88.293	13,454.6	87.7714	13,454.6	87.3952	13,454.6	87.0981	13,454.6	86.3264	13,454.6	85.1356	13,454.6	85.3867	13,454.6	82.7305	13,454.6	80.4236	13,454.6	77.5603	13,454.6	76.9581	13,454.6	75.3271	13,454.6	73.203	13,454.6	69.6739	13,454.6	68.5221	13,454.6	61.3516	13,454.6	58.0773	13,454.6	61.12	13,454.6	62.8442	13,454.6	52.1514	13,454.6	54.811	13,454.6	51.7595	13,454.6	65.3166	13,454.6	50.7898	13,454.6	62.6922	13,454.6	51.8512	13,454.6	59.6298	13,454.6	51.6802	13,454.6	52.9186	13,454.6	47.3361	13,454.6	39.6594	13,454.6	41.0441	13,454.6	48.0485	13,454.6	39.4588	13,454.6	36.2141	13,454.6	42.0615
13,929.2	89.5338	13,929.2	89.2096	13,929.2	88.9271	13,929.2	88.2586	13,929.2	88.2589	13,929.2	85.6488	13,929.2	84.0784	13,929.2	82.6306	13,929.2	81.117	13,929.2	77.1897	13,929.2	76.4866	13,929.2	72.7208	13,929.2	69.5987	13,929.2	67.4911	13,929.2	66.6124	13,929.2	58.3178	13,929.2	54.908	13,929.2	54.0346	13,929.2	56.486	13,929.2	47.9884	13,929.2	57.6872	13,929.2	27.5141	13,929.2	63.5831	13,929.2	33.1265	13,929.2	60.3573	13,929.2	42.5173	13,929.2	58.098	13,929.2	44.7679	13,929.2	52.0964	13,929.2	45.8659	13,929.2	49.8876	13,929.2	47.1582	13,929.2	31.0838	13,929.2	45.2229	13,929.2	37.6991	13,929.2	38.8154
14,419.9	90.5462	14,419.9	89.9179	14,419.9	89.908	14,419.9	88.6351	14,419.9	88.2363	14,419.9	85.7564	14,419.9	83.9263	14,419.9	81.9045	14,419.9	80.5888	14,419.9	75.647	14,419.9	76.1743	14,419.9	70.0521	14,419.9	68.6396	14,419.9	60.5766	14,419.9	62.9861	14,419.9	51.1792	14,419.9	56.0257	14,419.9	47.6019	14,419.9	48.6557	14,419.9	40.2247	14,419.9	55.4026	14,419.9	31.2623	14,419.9	60.387	14,419.9	34.4095	14,419.9	57.8693	14,419.9	44.0782	14,419.9	54.7759	14,419.9	40.3175	14,419.9	52.9282	14,419.9	45.9534	14,419.9	41.1326	14,419.9	44.0534	14,419.9	41.9954	14,419.9	43.077	14,419.9	29.2516	14,419.9	40.0991
14,928.2	90.9216	14,928.2	90.2983	14,928.2	89.8566	14,928.2	88.6151	14,928.2	87.9145	14,928.2	84.9633	14,928.2	83.7788	14,928.2	80.2734	14,928.2	78.6204	14,928.2	73.2462	14,928.2	74.3498	14,928.2	66.2264	14,928.2	66.603	14,928.2	46.0804	14,928.2	59.1742	14,928.2	38.0409	14,928.2	55.3885	14,928.2	48.6931	14,928.2	44.6277	14,928.2	40.8701	14,928.2	50.342	14,928.2	46.3415	14,928.2	55.2513	14,928.2	45.5511	14,928.2	53.7081	14,928.2	45.7816	14,928.2	54.52	14,928.2	40.8682	14,928.2	45.7925	14,928.2	45.1816	14,928.2	43.9956	14,928.2	36.3309	14,928.2	44.3552	14,928.2	40.3517	14,928.2	33.2338	14,928.2	40.4827
15,455.6	90.5562	15,455.6	89.893	15,455.6	89.6626	15,455.6	87.9294	15,455.6	87.4194	15,455.6	83.5674	15,455.6	82.4612	15,455.6	78.1996	15,455.6	76.5195	15,455.6	69.1999	15,455.6	70.6364	15,455.6	59.0752	15,455.6	59.4825	15,455.6	52.494	15,455.6	49.9882	15,455.6	52.0446	15,455.6	30.3082	15,455.6	52.3103	15,455.6	52.0274	15,455.6	28.4647	15,455.6	39.6878	15,455.6	46.8334	15,455.6	46.4384	15,455.6	44.6443	15,455.6	46.8518	15,455.6	44.4387	15,455.6	50.364	15,455.6	43.5117	15,455.6	44.8203	15,455.6	48.5898	15,455.6	38.845	15,455.6	46.8771	15,455.6	46.5605	15,455.6	23.161	15,455.6	35.1521	15,455.6	42.3394
16,000.5	89.7798	16,000.5	89.0429	16,000.5	88.5666	16,000.5	86.7315	16,000.5	86.2039	16,000.5	81.9858	16,000.5	80.1577	16,000.5	75.248	16,000.5	73.4111	16,000.5	63.6942	16,000.5	65.0193	16,000.5	50.5978	16,000.5	54.7618	16,000.5	58.9903	16,000.5	54.7857	16,000.5	57.0669	16,000.5	53.5952	16,000.5	52.687	16,000.5	54.8025	16,000.5	43.3736	16,000.5	33.1317	16,000.5	49.9098	16,000.5	39.9082	16,000.5	48.7157	16,000.5	48.3515	16,000.5	50.653	16,000.5	41.3947	16,000.5	47.5352	16,000.5	40.4804	16,000.5	52.2998	16,000.5	36.655	16,000.5	49.336	16,000.5	42.6563	16,000.5	44.9271	16,000.5	43.8938	16,000.5	41.0945
16,564.5	88.7685	16,564.5	87.9567	16,564.5	87.6323	16,564.5	85.4656	16,564.5	85.0269	16,564.5	80.3411	16,564.5	77.9787	16,564.5	72.7086	16,564.5	67.9288	16,564.5	59.9114	16,564.5	54.3392	16,564.5	58.8591	16,564.5	60.7666	16,564.5	62.8408	16,564.5	59.6522	16,564.5	58.8119	16,564.5	51.2011	16,564.5	54.2836	16,564.5	53.2136	16,564.5	43.3608	16,564.5	40.1974	16,564.5	49.7614	16,564.5	37.9867	16,564.5	46.2417	16,564.5	55.0769	16,564.5	48.0999	16,564.5	40.6148	16,564.5	47.6885	16,564.5	40.4417	16,564.5	52.5642	16,564.5	39.3979	16,564.5	50.3435	16,564.5	46.6829	16,564.5	45.5047	16,564.5	44.6641	16,564.5	36.0288
17,148.9	87.6528	17,148.9	86.7424	17,148.9	86.4358	17,148.9	84.213	17,148.9	83.7967	17,148.9	78.5285	17,148.9	75.8103	17,148.9	70.154	17,148.9	66.4901	17,148.9	57.1248	17,148.9	59.3389	17,148.9	60.2584	17,148.9	63.2945	17,148.9	64.0151	17,148.9	58.8762	17,148.9	59.9637	17,148.9	53.3428	17,148.9	55.7836	17,148.9	45.6225	17,148.9	42.0597	17,148.9	45.8276	17,148.9	47.2732	17,148.9	49.4397	17,148.9	44.765	17,148.9	58.4242	17,148.9	48.2203	17,148.9	50.3697	17,148.9	45.743	17,148.9	38.3844	17,148.9	49.4803	17,148.9	25.9943	17,148.9	51.1243	17,148.9	43.3786	17,148.9	46.7909	17,148.9	37.2072	17,148.9	41.0615
17,752.4	86.5363	17,752.4	85.3054	17,752.4	85.3508	17,752.4	82.894	17,752.4	82.2443	17,752.4	76.6795	17,752.4	72.9891	17,752.4	66.8513	17,752.4	54.213	17,752.4	57.0765	17,752.4	63.921	17,752.4	62.6884	17,752.4	65.4836	17,752.4	63.3652	17,752.4	57.6789	17,752.4	59.6598	17,752.4	56.9727	17,752.4	55.423	17,752.4	48.5014	17,752.4	38.6733	17,752.4	54.0045	17,752.4	44.9213	17,752.4	55.4319	17,752.4	41.5363	17,752.4	60.9369	17,752.4	45.9019	17,752.4	52.8324	17,752.4	42.9815	17,752.4	46.0324	17,752.4	44.976	17,752.4	38.8693	17,752.4	46.9942	17,752.4	46.9366	17,752.4	47.5442	17,752.4	35.9203	17,752.4	17.1625
18,379.4	85.8694	18,379.4	84.454	18,379.4	84.4038	18,379.4	81.2366	18,379.4	80.7978	18,379.4	73.5971	18,379.4	68.5695	18,379.4	59.8703	18,379.4	56.6323	18,379.4	62.1448	18,379.4	64.4872	18,379.4	63.5537	18,379.4	63.0222	18,379.4	61.7723	18,379.4	53.9497	18,379.4	56.2487	18,379.4	53.4849	18,379.4	53.6725	18,379.4	43.845	18,379.4	35.6366	18,379.4	58.2074	18,379.4	21.1636	18,379.4	58.3711	18,379.4	39.2829	18,379.4	61.6016	18,379.4	41.8232	18,379.4	55.2632	18,379.4	40.598	18,379.4	44.23	18,379.4	40.8921	18,379.4	36.2161	18,379.4	42.607	18,379.4	42.312	18,379.4	46.1666	18,379.4	24.9578	18,379.4	27.4924
19,026.9	85.0296	19,026.9	83.5889	19,026.9	83.3563	19,026.9	79.6724	19,026.9	78.3795	19,026.9	69.5109	19,026.9	61.7268	19,026.9	60.3783	19,026.9	64.4466	19,026.9	65.0178	19,026.9	67.3139	19,026.9	63.392	19,026.9	62.0664	19,026.9	58.146	19,026.9	44.8404	19,026.9	50.663	19,026.9	47.0569	19,026.9	51.4138	19,026.9	42.0609	19,026.9	44.9414	19,026.9	59.3352	19,026.9	34.8805	19,026.9	58.9521	19,026.9	43.7492	19,026.9	61.4497	19,026.9	47.3424	19,026.9	54.4769	19,026.9	42.0828	19,026.9	46.7202	19,026.9	41.0699	19,026.9	36.5105	19,026.9	40.5192	19,026.9	41.1261	19,026.9	44.7233	19,026.9	37.3926	19,026.9	36.2286
19,697.8	84.1497	19,697.8	82.5722	19,697.8	82.2325	19,697.8	78.0914	19,697.8	76.6052	19,697.8	66.7156	19,697.8	59.0137	19,697.8	65.1668	19,697.8	68.599	19,697.8	67.2258	19,697.8	67.769	19,697.8	63.1251	19,697.8	62.5436	19,697.8	51.9703	19,697.8	52.1623	19,697.8	49.6613	19,697.8	45.693	19,697.8	47.2403	19,697.8	42.0627	19,697.8	45.5618	19,697.8	59.1739	19,697.8	29.5913	19,697.8	59.1512	19,697.8	42.385	19,697.8	59.6516	19,697.8	45.6967	19,697.8	54.5581	19,697.8	43.3193	19,697.8	45.6441	19,697.8	39.6076	19,697.8	40.4101	19,697.8	41.6356	19,697.8	37.6508	19,697.8	42.0337	19,697.8	33.4066	19,697.8	35.357
19,999.5	83.9663	19,999.5	81.8211	19,999.5	81.7019	19,999.5	77.1198	19,999.5	75.8726	19,999.5	65.6923	19,999.5	63.9153	19,999.5	66.2021	19,999.5	68.6066	19,999.5	67.7271	19,999.5	66.5274	19,999.5	63.4622	19,999.5	63.0317	19,999.5	50.4479	19,999.5	53.9006	19,999.5	47.8554	19,999.5	46.9257	19,999.5	40.4231	19,999.5	45.3606	19,999.5	48.4647	19,999.5	59.8134	19,999.5	47.3107	19,999.5	59.1166	19,999.5	48.3834	19,999.5	59.5059	19,999.5	46.8823	19,999.5	53.124	19,999.5	44.2648	19,999.5	50.0897	19,999.5	45.3159	19,999.5	45.8692	19,999.5	40.6092	19,999.5	45.5687	19,999.5	42.8185	19,999.5	40.9614	19,999.5	27.3522
