"SPL Horizontal"
"On-Axis"		"10°"		"-10°"		"20°"		"-20°"		"30°"		"-30°"		"40°"		"-40°"		"50°"		"-50°"		"60°"		"-60°"		"70°"		"-70°"		"80°"		"-80°"		"90°"		"-90°"		"100°"		"-100°"		"110°"		"-110°"		"120°"		"-120°"		"130°"		"-130°"		"140°"		"-140°"		"150°"		"-150°"		"160°"		"-160°"		"170°"		"-170°"		"180°"
"Frequency / Hz"	"Sound Pressure Level / dB (re 20 µPa/V)  [2.83  V @ 1. m]"	"Frequency / Hz"	"Sound Pressure Level / dB (re 20 µPa/V)  [2.83  V @ 1. m]"	"Frequency / Hz"	"Sound Pressure Level / dB (re 20 µPa/V)  [2.83  V @ 1. m]"	"Frequency / Hz"	"Sound Pressure Level / dB (re 20 µPa/V)  [2.83  V @ 1. m]"	"Frequency / Hz"	"Sound Pressure Level / dB (re 20 µPa/V)  [2.83  V @ 1. m]"	"Frequency / Hz"	"Sound Pressure Level / dB (re 20 µPa/V)  [2.83  V @ 1. m]"	"Frequency / Hz"	"Sound Pressure Level / dB (re 20 µPa/V)  [2.83  V @ 1. m]"	"Frequency / Hz"	"Sound Pressure Level / dB (re 20 µPa/V)  [2.83  V @ 1. m]"	"Frequency / Hz"	"Sound Pressure Level / dB (re 20 µPa/V)  [2.83  V @ 1. m]"	"Frequency / Hz"	"Sound Pressure Level / dB (re 20 µPa/V)  [2.83  V @ 1. m]"	"Frequency / Hz"	"Sound Pressure Level / dB (re 20 µPa/V)  [2.83  V @ 1. m]"	"Frequency / Hz"	"Sound Pressure Level / dB (re 20 µPa/V)  [2.83  V @ 1. m]"	"Frequency / Hz"	"Sound Pressure Level / dB (re 20 µPa/V)  [2.83  V @ 1. m]"	"Frequency / Hz"	"Sound Pressure Level / dB (re 20 µPa/V)  [2.83  V @ 1. m]"	"Frequency / Hz"	"Sound Pressure Level / dB (re 20 µPa/V)  [2.83  V @ 1. m]"	"Frequency / Hz"	"Sound Pressure Level / dB (re 20 µPa/V)  [2.83  V @ 1. m]"	"Frequency / Hz"	"Sound Pressure Level / dB (re 20 µPa/V)  [2.83  V @ 1. m]"	"Frequency / Hz"	"Sound Pressure Level / dB (re 20 µPa/V)  [2.83  V @ 1. m]"	"Frequency / Hz"	"Sound Pressure Level / dB (re 20 µPa/V)  [2.83  V @ 1. m]"	"Frequency / Hz"	"Sound Pressure Level / dB (re 20 µPa/V)  [2.83  V @ 1. m]"	"Frequency / Hz"	"Sound Pressure Level / dB (re 20 µPa/V)  [2.83  V @ 1. m]"	"Frequency / Hz"	"Sound Pressure Level / dB (re 20 µPa/V)  [2.83  V @ 1. m]"	"Frequency / Hz"	"Sound Pressure Level / dB (re 20 µPa/V)  [2.83  V @ 1. m]"	"Frequency / Hz"	"Sound Pressure Level / dB (re 20 µPa/V)  [2.83  V @ 1. m]"	"Frequency / Hz"	"Sound Pressure Level / dB (re 20 µPa/V)  [2.83  V @ 1. m]"	"Frequency / Hz"	"Sound Pressure Level / dB (re 20 µPa/V)  [2.83  V @ 1. m]"	"Frequency / Hz"	"Sound Pressure Level / dB (re 20 µPa/V)  [2.83  V @ 1. m]"	"Frequency / Hz"	"Sound Pressure Level / dB (re 20 µPa/V)  [2.83  V @ 1. m]"	"Frequency / Hz"	"Sound Pressure Level / dB (re 20 µPa/V)  [2.83  V @ 1. m]"	"Frequency / Hz"	"Sound Pressure Level / dB (re 20 µPa/V)  [2.83  V @ 1. m]"	"Frequency / Hz"	"Sound Pressure Level / dB (re 20 µPa/V)  [2.83  V @ 1. m]"	"Frequency / Hz"	"Sound Pressure Level / dB (re 20 µPa/V)  [2.83  V @ 1. m]"	"Frequency / Hz"	"Sound Pressure Level / dB (re 20 µPa/V)  [2.83  V @ 1. m]"	"Frequency / Hz"	"Sound Pressure Level / dB (re 20 µPa/V)  [2.83  V @ 1. m]"	"Frequency / Hz"	"Sound Pressure Level / dB (re 20 µPa/V)  [2.83  V @ 1. m]"	"Frequency / Hz"	"Sound Pressure Level / dB (re 20 µPa/V)  [2.83  V @ 1. m]"
20.5078	49.5086	20.5078	49.747	20.5078	49.0957	20.5078	49.8106	20.5078	48.5037	20.5078	49.6939	20.5078	47.7218	20.5078	49.3863	20.5078	46.7336	20.5078	48.8724	20.5078	45.5206	20.5078	48.1321	20.5078	44.0797	20.5078	47.1461	20.5078	42.4801	20.5078	45.9118	20.5078	41.0159	20.5078	44.492	20.5078	40.3446	20.5078	43.1282	20.5078	40.9476	20.5078	42.3419	20.5078	42.3747	20.5078	42.5864	20.5078	43.932	20.5078	43.623	20.5078	45.2866	20.5078	44.8726	20.5078	46.3483	20.5078	45.9865	20.5078	47.1114	20.5078	46.8466	20.5078	47.5904	20.5078	47.4315	20.5078	47.7996	20.5078	47.7468
21.9727	49.4013	21.9727	49.4016	21.9727	49.1973	21.9727	49.191	21.9727	48.7846	21.9727	48.7487	21.9727	48.1462	21.9727	48.0353	21.9727	47.2516	21.9727	46.9839	21.9727	46.057	21.9727	45.4809	21.9727	44.5129	21.9727	43.3249	21.9727	42.6185	21.9727	40.1466	21.9727	40.6631	21.9727	35.593	21.9727	39.7471	21.9727	34.2801	21.9727	40.8774	21.9727	39.0635	21.9727	43.0278	21.9727	42.8632	21.9727	45.091	21.9727	45.4508	21.9727	46.7706	21.9727	47.2537	21.9727	48.0595	21.9727	48.5104	21.9727	49.0007	21.9727	49.3517	21.9727	49.6328	21.9727	49.8525	21.9727	49.9807	21.9727	50.0553
23.4375	50.3233	23.4375	50.3353	23.4375	50.1162	23.4375	50.144	23.4375	49.7142	23.4375	49.7318	23.4375	49.1111	23.4375	49.0707	23.4375	48.2975	23.4375	48.1218	23.4375	47.27	23.4375	46.841	23.4375	46.0596	23.4375	45.2157	23.4375	44.8037	23.4375	43.4177	23.4375	43.8675	23.4375	42.2019	23.4375	43.7864	23.4375	42.6882	23.4375	44.7007	23.4375	44.5154	23.4375	46.1438	23.4375	46.5277	23.4375	47.6345	23.4375	48.2376	23.4375	48.9469	23.4375	49.5704	23.4375	50.0125	23.4375	50.5553	23.4375	50.8223	23.4375	51.2334	23.4375	51.3838	23.4375	51.6379	23.4375	51.7054	23.4375	51.7912
24.9023	51.3093	24.9023	51.2432	24.9023	51.1578	24.9023	50.9501	24.9023	50.7834	24.9023	50.4043	24.9023	50.1653	24.9023	49.558	24.9023	49.2634	24.9023	48.3311	24.9023	48.011	24.9023	46.5901	24.9023	46.3026	24.9023	44.1179	24.9023	43.9941	24.9023	40.7007	24.9023	41.0756	24.9023	37.8401	24.9023	38.9721	24.9023	40.2244	24.9023	40.6892	24.9023	44.0543	24.9023	43.9312	24.9023	46.9462	24.9023	46.6414	24.9023	49.0256	24.9023	48.6908	24.9023	50.5196	24.9023	50.2162	24.9023	51.5695	24.9023	51.3267	24.9023	52.2596	24.9023	52.0919	24.9023	52.6389	24.9023	52.5536	24.9023	52.7339
26.3672	51.029	26.3672	50.9448	26.3672	50.8773	26.3672	50.6118	26.3672	50.4879	26.3672	50.0004	26.3672	49.844	26.3672	49.061	26.3672	48.9137	26.3672	47.7201	26.3672	47.6525	26.3672	45.8968	26.3672	46.0284	26.3672	43.6514	26.3672	44.1528	26.3672	41.9108	26.3672	42.7223	26.3672	42.737	26.3672	43.1111	26.3672	45.3915	26.3672	45.1671	26.3672	47.9893	26.3672	47.5102	26.3672	50.0755	26.3672	49.5428	26.3672	51.6788	26.3672	51.1807	26.3672	52.8806	26.3672	52.4579	26.3672	53.7458	26.3672	53.4187	26.3672	54.3195	26.3672	54.0978	26.3672	54.6306	26.3672	54.5188	26.3672	54.6951
27.832	53.1069	27.832	53.0191	27.832	52.9704	27.832	52.6981	27.832	52.6059	27.832	52.1205	27.832	51.9957	27.832	51.247	27.832	51.1074	27.832	50.0228	27.832	49.8942	27.832	48.3951	27.832	48.3093	27.832	46.4245	27.832	46.3937	27.832	44.7371	27.832	44.6382	27.832	44.8766	27.832	44.4283	27.832	46.9161	27.832	46.2119	27.832	49.2937	27.832	48.5716	27.832	51.3187	27.832	50.6725	27.832	52.909	27.832	52.3652	27.832	54.112	27.832	53.6778	27.832	54.9825	27.832	54.6588	27.832	55.562	27.832	55.3477	27.832	55.8783	27.832	55.7717	27.832	55.9467
29.2969	54.0911	29.2969	54.0334	29.2969	53.9414	29.2969	53.7618	29.2969	53.5825	29.2969	53.2616	29.2969	53.0045	29.2969	52.513	29.2969	52.192	29.2969	51.5022	29.2969	51.1345	29.2969	50.2591	29.2969	49.8597	29.2969	48.9681	29.2969	48.5326	29.2969	48.1547	29.2969	47.6342	29.2969	48.4896	29.2969	47.8366	29.2969	49.8824	29.2969	49.1493	29.2969	51.6214	29.2969	50.896	29.2969	53.2392	29.2969	52.5761	29.2969	54.5845	29.2969	54.0114	29.2969	55.6368	29.2969	55.1683	29.2969	56.4119	29.2969	56.0561	29.2969	56.931	29.2969	56.6922	29.2969	57.2113	29.2969	57.0916	29.2969	57.2636
30.7617	54.5952	30.7617	54.4869	30.7617	54.4715	30.7617	54.1356	30.7617	54.1125	30.7617	53.5153	30.7617	53.5003	30.7617	52.5825	30.7617	52.5994	30.7617	51.2761	30.7617	51.3541	30.7617	49.5401	30.7617	49.6922	30.7617	47.4673	30.7617	47.5868	30.7617	45.8717	30.7617	45.4165	30.7617	46.4285	30.7617	44.8152	30.7617	48.72	30.7617	46.7399	30.7617	51.1211	30.7617	49.3755	30.7617	53.0995	30.7617	51.6668	30.7617	54.6301	30.7617	53.4832	30.7617	55.7734	30.7617	54.8831	30.7617	56.5864	30.7617	55.9329	30.7617	57.1105	30.7617	56.6811	30.7617	57.3729	30.7617	57.16	30.7617	57.3882
32.2266	55.5735	32.2266	55.5094	32.2266	55.4201	32.2266	55.2214	32.2266	55.0449	32.2266	54.6924	32.2266	54.4328	32.2266	53.8966	32.2266	53.5588	32.2266	52.808	32.2266	52.3949	32.2266	51.4368	32.2266	50.9411	32.2266	49.9535	32.2266	49.3429	32.2266	48.9582	32.2266	48.1814	32.2266	49.3193	32.2266	48.4199	32.2266	50.9129	32.2266	50.0355	32.2266	52.8343	32.2266	52.053	32.2266	54.5684	32.2266	53.8976	32.2266	55.9833	32.2266	55.4242	32.2266	57.0778	32.2266	56.6305	32.2266	57.8793	32.2266	57.5443	32.2266	58.4155	32.2266	58.1925	32.2266	58.7068	32.2266	58.5955	32.2266	58.7655
33.6914	56.0689	33.6914	55.9193	33.6914	55.9943	33.6914	55.5366	33.6914	55.6958	33.6914	54.9052	33.6914	55.1671	33.6914	54.0096	33.6914	54.3999	33.6914	52.8622	33.6914	53.4005	33.6914	51.5877	33.6914	52.239	33.6914	50.6097	33.6914	51.1656	33.6914	50.652	33.6914	50.7196	33.6914	51.9081	33.6914	51.3685	33.6914	53.7176	33.6914	52.8554	33.6914	55.497	33.6914	54.5779	33.6914	57.0272	33.6914	56.1794	33.6914	58.2661	33.6914	57.5404	33.6914	59.2256	33.6914	58.6403	33.6914	59.9279	33.6914	59.489	33.6914	60.3938	33.6914	60.1019	33.6914	60.6383	33.6914	60.4927	33.6914	60.6704
35.1562	57.0221	35.1562	56.8927	35.1562	56.9268	35.1562	56.5322	35.1562	56.6054	35.1562	55.9291	35.1562	56.0499	35.1562	55.0752	35.1562	55.2509	35.1562	53.9947	35.1562	54.2147	35.1562	52.8259	35.1562	53.0154	35.1562	51.9748	35.1562	51.9202	35.1562	52.0675	35.1562	51.4998	35.1562	53.2463	35.1562	52.2161	35.1562	54.9433	35.1562	53.7581	35.1562	56.6352	35.1562	55.5062	35.1562	58.1067	35.1562	57.1165	35.1562	59.3068	35.1562	58.4803	35.1562	60.2398	35.1562	59.5823	35.1562	60.9235	35.1562	60.4339	35.1562	61.3756	35.1562	61.0514	35.1562	61.6094	35.1562	61.4481	35.1562	61.6329
36.6211	58.9191	36.6211	58.7844	36.6211	58.8649	36.6211	58.4615	36.6211	58.6209	36.6211	57.9551	36.6211	58.1865	36.6211	57.2864	36.6211	57.5676	36.6211	56.5216	36.6211	56.794	36.6211	55.8203	36.6211	55.956	36.6211	55.4665	36.6211	55.2617	36.6211	55.7416	36.6211	55.041	36.6211	56.6506	36.6211	55.5333	36.6211	57.9112	36.6211	56.6219	36.6211	59.227	36.6211	57.9684	36.6211	60.4266	36.6211	59.3028	36.6211	61.4384	36.6211	60.4911	36.6211	62.2413	36.6211	61.4839	36.6211	62.8348	36.6211	62.2695	36.6211	63.2252	36.6211	62.8504	36.6211	63.4192	36.6211	63.2326	36.6211	63.4214
38.0859	60.301	38.0859	60.2265	38.0859	60.2	38.0859	59.978	38.0859	59.9219	38.0859	59.5605	38.0859	59.4667	38.0859	58.991	38.0859	58.8421	38.0859	58.3189	38.0859	58.08	38.0859	57.6612	38.0859	57.2698	38.0859	57.2329	38.0859	56.6061	38.0859	57.2896	38.0859	56.3841	38.0859	57.9284	38.0859	56.8168	38.0859	58.9806	38.0859	57.8107	38.0859	60.1769	38.0859	59.068	38.0859	61.3201	38.0859	60.3349	38.0859	62.3103	38.0859	61.4761	38.0859	63.1087	38.0859	62.4367	38.0859	63.7054	38.0859	63.2001	38.0859	64.1022	38.0859	63.7652	38.0859	64.304	38.0859	64.1356	38.0859	64.3146
39.5508	61.3043	39.5508	61.212	39.5508	61.2381	39.5508	60.964	39.5508	61.0146	39.5508	60.5705	39.5508	60.6393	39.5508	60.0603	39.5508	60.1289	39.5508	59.5002	39.5508	59.5249	39.5508	59.0211	39.5508	58.9171	39.5508	58.8186	39.5508	58.4667	39.5508	59.0677	39.5508	58.3815	39.5508	59.7804	39.5508	58.7941	39.5508	60.7902	39.5508	59.6418	39.5508	61.888	39.5508	60.7234	39.5508	62.9247	39.5508	61.8443	39.5508	63.8211	39.5508	62.882	39.5508	64.5436	39.5508	63.7754	39.5508	65.0815	39.5508	64.4987	39.5508	65.4343	39.5508	65.0437	39.5508	65.605	39.5508	65.4093	39.5508	65.5962
41.0156	62.856	41.0156	62.8095	41.0156	62.7511	41.0156	62.6157	41.0156	62.4921	41.0156	62.2826	41.0156	62.0782	41.0156	61.8289	41.0156	61.5148	41.0156	61.2963	41.0156	60.8241	41.0156	60.7682	41.0156	60.0659	41.0156	60.3824	41.0156	59.3706	41.0156	60.3035	41.0156	58.9544	41.0156	60.6308	41.0156	59.0383	41.0156	61.3145	41.0156	59.6674	41.0156	62.1946	41.0156	60.6611	41.0156	63.1068	41.0156	61.7762	41.0156	63.9392	41.0156	62.841	41.0156	64.6316	41.0156	63.7675	41.0156	65.1566	41.0156	64.5193	41.0156	65.5042	41.0156	65.0851	41.0156	65.6719	41.0156	65.4641	41.0156	65.659
42.4805	63.2106	42.4805	63.1511	42.4805	63.1298	42.4805	62.9546	42.4805	62.909	42.4805	62.6311	42.4805	62.5537	42.4805	62.2046	42.4805	62.0803	42.4805	61.7276	42.4805	61.5282	42.4805	61.2982	42.4805	60.9792	42.4805	61.0646	42.4805	60.5739	42.4805	61.1781	42.4805	60.4894	42.4805	61.6932	42.4805	60.8429	42.4805	62.5182	42.4805	61.5938	42.4805	63.4855	42.4805	62.5761	42.4805	64.4467	42.4805	63.6146	42.4805	65.3081	42.4805	64.589	42.4805	66.0211	42.4805	65.4341	42.4805	66.5648	42.4805	66.1197	42.4805	66.932	42.4805	66.6337	42.4805	67.1219	42.4805	66.9723	42.4805	67.1351
43.9453	64.3267	43.9453	64.251	43.9453	64.2618	43.9453	64.0373	43.9453	64.0581	43.9453	63.6956	43.9453	63.7228	43.9453	63.2513	43.9453	63.2741	43.9453	62.76	43.9453	62.7522	43.9453	62.3253	43.9453	62.2367	43.9453	62.101	43.9453	61.8595	43.9453	62.2379	43.9453	61.7831	43.9453	62.7806	43.9453	62.1154	43.9453	63.6259	43.9453	62.8236	43.9453	64.6019	43.9453	63.7593	43.9453	65.563	43.9453	64.7584	43.9453	66.419	43.9453	65.7041	43.9453	67.1244	43.9453	66.5302	43.9453	67.6601	43.9453	67.2041	43.9453	68.0201	43.9453	67.7121	43.9453	68.2041	43.9453	68.049	43.9453	68.2133
45.4102	65.348	45.4102	65.2789	45.4102	65.2906	45.4102	65.0883	45.4102	65.1082	45.4102	64.7903	45.4102	64.8091	45.4102	64.4157	45.4102	64.4138	45.4102	64.0239	45.4102	63.9643	45.4102	63.7131	45.4102	63.537	45.4102	63.6116	45.4102	63.2489	45.4102	63.8272	45.4102	63.2332	45.4102	64.3758	45.4102	63.5717	45.4102	65.166	45.4102	64.2341	45.4102	66.0596	45.4102	65.0988	45.4102	66.9372	45.4102	66.0276	45.4102	67.721	45.4102	66.916	45.4102	68.3684	45.4102	67.7006	45.4102	68.8595	45.4102	68.3476	45.4102	69.1865	45.4102	68.8409	45.4102	69.3475	45.4102	69.1736	45.4102	69.3429
46.875	66.4192	46.875	66.3542	46.875	66.3662	46.875	66.177	46.875	66.1968	46.875	65.9039	46.875	65.9203	46.875	65.5679	46.875	65.5586	46.875	65.2292	46.875	65.1546	46.875	64.9809	46.875	64.782	46.875	64.9368	46.875	64.5475	46.875	65.1842	46.875	64.5665	46.875	65.7282	46.875	64.9055	46.875	66.4843	46.875	65.536	46.875	67.3308	46.875	66.352	46.875	68.1614	46.875	67.2313	46.875	68.9043	46.875	68.078	46.875	69.519	46.875	68.8311	46.875	69.9852	46.875	69.4565	46.875	70.2942	46.875	69.9366	46.875	70.4435	46.875	70.2633	46.875	70.4329
48.3398	67.4763	48.3398	67.4292	48.3398	67.4227	48.3398	67.289	48.3398	67.2695	48.3398	67.0741	48.3398	67.0273	48.3398	66.8191	48.3398	66.7191	48.3398	66.5804	48.3398	66.3875	48.3398	66.4369	48.3398	66.1	48.3398	66.4745	48.3398	65.9472	48.3398	66.752	48.3398	66.0192	48.3398	67.2656	48.3398	66.3633	48.3398	67.9492	48.3398	66.9529	48.3398	68.7083	48.3398	67.7027	48.3398	69.4565	48.3398	68.5119	48.3398	70.1312	48.3398	69.2971	48.3398	70.6936	48.3398	70.0016	48.3398	71.1222	48.3398	70.5913	48.3398	71.4062	48.3398	71.0476	48.3398	71.5412	48.3398	71.3607	48.3398	71.5259
51.2695	69.9328	51.2695	69.909	51.2695	69.8813	51.2695	69.8168	51.2695	69.7555	51.2695	69.6717	51.2695	69.5646	51.2695	69.5009	51.2695	69.3283	51.2695	69.3459	51.2695	69.081	51.2695	69.2612	51.2695	68.8742	51.2695	69.3057	51.2695	68.7732	51.2695	69.5225	51.2695	68.8417	51.2695	69.9183	51.2695	69.1165	51.2695	70.457	51.2695	69.5867	51.2695	71.0751	51.2695	70.1979	51.2695	71.7041	51.2695	70.8759	51.2695	72.2871	51.2695	71.5508	51.2695	72.7838	51.2695	72.169	51.2695	73.1684	51.2695	72.6947	51.2695	73.4266	51.2695	73.1056	51.2695	73.551	51.2695	73.389	51.2695	73.5384
52.7344	71.1744	52.7344	71.1579	52.7344	71.1218	52.7344	71.0778	52.7344	71.0014	52.7344	70.9479	52.7344	70.822	52.7344	70.792	52.7344	70.6023	52.7344	70.646	52.7344	70.3738	52.7344	70.5582	52.7344	70.1825	52.7344	70.5813	52.7344	70.0862	52.7344	70.7569	52.7344	70.1412	52.7344	71.0968	52.7344	70.3815	52.7344	71.575	52.7344	70.801	52.7344	72.1368	52.7344	71.3548	52.7344	72.7196	52.7344	71.9773	52.7344	73.2676	52.7344	72.6039	52.7344	73.7398	52.7344	73.1829	52.7344	74.109	52.7344	73.6781	52.7344	74.3592	52.7344	74.0663	52.7344	74.4818	52.7344	74.3339	52.7344	74.4734
54.1992	72.3459	54.1992	72.3366	54.1992	72.2898	54.1992	72.2661	54.1992	72.1701	54.1992	72.146	54.1992	71.9955	54.1992	71.9965	54.1992	71.7831	54.1992	71.8493	54.1992	71.5615	54.1992	71.7469	54.1992	71.372	54.1992	71.7385	54.1992	71.2663	54.1992	71.8659	54.1992	71.296	54.1992	72.1467	54.1992	71.4947	54.1992	72.5642	54.1992	71.8615	54.1992	73.0722	54.1992	72.36	54.1992	73.6121	54.1992	72.9319	54.1992	74.129	54.1992	73.5166	54.1992	74.5801	54.1992	74.063	54.1992	74.9362	54.1992	74.534	54.1992	75.1796	54.1992	74.9052	54.1992	75.3004	54.1992	75.1614	54.1992	75.2944
55.6641	73.3449	55.6641	73.3214	55.6641	73.3037	55.6641	73.2376	55.6641	73.1995	55.6641	73.1053	55.6641	73.0406	55.6641	72.9451	55.6641	72.8436	55.6641	72.7891	55.6641	72.6357	55.6641	72.6805	55.6641	72.4561	55.6641	72.6686	55.6641	72.3539	55.6641	72.7948	55.6641	72.3786	55.6641	73.0758	55.6641	72.5631	55.6641	73.4937	55.6641	72.9092	55.6641	74.0018	55.6641	73.3841	55.6641	74.5415	55.6641	73.9335	55.6641	75.0582	55.6641	74.4989	55.6641	75.5095	55.6641	75.0302	55.6641	75.8666	55.6641	75.49	55.6641	76.1116	55.6641	75.8529	55.6641	76.2347	55.6641	76.1033	55.6641	76.2319
58.5938	75.1744	58.5938	75.146	58.5938	75.1594	58.5938	75.0789	58.5938	75.1028	58.5938	74.985	58.5938	75.013	58.5938	74.8845	58.5938	74.9053	58.5938	74.8063	58.5938	74.8031	58.5938	74.7863	58.5938	74.737	58.5938	74.8606	58.5938	74.7412	58.5938	75.0557	58.5938	74.8469	58.5938	75.3769	58.5938	75.0722	58.5938	75.8041	58.5938	75.4143	58.5938	76.2977	58.5938	75.8495	58.5938	76.81	58.5938	76.3393	58.5938	77.296	58.5938	76.8406	58.5938	77.7197	58.5938	77.3138	58.5938	78.0551	58.5938	77.7268	58.5938	78.2858	58.5938	78.0556	58.5938	78.4024	58.5938	78.284	58.5938	78.4014
60.0586	76.3085	60.0586	76.2977	60.0586	76.2804	60.0586	76.2524	60.0586	76.2151	60.0586	76.1834	60.0586	76.1203	60.0586	76.1086	60.0586	76.0099	60.0586	76.0529	60.0586	75.9047	60.0586	76.0465	60.0586	75.8319	60.0586	76.1197	60.0586	75.8219	60.0586	76.2944	60.0586	75.9033	60.0586	76.576	60.0586	76.0939	60.0586	76.9493	60.0586	76.3943	60.0586	77.382	60.0586	76.7859	60.0586	77.8335	60.0586	77.2351	60.0586	78.2641	60.0586	77.7024	60.0586	78.6402	60.0586	78.1499	60.0586	78.9368	60.0586	78.5457	60.0586	79.1374	60.0586	78.8658	60.0586	79.2321	60.0586	79.0932	60.0586	79.2171
62.9883	78.3059	62.9883	78.2993	62.9883	78.2824	62.9883	78.2659	62.9883	78.2303	62.9883	78.2147	62.9883	78.1567	62.9883	78.1607	62.9883	78.0738	62.9883	78.1244	62.9883	77.9993	62.9883	78.1305	62.9883	77.9555	62.9883	78.2036	62.9883	77.9671	62.9883	78.3623	62.9883	78.0564	62.9883	78.6122	62.9883	78.2374	62.9883	78.9425	62.9883	78.5104	62.9883	79.328	62.9883	78.8605	62.9883	79.7345	62.9883	79.2603	62.9883	80.1268	62.9883	79.6769	62.9883	80.4736	62.9883	80.077	62.9883	80.7509	62.9883	80.4319	62.9883	80.9416	62.9883	80.7187	62.9883	81.0357	62.9883	80.9212	62.9883	81.0286
64.4531	79.2334	64.4531	79.222	64.4531	79.2193	64.4531	79.1886	64.4531	79.1811	64.4531	79.1417	64.4531	79.1249	64.4531	79.095	64.4531	79.0614	64.4531	79.0672	64.4531	79.0064	64.4531	79.0803	64.4531	78.9792	64.4531	79.1561	64.4531	79.0011	64.4531	79.3105	64.4531	79.0915	64.4531	79.5484	64.4531	79.2626	64.4531	79.8604	64.4531	79.5154	64.4531	80.2237	64.4531	79.8377	64.4531	80.6076	64.4531	80.2061	64.4531	80.9795	64.4531	80.5914	64.4531	81.31	64.4531	80.963	64.4531	81.5757	64.4531	81.2938	64.4531	81.76	64.4531	81.5617	64.4531	81.8527	64.4531	81.7505	64.4531	81.8493
67.3828	81.0345	67.3828	81.0293	67.3828	81.0209	67.3828	81.0086	67.3828	80.9894	67.3828	80.9798	67.3828	80.9446	67.3828	80.9541	67.3828	80.8953	67.3828	80.9466	67.3828	80.8539	67.3828	80.974	67.3828	80.8362	67.3828	81.053	67.3828	80.8592	67.3828	81.1957	67.3828	80.9387	67.3828	81.406	67.3828	81.0854	67.3828	81.6769	67.3828	81.3016	67.3828	81.991	67.3828	81.5788	67.3828	82.3235	67.3828	81.8993	67.3828	82.6468	67.3828	82.2386	67.3828	82.9349	67.3828	82.5706	67.3828	83.1663	67.3828	82.8704	67.3828	83.3251	67.3828	83.1168	67.3828	83.4014	67.3828	83.2939	67.3828	83.3908
68.8477	81.9165	68.8477	81.9197	68.8477	81.8979	68.8477	81.9101	68.8477	81.8648	68.8477	81.8937	68.8477	81.8216	68.8477	81.8799	68.8477	81.776	68.8477	81.8813	68.8477	81.7391	68.8477	81.9123	68.8477	81.7242	68.8477	81.987	68.8477	81.7463	68.8477	82.1164	68.8477	81.819	68.8477	82.3046	68.8477	81.952	68.8477	82.5467	68.8477	82.148	68.8477	82.8283	68.8477	82.4002	68.8477	83.1282	68.8477	82.6937	68.8477	83.4217	68.8477	83.0071	68.8477	83.6845	68.8477	83.3162	68.8477	83.896	68.8477	83.5975	68.8477	84.0407	68.8477	83.8309	68.8477	84.1085	68.8477	84.0003	68.8477	84.0947
71.7773	83.5927	71.7773	83.5963	71.7773	83.5759	71.7773	83.5886	71.7773	83.5464	71.7773	83.5746	71.7773	83.5079	71.7773	83.562	71.7773	83.4666	71.7773	83.5607	71.7773	83.4313	71.7773	83.5827	71.7773	83.413	71.7773	83.6397	71.7773	83.4241	71.7773	83.7415	71.7773	83.4766	71.7773	83.8931	71.7773	83.5798	71.7773	84.0919	71.7773	83.7374	71.7773	84.3279	71.7773	83.946	71.7773	84.5838	71.7773	84.1944	71.7773	84.8385	71.7773	84.4649	71.7773	85.0699	71.7773	84.7362	71.7773	85.2584	71.7773	84.9867	71.7773	85.3883	71.7773	85.1966	71.7773	85.4493	71.7773	85.3502	71.7773	85.4364
74.707	84.9233	74.707	84.9293	74.707	84.9064	74.707	84.926	74.707	84.8792	74.707	84.9174	74.707	84.8449	74.707	84.9097	74.707	84.8087	74.707	84.9112	74.707	84.7781	74.707	84.9315	74.707	84.7625	74.707	84.9805	74.707	84.7723	74.707	85.0668	74.707	84.8177	74.707	85.1953	74.707	84.907	74.707	85.365	74.707	85.0439	74.707	85.5687	74.707	85.2262	74.707	85.7925	74.707	85.4451	74.707	86.0182	74.707	85.6856	74.707	86.226	74.707	85.9289	74.707	86.3973	74.707	86.1551	74.707	86.5168	74.707	86.3457	74.707	86.5739	74.707	86.4854	74.707	86.5634
77.6367	85.9191	77.6367	85.9275	77.6367	85.9024	77.6367	85.9288	77.6367	85.878	77.6367	85.9262	77.6367	85.8487	77.6367	85.9248	77.6367	85.8189	77.6367	85.9314	77.6367	85.7948	77.6367	85.9539	77.6367	85.7842	77.6367	86.0005	77.6367	85.7956	77.6367	86.0785	77.6367	85.8374	77.6367	86.1923	77.6367	85.9167	77.6367	86.3418	77.6367	86.0373	77.6367	86.5213	77.6367	86.1979	77.6367	86.7194	77.6367	86.3916	77.6367	86.9205	77.6367	86.6062	77.6367	87.1068	77.6367	86.8253	77.6367	87.2611	77.6367	87.0309	77.6367	87.3688	77.6367	87.2058	77.6367	87.4196	77.6367	87.3351	77.6367	87.4082
79.1016	86.3178	79.1016	86.3277	79.1016	86.3021	79.1016	86.3327	79.1016	86.281	79.1016	86.3358	79.1016	86.2569	79.1016	86.3415	79.1016	86.2336	79.1016	86.3556	79.1016	86.2166	79.1016	86.3851	79.1016	86.2126	79.1016	86.4369	79.1016	86.2292	79.1016	86.5173	79.1016	86.274	79.1016	86.6299	79.1016	86.3532	79.1016	86.7746	79.1016	86.4703	79.1016	86.9461	79.1016	86.6245	79.1016	87.1343	79.1016	86.8097	79.1016	87.3248	79.1016	87.0145	79.1016	87.5011	79.1016	87.2238	79.1016	87.647	79.1016	87.4207	79.1016	87.7487	79.1016	87.5886	79.1016	87.7961	79.1016	87.7132	79.1016	87.7842
82.0312	87.0109	82.0312	87.0268	82.0312	86.9931	82.0312	87.0416	82.0312	86.9739	82.0312	87.0573	82.0312	86.9548	82.0312	87.0767	82.0312	86.9389	82.0312	87.1037	82.0312	86.9299	82.0312	87.1427	82.0312	86.9329	82.0312	87.1986	82.0312	86.9536	82.0312	87.2754	82.0312	86.9979	82.0312	87.376	82.0312	87.0706	82.0312	87.5005	82.0312	87.1748	82.0312	87.6456	82.0312	87.31	82.0312	87.8037	82.0312	87.4718	82.0312	87.9637	82.0312	87.6513	82.0312	88.1121	82.0312	87.8358	82.0312	88.2349	82.0312	88.0108	82.0312	88.3195	82.0312	88.1616	82.0312	88.3568	82.0312	88.2752	82.0312	88.342
84.9609	87.4858	84.9609	87.5056	84.9609	87.4647	84.9609	87.5242	84.9609	87.4432	84.9609	87.5424	84.9609	87.423	84.9609	87.5619	84.9609	87.4066	84.9609	87.5854	84.9609	87.3972	84.9609	87.6159	84.9609	87.3986	84.9609	87.6571	84.9609	87.415	84.9609	87.7129	84.9609	87.4508	84.9609	87.7863	84.9609	87.5095	84.9609	87.8787	84.9609	87.5934	84.9609	87.989	84.9609	87.7026	84.9609	88.1124	84.9609	87.8339	84.9609	88.2404	84.9609	87.9806	84.9609	88.3618	84.9609	88.1328	84.9609	88.4642	84.9609	88.2784	84.9609	88.5361	84.9609	88.4049	84.9609	88.5685	84.9609	88.5005	84.9609	88.5566
87.8906	87.7042	87.8906	87.7137	87.8906	87.6937	87.8906	87.7226	87.8906	87.6826	87.8906	87.7318	87.8906	87.6716	87.8906	87.7427	87.8906	87.6623	87.8906	87.7578	87.8906	87.6568	87.8906	87.7801	87.8906	87.658	87.8906	87.813	87.8906	87.6694	87.8906	87.8602	87.8906	87.6949	87.8906	87.9247	87.8906	87.7385	87.8906	88.0081	87.8906	87.8034	87.8906	88.1093	87.8906	87.8911	87.8906	88.2239	87.8906	88.0005	87.8906	88.3441	87.8906	88.1266	87.8906	88.459	87.8906	88.2609	87.8906	88.5567	87.8906	88.3922	87.8906	88.6259	87.8906	88.5079	87.8906	88.6578	87.8906	88.5961	87.8906	88.6478
90.8203	87.7052	90.8203	87.7174	90.8203	87.6952	90.8203	87.7319	90.8203	87.6874	90.8203	87.7495	90.8203	87.682	90.8203	87.7713	90.8203	87.6801	90.8203	87.7985	90.8203	87.683	90.8203	87.833	90.8203	87.6928	90.8203	87.8769	90.8203	87.7121	90.8203	87.9323	90.8203	87.744	90.8203	88.0011	90.8203	87.7917	90.8203	88.0842	90.8203	87.8578	90.8203	88.1803	90.8203	87.9436	90.8203	88.2859	90.8203	88.0478	90.8203	88.3946	90.8203	88.1665	90.8203	88.4973	90.8203	88.2921	90.8203	88.5837	90.8203	88.4149	90.8203	88.6438	90.8203	88.5234	90.8203	88.6698	90.8203	88.6071	90.8203	88.6575
95.2148	87.6682	95.2148	87.6856	95.2148	87.6572	95.2148	87.709	95.2148	87.6524	95.2148	87.7382	95.2148	87.6539	95.2148	87.7728	95.2148	87.6617	95.2148	87.8125	95.2148	87.6757	95.2148	87.857	95.2148	87.6964	95.2148	87.9064	95.2148	87.7244	95.2148	87.961	95.2148	87.7606	95.2148	88.0215	95.2148	87.8065	95.2148	88.0884	95.2148	87.8635	95.2148	88.1616	95.2148	87.9328	95.2148	88.2394	95.2148	88.0143	95.2148	88.3182	95.2148	88.1059	95.2148	88.3923	95.2148	88.2032	95.2148	88.4541	95.2148	88.2994	95.2148	88.496	95.2148	88.3861	95.2148	88.5117	95.2148	88.4545	95.2148	88.4978
98.1445	87.6097	98.1445	87.6273	98.1445	87.5989	98.1445	87.6515	98.1445	87.595	98.1445	87.6815	98.1445	87.5976	98.1445	87.7165	98.1445	87.6064	98.1445	87.7554	98.1445	87.6208	98.1445	87.7973	98.1445	87.6403	98.1445	87.8416	98.1445	87.6649	98.1445	87.8882	98.1445	87.6952	98.1445	87.9375	98.1445	87.732	98.1445	87.9902	98.1445	87.7768	98.1445	88.0467	98.1445	87.831	98.1445	88.1065	98.1445	87.8954	98.1445	88.1673	98.1445	87.9689	98.1445	88.2247	98.1445	88.0485	98.1445	88.2728	98.1445	88.1288	98.1445	88.3047	98.1445	88.2024	98.1445	88.3151	98.1445	88.2619	98.1445	88.3007
101.074	87.5456	101.074	87.5644	101.074	87.5345	101.074	87.5905	101.074	87.5311	101.074	87.6226	101.074	87.5349	101.074	87.6593	101.074	87.545	101.074	87.699	101.074	87.5604	101.074	87.7397	101.074	87.5801	101.074	87.7803	101.074	87.6034	101.074	87.8198	101.074	87.6301	101.074	87.8584	101.074	87.6604	101.074	87.8966	101.074	87.6954	101.074	87.9356	101.074	87.7362	101.074	87.9759	101.074	87.7839	101.074	88.0167	101.074	87.8384	101.074	88.0554	101.074	87.8983	101.074	88.0877	101.074	87.9598	101.074	88.1084	101.074	88.0176	101.074	88.1128	101.074	88.0656	101.074	88.0985
105.469	87.4232	105.469	87.446	105.469	87.4081	105.469	87.4753	105.469	87.4007	105.469	87.5096	105.469	87.4007	105.469	87.5466	105.469	87.4072	105.469	87.5839	105.469	87.4185	105.469	87.6192	105.469	87.4333	105.469	87.6504	105.469	87.4499	105.469	87.6765	105.469	87.4674	105.469	87.6973	105.469	87.4856	105.469	87.714	105.469	87.5051	105.469	87.7284	105.469	87.5272	105.469	87.7425	105.469	87.5538	105.469	87.7572	105.469	87.586	105.469	87.7719	105.469	87.6238	105.469	87.7841	105.469	87.6652	105.469	87.7901	105.469	87.7065	105.469	87.7863	105.469	87.7431	105.469	87.7706
108.398	87.4319	108.398	87.4508	108.398	87.4189	108.398	87.4747	108.398	87.4117	108.398	87.5025	108.398	87.4099	108.398	87.5322	108.398	87.4124	108.398	87.5619	108.398	87.4178	108.398	87.5893	108.398	87.4247	108.398	87.6128	108.398	87.4315	108.398	87.6312	108.398	87.4377	108.398	87.6444	108.398	87.4433	108.398	87.6535	108.398	87.4492	108.398	87.66	108.398	87.4575	108.398	87.6658	108.398	87.4704	108.398	87.6718	108.398	87.4899	108.398	87.6777	108.398	87.5168	108.398	87.6812	108.398	87.5497	108.398	87.6793	108.398	87.5857	108.398	87.6691	108.398	87.6203	108.398	87.6491
112.793	87.3665	112.793	87.3858	112.793	87.3524	112.793	87.4096	112.793	87.3435	112.793	87.4368	112.793	87.3393	112.793	87.4654	112.793	87.3387	112.793	87.4932	112.793	87.3402	112.793	87.518	112.793	87.3422	112.793	87.5376	112.793	87.3432	112.793	87.5504	112.793	87.3423	112.793	87.5559	112.793	87.3392	112.793	87.5546	112.793	87.3346	112.793	87.5482	112.793	87.3306	112.793	87.5387	112.793	87.3295	112.793	87.528	112.793	87.3341	112.793	87.5169	112.793	87.3462	112.793	87.5048	112.793	87.3658	112.793	87.4901	112.793	87.3914	112.793	87.4711	112.793	87.4198	112.793	87.4473
117.188	87.309	117.188	87.3271	117.188	87.2956	117.188	87.3493	117.188	87.2867	117.188	87.3741	117.188	87.2817	117.188	87.3996	117.188	87.2793	117.188	87.4234	117.188	87.278	117.188	87.4429	117.188	87.276	117.188	87.4556	117.188	87.2717	117.188	87.4597	117.188	87.264	117.188	87.4545	117.188	87.2525	117.188	87.4406	117.188	87.2378	117.188	87.4201	117.188	87.2219	117.188	87.3956	117.188	87.2074	117.188	87.3699	117.188	87.1974	117.188	87.3451	117.188	87.1945	117.188	87.3216	117.188	87.1998	117.188	87.2991	117.188	87.2129	117.188	87.2765	117.188	87.2318	117.188	87.2537
120.117	87.2172	120.117	87.2305	120.117	87.2093	120.117	87.2488	120.117	87.2065	120.117	87.2712	120.117	87.2077	120.117	87.2958	120.117	87.2117	120.117	87.3205	120.117	87.2169	120.117	87.3427	120.117	87.2215	120.117	87.3602	120.117	87.2238	120.117	87.3709	120.117	87.2227	120.117	87.3739	120.117	87.2177	120.117	87.3695	120.117	87.2093	120.117	87.3589	120.117	87.1989	120.117	87.3443	120.117	87.1891	120.117	87.3277	120.117	87.1827	120.117	87.3108	120.117	87.182	120.117	87.2939	120.117	87.1882	120.117	87.2765	120.117	87.2011	120.117	87.2581	120.117	87.2187	120.117	87.2384
124.512	87.1137	124.512	87.1251	124.512	87.108	124.512	87.1422	124.512	87.1077	124.512	87.164	124.512	87.112	124.512	87.1894	124.512	87.1196	124.512	87.2164	124.512	87.1291	124.512	87.2425	124.512	87.1386	124.512	87.265	124.512	87.1462	124.512	87.2815	124.512	87.1503	124.512	87.2902	124.512	87.1499	124.512	87.2906	124.512	87.1448	124.512	87.283	124.512	87.136	124.512	87.2692	124.512	87.1255	124.512	87.2511	124.512	87.1162	124.512	87.2309	124.512	87.1108	124.512	87.2099	124.512	87.1113	124.512	87.1888	124.512	87.1184	124.512	87.1681	124.512	87.1313	124.512	87.1485
128.906	87.0568	128.906	87.0733	128.906	87.0447	128.906	87.0938	128.906	87.0372	128.906	87.1175	128.906	87.0337	128.906	87.1426	128.906	87.0332	128.906	87.1673	128.906	87.0346	128.906	87.1889	128.906	87.0361	128.906	87.2048	128.906	87.0359	128.906	87.2128	128.906	87.0323	128.906	87.2112	128.906	87.0242	128.906	87.1996	128.906	87.0114	128.906	87.1788	128.906	86.9947	128.906	87.1508	128.906	86.9762	128.906	87.1184	128.906	86.9589	128.906	87.0843	128.906	86.9457	128.906	87.0507	128.906	86.9392	128.906	87.0194	128.906	86.9409	128.906	86.9915	128.906	86.9509	128.906	86.9682
133.301	87.0205	133.301	87.0421	133.301	87.0012	133.301	87.0654	133.301	86.9844	133.301	87.0895	133.301	86.9702	133.301	87.1129	133.301	86.9581	133.301	87.1336	133.301	86.9475	133.301	87.1494	133.301	86.9372	133.301	87.1577	133.301	86.926	133.301	87.1563	133.301	86.9126	133.301	87.1437	133.301	86.8958	133.301	87.1196	133.301	86.8753	133.301	87.0849	133.301	86.8519	133.301	87.0421	133.301	86.8273	133.301	86.9944	133.301	86.804	133.301	86.9454	133.301	86.785	133.301	86.8987	133.301	86.773	133.301	86.8567	133.301	86.7702	133.301	86.8216	133.301	86.7774	133.301	86.7948
139.16	86.9444	139.16	86.9648	139.16	86.9226	139.16	86.9836	139.16	86.9001	139.16	87	139.16	86.8774	139.16	87.0135	139.16	86.8547	139.16	87.0229	139.16	86.8322	139.16	87.0266	139.16	86.8096	139.16	87.0229	139.16	86.7862	139.16	87.0101	139.16	86.761	139.16	86.9869	139.16	86.7333	139.16	86.9531	139.16	86.7029	139.16	86.9094	139.16	86.6704	139.16	86.8579	139.16	86.6374	139.16	86.8019	139.16	86.6064	139.16	86.7449	139.16	86.5803	139.16	86.6907	139.16	86.5621	139.16	86.6426	139.16	86.5542	139.16	86.6033	139.16	86.5582	139.16	86.5747
143.555	86.8279	143.555	86.842	143.555	86.812	143.555	86.854	143.555	86.7946	143.555	86.864	143.555	86.7766	143.555	86.8719	143.555	86.7585	143.555	86.877	143.555	86.7405	143.555	86.8781	143.555	86.7226	143.555	86.8735	143.555	86.7037	143.555	86.8611	143.555	86.6828	143.555	86.8394	143.555	86.6589	143.555	86.8076	143.555	86.6312	143.555	86.7662	143.555	86.6001	143.555	86.7173	143.555	86.5665	143.555	86.6639	143.555	86.5326	143.555	86.6098	143.555	86.5013	143.555	86.5591	143.555	86.4758	143.555	86.5156	143.555	86.4592	143.555	86.4824	143.555	86.4539	143.555	86.4616
147.949	86.8024	147.949	86.8119	147.949	86.788	147.949	86.8173	147.949	86.769	147.949	86.8193	147.949	86.7461	147.949	86.8188	147.949	86.7206	147.949	86.8161	147.949	86.6936	147.949	86.8104	147.949	86.6658	147.949	86.8004	147.949	86.6375	147.949	86.784	147.949	86.6082	147.949	86.7594	147.949	86.5774	147.949	86.7256	147.949	86.5445	147.949	86.6825	147.949	86.5093	147.949	86.6316	147.949	86.4727	147.949	86.5757	147.949	86.4362	147.949	86.5185	147.949	86.4025	147.949	86.4642	147.949	86.3748	147.949	86.4172	147.949	86.3564	147.949	86.381	147.949	86.3503	147.949	86.3583
153.809	86.7478	153.809	86.7512	153.809	86.7333	153.809	86.7453	153.809	86.7076	153.809	86.7323	153.809	86.6718	153.809	86.7149	153.809	86.6278	153.809	86.6949	153.809	86.5782	153.809	86.6734	153.809	86.5253	153.809	86.6499	153.809	86.471	153.809	86.6231	153.809	86.4165	153.809	86.591	153.809	86.3626	153.809	86.552	153.809	86.3101	153.809	86.505	153.809	86.2598	153.809	86.4503	153.809	86.2129	153.809	86.3895	153.809	86.1712	153.809	86.3255	153.809	86.1369	153.809	86.2623	153.809	86.1127	153.809	86.2047	153.809	86.1009	153.809	86.157	153.809	86.1039	153.809	86.1227
159.668	86.7157	159.668	86.7111	159.668	86.7075	159.668	86.6955	159.668	86.6864	159.668	86.6719	159.668	86.6537	159.668	86.6437	159.668	86.6118	159.668	86.6138	159.668	86.5637	159.668	86.5845	159.668	86.5121	159.668	86.5564	159.668	86.4594	159.668	86.5291	159.668	86.4067	159.668	86.5014	159.668	86.3552	159.668	86.4714	159.668	86.3052	159.668	86.4376	159.668	86.2577	159.668	86.3987	159.668	86.2139	159.668	86.3546	159.668	86.1753	159.668	86.3064	159.668	86.1441	159.668	86.2565	159.668	86.1228	159.668	86.2087	159.668	86.1135	159.668	86.1673	159.668	86.1178	159.668	86.1361
165.527	86.7598	165.527	86.7452	165.527	86.7597	165.527	86.7179	165.527	86.7452	165.527	86.681	165.527	86.7181	165.527	86.6384	165.527	86.6814	165.527	86.5939	165.527	86.6386	165.527	86.5503	165.527	86.5931	165.527	86.5091	165.527	86.5472	165.527	86.4705	165.527	86.5022	165.527	86.4342	165.527	86.4585	165.527	86.3991	165.527	86.4161	165.527	86.3644	165.527	86.3745	165.527	86.3294	165.527	86.3337	165.527	86.2942	165.527	86.2941	165.527	86.2597	165.527	86.2569	165.527	86.2277	165.527	86.224	165.527	86.2012	165.527	86.198	165.527	86.1833	165.527	86.1814	165.527	86.1763
171.387	86.7546	171.387	86.7292	171.387	86.7559	171.387	86.6823	171.387	86.7333	171.387	86.6186	171.387	86.6899	171.387	86.544	171.387	86.6306	171.387	86.4647	171.387	86.5614	171.387	86.3859	171.387	86.4882	171.387	86.3112	171.387	86.4156	171.387	86.2431	171.387	86.347	171.387	86.1826	171.387	86.2837	171.387	86.1297	171.387	86.226	171.387	86.0835	171.387	86.1733	171.387	86.043	171.387	86.1244	171.387	86.0068	171.387	86.0785	171.387	85.9748	171.387	86.0352	171.387	85.9478	171.387	85.9956	171.387	85.9282	171.387	85.9614	171.387	85.9185	171.387	85.9357	171.387	85.9209
177.246	86.639	177.246	86.6277	177.246	86.6213	177.246	86.589	177.246	86.5766	177.246	86.5272	177.246	86.5095	177.246	86.4483	177.246	86.4268	177.246	86.359	177.246	86.3362	177.246	86.2658	177.246	86.2448	177.246	86.174	177.246	86.1581	177.246	86.0875	177.246	86.0798	177.246	86.0094	177.246	86.0116	177.246	85.9412	177.246	85.9532	177.246	85.8833	177.246	85.9036	177.246	85.8351	177.246	85.8606	177.246	85.7952	177.246	85.8226	177.246	85.7622	177.246	85.7883	177.246	85.7356	177.246	85.7577	177.246	85.7161	177.246	85.7322	177.246	85.7052	177.246	85.7136	177.246	85.7043
183.105	86.6582	183.105	86.6571	183.105	86.627	183.105	86.6252	183.105	86.5649	183.105	86.5667	183.105	86.4766	183.105	86.4873	183.105	86.3688	183.105	86.3931	183.105	86.2494	183.105	86.2897	183.105	86.1264	183.105	86.1821	183.105	86.0064	183.105	86.0738	183.105	85.8942	183.105	85.9682	183.105	85.7929	183.105	85.8674	183.105	85.7034	183.105	85.773	183.105	85.6255	183.105	85.6858	183.105	85.5582	183.105	85.6059	183.105	85.5001	183.105	85.5338	183.105	85.4505	183.105	85.4708	183.105	85.4099	183.105	85.4197	183.105	85.3802	183.105	85.3835	183.105	85.3643	183.105	85.3649
188.965	86.5885	188.965	86.5702	188.965	86.5675	188.965	86.5165	188.965	86.5071	188.965	86.4348	188.965	86.4121	188.965	86.334	188.965	86.2903	188.965	86.2232	188.965	86.152	188.965	86.1098	188.965	86.0079	188.965	85.9993	188.965	85.8673	188.965	85.895	188.965	85.7377	188.965	85.7986	188.965	85.6238	188.965	85.7103	188.965	85.5277	188.965	85.6299	188.965	85.4493	188.965	85.5562	188.965	85.3867	188.965	85.4879	188.965	85.3374	188.965	85.4245	188.965	85.299	188.965	85.3667	188.965	85.2704	188.965	85.3171	188.965	85.2522	188.965	85.2788	188.965	85.2463	188.965	85.2549
196.289	86.5878	196.289	86.5531	196.289	86.5726	196.289	86.4735	196.289	86.5077	196.289	86.3585	196.289	86.3984	196.289	86.2198	196.289	86.2543	196.289	86.0696	196.289	86.0873	196.289	85.9188	196.289	85.9104	196.289	85.7753	196.289	85.7358	196.289	85.6448	196.289	85.574	196.289	85.5303	196.289	85.4331	196.289	85.4335	196.289	85.3183	196.289	85.354	196.289	85.2313	196.289	85.2902	196.289	85.1706	196.289	85.2393	196.289	85.1315	196.289	85.1979	196.289	85.1083	196.289	85.1635	196.289	85.0957	196.289	85.1352	196.289	85.0903	196.289	85.1133	196.289	85.0911	196.289	85.0986
203.613	86.4607	203.613	86.4211	203.613	86.4441	203.613	86.3297	203.613	86.373	203.613	86.1961	203.613	86.255	203.613	86.0341	203.613	86.102	203.613	85.8585	203.613	85.9282	203.613	85.6836	203.613	85.7482	203.613	85.521	203.613	85.5746	203.613	85.3785	203.613	85.4178	203.613	85.2602	203.613	85.2848	203.613	85.1666	203.613	85.1795	203.613	85.0957	203.613	85.1024	203.613	85.0439	203.613	85.051	203.613	85.0071	203.613	85.0198	203.613	84.9818	203.613	85.002	203.613	84.9659	203.613	84.9908	203.613	84.9583	203.613	84.9813	203.613	84.958	203.613	84.9719	203.613	84.9633
210.938	86.3954	210.938	86.3369	210.938	86.3952	210.938	86.224	210.938	86.3382	210.938	86.0667	210.938	86.2319	210.938	85.8791	210.938	86.0886	210.938	85.6772	210.938	85.9231	210.938	85.4769	210.938	85.7506	210.938	85.2922	210.938	85.5844	210.938	85.1334	210.938	85.4346	210.938	85.0065	210.938	85.3073	210.938	84.9131	210.938	85.2043	210.938	84.8501	210.938	85.1236	210.938	84.8106	210.938	85.0603	210.938	84.7867	210.938	85.0079	210.938	84.7716	210.938	84.96	210.938	84.7624	210.938	84.9129	210.938	84.7602	210.938	84.8663	210.938	84.7685	210.938	84.8236	210.938	84.7898
218.262	86.2055	218.262	86.1537	218.262	86.1943	218.262	86.0447	218.262	86.1208	218.262	85.8903	218.262	85.9923	218.262	85.7062	218.262	85.8212	218.262	85.5108	218.262	85.6238	218.262	85.3216	218.262	85.4182	218.262	85.1538	218.262	85.2223	218.262	85.0184	218.262	85.0519	218.262	84.9216	218.262	84.9195	218.262	84.8644	218.262	84.8322	218.262	84.8429	218.262	84.791	218.262	84.849	218.262	84.7902	218.262	84.8722	218.262	84.8183	218.262	84.902	218.262	84.8609	218.262	84.9302	218.262	84.9043	218.262	84.952	218.262	84.9389	218.262	84.9652	218.262	84.9603	218.262	84.9685
225.586	86.3764	225.586	86.3513	225.586	86.3225	225.586	86.2535	225.586	86.1909	225.586	86.0954	225.586	85.9907	225.586	85.894	225.586	85.7379	225.586	85.6686	225.586	85.4537	225.586	85.4392	225.586	85.1623	225.586	85.2243	225.586	84.8878	225.586	85.0397	225.586	84.652	225.586	84.8972	225.586	84.472	225.586	84.8032	225.586	84.3585	225.586	84.7571	225.586	84.3141	225.586	84.7513	225.586	84.3322	225.586	84.7726	225.586	84.3986	225.586	84.8056	225.586	84.4937	225.586	84.836	225.586	84.5974	225.586	84.8529	225.586	84.6931	225.586	84.8496	225.586	84.7699	225.586	84.8224
232.91	86.4801	232.91	86.4209	232.91	86.4521	232.91	86.2819	232.91	86.3364	232.91	86.0765	232.91	86.1403	232.91	85.8219	232.91	85.8778	232.91	85.5373	232.91	85.5678	232.91	85.2426	232.91	85.2322	232.91	84.9575	232.91	84.8933	232.91	84.701	232.91	84.5728	232.91	84.4894	232.91	84.2907	232.91	84.3341	232.91	84.0649	232.91	84.2389	232.91	83.9088	232.91	84.1986	232.91	83.8285	232.91	84.2002	232.91	83.8208	232.91	84.2256	232.91	83.8718	232.91	84.2555	232.91	83.9602	232.91	84.2729	232.91	84.062	232.91	84.2653	232.91	84.1558	232.91	84.2262
241.699	86.1266	241.699	86.0416	241.699	86.1214	241.699	85.8752	241.699	86.0257	241.699	85.6437	241.699	85.8483	241.699	85.3676	241.699	85.6059	241.699	85.0691	241.699	85.3202	241.699	84.7686	241.699	85.0149	241.699	84.4837	241.699	84.7118	241.699	84.2284	241.699	84.4291	241.699	84.013	241.699	84.1805	241.699	83.8436	241.699	83.9751	241.699	83.722	241.699	83.8184	241.699	83.6449	241.699	83.7116	241.699	83.6053	241.699	83.6511	241.699	83.5943	241.699	83.6283	241.699	83.6025	241.699	83.6303	241.699	83.6205	241.699	83.6423	241.699	83.6394	241.699	83.6519	241.699	83.6513
250.488	86.308	250.488	86.2156	250.488	86.2842	250.488	86.0147	250.488	86.1465	250.488	85.722	250.488	85.9074	250.488	85.362	250.488	85.588	250.488	84.964	250.488	85.2167	250.488	84.5596	250.488	84.8258	250.488	84.1795	250.488	84.4474	250.488	83.8498	250.488	84.1088	250.488	83.5881	250.488	83.8288	250.488	83.4008	250.488	83.6157	250.488	83.282	250.488	83.4678	250.488	83.2169	250.488	83.3757	250.488	83.1881	250.488	83.3255	250.488	83.1812	250.488	83.3019	250.488	83.1879	250.488	83.291	250.488	83.2039	250.488	83.282	250.488	83.2257	250.488	83.2684	250.488	83.2487
259.277	86.2988	259.277	86.1824	259.277	86.2996	259.277	85.9599	259.277	86.1858	259.277	85.6504	259.277	85.9683	259.277	85.2801	259.277	85.6669	259.277	84.879	259.277	85.3081	259.277	84.4773	259.277	84.9227	259.277	84.1025	259.277	84.5424	259.277	83.778	259.277	84.1964	259.277	83.5216	259.277	83.9078	259.277	83.3434	259.277	83.6904	259.277	83.2427	259.277	83.5463	259.277	83.2075	259.277	83.4669	259.277	83.2178	259.277	83.4356	259.277	83.2528	259.277	83.433	259.277	83.2972	259.277	83.4408	259.277	83.3423	259.277	83.4451	259.277	83.3834	259.277	83.4378	259.277	83.4165
268.066	86.0622	268.066	85.9367	268.066	86.0587	268.066	85.6958	268.066	85.9226	268.066	85.3628	268.066	85.6613	268.066	84.9682	268.066	85.2936	268.066	84.5462	268.066	84.8497	268.066	84.1305	268.066	84.3714	268.066	83.7516	268.066	83.9071	268.066	83.4353	268.066	83.5043	268.066	83.2019	268.066	83.1984	268.066	83.0635	268.066	83.0028	268.066	83.018	268.066	82.9074	268.066	83.0451	268.066	82.8859	268.066	83.1103	268.066	82.9081	268.066	83.1763	268.066	82.95	268.066	83.2162	268.066	82.9984	268.066	83.2204	268.066	83.0484	268.066	83.1942	268.066	83.0995	268.066	83.1501
276.855	86.5078	276.855	86.3573	276.855	86.5139	276.855	86.0714	276.855	86.3806	276.855	85.6743	276.855	86.1244	276.855	85.2028	276.855	85.7667	276.855	84.7015	276.855	85.3287	276.855	84.2164	276.855	84.8293	276.855	83.7875	276.855	84.288	276.855	83.4432	276.855	83.7329	276.855	83.1974	276.855	83.2065	276.855	83.053	276.855	82.764	276.855	83.0057	276.855	82.4583	276.855	83.0449	276.855	82.3173	276.855	83.1501	276.855	82.3318	276.855	83.2865	276.855	82.4657	276.855	83.4085	276.855	82.6743	276.855	83.4726	276.855	82.915	276.855	83.4506	276.855	83.1483	276.855	83.337
287.109	86.2836	287.109	86.1672	287.109	86.2696	287.109	85.9303	287.109	86.1254	287.109	85.5894	287.109	85.8631	287.109	85.1667	287.109	85.5082	287.109	84.689	287.109	85.0968	287.109	84.1891	287.109	84.669	287.109	83.7076	287.109	84.2605	287.109	83.2929	287.109	83.897	287.109	82.993	287.109	83.596	287.109	82.8383	287.109	83.3708	287.109	82.8241	287.109	83.2322	287.109	82.9109	287.109	83.1821	287.109	83.0449	287.109	83.2067	287.109	83.182	287.109	83.2775	287.109	83.2989	287.109	83.3611	287.109	83.3881	287.109	83.4308	287.109	83.4481	287.109	83.4712	287.109	83.4768
297.363	86.7461	297.363	86.6345	297.363	86.6886	297.363	86.3645	297.363	86.4645	297.363	85.9583	297.363	86.0908	297.363	85.4474	297.363	85.5989	297.363	84.87	297.363	85.0325	297.363	84.2655	297.363	84.4414	297.363	83.6702	297.363	83.8746	297.363	83.1167	297.363	83.3737	297.363	82.6394	297.363	82.9704	297.363	82.281	297.363	82.6875	297.363	82.0888	297.363	82.539	297.363	82.0913	297.363	82.526	297.363	82.2682	297.363	82.6288	297.363	82.5478	297.363	82.805	297.363	82.8416	297.363	82.9998	297.363	83.0816	297.363	83.165	297.363	83.235	297.363	83.2691	297.363	83.2956
307.617	86.2721	307.617	86.0719	307.617	86.2823	307.617	85.6951	307.617	86.1048	307.617	85.1712	307.617	85.7557	307.617	84.5454	307.617	85.2652	307.617	83.8767	307.617	84.676	307.617	83.2329	307.617	84.0418	307.617	82.6787	307.617	83.4238	307.617	82.2595	307.617	82.8819	307.617	81.9866	307.617	82.4627	307.617	81.835	307.617	82.1882	307.617	81.7601	307.617	82.0534	307.617	81.7252	307.617	82.0343	307.617	81.7222	307.617	82.0992	307.617	81.7698	307.617	82.2141	307.617	81.8872	307.617	82.3408	307.617	82.0638	307.617	82.4372	307.617	82.254	307.617	82.4644	307.617	82.4007
319.336	86.4196	319.336	86.2041	319.336	86.4127	319.336	85.7773	319.336	86.1895	319.336	85.1665	319.336	85.7735	319.336	84.4124	319.336	85.2034	319.336	83.5672	319.336	84.5304	319.336	82.6969	319.336	83.8156	319.336	81.8875	319.336	83.126	319.336	81.2474	319.336	82.5281	319.336	80.8804	319.336	82.0766	319.336	80.8262	319.336	81.8018	319.336	81.0212	319.336	81.7009	319.336	81.3377	319.336	81.7414	319.336	81.6596	319.336	81.8728	319.336	81.9236	319.336	82.0418	319.336	82.1162	319.336	82.2025	319.336	82.2504	319.336	82.3224	319.336	82.3403	319.336	82.3848	319.336	82.3879
329.59	87.5287	329.59	87.4281	329.59	87.4567	329.59	87.1621	329.59	87.2124	329.59	86.7429	329.59	86.8063	329.59	86.1857	329.59	86.2604	329.59	85.5077	329.59	85.6083	329.59	84.7295	329.59	84.8925	329.59	83.88	329.59	84.1622	329.59	83.0104	329.59	83.4721	329.59	82.214	329.59	82.8823	329.59	81.6342	329.59	82.4539	329.59	81.4141	329.59	82.2326	329.59	81.5856	329.59	82.2271	329.59	82.0242	329.59	82.3986	329.59	82.543	329.59	82.6759	329.59	83.0001	329.59	82.9822	329.59	83.3263	329.59	83.2549	329.59	83.5039	329.59	83.4503	329.59	83.54
341.309	86.8953	341.309	86.7682	341.309	86.8273	341.309	86.4614	341.309	86.561	341.309	86.001	341.309	86.107	341.309	85.422	341.309	85.4921	341.309	84.7644	341.309	84.7612	341.309	84.0677	341.309	83.9766	341.309	83.367	341.309	83.2125	341.309	82.6923	341.309	82.5449	341.309	82.0759	341.309	82.0374	341.309	81.5635	341.309	81.7295	341.309	81.221	341.309	81.6294	341.309	81.1148	341.309	81.7148	341.309	81.2657	341.309	81.9382	341.309	81.6158	341.309	82.2359	341.309	82.052	341.309	82.5394	341.309	82.461	341.309	82.7852	341.309	82.7639	341.309	82.9235	341.309	82.921
353.027	87.0227	353.027	86.9234	353.027	86.8988	353.027	86.6025	353.027	86.5681	353.027	86.0803	353.027	86.0626	353.027	85.3931	353.027	85.421	353.027	84.5913	353.027	84.6799	353.027	83.7348	353.027	83.8689	353.027	82.886	353.027	83.0158	353.027	82.1008	353.027	82.1614	353.027	81.4255	353.027	81.3754	353.027	80.9058	353.027	80.7596	353.027	80.601	353.027	80.4172	353.027	80.5708	353.027	80.3946	353.027	80.8241	353.027	80.6483	353.027	81.2793	353.027	81.0768	353.027	81.7944	353.027	81.5707	353.027	82.2323	353.027	82.033	353.027	82.4985	353.027	82.3806	353.027	82.5481
366.211	86.9031	366.211	86.6866	366.211	86.88	366.211	86.2559	366.211	86.6098	366.211	85.6472	366.211	86.1092	366.211	84.9032	366.211	85.4244	366.211	84.0732	366.211	84.6309	366.211	83.2196	366.211	83.8224	366.211	82.4251	366.211	83.0879	366.211	81.7839	366.211	82.4847	366.211	81.3639	366.211	82.0285	366.211	81.1592	366.211	81.7079	366.211	81.0919	366.211	81.507	366.211	81.0718	366.211	81.4154	366.211	81.0595	366.211	81.4205	366.211	81.0782	366.211	81.4957	366.211	81.1695	366.211	81.5996	366.211	81.3336	366.211	81.6858	366.211	81.5178	366.211	81.7133	366.211	81.6569
379.395	87.2868	379.395	87.0766	379.395	87.2689	379.395	86.6565	379.395	87.0188	379.395	86.0551	379.395	86.5478	379.395	85.3063	379.395	85.882	379.395	84.4456	379.395	85.0607	379.395	83.5121	379.395	84.1366	379.395	82.5587	379.395	83.1778	379.395	81.6661	379.395	82.2702	379.395	80.9469	379.395	81.5141	379.395	80.516	379.395	81.005	379.395	80.4223	379.395	80.7966	379.395	80.6036	379.395	80.8682	379.395	80.9301	379.395	81.1316	379.395	81.2863	379.395	81.4736	379.395	81.6088	379.395	81.7969	379.395	81.8734	379.395	82.0378	379.395	82.0666	379.395	82.1645	379.395	82.1703
392.578	86.4928	392.578	86.2796	392.578	86.4759	392.578	85.8556	392.578	86.2268	392.578	85.2572	392.578	85.7603	392.578	84.5349	392.578	85.1073	392.578	83.7475	392.578	84.313	392.578	82.955	392.578	83.4352	392.578	82.2147	392.578	82.5428	392.578	81.5842	392.578	81.7165	392.578	81.123	392.578	81.0467	392.578	80.881	392.578	80.6221	392.578	80.8704	392.578	80.501	392.578	81.0486	392.578	80.6752	392.578	81.3389	392.578	81.0604	392.578	81.6681	392.578	81.5304	392.578	81.9851	392.578	81.9692	392.578	82.2553	392.578	82.3008	392.578	82.4485	392.578	82.4909	392.578	82.5353
405.762	87.1034	405.762	86.7615	405.762	87.1341	405.762	86.1244	405.762	86.8536	405.762	85.2293	405.762	86.2763	405.762	84.1418	405.762	85.4325	405.762	82.9585	405.762	84.3704	405.762	81.7973	405.762	83.162	405.762	80.7792	405.762	81.9123	405.762	80.0172	405.762	80.7738	405.762	79.6189	405.762	79.9437	405.762	79.6649	405.762	79.6016	405.762	80.1414	405.762	79.7928	405.762	80.9049	405.762	80.3893	405.762	81.7555	405.762	81.189	405.762	82.5349	405.762	82.0193	405.762	83.1596	405.762	82.7626	405.762	83.5995	405.762	83.3449	405.762	83.8461	405.762	83.7257	405.762	83.8915
420.41	87.6515	420.41	87.4174	420.41	87.5798	420.41	86.8881	420.41	87.206	420.41	86.0862	420.41	86.5519	420.41	85.0462	420.41	85.661	420.41	83.8153	420.41	84.5975	420.41	82.4567	420.41	83.4374	420.41	81.0571	420.41	82.2513	420.41	79.74	420.41	81.0921	420.41	78.6933	420.41	80.0072	420.41	78.1764	420.41	79.086	420.41	78.3964	420.41	78.5025	420.41	79.2691	420.41	78.4554	420.41	80.4411	420.41	78.9822	420.41	81.5671	420.41	79.8905	420.41	82.4474	420.41	80.9165	420.41	82.999	420.41	81.86	420.41	83.2007	420.41	82.5982	420.41	83.0592
435.059	87.1066	435.059	86.8116	435.059	87.0924	435.059	86.2279	435.059	86.7683	435.059	85.3914	435.059	86.1552	435.059	84.3462	435.059	85.2952	435.059	83.1392	435.059	84.2476	435.059	81.8239	435.059	83.0824	435.059	80.4788	435.059	81.8722	435.059	79.2302	435.059	80.693	435.059	78.2514	435.059	79.6449	435.059	77.7087	435.059	78.8799	435.059	77.6851	435.059	78.5824	435.059	78.1655	435.059	78.8551	435.059	79.0694	435.059	79.612	435.059	80.2422	435.059	80.6308	435.059	81.4544	435.059	81.678	435.059	82.4738	435.059	82.5677	435.059	83.1378	435.059	83.1629	435.059	83.3693
451.172	87.6483	451.172	87.3136	451.172	87.6129	451.172	86.6319	451.172	87.2099	451.172	85.6511	451.172	86.4698	451.172	84.4439	451.172	85.4518	451.172	83.1043	451.172	84.2405	451.172	81.7347	451.172	82.9377	451.172	80.4263	451.172	81.6486	451.172	79.2463	451.172	80.4679	451.172	78.2551	451.172	79.4719	451.172	77.5451	451.172	78.7267	451.172	77.2447	451.172	78.3048	451.172	77.4387	451.172	78.2707	451.172	78.0681	451.172	78.6115	451.172	78.9397	451.172	79.2039	451.172	79.8289	451.172	79.8813	451.172	80.5562	451.172	80.5007	451.172	81.0086	451.172	80.949	451.172	81.1369
465.82	87.5172	465.82	87.2443	465.82	87.4602	465.82	86.6499	465.82	87.0789	465.82	85.7574	465.82	86.391	465.82	84.6032	465.82	85.4283	465.82	83.2313	465.82	84.243	465.82	81.6938	465.82	82.9137	465.82	80.0682	465.82	81.5436	465.82	78.4969	465.82	80.2473	465.82	77.233	465.82	79.1289	465.82	76.5969	465.82	78.2707	465.82	76.7404	465.82	77.7463	465.82	77.4735	465.82	77.6381	465.82	78.4686	465.82	77.9971	465.82	79.4907	465.82	78.7517	465.82	80.4045	465.82	79.6952	465.82	81.1096	465.82	80.5877	465.82	81.5182	465.82	81.2472	465.82	81.5698
483.398	87.7815	483.398	87.4405	483.398	87.7671	483.398	86.7672	483.398	87.3929	483.398	85.8018	483.398	86.6752	483.398	84.5962	483.398	85.6547	483.398	83.2067	483.398	84.4018	483.398	81.6885	483.398	83.0139	483.398	80.0993	483.398	81.5979	483.398	78.5109	483.398	80.2458	483.398	77.0265	483.398	79.0328	483.398	75.8395	483.398	78.0574	483.398	75.3148	483.398	77.4857	483.398	75.7745	483.398	77.5013	483.398	77.007	483.398	78.1097	483.398	78.4644	483.398	79.0563	483.398	79.7639	483.398	80.0312	483.398	80.7408	483.398	80.8334	483.398	81.3365	483.398	81.3564	483.398	81.5371
499.512	87.2247	499.512	86.9419	499.512	87.1398	499.512	86.2971	499.512	86.6947	499.512	85.3064	499.512	85.9131	499.512	83.9996	499.512	84.8359	499.512	82.4351	499.512	83.5216	499.512	80.7259	499.512	82.0554	499.512	79.0683	499.512	80.571	499.512	77.7368	499.512	79.2629	499.512	76.9854	499.512	78.3387	499.512	76.8734	499.512	77.9006	499.512	77.2199	499.512	77.8857	499.512	77.7981	499.512	78.1591	499.512	78.5074	499.512	78.6324	499.512	79.3374	499.512	79.2684	499.512	80.2281	499.512	80.012	499.512	81.0148	499.512	80.75	499.512	81.5129	499.512	81.3327	499.512	81.6177
517.09	86.8763	517.09	86.5951	517.09	86.7854	517.09	85.9352	517.09	86.3391	517.09	84.9116	517.09	85.5609	517.09	83.5738	517.09	84.4836	517.09	82.0077	517.09	83.1544	517.09	80.3114	517.09	81.6354	517.09	78.5612	517.09	80.0068	517.09	76.8194	517.09	78.3907	517.09	75.2464	517.09	77.0045	517.09	74.2791	517.09	76.1807	517.09	74.4824	517.09	76.1733	517.09	75.7713	517.09	76.8721	517.09	77.4459	517.09	77.9267	517.09	79.0041	517.09	79.065	517.09	80.2684	517.09	80.1428	517.09	81.1912	517.09	81.0466	517.09	81.7457	517.09	81.6621	517.09	81.9058
536.133	86.8316	536.133	86.4238	536.133	86.7294	536.133	85.5448	536.133	86.1384	536.133	84.2856	536.133	85.1251	536.133	82.7561	536.133	83.78	536.133	81.042	536.133	82.1987	536.133	79.1944	536.133	80.4753	536.133	77.2681	536.133	78.6967	536.133	75.359	536.133	76.9355	536.133	73.612	536.133	75.2963	536.133	72.3656	536.133	74.0922	536.133	72.4496	536.133	73.9295	536.133	74.2372	536.133	75.0709	536.133	76.6698	536.133	76.9731	536.133	78.855	536.133	78.9981	536.133	80.5673	536.133	80.7729	536.133	81.8255	536.133	82.0882	536.133	82.6523	536.133	82.8399	536.133	83.0124
555.176	87.1538	555.176	86.8554	555.176	87.0398	555.176	86.1324	555.176	86.5217	555.176	84.9741	555.176	85.6166	555.176	83.3867	555.176	84.3613	555.176	81.4034	555.176	82.802	555.176	79.0997	555.176	80.9812	555.176	76.6381	555.176	78.9657	555.176	74.3304	555.176	76.9056	555.176	72.5912	555.176	75.0274	555.176	71.6781	555.176	73.5281	555.176	71.5443	555.176	72.62	555.176	72.1887	555.176	72.7239	555.176	73.8113	555.176	73.8862	555.176	76.0748	555.176	75.4439	555.176	78.1669	555.176	76.9381	555.176	79.5878	555.176	78.2791	555.176	80.2116	555.176	79.3891	555.176	80.0966
574.219	87.2776	574.219	86.7807	574.219	87.2134	574.219	85.7693	574.219	86.5644	574.219	84.3119	574.219	85.3497	574.219	82.5105	574.219	83.6601	574.219	80.4964	574.219	81.6601	574.219	78.3923	574.219	79.5317	574.219	76.2653	574.219	77.4114	574.219	74.1536	574.219	75.4366	574.219	72.239	574.219	73.9293	574.219	71.0741	574.219	73.3654	574.219	71.2502	574.219	73.7531	574.219	72.6468	574.219	74.6653	574.219	74.7859	574.219	75.9384	574.219	77.2337	574.219	77.5737	574.219	79.5416	574.219	79.3704	574.219	81.3375	574.219	80.9909	574.219	82.4031	574.219	82.1525	574.219	82.6629
594.727	86.8791	594.727	86.5868	594.727	86.6283	594.727	85.7408	594.727	85.8919	594.727	84.3875	594.727	84.7493	594.727	82.6097	594.727	83.2664	594.727	80.4732	594.727	81.4621	594.727	77.9959	594.727	79.3223	594.727	75.205	594.727	76.8767	594.727	72.2507	594.727	74.2649	594.727	69.4764	594.727	71.7255	594.727	67.5868	594.727	69.6125	594.727	67.7298	594.727	68.6856	594.727	69.9575	594.727	69.9642	594.727	73.0647	594.727	72.8696	594.727	76.1246	594.727	75.8911	594.727	78.608	594.727	78.318	594.727	80.3004	594.727	80.0125	594.727	81.2073	594.727	81.0254	594.727	81.4235
615.234	87.5104	615.234	87.1947	615.234	87.252	615.234	86.2282	615.234	86.5334	615.234	84.6094	615.234	85.4286	615.234	82.4422	615.234	83.9197	615.234	79.9498	615.234	81.9794	615.234	77.3485	615.234	79.7308	615.234	74.6635	615.234	77.4235	615.234	71.8627	615.234	75.1275	615.234	69.3311	615.234	72.6478	615.234	68.0787	615.234	69.8537	615.234	68.2697	615.234	67.2326	615.234	68.6417	615.234	67.2522	615.234	69.2357	615.234	69.9414	615.234	71.6979	615.234	72.7288	615.234	74.943	615.234	75.4573	615.234	77.4373	615.234	77.9163	615.234	78.9999	615.234	79.4074	615.234	79.7052
637.207	87.0657	637.207	86.6165	637.207	86.9446	637.207	85.5852	637.207	86.2863	637.207	83.9924	637.207	85.1191	637.207	81.9028	637.207	83.4279	637.207	79.4137	637.207	81.1966	637.207	76.6082	637.207	78.5662	637.207	73.5374	637.207	75.9183	637.207	70.3585	637.207	73.606	637.207	67.6409	637.207	71.6667	637.207	66.3581	637.207	70.0476	637.207	66.6833	637.207	69.3123	637.207	67.4912	637.207	70.2024	637.207	68.6779	637.207	71.8183	637.207	71.4547	637.207	73.3733	637.207	74.8684	637.207	74.9911	637.207	77.4501	637.207	76.7875	637.207	78.8535	637.207	78.3323	637.207	79.1094
659.18	86.5736	659.18	85.9234	659.18	86.482	659.18	84.5589	659.18	85.6293	659.18	82.5612	659.18	84.0495	659.18	80.1182	659.18	81.9147	659.18	77.3974	659.18	79.493	659.18	74.23	659.18	76.9281	659.18	70.1975	659.18	74.1629	659.18	65.2263	659.18	71.1959	659.18	60.2791	659.18	68.3203	659.18	58.9037	659.18	66.1329	659.18	62.6047	659.18	65.6703	659.18	67.1974	659.18	68.0349	659.18	71.5863	659.18	71.79	659.18	75.366	659.18	75.0506	659.18	78.1038	659.18	77.398	659.18	79.6842	659.18	78.9511	659.18	80.3038	659.18	79.8699	659.18	80.3013
682.617	87.3147	682.617	86.8842	682.617	87.0088	682.617	85.7145	682.617	86.0026	682.617	83.7882	682.617	84.402	682.617	81.0566	682.617	82.3477	682.617	77.456	682.617	79.9178	682.617	72.9694	682.617	77.0372	682.617	67.774	682.617	73.4867	682.617	62.799	682.617	69.0507	682.617	59.9516	682.617	63.8895	682.617	56.1952	682.617	58.9672	682.617	54.7416	682.617	58.5159	682.617	65.3538	682.617	64.9145	682.617	70.7082	682.617	69.7901	682.617	74.1134	682.617	73.149	682.617	77.0052	682.617	76.0994	682.617	79.5606	682.617	78.8287	682.617	81.2506	682.617	80.8248	682.617	81.6907
707.52	87.4345	707.52	86.8649	707.52	87.2834	707.52	85.5692	707.52	86.4368	707.52	83.5596	707.52	84.9255	707.52	80.8141	707.52	82.7946	707.52	77.1642	707.52	80.0855	707.52	72.126	707.52	76.6717	707.52	64.58	707.52	72.1311	707.52	52.3214	707.52	66.1935	707.52	48.1432	707.52	60.3414	707.52	55.2245	707.52	57.1095	707.52	58.8397	707.52	55.9095	707.52	57.3085	707.52	51.2026	707.52	63.7577	707.52	55.6641	707.52	70.32	707.52	67.2701	707.52	74.63	707.52	73.359	707.52	77.8703	707.52	77.2415	707.52	79.8099	707.52	79.514	707.52	80.3454
732.422	87.4746	732.422	87.0596	732.422	87.1057	732.422	85.7463	732.422	86.0516	732.422	83.4865	732.422	84.2883	732.422	80.3258	732.422	81.7224	732.422	76.3171	732.422	78.4149	732.422	71.128	732.422	74.4947	732.422	63.4225	732.422	69.4721	732.422	56.3139	732.422	61.3055	732.422	60.9856	732.422	41.8083	732.422	63.114	732.422	52.9428	732.422	62.4279	732.422	55.3584	732.422	54.9903	732.422	60.2228	732.422	59.5017	732.422	65.7691	732.422	70.0093	732.422	71.3396	732.422	75.6886	732.422	75.4756	732.422	79.3665	732.422	78.3382	732.422	81.2783	732.422	80.3693	732.422	81.4987
757.324	88.0666	757.324	87.3875	757.324	87.8477	757.324	85.8527	757.324	86.6897	757.324	83.5048	757.324	84.6049	757.324	80.3264	757.324	81.7296	757.324	76.039	757.324	78.2844	757.324	69.9244	757.324	74.179	757.324	60.2725	757.324	68.3139	757.324	58.5647	757.324	56.1479	757.324	63.2241	757.324	54.9075	757.324	63.0962	757.324	59.5385	757.324	60.1923	757.324	58.9682	757.324	58.2109	757.324	57.9656	757.324	53.7416	757.324	45.4979	757.324	67.9082	757.324	63.3777	757.324	74.8585	757.324	71.8534	757.324	78.6404	757.324	76.3581	757.324	80.4953	757.324	79.17	757.324	80.6299
785.156	88.3138	785.156	87.6291	785.156	87.8543	785.156	85.7336	785.156	86.4415	785.156	82.699	785.156	84.2985	785.156	78.7008	785.156	81.3853	785.156	73.7917	785.156	77.3212	785.156	67.6528	785.156	71.6387	785.156	60.5519	785.156	62.1072	785.156	62.6896	785.156	56.8992	785.156	65.0847	785.156	65.1893	785.156	62.2213	785.156	65.6158	785.156	57.9514	785.156	62.575	785.156	63.8599	785.156	55.2072	785.156	62.6186	785.156	62.1736	785.156	61.6139	785.156	69.0891	785.156	70.2463	785.156	72.9775	785.156	75.1669	785.156	76.4005	785.156	78.1606	785.156	78.8702	785.156	79.4824
811.523	88.1603	811.523	87.5457	811.523	87.9495	811.523	86.0933	811.523	86.883	811.523	83.6636	811.523	84.9739	811.523	79.9495	811.523	82.3014	811.523	74.3611	811.523	78.7629	811.523	64.309	811.523	74.0271	811.523	60.1281	811.523	68.2664	811.523	68.9272	811.523	60.0564	811.523	71.3913	811.523	52.0191	811.523	71.1077	811.523	61.721	811.523	68.4762	811.523	61.0431	811.523	63.4993	811.523	59.7308	811.523	56.8605	811.523	58.6049	811.523	57.3401	811.523	41.6469	811.523	69.1596	811.523	65.1513	811.523	75.6057	811.523	72.5291	811.523	78.2657	811.523	76.5259	811.523	78.3674
840.82	87.2011	840.82	86.4475	840.82	86.8278	840.82	84.3481	840.82	85.3822	840.82	80.8052	840.82	82.7162	840.82	76.0369	840.82	79.0904	840.82	69.8309	840.82	76.1775	840.82	57.1246	840.82	73.8695	840.82	62.144	840.82	70.0862	840.82	68.5225	840.82	68.632	840.82	71.2196	840.82	69.3004	840.82	71.3887	840.82	68.1289	840.82	68.679	840.82	65.5758	840.82	64.1038	840.82	61.3787	840.82	62.6897	840.82	60.6909	840.82	65.0303	840.82	64.7257	840.82	70.8747	840.82	68.5948	840.82	74.3819	840.82	71.9609	840.82	76.2027	840.82	74.9028	840.82	76.4947
870.117	87.989	870.117	86.9809	870.117	87.6766	870.117	84.6455	870.117	85.9811	870.117	80.6495	870.117	82.9526	870.117	73.9244	870.117	78.5047	870.117	58.6868	870.117	72.0725	870.117	63.2439	870.117	69.9828	870.117	69.6157	870.117	71.4592	870.117	72.9154	870.117	71.0951	870.117	73.6197	870.117	71.177	870.117	71.8501	870.117	70.4835	870.117	68.1435	870.117	68.2572	870.117	63.3611	870.117	62.9528	870.117	54.5444	870.117	53.054	870.117	61.043	870.117	59.3804	870.117	73.3481	870.117	70.5452	870.117	79.6647	870.117	77.0295	870.117	82.0897	870.117	80.344	870.117	81.9828
900.879	88.1349	900.879	87.3484	900.879	87.6569	900.879	85.2385	900.879	85.8901	900.879	81.738	900.879	82.7534	900.879	76.6583	900.879	78.6746	900.879	69.4166	900.879	74.5769	900.879	55.3633	900.879	71.0128	900.879	64.3421	900.879	71.5268	900.879	70.348	900.879	73.7832	900.879	72.4918	900.879	74.9954	900.879	72.1907	900.879	74.2999	900.879	69.1826	900.879	70.8758	900.879	60.7001	900.879	63.5198	900.879	54.645	900.879	58.243	900.879	51.269	900.879	55.6073	900.879	67.3514	900.879	64.2171	900.879	75.5131	900.879	73.3118	900.879	79.1531	900.879	78.0337	900.879	79.9256
933.105	87.975	933.105	87.1808	933.105	87.143	933.105	84.5388	933.105	84.7549	933.105	79.6608	933.105	80.5615	933.105	72.3678	933.105	74.0325	933.105	69.866	933.105	71.0401	933.105	70.4389	933.105	72.7454	933.105	69.8568	933.105	72.6979	933.105	74.0904	933.105	74.5544	933.105	76.43	933.105	76.6825	933.105	75.9498	933.105	76.3973	933.105	73.1098	933.105	73.0295	933.105	66.5471	933.105	62.5606	933.105	45.5723	933.105	64.5306	933.105	55.1946	933.105	69.7411	933.105	68.058	933.105	70.0166	933.105	77.6793	933.105	76.1625	933.105	81.3358	933.105	80.8047	933.105	82.1923
965.332	88.5423	965.332	87.9614	965.332	87.7463	965.332	85.6172	965.332	85.2669	965.332	80.2922	965.332	79.7608	965.332	67.3029	965.332	69.2936	965.332	73.5476	965.332	74.7717	965.332	76.368	965.332	77.3636	965.332	75.1338	965.332	76.3886	965.332	73.1304	965.332	73.41	965.332	74.9837	965.332	75.1798	965.332	77.7696	965.332	77.4049	965.332	78.294	965.332	77.5236	965.332	75.467	965.332	75.4402	965.332	68.2965	965.332	70.7833	965.332	62.2176	965.332	67.8175	965.332	70.1705	965.332	69.4217	965.332	77.4403	965.332	75.3642	965.332	81.1748	965.332	79.5895	965.332	81.719
1,000.49	89.6809	1,000.49	88.7287	1,000.49	88.9516	1,000.49	86.0162	1,000.49	86.4673	1,000.49	80.803	1,000.49	81.6764	1,000.49	67.9053	1,000.49	71.6968	1,000.49	73.7002	1,000.49	75.3577	1,000.49	78.807	1,000.49	79.922	1,000.49	78.9314	1,000.49	80.1405	1,000.49	77.076	1,000.49	77.9554	1,000.49	77.8715	1,000.49	76.5556	1,000.49	79.4702	1,000.49	77.6547	1,000.49	80.0707	1,000.49	77.9118	1,000.49	79.5159	1,000.49	77.3289	1,000.49	75.4371	1,000.49	75.664	1,000.49	64.9686	1,000.49	71.1501	1,000.49	59.3246	1,000.49	65.2662	1,000.49	69.2827	1,000.49	71.8641	1,000.49	74.5385	1,000.49	76.9521	1,000.49	77.2266
1,035.64	90.1402	1,035.64	89.3273	1,035.64	89.1349	1,035.64	86.4315	1,035.64	86.4312	1,035.64	80.566	1,035.64	81.4916	1,035.64	66.237	1,035.64	68.8468	1,035.64	77.036	1,035.64	75.472	1,035.64	80.5974	1,035.64	80.6381	1,035.64	81.2594	1,035.64	81.6036	1,035.64	80.3481	1,035.64	80.7703	1,035.64	78.4616	1,035.64	79.4505	1,035.64	78.9787	1,035.64	79.1021	1,035.64	79.5753	1,035.64	78.8679	1,035.64	78.4358	1,035.64	76.7184	1,035.64	76.1281	1,035.64	73.251	1,035.64	71.8792	1,035.64	69.1744	1,035.64	62.0312	1,035.64	69.5706	1,035.64	72.5251	1,035.64	74.4895	1,035.64	78.6025	1,035.64	77.3995	1,035.64	79.2267
1,072.27	89.106	1,072.27	88.1299	1,072.27	88.4216	1,072.27	84.9441	1,072.27	85.7809	1,072.27	77.8943	1,072.27	80.1137	1,072.27	68.5403	1,072.27	66.9315	1,072.27	77.6481	1,072.27	75.7183	1,072.27	80.6218	1,072.27	79.8471	1,072.27	80.3	1,072.27	80.7629	1,072.27	79.1763	1,072.27	80.7059	1,072.27	78.8317	1,072.27	80.6157	1,072.27	78.7527	1,072.27	80.4148	1,072.27	78.3898	1,072.27	80.1638	1,072.27	76.9205	1,072.27	78.7922	1,072.27	73.8341	1,072.27	76.6423	1,072.27	68.4172	1,072.27	74.2741	1,072.27	63.2616	1,072.27	70.4818	1,072.27	74.089	1,072.27	61.4031	1,072.27	78.4968	1,072.27	75.4657	1,072.27	79.1897
1,108.89	88.7431	1,108.89	87.5202	1,108.89	88.0254	1,108.89	83.7861	1,108.89	85.3144	1,108.89	75.5241	1,108.89	79.3637	1,108.89	71.5976	1,108.89	69.4772	1,108.89	79.6007	1,108.89	77.2632	1,108.89	81.3432	1,108.89	81.0171	1,108.89	80.7558	1,108.89	81.4859	1,108.89	79.6702	1,108.89	80.0589	1,108.89	78.3886	1,108.89	79.6515	1,108.89	77.8308	1,108.89	79.6096	1,108.89	77.8926	1,108.89	80.0459	1,108.89	76.6196	1,108.89	78.5925	1,108.89	73.8048	1,108.89	74.122	1,108.89	70.9819	1,108.89	70.3377	1,108.89	64.2466	1,108.89	64.2495	1,108.89	72.318	1,108.89	63.6027	1,108.89	79.3578	1,108.89	75.831	1,108.89	80.0568
1,148.44	88.7616	1,148.44	87.3227	1,148.44	88.251	1,148.44	83.284	1,148.44	85.5096	1,148.44	74.5038	1,148.44	78.847	1,148.44	68.8774	1,148.44	66.8959	1,148.44	77.4206	1,148.44	78.8768	1,148.44	80.4633	1,148.44	82.0238	1,148.44	80.5309	1,148.44	82.406	1,148.44	80.2075	1,148.44	80.9319	1,148.44	79.6349	1,148.44	80.4358	1,148.44	78.9638	1,148.44	80.4334	1,148.44	78.6464	1,148.44	80.3719	1,148.44	76.7679	1,148.44	78.9177	1,148.44	75.1332	1,148.44	75.8822	1,148.44	70.7246	1,148.44	71.4138	1,148.44	65.1349	1,148.44	55.0828	1,148.44	74.2482	1,148.44	67.2207	1,148.44	79.8667	1,148.44	76.5299	1,148.44	80.0407
1,189.45	89.2388	1,189.45	87.3347	1,189.45	88.6257	1,189.45	82.5353	1,189.45	85.3499	1,189.45	70.0003	1,189.45	78.2504	1,189.45	74.0942	1,189.45	71.0288	1,189.45	78.3771	1,189.45	78.1424	1,189.45	80.0853	1,189.45	80.3328	1,189.45	80.089	1,189.45	80.6244	1,189.45	79.1242	1,189.45	78.7744	1,189.45	79.8948	1,189.45	78.123	1,189.45	80.5757	1,189.45	77.8023	1,189.45	80.2836	1,189.45	78.9696	1,189.45	76.996	1,189.45	79.6551	1,189.45	74.3323	1,189.45	78.2327	1,189.45	72.9023	1,189.45	76.8864	1,189.45	69.4419	1,189.45	73.6774	1,189.45	74.8176	1,189.45	71.6949	1,189.45	79.8748	1,189.45	77.2837	1,189.45	80.7867
1,230.47	89.1874	1,230.47	87.5444	1,230.47	88.4519	1,230.47	82.7922	1,230.47	85.1021	1,230.47	69.7195	1,230.47	77.9534	1,230.47	76.0671	1,230.47	75.0088	1,230.47	81.169	1,230.47	81.2047	1,230.47	81.8689	1,230.47	82.9295	1,230.47	80.1271	1,230.47	82.9017	1,230.47	77.2394	1,230.47	80.4635	1,230.47	78.7319	1,230.47	79.0547	1,230.47	80.518	1,230.47	79.8798	1,230.47	80.1433	1,230.47	80.8693	1,230.47	76.8984	1,230.47	80.6586	1,230.47	72.549	1,230.47	77.8823	1,230.47	72.6782	1,230.47	74.833	1,230.47	73.6872	1,230.47	72.1841	1,230.47	64.61	1,230.47	69.5878	1,230.47	75.0033	1,230.47	68.3138	1,230.47	75.6365
1,274.41	88.7756	1,274.41	87.1514	1,274.41	87.9706	1,274.41	82.2094	1,274.41	83.8814	1,274.41	69.0094	1,274.41	77.4417	1,274.41	79.5695	1,274.41	80.0419	1,274.41	82.8532	1,274.41	84.027	1,274.41	83.2494	1,274.41	84.9576	1,274.41	82.0201	1,274.41	84.0769	1,274.41	79.3905	1,274.41	82.2642	1,274.41	77.2178	1,274.41	80.9624	1,274.41	78.0401	1,274.41	80.4094	1,274.41	79.6201	1,274.41	80.9692	1,274.41	79.8098	1,274.41	81.5959	1,274.41	75.2768	1,274.41	79.714	1,274.41	72.327	1,274.41	76.2274	1,274.41	73.2614	1,274.41	73.277	1,274.41	65.7869	1,274.41	67.8412	1,274.41	71.2825	1,274.41	69.2646	1,274.41	76.1915
1,319.82	89.105	1,319.82	87.4442	1,319.82	87.6576	1,319.82	81.6233	1,319.82	82.0525	1,319.82	69.5532	1,319.82	70.0091	1,319.82	80.7136	1,319.82	80.84	1,319.82	83.4356	1,319.82	84.4573	1,319.82	84.0373	1,319.82	85.1861	1,319.82	83.439	1,319.82	84.4416	1,319.82	81.7136	1,319.82	82.7702	1,319.82	78.5644	1,319.82	80.3568	1,319.82	77.6087	1,319.82	80.1497	1,319.82	80.5361	1,319.82	81.0914	1,319.82	80.7	1,319.82	81.693	1,319.82	76.4466	1,319.82	79.6697	1,319.82	70.6312	1,319.82	77.1843	1,319.82	71.1404	1,319.82	74.4214	1,319.82	52.2928	1,319.82	69.8326	1,319.82	73.8194	1,319.82	69.656	1,319.82	76.9181
1,366.7	88.8471	1,366.7	87.0495	1,366.7	87.3987	1,366.7	80.6718	1,366.7	81.282	1,366.7	70.3016	1,366.7	73.0164	1,366.7	81.8825	1,366.7	82.2452	1,366.7	85.0635	1,366.7	85.1177	1,366.7	85.2795	1,366.7	85.4204	1,366.7	84.2017	1,366.7	84.4435	1,366.7	82.584	1,366.7	82.1557	1,366.7	79.647	1,366.7	80.3331	1,366.7	79.1787	1,366.7	78.9178	1,366.7	78.051	1,366.7	79.5716	1,366.7	78.1488	1,366.7	80.0785	1,366.7	75.9417	1,366.7	78.9561	1,366.7	71.8934	1,366.7	77.2468	1,366.7	72.498	1,366.7	74.5791	1,366.7	36.6492	1,366.7	69.1934	1,366.7	74.5711	1,366.7	71.5535	1,366.7	77.6958
1,413.57	88.3172	1,413.57	86.4995	1,413.57	86.8138	1,413.57	79.3601	1,413.57	79.1494	1,413.57	74.9854	1,413.57	72.743	1,413.57	82.9128	1,413.57	81.9182	1,413.57	85.3546	1,413.57	84.6498	1,413.57	85.7684	1,413.57	84.83	1,413.57	83.5635	1,413.57	83.5067	1,413.57	81.8083	1,413.57	82.016	1,413.57	80.3824	1,413.57	80.0816	1,413.57	79.8012	1,413.57	78.4041	1,413.57	78.995	1,413.57	78.4854	1,413.57	79.0056	1,413.57	80.128	1,413.57	75.4204	1,413.57	79.5706	1,413.57	72.6527	1,413.57	77.6917	1,413.57	73.535	1,413.57	72.6645	1,413.57	66.236	1,413.57	66.5766	1,413.57	73.2868	1,413.57	72.07	1,413.57	77.6018
1,463.38	87.6097	1,463.38	85.1944	1,463.38	86.1973	1,463.38	75.5244	1,463.38	78.8024	1,463.38	75.6131	1,463.38	70.7851	1,463.38	82.7785	1,463.38	81.1262	1,463.38	84.8345	1,463.38	83.4204	1,463.38	84.9503	1,463.38	83.6532	1,463.38	82.8688	1,463.38	82.7057	1,463.38	80.7841	1,463.38	80.6238	1,463.38	78.6655	1,463.38	78.6193	1,463.38	77.4915	1,463.38	76.3292	1,463.38	77.3607	1,463.38	75.47	1,463.38	78.4292	1,463.38	76.3313	1,463.38	76.3716	1,463.38	77.5338	1,463.38	71.066	1,463.38	76.2453	1,463.38	72.3889	1,463.38	75.2379	1,463.38	68.302	1,463.38	70.0978	1,463.38	72.1108	1,463.38	69.1535	1,463.38	77.3157
1,516.11	89.0437	1,516.11	86.172	1,516.11	87.1904	1,516.11	73.3231	1,516.11	79.2158	1,516.11	78.4955	1,516.11	74.238	1,516.11	83.8872	1,516.11	83.2842	1,516.11	84.1493	1,516.11	84.3885	1,516.11	82.7914	1,516.11	83.5251	1,516.11	82.0658	1,516.11	82.0557	1,516.11	80.8298	1,516.11	81.6751	1,516.11	78.9322	1,516.11	80.7278	1,516.11	75.8207	1,516.11	77.0291	1,516.11	77.1572	1,516.11	72.9708	1,516.11	77.8246	1,516.11	74.5161	1,516.11	78.1127	1,516.11	76.9926	1,516.11	73.1438	1,516.11	73.7343	1,516.11	69.6436	1,516.11	70.2565	1,516.11	65.3391	1,516.11	71.4236	1,516.11	73.0946	1,516.11	68.3853	1,516.11	76.1884
1,568.85	87.6576	1,568.85	84.9988	1,568.85	86.4263	1,568.85	73.6915	1,568.85	79.3578	1,568.85	77.9043	1,568.85	73.3004	1,568.85	83.1634	1,568.85	82.8018	1,568.85	84.0023	1,568.85	83.9813	1,568.85	82.7929	1,568.85	83.3056	1,568.85	81.604	1,568.85	81.4775	1,568.85	79.9276	1,568.85	80.4958	1,568.85	77.5627	1,568.85	77.9354	1,568.85	76.9049	1,568.85	77.4371	1,568.85	76.3836	1,568.85	76.4367	1,568.85	76.6016	1,568.85	75.1006	1,568.85	78.3377	1,568.85	74.8455	1,568.85	76.3252	1,568.85	76.9609	1,568.85	70.749	1,568.85	75.9181	1,568.85	69.5312	1,568.85	71.6683	1,568.85	72.5174	1,568.85	65.5331	1,568.85	71.8487
1,624.51	89.2854	1,624.51	86.4595	1,624.51	87.5935	1,624.51	73.3038	1,624.51	79.9978	1,624.51	80.7813	1,624.51	73.7635	1,624.51	85.2888	1,624.51	82.7759	1,624.51	85.6139	1,624.51	84.6046	1,624.51	83.7275	1,624.51	84.0709	1,624.51	80.8084	1,624.51	82.3558	1,624.51	78.351	1,624.51	80.3403	1,624.51	76.4768	1,624.51	79.1699	1,624.51	74.1871	1,624.51	76.8879	1,624.51	76.2453	1,624.51	77.351	1,624.51	75.9069	1,624.51	75.8463	1,624.51	77.2891	1,624.51	76.8617	1,624.51	77.1264	1,624.51	77.8738	1,624.51	73.3839	1,624.51	77.4519	1,624.51	68.8749	1,624.51	73.8079	1,624.51	76.0154	1,624.51	71.8652	1,624.51	76.4854
1,681.64	89.6087	1,681.64	87.3546	1,681.64	87.5296	1,681.64	77.9265	1,681.64	78.8223	1,681.64	79.8121	1,681.64	75.9046	1,681.64	85.316	1,681.64	84.1708	1,681.64	85.9006	1,681.64	85.3839	1,681.64	85.4252	1,681.64	84.9909	1,681.64	83.3574	1,681.64	83.4276	1,681.64	79.9919	1,681.64	80.4225	1,681.64	78.0786	1,681.64	78.2105	1,681.64	74.339	1,681.64	77.6125	1,681.64	75.868	1,681.64	78.6807	1,681.64	76.2719	1,681.64	77.8298	1,681.64	75.5362	1,681.64	74.8463	1,681.64	75.2448	1,681.64	75.5432	1,681.64	75.614	1,681.64	76.7788	1,681.64	71.8157	1,681.64	75.0877	1,681.64	75.4278	1,681.64	70.61	1,681.64	76.9766
1,741.7	89.4154	1,741.7	87.1828	1,741.7	86.2602	1,741.7	77.3246	1,741.7	74.6864	1,741.7	78.5166	1,741.7	78.1589	1,741.7	85.4636	1,741.7	83.4394	1,741.7	86.3388	1,741.7	85.4263	1,741.7	85.0103	1,741.7	84.6781	1,741.7	83.9154	1,741.7	82.2492	1,741.7	81.3961	1,741.7	79.0384	1,741.7	76.7745	1,741.7	78.8387	1,741.7	72.2098	1,741.7	77.2929	1,741.7	75.5407	1,741.7	77.0523	1,741.7	77.2402	1,741.7	76.7098	1,741.7	77.9727	1,741.7	76.7546	1,741.7	74.8379	1,741.7	73.5991	1,741.7	71.7364	1,741.7	73.42	1,741.7	72.051	1,741.7	74.3838	1,741.7	70.5136	1,741.7	71.0522	1,741.7	73.044
1,803.22	88.9799	1,803.22	86.8836	1,803.22	86.9498	1,803.22	76.888	1,803.22	77.8713	1,803.22	80.0521	1,803.22	78.3741	1,803.22	86.1979	1,803.22	84.777	1,803.22	86.7546	1,803.22	85.2643	1,803.22	85.8325	1,803.22	82.5698	1,803.22	82.5713	1,803.22	79.158	1,803.22	79.2365	1,803.22	76.243	1,803.22	76.2808	1,803.22	74.1224	1,803.22	74.6844	1,803.22	72.13	1,803.22	65.9915	1,803.22	70.1506	1,803.22	72.3014	1,803.22	72.4198	1,803.22	73.2894	1,803.22	73.6107	1,803.22	71.3433	1,803.22	70.0448	1,803.22	69.8815	1,803.22	72.6527	1,803.22	69.1853	1,803.22	68.2881	1,803.22	73.919	1,803.22	73.3791	1,803.22	76.6544
1,866.21	88.1508	1,866.21	85.8388	1,866.21	86.353	1,866.21	69.6267	1,866.21	78.1741	1,866.21	80.9823	1,866.21	75.3331	1,866.21	85.0857	1,866.21	83.8833	1,866.21	85.8358	1,866.21	83.3101	1,866.21	84.3074	1,866.21	82.6978	1,866.21	81.8519	1,866.21	78.8967	1,866.21	77.098	1,866.21	73.4969	1,866.21	75.2702	1,866.21	68.7108	1,866.21	73.3942	1,866.21	71.5683	1,866.21	70.5428	1,866.21	63.7016	1,866.21	67.5788	1,866.21	68.5236	1,866.21	72.4135	1,866.21	73.2812	1,866.21	71.3571	1,866.21	72.762	1,866.21	70.2439	1,866.21	73.9517	1,866.21	61.4409	1,866.21	58.2354	1,866.21	76.2258	1,866.21	73.4797	1,866.21	78.7327
1,932.13	87.9975	1,932.13	85.6527	1,932.13	87.408	1,932.13	70.4601	1,932.13	79.9492	1,932.13	81.3683	1,932.13	74.2797	1,932.13	83.4594	1,932.13	83.8391	1,932.13	82.7056	1,932.13	84.053	1,932.13	81.3186	1,932.13	82.322	1,932.13	76.258	1,932.13	80.7981	1,932.13	70.7639	1,932.13	75.9826	1,932.13	69.8952	1,932.13	58.6661	1,932.13	76.673	1,932.13	68.7296	1,932.13	72.1785	1,932.13	69.3706	1,932.13	64.5894	1,932.13	64.0129	1,932.13	72.3695	1,932.13	70.9582	1,932.13	69.9658	1,932.13	71.0438	1,932.13	74.4904	1,932.13	76.0428	1,932.13	64.662	1,932.13	75.3821	1,932.13	78.1699	1,932.13	69.7098	1,932.13	80.8344
1,999.51	88.7909	1,999.51	85.9437	1,999.51	87.292	1,999.51	74.8596	1,999.51	80.27	1,999.51	78.5586	1,999.51	74.9181	1,999.51	82.6248	1,999.51	83.48	1,999.51	80.4749	1,999.51	82.7809	1,999.51	76.2959	1,999.51	79.879	1,999.51	75.914	1,999.51	77.6544	1,999.51	69.328	1,999.51	73.7641	1,999.51	60.8163	1,999.51	66.4192	1,999.51	71.4328	1,999.51	67.7259	1,999.51	72.5431	1,999.51	74.2782	1,999.51	63.9936	1,999.51	70.2006	1,999.51	71.8012	1,999.51	68.3447	1,999.51	62.5557	1,999.51	66.9741	1,999.51	77.7154	1,999.51	75.6963	1,999.51	71.9048	1,999.51	78.615	1,999.51	80.0417	1,999.51	69.2137	1,999.51	82.1089
2,069.82	89.2566	2,069.82	87.0123	2,069.82	87.216	2,069.82	77.9738	2,069.82	78.2154	2,069.82	72.9895	2,069.82	75.8754	2,069.82	80.8764	2,069.82	81.7747	2,069.82	79.8861	2,069.82	80.5791	2,069.82	71.0509	2,069.82	74.4953	2,069.82	63.2921	2,069.82	68.278	2,069.82	71.6446	2,069.82	71.3259	2,069.82	71.7187	2,069.82	72.1615	2,069.82	61.8105	2,069.82	65.409	2,069.82	73.8557	2,069.82	73.2969	2,069.82	74.4447	2,069.82	75.2482	2,069.82	65.4396	2,069.82	65.1862	2,069.82	65.2541	2,069.82	66.8498	2,069.82	75.4014	2,069.82	70.5634	2,069.82	72.9665	2,069.82	76.7689	2,069.82	77.5594	2,069.82	71.238	2,069.82	82.4444
2,143.07	89.5297	2,143.07	87.3545	2,143.07	86.7287	2,143.07	79.2529	2,143.07	76.4977	2,143.07	78.9913	2,143.07	77.9582	2,143.07	81.9776	2,143.07	81.298	2,143.07	81.4597	2,143.07	80.6554	2,143.07	77.9281	2,143.07	76.7948	2,143.07	71.393	2,143.07	70.4981	2,143.07	70.9653	2,143.07	70.5015	2,143.07	73.5748	2,143.07	74.2376	2,143.07	68.5475	2,143.07	71.4699	2,143.07	67.5271	2,143.07	65.1174	2,143.07	75.7607	2,143.07	75.1632	2,143.07	65.8521	2,143.07	71.0212	2,143.07	67.8968	2,143.07	66.0935	2,143.07	69.0256	2,143.07	64.8561	2,143.07	71.2005	2,143.07	70.9679	2,143.07	73.2713	2,143.07	64.9095	2,143.07	79.4155
2,219.24	88.984	2,219.24	86.2135	2,219.24	86.5122	2,219.24	79.6141	2,219.24	77.7084	2,219.24	82.059	2,219.24	77.6789	2,219.24	83.122	2,219.24	81.1936	2,219.24	80.5835	2,219.24	80.6478	2,219.24	77.2974	2,219.24	77.6589	2,219.24	74.665	2,219.24	73.2218	2,219.24	71.0776	2,219.24	70.1116	2,219.24	72.7672	2,219.24	72.9395	2,219.24	72.0107	2,219.24	73.3652	2,219.24	67.4169	2,219.24	55.3511	2,219.24	75.2289	2,219.24	72.157	2,219.24	71.2087	2,219.24	71.2492	2,219.24	70.3444	2,219.24	64.5871	2,219.24	64.0274	2,219.24	66.9229	2,219.24	69.062	2,219.24	67.2032	2,219.24	70.6748	2,219.24	51.8469	2,219.24	74.6855
2,296.88	87.7809	2,296.88	83.7714	2,296.88	86.5047	2,296.88	77.3186	2,296.88	79.0905	2,296.88	83.1094	2,296.88	80.1082	2,296.88	83.1798	2,296.88	82.8565	2,296.88	79.172	2,296.88	80.9049	2,296.88	76.6619	2,296.88	76.8096	2,296.88	76.5453	2,296.88	76.1038	2,296.88	77.1866	2,296.88	74.3523	2,296.88	74.2052	2,296.88	73.1157	2,296.88	74.5533	2,296.88	74.4204	2,296.88	73.0245	2,296.88	69.539	2,296.88	74.1526	2,296.88	70.1026	2,296.88	73.4869	2,296.88	72.8296	2,296.88	73.9181	2,296.88	67.4623	2,296.88	68.2963	2,296.88	69.1119	2,296.88	64.2694	2,296.88	68.068	2,296.88	68.4985	2,296.88	60.4204	2,296.88	74.3051
2,378.91	87.6526	2,378.91	84.4128	2,378.91	86.2246	2,378.91	72.9966	2,378.91	80.5919	2,378.91	82.7952	2,378.91	82.77	2,378.91	83.703	2,378.91	84.3873	2,378.91	79.451	2,378.91	81.226	2,378.91	77.6786	2,378.91	77.3704	2,378.91	78.1151	2,378.91	78.5767	2,378.91	74.7251	2,378.91	78.1374	2,378.91	74.1964	2,378.91	77.0079	2,378.91	72.2268	2,378.91	75.8249	2,378.91	70.7455	2,378.91	73.1725	2,378.91	72.8954	2,378.91	71.6882	2,378.91	69.9353	2,378.91	74.9328	2,378.91	72.2877	2,378.91	71.6797	2,378.91	68.4833	2,378.91	73.6917	2,378.91	66.6827	2,378.91	61.2741	2,378.91	68.8693	2,378.91	66.551	2,378.91	75.2411
2,462.4	87.8907	2,462.4	85.934	2,462.4	86.0089	2,462.4	78.1862	2,462.4	80.588	2,462.4	83.7458	2,462.4	84.5584	2,462.4	85.1436	2,462.4	85.6538	2,462.4	82.5581	2,462.4	82.4217	2,462.4	81.0393	2,462.4	81.1746	2,462.4	80.7056	2,462.4	81.7027	2,462.4	78.6029	2,462.4	80.1276	2,462.4	76.348	2,462.4	77.6029	2,462.4	73.0076	2,462.4	75.9912	2,462.4	69.343	2,462.4	73.7234	2,462.4	71.9461	2,462.4	73.048	2,462.4	73.5566	2,462.4	74.7456	2,462.4	70.771	2,462.4	73.5939	2,462.4	69.2679	2,462.4	74.1077	2,462.4	66.6492	2,462.4	62.4571	2,462.4	63.4598	2,462.4	67.0237	2,462.4	73.1896
2,548.83	87.7595	2,548.83	85.9919	2,548.83	85.6912	2,548.83	81.241	2,548.83	78.7118	2,548.83	84.5219	2,548.83	83.9855	2,548.83	84.9838	2,548.83	85.256	2,548.83	82.5836	2,548.83	82.8809	2,548.83	82.0872	2,548.83	82.1117	2,548.83	82.3589	2,548.83	82.1173	2,548.83	79.4156	2,548.83	79.6921	2,548.83	78.3009	2,548.83	78.1682	2,548.83	75.9689	2,548.83	74.8306	2,548.83	72.9975	2,548.83	72.1457	2,548.83	72.5699	2,548.83	72.2402	2,548.83	73.0452	2,548.83	72.1898	2,548.83	69.1473	2,548.83	71.3622	2,548.83	73.0669	2,548.83	73.595	2,548.83	56.5942	2,548.83	66.147	2,548.83	63.7176	2,548.83	63.9995	2,548.83	69.0779
2,639.65	86.4604	2,639.65	84.4309	2,639.65	84.7003	2,639.65	81.5011	2,639.65	79.3134	2,639.65	84.6302	2,639.65	82.314	2,639.65	83.1929	2,639.65	83.65	2,639.65	81.4191	2,639.65	81.7013	2,639.65	81.9496	2,639.65	81.8536	2,639.65	81.8297	2,639.65	81.4863	2,639.65	79.2381	2,639.65	79.5287	2,639.65	77.9472	2,639.65	77.4173	2,639.65	73.7149	2,639.65	76.9573	2,639.65	74.3922	2,639.65	73.7663	2,639.65	74.3817	2,639.65	71.5147	2,639.65	74.8796	2,639.65	72.1795	2,639.65	72.5975	2,639.65	73.5542	2,639.65	73.876	2,639.65	73.2506	2,639.65	65.3063	2,639.65	70.6528	2,639.65	67.3036	2,639.65	62.1314	2,639.65	68.7377
2,731.93	84.9941	2,731.93	82.9046	2,731.93	84.507	2,731.93	79.8978	2,731.93	79.9245	2,731.93	82.8762	2,731.93	81.6891	2,731.93	81.4328	2,731.93	81.7829	2,731.93	82.8183	2,731.93	81.2736	2,731.93	82.4619	2,731.93	82.4748	2,731.93	80.9246	2,731.93	81.7551	2,731.93	79.4006	2,731.93	79.0496	2,731.93	76.2076	2,731.93	74.8071	2,731.93	74.7085	2,731.93	75.3252	2,731.93	73.2752	2,731.93	73.9007	2,731.93	73.7102	2,731.93	73.4842	2,731.93	74.5891	2,731.93	72.9924	2,731.93	74.001	2,731.93	73.9719	2,731.93	72.1675	2,731.93	71.3767	2,731.93	60.7152	2,731.93	72.5121	2,731.93	64.4573	2,731.93	63.2402	2,731.93	65.1186
2,828.61	84.3287	2,828.61	83.1731	2,828.61	84.6586	2,828.61	80.2947	2,828.61	81.2323	2,828.61	81.6636	2,828.61	81.7226	2,828.61	82.2408	2,828.61	81.8449	2,828.61	83.5788	2,828.61	83.1768	2,828.61	83.5477	2,828.61	84.1178	2,828.61	80.1942	2,828.61	82.6693	2,828.61	78.9876	2,828.61	79.7906	2,828.61	75.5067	2,828.61	76.1027	2,828.61	73.7277	2,828.61	73.8304	2,828.61	70.5844	2,828.61	74.0499	2,828.61	73.4349	2,828.61	73.0797	2,828.61	72.762	2,828.61	74.3095	2,828.61	73.9826	2,828.61	74.1767	2,828.61	70.4757	2,828.61	70.2699	2,828.61	62.5322	2,828.61	70.1089	2,828.61	68.4829	2,828.61	65.3156	2,828.61	66.8435
2,928.22	85.2115	2,928.22	84.0037	2,928.22	84.7078	2,928.22	81.4379	2,928.22	81.2796	2,928.22	81.6964	2,928.22	81.481	2,928.22	82.6532	2,928.22	81.9117	2,928.22	84.9362	2,928.22	84.0091	2,928.22	84.5792	2,928.22	84.3337	2,928.22	81.6759	2,928.22	83.0079	2,928.22	78.8524	2,928.22	79.8971	2,928.22	74.3456	2,928.22	76.7823	2,928.22	72.773	2,928.22	72.6747	2,928.22	71.4962	2,928.22	70.8506	2,928.22	73.0866	2,928.22	71.377	2,928.22	71.8102	2,928.22	74.1411	2,928.22	72.7949	2,928.22	73.6573	2,928.22	67.1277	2,928.22	70.0845	2,928.22	62.2164	2,928.22	66.2002	2,928.22	66.6731	2,928.22	66.7399	2,928.22	67.0263
3,030.76	85.5772	3,030.76	83.8403	3,030.76	83.4889	3,030.76	81.6571	3,030.76	81.7521	3,030.76	82.2881	3,030.76	81.5191	3,030.76	83.8645	3,030.76	82.2532	3,030.76	84.8975	3,030.76	83.9574	3,030.76	84.4886	3,030.76	83.9331	3,030.76	82.2126	3,030.76	82.0181	3,030.76	78.9876	3,030.76	78.8372	3,030.76	74.8925	3,030.76	75.0061	3,030.76	72.7189	3,030.76	73.2255	3,030.76	70.6038	3,030.76	72.0882	3,030.76	71.7931	3,030.76	71.2662	3,030.76	71.451	3,030.76	72.4927	3,030.76	70.6661	3,030.76	73.5769	3,030.76	65.3691	3,030.76	70.1554	3,030.76	56.5093	3,030.76	63.4152	3,030.76	65.4355	3,030.76	62.9172	3,030.76	62.6926
3,137.7	85.2189	3,137.7	83.6102	3,137.7	84.5278	3,137.7	81.4635	3,137.7	81.6139	3,137.7	81.7008	3,137.7	80.6844	3,137.7	83.5119	3,137.7	81.9273	3,137.7	84.3264	3,137.7	83.9124	3,137.7	84.0743	3,137.7	83.7403	3,137.7	82.086	3,137.7	82.1953	3,137.7	79.6107	3,137.7	79.5152	3,137.7	75.977	3,137.7	75.8331	3,137.7	72.4726	3,137.7	73.2709	3,137.7	71.5205	3,137.7	73.0301	3,137.7	71.7945	3,137.7	72.2079	3,137.7	72.9536	3,137.7	73.1163	3,137.7	71.5244	3,137.7	73.9466	3,137.7	66.4205	3,137.7	71.7355	3,137.7	63.3239	3,137.7	65.8947	3,137.7	67.8343	3,137.7	64.6169	3,137.7	58.0569
3,249.02	85.4494	3,249.02	83.0401	3,249.02	84.2468	3,249.02	82.1165	3,249.02	82.3069	3,249.02	81.4316	3,249.02	80.9829	3,249.02	82.2756	3,249.02	82.1433	3,249.02	83.9671	3,249.02	84.1083	3,249.02	84.1124	3,249.02	84.1282	3,249.02	82.5859	3,249.02	82.0496	3,249.02	78.7016	3,249.02	79.4031	3,249.02	75.2298	3,249.02	76.1683	3,249.02	73.4515	3,249.02	71.6081	3,249.02	72.1387	3,249.02	73.197	3,249.02	71.7549	3,249.02	72.547	3,249.02	74.6453	3,249.02	72.7991	3,249.02	71.754	3,249.02	73.2491	3,249.02	66.605	3,249.02	71.2894	3,249.02	58.5909	3,249.02	63.1801	3,249.02	66.976	3,249.02	63.832	3,249.02	43.7045
3,363.28	85.0518	3,363.28	81.8514	3,363.28	82.4043	3,363.28	82.1716	3,363.28	82.5806	3,363.28	81.9698	3,363.28	82.4462	3,363.28	82.358	3,363.28	82.2668	3,363.28	84.044	3,363.28	83.6454	3,363.28	84.2332	3,363.28	84.1019	3,363.28	82.3063	3,363.28	81.9246	3,363.28	76.6909	3,363.28	78.3808	3,363.28	73.2724	3,363.28	74.9375	3,363.28	71.0469	3,363.28	70.5627	3,363.28	71.8973	3,363.28	71.5745	3,363.28	71.385	3,363.28	72.2388	3,363.28	74.321	3,363.28	71.4647	3,363.28	68.3149	3,363.28	70.8898	3,363.28	65.5767	3,363.28	69.7802	3,363.28	59.2374	3,363.28	56.6205	3,363.28	65.8693	3,363.28	61.0322	3,363.28	44.8209
3,481.93	84.518	3,481.93	80.8042	3,481.93	80.8631	3,481.93	82.1448	3,481.93	82.1494	3,481.93	81.5174	3,481.93	82.4859	3,481.93	81.9595	3,481.93	81.5645	3,481.93	84.0611	3,481.93	83.3284	3,481.93	84.0748	3,481.93	83.6036	3,481.93	82.3036	3,481.93	80.5972	3,481.93	76.4647	3,481.93	78.2064	3,481.93	74.0467	3,481.93	74.0283	3,481.93	71.2924	3,481.93	70.7466	3,481.93	69.4481	3,481.93	70.0645	3,481.93	71.7159	3,481.93	70.5211	3,481.93	73.3385	3,481.93	70.3117	3,481.93	67.7285	3,481.93	72.1577	3,481.93	61.9688	3,481.93	68.6401	3,481.93	63.8347	3,481.93	57.0956	3,481.93	62.6638	3,481.93	62.7948	3,481.93	55.79
3,604.98	84.6711	3,604.98	81.5757	3,604.98	82.5942	3,604.98	82.8366	3,604.98	83.3364	3,604.98	82.3111	3,604.98	82.7496	3,604.98	82.7998	3,604.98	81.2554	3,604.98	83.1799	3,604.98	83.3355	3,604.98	83.3488	3,604.98	84.3262	3,604.98	81.3886	3,604.98	82.2887	3,604.98	76.5877	3,604.98	78.9978	3,604.98	74.6868	3,604.98	74.4417	3,604.98	71.0315	3,604.98	72.6075	3,604.98	72.8832	3,604.98	73.2846	3,604.98	72.6561	3,604.98	71.6304	3,604.98	72.2601	3,604.98	72.4638	3,604.98	67.2214	3,604.98	73.4226	3,604.98	57.1159	3,604.98	67.0974	3,604.98	66.1068	3,604.98	62.0841	3,604.98	61.0542	3,604.98	64.7277	3,604.98	61.8837
3,732.42	85.0329	3,732.42	83.3384	3,732.42	83.4876	3,732.42	83.9976	3,732.42	83.8506	3,732.42	83.2088	3,732.42	83.3833	3,732.42	83.0598	3,732.42	82.5893	3,732.42	83.374	3,732.42	83.2603	3,732.42	83.7135	3,732.42	84.385	3,732.42	81.0617	3,732.42	82.6378	3,732.42	77.6924	3,732.42	78.7017	3,732.42	73.9361	3,732.42	74.2785	3,732.42	70.0656	3,732.42	71.9624	3,732.42	72.3727	3,732.42	71.7034	3,732.42	72.0683	3,732.42	72.8734	3,732.42	72.5615	3,732.42	71.3979	3,732.42	67.8228	3,732.42	72.1968	3,732.42	57.276	3,732.42	67.4131	3,732.42	67.7199	3,732.42	65.6377	3,732.42	58.9209	3,732.42	64.9922	3,732.42	67.498
3,864.26	83.522	3,864.26	83.4788	3,864.26	82.6032	3,864.26	83.8888	3,864.26	81.6816	3,864.26	82.8848	3,864.26	81.767	3,864.26	82.5554	3,864.26	81.1806	3,864.26	83.3772	3,864.26	81.473	3,864.26	83.4349	3,864.26	82.8607	3,864.26	81.176	3,864.26	81.0554	3,864.26	79.2399	3,864.26	78.4135	3,864.26	75.3942	3,864.26	73.7568	3,864.26	72.2129	3,864.26	71.3097	3,864.26	72.0427	3,864.26	66.2256	3,864.26	72.505	3,864.26	71.6508	3,864.26	72.1974	3,864.26	71.4563	3,864.26	64.8263	3,864.26	69.6376	3,864.26	50.634	3,864.26	65.1835	3,864.26	67.7769	3,864.26	65.4385	3,864.26	59.4784	3,864.26	64.485	3,864.26	64.2175
4,000.49	84.0319	4,000.49	82.0091	4,000.49	83.6188	4,000.49	81.7811	4,000.49	80.7278	4,000.49	82.019	4,000.49	80.5752	4,000.49	81.0534	4,000.49	82.944	4,000.49	82.134	4,000.49	82.3686	4,000.49	82.696	4,000.49	83.4652	4,000.49	80.4387	4,000.49	81.6718	4,000.49	77.641	4,000.49	78.0926	4,000.49	73.1173	4,000.49	74.669	4,000.49	72.3732	4,000.49	72.818	4,000.49	72.9578	4,000.49	68.6971	4,000.49	73.1883	4,000.49	71.1	4,000.49	71.0618	4,000.49	73.1666	4,000.49	65.6692	4,000.49	71.3131	4,000.49	59.3284	4,000.49	59.3091	4,000.49	67.6855	4,000.49	66.8058	4,000.49	50.181	4,000.49	64.3142	4,000.49	64.7929
4,141.11	85.8324	4,141.11	83.3493	4,141.11	84.2268	4,141.11	81.0737	4,141.11	81.4729	4,141.11	83.3341	4,141.11	82.2632	4,141.11	82.3579	4,141.11	83.5545	4,141.11	82.2151	4,141.11	82.7555	4,141.11	83.2304	4,141.11	83.3407	4,141.11	81.6714	4,141.11	81.9798	4,141.11	78.1925	4,141.11	78.5693	4,141.11	72.3936	4,141.11	74.6864	4,141.11	70.5862	4,141.11	72.5797	4,141.11	70.5967	4,141.11	68.4394	4,141.11	72.3731	4,141.11	67.2381	4,141.11	71.5665	4,141.11	72.3066	4,141.11	61.5223	4,141.11	71.6787	4,141.11	64.6472	4,141.11	50.6564	4,141.11	68.5309	4,141.11	66.8039	4,141.11	46.0991	4,141.11	56.2375	4,141.11	65.7982
4,287.6	86.6945	4,287.6	83.235	4,287.6	84.2858	4,287.6	81.6917	4,287.6	80.4646	4,287.6	83.1679	4,287.6	82.2554	4,287.6	83.0816	4,287.6	83.354	4,287.6	82.6465	4,287.6	81.5287	4,287.6	83.5799	4,287.6	82.7692	4,287.6	82.5302	4,287.6	80.989	4,287.6	77.3394	4,287.6	77.6491	4,287.6	74.7898	4,287.6	74.3538	4,287.6	70.0101	4,287.6	71.1313	4,287.6	70.5774	4,287.6	71.1857	4,287.6	69.1083	4,287.6	69.8349	4,287.6	70.9586	4,287.6	71.9109	4,287.6	61.8223	4,287.6	69.0028	4,287.6	63.5112	4,287.6	55.1148	4,287.6	63.4003	4,287.6	68.8472	4,287.6	56.8363	4,287.6	57.4356	4,287.6	64.4189
4,438.48	87.6283	4,438.48	83.1444	4,438.48	83.6223	4,438.48	80.1686	4,438.48	79.9736	4,438.48	83.7585	4,438.48	83.4549	4,438.48	84.1478	4,438.48	83.7795	4,438.48	81.8228	4,438.48	81.085	4,438.48	82.0742	4,438.48	81.8047	4,438.48	79.2134	4,438.48	80.4924	4,438.48	75.1692	4,438.48	77.9565	4,438.48	72.8868	4,438.48	74.2009	4,438.48	66.7297	4,438.48	70.626	4,438.48	71.7531	4,438.48	68.6576	4,438.48	70.6627	4,438.48	70.0368	4,438.48	72.8843	4,438.48	71.5097	4,438.48	62.6099	4,438.48	69.6771	4,438.48	66.8812	4,438.48	54.7941	4,438.48	66.6929	4,438.48	70.1103	4,438.48	50.9075	4,438.48	57.8251	4,438.48	64.6893
4,595.21	87.6856	4,595.21	83.9224	4,595.21	83.2192	4,595.21	80.2373	4,595.21	81.1217	4,595.21	85.034	4,595.21	83.9654	4,595.21	84.6547	4,595.21	83.4999	4,595.21	80.0905	4,595.21	79.5355	4,595.21	81.177	4,595.21	80.3166	4,595.21	80.0777	4,595.21	80.607	4,595.21	76.9668	4,595.21	78.4485	4,595.21	73.6186	4,595.21	75.334	4,595.21	72.0791	4,595.21	72.2174	4,595.21	66.0468	4,595.21	66.7031	4,595.21	70.9354	4,595.21	68.3659	4,595.21	70.9644	4,595.21	71.277	4,595.21	62.4686	4,595.21	70.7362	4,595.21	66.7644	4,595.21	55.7698	4,595.21	68.0097	4,595.21	69.277	4,595.21	49.5906	4,595.21	60.1164	4,595.21	66.023
4,756.35	88.3886	4,756.35	83.2297	4,756.35	85.267	4,756.35	83.5579	4,756.35	82.1028	4,756.35	86.0135	4,756.35	84.8223	4,756.35	84.2623	4,756.35	84.0651	4,756.35	78.1459	4,756.35	76.7487	4,756.35	81.247	4,756.35	80.4648	4,756.35	81.2051	4,756.35	81.8917	4,756.35	78.8428	4,756.35	79.9241	4,756.35	75.4492	4,756.35	77.0286	4,756.35	73.6694	4,756.35	72.9157	4,756.35	70.5832	4,756.35	71.4102	4,756.35	72.5832	4,756.35	71.7357	4,756.35	70.2606	4,756.35	71.368	4,756.35	64.5586	4,756.35	71.0017	4,756.35	58.8984	4,756.35	48.4693	4,756.35	66.6916	4,756.35	69.1852	4,756.35	58.0539	4,756.35	62.0022	4,756.35	62.0473
4,924.8	89.1694	4,924.8	83.7042	4,924.8	86.2155	4,924.8	85.8115	4,924.8	83.5925	4,924.8	86.0964	4,924.8	85.5443	4,924.8	83.4457	4,924.8	84.2576	4,924.8	76.0634	4,924.8	74.2332	4,924.8	81.9254	4,924.8	81.6622	4,924.8	82.4898	4,924.8	82.0659	4,924.8	79.4071	4,924.8	80.2725	4,924.8	73.9226	4,924.8	76.0141	4,924.8	67.9163	4,924.8	72.4668	4,924.8	68.2459	4,924.8	70.1992	4,924.8	72.4604	4,924.8	69.4677	4,924.8	68.7715	4,924.8	73.2223	4,924.8	62.2945	4,924.8	66.9506	4,924.8	63.7965	4,924.8	55.3635	4,924.8	60.2667	4,924.8	68.5397	4,924.8	60.8981	4,924.8	57.4047	4,924.8	64.22
5,097.66	88.5575	5,097.66	83.9081	5,097.66	85.384	5,097.66	84.9637	5,097.66	84.7769	5,097.66	86.4087	5,097.66	84.6202	5,097.66	81.0628	5,097.66	84.4928	5,097.66	74.5019	5,097.66	76.6837	5,097.66	81.9548	5,097.66	81.6952	5,097.66	82.1869	5,097.66	81.5678	5,097.66	77.3453	5,097.66	78.645	5,097.66	73.223	5,097.66	73.2345	5,097.66	64.7232	5,097.66	69.7396	5,097.66	68.4894	5,097.66	67.7965	5,097.66	71.3315	5,097.66	70.2361	5,097.66	68.5285	5,097.66	73.0213	5,097.66	60.4376	5,097.66	66.8507	5,097.66	63.7873	5,097.66	55.9743	5,097.66	64.1935	5,097.66	70.0872	5,097.66	62.0703	5,097.66	57.2368	5,097.66	58.1708
5,277.83	87.963	5,277.83	84.9109	5,277.83	85.1539	5,277.83	84.0109	5,277.83	85.654	5,277.83	85.8004	5,277.83	85.7606	5,277.83	81.1614	5,277.83	84.3582	5,277.83	77.9286	5,277.83	79.1594	5,277.83	81.0014	5,277.83	81.507	5,277.83	80.5647	5,277.83	80.656	5,277.83	75.2972	5,277.83	79.2914	5,277.83	72.0781	5,277.83	73.1466	5,277.83	65.8319	5,277.83	70.6868	5,277.83	67.7688	5,277.83	63.2871	5,277.83	70.7439	5,277.83	69.8796	5,277.83	68.1868	5,277.83	71.863	5,277.83	40.2687	5,277.83	68.1123	5,277.83	65.194	5,277.83	59.1934	5,277.83	62.1483	5,277.83	69.0986	5,277.83	60.845	5,277.83	57.8229	5,277.83	58.9565
5,463.87	87.7827	5,463.87	84.6277	5,463.87	86.4948	5,463.87	84.7714	5,463.87	85.4414	5,463.87	84.9405	5,463.87	87.124	5,463.87	83.0262	5,463.87	84.3622	5,463.87	77.7345	5,463.87	78.7828	5,463.87	79.6203	5,463.87	81.2465	5,463.87	78.7729	5,463.87	80.5955	5,463.87	76.336	5,463.87	76.6434	5,463.87	72.2306	5,463.87	73.5075	5,463.87	72.4936	5,463.87	70.0331	5,463.87	65.3341	5,463.87	62.4698	5,463.87	69.5726	5,463.87	69.1728	5,463.87	62.9079	5,463.87	71.1887	5,463.87	54.957	5,463.87	67.4775	5,463.87	62.8365	5,463.87	54.9494	5,463.87	63.9576	5,463.87	70.1651	5,463.87	57.6499	5,463.87	56.4955	5,463.87	59.6344
5,657.23	87.9716	5,657.23	85.4071	5,657.23	86.5257	5,657.23	86.7464	5,657.23	84.7454	5,657.23	86.1359	5,657.23	87.016	5,657.23	85.0778	5,657.23	84.4182	5,657.23	78.6372	5,657.23	75.0836	5,657.23	79.697	5,657.23	77.2003	5,657.23	77.415	5,657.23	78.9016	5,657.23	77.6164	5,657.23	76.6253	5,657.23	68.6027	5,657.23	71.7254	5,657.23	72.0695	5,657.23	65.765	5,657.23	65.5085	5,657.23	63.5242	5,657.23	69.9657	5,657.23	64.3768	5,657.23	69.9195	5,657.23	71.6949	5,657.23	59.2744	5,657.23	65.7111	5,657.23	51.3954	5,657.23	60.77	5,657.23	61.7279	5,657.23	65.9856	5,657.23	54.5989	5,657.23	48.7754	5,657.23	58.2829
5,856.45	88.3382	5,856.45	85.4627	5,856.45	85.7082	5,856.45	86.15	5,856.45	85.3097	5,856.45	86.6938	5,856.45	86.3932	5,856.45	83.956	5,856.45	84.2668	5,856.45	78.2159	5,856.45	79.2967	5,856.45	78.649	5,856.45	76.4441	5,856.45	78.9028	5,856.45	78.4386	5,856.45	76.5968	5,856.45	77.78	5,856.45	72.9519	5,856.45	72.9286	5,856.45	69.6446	5,856.45	66.2937	5,856.45	69.3554	5,856.45	66.1641	5,856.45	68.3931	5,856.45	66.6375	5,856.45	67.8445	5,856.45	68.9197	5,856.45	59.7815	5,856.45	63.559	5,856.45	58.4265	5,856.45	63.2762	5,856.45	61.5148	5,856.45	65.78	5,856.45	54.2856	5,856.45	40.21	5,856.45	61.5995
6,062.99	88.6007	6,062.99	85.4435	6,062.99	85.6944	6,062.99	84.977	6,062.99	84.813	6,062.99	86.2365	6,062.99	85.5689	6,062.99	82.8187	6,062.99	83.7147	6,062.99	79.296	6,062.99	81.0791	6,062.99	78.9877	6,062.99	76.911	6,062.99	82.5426	6,062.99	80.1854	6,062.99	76.1819	6,062.99	78.8457	6,062.99	74.956	6,062.99	73.4536	6,062.99	56.259	6,062.99	70.8089	6,062.99	69.3725	6,062.99	67.76	6,062.99	66.6979	6,062.99	70.4895	6,062.99	68.0561	6,062.99	67.1968	6,062.99	62.6558	6,062.99	65.3421	6,062.99	61.7786	6,062.99	62.1088	6,062.99	59.4229	6,062.99	60.3854	6,062.99	52.1225	6,062.99	54.2295	6,062.99	57.2571
6,276.86	88.5966	6,276.86	85.6348	6,276.86	86.7408	6,276.86	84.7266	6,276.86	84.4562	6,276.86	85.4249	6,276.86	85.661	6,276.86	83.29	6,276.86	83.7507	6,276.86	80.7275	6,276.86	80.7845	6,276.86	78.8588	6,276.86	78.9951	6,276.86	81.7637	6,276.86	80.7722	6,276.86	75.4237	6,276.86	75.5486	6,276.86	73.6983	6,276.86	71.6161	6,276.86	67.7463	6,276.86	68.2817	6,276.86	61.5378	6,276.86	68.6544	6,276.86	63.5382	6,276.86	67.31	6,276.86	66.0637	6,276.86	65.2312	6,276.86	61.0126	6,276.86	59.0208	6,276.86	53.986	6,276.86	62.7386	6,276.86	58.2219	6,276.86	61.4303	6,276.86	54.9775	6,276.86	60.6122	6,276.86	59.9302
6,498.05	88.7478	6,498.05	86.0018	6,498.05	87.1171	6,498.05	85.2097	6,498.05	83.5263	6,498.05	85.1251	6,498.05	85.022	6,498.05	84.3201	6,498.05	84.994	6,498.05	81.6656	6,498.05	82.1768	6,498.05	79.3022	6,498.05	78.1485	6,498.05	77.9648	6,498.05	78.4493	6,498.05	76.3499	6,498.05	75.3544	6,498.05	69.7782	6,498.05	69.8995	6,498.05	67.5501	6,498.05	68.9939	6,498.05	62.0554	6,498.05	60.4128	6,498.05	58.625	6,498.05	57.854	6,498.05	67.5381	6,498.05	62.6499	6,498.05	56.8515	6,498.05	55.9856	6,498.05	58.5106	6,498.05	59.2495	6,498.05	58.8073	6,498.05	55.257	6,498.05	54.0095	6,498.05	53.3	6,498.05	59.9249
6,726.56	89.2556	6,726.56	86.8384	6,726.56	86.9235	6,726.56	85.997	6,726.56	84.4542	6,726.56	84.8712	6,726.56	84.464	6,726.56	85.4343	6,726.56	84.8592	6,726.56	80.6675	6,726.56	82.7017	6,726.56	79.876	6,726.56	75.3558	6,726.56	77.2976	6,726.56	77.2874	6,726.56	77.5076	6,726.56	77.7972	6,726.56	69.78	6,726.56	73.234	6,726.56	67.9132	6,726.56	67.2152	6,726.56	66.9499	6,726.56	63.661	6,726.56	61.8919	6,726.56	62.6782	6,726.56	68.0716	6,726.56	66.3714	6,726.56	65.3542	6,726.56	61.3841	6,726.56	62.2092	6,726.56	59.368	6,726.56	54.422	6,726.56	53.8276	6,726.56	62.8086	6,726.56	54.6517	6,726.56	61.7721
6,963.87	88.5319	6,963.87	86.0426	6,963.87	85.7346	6,963.87	85.7839	6,963.87	85.8313	6,963.87	83.8926	6,963.87	83.9649	6,963.87	84.3959	6,963.87	84.3659	6,963.87	79.8954	6,963.87	80.3443	6,963.87	77.7371	6,963.87	75.2879	6,963.87	80.7056	6,963.87	80.4167	6,963.87	78.4644	6,963.87	79.8301	6,963.87	73.439	6,963.87	73.5674	6,963.87	65.9322	6,963.87	67.9765	6,963.87	68.4812	6,963.87	64.751	6,963.87	68.5702	6,963.87	65.0235	6,963.87	64.4679	6,963.87	68.4082	6,963.87	67.7611	6,963.87	60.6963	6,963.87	61.6586	6,963.87	64.1362	6,963.87	48.5743	6,963.87	60.2778	6,963.87	64.8811	6,963.87	55.8263	6,963.87	60.2861
7,209.96	87.7095	7,209.96	84.9456	7,209.96	86.6126	7,209.96	85.5526	7,209.96	86.5158	7,209.96	84.6926	7,209.96	84.8385	7,209.96	83.5216	7,209.96	83.7279	7,209.96	79.5549	7,209.96	80.058	7,209.96	77.2881	7,209.96	76.4629	7,209.96	82.0231	7,209.96	81.3324	7,209.96	78.3691	7,209.96	78.9916	7,209.96	73.3075	7,209.96	74.726	7,209.96	67.9161	7,209.96	71.1254	7,209.96	67.4458	7,209.96	67.55	7,209.96	68.0475	7,209.96	65.2291	7,209.96	67.3933	7,209.96	70.7569	7,209.96	61.5442	7,209.96	59.69	7,209.96	39.3542	7,209.96	65.1189	7,209.96	58.1579	7,209.96	54.3042	7,209.96	63.3555	7,209.96	60.0523	7,209.96	58.9858
7,464.84	87.3018	7,464.84	85.5151	7,464.84	86.7625	7,464.84	86.4686	7,464.84	85.9151	7,464.84	84.8175	7,464.84	84.0462	7,464.84	83.9039	7,464.84	82.5554	7,464.84	80.1111	7,464.84	80.6511	7,464.84	75.5766	7,464.84	74.0514	7,464.84	80.7842	7,464.84	78.5584	7,464.84	78.3085	7,464.84	79.507	7,464.84	74.4599	7,464.84	73.7703	7,464.84	68.6191	7,464.84	71.2885	7,464.84	62.8568	7,464.84	65.9479	7,464.84	67.5649	7,464.84	66.3653	7,464.84	68.2313	7,464.84	68.9708	7,464.84	61.5993	7,464.84	58.1697	7,464.84	55.5587	7,464.84	63.8904	7,464.84	57.3636	7,464.84	57.9064	7,464.84	57.6045	7,464.84	59.535	7,464.84	50.1196
7,727.05	87.1889	7,727.05	86.2319	7,727.05	85.5427	7,727.05	85.9178	7,727.05	86.7088	7,727.05	82.2444	7,727.05	83.2764	7,727.05	83.1231	7,727.05	82.5259	7,727.05	77.1493	7,727.05	82.6078	7,727.05	75.7937	7,727.05	76.1623	7,727.05	80.039	7,727.05	78.1494	7,727.05	78.2399	7,727.05	80.2287	7,727.05	73.5948	7,727.05	73.7415	7,727.05	70.5074	7,727.05	72.6183	7,727.05	63.2034	7,727.05	65.6902	7,727.05	62.3256	7,727.05	64.6311	7,727.05	65.6904	7,727.05	65.9048	7,727.05	55.3975	7,727.05	56.4737	7,727.05	60.4757	7,727.05	62.1327	7,727.05	56.7273	7,727.05	60.9814	7,727.05	59.5787	7,727.05	60.7029	7,727.05	53.9316
7,999.51	86.3846	7,999.51	85.6161	7,999.51	85.6059	7,999.51	84.9442	7,999.51	86.5865	7,999.51	83.3006	7,999.51	81.4759	7,999.51	82.033	7,999.51	82.4769	7,999.51	81.946	7,999.51	82.2793	7,999.51	77.6034	7,999.51	78.0914	7,999.51	81.0943	7,999.51	81.0584	7,999.51	76.3326	7,999.51	79.2105	7,999.51	72.892	7,999.51	73.886	7,999.51	71.1899	7,999.51	71.6008	7,999.51	61.5307	7,999.51	65.1991	7,999.51	63.9055	7,999.51	65.3266	7,999.51	65.5099	7,999.51	65.0404	7,999.51	56.6584	7,999.51	60.8869	7,999.51	61.6137	7,999.51	60.0197	7,999.51	56.288	7,999.51	64.4747	7,999.51	59.0627	7,999.51	57.7101	7,999.51	58.2912
8,282.23	85.0584	8,282.23	85.3123	8,282.23	85.8893	8,282.23	85.518	8,282.23	85.6805	8,282.23	81.7586	8,282.23	83.2593	8,282.23	82.2318	8,282.23	82.3439	8,282.23	84.6153	8,282.23	82.0004	8,282.23	75.7539	8,282.23	77.6169	8,282.23	78.8893	8,282.23	80.3774	8,282.23	76.4772	8,282.23	77.865	8,282.23	72.457	8,282.23	73.7906	8,282.23	66.2559	8,282.23	69.7303	8,282.23	64.3881	8,282.23	59.7423	8,282.23	64.1446	8,282.23	59.1852	8,282.23	63.2566	8,282.23	67.7552	8,282.23	60.0681	8,282.23	59.2684	8,282.23	59.8637	8,282.23	60.8736	8,282.23	57.8674	8,282.23	61.8862	8,282.23	58.0585	8,282.23	58.9018	8,282.23	52.9126
8,573.73	86.0552	8,573.73	86.2261	8,573.73	85.3916	8,573.73	85.8814	8,573.73	85.9811	8,573.73	82.6543	8,573.73	84.7454	8,573.73	84.9715	8,573.73	83.1412	8,573.73	82.4564	8,573.73	83.9857	8,573.73	77.3862	8,573.73	77.8841	8,573.73	76.7486	8,573.73	78.4376	8,573.73	75.5163	8,573.73	77.9319	8,573.73	70.0379	8,573.73	73.6678	8,573.73	64.738	8,573.73	67.1743	8,573.73	64.493	8,573.73	60.5394	8,573.73	61.6769	8,573.73	53.3216	8,573.73	63.0029	8,573.73	69.6489	8,573.73	49.7779	8,573.73	59.5393	8,573.73	59.3724	8,573.73	55.8191	8,573.73	57.4006	8,573.73	60.9697	8,573.73	51.035	8,573.73	59.5132	8,573.73	54.1694
8,876.95	86.8273	8,876.95	85.2276	8,876.95	86.1311	8,876.95	85.4419	8,876.95	85.37	8,876.95	83.4194	8,876.95	83.8243	8,876.95	84.0331	8,876.95	83.2077	8,876.95	81.1076	8,876.95	84.3055	8,876.95	78.6547	8,876.95	78.2906	8,876.95	78.8811	8,876.95	77.3911	8,876.95	76.5969	8,876.95	78.6484	8,876.95	71.602	8,876.95	74.2514	8,876.95	67.2373	8,876.95	68.4007	8,876.95	61.3701	8,876.95	66.1197	8,876.95	65.563	8,876.95	62.4187	8,876.95	63.4694	8,876.95	69.0092	8,876.95	57.2328	8,876.95	60.6214	8,876.95	58.4322	8,876.95	52.8921	8,876.95	54.4506	8,876.95	60.5971	8,876.95	58.5854	8,876.95	48.585	8,876.95	56.309
9,188.96	87.7827	9,188.96	86.2826	9,188.96	86.6593	9,188.96	86.1135	9,188.96	86.5595	9,188.96	83.9741	9,188.96	84.6929	9,188.96	82.3699	9,188.96	82.562	9,188.96	82.8936	9,188.96	82.5848	9,188.96	76.9451	9,188.96	79.5558	9,188.96	79.4568	9,188.96	77.6355	9,188.96	78.6111	9,188.96	80.3913	9,188.96	70.0881	9,188.96	74.2854	9,188.96	66.3764	9,188.96	70.0849	9,188.96	63.6796	9,188.96	64.845	9,188.96	64.0115	9,188.96	61.2225	9,188.96	57.6203	9,188.96	69.0262	9,188.96	56.0941	9,188.96	61.7849	9,188.96	58.5775	9,188.96	54.41	9,188.96	50.4074	9,188.96	57.3636	9,188.96	57.7445	9,188.96	48.9079	9,188.96	53.2242
9,514.16	87.4371	9,514.16	86.6975	9,514.16	87.1642	9,514.16	84.9809	9,514.16	86.0417	9,514.16	85.278	9,514.16	84.9003	9,514.16	83.3843	9,514.16	82.7758	9,514.16	81.4257	9,514.16	82.4141	9,514.16	79.0765	9,514.16	80.4303	9,514.16	78.2358	9,514.16	77.4615	9,514.16	75.991	9,514.16	78.148	9,514.16	74.1877	9,514.16	72.0032	9,514.16	67.5769	9,514.16	69.9364	9,514.16	65.0707	9,514.16	62.5779	9,514.16	66.7165	9,514.16	62.4233	9,514.16	60.4145	9,514.16	67.7382	9,514.16	61.1332	9,514.16	60.6128	9,514.16	53.9896	9,514.16	53.2001	9,514.16	51.0602	9,514.16	46.1261	9,514.16	59.386	9,514.16	53.0827	9,514.16	49.8738
9,849.61	87.6896	9,849.61	87.1982	9,849.61	87.1925	9,849.61	86.5521	9,849.61	86.2198	9,849.61	85.0098	9,849.61	84.6621	9,849.61	82.45	9,849.61	82.9236	9,849.61	82.0025	9,849.61	82.9533	9,849.61	79.7242	9,849.61	80.5953	9,849.61	77.179	9,849.61	77.0746	9,849.61	76.3676	9,849.61	77.0565	9,849.61	73.1978	9,849.61	72.3639	9,849.61	65.8488	9,849.61	70.5611	9,849.61	63.0044	9,849.61	61.783	9,849.61	64.9561	9,849.61	61.2143	9,849.61	57.2757	9,849.61	66.1252	9,849.61	61.6176	9,849.61	60.7641	9,849.61	40.2152	9,849.61	52.8744	9,849.61	50.5112	9,849.61	52.7065	9,849.61	49.4798	9,849.61	53.0908	9,849.61	52.0419
10,196.8	88.7848	10,196.8	88.046	10,196.8	87.3712	10,196.8	86.4791	10,196.8	87.3977	10,196.8	84.4739	10,196.8	86.0748	10,196.8	81.5962	10,196.8	82.0339	10,196.8	82.7457	10,196.8	82.6552	10,196.8	78.5191	10,196.8	80.1761	10,196.8	77.3375	10,196.8	76.0778	10,196.8	74.8271	10,196.8	76.6836	10,196.8	68.1488	10,196.8	71.6593	10,196.8	59.8162	10,196.8	68.4083	10,196.8	60.1925	10,196.8	60.6112	10,196.8	58.0707	10,196.8	61.3871	10,196.8	51.9356	10,196.8	66.0265	10,196.8	56.4674	10,196.8	57.4734	10,196.8	48.7531	10,196.8	51.9417	10,196.8	52.5897	10,196.8	48.4485	10,196.8	54.521	10,196.8	56.484	10,196.8	46.7039
10,555.7	88.1596	10,555.7	87.2772	10,555.7	88.2673	10,555.7	86.3477	10,555.7	86.2688	10,555.7	84.7674	10,555.7	85.2923	10,555.7	82.3404	10,555.7	83.6022	10,555.7	81.9266	10,555.7	81.8181	10,555.7	77.9368	10,555.7	79.7748	10,555.7	75.3038	10,555.7	74.2504	10,555.7	72.9785	10,555.7	75.2031	10,555.7	66.931	10,555.7	70.5569	10,555.7	62.1559	10,555.7	67.731	10,555.7	54.4886	10,555.7	58.7463	10,555.7	56.4385	10,555.7	58.2213	10,555.7	52.4426	10,555.7	63.2486	10,555.7	58.0154	10,555.7	54.7457	10,555.7	56.1316	10,555.7	48.2073	10,555.7	53.0112	10,555.7	56.376	10,555.7	52.5005	10,555.7	54.1173	10,555.7	49.9666
10,927.7	88.2518	10,927.7	87.1668	10,927.7	87.2678	10,927.7	87.2062	10,927.7	86.6976	10,927.7	84.0266	10,927.7	84.8585	10,927.7	82.7122	10,927.7	82.4216	10,927.7	81.6491	10,927.7	82.0023	10,927.7	77.7354	10,927.7	78.8828	10,927.7	73.746	10,927.7	71.2642	10,927.7	74.0086	10,927.7	75.7256	10,927.7	67.3196	10,927.7	70.6084	10,927.7	65.1184	10,927.7	65.1227	10,927.7	49.1158	10,927.7	57.5916	10,927.7	58.1665	10,927.7	50.8084	10,927.7	58.0186	10,927.7	61.3622	10,927.7	56.4954	10,927.7	51.5542	10,927.7	55.386	10,927.7	48.3208	10,927.7	57.7517	10,927.7	59.1087	10,927.7	54.9517	10,927.7	45.7094	10,927.7	53.5529
11,313	88.3052	11,313	87.3439	11,313	87.492	11,313	86.4831	11,313	86.6144	11,313	84.6591	11,313	85.8191	11,313	83.3985	11,313	83.033	11,313	81.6035	11,313	81.5391	11,313	76.22	11,313	78.0704	11,313	72.5478	11,313	70.6243	11,313	73.7687	11,313	76.0241	11,313	68.1555	11,313	69.6065	11,313	62.4675	11,313	65.8018	11,313	57.3767	11,313	57.8586	11,313	52.8227	11,313	59.5289	11,313	59.3326	11,313	61.9921	11,313	45.9311	11,313	55.6058	11,313	52.579	11,313	51.2383	11,313	57.1286	11,313	61.6866	11,313	57.4616	11,313	50.9666	11,313	52.2024
11,712.9	87.5061	11,712.9	86.7959	11,712.9	87.0868	11,712.9	86.391	11,712.9	86.082	11,712.9	84.8151	11,712.9	84.8665	11,712.9	83.3905	11,712.9	82.9824	11,712.9	80.7366	11,712.9	81.2326	11,712.9	76.9927	11,712.9	78.9729	11,712.9	73.9462	11,712.9	72.5426	11,712.9	72.9852	11,712.9	75.3954	11,712.9	69.006	11,712.9	68.7247	11,712.9	63.1444	11,712.9	64.8481	11,712.9	42.6013	11,712.9	57.7375	11,712.9	51.6248	11,712.9	59.5893	11,712.9	51.2967	11,712.9	60.5008	11,712.9	50.3712	11,712.9	57.282	11,712.9	53.5344	11,712.9	54.3685	11,712.9	56.0985	11,712.9	58.5498	11,712.9	53.8881	11,712.9	49.4492	11,712.9	54.1818
12,126	86.9168	12,126	86.9353	12,126	86.5854	12,126	86.1699	12,126	86.4598	12,126	85.4581	12,126	84.5723	12,126	83.1762	12,126	83.8446	12,126	80.0091	12,126	79.7962	12,126	77.0322	12,126	77.9561	12,126	74.2222	12,126	72.0485	12,126	72.7644	12,126	74.9555	12,126	66.6182	12,126	69.0035	12,126	60.8577	12,126	62.0349	12,126	54.5579	12,126	58.2182	12,126	34.0689	12,126	58.4545	12,126	53.7446	12,126	51.7828	12,126	52.713	12,126	53.6495	12,126	55.244	12,126	55.1364	12,126	52.7563	12,126	54.1608	12,126	55.6211	12,126	48.5656	12,126	50.7792
12,553.7	86.8645	12,553.7	87.2638	12,553.7	86.9082	12,553.7	86.2691	12,553.7	85.7768	12,553.7	85.1418	12,553.7	85.0331	12,553.7	83.03	12,553.7	83.8105	12,553.7	80.2332	12,553.7	80.5347	12,553.7	76.9079	12,553.7	79.2608	12,553.7	71.895	12,553.7	71.3721	12,553.7	70.6978	12,553.7	73.1577	12,553.7	66.2449	12,553.7	66.2174	12,553.7	58.5357	12,553.7	62.6837	12,553.7	46.6549	12,553.7	55.521	12,553.7	40.619	12,553.7	56.0485	12,553.7	53.3407	12,553.7	56.1317	12,553.7	55.6979	12,553.7	52.7979	12,553.7	53.1406	12,553.7	53.2124	12,553.7	53.1064	12,553.7	45.5134	12,553.7	51.3434	12,553.7	50.9597	12,553.7	47.0041
12,996.1	87.2401	12,996.1	86.9994	12,996.1	87.341	12,996.1	86.9444	12,996.1	86.5738	12,996.1	85.2952	12,996.1	85.3633	12,996.1	83.9879	12,996.1	83.8755	12,996.1	80.2777	12,996.1	80.2178	12,996.1	76.6498	12,996.1	78.509	12,996.1	71.0209	12,996.1	70.2353	12,996.1	70.9555	12,996.1	71.8484	12,996.1	65.1953	12,996.1	66.3596	12,996.1	57.4932	12,996.1	61.0406	12,996.1	41.1886	12,996.1	57.3541	12,996.1	42.6422	12,996.1	55.6649	12,996.1	49.9222	12,996.1	52.3925	12,996.1	53.5978	12,996.1	46.3545	12,996.1	50.222	12,996.1	52.1419	12,996.1	55.2865	12,996.1	49.7152	12,996.1	52.2555	12,996.1	49.7793	12,996.1	44.802
13,454.6	88.293	13,454.6	88.2611	13,454.6	87.8972	13,454.6	87.2117	13,454.6	87.088	13,454.6	86.3138	13,454.6	86.1367	13,454.6	83.4975	13,454.6	84.1351	13,454.6	79.79	13,454.6	80.7123	13,454.6	76.2447	13,454.6	78.1375	13,454.6	70.902	13,454.6	64.9091	13,454.6	70.3945	13,454.6	71.7709	13,454.6	63.0774	13,454.6	64.8919	13,454.6	55.0392	13,454.6	55.9144	13,454.6	54.4318	13,454.6	55.4837	13,454.6	51.1203	13,454.6	55.1241	13,454.6	45.4818	13,454.6	56.6204	13,454.6	56.5617	13,454.6	47.7446	13,454.6	52.5948	13,454.6	53.9355	13,454.6	52.0797	13,454.6	49.4854	13,454.6	52.3662	13,454.6	53.4761	13,454.6	42.0615
13,929.2	89.5338	13,929.2	88.8495	13,929.2	89.04	13,929.2	88.3302	13,929.2	88.1141	13,929.2	86.0022	13,929.2	86.4009	13,929.2	83.995	13,929.2	83.691	13,929.2	79.319	13,929.2	79.5395	13,929.2	75.2399	13,929.2	76.3874	13,929.2	70.4294	13,929.2	67.4723	13,929.2	67.8285	13,929.2	69.6024	13,929.2	63.1413	13,929.2	62.779	13,929.2	56.8702	13,929.2	56.1154	13,929.2	52.7691	13,929.2	55.2624	13,929.2	50.7469	13,929.2	53.7331	13,929.2	41.2988	13,929.2	54.325	13,929.2	51.0604	13,929.2	49.7369	13,929.2	41.1953	13,929.2	51.767	13,929.2	45.449	13,929.2	51.6844	13,929.2	42.9188	13,929.2	46.0504	13,929.2	38.8154
14,419.9	90.5462	14,419.9	89.7418	14,419.9	89.9863	14,419.9	88.7637	14,419.9	88.752	14,419.9	86.068	14,419.9	86.3015	14,419.9	82.9194	14,419.9	83.0673	14,419.9	78.5012	14,419.9	78.8712	14,419.9	74.3721	14,419.9	74.1902	14,419.9	67.86	14,419.9	66.7904	14,419.9	65.3642	14,419.9	62.9862	14,419.9	60.1846	14,419.9	59.1421	14,419.9	51.3704	14,419.9	48.7932	14,419.9	41.4171	14,419.9	49.5303	14,419.9	51.0148	14,419.9	45.5926	14,419.9	31.2839	14,419.9	50.2808	14,419.9	48.5977	14,419.9	41.8127	14,419.9	45.6607	14,419.9	49.5667	14,419.9	43.8492	14,419.9	49.5767	14,419.9	44.6122	14,419.9	47.1463	14,419.9	40.0991
14,928.2	90.9216	14,928.2	89.986	14,928.2	90.4444	14,928.2	88.596	14,928.2	88.7352	14,928.2	85.2851	14,928.2	85.6196	14,928.2	81.8557	14,928.2	81.6019	14,928.2	75.921	14,928.2	76.0107	14,928.2	70.8251	14,928.2	68.2022	14,928.2	64.7767	14,928.2	64.5545	14,928.2	57.895	14,928.2	48.3068	14,928.2	55.5267	14,928.2	52.223	14,928.2	50.5122	14,928.2	50.7622	14,928.2	43.1765	14,928.2	35.1851	14,928.2	49.2343	14,928.2	44.2424	14,928.2	37.9181	14,928.2	39.2251	14,928.2	43.8967	14,928.2	39.7302	14,928.2	39.234	14,928.2	43.6604	14,928.2	42.4524	14,928.2	46.0144	14,928.2	32.4219	14,928.2	49.3903	14,928.2	40.4827
15,455.6	90.5562	15,455.6	89.273	15,455.6	89.9455	15,455.6	87.5694	15,455.6	88.0754	15,455.6	83.9845	15,455.6	84.4591	15,455.6	79.6649	15,455.6	79.2994	15,455.6	72.4875	15,455.6	71.2391	15,455.6	63.3889	15,455.6	53.1635	15,455.6	58.2558	15,455.6	66.0291	15,455.6	49.4269	15,455.6	59.8854	15,455.6	51.7573	15,455.6	55.9581	15,455.6	44.3898	15,455.6	53.9309	15,455.6	38.6922	15,455.6	46.0933	15,455.6	45.9448	15,455.6	49.4242	15,455.6	40.4152	15,455.6	48.8661	15,455.6	40.5761	15,455.6	39.6385	15,455.6	34.7787	15,455.6	42.0795	15,455.6	43.0055	15,455.6	46.8195	15,455.6	35.8439	15,455.6	49.0976	15,455.6	42.3394
16,000.5	89.7798	16,000.5	88.4323	16,000.5	88.9755	16,000.5	86.4381	16,000.5	87.0112	16,000.5	81.7874	16,000.5	82.8202	16,000.5	76.7905	16,000.5	75.9478	16,000.5	65.0151	16,000.5	62.7258	16,000.5	54.7843	16,000.5	62.2332	16,000.5	51.6128	16,000.5	68.3086	16,000.5	59.7146	16,000.5	64.9548	16,000.5	49.0798	16,000.5	59.7199	16,000.5	43.7316	16,000.5	54.327	16,000.5	43.2571	16,000.5	47.8753	16,000.5	42.1819	16,000.5	51.5054	16,000.5	41.7385	16,000.5	44.4209	16,000.5	32.9981	16,000.5	30.9779	16,000.5	39.5007	16,000.5	46.8044	16,000.5	45.4013	16,000.5	37.0549	16,000.5	27.0373	16,000.5	51.2751	16,000.5	41.0945
16,564.5	88.7685	16,564.5	87.3683	16,564.5	87.7781	16,564.5	85.0216	16,564.5	85.4751	16,564.5	79.77	16,564.5	80.7615	16,564.5	72.4588	16,564.5	72.2566	16,564.5	55.0572	16,564.5	51.2493	16,564.5	64.3417	16,564.5	67.4341	16,564.5	62.8726	16,564.5	69.3542	16,564.5	63.1019	16,564.5	64.2349	16,564.5	55.0955	16,564.5	60.6137	16,564.5	49.5367	16,564.5	50.4756	16,564.5	20.6645	16,564.5	47.4293	16,564.5	42.0368	16,564.5	50.5732	16,564.5	37.429	16,564.5	39.2478	16,564.5	40.9981	16,564.5	43.0209	16,564.5	41.0234	16,564.5	43.9543	16,564.5	46.9969	16,564.5	29.65	16,564.5	32.9646	16,564.5	49.9929	16,564.5	36.0288
17,148.9	87.6528	17,148.9	86.336	17,148.9	86.6665	17,148.9	83.6126	17,148.9	84.0468	17,148.9	77.6726	17,148.9	78.5706	17,148.9	66.4999	17,148.9	68.6338	17,148.9	57.0284	17,148.9	61.942	17,148.9	68.5284	17,148.9	69.4004	17,148.9	64.9165	17,148.9	68.3832	17,148.9	62.7804	17,148.9	63.7708	17,148.9	52.8464	17,148.9	60.3139	17,148.9	49.5745	17,148.9	46.6381	17,148.9	38.7027	17,148.9	44.559	17,148.9	38.9554	17,148.9	45.2324	17,148.9	44.3024	17,148.9	44.0926	17,148.9	43.6726	17,148.9	39.6884	17,148.9	46.3644	17,148.9	40.2333	17,148.9	46.3201	17,148.9	40.2035	17,148.9	32.9953	17,148.9	42.9776	17,148.9	41.0615
17,752.4	86.5363	17,752.4	85.1176	17,752.4	85.6728	17,752.4	82.3338	17,752.4	82.7858	17,752.4	75.4312	17,752.4	76.8345	17,752.4	59.2309	17,752.4	67.0584	17,752.4	65.2346	17,752.4	67.3535	17,752.4	69.3005	17,752.4	69.6277	17,752.4	64.5463	17,752.4	65.9877	17,752.4	62.7819	17,752.4	62.9398	17,752.4	53.4365	17,752.4	60.7452	17,752.4	50.191	17,752.4	44.2942	17,752.4	45.7781	17,752.4	38.0199	17,752.4	35.3931	17,752.4	40.4816	17,752.4	47.464	17,752.4	47.4449	17,752.4	44.851	17,752.4	33.3344	17,752.4	45.4232	17,752.4	38.3495	17,752.4	42.5784	17,752.4	46.7262	17,752.4	39.7851	17,752.4	41.0232	17,752.4	17.1625
18,379.4	85.8694	18,379.4	84.2045	18,379.4	84.7616	18,379.4	80.3666	18,379.4	81.6088	18,379.4	71.2891	18,379.4	74.3449	18,379.4	56.1402	18,379.4	60.5145	18,379.4	68.2091	18,379.4	68.4285	18,379.4	68.479	18,379.4	68.0491	18,379.4	61.1044	18,379.4	61.814	18,379.4	58.5774	18,379.4	57.5719	18,379.4	51.6063	18,379.4	57.9677	18,379.4	40.9206	18,379.4	37.3845	18,379.4	35.5714	18,379.4	36.3535	18,379.4	44.4081	18,379.4	35.7548	18,379.4	46.9341	18,379.4	50.4544	18,379.4	37.0559	18,379.4	35.3327	18,379.4	39.1658	18,379.4	37.1867	18,379.4	40.1927	18,379.4	33.4183	18,379.4	38.8723	18,379.4	39.6729	18,379.4	27.4924
19,026.9	85.0296	19,026.9	83.0607	19,026.9	84.0405	19,026.9	78.4126	19,026.9	80.1858	19,026.9	64.9398	19,026.9	71.8118	19,026.9	64.734	19,026.9	63.7178	19,026.9	69.7392	19,026.9	70.0476	19,026.9	66.8962	19,026.9	66.6637	19,026.9	59.1154	19,026.9	55.5285	19,026.9	54.3139	19,026.9	50.2293	19,026.9	45.5266	19,026.9	53.5844	19,026.9	36.558	19,026.9	46.3865	19,026.9	40.8141	19,026.9	37.4025	19,026.9	45.8511	19,026.9	40.9841	19,026.9	46.3547	19,026.9	48.2171	19,026.9	41.6021	19,026.9	46.5891	19,026.9	27.6835	19,026.9	43.2698	19,026.9	35.4564	19,026.9	37.2861	19,026.9	35.6467	19,026.9	39.4429	19,026.9	36.2286
19,697.8	84.1497	19,697.8	81.895	19,697.8	83.146	19,697.8	76.4621	19,697.8	78.7279	19,697.8	65.5324	19,697.8	69.8026	19,697.8	69.2204	19,697.8	67.4794	19,697.8	69.1035	19,697.8	70.467	19,697.8	67.0455	19,697.8	64.8316	19,697.8	55.592	19,697.8	53.7701	19,697.8	48.5292	19,697.8	40.1215	19,697.8	42.0931	19,697.8	51.0715	19,697.8	41.1375	19,697.8	36.6745	19,697.8	43.4702	19,697.8	26.2563	19,697.8	41.0865	19,697.8	42.8043	19,697.8	46.7403	19,697.8	50.3745	19,697.8	47.7627	19,697.8	43.6203	19,697.8	34.1103	19,697.8	42.7266	19,697.8	38.8712	19,697.8	45.7491	19,697.8	37.4343	19,697.8	46.1702	19,697.8	35.357
19,999.5	83.9663	19,999.5	81.5935	19,999.5	82.4588	19,999.5	75.4421	19,999.5	78.1441	19,999.5	69.1991	19,999.5	66.4683	19,999.5	69.8711	19,999.5	68.786	19,999.5	67.2281	19,999.5	69.0586	19,999.5	66.2186	19,999.5	64.9042	19,999.5	57.4408	19,999.5	49.6655	19,999.5	44.9525	19,999.5	43.5151	19,999.5	52.1252	19,999.5	47.2033	19,999.5	51.8421	19,999.5	44.3287	19,999.5	46.7373	19,999.5	36.8546	19,999.5	46.223	19,999.5	41.168	19,999.5	46.8239	19,999.5	40.9112	19,999.5	49.6914	19,999.5	47.7085	19,999.5	43.3911	19,999.5	47.3543	19,999.5	41.6718	19,999.5	46.0647	19,999.5	47.9674	19,999.5	43.2339	19,999.5	27.3522
