"SPL Horizontal"																																																																							
"On-Axis"		"10°"		"-10°"		"20°"		"-20°"		"30°"		"-30°"		"40°"		"-40°"		"50°"		"-50°"		"60°"		"-60°"		"70°"		"-70°"		"80°"		"-80°"		"90°"		"-90°"		"100°"		"-100°"		"110°"		"-110°"		"120°"		"-120°"		"130°"		"-130°"		"140°"		"-140°"		"150°"		"-150°"		"160°"		"-160°"		"170°"		"-170°"		"180°"	
"Frequency [Hz]"	"Sound Pessure Level [dB]  / [2.83V 1m] "	"Frequency [Hz]"	"Sound Pessure Level [dB]  / [2.83V 1m] "	"Frequency [Hz]"	"Sound Pessure Level [dB]  / [2.83V 1m] "	"Frequency [Hz]"	"Sound Pessure Level [dB]  / [2.83V 1m] "	"Frequency [Hz]"	"Sound Pessure Level [dB]  / [2.83V 1m] "	"Frequency [Hz]"	"Sound Pessure Level [dB]  / [2.83V 1m] "	"Frequency [Hz]"	"Sound Pessure Level [dB]  / [2.83V 1m] "	"Frequency [Hz]"	"Sound Pessure Level [dB]  / [2.83V 1m] "	"Frequency [Hz]"	"Sound Pessure Level [dB]  / [2.83V 1m] "	"Frequency [Hz]"	"Sound Pessure Level [dB]  / [2.83V 1m] "	"Frequency [Hz]"	"Sound Pessure Level [dB]  / [2.83V 1m] "	"Frequency [Hz]"	"Sound Pessure Level [dB]  / [2.83V 1m] "	"Frequency [Hz]"	"Sound Pessure Level [dB]  / [2.83V 1m] "	"Frequency [Hz]"	"Sound Pessure Level [dB]  / [2.83V 1m] "	"Frequency [Hz]"	"Sound Pessure Level [dB]  / [2.83V 1m] "	"Frequency [Hz]"	"Sound Pessure Level [dB]  / [2.83V 1m] "	"Frequency [Hz]"	"Sound Pessure Level [dB]  / [2.83V 1m] "	"Frequency [Hz]"	"Sound Pessure Level [dB]  / [2.83V 1m] "	"Frequency [Hz]"	"Sound Pessure Level [dB]  / [2.83V 1m] "	"Frequency [Hz]"	"Sound Pessure Level [dB]  / [2.83V 1m] "	"Frequency [Hz]"	"Sound Pessure Level [dB]  / [2.83V 1m] "	"Frequency [Hz]"	"Sound Pessure Level [dB]  / [2.83V 1m] "	"Frequency [Hz]"	"Sound Pessure Level [dB]  / [2.83V 1m] "	"Frequency [Hz]"	"Sound Pessure Level [dB]  / [2.83V 1m] "	"Frequency [Hz]"	"Sound Pessure Level [dB]  / [2.83V 1m] "	"Frequency [Hz]"	"Sound Pessure Level [dB]  / [2.83V 1m] "	"Frequency [Hz]"	"Sound Pessure Level [dB]  / [2.83V 1m] "	"Frequency [Hz]"	"Sound Pessure Level [dB]  / [2.83V 1m] "	"Frequency [Hz]"	"Sound Pessure Level [dB]  / [2.83V 1m] "	"Frequency [Hz]"	"Sound Pessure Level [dB]  / [2.83V 1m] "	"Frequency [Hz]"	"Sound Pessure Level [dB]  / [2.83V 1m] "	"Frequency [Hz]"	"Sound Pessure Level [dB]  / [2.83V 1m] "	"Frequency [Hz]"	"Sound Pessure Level [dB]  / [2.83V 1m] "	"Frequency [Hz]"	"Sound Pessure Level [dB]  / [2.83V 1m] "	"Frequency [Hz]"	"Sound Pessure Level [dB]  / [2.83V 1m] "	"Frequency [Hz]"	"Sound Pessure Level [dB]  / [2.83V 1m] "
20.5078	49.9062	20.5078	49.9649	20.5078	49.8208	20.5078	49.9963	20.5078	49.7104	20.5078	49.9997	20.5078	49.5776	20.5078	49.9747	20.5078	49.4266	20.5078	49.921	20.5078	49.2628	20.5078	49.8385	20.5078	49.0927	20.5078	49.7272	20.5078	48.9225	20.5078	49.5875	20.5078	48.7572	20.5078	49.4199	20.5078	48.5995	20.5078	49.2259	20.5078	48.4495	20.5078	49.0078	20.5078	48.306	20.5078	48.7706	20.5078	48.167	20.5078	48.5227	20.5078	48.0321	20.5078	48.2772	20.5078	47.9043	20.5078	48.0511	20.5078	47.7906	20.5078	47.8634	20.5078	47.7026	20.5078	47.7303	20.5078	47.6547	20.5078	47.6609
21.2402	42.6258	21.2402	43.0821	21.2402	42.1331	21.2402	43.4803	21.2402	41.6393	21.2402	43.8083	21.2402	41.1934	21.2402	44.0599	21.2402	40.8525	21.2402	44.2323	21.2402	40.6639	21.2402	44.3243	21.2402	40.6437	21.2402	44.3351	21.2402	40.7672	21.2402	44.2635	21.2402	40.9814	21.2402	44.1081	21.2402	41.2277	21.2402	43.8682	21.2402	41.4593	21.2402	43.5463	21.2402	41.6466	21.2402	43.1529	21.2402	41.7747	21.2402	42.7117	21.2402	41.8377	21.2402	42.2653	21.2402	41.8358	21.2402	41.872	21.2402	41.7743	21.2402	41.5909	21.2402	41.668	21.2402	41.4558	21.2402	41.5463	21.2402	41.4564
21.9727	45.3564	21.9727	44.6675	21.9727	46.0448	21.9727	44.0075	21.9727	46.7091	21.9727	43.4105	21.9727	47.3311	21.9727	42.912	21.9727	47.8967	21.9727	42.5426	21.9727	48.3953	21.9727	42.3216	21.9727	48.819	21.9727	42.2539	21.9727	49.1626	21.9727	42.3319	21.9727	49.424	21.9727	42.5421	21.9727	49.6036	21.9727	42.8718	21.9727	49.7043	21.9727	43.3109	21.9727	49.7303	21.9727	43.8498	21.9727	49.6856	21.9727	44.4743	21.9727	49.5723	21.9727	45.161	21.9727	49.3892	21.9727	45.8771	21.9727	49.1318	21.9727	46.586	21.9727	48.7932	21.9727	47.2531	21.9727	48.3674	21.9727	47.8521
22.7051	52.1882	22.7051	51.9785	22.7051	52.4029	22.7051	51.7811	22.7051	52.6148	22.7051	51.6021	22.7051	52.8158	22.7051	51.4458	22.7051	52.998	22.7051	51.3151	22.7051	53.1542	22.7051	51.211	22.7051	53.2781	22.7051	51.1335	22.7051	53.3651	22.7051	51.0823	22.7051	53.4123	22.7051	51.0575	22.7051	53.4195	22.7051	51.0606	22.7051	53.3884	22.7051	51.0941	22.7051	53.323	22.7051	51.1614	22.7051	53.2278	22.7051	51.2648	22.7051	53.1073	22.7051	51.4048	22.7051	52.9647	22.7051	51.5779	22.7051	52.8019	22.7051	51.7767	22.7051	52.6201	22.7051	51.9909	22.7051	52.4211	22.7051	52.209
23.4375	55.6858	23.4375	55.5156	23.4375	55.848	23.4375	55.3412	23.4375	55.9982	23.4375	55.1666	23.4375	56.1324	23.4375	54.9954	23.4375	56.2469	23.4375	54.8313	23.4375	56.3382	23.4375	54.6778	23.4375	56.4033	23.4375	54.5386	23.4375	56.4397	23.4375	54.4179	23.4375	56.446	23.4375	54.3202	23.4375	56.4217	23.4375	54.2512	23.4375	56.3674	23.4375	54.2168	23.4375	56.2845	23.4375	54.2225	23.4375	56.1748	23.4375	54.2725	23.4375	56.0405	23.4375	54.3678	23.4375	55.8836	23.4375	54.5056	23.4375	55.7063	23.4375	54.6787	23.4375	55.5115	23.4375	54.8771	23.4375	55.3035	23.4375	55.0891
24.1699	55.0169	24.1699	54.9306	24.1699	55.0911	24.1699	54.8333	24.1699	55.1519	24.1699	54.7261	24.1699	55.1979	24.1699	54.61	24.1699	55.2278	24.1699	54.4865	24.1699	55.24	24.1699	54.3571	24.1699	55.2332	24.1699	54.224	24.1699	55.2063	24.1699	54.0902	24.1699	55.1588	24.1699	53.9599	24.1699	55.0907	24.1699	53.8385	24.1699	55.0028	24.1699	53.7326	24.1699	54.8964	24.1699	53.6498	24.1699	54.7736	24.1699	53.5973	24.1699	54.6369	24.1699	53.581	24.1699	54.4895	24.1699	53.6038	24.1699	54.3351	24.1699	53.6651	24.1699	54.1785	24.1699	53.7607	24.1699	54.0256	24.1699	53.8836
25.6348	53.1169	25.6348	53.0311	25.6348	53.2225	25.6348	52.9652	25.6348	53.3457	25.6348	52.9174	25.6348	53.4823	25.6348	52.8848	25.6348	53.6261	25.6348	52.8643	25.6348	53.7699	25.6348	52.8529	25.6348	53.9058	25.6348	52.8485	25.6348	54.0261	25.6348	52.85	25.6348	54.1239	25.6348	52.8576	25.6348	54.1934	25.6348	52.8723	25.6348	54.2301	25.6348	52.8962	25.6348	54.2317	25.6348	52.9317	25.6348	54.1977	25.6348	52.9816	25.6348	54.13	25.6348	53.048	25.6348	54.0327	25.6348	53.1326	25.6348	53.912	25.6348	53.2356	25.6348	53.7757	25.6348	53.3559	25.6348	53.6322	25.6348	53.4898
26.3672	55.0423	26.3672	54.8726	26.3672	55.2252	26.3672	54.7215	26.3672	55.4139	26.3672	54.5931	26.3672	55.6006	26.3672	54.4893	26.3672	55.7771	26.3672	54.4101	26.3672	55.9356	26.3672	54.3543	26.3672	56.0692	26.3672	54.3198	26.3672	56.1717	26.3672	54.3045	26.3672	56.2382	26.3672	54.306	26.3672	56.2654	26.3672	54.3229	26.3672	56.2514	26.3672	54.3543	26.3672	56.196	26.3672	54.4	26.3672	56.1011	26.3672	54.4613	26.3672	55.9708	26.3672	54.5399	26.3672	55.8116	26.3672	54.6386	26.3672	55.6318	26.3672	54.7594	26.3672	55.4412	26.3672	54.9032	26.3672	55.2502	26.3672	55.0684
27.0996	57.6447	27.0996	57.4999	27.0996	57.7922	27.0996	57.3629	27.0996	57.9366	27.0996	57.238	27.0996	58.072	27.0996	57.128	27.0996	58.1926	27.0996	57.0346	27.0996	58.2934	27.0996	56.9582	27.0996	58.3697	27.0996	56.8985	27.0996	58.418	27.0996	56.8544	27.0996	58.4355	27.0996	56.8247	27.0996	58.4208	27.0996	56.8087	27.0996	58.3735	27.0996	56.8056	27.0996	58.2947	27.0996	56.816	27.0996	58.187	27.0996	56.841	27.0996	58.0546	27.0996	56.883	27.0996	57.9034	27.0996	56.9446	27.0996	57.7406	27.0996	57.0283	27.0996	57.5744	27.0996	57.1354	27.0996	57.4133	27.0996	57.265
27.832	59.2951	27.832	59.1748	27.832	59.4144	27.832	59.0576	27.832	59.5282	27.832	58.947	27.832	59.6318	27.832	58.8456	27.832	59.7208	27.832	58.7547	27.832	59.7912	27.832	58.675	27.832	59.8397	27.832	58.6064	27.832	59.8635	27.832	58.5485	27.832	59.8606	27.832	58.5007	27.832	59.8302	27.832	58.463	27.832	59.7722	27.832	58.4358	27.832	59.688	27.832	58.4206	27.832	59.5801	27.832	58.4198	27.832	59.4526	27.832	58.4367	27.832	59.3104	27.832	58.4747	27.832	59.1601	27.832	58.5365	27.832	59.0088	27.832	58.6233	27.832	58.8643	27.832	58.7338
29.2969	61.6336	29.2969	61.52	29.2969	61.74	29.2969	61.4033	29.2969	61.8356	29.2969	61.2869	29.2969	61.9165	29.2969	61.1738	29.2969	61.9795	29.2969	61.0664	29.2969	62.0217	29.2969	60.9666	29.2969	62.0409	29.2969	60.8755	29.2969	62.0355	29.2969	60.794	29.2969	62.005	29.2969	60.7229	29.2969	61.9496	29.2969	60.6633	29.2969	61.8709	29.2969	60.6168	29.2969	61.7712	29.2969	60.5856	29.2969	61.6539	29.2969	60.5724	29.2969	61.5232	29.2969	60.58	29.2969	61.3837	29.2969	60.6107	29.2969	61.2408	29.2969	60.6659	29.2969	61.0998	29.2969	60.7453	29.2969	60.9666	29.2969	60.8468
30.0293	62.5457	30.0293	62.4505	30.0293	62.6311	30.0293	62.3484	30.0293	62.7038	30.0293	62.2424	30.0293	62.761	30.0293	62.135	30.0293	62.8003	30.0293	62.0287	30.0293	62.8196	30.0293	61.9253	30.0293	62.8174	30.0293	61.8267	30.0293	62.7929	30.0293	61.7342	30.0293	62.746	30.0293	61.6497	30.0293	62.6775	30.0293	61.5749	30.0293	62.5893	30.0293	61.5122	30.0293	62.4841	30.0293	61.4645	30.0293	62.3655	30.0293	61.4346	30.0293	62.2377	30.0293	61.4256	30.0293	62.1052	30.0293	61.4397	30.0293	61.9728	30.0293	61.4781	30.0293	61.8454	30.0293	61.5405	30.0293	61.7278	30.0293	61.6248
31.4941	63.456	31.4941	63.3814	31.4941	63.5177	31.4941	63.296	31.4941	63.5648	31.4941	63.2015	31.4941	63.5958	31.4941	63.0998	31.4941	63.6091	31.4941	62.9932	31.4941	63.6035	31.4941	62.8835	31.4941	63.5782	31.4941	62.7729	31.4941	63.5327	31.4941	62.6638	31.4941	63.4674	31.4941	62.5587	31.4941	63.383	31.4941	62.4604	31.4941	63.2816	31.4941	62.3723	31.4941	63.1658	31.4941	62.2982	31.4941	63.0392	31.4941	62.242	31.4941	62.9063	31.4941	62.2072	31.4941	62.7718	31.4941	62.1968	31.4941	62.6409	31.4941	62.2125	31.4941	62.519	31.4941	62.2546	31.4941	62.4111	31.4941	62.3217
32.2266	63.5537	32.2266	63.4764	32.2266	63.62	32.2266	63.3897	32.2266	63.6739	32.2266	63.2952	32.2266	63.7139	32.2266	63.1946	32.2266	63.7383	32.2266	63.0896	32.2266	63.7458	32.2266	62.9823	32.2266	63.7351	32.2266	62.8749	32.2266	63.7053	32.2266	62.7698	32.2266	63.6559	32.2266	62.6701	32.2266	63.5873	32.2266	62.5789	32.2266	63.5005	32.2266	62.5	32.2266	63.3975	32.2266	62.4371	32.2266	63.281	32.2266	62.3941	32.2266	63.1549	32.2266	62.3742	32.2266	63.0235	32.2266	62.3796	32.2266	62.892	32.2266	62.4113	32.2266	62.7656	32.2266	62.4686	32.2266	62.6497	32.2266	62.5492
33.6914	64.383	33.6914	64.3145	33.6914	64.4496	33.6914	64.2455	33.6914	64.5124	33.6914	64.1771	33.6914	64.5696	33.6914	64.1104	33.6914	64.6188	33.6914	64.0463	33.6914	64.6578	33.6914	63.9859	33.6914	64.6842	33.6914	63.9301	33.6914	64.696	33.6914	63.8802	33.6914	64.6918	33.6914	63.8375	33.6914	64.6706	33.6914	63.8035	33.6914	64.6324	33.6914	63.7796	33.6914	64.5779	33.6914	63.7673	33.6914	64.5089	33.6914	63.7679	33.6914	64.4282	33.6914	63.7825	33.6914	64.3392	33.6914	63.8116	33.6914	64.2461	33.6914	63.8553	33.6914	64.1531	33.6914	63.913	33.6914	64.0643	33.6914	63.9833
34.4238	65.0082	34.4238	64.9399	34.4238	65.0763	34.4238	64.873	34.4238	65.1422	34.4238	64.8088	34.4238	65.2035	34.4238	64.7481	34.4238	65.2575	34.4238	64.6918	34.4238	65.3016	34.4238	64.6403	34.4238	65.3332	34.4238	64.5943	34.4238	65.3501	34.4238	64.5543	34.4238	65.3505	34.4238	64.521	34.4238	65.3332	34.4238	64.4951	34.4238	65.2981	34.4238	64.4775	34.4238	65.2458	34.4238	64.4691	34.4238	65.1783	34.4238	64.4709	34.4238	65.0985	34.4238	64.4841	34.4238	65.0102	34.4238	64.5096	34.4238	64.9182	34.4238	64.5481	34.4238	64.8271	34.4238	64.6	34.4238	64.7415	34.4238	64.665
35.8887	66.8009	35.8887	66.7364	35.8887	66.8652	35.8887	66.6738	35.8887	66.9271	35.8887	66.6144	35.8887	66.984	35.8887	66.5594	35.8887	67.0333	35.8887	66.5095	35.8887	67.0724	35.8887	66.465	35.8887	67.099	35.8887	66.426	35.8887	67.1111	35.8887	66.3928	35.8887	67.1073	35.8887	66.3653	35.8887	67.0868	35.8887	66.3436	35.8887	67.0497	35.8887	66.328	35.8887	66.997	35.8887	66.319	35.8887	66.9306	35.8887	66.3173	35.8887	66.8536	35.8887	66.3239	35.8887	66.77	35.8887	66.3403	35.8887	66.6844	35.8887	66.3678	35.8887	66.6017	35.8887	66.4078	35.8887	66.526	35.8887	66.4607
37.3535	68.2801	37.3535	68.2217	37.3535	68.3362	37.3535	68.1629	37.3535	68.3877	37.3535	68.1054	37.3535	68.4322	37.3535	68.0507	37.3535	68.4674	37.3535	67.9996	37.3535	68.4914	37.3535	67.9527	37.3535	68.5024	37.3535	67.9104	37.3535	68.4992	37.3535	67.8726	37.3535	68.481	37.3535	67.8394	37.3535	68.4479	37.3535	67.8108	37.3535	68.4004	37.3535	67.7869	37.3535	68.3401	37.3535	67.768	37.3535	68.2691	37.3535	67.755	37.3535	68.1907	37.3535	67.749	37.3535	68.1088	37.3535	67.7519	37.3535	68.0278	37.3535	67.7657	37.3535	67.9523	37.3535	67.7921	37.3535	67.8861	37.3535	67.8322
38.8184	69.2709	38.8184	69.2154	38.8184	69.3224	38.8184	69.1578	38.8184	69.3678	38.8184	69.1	38.8184	69.405	38.8184	69.0432	38.8184	69.4322	38.8184	68.9887	38.8184	69.4475	38.8184	68.9373	38.8184	69.4497	38.8184	68.8896	38.8184	69.4378	38.8184	68.8459	38.8184	69.4117	38.8184	68.8064	38.8184	69.3715	38.8184	68.7713	38.8184	69.3183	38.8184	68.741	38.8184	69.2537	38.8184	68.716	38.8184	69.1802	38.8184	68.6973	38.8184	69.1009	38.8184	68.6862	38.8184	69.0197	38.8184	68.6846	38.8184	68.9405	38.8184	68.6943	38.8184	68.8676	38.8184	68.7171	38.8184	68.8045	38.8184	68.7538
39.5508	69.821	39.5508	69.7669	39.5508	69.8712	39.5508	69.7109	39.5508	69.9155	39.5508	69.6545	39.5508	69.9516	39.5508	69.5993	39.5508	69.9777	39.5508	69.5463	39.5508	69.9921	39.5508	69.4962	39.5508	69.9932	39.5508	69.4496	39.5508	69.9804	39.5508	69.4068	39.5508	69.9532	39.5508	69.368	39.5508	69.9123	39.5508	69.3333	39.5508	69.8586	39.5508	69.3032	39.5508	69.794	39.5508	69.2782	39.5508	69.7212	39.5508	69.2592	39.5508	69.6433	39.5508	69.2476	39.5508	69.5641	39.5508	69.2451	39.5508	69.4875	39.5508	69.2536	39.5508	69.4174	39.5508	69.2746	39.5508	69.3572	39.5508	69.3092
41.0156	70.9411	41.0156	70.8913	41.0156	70.9861	41.0156	70.8386	41.0156	71.0242	41.0156	70.7851	41.0156	71.0532	41.0156	70.7324	41.0156	71.0716	41.0156	70.682	41.0156	71.078	41.0156	70.6348	41.0156	71.0714	41.0156	70.5915	41.0156	71.0518	41.0156	70.5526	41.0156	71.0194	41.0156	70.5182	41.0156	70.9753	41.0156	70.4884	41.0156	70.9213	41.0156	70.463	41.0156	70.8596	41.0156	70.4423	41.0156	70.793	41.0156	70.4266	41.0156	70.7245	41.0156	70.4167	41.0156	70.6574	41.0156	70.4136	41.0156	70.5948	41.0156	70.4185	41.0156	70.5394	41.0156	70.4328	41.0156	70.4932	41.0156	70.4576
42.4805	71.6673	42.4805	71.6103	42.4805	71.718	42.4805	71.549	42.4805	71.7605	42.4805	71.4852	42.4805	71.793	42.4805	71.4209	42.4805	71.8141	42.4805	71.3576	42.4805	71.8223	42.4805	71.2968	42.4805	71.817	42.4805	71.2396	42.4805	71.7977	42.4805	71.187	42.4805	71.7645	42.4805	71.1399	42.4805	71.718	42.4805	71.0988	42.4805	71.6596	42.4805	71.0643	42.4805	71.5911	42.4805	71.0372	42.4805	71.5151	42.4805	71.0183	42.4805	71.4346	42.4805	71.0086	42.4805	71.3531	42.4805	71.0095	42.4805	71.2742	42.4805	71.0221	42.4805	71.2015	42.4805	71.0476	42.4805	71.1381	42.4805	71.0864
43.9453	72.3951	43.9453	72.3429	43.9453	72.4402	43.9453	72.2855	43.9453	72.4768	43.9453	72.2246	43.9453	72.5031	43.9453	72.1619	43.9453	72.5178	43.9453	72.0988	43.9453	72.5198	43.9453	72.0368	43.9453	72.5083	43.9453	71.9773	43.9453	72.4831	43.9453	71.9213	43.9453	72.4444	43.9453	71.8698	43.9453	72.393	43.9453	71.8236	43.9453	72.3306	43.9453	71.7837	43.9453	72.2591	43.9453	71.7509	43.9453	72.1814	43.9453	71.7263	43.9453	72.1005	43.9453	71.7109	43.9453	72.02	43.9453	71.7063	43.9453	71.9434	43.9453	71.7136	43.9453	71.8741	43.9453	71.7339	43.9453	71.8148	43.9453	71.7677
45.4102	72.9278	45.4102	72.875	45.4102	72.9745	45.4102	72.8178	45.4102	73.0134	45.4102	72.7579	45.4102	73.0428	45.4102	72.6969	45.4102	73.0613	45.4102	72.6363	45.4102	73.0678	45.4102	72.5776	45.4102	73.0614	45.4102	72.5221	45.4102	73.0418	45.4102	72.4709	45.4102	73.0092	45.4102	72.4251	45.4102	72.9645	45.4102	72.3855	45.4102	72.9089	45.4102	72.3528	45.4102	72.8446	45.4102	72.328	45.4102	72.7739	45.4102	72.3116	45.4102	72.6999	45.4102	72.3046	45.4102	72.6256	45.4102	72.3075	45.4102	72.5542	45.4102	72.3214	45.4102	72.4884	45.4102	72.3465	45.4102	72.4308	45.4102	72.3831
47.6074	74.022	47.6074	73.9739	47.6074	74.0639	47.6074	73.9212	47.6074	74.0979	47.6074	73.8657	47.6074	74.1224	47.6074	73.809	47.6074	74.1362	47.6074	73.7527	47.6074	74.1383	47.6074	73.6983	47.6074	74.1281	47.6074	73.647	47.6074	74.1055	47.6074	73.6	47.6074	74.0711	47.6074	73.5583	47.6074	74.026	47.6074	73.5224	47.6074	73.9717	47.6074	73.4931	47.6074	73.9106	47.6074	73.4708	47.6074	73.8452	47.6074	73.456	47.6074	73.7783	47.6074	73.4491	47.6074	73.7127	47.6074	73.4505	47.6074	73.6511	47.6074	73.4607	47.6074	73.5956	47.6074	73.4803	47.6074	73.548	47.6074	73.5094
49.0723	74.6925	49.0723	74.6455	49.0723	74.7324	49.0723	74.5931	49.0723	74.7635	49.0723	74.5371	49.0723	74.7846	49.0723	74.4792	49.0723	74.7943	49.0723	74.4211	49.0723	74.7919	49.0723	74.3643	49.0723	74.777	49.0723	74.3102	49.0723	74.7498	49.0723	74.2601	49.0723	74.711	49.0723	74.2151	49.0723	74.6619	49.0723	74.1759	49.0723	74.6043	49.0723	74.1434	49.0723	74.5405	49.0723	74.1179	49.0723	74.4732	49.0723	74.1002	49.0723	74.4053	49.0723	74.0904	49.0723	74.3395	49.0723	74.0893	49.0723	74.2784	49.0723	74.0971	49.0723	74.2241	49.0723	74.1144	49.0723	74.1781	49.0723	74.1414
50.5371	75.233	50.5371	75.1889	50.5371	75.2695	50.5371	75.1388	50.5371	75.2969	50.5371	75.0846	50.5371	75.3137	50.5371	75.0279	50.5371	75.319	50.5371	74.9706	50.5371	75.3122	50.5371	74.9141	50.5371	75.293	50.5371	74.8599	50.5371	75.2618	50.5371	74.8092	50.5371	75.2196	50.5371	74.7632	50.5371	75.1677	50.5371	74.7225	50.5371	75.1081	50.5371	74.688	50.5371	75.0434	50.5371	74.6602	50.5371	74.9762	50.5371	74.6396	50.5371	74.9094	50.5371	74.6267	50.5371	74.8456	50.5371	74.6219	50.5371	74.7874	50.5371	74.6259	50.5371	74.7366	50.5371	74.6391	50.5371	74.6945	50.5371	74.6619
52.7344	75.8394	52.7344	75.7954	52.7344	75.8754	52.7344	75.7453	52.7344	75.9019	52.7344	75.6907	52.7344	75.9177	52.7344	75.6337	52.7344	75.9218	52.7344	75.5758	52.7344	75.9138	52.7344	75.5189	52.7344	75.8934	52.7344	75.4644	52.7344	75.8613	52.7344	75.4137	52.7344	75.8183	52.7344	75.3677	52.7344	75.7661	52.7344	75.3273	52.7344	75.7065	52.7344	75.2933	52.7344	75.6422	52.7344	75.266	52.7344	75.5758	52.7344	75.246	52.7344	75.51	52.7344	75.2336	52.7344	75.4476	52.7344	75.2292	52.7344	75.3908	52.7344	75.2333	52.7344	75.3413	52.7344	75.2464	52.7344	75.3004	52.7344	75.2687
54.1992	76.3388	54.1992	76.2977	54.1992	76.3725	54.1992	76.2507	54.1992	76.3971	54.1992	76.1996	54.1992	76.4116	54.1992	76.1461	54.1992	76.4151	54.1992	76.0919	54.1992	76.4071	54.1992	76.0388	54.1992	76.3877	54.1992	75.9881	54.1992	76.3571	54.1992	75.941	54.1992	76.3166	54.1992	75.8986	54.1992	76.2674	54.1992	75.8616	54.1992	76.2117	54.1992	75.8305	54.1992	76.1517	54.1992	75.8059	54.1992	76.09	54.1992	75.788	54.1992	76.0293	54.1992	75.777	54.1992	75.9719	54.1992	75.7733	54.1992	75.9199	54.1992	75.7771	54.1992	75.8749	54.1992	75.789	54.1992	75.8378	54.1992	75.8091
56.3965	76.9603	56.3965	76.9204	56.3965	76.9927	56.3965	76.8745	56.3965	77.016	56.3965	76.8244	56.3965	77.0292	56.3965	76.7719	56.3965	77.0315	56.3965	76.7187	56.3965	77.0225	56.3965	76.6666	56.3965	77.0023	56.3965	76.617	56.3965	76.9713	56.3965	76.5712	56.3965	76.9307	56.3965	76.5302	56.3965	76.882	56.3965	76.4948	56.3965	76.8272	56.3965	76.4654	56.3965	76.7687	56.3965	76.4424	56.3965	76.7092	56.3965	76.4259	56.3965	76.651	56.3965	76.4159	56.3965	76.5965	56.3965	76.4126	56.3965	76.5476	56.3965	76.4162	56.3965	76.5057	56.3965	76.4269	56.3965	76.4715	56.3965	76.4453
58.5938	77.6489	58.5938	77.6115	58.5938	77.6797	58.5938	77.5691	58.5938	77.7025	58.5938	77.5234	58.5938	77.7163	58.5938	77.476	58.5938	77.7204	58.5938	77.4287	58.5938	77.7144	58.5938	77.3831	58.5938	77.6984	58.5938	77.3406	58.5938	77.6728	58.5938	77.3023	58.5938	77.6388	58.5938	77.2691	58.5938	77.5978	58.5938	77.2415	58.5938	77.5516	58.5938	77.2197	58.5938	77.5022	58.5938	77.2038	58.5938	77.4519	58.5938	77.1937	58.5938	77.4029	58.5938	77.1891	58.5938	77.3568	58.5938	77.19	58.5938	77.3153	58.5938	77.1963	58.5938	77.2794	58.5938	77.2081	58.5938	77.2494	58.5938	77.2257
60.0586	77.9019	60.0586	77.864	60.0586	77.9333	60.0586	77.8209	60.0586	77.9566	60.0586	77.7744	60.0586	77.9709	60.0586	77.7264	60.0586	77.9756	60.0586	77.6787	60.0586	77.9704	60.0586	77.6332	60.0586	77.9556	60.0586	77.5913	60.0586	77.9319	60.0586	77.5545	60.0586	77.9004	60.0586	77.5237	60.0586	77.8626	60.0586	77.4995	60.0586	77.8203	60.0586	77.4822	60.0586	77.7756	60.0586	77.4715	60.0586	77.7304	60.0586	77.4672	60.0586	77.6865	60.0586	77.4686	60.0586	77.6453	60.0586	77.4752	60.0586	77.6079	60.0586	77.4865	60.0586	77.5747	60.0586	77.5021	60.0586	77.5461	60.0586	77.5219
62.2559	78.4943	62.2559	78.4563	62.2559	78.5247	62.2559	78.4121	62.2559	78.5462	62.2559	78.3636	62.2559	78.5578	62.2559	78.3125	62.2559	78.559	62.2559	78.2609	62.2559	78.5494	62.2559	78.2105	62.2559	78.5294	62.2559	78.1631	62.2559	78.4997	62.2559	78.12	62.2559	78.4616	62.2559	78.0826	62.2559	78.4166	62.2559	78.0515	62.2559	78.3669	62.2559	78.0271	62.2559	78.3145	62.2559	78.0095	62.2559	78.2618	62.2559	77.9984	62.2559	78.211	62.2559	77.9936	62.2559	78.1638	62.2559	77.9946	62.2559	78.1217	62.2559	78.0013	62.2559	78.0854	62.2559	78.0135	62.2559	78.0553	62.2559	78.0314
64.4531	79.0298	64.4531	78.9924	64.4531	79.0592	64.4531	78.9488	64.4531	79.0796	64.4531	78.9007	64.4531	79.09	64.4531	78.85	64.4531	79.0897	64.4531	78.7986	64.4531	79.0789	64.4531	78.7486	64.4531	79.0578	64.4531	78.7016	64.4531	79.0273	64.4531	78.6592	64.4531	78.9887	64.4531	78.6226	64.4531	78.9438	64.4531	78.5926	64.4531	78.8946	64.4531	78.5693	64.4531	78.8434	64.4531	78.5529	64.4531	78.7925	64.4531	78.543	64.4531	78.7438	64.4531	78.539	64.4531	78.699	64.4531	78.5405	64.4531	78.6594	64.4531	78.5471	64.4531	78.6255	64.4531	78.5587	64.4531	78.5976	64.4531	78.5754
66.6504	79.5771	66.6504	79.5412	66.6504	79.6046	66.6504	79.4984	66.6504	79.6225	66.6504	79.4505	66.6504	79.6299	66.6504	79.3994	66.6504	79.6263	66.6504	79.3473	66.6504	79.6118	66.6504	79.296	66.6504	79.587	66.6504	79.2474	66.6504	79.5527	66.6504	79.2031	66.6504	79.5104	66.6504	79.1643	66.6504	79.4621	66.6504	79.1318	66.6504	79.4099	66.6504	79.106	66.6504	79.3562	66.6504	79.0868	66.6504	79.3034	66.6504	79.0739	66.6504	79.2536	66.6504	79.0668	66.6504	79.2085	66.6504	79.0651	66.6504	79.1693	66.6504	79.0685	66.6504	79.1366	66.6504	79.077	66.6504	79.1106	66.6504	79.0908
69.5801	80.249	69.5801	80.2134	69.5801	80.2762	69.5801	80.1708	69.5801	80.2936	69.5801	80.1231	69.5801	80.3004	69.5801	80.0723	69.5801	80.2962	69.5801	80.0206	69.5801	80.2813	69.5801	79.9699	69.5801	80.256	69.5801	79.9223	69.5801	80.2216	69.5801	79.8793	69.5801	80.1796	69.5801	79.842	69.5801	80.1319	69.5801	79.8113	69.5801	80.0807	69.5801	79.7873	69.5801	80.0285	69.5801	79.7698	69.5801	79.9775	69.5801	79.7584	69.5801	79.9297	69.5801	79.7524	69.5801	79.8867	69.5801	79.7514	69.5801	79.8496	69.5801	79.7549	69.5801	79.8189	69.5801	79.763	69.5801	79.7945	69.5801	79.7761
71.7773	80.8362	71.7773	80.7989	71.7773	80.8646	71.7773	80.7543	71.7773	80.8829	71.7773	80.7044	71.7773	80.8903	71.7773	80.6512	71.7773	80.8866	71.7773	80.5971	71.7773	80.8719	71.7773	80.5444	71.7773	80.8471	71.7773	80.4951	71.7773	80.8132	71.7773	80.4511	71.7773	80.7719	71.7773	80.4137	71.7773	80.7253	71.7773	80.3839	71.7773	80.6756	71.7773	80.3617	71.7773	80.6251	71.7773	80.3471	71.7773	80.5759	71.7773	80.3394	71.7773	80.5299	71.7773	80.3376	71.7773	80.4884	71.7773	80.3409	71.7773	80.4523	71.7773	80.3486	71.7773	80.4217	71.7773	80.3604	71.7773	80.3965	71.7773	80.3763
73.9746	81.2385	73.9746	81.2023	73.9746	81.2656	73.9746	81.1585	73.9746	81.2825	73.9746	81.1091	73.9746	81.2886	73.9746	81.0561	73.9746	81.2835	73.9746	81.002	73.9746	81.2677	73.9746	80.949	73.9746	81.242	73.9746	80.8994	73.9746	81.2076	73.9746	80.855	73.9746	81.1664	73.9746	80.8172	73.9746	81.1203	73.9746	80.7871	73.9746	81.0715	73.9746	80.7649	73.9746	81.0224	73.9746	80.7505	73.9746	80.9748	73.9746	80.7431	73.9746	80.9305	73.9746	80.7418	73.9746	80.8907	73.9746	80.7458	73.9746	80.8561	73.9746	80.7541	73.9746	80.8266	73.9746	80.7663	73.9746	80.8022	73.9746	80.7822
76.9043	81.8227	76.9043	81.7865	76.9043	81.8491	76.9043	81.7421	76.9043	81.8646	76.9043	81.6913	76.9043	81.8686	76.9043	81.6364	76.9043	81.8612	76.9043	81.5798	76.9043	81.8429	76.9043	81.524	76.9043	81.8146	76.9043	81.4715	76.9043	81.7777	76.9043	81.4242	76.9043	81.7343	76.9043	81.3839	76.9043	81.6863	76.9043	81.3515	76.9043	81.6361	76.9043	81.3275	76.9043	81.5858	76.9043	81.3117	76.9043	81.5375	76.9043	81.3034	76.9043	81.4927	76.9043	81.3017	76.9043	81.4525	76.9043	81.3055	76.9043	81.4176	76.9043	81.3139	76.9043	81.3878	76.9043	81.3263	76.9043	81.363	76.9043	81.3427
79.834	82.4215	79.834	82.3915	79.834	82.442	79.834	82.3534	79.834	82.4519	79.834	82.3092	79.834	82.451	79.834	82.2612	79.834	82.4395	79.834	82.2118	79.834	82.4181	79.834	82.1637	79.834	82.3882	79.834	82.1193	79.834	82.3517	79.834	82.0807	79.834	82.3109	79.834	82.0494	79.834	82.2682	79.834	82.0263	79.834	82.226	79.834	82.0114	79.834	82.1865	79.834	82.0041	79.834	82.1514	79.834	82.0032	79.834	82.1216	79.834	82.007	79.834	82.0975	79.834	82.014	79.834	82.0786	79.834	82.0226	79.834	82.0638	79.834	82.0319	79.834	82.0518	79.834	82.0415
82.7637	83.1155	82.7637	83.085	82.7637	83.1339	82.7637	83.044	82.7637	83.1392	82.7637	82.9944	82.7637	83.131	82.7637	82.9389	82.7637	83.1097	82.7637	82.8801	82.7637	83.0763	82.7637	82.8209	82.7637	83.0324	82.7637	82.7642	82.7637	82.9802	82.7637	82.7125	82.7637	82.9224	82.7637	82.6676	82.7637	82.8622	82.7637	82.6307	82.7637	82.8025	82.7637	82.6023	82.7637	82.7465	82.7637	82.582	82.7637	82.6966	82.7637	82.5686	82.7637	82.6545	82.7637	82.5607	82.7637	82.621	82.7637	82.5569	82.7637	82.5961	82.7637	82.556	82.7637	82.5787	82.7637	82.5572	82.7637	82.5675	82.7637	82.5608
85.6934	83.7033	85.6934	83.672	85.6934	83.7205	85.6934	83.6279	85.6934	83.7224	85.6934	83.5731	85.6934	83.709	85.6934	83.51	85.6934	83.6804	85.6934	83.4414	85.6934	83.6377	85.6934	83.3702	85.6934	83.5826	85.6934	83.2995	85.6934	83.5175	85.6934	83.2319	85.6934	83.4452	85.6934	83.1698	85.6934	83.3691	85.6934	83.1152	85.6934	83.2928	85.6934	83.0689	85.6934	83.2197	85.6934	83.0315	85.6934	83.153	85.6934	83.0025	85.6934	83.0951	85.6934	82.9812	85.6934	83.0474	85.6934	82.9666	85.6934	83.0106	85.6934	82.9579	85.6934	82.9841	85.6934	82.9548	85.6934	82.9668	85.6934	82.9575
88.623	84.2269	88.623	84.1995	88.623	84.2427	88.623	84.1617	88.623	84.2459	88.623	84.1152	88.623	84.236	88.623	84.0618	88.623	84.213	88.623	84.0036	88.623	84.1772	88.623	83.9425	88.623	84.1297	88.623	83.8805	88.623	84.0719	88.623	83.8194	88.623	84.0057	88.623	83.7606	88.623	83.9337	88.623	83.7053	88.623	83.8587	88.623	83.6545	88.623	83.7837	88.623	83.6088	88.623	83.7119	88.623	83.5687	88.623	83.6462	88.623	83.5348	88.623	83.5893	88.623	83.5076	88.623	83.5431	88.623	83.4881	88.623	83.5088	88.623	83.4774	88.623	83.4867	88.623	83.4765
91.5527	84.2676	91.5527	84.2376	91.5527	84.2915	91.5527	84.2032	91.5527	84.3086	91.5527	84.1666	91.5527	84.3186	91.5527	84.1303	91.5527	84.322	91.5527	84.0971	91.5527	84.3198	91.5527	84.0699	91.5527	84.3136	91.5527	84.0509	91.5527	84.3049	91.5527	84.042	91.5527	84.2958	91.5527	84.0439	91.5527	84.2878	91.5527	84.0565	91.5527	84.2822	91.5527	84.0785	91.5527	84.2796	91.5527	84.1077	91.5527	84.2803	91.5527	84.1413	91.5527	84.2833	91.5527	84.1762	91.5527	84.2874	91.5527	84.2095	91.5527	84.2909	91.5527	84.2386	91.5527	84.2917	91.5527	84.2619	91.5527	84.288	91.5527	84.2784
94.4824	84.9544	94.4824	84.9227	94.4824	84.9731	94.4824	84.8796	94.4824	84.9778	94.4824	84.8281	94.4824	84.9684	94.4824	84.7712	94.4824	84.9458	94.4824	84.7128	94.4824	84.912	94.4824	84.657	94.4824	84.8696	94.4824	84.6074	94.4824	84.822	94.4824	84.5674	94.4824	84.7731	94.4824	84.5395	94.4824	84.7267	94.4824	84.5247	94.4824	84.6864	94.4824	84.5226	94.4824	84.6548	94.4824	84.5316	94.4824	84.6334	94.4824	84.5487	94.4824	84.622	94.4824	84.5701	94.4824	84.6192	94.4824	84.592	94.4824	84.6222	94.4824	84.6108	94.4824	84.6274	94.4824	84.6241	94.4824	84.6312	94.4824	84.6308
98.1445	85.5965	98.1445	85.5673	98.1445	85.6114	98.1445	85.5254	98.1445	85.6111	98.1445	85.4728	98.1445	85.5955	98.1445	85.4122	98.1445	85.5652	98.1445	85.3466	98.1445	85.5214	98.1445	85.2793	98.1445	85.4663	98.1445	85.2134	98.1445	85.4024	98.1445	85.1518	98.1445	85.3329	98.1445	85.0969	98.1445	85.2615	98.1445	85.0502	98.1445	85.1915	98.1445	85.0125	98.1445	85.1265	98.1445	84.9835	98.1445	85.0693	98.1445	84.9623	98.1445	85.0218	98.1445	84.9475	98.1445	84.9848	98.1445	84.9375	98.1445	84.9582	98.1445	84.9311	98.1445	84.941	98.1445	84.9277	98.1445	84.9313	98.1445	84.9274
101.807	86.0381	101.807	86.0083	101.807	86.0545	101.807	85.9666	101.807	86.0566	101.807	85.9153	101.807	86.0444	101.807	85.8573	101.807	86.0185	101.807	85.7959	101.807	85.9806	101.807	85.7343	101.807	85.9327	101.807	85.676	101.807	85.8777	101.807	85.6238	101.807	85.8189	101.807	85.58	101.807	85.7595	101.807	85.5458	101.807	85.703	101.807	85.5215	101.807	85.652	101.807	85.5064	101.807	85.6088	101.807	85.4989	101.807	85.5744	101.807	85.4969	101.807	85.5489	101.807	85.4983	101.807	85.5314	101.807	85.5013	101.807	85.5201	101.807	85.5048	101.807	85.5131	101.807	85.5085
105.469	86.4041	105.469	86.373	105.469	86.4212	105.469	86.3295	105.469	86.4234	105.469	86.276	105.469	86.4112	105.469	86.2157	105.469	86.3856	105.469	86.1523	105.469	86.3485	105.469	86.0898	105.469	86.3027	105.469	86.0322	105.469	86.2514	105.469	85.9828	105.469	86.1982	105.469	85.9444	105.469	86.1466	105.469	85.9184	105.469	86.0999	105.469	85.9047	105.469	86.0606	105.469	85.9023	105.469	86.0299	105.469	85.9086	105.469	86.0081	105.469	85.9208	105.469	85.9942	105.469	85.9355	105.469	85.9861	105.469	85.9499	105.469	85.9812	105.469	85.9621	105.469	85.9769	105.469	85.971
109.131	86.8604	109.131	86.8352	109.131	86.8698	109.131	86.7958	109.131	86.8627	109.131	86.7444	109.131	86.8395	109.131	86.6843	109.131	86.8013	109.131	86.6191	109.131	86.7504	109.131	86.5528	109.131	86.6897	109.131	86.4896	109.131	86.623	109.131	86.4331	109.131	86.5544	109.131	86.3862	109.131	86.4884	109.131	86.3507	109.131	86.4289	109.131	86.327	109.131	86.3794	109.131	86.3141	109.131	86.3419	109.131	86.3099	109.131	86.3173	109.131	86.3113	109.131	86.3045	109.131	86.3149	109.131	86.3012	109.131	86.3179	109.131	86.3042	109.131	86.3183	109.131	86.31	109.131	86.3154
112.793	87.1994	112.793	87.1761	112.793	87.2071	112.793	87.1389	112.793	87.1984	112.793	87.0905	112.793	87.1734	112.793	87.0338	112.793	87.1331	112.793	86.9727	112.793	87.0797	112.793	86.9109	112.793	87.016	112.793	86.8521	112.793	86.946	112.793	86.7997	112.793	86.8739	112.793	86.7561	112.793	86.8044	112.793	86.7226	112.793	86.7417	112.793	86.6993	112.793	86.6897	112.793	86.6849	112.793	86.6508	112.793	86.6771	112.793	86.6259	112.793	86.6731	112.793	86.6145	112.793	86.6699	112.793	86.6142	112.793	86.6652	112.793	86.6219	112.793	86.6574	112.793	86.6338	112.793	86.6465
116.455	87.3892	116.455	87.3549	116.455	87.408	116.455	87.3071	116.455	87.41	116.455	87.2489	116.455	87.3951	116.455	87.1839	116.455	87.3643	116.455	87.1165	116.455	87.3195	116.455	87.051	116.455	87.2634	116.455	86.9916	116.455	87.1999	116.455	86.9418	116.455	87.133	116.455	86.9041	116.455	87.0673	116.455	86.8794	116.455	87.0071	116.455	86.8671	116.455	86.956	116.455	86.865	116.455	86.9167	116.455	86.8701	116.455	86.8902	116.455	86.8785	116.455	86.876	116.455	86.8868	116.455	86.8722	116.455	86.8921	116.455	86.8756	116.455	86.8928	116.455	86.8824	116.455	86.8891
120.85	87.7225	120.85	87.6853	120.85	87.7416	120.85	87.632	120.85	87.7418	120.85	87.5654	120.85	87.7238	120.85	87.4896	120.85	87.6891	120.85	87.4094	120.85	87.6406	120.85	87.33	120.85	87.5817	120.85	87.2567	120.85	87.5169	120.85	87.1943	120.85	87.4508	120.85	87.1465	120.85	87.3881	120.85	87.1153	120.85	87.3327	120.85	87.1008	120.85	87.2877	120.85	87.1015	120.85	87.2545	120.85	87.1138	120.85	87.2329	120.85	87.1336	120.85	87.2212	120.85	87.1562	120.85	87.2163	120.85	87.1776	120.85	87.2145	120.85	87.1947	120.85	87.2122	120.85	87.2062
125.244	87.9796	125.244	87.9458	125.244	87.994	125.244	87.8943	125.244	87.9881	125.244	87.8284	125.244	87.9627	125.244	87.7522	125.244	87.9196	125.244	87.6708	125.244	87.8618	125.244	87.5897	125.244	87.7935	125.244	87.5145	125.244	87.7196	125.244	87.4504	125.244	87.6456	125.244	87.4013	125.244	87.577	125.244	87.3696	125.244	87.5185	125.244	87.3554	125.244	87.4737	125.244	87.3568	125.244	87.4442	125.244	87.3702	125.244	87.4295	125.244	87.3906	125.244	87.4271	125.244	87.413	125.244	87.4328	125.244	87.4327	125.244	87.4418	125.244	87.4461	125.244	87.4494	125.244	87.4515
129.639	88.0731	129.639	88.0308	129.639	88.0952	129.639	87.9702	129.639	88.0965	129.639	87.8943	129.639	88.0774	129.639	87.8069	129.639	88.0396	129.639	87.7131	129.639	87.9858	129.639	87.6183	129.639	87.9196	129.639	87.5285	129.639	87.8456	129.639	87.449	129.639	87.7688	129.639	87.3846	129.639	87.6941	129.639	87.3382	129.639	87.6261	129.639	87.3112	129.639	87.5682	129.639	87.3023	129.639	87.5224	129.639	87.3087	129.639	87.4889	129.639	87.326	129.639	87.466	129.639	87.3493	129.639	87.4508	129.639	87.374	129.639	87.4396	129.639	87.3964	129.639	87.4285	129.639	87.4146
134.033	88.1392	134.033	88.123	134.033	88.1353	134.033	88.0885	134.033	88.111	134.033	88.0385	134.033	88.0673	134.033	87.9769	134.033	88.0067	134.033	87.9086	134.033	87.9328	134.033	87.8388	134.033	87.8505	134.033	87.7728	134.033	87.7655	134.033	87.7154	134.033	87.684	134.033	87.67	134.033	87.6122	134.033	87.6388	134.033	87.5552	134.033	87.6217	134.033	87.5165	134.033	87.6167	134.033	87.4976	134.033	87.6204	134.033	87.4972	134.033	87.6283	134.033	87.512	134.033	87.6355	134.033	87.537	134.033	87.6378	134.033	87.5665	134.033	87.6323	134.033	87.5949	134.033	87.6178
138.428	88.2211	138.428	88.191	138.428	88.2303	138.428	88.1424	138.428	88.2178	138.428	88.0793	138.428	88.1842	138.428	88.0066	138.428	88.1315	138.428	87.9303	138.428	88.0635	138.428	87.8568	138.428	87.9852	138.428	87.7924	138.428	87.9028	138.428	87.7423	138.428	87.8231	138.428	87.7101	138.428	87.7529	138.428	87.6971	138.428	87.6982	138.428	87.7019	138.428	87.6634	138.428	87.7208	138.428	87.65	138.428	87.7483	138.428	87.6571	138.428	87.778	138.428	87.6805	138.428	87.8034	138.428	87.7144	138.428	87.8192	138.428	87.7518	138.428	87.8219	138.428	87.7856	138.428	87.8102
143.555	88.3131	143.555	88.2702	143.555	88.3312	143.555	88.2047	143.555	88.3236	143.555	88.1207	143.555	88.2914	143.555	88.0237	143.555	88.2369	143.555	87.9206	143.555	88.164	143.555	87.8193	143.555	88.078	143.555	87.728	143.555	87.9855	143.555	87.6541	143.555	87.8937	143.555	87.6034	143.555	87.8099	143.555	87.5786	143.555	87.7409	143.555	87.579	143.555	87.6916	143.555	87.6006	143.555	87.6646	143.555	87.6364	143.555	87.6591	143.555	87.6781	143.555	87.6715	143.555	87.7174	143.555	87.6956	143.555	87.7473	143.555	87.7238	143.555	87.763	143.555	87.7484	143.555	87.7629
148.682	88.312	148.682	88.2678	148.682	88.3304	148.682	88.2	148.682	88.3225	148.682	88.1124	148.682	88.2891	148.682	88.0101	148.682	88.2328	148.682	87.8998	148.682	88.1576	148.682	87.7892	148.682	88.0688	148.682	87.6864	148.682	87.9731	148.682	87.5992	148.682	87.8778	148.682	87.534	148.682	87.7904	148.682	87.495	148.682	87.7175	148.682	87.4829	148.682	87.6641	148.682	87.4949	148.682	87.6324	148.682	87.5252	148.682	87.6214	148.682	87.5658	148.682	87.6271	148.682	87.6082	148.682	87.6432	148.682	87.6446	148.682	87.6621	148.682	87.6695	148.682	87.6763	148.682	87.6799
153.809	88.3807	153.809	88.3384	153.809	88.3957	153.809	88.271	153.809	88.3828	153.809	88.1822	153.809	88.3431	153.809	88.0774	153.809	88.2791	153.809	87.9631	153.809	88.1952	153.809	87.8469	153.809	88.0971	153.809	87.7368	153.809	87.9917	153.809	87.6404	153.809	87.8867	153.809	87.5641	153.809	87.7896	153.809	87.5121	153.809	87.7074	153.809	87.4855	153.809	87.6448	153.809	87.4822	153.809	87.604	153.809	87.4974	153.809	87.5841	153.809	87.5242	153.809	87.5812	153.809	87.5551	153.809	87.5893	153.809	87.5832	153.809	87.6014	153.809	87.6033	153.809	87.6109	153.809	87.6125
159.668	88.3307	159.668	88.2967	159.668	88.336	159.668	88.2364	159.668	88.3123	159.668	88.1535	159.668	88.2606	159.668	88.0534	159.668	88.1838	159.668	87.9429	159.668	88.0866	159.668	87.8302	159.668	87.9753	159.668	87.7238	159.668	87.8578	159.668	87.6318	159.668	87.7429	159.668	87.5609	159.668	87.6395	159.668	87.5151	159.668	87.5556	159.668	87.4952	159.668	87.497	159.668	87.498	159.668	87.4661	159.668	87.5174	159.668	87.4615	159.668	87.5455	159.668	87.478	159.668	87.5736	159.668	87.5082	159.668	87.5944	159.668	87.5431	159.668	87.6025	159.668	87.5744	159.668	87.5956
164.795	88.2755	164.795	88.2403	164.795	88.2818	164.795	88.1787	164.795	88.2585	164.795	88.0947	164.795	88.2067	164.795	87.994	164.795	88.1291	164.795	87.8838	164.795	88.0302	164.795	87.7723	164.795	87.9165	164.795	87.6682	164.795	87.7957	164.795	87.5797	164.795	87.677	164.795	87.5134	164.795	87.5697	164.795	87.473	164.795	87.4825	164.795	87.4588	164.795	87.4219	164.795	87.467	164.795	87.3909	164.795	87.491	164.795	87.3887	164.795	87.522	164.795	87.4102	164.795	87.551	164.795	87.4476	164.795	87.5702	164.795	87.4911	164.795	87.5741	164.795	87.5314	164.795	87.5607
170.654	88.1895	170.654	88.146	170.654	88.2022	170.654	88.0742	170.654	88.1835	170.654	87.9787	170.654	88.1346	170.654	87.8655	170.654	88.0586	170.654	87.7429	170.654	87.9603	170.654	87.62	170.654	87.8466	170.654	87.5067	170.654	87.7258	170.654	87.4122	170.654	87.6073	170.654	87.3441	170.654	87.5008	170.654	87.3063	170.654	87.4151	170.654	87.2989	170.654	87.3566	170.654	87.3175	170.654	87.3282	170.654	87.3543	170.654	87.3283	170.654	87.3996	170.654	87.3514	170.654	87.443	170.654	87.3887	170.654	87.4758	170.654	87.4302	170.654	87.4917	170.654	87.4659	170.654	87.488
176.514	88.0546	176.514	88.0116	176.514	88.0655	176.514	87.9388	176.514	88.0441	176.514	87.8405	176.514	87.9921	176.514	87.7228	176.514	87.9131	176.514	87.5942	176.514	87.8127	176.514	87.4645	176.514	87.6981	176.514	87.3444	176.514	87.5783	176.514	87.2448	176.514	87.4633	176.514	87.1743	176.514	87.3629	176.514	87.1382	176.514	87.2859	176.514	87.1372	176.514	87.2382	176.514	87.1665	176.514	87.2216	176.514	87.2174	176.514	87.2336	176.514	87.2784	176.514	87.2673	176.514	87.3375	176.514	87.3128	176.514	87.3842	176.514	87.3592	176.514	87.4112	176.514	87.3959	176.514	87.4149
183.105	87.9164	183.105	87.8801	183.105	87.9181	183.105	87.8118	183.105	87.8845	183.105	87.7157	183.105	87.817	183.105	87.598	183.105	87.719	183.105	87.4668	183.105	87.5961	183.105	87.3316	183.105	87.4562	183.105	87.2028	183.105	87.3094	183.105	87.0911	183.105	87.1672	183.105	87.0056	183.105	87.0418	183.105	86.9525	183.105	86.9443	183.105	86.9336	183.105	86.8827	183.105	86.9455	183.105	86.8599	183.105	86.9803	183.105	86.8733	183.105	87.0271	183.105	86.9146	183.105	87.0736	183.105	86.9719	183.105	87.1087	183.105	87.0322	183.105	87.1241	183.105	87.0831	183.105	87.1155
189.697	87.8048	189.697	87.7703	189.697	87.8054	189.697	87.7046	189.697	87.7712	189.697	87.6125	189.697	87.7034	189.697	87.5007	189.697	87.6053	189.697	87.3774	189.697	87.4822	189.697	87.2523	189.697	87.3416	189.697	87.1357	189.697	87.1931	189.697	87.0372	189.697	87.0479	189.697	86.9645	189.697	86.9176	189.697	86.9218	189.697	86.8133	189.697	86.909	189.697	86.7435	189.697	86.9214	189.697	86.7124	189.697	86.9504	189.697	86.7189	189.697	86.9853	189.697	86.7568	189.697	87.015	189.697	86.8157	189.697	87.0301	189.697	86.883	189.697	87.0245	189.697	86.9464	189.697	86.9958
196.289	87.7488	196.289	87.6978	196.289	87.7608	196.289	87.611	196.289	87.7332	196.289	87.4941	196.289	87.6676	196.289	87.3553	196.289	87.5683	196.289	87.2054	196.289	87.4418	196.289	87.0568	196.289	87.297	196.289	86.9227	196.289	87.1451	196.289	86.8155	196.289	86.9985	196.289	86.7448	196.289	86.8703	196.289	86.715	196.289	86.7719	196.289	86.7248	196.289	86.7116	196.289	86.7667	196.289	86.6926	196.289	86.8289	196.289	86.7122	196.289	86.8975	196.289	86.7619	196.289	86.9585	196.289	86.8294	196.289	87.0006	196.289	86.9005	196.289	87.0164	196.289	86.9619	196.289	87.0028
202.881	87.6534	202.881	87.5956	202.881	87.6699	202.881	87.4994	202.881	87.6444	202.881	87.3703	202.881	87.579	202.881	87.2169	202.881	87.4783	202.881	87.0503	202.881	87.3494	202.881	86.8841	202.881	87.2022	202.881	86.7332	202.881	87.0488	202.881	86.6123	202.881	86.903	202.881	86.5331	202.881	86.7785	202.881	86.5019	202.881	86.687	202.881	86.518	202.881	86.6364	202.881	86.5733	202.881	86.6282	202.881	86.6544	202.881	86.6577	202.881	86.7449	202.881	86.7143	202.881	86.8291	202.881	86.7843	202.881	86.8938	202.881	86.8526	202.881	86.93	202.881	86.9058	202.881	86.9336
210.205	87.5553	210.205	87.5009	210.205	87.5642	210.205	87.4035	210.205	87.5277	210.205	87.2678	210.205	87.4483	210.205	87.1016	210.205	87.3306	210.205	86.9158	210.205	87.182	210.205	86.7242	210.205	87.0126	210.205	86.5431	210.205	86.8355	210.205	86.3895	210.205	86.6658	210.205	86.2789	210.205	86.5194	210.205	86.2215	210.205	86.4109	210.205	86.2198	210.205	86.3503	210.205	86.2678	210.205	86.3406	210.205	86.3516	210.205	86.3762	210.205	86.4528	210.205	86.4441	210.205	86.552	210.205	86.527	210.205	86.6324	210.205	86.6062	210.205	86.6814	210.205	86.6653	210.205	86.6924
217.529	87.4137	217.529	87.3627	217.529	87.4188	217.529	87.2681	217.529	87.3785	217.529	87.1344	217.529	87.2957	217.529	86.9693	217.529	87.1757	217.529	86.7839	217.529	87.0265	217.529	86.5919	217.529	86.8585	217.529	86.4101	217.529	86.6848	217.529	86.2558	217.529	86.5203	217.529	86.1443	217.529	86.3801	217.529	86.0861	217.529	86.2776	217.529	86.0836	217.529	86.2214	217.529	86.1305	217.529	86.2136	217.529	86.2128	217.529	86.2484	217.529	86.3122	217.529	86.3136	217.529	86.4095	217.529	86.3924	217.529	86.4884	217.529	86.4675	217.529	86.5367	217.529	86.5233	217.529	86.5484
225.586	87.388	225.586	87.3445	225.586	87.3815	225.586	87.2536	225.586	87.3249	225.586	87.1207	225.586	87.2204	225.586	86.9537	225.586	87.0735	225.586	86.7636	225.586	86.8925	225.586	86.5647	225.586	86.6898	225.586	86.3743	225.586	86.4813	225.586	86.2109	225.586	86.2858	225.586	86.0916	225.586	86.1234	225.586	86.0287	225.586	86.0115	225.586	86.0259	225.586	85.9614	225.586	86.0771	225.586	85.9746	225.586	86.167	225.586	86.042	225.586	86.2751	225.586	86.1459	225.586	86.3794	225.586	86.2643	225.586	86.4609	225.586	86.3751	225.586	86.5054	225.586	86.4597	225.586	86.5053
232.91	87.4435	232.91	87.3873	232.91	87.4461	232.91	87.2817	232.91	87.3932	232.91	87.1331	232.91	87.2856	232.91	86.9504	232.91	87.127	232.91	86.7451	232.91	86.9244	232.91	86.5313	232.91	86.6895	232.91	86.3251	232.91	86.4382	232.91	86.1441	232.91	86.1914	232.91	86.0044	232.91	85.9727	232.91	85.9182	232.91	85.8054	232.91	85.8902	232.91	85.7071	232.91	85.9161	232.91	85.6845	232.91	85.9823	232.91	85.7311	232.91	86.0695	232.91	85.8286	232.91	86.1558	232.91	85.9517	232.91	86.2213	232.91	86.0742	232.91	86.2506	232.91	86.1738	232.91	86.235
241.699	87.1658	241.699	87.0883	241.699	87.188	241.699	86.9593	241.699	87.1538	241.699	86.7851	241.699	87.0644	241.699	86.5756	241.699	86.9238	241.699	86.3439	241.699	86.7391	241.699	86.107	241.699	86.5208	241.699	85.8846	241.699	86.2837	241.699	85.6974	241.699	86.0464	241.699	85.5632	241.699	85.8304	241.699	85.4937	241.699	85.6574	241.699	85.4901	241.699	85.5446	241.699	85.543	241.699	85.5006	241.699	85.6343	241.699	85.5219	241.699	85.7412	241.699	85.594	241.699	85.8412	241.699	85.6947	241.699	85.9151	241.699	85.7996	241.699	85.9501	241.699	85.8869	241.699	85.9402
249.756	87.2746	249.756	87.2096	249.756	87.2777	249.756	87.0859	249.756	87.2181	249.756	86.9095	249.756	87.0971	249.756	86.6895	249.756	86.9187	249.756	86.4389	249.756	86.6904	249.756	86.1752	249.756	86.4235	249.756	85.9195	249.756	86.1343	249.756	85.6953	249.756	85.8444	249.756	85.5247	249.756	85.5797	249.756	85.4234	249.756	85.3671	249.756	85.3958	249.756	85.2288	249.756	85.4336	249.756	85.1766	249.756	85.5168	249.756	85.2068	249.756	85.6194	249.756	85.3015	249.756	85.715	249.756	85.4333	249.756	85.7812	249.756	85.5722	249.756	85.8026	249.756	85.6916	249.756	85.7721
258.545	87.2511	258.545	87.1768	258.545	87.266	258.545	87.0466	258.545	87.2205	258.545	86.8664	258.545	87.1156	258.545	86.6455	258.545	86.9549	258.545	86.3967	258.545	86.7453	258.545	86.1372	258.545	86.4972	258.545	85.8879	258.545	86.2261	258.545	85.6719	258.545	85.9525	258.545	85.5107	258.545	85.7012	258.545	85.4198	258.545	85.4981	258.545	85.4036	258.545	85.3651	258.545	85.4535	258.545	85.314	258.545	85.5496	258.545	85.342	258.545	85.6656	258.545	85.4319	258.545	85.7746	258.545	85.5571	258.545	85.8539	258.545	85.6881	258.545	85.8877	258.545	85.7985	258.545	85.8686
268.066	87.0648	268.066	86.9724	268.066	87.0965	268.066	86.8222	268.066	87.0661	268.066	86.6193	268.066	86.9735	268.066	86.3719	268.066	86.8205	268.066	86.0924	268.066	86.6109	268.066	85.798	268.066	86.3519	268.066	85.5109	268.066	86.0557	268.066	85.2566	268.066	85.7402	268.066	85.0598	268.066	85.4296	268.066	84.9384	268.066	85.1524	268.066	84.8983	268.066	84.9375	268.066	84.9298	268.066	84.8064	268.066	85.0107	268.066	84.7664	268.066	85.1117	268.066	84.8077	268.066	85.2038	268.066	84.906	268.066	85.2632	268.066	85.0297	268.066	85.2752	268.066	85.1476	268.066	85.2348
277.588	87.1074	277.588	87.055	277.588	87.0896	277.588	86.931	277.588	87.0071	277.588	86.7385	277.588	86.8687	277.588	86.4862	277.588	86.6859	277.588	86.1893	277.588	86.4719	277.588	85.8705	277.588	86.2417	277.588	85.5597	277.588	86.0111	277.588	85.2914	277.588	85.7967	277.588	85.0988	277.588	85.6155	277.588	85.0046	277.588	85.4829	277.588	85.0139	277.588	85.4108	277.588	85.1115	277.588	85.4034	277.588	85.2681	277.588	85.4551	277.588	85.4488	277.588	85.5499	277.588	85.6211	277.588	85.6639	277.588	85.7595	277.588	85.7712	277.588	85.8473	277.588	85.8478	277.588	85.8764
287.109	87.0895	287.109	87.0323	287.109	87.0737	287.109	86.905	287.109	86.9845	287.109	86.7123	287.109	86.825	287.109	86.4619	287.109	86.6027	287.109	86.1648	287.109	86.3309	287.109	85.8383	287.109	86.0291	287.109	85.5074	287.109	85.723	287.109	85.206	287.109	85.4421	287.109	84.9725	287.109	85.2163	287.109	84.841	287.109	85.069	287.109	84.8279	287.109	85.0124	287.109	84.9241	287.109	85.0433	287.109	85.0973	287.109	85.1449	287.109	85.303	287.109	85.2908	287.109	85.4984	287.109	85.4513	287.109	85.6506	287.109	85.5978	287.109	85.7393	287.109	85.7058	287.109	85.7568
297.363	87.1865	297.363	87.0934	297.363	87.2083	297.363	86.9361	297.363	87.1523	297.363	86.7225	297.363	87.0137	297.363	86.462	297.363	86.7905	297.363	86.1659	297.363	86.4857	297.363	85.8489	297.363	86.1097	297.363	85.5303	297.363	85.6839	297.363	85.2342	297.363	85.243	297.363	84.9881	297.363	84.835	297.363	84.8183	297.363	84.5143	297.363	84.7424	297.363	84.3264	297.363	84.7615	297.363	84.29	297.363	84.8576	297.363	84.3887	297.363	84.9976	297.363	84.5787	297.363	85.1423	297.363	84.806	297.363	85.2554	297.363	85.0221	297.363	85.3098	297.363	85.1906	297.363	85.2894
307.617	87.0564	307.617	86.9456	307.617	87.0973	307.617	86.7669	307.617	87.0675	307.617	86.5249	307.617	86.9664	307.617	86.2282	307.617	86.7941	307.617	85.8913	307.617	86.5524	307.617	85.5366	307.617	86.2467	307.617	85.1944	307.617	85.8896	307.617	84.9011	307.617	85.5041	307.617	84.6932	307.617	85.1269	307.617	84.5968	307.617	84.8062	307.617	84.6184	307.617	84.5924	307.617	84.7413	307.617	84.52	307.617	84.9305	307.617	84.5906	307.617	85.1432	307.617	84.7707	307.617	85.338	307.617	85.0051	307.617	85.4814	307.617	85.2371	307.617	85.5497	307.617	85.4216	307.617	85.5301
318.604	86.9985	318.604	86.9003	318.604	87.0195	318.604	86.7242	318.604	86.9661	318.604	86.4723	318.604	86.8425	318.604	86.1512	318.604	86.6541	318.604	85.7733	318.604	86.4068	318.604	85.3593	318.604	86.1083	318.604	84.9399	318.604	85.7693	318.604	84.5562	318.604	85.4056	318.604	84.2545	318.604	85.0413	318.604	84.0757	318.604	84.7101	318.604	84.0398	318.604	84.4518	318.604	84.1357	318.604	84.3027	318.604	84.3245	318.604	84.2807	318.604	84.5529	318.604	84.374	318.604	84.7688	318.604	84.5433	318.604	84.9304	318.604	84.7357	318.604	85.011	318.604	84.9004	318.604	84.9994
329.59	87.0272	329.59	86.9515	329.59	87.0237	329.59	86.7957	329.59	86.9431	329.59	86.5607	329.59	86.7887	329.59	86.25	329.59	86.5658	329.59	85.8716	329.59	86.2824	329.59	85.4412	329.59	85.9504	329.59	84.9854	329.59	85.5874	329.59	84.5445	329.59	85.2172	329.59	84.1712	329.59	84.8701	329.59	83.9193	329.59	84.5793	329.59	83.8248	329.59	84.3752	329.59	83.8871	329.59	84.2763	329.59	84.0669	329.59	84.2824	329.59	84.3034	329.59	84.3731	329.59	84.5358	329.59	84.5135	329.59	84.7182	329.59	84.6627	329.59	84.8235	329.59	84.7827	329.59	84.8428
341.309	86.8582	341.309	86.801	341.309	86.8309	341.309	86.6616	341.309	86.7187	341.309	86.4443	341.309	86.5232	341.309	86.1563	341.309	86.2487	341.309	85.8084	341.309	85.9028	341.309	85.4174	341.309	85.499	341.309	85.0082	341.309	85.0586	341.309	84.6152	341.309	84.614	341.309	84.2814	341.309	84.2097	341.309	84.0506	341.309	83.8982	341.309	83.9544	341.309	83.7265	341.309	83.9975	341.309	83.7173	341.309	84.1534	341.309	83.8561	341.309	84.373	341.309	84.0948	341.309	84.6005	341.309	84.3707	341.309	84.7865	341.309	84.6245	341.309	84.8951	341.309	84.8117	341.309	84.9053
353.76	87.1149	353.76	87.013	353.76	87.1305	353.76	86.829	353.76	87.0569	353.76	86.5685	353.76	86.8927	353.76	86.2391	353.76	86.6383	353.76	85.8518	353.76	86.2972	353.76	85.4231	353.76	85.8776	353.76	84.9779	353.76	85.3952	353.76	84.5514	353.76	84.8773	353.76	84.1884	353.76	84.3664	353.76	83.9349	353.76	83.9201	353.76	83.8232	353.76	83.6015	353.76	83.8552	353.76	83.4578	353.76	83.9991	353.76	83.497	353.76	84.2001	353.76	83.6812	353.76	84.3995	353.76	83.9436	353.76	84.5479	353.76	84.214	353.76	84.6119	353.76	84.4365	353.76	84.5748
366.211	87.1505	366.211	87.0398	366.211	87.1795	366.211	86.846	366.211	87.1284	366.211	86.5685	366.211	86.9985	366.211	86.2096	366.211	86.7915	366.211	85.7767	366.211	86.5103	366.211	85.2866	366.211	86.1601	366.211	84.77	366.211	85.7512	366.211	84.2747	366.211	85.3018	366.211	83.8634	366.211	84.8411	366.211	83.5987	366.211	84.4115	366.211	83.5175	366.211	84.0647	366.211	83.6111	366.211	83.8488	366.211	83.8268	366.211	83.789	366.211	84.0922	366.211	83.8731	366.211	84.3396	366.211	84.0544	366.211	84.5193	366.211	84.27	366.211	84.6026	366.211	84.4602	366.211	84.58
378.662	87.274	378.662	87.1709	378.662	87.2926	378.662	86.984	378.662	87.2257	378.662	86.7142	378.662	87.0727	378.662	86.3635	378.662	86.834	378.662	85.9371	378.662	86.5128	378.662	85.447	378.662	86.1173	378.662	84.9169	378.662	85.663	378.662	84.3877	378.662	85.1769	378.662	83.92	378.662	84.6993	378.662	83.5863	378.662	84.2835	378.662	83.446	378.662	83.9863	378.662	83.5139	378.662	83.85	378.662	83.7471	378.662	83.8819	378.662	84.065	378.662	84.0479	378.662	84.3834	378.662	84.2862	378.662	84.6364	378.662	84.5285	378.662	84.7839	378.662	84.7166	378.662	84.8093
392.578	86.8759	392.578	86.8054	392.578	86.8708	392.578	86.6581	392.578	86.791	392.578	86.433	392.578	86.6366	392.578	86.1305	392.578	86.4069	392.578	85.7539	392.578	86.1016	392.578	85.3109	392.578	85.7228	392.578	84.818	392.578	85.2788	392.578	84.3047	392.578	84.7887	392.578	83.8183	392.578	84.2878	392.578	83.4218	392.578	83.83	392.578	83.1795	392.578	83.4805	392.578	83.1282	392.578	83.2957	392.578	83.2536	392.578	83.2946	392.578	83.4939	392.578	83.4454	392.578	83.7681	392.578	83.6791	392.578	84.0038	392.578	83.9187	392.578	84.1512	392.578	84.1009	392.578	84.1846
405.762	86.6767	405.762	86.5804	405.762	86.6867	405.762	86.4019	405.762	86.6106	405.762	86.1492	405.762	86.4526	405.762	85.833	405.762	86.2198	405.762	85.466	405.762	85.9208	405.762	85.0622	405.762	85.5651	405.762	84.6385	405.762	85.1642	405.762	84.2172	405.762	84.7342	405.762	83.8294	405.762	84.3003	405.762	83.5152	405.762	83.9007	405.762	83.3178	405.762	83.5847	405.762	83.2667	405.762	83.4011	405.762	83.3602	405.762	83.3761	405.762	83.5595	405.762	83.4947	405.762	83.8009	405.762	83.7027	405.762	84.0177	405.762	83.928	405.762	84.1568	405.762	84.1048	405.762	84.1878
420.41	86.45	420.41	86.3436	420.41	86.4567	420.41	86.1456	420.41	86.3632	420.41	85.8708	420.41	86.1765	420.41	85.5404	420.41	85.9104	420.41	85.1795	420.41	85.5841	420.41	84.8149	420.41	85.2206	420.41	84.472	420.41	84.8435	420.41	84.1712	420.41	84.4743	420.41	83.9259	420.41	84.1314	420.41	83.7428	420.41	83.8308	420.41	83.6228	420.41	83.587	420.41	83.5617	420.41	83.414	420.41	83.5506	420.41	83.3213	420.41	83.5745	420.41	83.3084	420.41	83.6137	420.41	83.3606	420.41	83.6456	420.41	83.4502	420.41	83.6505	420.41	83.5446	420.41	83.6165
435.059	87.2961	435.059	87.1161	435.059	87.3054	435.059	86.7631	435.059	87.1474	435.059	86.238	435.059	86.8268	435.059	85.5527	435.059	86.3529	435.059	84.7437	435.059	85.7453	435.059	83.8941	435.059	85.0445	435.059	83.1535	435.059	84.3234	435.059	82.7159	435.059	83.6932	435.059	82.7119	435.059	83.2826	435.059	83.1003	435.059	83.1798	435.059	83.7076	435.059	83.376	435.059	84.3575	435.059	83.7759	435.059	84.9375	435.059	84.262	435.059	85.3952	435.059	84.7437	435.059	85.7149	435.059	85.1679	435.059	85.9	435.059	85.5096	435.059	85.9617	435.059	85.7591	435.059	85.9117
450.439	88.3307	450.439	88.2103	450.439	88.3218	450.439	87.9571	450.439	88.1823	450.439	87.5629	450.439	87.9069	450.439	87.0153	450.439	87.4878	450.439	86.3011	450.439	86.9183	450.439	85.4131	450.439	86.197	450.439	84.3662	450.439	85.3382	450.439	83.2326	450.439	84.3903	450.439	82.1982	450.439	83.4632	450.439	81.5773	450.439	82.744	450.439	81.624	450.439	82.4378	450.439	82.2518	450.439	82.6154	450.439	83.1299	450.439	83.1437	450.439	83.9803	450.439	83.8066	450.439	84.6649	450.439	84.4367	450.439	85.137	450.439	84.9424	450.439	85.3909	450.439	85.2817	450.439	85.4353
466.553	87.9525	466.553	87.8379	466.553	87.9639	466.553	87.6154	466.553	87.8701	466.553	87.2752	466.553	87.6621	466.553	86.8051	466.553	87.3247	466.553	86.1945	466.553	86.8395	466.553	85.4408	466.553	86.188	466.553	84.5621	466.553	85.3605	466.553	83.621	466.553	84.3713	466.553	82.7578	466.553	83.2928	466.553	82.1957	466.553	82.3098	466.553	82.1352	466.553	81.731	466.553	82.5732	466.553	81.8062	466.553	83.2991	466.553	82.4531	466.553	84.0754	466.553	83.3468	466.553	84.7468	466.553	84.2074	466.553	85.2356	466.553	84.8903	466.553	85.5073	466.553	85.3406	466.553	85.5453
482.666	87.7771	482.666	87.7081	482.666	87.7602	482.666	87.5439	482.666	87.6609	482.666	87.2703	482.666	87.4757	482.666	86.8702	482.666	87.1939	482.666	86.3253	482.666	86.7984	482.666	85.6204	482.666	86.2684	482.666	84.7519	482.666	85.5835	482.666	83.7475	482.666	84.7332	482.666	82.7045	482.666	83.7361	482.666	81.8363	482.666	82.677	482.666	81.4378	482.666	81.7611	482.666	81.6621	482.666	81.3001	482.666	82.3417	482.666	81.4909	482.666	83.1641	482.666	82.1851	482.666	83.8962	482.666	83.0481	482.666	84.4196	482.666	83.8227	482.666	84.6845	482.666	84.3807	482.666	84.6726
500.244	87.7667	500.244	87.6576	500.244	87.7731	500.244	87.4411	500.244	87.6776	500.244	87.1085	500.244	87.4781	500.244	86.6477	500.244	87.1694	500.244	86.0443	500.244	86.7434	500.244	85.2872	500.244	86.1898	500.244	84.3785	500.244	85.4986	500.244	83.3573	500.244	84.6674	500.244	82.3427	500.244	83.7191	500.244	81.5759	500.244	82.7355	500.244	81.3517	500.244	81.9024	500.244	81.7625	500.244	81.4946	500.244	82.5787	500.244	81.6896	500.244	83.4795	500.244	82.3701	500.244	84.248	500.244	83.2378	500.244	84.7785	500.244	84.0424	500.244	85.0274	500.244	84.6447	500.244	84.9813
517.822	87.3574	517.822	87.255	517.822	87.3711	517.822	87.0604	517.822	87.2946	517.822	86.7644	517.822	87.1223	517.822	86.3525	517.822	86.8454	517.822	85.8051	517.822	86.4523	517.822	85.1008	517.822	85.9295	517.822	84.2224	517.822	85.2633	517.822	83.1738	517.822	84.4459	517.822	82.0215	517.822	83.4893	517.822	80.9709	517.822	82.457	517.822	80.3962	517.822	81.5117	517.822	80.5863	517.822	80.9299	517.822	81.3789	517.822	80.9467	517.822	82.3507	517.822	81.5069	517.822	83.1935	517.822	82.3144	517.822	83.7718	517.822	83.0917	517.822	84.0444	517.822	83.6809	517.822	84.0093
536.133	87.5816	536.133	87.5151	536.133	87.5641	536.133	87.3603	536.133	87.458	536.133	87.1033	536.133	87.2505	536.133	86.7213	536.133	86.9225	536.133	86.1845	536.133	86.4504	536.133	85.4591	536.133	85.8081	536.133	84.5132	536.133	84.97	536.133	83.3302	536.133	83.919	536.133	81.9465	536.133	82.6665	536.133	80.5451	536.133	81.3058	536.133	79.58	536.133	80.1141	536.133	79.5721	536.133	79.5738	536.133	80.4455	536.133	79.9665	536.133	81.6247	536.133	80.9747	536.133	82.6821	536.133	82.0924	536.133	83.4453	536.133	83.0218	536.133	83.8648	536.133	83.647	536.133	83.9314
554.443	87.4624	554.443	87.3615	554.443	87.4921	554.443	87.1811	554.443	87.4519	554.443	86.9056	554.443	87.3352	554.443	86.5122	554.443	87.1277	554.443	85.9716	554.443	86.8068	554.443	85.2512	554.443	86.3421	554.443	84.3228	554.443	85.6975	554.443	83.1816	554.443	84.8353	554.443	81.8933	554.443	83.7272	554.443	80.6809	554.443	82.3876	554.443	79.9659	554.443	80.9576	554.443	80.0751	554.443	79.8427	554.443	80.8255	554.443	79.6053	554.443	81.7664	554.443	80.3004	554.443	82.5903	554.443	81.3769	554.443	83.1674	554.443	82.361	554.443	83.4511	554.443	83.0576	554.443	83.4198
574.219	87.2433	574.219	87.1528	574.219	87.2573	574.219	86.9872	574.219	87.189	574.219	86.7393	574.219	87.0315	574.219	86.3904	574.219	86.7765	574.219	85.9097	574.219	86.4123	574.219	85.257	574.219	85.92	574.219	84.3868	574.219	85.2721	574.219	83.2582	574.219	84.4362	574.219	81.8626	574.219	83.3886	574.219	80.313	574.219	82.1517	574.219	79.0398	574.219	80.8752	574.219	78.777	574.219	79.9403	574.219	79.6674	574.219	79.8138	574.219	80.9969	574.219	80.5011	574.219	82.1786	574.219	81.5232	574.219	83.0012	574.219	82.464	574.219	83.4258	574.219	83.1331	574.219	83.4631
594.727	87.1046	594.727	86.9986	594.727	87.1477	594.727	86.8223	594.727	87.1283	594.727	86.5606	594.727	87.0401	594.727	86.19	594.727	86.8697	594.727	85.6767	594.727	86.5965	594.727	84.9748	594.727	86.1905	594.727	84.0268	594.727	85.6122	594.727	82.7712	594.727	84.8117	594.727	81.1761	594.727	83.7349	594.727	79.3668	594.727	82.3447	594.727	77.9394	594.727	80.6934	594.727	77.8846	594.727	79.1172	594.727	79.1153	594.727	78.3994	594.727	80.6114	594.727	79.0027	594.727	81.815	594.727	80.2844	594.727	82.5949	594.727	81.5132	594.727	82.9462	594.727	82.4003	594.727	82.8801
615.234	87.1698	615.234	87.0729	615.234	87.2276	615.234	86.9374	615.234	87.2403	615.234	86.7548	615.234	87.1979	615.234	86.5025	615.234	87.0838	615.234	86.1409	615.234	86.8725	615.234	85.6118	615.234	86.527	615.234	84.8388	615.234	86.0005	615.234	83.7284	615.234	85.2383	615.234	82.1796	615.234	84.183	615.234	80.1376	615.234	82.7911	615.234	77.8778	615.234	81.0944	615.234	76.7214	615.234	79.3993	615.234	77.8239	615.234	78.5435	615.234	79.7757	615.234	79.1442	615.234	81.3997	615.234	80.5095	615.234	82.4718	615.234	81.7899	615.234	83.0178	615.234	82.6665	615.234	83.0775
637.207	88.0467	637.207	87.9444	637.207	88.0986	637.207	87.8014	637.207	88.1013	637.207	87.6305	637.207	88.0637	637.207	87.4319	637.207	87.9918	637.207	87.1797	637.207	87.876	637.207	86.82	637.207	87.6829	637.207	86.2779	637.207	87.3551	637.207	85.4665	637.207	86.8175	637.207	84.2933	637.207	85.9872	637.207	82.6784	637.207	84.7888	637.207	80.668	637.207	83.2036	637.207	78.88	637.207	81.4436	637.207	78.798	637.207	80.2994	637.207	80.4348	637.207	80.6642	637.207	82.2633	637.207	82.0048	637.207	83.6011	637.207	83.3157	637.207	84.3515	637.207	84.1888	637.207	84.5395
659.912	88.5784	659.912	88.4554	659.912	88.6352	659.912	88.2817	659.912	88.6196	659.912	88.0746	659.912	88.537	659.912	87.8408	659.912	88.398	659.912	87.5632	659.912	88.207	659.912	87.1926	659.912	87.9475	659.912	86.6494	659.912	87.5745	659.912	85.8326	659.912	87.016	659.912	84.6318	659.912	86.1828	659.912	82.9486	659.912	84.9828	659.912	80.8035	659.912	83.3605	659.912	78.8009	659.912	81.447	659.912	78.5808	659.912	79.9752	659.912	80.2631	659.912	80.1255	659.912	82.1639	659.912	81.5577	659.912	83.549	659.912	83.0429	659.912	84.3158	659.912	84.0515	659.912	84.4793
683.35	88.9311	683.35	88.878	683.35	88.8948	683.35	88.7341	683.35	88.7812	683.35	88.5069	683.35	88.6091	683.35	88.2061	683.35	88.3962	683.35	87.8297	683.35	88.1475	683.35	87.3496	683.35	87.8456	683.35	86.7054	683.35	87.4481	683.35	85.81	683.35	86.8927	683.35	84.5621	683.35	86.1043	683.35	82.8737	683.35	85.0036	683.35	80.7887	683.35	83.5382	683.35	78.9346	683.35	81.7965	683.35	78.8007	683.35	80.3216	683.35	80.3746	683.35	80.1394	683.35	82.1318	683.35	81.2795	683.35	83.3996	683.35	82.6773	683.35	84.0767	683.35	83.6975	683.35	84.1726
706.787	88.3189	706.787	88.2272	706.787	88.325	706.787	88.0756	706.787	88.236	706.787	87.8952	706.787	88.0603	706.787	87.7051	706.787	87.8205	706.787	87.494	706.787	87.5398	706.787	87.2132	706.787	87.2214	706.787	86.7839	706.787	86.8286	706.787	86.1104	706.787	86.2812	706.787	85.091	706.787	85.4723	706.787	83.6332	706.787	84.2906	706.787	81.7153	706.787	82.6536	706.787	79.6606	706.787	80.6307	706.787	78.6817	706.787	78.9015	706.787	79.6772	706.787	78.9177	706.787	81.4187	706.787	80.5163	706.787	82.8312	706.787	82.1986	706.787	83.6388	706.787	83.329	706.787	83.8071
731.689	88.1462	731.689	88.0468	731.689	88.1367	731.689	87.8587	731.689	88.0139	731.689	87.6105	731.689	87.7925	731.689	87.3273	731.689	87.5009	731.689	87.0118	731.689	87.1653	731.689	86.6307	731.689	86.791	731.689	86.1145	731.689	86.3509	731.689	85.3672	731.689	85.7874	731.689	84.2733	731.689	85.0164	731.689	82.7037	731.689	83.929	731.689	80.576	731.689	82.4046	731.689	78.2308	731.689	80.3987	731.689	77.3436	731.689	78.3584	731.689	78.866	731.689	77.8628	731.689	80.8788	731.689	79.3989	731.689	82.3258	731.689	81.2517	731.689	83.0739	731.689	82.5434	731.689	83.1459
758.057	88.1673	758.057	88.0704	758.057	88.1505	758.057	87.8785	758.057	88.0295	758.057	87.635	758.057	87.8315	758.057	87.3836	758.057	87.5905	758.057	87.1342	758.057	87.3362	758.057	86.8461	758.057	87.0753	758.057	86.4385	758.057	86.7733	758.057	85.8069	758.057	86.3496	758.057	84.8261	758.057	85.6897	758.057	83.3408	758.057	84.6575	758.057	81.1828	758.057	83.1013	758.057	78.4217	758.057	80.8976	758.057	76.6371	758.057	78.2808	758.057	78.0461	758.057	76.9798	758.057	80.3797	758.057	78.4584	758.057	82.0032	758.057	80.5715	758.057	82.7795	758.057	82.0591	758.057	82.7876
784.424	87.9712	784.424	87.7665	784.424	88.0179	784.424	87.4574	784.424	87.8901	784.424	87.1132	784.424	87.6189	784.424	86.7957	784.424	87.2708	784.424	86.5345	784.424	86.9148	784.424	86.3038	784.424	86.5876	784.424	86.0112	784.424	86.2759	784.424	85.5169	784.424	85.9129	784.424	84.6657	784.424	85.3815	784.424	83.3039	784.424	84.5294	784.424	81.2952	784.424	83.1905	784.424	78.7033	784.424	81.2241	784.424	76.748	784.424	78.7256	784.424	77.579	784.424	76.935	784.424	79.6818	784.424	77.7887	784.424	81.2711	784.424	79.8078	784.424	82.0601	784.424	81.3346	784.424	82.0796
812.256	88.5203	812.256	88.3462	812.256	88.4995	812.256	88.0074	812.256	88.2951	812.256	87.5835	812.256	87.951	812.256	87.185	812.256	87.5403	812.256	86.8955	812.256	87.1476	812.256	86.7067	812.256	86.8218	812.256	86.5083	812.256	86.5369	812.256	86.1343	812.256	86.208	812.256	85.4062	812.256	85.727	812.256	84.1457	812.256	84.9561	812.256	82.1788	812.256	83.7055	812.256	79.4702	812.256	81.7667	812.256	77.0864	812.256	79.1523	812.256	77.7488	812.256	77.1251	812.256	80.0656	812.256	77.9408	812.256	81.7916	812.256	80.0481	812.256	82.5902	812.256	81.6765	812.256	82.5319
840.82	88.7101	840.82	88.4631	840.82	88.7506	840.82	88.0458	840.82	88.5764	840.82	87.5137	840.82	88.2103	840.82	86.9366	840.82	87.7028	840.82	86.3905	840.82	87.1358	840.82	85.9316	840.82	86.6246	840.82	85.5524	840.82	86.2619	840.82	85.1507	840.82	86.0033	840.82	84.5397	840.82	85.6501	840.82	83.486	840.82	84.975	840.82	81.7603	840.82	83.8191	840.82	79.3047	840.82	82.092	840.82	77.0904	840.82	79.8123	840.82	77.5437	840.82	77.6625	840.82	79.6528	840.82	77.6829	840.82	81.3486	840.82	79.6299	840.82	82.2171	840.82	81.3653	840.82	82.2347
870.85	88.897	870.85	88.6417	870.85	88.9239	870.85	88.1711	870.85	88.727	870.85	87.5327	870.85	88.3273	870.85	86.8219	870.85	87.7764	870.85	86.1712	870.85	87.1607	870.85	85.6925	870.85	86.5742	870.85	85.3783	870.85	86.0688	870.85	85.0505	870.85	85.6261	870.85	84.433	870.85	85.1562	870.85	83.2524	870.85	84.4923	870.85	81.2746	870.85	83.3885	870.85	78.4601	870.85	81.5574	870.85	76.254	870.85	78.8977	870.85	77.6615	870.85	76.835	870.85	80.3431	870.85	78.2554	870.85	82.2476	870.85	80.8166	870.85	83.217	870.85	82.5494	870.85	83.3205
901.611	89.3534	901.611	89.0626	901.611	89.3884	901.611	88.5671	901.611	89.1695	901.611	87.9599	901.611	88.7497	901.611	87.3488	901.611	88.2138	901.611	86.8092	901.611	87.647	901.611	86.3359	901.611	87.1091	901.611	85.8481	901.611	86.6255	901.611	85.2561	901.611	86.169	901.611	84.482	901.611	85.6335	901.611	83.3701	901.611	84.8418	901.611	81.5845	901.611	83.5846	901.611	78.6352	901.611	81.6547	901.611	74.7239	901.611	78.9772	901.611	75.0186	901.611	76.5283	901.611	78.6021	901.611	77.0716	901.611	80.9922	901.611	79.4224	901.611	82.1024	901.611	81.2579	901.611	82.1615
933.105	89.9839	933.105	89.6872	933.105	90.0054	933.105	89.1238	933.105	89.7467	933.105	88.3304	933.105	89.2168	933.105	87.4227	933.105	88.4691	933.105	86.6183	933.105	87.6359	933.105	86.1227	933.105	86.9235	933.105	85.9185	933.105	86.4927	933.105	85.7539	933.105	86.2937	933.105	85.3235	933.105	86.0915	933.105	84.3519	933.105	85.6257	933.105	82.5447	933.105	84.6625	933.105	79.4534	933.105	82.9533	933.105	74.6578	933.105	80.2699	933.105	74.0978	933.105	77.241	933.105	78.8911	933.105	77.5125	933.105	81.8831	933.105	80.3336	933.105	83.247	933.105	82.4288	933.105	83.3862
966.064	90.4052	966.064	90.0319	966.064	90.4411	966.064	89.3582	966.064	90.1497	966.064	88.4762	966.064	89.5696	966.064	87.5122	966.064	88.7671	966.064	86.6007	966.064	87.8558	966.064	85.8631	966.064	86.9969	966.064	85.3516	966.064	86.3469	966.064	84.9836	966.064	85.9665	966.064	84.5639	966.064	85.7416	966.064	83.8408	966.064	85.3893	966.064	82.478	966.064	84.5585	966.064	79.9681	966.064	82.9082	966.064	75.7445	966.064	80.1236	966.064	73.4433	966.064	76.4498	966.064	77.5835	966.064	75.8081	966.064	80.6437	966.064	78.8086	966.064	82.0414	966.064	81.1105	966.064	82.161
999.756	90.4767	999.756	90.0826	999.756	90.5853	999.756	89.4169	999.756	90.3859	999.756	88.4752	999.756	89.8754	999.756	87.2834	999.756	89.0916	999.756	86.0212	999.756	88.1333	999.756	85.1034	999.756	87.19	999.756	84.876	999.756	86.526	999.756	85.1069	999.756	86.2813	999.756	85.1893	999.756	86.2408	999.756	84.6099	999.756	85.9806	999.756	83.0142	999.756	85.1452	999.756	80.0634	999.756	83.4764	999.756	75.5573	999.756	80.7076	999.756	73.7001	999.756	76.9979	999.756	77.6242	999.756	76.2726	999.756	80.6443	999.756	79.3621	999.756	82.1903	999.756	81.6184	999.756	82.5082
1,034.91	90.4926	1,034.91	89.9981	1,034.91	90.6516	1,034.91	89.1646	1,034.91	90.4977	1,034.91	88.0256	1,034.91	90.0608	1,034.91	86.6869	1,034.91	89.3733	1,034.91	85.3703	1,034.91	88.4859	1,034.91	84.3729	1,034.91	87.5087	1,034.91	83.8588	1,034.91	86.645	1,034.91	83.6957	1,034.91	86.1066	1,034.91	83.549	1,034.91	85.8656	1,034.91	83.0406	1,034.91	85.5871	1,034.91	81.7859	1,034.91	84.8747	1,034.91	79.2903	1,034.91	83.4329	1,034.91	74.8644	1,034.91	81.0635	1,034.91	72.3296	1,034.91	78.0601	1,034.91	77.3788	1,034.91	77.2869	1,034.91	80.9288	1,034.91	79.8189	1,034.91	82.6457	1,034.91	82.0287	1,034.91	82.9743
1,071.53	90.1748	1,071.53	89.4874	1,071.53	90.4918	1,071.53	88.4429	1,071.53	90.4521	1,071.53	87.0874	1,071.53	90.0936	1,071.53	85.5126	1,071.53	89.4674	1,071.53	83.8694	1,071.53	88.6248	1,071.53	82.3938	1,071.53	87.6313	1,071.53	81.4378	1,071.53	86.6299	1,071.53	81.2457	1,071.53	85.864	1,071.53	81.5072	1,071.53	85.4325	1,071.53	81.5534	1,071.53	85.003	1,071.53	80.7369	1,071.53	84.0216	1,071.53	78.222	1,071.53	81.9829	1,071.53	71.5985	1,071.53	78.4355	1,071.53	63.5342	1,071.53	74.8002	1,071.53	76.5719	1,071.53	77.6221	1,071.53	80.924	1,071.53	81.2746	1,071.53	82.9904	1,071.53	83.1986	1,071.53	83.7034
1,109.62	88.4901	1,109.62	88.1178	1,109.62	88.5774	1,109.62	87.4342	1,109.62	88.4347	1,109.62	86.4382	1,109.62	88.1233	1,109.62	85.1112	1,109.62	87.6662	1,109.62	83.3842	1,109.62	87.0258	1,109.62	81.2381	1,109.62	86.214	1,109.62	79.187	1,109.62	85.4848	1,109.62	78.826	1,109.62	85.2044	1,109.62	80.2366	1,109.62	85.3134	1,109.62	81.5256	1,109.62	85.3619	1,109.62	81.7904	1,109.62	84.9503	1,109.62	80.7062	1,109.62	83.7224	1,109.62	77.6441	1,109.62	81.1023	1,109.62	69.693	1,109.62	75.6524	1,109.62	66.4308	1,109.62	62.132	1,109.62	76.3224	1,109.62	74.135	1,109.62	79.4421	1,109.62	78.6547	1,109.62	80.0607
1,148.44	87.3911	1,148.44	87.0244	1,148.44	87.5487	1,148.44	86.4986	1,148.44	87.4581	1,148.44	85.8577	1,148.44	87.0843	1,148.44	85.1167	1,148.44	86.3837	1,148.44	84.2736	1,148.44	85.3328	1,148.44	83.3516	1,148.44	84.0512	1,148.44	82.4367	1,148.44	82.9836	1,148.44	81.7017	1,148.44	82.7531	1,148.44	81.4099	1,148.44	83.3274	1,148.44	81.6245	1,148.44	83.9576	1,148.44	81.7688	1,148.44	83.9882	1,148.44	80.9874	1,148.44	83.0241	1,148.44	78.4878	1,148.44	80.748	1,148.44	72.5958	1,148.44	76.7949	1,148.44	60.241	1,148.44	72.5631	1,148.44	73.5355	1,148.44	74.6347	1,148.44	77.482	1,148.44	77.4993	1,148.44	78.4752
1,189.45	87.2023	1,189.45	87.3545	1,189.45	86.8624	1,189.45	87.3041	1,189.45	86.4109	1,189.45	87.0316	1,189.45	85.9158	1,189.45	86.4655	1,189.45	85.2894	1,189.45	85.5852	1,189.45	84.2752	1,189.45	84.562	1,189.45	82.6172	1,189.45	83.6318	1,189.45	80.4515	1,189.45	82.8195	1,189.45	79.0489	1,189.45	82.3227	1,189.45	79.4662	1,189.45	82.7429	1,189.45	80.3331	1,189.45	83.7185	1,189.45	80.4729	1,189.45	84.1446	1,189.45	79.3605	1,189.45	83.3665	1,189.45	76.6128	1,189.45	80.8424	1,189.45	72.7976	1,189.45	75.4523	1,189.45	73.1381	1,189.45	70.4676	1,189.45	76.3479	1,189.45	75.8868	1,189.45	78.219	1,189.45	78.2734
1,231.2	91.653	1,231.2	91.8871	1,231.2	91.1395	1,231.2	91.8827	1,231.2	90.3445	1,231.2	91.6396	1,231.2	89.296	1,231.2	91.0722	1,231.2	87.983	1,231.2	90.0861	1,231.2	86.3416	1,231.2	88.7291	1,231.2	84.2804	1,231.2	87.2918	1,231.2	81.6531	1,231.2	86.1431	1,231.2	78.2579	1,231.2	85.4064	1,231.2	74.3519	1,231.2	85.0383	1,231.2	73.4583	1,231.2	84.8826	1,231.2	75.4584	1,231.2	84.4599	1,231.2	75.9473	1,231.2	83.2848	1,231.2	74.6451	1,231.2	81.4081	1,231.2	72.271	1,231.2	80.0191	1,231.2	71.6902	1,231.2	80.1448	1,231.2	74.9368	1,231.2	80.4896	1,231.2	78.0573	1,231.2	79.8995
1,274.41	92.4349	1,274.41	92.4811	1,274.41	92.1359	1,274.41	92.3229	1,274.41	91.5266	1,274.41	91.9331	1,274.41	90.6068	1,274.41	91.1844	1,274.41	89.4534	1,274.41	89.9283	1,274.41	88.1613	1,274.41	88.2187	1,274.41	86.7548	1,274.41	86.5629	1,274.41	85.1909	1,274.41	85.6199	1,274.41	83.4601	1,274.41	85.1863	1,274.41	81.7393	1,274.41	84.5601	1,274.41	80.6556	1,274.41	83.5214	1,274.41	80.7602	1,274.41	82.0358	1,274.41	81.1599	1,274.41	79.7268	1,274.41	80.6132	1,274.41	77.0453	1,274.41	78.3217	1,274.41	78.162	1,274.41	72.6004	1,274.41	80.7815	1,274.41	59.2902	1,274.41	81.5373	1,274.41	75.3753	1,274.41	80.0265
1,319.82	91.5338	1,319.82	91.4785	1,319.82	91.3095	1,319.82	91.1203	1,319.82	90.844	1,319.82	90.4526	1,319.82	90.1485	1,319.82	89.4776	1,319.82	89.1738	1,319.82	88.2047	1,319.82	87.8762	1,319.82	86.6671	1,319.82	86.3268	1,319.82	85.0083	1,319.82	84.7171	1,319.82	83.5693	1,319.82	83.2486	1,319.82	82.7466	1,319.82	82.0739	1,319.82	82.5292	1,319.82	81.4445	1,319.82	82.3092	1,319.82	81.4897	1,319.82	81.1341	1,319.82	81.6719	1,319.82	77.8021	1,319.82	81.2033	1,319.82	70.8575	1,319.82	79.2647	1,319.82	73.6877	1,319.82	73.9889	1,319.82	78.602	1,319.82	51.1396	1,319.82	80.1384	1,319.82	74.6198	1,319.82	79.0793
1,365.97	89.9374	1,365.97	89.5078	1,365.97	90.0792	1,365.97	88.8987	1,365.97	89.8722	1,365.97	88.1248	1,365.97	89.3297	1,365.97	87.0603	1,365.97	88.4815	1,365.97	85.6001	1,365.97	87.3799	1,365.97	83.8435	1,365.97	86.1322	1,365.97	82.0868	1,365.97	84.8041	1,365.97	80.6265	1,365.97	83.357	1,365.97	79.6405	1,365.97	81.9372	1,365.97	79.2442	1,365.97	81.2272	1,365.97	79.149	1,365.97	81.4341	1,365.97	78.3956	1,365.97	81.4943	1,365.97	75.6962	1,365.97	80.633	1,365.97	67.7009	1,365.97	78.2675	1,365.97	68.4483	1,365.97	72.5175	1,365.97	76.4148	1,365.97	61.4829	1,365.97	78.8081	1,365.97	74.3288	1,365.97	78.2009
1,414.31	88.6124	1,414.31	88.1668	1,414.31	88.7572	1,414.31	87.5616	1,414.31	88.5567	1,414.31	86.7741	1,414.31	88.0556	1,414.31	85.5827	1,414.31	87.2589	1,414.31	83.9723	1,414.31	86.1786	1,414.31	82.3325	1,414.31	84.9361	1,414.31	80.9736	1,414.31	83.6506	1,414.31	79.9293	1,414.31	82.248	1,414.31	79.2637	1,414.31	80.684	1,414.31	78.9484	1,414.31	79.6051	1,414.31	78.891	1,414.31	79.6847	1,414.31	78.697	1,414.31	80.0771	1,414.31	77.1091	1,414.31	79.9818	1,414.31	71.3951	1,414.31	78.5072	1,414.31	58.9776	1,414.31	73.9502	1,414.31	73.4938	1,414.31	60.281	1,414.31	76.1957	1,414.31	70.5688	1,414.31	75.3131
1,464.11	88.8604	1,464.11	88.5989	1,464.11	88.797	1,464.11	88.0466	1,464.11	88.4139	1,464.11	87.1278	1,464.11	87.8128	1,464.11	85.8048	1,464.11	87.0747	1,464.11	84.3669	1,464.11	86.1308	1,464.11	83.0648	1,464.11	84.8509	1,464.11	81.4525	1,464.11	83.3766	1,464.11	79.4952	1,464.11	82.0718	1,464.11	78.547	1,464.11	80.8848	1,464.11	78.7814	1,464.11	79.6783	1,464.11	79.2458	1,464.11	79.2316	1,464.11	79.1886	1,464.11	79.7534	1,464.11	77.585	1,464.11	80.0327	1,464.11	72.7992	1,464.11	78.4444	1,464.11	49.5761	1,464.11	73.3452	1,464.11	71.0009	1,464.11	56.0142	1,464.11	75.3438	1,464.11	69.8864	1,464.11	74.9598
1,515.38	89.0217	1,515.38	88.9048	1,515.38	88.8916	1,515.38	88.4014	1,515.38	88.5385	1,515.38	87.3837	1,515.38	87.9392	1,515.38	86.075	1,515.38	87.0768	1,515.38	84.9566	1,515.38	85.9383	1,515.38	83.8478	1,515.38	84.5253	1,515.38	81.9869	1,515.38	82.9952	1,515.38	79.5709	1,515.38	81.5569	1,515.38	78.2713	1,515.38	80.1075	1,515.38	78.6333	1,515.38	78.7806	1,515.38	79.6427	1,515.38	78.5249	1,515.38	80.0281	1,515.38	79.5771	1,515.38	78.4154	1,515.38	80.2405	1,515.38	73.5798	1,515.38	78.5151	1,515.38	59.3004	1,515.38	72.5903	1,515.38	68.8091	1,515.38	51.3114	1,515.38	74.5586	1,515.38	71.3321	1,515.38	75.1617
1,568.85	89.118	1,568.85	88.9341	1,568.85	89.0562	1,568.85	88.3746	1,568.85	88.6742	1,568.85	87.283	1,568.85	87.9292	1,568.85	85.9582	1,568.85	86.9362	1,568.85	84.9156	1,568.85	85.6861	1,568.85	83.8408	1,568.85	84.0481	1,568.85	81.8418	1,568.85	82.3066	1,568.85	78.8595	1,568.85	80.9597	1,568.85	76.964	1,568.85	79.6546	1,568.85	78.0031	1,568.85	78.1537	1,568.85	79.8833	1,568.85	77.9136	1,568.85	80.693	1,568.85	79.1714	1,568.85	79.6392	1,568.85	80.0425	1,568.85	76.542	1,568.85	79.0296	1,568.85	69.6405	1,568.85	75.1419	1,568.85	62.7038	1,568.85	64.5333	1,568.85	72.6426	1,568.85	67.5592	1,568.85	73.3693
1,624.51	88.4997	1,624.51	88.2703	1,624.51	88.5857	1,624.51	87.8023	1,624.51	88.2964	1,624.51	86.9341	1,624.51	87.5325	1,624.51	85.9659	1,624.51	86.4682	1,624.51	85.1176	1,624.51	85.2012	1,624.51	83.9454	1,624.51	83.6415	1,624.51	81.9389	1,624.51	81.9645	1,624.51	79.105	1,624.51	80.6409	1,624.51	76.8171	1,624.51	79.4036	1,624.51	77.5096	1,624.51	77.5663	1,624.51	78.9792	1,624.51	76.6108	1,624.51	79.8571	1,624.51	77.8221	1,624.51	79.7719	1,624.51	78.9184	1,624.51	77.9652	1,624.51	78.5594	1,624.51	73.0657	1,624.51	76.0356	1,624.51	56.3753	1,624.51	68.9575	1,624.51	68.8883	1,624.51	59.0241	1,624.51	69.9509
1,681.64	87.9076	1,681.64	87.6242	1,681.64	87.9932	1,681.64	87.0038	1,681.64	87.802	1,681.64	86.1753	1,681.64	87.1124	1,681.64	85.5558	1,681.64	85.9372	1,681.64	84.8279	1,681.64	84.5326	1,681.64	83.319	1,681.64	83.1076	1,681.64	81.4895	1,681.64	81.751	1,681.64	79.9622	1,681.64	80.265	1,681.64	77.5896	1,681.64	78.2185	1,681.64	75.5328	1,681.64	75.8255	1,681.64	76.9505	1,681.64	75.2543	1,681.64	78.6459	1,681.64	77.2477	1,681.64	79.1265	1,681.64	78.7224	1,681.64	77.5819	1,681.64	78.3585	1,681.64	72.9015	1,681.64	75.8582	1,681.64	65.1316	1,681.64	69.369	1,681.64	69.4662	1,681.64	64.3981	1,681.64	70.6061
1,740.97	88.945	1,740.97	88.5682	1,740.97	88.8968	1,740.97	87.6854	1,740.97	88.5021	1,740.97	86.652	1,740.97	87.6586	1,740.97	85.85	1,740.97	86.4088	1,740.97	84.9139	1,740.97	85.1303	1,740.97	83.5576	1,740.97	84.0904	1,740.97	82.397	1,740.97	82.8686	1,740.97	81.5614	1,740.97	80.8049	1,740.97	79.7863	1,740.97	78.012	1,740.97	76.6189	1,740.97	75.317	1,740.97	75.8788	1,740.97	74.5069	1,740.97	77.9712	1,740.97	77.2068	1,740.97	79.0986	1,740.97	78.6172	1,740.97	78.1688	1,740.97	77.6825	1,740.97	73.3603	1,740.97	75.1222	1,740.97	64.9983	1,740.97	68.4423	1,740.97	71.6163	1,740.97	62.9417	1,740.97	71.8268
1,802.49	89.9694	1,802.49	89.6558	1,802.49	89.8298	1,802.49	88.9428	1,802.49	89.1532	1,802.49	87.974	1,802.49	88.0563	1,802.49	86.9201	1,802.49	86.8505	1,802.49	85.5845	1,802.49	85.6797	1,802.49	83.8916	1,802.49	84.5665	1,802.49	82.697	1,802.49	83.4102	1,802.49	82.044	1,802.49	81.9724	1,802.49	80.2448	1,802.49	80.3645	1,802.49	76.7183	1,802.49	78.4882	1,802.49	75.4382	1,802.49	76.0326	1,802.49	77.9252	1,802.49	77.0787	1,802.49	79.3146	1,802.49	79.1389	1,802.49	77.9555	1,802.49	79.1988	1,802.49	72.5511	1,802.49	77.4511	1,802.49	65.432	1,802.49	72.2091	1,802.49	70.3585	1,802.49	59.1813	1,802.49	69.802
1,866.21	90.3214	1,866.21	90.0089	1,866.21	90.1129	1,866.21	89.2498	1,866.21	89.402	1,866.21	88.2114	1,866.21	88.3326	1,866.21	87.0181	1,866.21	86.9999	1,866.21	85.6427	1,866.21	85.4188	1,866.21	84.2249	1,866.21	84.1295	1,866.21	83.0454	1,866.21	83.4382	1,866.21	81.887	1,866.21	82.4966	1,866.21	80.0487	1,866.21	80.9074	1,866.21	77.4136	1,866.21	78.5395	1,866.21	75.868	1,866.21	74.9603	1,866.21	78.1089	1,866.21	75.706	1,866.21	79.8255	1,866.21	78.3214	1,866.21	78.1589	1,866.21	79.1244	1,866.21	71.5603	1,866.21	77.7891	1,866.21	66.9792	1,866.21	71.9206	1,866.21	71.7085	1,866.21	65.7603	1,866.21	71.8466
1,932.13	90.3002	1,932.13	89.6381	1,932.13	90.4748	1,932.13	88.7273	1,932.13	90.0635	1,932.13	87.5585	1,932.13	89.1713	1,932.13	85.9016	1,932.13	87.8477	1,932.13	84.1703	1,932.13	86.2233	1,932.13	83.0805	1,932.13	84.8904	1,932.13	81.9449	1,932.13	84.0235	1,932.13	80.3564	1,932.13	83.075	1,932.13	79.1042	1,932.13	81.8192	1,932.13	77.2489	1,932.13	80.0559	1,932.13	74.9213	1,932.13	76.9409	1,932.13	77.3893	1,932.13	73.8517	1,932.13	79.2726	1,932.13	76.9159	1,932.13	78.7198	1,932.13	79.1439	1,932.13	74.7109	1,932.13	78.7067	1,932.13	64.4914	1,932.13	74.7525	1,932.13	72.042	1,932.13	63.5701	1,932.13	72.4107
2,000.24	92.0645	2,000.24	91.5042	2,000.24	92.1374	2,000.24	90.5005	2,000.24	91.789	2,000.24	89.2111	2,000.24	90.9443	2,000.24	87.5254	2,000.24	89.5554	2,000.24	85.6401	2,000.24	88.0538	2,000.24	84.1082	2,000.24	86.7958	2,000.24	82.6501	2,000.24	85.4588	2,000.24	81.2908	2,000.24	84.167	2,000.24	80.6572	2,000.24	83.1223	2,000.24	79.3068	2,000.24	81.8686	2,000.24	75.5889	2,000.24	79.9604	2,000.24	74.7885	2,000.24	77.3586	2,000.24	78.0422	2,000.24	77.775	2,000.24	78.4264	2,000.24	79.8981	2,000.24	75.2424	2,000.24	79.4454	2,000.24	68.1985	2,000.24	75.7628	2,000.24	72.9121	2,000.24	69.4614	2,000.24	73.5362
2,070.56	93.3424	2,070.56	92.7908	2,070.56	93.2515	2,070.56	91.7574	2,070.56	92.8721	2,070.56	90.6545	2,070.56	92.1202	2,070.56	89.1589	2,070.56	90.7146	2,070.56	87.2297	2,070.56	88.9545	2,070.56	85.7169	2,070.56	87.262	2,070.56	84.4515	2,070.56	85.9108	2,070.56	83.0853	2,070.56	84.9048	2,070.56	82.3149	2,070.56	83.564	2,070.56	81.1501	2,070.56	82.1584	2,070.56	78.4399	2,070.56	80.7026	2,070.56	75.5787	2,070.56	78.7584	2,070.56	76.8159	2,070.56	78.6231	2,070.56	79.0036	2,070.56	79.6814	2,070.56	76.9401	2,070.56	79.9382	2,070.56	67.6532	2,070.56	76.2804	2,070.56	72.3943	2,070.56	71.0813	2,070.56	75.3239
2,143.8	93.3144	2,143.8	93.0678	2,143.8	92.9625	2,143.8	92.0098	2,143.8	92.4952	2,143.8	90.4611	2,143.8	92.028	2,143.8	89.0471	2,143.8	90.8257	2,143.8	87.7294	2,143.8	89.1169	2,143.8	86.1867	2,143.8	87.9693	2,143.8	84.114	2,143.8	86.7044	2,143.8	82.5602	2,143.8	84.7305	2,143.8	83.4908	2,143.8	82.6521	2,143.8	83.3774	2,143.8	81.2504	2,143.8	79.7651	2,143.8	80.845	2,143.8	77.2232	2,143.8	79.0805	2,143.8	78.4796	2,143.8	78.6608	2,143.8	80.2924	2,143.8	80.7257	2,143.8	78.545	2,143.8	79.468	2,143.8	72.1124	2,143.8	72.4878	2,143.8	75.5953	2,143.8	66.0473	2,143.8	74.9887
2,219.24	92.8604	2,219.24	92.6231	2,219.24	92.7804	2,219.24	91.8913	2,219.24	92.4182	2,219.24	90.3968	2,219.24	91.7479	2,219.24	89.0955	2,219.24	90.4224	2,219.24	88.3285	2,219.24	88.9549	2,219.24	86.4153	2,219.24	87.6437	2,219.24	84.1038	2,219.24	86.0365	2,219.24	82.5191	2,219.24	84.7885	2,219.24	80.8238	2,219.24	84.0109	2,219.24	82.4793	2,219.24	81.7894	2,219.24	82.2836	2,219.24	77.9541	2,219.24	80.6401	2,219.24	76.7825	2,219.24	81.2409	2,219.24	75.563	2,219.24	80.9231	2,219.24	79.3432	2,219.24	77.5809	2,219.24	81.3074	2,219.24	62.646	2,219.24	78.8978	2,219.24	65.63	2,219.24	71.3856	2,219.24	52.7629
2,297.61	94.1404	2,297.61	94.2001	2,297.61	94.0085	2,297.61	93.48	2,297.61	93.3634	2,297.61	91.8469	2,297.61	92.2779	2,297.61	90.7781	2,297.61	91.3109	2,297.61	89.7804	2,297.61	89.7461	2,297.61	88.1213	2,297.61	87.5269	2,297.61	87.4849	2,297.61	87.3112	2,297.61	86.5464	2,297.61	86.6909	2,297.61	82.6936	2,297.61	83.6451	2,297.61	80.046	2,297.61	80.6597	2,297.61	82.1318	2,297.61	78.3185	2,297.61	81.7923	2,297.61	75.7309	2,297.61	80.9845	2,297.61	75.706	2,297.61	81.7812	2,297.61	79.7807	2,297.61	79.2026	2,297.61	82.2258	2,297.61	71.4145	2,297.61	79.9941	2,297.61	71.8253	2,297.61	71.4983	2,297.61	72.885
2,378.17	94.728	2,378.17	94.6232	2,378.17	94.4089	2,378.17	93.9432	2,378.17	93.7187	2,378.17	93.0688	2,378.17	92.6021	2,378.17	91.6733	2,378.17	91.3364	2,378.17	89.7115	2,378.17	89.1635	2,378.17	88.1587	2,378.17	87.6146	2,378.17	87.257	2,378.17	87.5852	2,378.17	85.6254	2,378.17	85.5684	2,378.17	83.4668	2,378.17	83.0823	2,378.17	82.7238	2,378.17	81.957	2,378.17	80.3019	2,378.17	77.411	2,378.17	77.1942	2,378.17	73.5505	2,378.17	78.9795	2,378.17	74.521	2,378.17	78.7039	2,378.17	77.9619	2,378.17	77.7697	2,378.17	79.6215	2,378.17	74.5434	2,378.17	77.5447	2,378.17	72.5485	2,378.17	72.0826	2,378.17	73.962
2,462.4	92.7219	2,462.4	92.45	2,462.4	92.3814	2,462.4	91.8664	2,462.4	91.6674	2,462.4	91.1025	2,462.4	90.6164	2,462.4	89.6628	2,462.4	89.3242	2,462.4	87.7507	2,462.4	87.7049	2,462.4	86.1862	2,462.4	85.6102	2,462.4	84.8057	2,462.4	83.5519	2,462.4	83.1033	2,462.4	82.618	2,462.4	80.7099	2,462.4	81.637	2,462.4	78.7677	2,462.4	79.0305	2,462.4	80.0205	2,462.4	76.9451	2,462.4	78.6265	2,462.4	76.1084	2,462.4	74.7601	2,462.4	72.4491	2,462.4	77.4323	2,462.4	72.9986	2,462.4	77.0691	2,462.4	76.6672	2,462.4	74.7085	2,462.4	74.5434	2,462.4	71.2482	2,462.4	67.5518	2,462.4	72.5658
2,548.83	89.7335	2,548.83	89.593	2,548.83	89.4609	2,548.83	88.9973	2,548.83	88.7638	2,548.83	88.0273	2,548.83	87.5853	2,548.83	86.7724	2,548.83	86.1549	2,548.83	85.0749	2,548.83	84.5442	2,548.83	83.0606	2,548.83	82.6875	2,548.83	81.0349	2,548.83	80.413	2,548.83	79.0764	2,548.83	78.2971	2,548.83	77.3101	2,548.83	77.4951	2,548.83	75.4258	2,548.83	76.8269	2,548.83	75.0565	2,548.83	75.2701	2,548.83	75.5105	2,548.83	73.6306	2,548.83	72.6132	2,548.83	71.223	2,548.83	72.6402	2,548.83	66.955	2,548.83	73.4609	2,548.83	68.7483	2,548.83	70.3474	2,548.83	71.0883	2,548.83	71.1251	2,548.83	59.4577	2,548.83	67.7756
2,638.92	88.9214	2,638.92	88.2557	2,638.92	88.9849	2,638.92	87.0655	2,638.92	88.364	2,638.92	85.4362	2,638.92	87.1457	2,638.92	83.601	2,638.92	85.6199	2,638.92	81.4347	2,638.92	83.9168	2,638.92	79.515	2,638.92	82.0659	2,638.92	77.7539	2,638.92	80.3038	2,638.92	75.8138	2,638.92	78.7947	2,638.92	74.1485	2,638.92	77.4677	2,638.92	72.3623	2,638.92	76.2191	2,638.92	72.4038	2,638.92	75.5127	2,638.92	72.0755	2,638.92	75.3146	2,638.92	70.7416	2,638.92	74.6173	2,638.92	70.4342	2,638.92	73.7606	2,638.92	67.0508	2,638.92	73.394	2,638.92	63.0858	2,638.92	69.8036	2,638.92	61.2435	2,638.92	63.413	2,638.92	61.275
2,731.93	87.1716	2,731.93	86.6414	2,731.93	87.3184	2,731.93	85.8892	2,731.93	86.7463	2,731.93	84.8127	2,731.93	85.7683	2,731.93	83.6786	2,731.93	84.487	2,731.93	82.0614	2,731.93	83.0751	2,731.93	80.1725	2,731.93	81.422	2,731.93	78.755	2,731.93	78.6599	2,731.93	77.6319	2,731.93	76.4188	2,731.93	76.125	2,731.93	76.3617	2,731.93	75.0682	2,731.93	74.5941	2,731.93	74.3915	2,731.93	71.8258	2,731.93	74.0836	2,731.93	72.8126	2,731.93	71.518	2,731.93	72.193	2,731.93	71.414	2,731.93	71.0144	2,731.93	72.1017	2,731.93	72.8682	2,731.93	66.6466	2,731.93	72.3904	2,731.93	69.4464	2,731.93	64.6203	2,731.93	65.5814
2,828.61	87.9211	2,828.61	87.2726	2,828.61	87.9732	2,828.61	86.2005	2,828.61	87.2178	2,828.61	84.8528	2,828.61	85.8405	2,828.61	83.4499	2,828.61	84.1847	2,828.61	81.8833	2,828.61	82.837	2,828.61	79.8841	2,828.61	81.473	2,828.61	77.8819	2,828.61	78.7425	2,828.61	77.1808	2,828.61	76.0373	2,828.61	75.3234	2,828.61	75.5364	2,828.61	71.9471	2,828.61	74.4024	2,828.61	72.6146	2,828.61	71.2796	2,828.61	72.7301	2,828.61	71.8892	2,828.61	71.536	2,828.61	73.1299	2,828.61	70.7875	2,828.61	70.9591	2,828.61	69.577	2,828.61	71.7456	2,828.61	64.6308	2,828.61	69.7855	2,828.61	60.9317	2,828.61	65.8874	2,828.61	61.8318
2,928.22	87.8694	2,928.22	87.2053	2,928.22	87.7973	2,928.22	85.9927	2,928.22	87.0375	2,928.22	84.2439	2,928.22	85.5823	2,928.22	82.279	2,928.22	83.8054	2,928.22	80.7913	2,928.22	82.3468	2,928.22	79.1985	2,928.22	80.6649	2,928.22	76.9558	2,928.22	78.5062	2,928.22	75.7067	2,928.22	76.0648	2,928.22	74.2187	2,928.22	74.3781	2,928.22	71.8168	2,928.22	73.3086	2,928.22	70.9468	2,928.22	70.1627	2,928.22	72.0904	2,928.22	67.8126	2,928.22	70.9847	2,928.22	70.6712	2,928.22	69.4808	2,928.22	69.9287	2,928.22	69.7887	2,928.22	69.5864	2,928.22	66.2281	2,928.22	70.3924	2,928.22	67.4416	2,928.22	60.3721	2,928.22	65.5952
3,031.49	85.911	3,031.49	85.5106	3,031.49	85.9186	3,031.49	84.5255	3,031.49	85.2254	3,031.49	83.0222	3,031.49	83.6414	3,031.49	81.1519	3,031.49	81.6021	3,031.49	79.2714	3,031.49	79.1632	3,031.49	77.4738	3,031.49	77.1336	3,031.49	75.1048	3,031.49	75.6463	3,031.49	73.1943	3,031.49	73.6117	3,031.49	72.4602	3,031.49	72.1855	3,031.49	69.6411	3,031.49	71.373	3,031.49	68.5401	3,031.49	69.9118	3,031.49	69.8644	3,031.49	66.4958	3,031.49	69.7427	3,031.49	68.9356	3,031.49	68.4973	3,031.49	68.7437	3,031.49	62.479	3,031.49	68.0284	3,031.49	56.4212	3,031.49	66.7414	3,031.49	59.2011	3,031.49	61.3203	3,031.49	53.6992
3,138.43	84.814	3,138.43	84.4995	3,138.43	84.6184	3,138.43	83.3765	3,138.43	83.5355	3,138.43	81.6331	3,138.43	81.6616	3,138.43	79.4145	3,138.43	79.4786	3,138.43	76.8303	3,138.43	75.9748	3,138.43	74.8622	3,138.43	73.4609	3,138.43	73.2555	3,138.43	70.6513	3,138.43	71.7985	3,138.43	69.5204	3,138.43	71.2043	3,138.43	70.244	3,138.43	69.3333	3,138.43	70.4302	3,138.43	68.4781	3,138.43	71.3275	3,138.43	69.5898	3,138.43	69.119	3,138.43	67.2775	3,138.43	65.977	3,138.43	66.8524	3,138.43	68.9645	3,138.43	66.6177	3,138.43	70.3685	3,138.43	59.2396	3,138.43	68.8839	3,138.43	62.764	3,138.43	61.7356	3,138.43	59.703
3,249.02	83.6955	3,249.02	82.8443	3,249.02	83.3051	3,249.02	81.0332	3,249.02	81.1804	3,249.02	78.293	3,249.02	78.5061	3,249.02	75.2078	3,249.02	74.9885	3,249.02	72.6056	3,249.02	71.7879	3,249.02	71.081	3,249.02	71.1235	3,249.02	68.4545	3,249.02	70.1664	3,249.02	67.4103	3,249.02	68.9835	3,249.02	70.0542	3,249.02	66.0494	3,249.02	69.9026	3,249.02	68.584	3,249.02	60.287	3,249.02	68.5476	3,249.02	66.148	3,249.02	68.6643	3,249.02	65.8191	3,249.02	68.3168	3,249.02	67.9673	3,249.02	67.7437	3,249.02	69.0516	3,249.02	68.8072	3,249.02	60.8882	3,249.02	69.8305	3,249.02	61.2787	3,249.02	64.3522	3,249.02	62.0292
3,363.28	80.6197	3,363.28	79.3064	3,363.28	79.971	3,363.28	76.3851	3,363.28	77.7244	3,363.28	72.8755	3,363.28	74.1348	3,363.28	69.8322	3,363.28	69.94	3,363.28	68.3653	3,363.28	70.6669	3,363.28	68.0247	3,363.28	70.6967	3,363.28	69.2776	3,363.28	72.7933	3,363.28	69.2482	3,363.28	73.9208	3,363.28	68.2108	3,363.28	71.4631	3,363.28	69.9269	3,363.28	69.5436	3,363.28	69.0935	3,363.28	69.0134	3,363.28	66.2441	3,363.28	66.5049	3,363.28	66.9439	3,363.28	67.7993	3,363.28	61.7192	3,363.28	64.7395	3,363.28	64.5754	3,363.28	65.7494	3,363.28	59.4488	3,363.28	68.9727	3,363.28	60.613	3,363.28	67.2266	3,363.28	59.0083
3,481.93	76.1223	3,481.93	75.2117	3,481.93	75.3236	3,481.93	72.4202	3,481.93	74.8162	3,481.93	70.4498	3,481.93	73.4426	3,481.93	70.7207	3,481.93	74.3391	3,481.93	72.2576	3,481.93	74.5359	3,481.93	72.9182	3,481.93	74.8952	3,481.93	72.762	3,481.93	74.6822	3,481.93	71.0205	3,481.93	74.9201	3,481.93	68.6979	3,481.93	73.088	3,481.93	68.3229	3,481.93	70.4224	3,481.93	68.8649	3,481.93	72.1289	3,481.93	69.3272	3,481.93	69.8014	3,481.93	68.6966	3,481.93	69.3507	3,481.93	65.8258	3,481.93	70.2422	3,481.93	66.3779	3,481.93	68.7566	3,481.93	61.6524	3,481.93	70.0143	3,481.93	60.9995	3,481.93	66.0889	3,481.93	59.4881
3,604.98	75.7819	3,604.98	75.1356	3,604.98	76.6998	3,604.98	74.042	3,604.98	76.3501	3,604.98	74.4298	3,604.98	76.0978	3,604.98	75.0302	3,604.98	77.0264	3,604.98	74.2531	3,604.98	77.2831	3,604.98	73.7027	3,604.98	76.6923	3,604.98	73.5381	3,604.98	75.8532	3,604.98	72.0051	3,604.98	74.7932	3,604.98	69.3888	3,604.98	73.59	3,604.98	68.9082	3,604.98	71.2176	3,604.98	68.412	3,604.98	70.1653	3,604.98	68.9494	3,604.98	69.3413	3,604.98	69.2378	3,604.98	69.8403	3,604.98	67.3536	3,604.98	71.3702	3,604.98	68.3754	3,604.98	68.7156	3,604.98	63.305	3,604.98	68.633	3,604.98	63.578	3,604.98	65.4129	3,604.98	64.2588
3,732.42	76.1984	3,732.42	75.1869	3,732.42	76.6014	3,732.42	75.0159	3,732.42	75.0559	3,732.42	75.4208	3,732.42	75.0355	3,732.42	75.8194	3,732.42	75.6355	3,732.42	75.389	3,732.42	76.7533	3,732.42	73.906	3,732.42	76.8153	3,732.42	72.5024	3,732.42	75.7786	3,732.42	71.8431	3,732.42	74.8349	3,732.42	70.7533	3,732.42	74.1107	3,732.42	68.8784	3,732.42	71.5155	3,732.42	65.1988	3,732.42	69.8783	3,732.42	68.1467	3,732.42	66.4759	3,732.42	69.5592	3,732.42	68.4331	3,732.42	65.9494	3,732.42	70.4451	3,732.42	68.2282	3,732.42	65.3141	3,732.42	62.0933	3,732.42	67.5296	3,732.42	62.1954	3,732.42	66.9536	3,732.42	66.0166
3,863.53	77.5577	3,863.53	76.3475	3,863.53	77.1002	3,863.53	76.2271	3,863.53	76.5886	3,863.53	77.1948	3,863.53	77.6752	3,863.53	77.4002	3,863.53	78.1435	3,863.53	77.4261	3,863.53	78.1615	3,863.53	76.5095	3,863.53	77.7866	3,863.53	75.0354	3,863.53	76.6954	3,863.53	73.4823	3,863.53	75.4039	3,863.53	72.0465	3,863.53	74.0784	3,863.53	70.7237	3,863.53	72.3361	3,863.53	68.7822	3,863.53	71.6095	3,863.53	68.6875	3,863.53	69.5479	3,863.53	71.5625	3,863.53	67.8367	3,863.53	67.7814	3,863.53	70.9184	3,863.53	69.7069	3,863.53	69.3592	3,863.53	65.9925	3,863.53	70.9289	3,863.53	64.3818	3,863.53	66.6041	3,863.53	66.0767
3,999.76	78.4052	3,999.76	77.9051	3,999.76	77.9515	3,999.76	77.5369	3,999.76	77.5854	3,999.76	77.5375	3,999.76	76.5129	3,999.76	77.3082	3,999.76	77.0438	3,999.76	77.3814	3,999.76	77.4789	3,999.76	77.3385	3,999.76	77.2522	3,999.76	75.9986	3,999.76	76.3652	3,999.76	74.0322	3,999.76	75.9865	3,999.76	71.6791	3,999.76	74.8468	3,999.76	70.8346	3,999.76	73.497	3,999.76	70.1051	3,999.76	71.1117	3,999.76	67.089	3,999.76	69.6029	3,999.76	72.8079	3,999.76	68.4184	3,999.76	70.697	3,999.76	70.7829	3,999.76	69.8555	3,999.76	69.7716	3,999.76	67.1402	3,999.76	70.0808	3,999.76	65.4796	3,999.76	66.8558	3,999.76	64.822
4,141.11	77.6826	4,141.11	77.8947	4,141.11	77.6682	4,141.11	76.7879	4,141.11	75.6705	4,141.11	74.4112	4,141.11	72.3455	4,141.11	75.9408	4,141.11	73.5946	4,141.11	76.1709	4,141.11	74.8035	4,141.11	76.4621	4,141.11	75.3884	4,141.11	76.0046	4,141.11	76.3611	4,141.11	75.1012	4,141.11	74.603	4,141.11	73.7184	4,141.11	73.139	4,141.11	71.7232	4,141.11	71.382	4,141.11	69.6339	4,141.11	68.9824	4,141.11	66.3888	4,141.11	68.9177	4,141.11	70.566	4,141.11	66.6191	4,141.11	70.712	4,141.11	70.5537	4,141.11	71.4285	4,141.11	69.2663	4,141.11	67.4736	4,141.11	71.5572	4,141.11	61.2316	4,141.11	65.4237	4,141.11	61.2613
4,286.87	76.2081	4,286.87	74.2567	4,286.87	76.109	4,286.87	69.7272	4,286.87	66.1556	4,286.87	75.0547	4,286.87	66.5047	4,286.87	77.0367	4,286.87	73.3054	4,286.87	78.5287	4,286.87	76.8839	4,286.87	77.864	4,286.87	78.2858	4,286.87	75.8647	4,286.87	77.3591	4,286.87	74.5243	4,286.87	76.517	4,286.87	73.315	4,286.87	74.2533	4,286.87	70.6568	4,286.87	73.5459	4,286.87	69.139	4,286.87	71.6308	4,286.87	68.7994	4,286.87	67.9674	4,286.87	70.3433	4,286.87	67.614	4,286.87	69.3579	4,286.87	69.8281	4,286.87	69.8491	4,286.87	67.589	4,286.87	68.3193	4,286.87	67.7257	4,286.87	64.49	4,286.87	69.2897	4,286.87	65.29
4,438.48	74.4962	4,438.48	66.2223	4,438.48	73.067	4,438.48	69.8011	4,438.48	63.1535	4,438.48	76.0126	4,438.48	73.7676	4,438.48	79.6603	4,438.48	79.3503	4,438.48	80.8071	4,438.48	80.6353	4,438.48	81.399	4,438.48	80.6185	4,438.48	80.8244	4,438.48	80.4691	4,438.48	77.6138	4,438.48	78.5046	4,438.48	75.0247	4,438.48	76.1262	4,438.48	72.9587	4,438.48	74.3493	4,438.48	72.8032	4,438.48	72.5641	4,438.48	69.9581	4,438.48	71.5945	4,438.48	72.3754	4,438.48	67.3351	4,438.48	71.8313	4,438.48	72.1315	4,438.48	72.7214	4,438.48	73.1	4,438.48	71.1637	4,438.48	72.1512	4,438.48	69.3144	4,438.48	70.4792	4,438.48	66.1975
4,594.48	75.0688	4,594.48	69.1602	4,594.48	71.8389	4,594.48	73.1364	4,594.48	70.8633	4,594.48	79.0324	4,594.48	77.3998	4,594.48	81.0944	4,594.48	81.0203	4,594.48	80.7748	4,594.48	82.5117	4,594.48	80.8212	4,594.48	82.468	4,594.48	80.4695	4,594.48	81.1558	4,594.48	78.4758	4,594.48	79.8996	4,594.48	76.1266	4,594.48	78.4276	4,594.48	74.9875	4,594.48	75.6143	4,594.48	72.3197	4,594.48	73.0013	4,594.48	69.7911	4,594.48	71.9642	4,594.48	72.8503	4,594.48	71.9927	4,594.48	72.5606	4,594.48	72.257	4,594.48	72.9261	4,594.48	71.153	4,594.48	68.5365	4,594.48	71.0135	4,594.48	62.421	4,594.48	70.1684	4,594.48	58.7631
4,757.08	75.5821	4,757.08	74.6108	4,757.08	76.3663	4,757.08	75.049	4,757.08	76.3006	4,757.08	80.5258	4,757.08	77.3341	4,757.08	82.0192	4,757.08	80.4312	4,757.08	83.3676	4,757.08	82.5192	4,757.08	82.016	4,757.08	82.8484	4,757.08	79.6479	4,757.08	82.4596	4,757.08	78.2175	4,757.08	81.0808	4,757.08	77.5443	4,757.08	78.0352	4,757.08	74.5927	4,757.08	77.0502	4,757.08	72.999	4,757.08	75.0735	4,757.08	70.743	4,757.08	71.6098	4,757.08	70.9753	4,757.08	67.343	4,757.08	73.0874	4,757.08	70.944	4,757.08	70.7701	4,757.08	71.8853	4,757.08	73.7743	4,757.08	70.7557	4,757.08	65.3291	4,757.08	72.4661	4,757.08	68.382
4,924.8	78.4591	4,924.8	75.6558	4,924.8	79.01	4,924.8	78.4944	4,924.8	75.3476	4,924.8	79.7372	4,924.8	78.9887	4,924.8	82.5682	4,924.8	82.1947	4,924.8	82.8849	4,924.8	83.5627	4,924.8	83.2378	4,924.8	84.3673	4,924.8	82.3249	4,924.8	83.4049	4,924.8	79.25	4,924.8	81.0434	4,924.8	76.161	4,924.8	80.0579	4,924.8	74.3071	4,924.8	76.5712	4,924.8	72.1233	4,924.8	75.0192	4,924.8	69.0058	4,924.8	74.1204	4,924.8	71.0547	4,924.8	70.2426	4,924.8	73.0717	4,924.8	72.199	4,924.8	72.2289	4,924.8	73.4339	4,924.8	71.0457	4,924.8	70.4207	4,924.8	67.2399	4,924.8	72.3233	4,924.8	65.9372
5,098.39	79.4111	5,098.39	77.034	5,098.39	77.5686	5,098.39	76.1707	5,098.39	77.5337	5,098.39	81.8958	5,098.39	78.1249	5,098.39	83.6865	5,098.39	81.8762	5,098.39	84.2903	5,098.39	85.1456	5,098.39	83.0677	5,098.39	85.2769	5,098.39	81.3096	5,098.39	83.5733	5,098.39	79.896	5,098.39	82.6491	5,098.39	77.5528	5,098.39	79.2698	5,098.39	76.219	5,098.39	77.7546	5,098.39	73.5706	5,098.39	75.6057	5,098.39	73.2094	5,098.39	73.2094	5,098.39	71.9355	5,098.39	72.5844	5,098.39	75.1014	5,098.39	69.7835	5,098.39	72.3925	5,098.39	73.3605	5,098.39	73.5171	5,098.39	71.8266	5,098.39	42.0114	5,098.39	71.5945	5,098.39	55.0998
5,277.83	77.8281	5,277.83	75.9354	5,277.83	79.7555	5,277.83	77.3316	5,277.83	77.4507	5,277.83	81.0444	5,277.83	78.452	5,277.83	84.531	5,277.83	82.5309	5,277.83	85.4149	5,277.83	84.2008	5,277.83	84.2691	5,277.83	84.437	5,277.83	82.3904	5,277.83	84.0133	5,277.83	80.1443	5,277.83	81.4764	5,277.83	77.1062	5,277.83	79.7782	5,277.83	74.4618	5,277.83	77.1045	5,277.83	74.4382	5,277.83	74.565	5,277.83	72.1703	5,277.83	73.5783	5,277.83	70.9152	5,277.83	70.9975	5,277.83	72.5704	5,277.83	71.5987	5,277.83	71.0881	5,277.83	72.528	5,277.83	71.9304	5,277.83	71.1936	5,277.83	63.2219	5,277.83	72.799	5,277.83	65.4468
5,463.87	80.886	5,463.87	78.8825	5,463.87	79.7702	5,463.87	78.6766	5,463.87	78.9822	5,463.87	82.02	5,463.87	80.1508	5,463.87	83.9033	5,463.87	82.9783	5,463.87	84.663	5,463.87	85.149	5,463.87	84.0255	5,463.87	85.4703	5,463.87	81.508	5,463.87	83.7787	5,463.87	78.7291	5,463.87	81.4818	5,463.87	76.124	5,463.87	78.5659	5,463.87	73.6783	5,463.87	76.5805	5,463.87	70.201	5,463.87	74.4624	5,463.87	70.0116	5,463.87	72.4916	5,463.87	71.1301	5,463.87	71.1473	5,463.87	72.3411	5,463.87	70.0799	5,463.87	70.1216	5,463.87	73.1238	5,463.87	70.7684	5,463.87	72.4818	5,463.87	55.2444	5,463.87	71.8532	5,463.87	56.5352
5,656.49	80.7297	5,656.49	79.2411	5,656.49	80.9233	5,656.49	78.8659	5,656.49	79.6049	5,656.49	81.9733	5,656.49	79.7793	5,656.49	84.0404	5,656.49	83.2304	5,656.49	84.6962	5,656.49	85.0762	5,656.49	83.567	5,656.49	84.1499	5,656.49	80.976	5,656.49	82.8395	5,656.49	78.281	5,656.49	80.5924	5,656.49	76.9476	5,656.49	77.8982	5,656.49	74.6117	5,656.49	75.3926	5,656.49	73.7855	5,656.49	72.285	5,656.49	71.7334	5,656.49	70.5075	5,656.49	67.9021	5,656.49	69.0415	5,656.49	72.2808	5,656.49	66.3473	5,656.49	72.4112	5,656.49	71.31	5,656.49	71.7313	5,656.49	69.2482	5,656.49	53.3606	5,656.49	70.7003	5,656.49	56.8709
5,856.45	81.0572	5,856.45	81.0077	5,856.45	81.2839	5,856.45	81.5193	5,856.45	81.184	5,856.45	82.7901	5,856.45	81.8921	5,856.45	84.6621	5,856.45	83.7383	5,856.45	84.3825	5,856.45	84.7208	5,856.45	82.8063	5,856.45	84.3222	5,856.45	80.5182	5,856.45	82.5708	5,856.45	77.8413	5,856.45	79.8093	5,856.45	74.8254	5,856.45	77.9038	5,856.45	71.4958	5,856.45	75.2339	5,856.45	69.0307	5,856.45	73.0717	5,856.45	69.7857	5,856.45	71.6886	5,856.45	67.2	5,856.45	70.543	5,856.45	70.45	5,856.45	67.9785	5,856.45	70.5362	5,856.45	70.055	5,856.45	69.847	5,856.45	70.4071	5,856.45	53.3802	5,856.45	69.982	5,856.45	49.5807
6,062.99	81.5452	6,062.99	82.367	6,062.99	81.537	6,062.99	83.1105	6,062.99	82.137	6,062.99	84.4783	6,062.99	82.9867	6,062.99	84.572	6,062.99	84.1113	6,062.99	83.4659	6,062.99	84.3681	6,062.99	81.8767	6,062.99	83.4613	6,062.99	78.7969	6,062.99	81.5307	6,062.99	76.2367	6,062.99	79.1713	6,062.99	72.6283	6,062.99	76.4635	6,062.99	70.6488	6,062.99	72.5014	6,062.99	69.5762	6,062.99	69.8808	6,062.99	66.18	6,062.99	68.6903	6,062.99	64.9416	6,062.99	66.6996	6,062.99	68.5214	6,062.99	64.0628	6,062.99	68.5506	6,062.99	70.0432	6,062.99	70.8222	6,062.99	68.3207	6,062.99	47.0392	6,062.99	68.6109	6,062.99	49.7948
6,276.86	82.4432	6,276.86	83.2738	6,276.86	82.5094	6,276.86	84.0165	6,276.86	83.2356	6,276.86	84.6272	6,276.86	84.2336	6,276.86	84.5611	6,276.86	85.4351	6,276.86	83.4191	6,276.86	85.0222	6,276.86	81.4281	6,276.86	83.9265	6,276.86	79.4662	6,276.86	82.363	6,276.86	77.715	6,276.86	80.1728	6,276.86	75.0556	6,276.86	77.7364	6,276.86	71.4556	6,276.86	75.996	6,276.86	67.2338	6,276.86	72.6252	6,276.86	67.7531	6,276.86	68.6543	6,276.86	66.4405	6,276.86	67.9176	6,276.86	70.7936	6,276.86	65.069	6,276.86	68.2994	6,276.86	68.0324	6,276.86	69.8171	6,276.86	69.5942	6,276.86	54.8918	6,276.86	69.7572	6,276.86	49.3088
6,498.05	84.8677	6,498.05	84.7596	6,498.05	84.6014	6,498.05	83.7065	6,498.05	84.2053	6,498.05	84.3984	6,498.05	83.6052	6,498.05	84.7014	6,498.05	84.8041	6,498.05	83.9017	6,498.05	85.7118	6,498.05	82.8892	6,498.05	85.1886	6,498.05	80.8101	6,498.05	83.6292	6,498.05	78.8277	6,498.05	81.8137	6,498.05	76.3415	6,498.05	79.6129	6,498.05	73.3656	6,498.05	77.2823	6,498.05	71.8111	6,498.05	73.3798	6,498.05	66.4544	6,498.05	71.8832	6,498.05	64.9757	6,498.05	69.4666	6,498.05	70.7041	6,498.05	67.1112	6,498.05	71.3459	6,498.05	71.624	6,498.05	70.2122	6,498.05	71.3074	6,498.05	55.4303	6,498.05	70.5424	6,498.05	59.6117
6,727.29	85.6068	6,727.29	85.5498	6,727.29	85.2095	6,727.29	84.3538	6,727.29	84.9913	6,727.29	84.473	6,727.29	84.2152	6,727.29	85.36	6,727.29	84.7295	6,727.29	85.3574	6,727.29	85.4124	6,727.29	84.3401	6,727.29	85.3641	6,727.29	82.2254	6,727.29	84.3109	6,727.29	79.594	6,727.29	81.9409	6,727.29	76.5913	6,727.29	79.1468	6,727.29	73.2909	6,727.29	76.1325	6,727.29	71.2206	6,727.29	73.1573	6,727.29	69.1288	6,727.29	71.6395	6,727.29	66.0777	6,727.29	68.2511	6,727.29	68.2566	6,727.29	61.5573	6,727.29	70.3771	6,727.29	69.071	6,727.29	69.6741	6,727.29	70.9327	6,727.29	52.231	6,727.29	69.7183	6,727.29	48.4102
6,964.6	86.591	6,964.6	86.7139	6,964.6	86.1805	6,964.6	85.4234	6,964.6	85.9743	6,964.6	84.8889	6,964.6	84.8859	6,964.6	85.23	6,964.6	84.7534	6,964.6	84.855	6,964.6	85.7106	6,964.6	83.5348	6,964.6	85.552	6,964.6	80.8841	6,964.6	84.2399	6,964.6	77.8124	6,964.6	82.2071	6,964.6	75.024	6,964.6	79.5089	6,964.6	72.3323	6,964.6	76.4127	6,964.6	70.6641	6,964.6	72.6058	6,964.6	67.3267	6,964.6	71.2411	6,964.6	66.2781	6,964.6	70.6491	6,964.6	70.1024	6,964.6	65.5401	6,964.6	71.3859	6,964.6	70.1246	6,964.6	70.1779	6,964.6	70.3519	6,964.6	56.1295	6,964.6	68.4767	6,964.6	54.2398
7,209.96	86.7141	7,209.96	87.0572	7,209.96	86.0804	7,209.96	85.6489	7,209.96	86.396	7,209.96	84.5461	7,209.96	84.8879	7,209.96	84.2592	7,209.96	84.3918	7,209.96	84.1118	7,209.96	85.5178	7,209.96	83.3685	7,209.96	85.2701	7,209.96	81.4291	7,209.96	83.9144	7,209.96	78.6288	7,209.96	81.1686	7,209.96	75.495	7,209.96	78.1315	7,209.96	71.8888	7,209.96	75.3204	7,209.96	69.5881	7,209.96	72.1413	7,209.96	67.535	7,209.96	69.667	7,209.96	65.5454	7,209.96	66.6885	7,209.96	67.6857	7,209.96	60.8663	7,209.96	71.1302	7,209.96	70.3721	7,209.96	69.0893	7,209.96	71.5225	7,209.96	48.2122	7,209.96	67.365	7,209.96	51.9922
7,464.11	86.7422	7,464.11	86.6094	7,464.11	86.9809	7,464.11	85.3084	7,464.11	86.47	7,464.11	83.6713	7,464.11	84.0359	7,464.11	83.8715	7,464.11	83.8376	7,464.11	84.3107	7,464.11	85.4997	7,464.11	82.9846	7,464.11	85.2017	7,464.11	80.0249	7,464.11	83.2746	7,464.11	76.8896	7,464.11	80.835	7,464.11	74.8175	7,464.11	78.2689	7,464.11	70.7306	7,464.11	74.9196	7,464.11	68.3142	7,464.11	71.8528	7,464.11	65.1699	7,464.11	69.7833	7,464.11	66.5344	7,464.11	66.2167	7,464.11	68.3694	7,464.11	65.9321	7,464.11	69.6456	7,464.11	66.9505	7,464.11	69.2791	7,464.11	71.5935	7,464.11	52.4742	7,464.11	68.834	7,464.11	51.6022
7,727.78	87.0943	7,727.78	87.2958	7,727.78	87.1417	7,727.78	85.8602	7,727.78	86.883	7,727.78	83.4776	7,727.78	84.7143	7,727.78	83.2098	7,727.78	82.9916	7,727.78	82.856	7,727.78	84.0984	7,727.78	80.917	7,727.78	84.2354	7,727.78	78.3725	7,727.78	82.6633	7,727.78	75.8919	7,727.78	79.7605	7,727.78	73.376	7,727.78	76.8083	7,727.78	69.6864	7,727.78	74.74	7,727.78	68.3603	7,727.78	71.4156	7,727.78	62.6632	7,727.78	68.8375	7,727.78	63.6235	7,727.78	67.5022	7,727.78	67.2217	7,727.78	63.1923	7,727.78	70.4428	7,727.78	67.7294	7,727.78	68.3484	7,727.78	69.6836	7,727.78	50.9198	7,727.78	67.1988	7,727.78	52.0218
8,000.24	88.0343	8,000.24	88.1956	8,000.24	87.7185	8,000.24	86.6081	8,000.24	87.5294	8,000.24	84.1057	8,000.24	85.737	8,000.24	83.6049	8,000.24	84.0072	8,000.24	83.2021	8,000.24	84.1242	8,000.24	81.6526	8,000.24	83.5527	8,000.24	78.5643	8,000.24	81.7925	8,000.24	76.3972	8,000.24	78.9281	8,000.24	72.5827	8,000.24	76.404	8,000.24	68.9998	8,000.24	73.4182	8,000.24	67.3004	8,000.24	69.5923	8,000.24	62.7527	8,000.24	68.043	8,000.24	64.74	8,000.24	64.709	8,000.24	66.3814	8,000.24	62.4056	8,000.24	68.2856	8,000.24	66.7901	8,000.24	67.1775	8,000.24	69.8657	8,000.24	54.7577	8,000.24	65.5553	8,000.24	57.8527
8,282.23	89.1557	8,282.23	89.1051	8,282.23	89.1073	8,282.23	87.6244	8,282.23	88.5783	8,282.23	85.3123	8,282.23	86.3832	8,282.23	84.0907	8,282.23	84.9544	8,282.23	83.4475	8,282.23	85.2046	8,282.23	81.4653	8,282.23	85.008	8,282.23	78.4392	8,282.23	83.1261	8,282.23	76.1005	8,282.23	80.74	8,282.23	72.5238	8,282.23	77.7489	8,282.23	70.5213	8,282.23	74.405	8,282.23	69.3767	8,282.23	71.8941	8,282.23	62.8976	8,282.23	69.2978	8,282.23	61.9391	8,282.23	66.0522	8,282.23	64.2107	8,282.23	62.6132	8,282.23	69.1546	8,282.23	66.7058	8,282.23	68.6265	8,282.23	72.1761	8,282.23	58.9969	8,282.23	68.4975	8,282.23	58.9946
8,574.46	89.8731	8,574.46	89.3498	8,574.46	89.9085	8,574.46	88.034	8,574.46	89.2707	8,574.46	85.3272	8,574.46	87.4527	8,574.46	83.8031	8,574.46	84.6521	8,574.46	83.2164	8,574.46	84.8485	8,574.46	82.1938	8,574.46	84.844	8,574.46	80.9219	8,574.46	83.9001	8,574.46	78.0351	8,574.46	81.6266	8,574.46	73.5315	8,574.46	79.1888	8,574.46	72.0907	8,574.46	75.7161	8,574.46	69.3735	8,574.46	73.2607	8,574.46	64.3237	8,574.46	69.6227	8,574.46	64.5436	8,574.46	68.1645	8,574.46	64.8261	8,574.46	67.8024	8,574.46	69.9775	8,574.46	67.7292	8,574.46	68.7762	8,574.46	72.4899	8,574.46	47.9442	8,574.46	69.2818	8,574.46	57.1719
8,876.22	89.6502	8,876.22	88.9808	8,876.22	89.8055	8,876.22	87.7064	8,876.22	89.2352	8,876.22	85.1323	8,876.22	87.7875	8,876.22	83.9712	8,876.22	85.1535	8,876.22	83.6878	8,876.22	84.2188	8,876.22	82.5481	8,876.22	84.1777	8,876.22	80.9674	8,876.22	83.2765	8,876.22	78.2804	8,876.22	80.9043	8,876.22	74.8443	8,876.22	78.063	8,876.22	72.227	8,876.22	75.1789	8,876.22	68.4426	8,876.22	72.1608	8,876.22	63.9867	8,876.22	68.6046	8,876.22	64.5072	8,876.22	64.4462	8,876.22	64.5559	8,876.22	66.2628	8,876.22	70.1318	8,876.22	66.7639	8,876.22	67.5565	8,876.22	72.2026	8,876.22	56.1104	8,876.22	68.2179	8,876.22	53.9774
9,189.7	89.3992	9,189.7	88.3292	9,189.7	89.4816	9,189.7	87.5339	9,189.7	88.401	9,189.7	84.8694	9,189.7	87.0771	9,189.7	83.2218	9,189.7	84.6165	9,189.7	83.1777	9,189.7	83.523	9,189.7	82.8162	9,189.7	83.6309	9,189.7	80.6927	9,189.7	82.7099	9,189.7	78.3051	9,189.7	80.2209	9,189.7	74.8144	9,189.7	77.4607	9,189.7	71.2998	9,189.7	73.7558	9,189.7	68.3587	9,189.7	71.2461	9,189.7	65.5897	9,189.7	67.8716	9,189.7	64.9589	9,189.7	62.9791	9,189.7	65.2076	9,189.7	60.7735	9,189.7	68.7516	9,189.7	65.1394	9,189.7	67.1154	9,189.7	69.6191	9,189.7	45.3486	9,189.7	66.8351	9,189.7	58.5974
9,513.43	89.3655	9,513.43	88.1038	9,513.43	89.465	9,513.43	87.3659	9,513.43	87.9636	9,513.43	84.4828	9,513.43	86.9361	9,513.43	83.1815	9,513.43	83.8058	9,513.43	83.6678	9,513.43	82.1705	9,513.43	83.1529	9,513.43	82.952	9,513.43	80.8159	9,513.43	82.0126	9,513.43	77.9006	9,513.43	79.5784	9,513.43	72.8493	9,513.43	76.4944	9,513.43	71.3269	9,513.43	72.6579	9,513.43	68.784	9,513.43	70.7284	9,513.43	65.0323	9,513.43	67.7742	9,513.43	66.9026	9,513.43	65.5802	9,513.43	64.1102	9,513.43	60.3368	9,513.43	68.7682	9,513.43	63.8471	9,513.43	65.4056	9,513.43	68.7183	9,513.43	47.7669	9,513.43	64.6916	9,513.43	57.8877
9,848.88	89.5303	9,848.88	88.4876	9,848.88	89.5694	9,848.88	87.6328	9,848.88	88.1877	9,848.88	85.0776	9,848.88	87.1688	9,848.88	83.7965	9,848.88	83.9273	9,848.88	84.2365	9,848.88	82.9862	9,848.88	83.0337	9,848.88	83.1173	9,848.88	81.466	9,848.88	82.2221	9,848.88	77.0789	9,848.88	79.3208	9,848.88	72.5315	9,848.88	76.4118	9,848.88	70.8586	9,848.88	73.2307	9,848.88	67.7089	9,848.88	71.2862	9,848.88	65.0685	9,848.88	68.6797	9,848.88	66.1453	9,848.88	66.8643	9,848.88	64.3305	9,848.88	60.2697	9,848.88	67.7826	9,848.88	64.0829	9,848.88	63.5318	9,848.88	68.2741	9,848.88	52.6313	9,848.88	64.9349	9,848.88	54.7737
10,196.8	90.1111	10,196.8	89.0392	10,196.8	89.8642	10,196.8	87.9886	10,196.8	88.4209	10,196.8	85.5541	10,196.8	87.173	10,196.8	84.6513	10,196.8	84.5039	10,196.8	84.8688	10,196.8	84.078	10,196.8	83.8697	10,196.8	84.1056	10,196.8	81.3695	10,196.8	83.1044	10,196.8	76.7213	10,196.8	79.9682	10,196.8	74.0042	10,196.8	77.221	10,196.8	70.9434	10,196.8	73.376	10,196.8	67.9451	10,196.8	70.7626	10,196.8	64.4826	10,196.8	67.2571	10,196.8	64.4441	10,196.8	67.2601	10,196.8	64.4018	10,196.8	64.9202	10,196.8	66.6823	10,196.8	64.2256	10,196.8	64.9912	10,196.8	67.7517	10,196.8	51.5826	10,196.8	65.2445	10,196.8	53.625
10,556.4	90.1332	10,556.4	88.7064	10,556.4	90.3201	10,556.4	87.9005	10,556.4	88.5097	10,556.4	85.9155	10,556.4	87.3305	10,556.4	84.8847	10,556.4	85.0343	10,556.4	84.6802	10,556.4	84.2951	10,556.4	83.8891	10,556.4	84.4781	10,556.4	81.1102	10,556.4	83.3918	10,556.4	77.7551	10,556.4	80.764	10,556.4	73.9961	10,556.4	78.1665	10,556.4	71.263	10,556.4	73.7178	10,556.4	67.8743	10,556.4	72.0108	10,556.4	63.3449	10,556.4	68.6623	10,556.4	62.1022	10,556.4	65.0607	10,556.4	64.3706	10,556.4	63.9655	10,556.4	66.5215	10,556.4	64.569	10,556.4	64.8417	10,556.4	66.8739	10,556.4	48.3739	10,556.4	65.6918	10,556.4	57.258
10,928.5	89.5989	10,928.5	88.2002	10,928.5	89.9403	10,928.5	87.0925	10,928.5	88.3431	10,928.5	85.9507	10,928.5	87.254	10,928.5	84.416	10,928.5	85.0875	10,928.5	84.7507	10,928.5	84.5198	10,928.5	83.7917	10,928.5	84.5596	10,928.5	82.2611	10,928.5	83.8538	10,928.5	78.78	10,928.5	81.1767	10,928.5	73.4531	10,928.5	78.253	10,928.5	71.5351	10,928.5	74.6018	10,928.5	68.0327	10,928.5	72.702	10,928.5	63.6324	10,928.5	68.2592	10,928.5	63.8558	10,928.5	64.4205	10,928.5	62.6486	10,928.5	64.9585	10,928.5	64.0053	10,928.5	65.1157	10,928.5	63.8591	10,928.5	67.0913	10,928.5	54.8073	10,928.5	64.8571	10,928.5	55.8776
11,313.7	88.7378	11,313.7	87.4938	11,313.7	88.3734	11,313.7	86.0657	11,313.7	87.0223	11,313.7	85.4225	11,313.7	85.9726	11,313.7	84.2581	11,313.7	84.8882	11,313.7	84.6929	11,313.7	84.2709	11,313.7	83.7929	11,313.7	84.1774	11,313.7	82.2047	11,313.7	83.8715	11,313.7	78.5201	11,313.7	81.0702	11,313.7	74.3052	11,313.7	77.983	11,313.7	71.9515	11,313.7	74.3429	11,313.7	67.8333	11,313.7	72.4214	11,313.7	64.8337	11,313.7	67.438	11,313.7	63.7667	11,313.7	65.2191	11,313.7	59.1151	11,313.7	65.2377	11,313.7	62.0062	11,313.7	62.5207	11,313.7	61.2108	11,313.7	65.5554	11,313.7	53.0008	11,313.7	64.76	11,313.7	54.3271
11,712.9	86.5569	11,712.9	85.4924	11,712.9	87.0741	11,712.9	85.5909	11,712.9	85.8033	11,712.9	85.6409	11,712.9	85.229	11,712.9	84.2117	11,712.9	84.6994	11,712.9	83.9903	11,712.9	83.1306	11,712.9	83.2515	11,712.9	83.6896	11,712.9	80.8653	11,712.9	83.4437	11,712.9	77.6682	11,712.9	80.8728	11,712.9	73.7501	11,712.9	77.8095	11,712.9	71.1544	11,712.9	73.7999	11,712.9	66.6588	11,712.9	71.735	11,712.9	66.3269	11,712.9	66.888	11,712.9	62.9637	11,712.9	64.5688	11,712.9	54.9928	11,712.9	64.4936	11,712.9	62.0507	11,712.9	58.5922	11,712.9	59.4002	11,712.9	64.0002	11,712.9	44.5738	11,712.9	63.3067	11,712.9	49.1061
12,126	87.1371	12,126	87.2794	12,126	87.2932	12,126	87.2872	12,126	87.1525	12,126	86.669	12,126	86.7659	12,126	84.5244	12,126	85.2581	12,126	83.6529	12,126	83.0816	12,126	82.3477	12,126	82.8135	12,126	79.9727	12,126	82.1849	12,126	77.5247	12,126	79.4962	12,126	71.4841	12,126	76.9638	12,126	70.4497	12,126	72.2064	12,126	66.4988	12,126	70.1883	12,126	64.744	12,126	65.6089	12,126	61.3815	12,126	63.6259	12,126	49.8934	12,126	61.3981	12,126	60.5139	12,126	54.0952	12,126	57.5583	12,126	64.0077	12,126	38.9577	12,126	60.999	12,126	37.0884
12,553.7	89.8446	12,553.7	89.7274	12,553.7	89.8423	12,553.7	89.1837	12,553.7	89.5616	12,553.7	87.5739	12,553.7	88.6416	12,553.7	85.1482	12,553.7	86.4458	12,553.7	83.1122	12,553.7	83.9772	12,553.7	81.0149	12,553.7	82.5148	12,553.7	78.939	12,553.7	81.3792	12,553.7	75.947	12,553.7	78.1159	12,553.7	69.2183	12,553.7	75.5799	12,553.7	68.0901	12,553.7	69.096	12,553.7	62.3247	12,553.7	67.0636	12,553.7	61.7892	12,553.7	63.0929	12,553.7	57.5658	12,553.7	64.2146	12,553.7	54.6845	12,553.7	58.3652	12,553.7	58.9574	12,553.7	51.5722	12,553.7	56.1472	12,553.7	61.6764	12,553.7	48.9406	12,553.7	58.0327	12,553.7	49.0148
12,996.1	91.2985	12,996.1	90.7265	12,996.1	91.5374	12,996.1	90.0075	12,996.1	90.783	12,996.1	87.6817	12,996.1	89.6282	12,996.1	85.0316	12,996.1	86.9904	12,996.1	82.0132	12,996.1	83.9464	12,996.1	79.6286	12,996.1	81.2524	12,996.1	76.5322	12,996.1	79.1735	12,996.1	72.9236	12,996.1	75.2237	12,996.1	65.2782	12,996.1	71.5045	12,996.1	63.2805	12,996.1	64.3255	12,996.1	59.065	12,996.1	61.8856	12,996.1	58.3181	12,996.1	58.5466	12,996.1	52.8782	12,996.1	60.2877	12,996.1	41.723	12,996.1	57.5687	12,996.1	55.4367	12,996.1	46.2534	12,996.1	50.6709	12,996.1	54.1092	12,996.1	44.2776	12,996.1	53.4166	12,996.1	29.3971
13,454.6	91.6536	13,454.6	91.002	13,454.6	91.81	13,454.6	89.9104	13,454.6	90.8272	13,454.6	87.4646	13,454.6	89.4555	13,454.6	84.3071	13,454.6	86.377	13,454.6	80.978	13,454.6	83.1462	13,454.6	77.4697	13,454.6	79.5956	13,454.6	73.5114	13,454.6	76.1445	13,454.6	69.3125	13,454.6	70.8636	13,454.6	60.2192	13,454.6	65.045	13,454.6	60.8944	13,454.6	59.4058	13,454.6	56.0111	13,454.6	55.5935	13,454.6	52.539	13,454.6	53.6969	13,454.6	53.6914	13,454.6	50.5767	13,454.6	48.6704	13,454.6	56.665	13,454.6	51.4206	13,454.6	42.8694	13,454.6	44.0422	13,454.6	46.0003	13,454.6	39.9011	13,454.6	36.0434	13,454.6	41.9714
13,928.5	91.5841	13,928.5	90.8922	13,928.5	91.6208	13,928.5	89.4807	13,928.5	90.5152	13,928.5	86.6605	13,928.5	88.8768	13,928.5	83.1428	13,928.5	85.3263	13,928.5	79.8031	13,928.5	82.1242	13,928.5	75.1791	13,928.5	77.7632	13,928.5	71.2662	13,928.5	73.6457	13,928.5	67.6294	13,928.5	67.3416	13,928.5	62.655	13,928.5	63.1559	13,928.5	57.9911	13,928.5	59.5517	13,928.5	51.9335	13,928.5	59.2724	13,928.5	42.0205	13,928.5	54.6544	13,928.5	52.1485	13,928.5	47.6192	13,928.5	47.1286	13,928.5	50.2731	13,928.5	52.7601	13,928.5	48.7714	13,928.5	43.2412	13,928.5	48.4485	13,928.5	47.8095	13,928.5	46.8309	13,928.5	44.9601
14,419.9	91.8773	14,419.9	91.093	14,419.9	91.7964	14,419.9	89.4908	14,419.9	90.7386	14,419.9	86.1646	14,419.9	88.803	14,419.9	82.6089	14,419.9	84.9701	14,419.9	78.1818	14,419.9	81.3535	14,419.9	73.6876	14,419.9	76.1816	14,419.9	70.6608	14,419.9	73.2091	14,419.9	67.2097	14,419.9	68.534	14,419.9	63.7699	14,419.9	66.8668	14,419.9	59.6201	14,419.9	63.8454	14,419.9	54.803	14,419.9	59.3621	14,419.9	50.9563	14,419.9	53.5972	14,419.9	52.4981	14,419.9	55.1526	14,419.9	36.6778	14,419.9	52.1249	14,419.9	53.4937	14,419.9	49.1882	14,419.9	45.6568	14,419.9	50.4369	14,419.9	48.7123	14,419.9	52.2185	14,419.9	47.8161
14,928.2	92.0425	14,928.2	91.2644	14,928.2	92.0877	14,928.2	89.4396	14,928.2	90.9679	14,928.2	85.6991	14,928.2	88.8285	14,928.2	81.699	14,928.2	84.6206	14,928.2	76.6218	14,928.2	80.8075	14,928.2	73.7563	14,928.2	75.9374	14,928.2	70.8797	14,928.2	74.8684	14,928.2	66.4363	14,928.2	71.7028	14,928.2	63.7697	14,928.2	70.6314	14,928.2	58.5372	14,928.2	65.2602	14,928.2	54.6756	14,928.2	62.5324	14,928.2	53.2268	14,928.2	58.0096	14,928.2	52.9897	14,928.2	56.1037	14,928.2	43.4053	14,928.2	54.575	14,928.2	49.6292	14,928.2	46.7819	14,928.2	45.6965	14,928.2	50.7516	14,928.2	50.9067	14,928.2	55.3838	14,928.2	42.9459
15,454.8	91.4451	15,454.8	90.8622	15,454.8	91.4894	15,454.8	88.8551	15,454.8	90.5359	15,454.8	84.6307	15,454.8	88.1576	15,454.8	79.4582	15,454.8	83.3062	15,454.8	75.1003	15,454.8	79.4886	15,454.8	73.938	15,454.8	75.7555	15,454.8	70.0835	15,454.8	75.8349	15,454.8	65.7932	15,454.8	73.3718	15,454.8	63.9028	15,454.8	72.2585	15,454.8	60.3436	15,454.8	66.3201	15,454.8	58.4547	15,454.8	64.8867	15,454.8	53.0441	15,454.8	60.3323	15,454.8	52.9548	15,454.8	59.8281	15,454.8	44.6343	15,454.8	56.2663	15,454.8	50.2107	15,454.8	39.4056	15,454.8	52.1423	15,454.8	49.9941	15,454.8	49.7719	15,454.8	55.6131	15,454.8	42.3281
15,999.8	90.2308	15,999.8	89.7511	15,999.8	90.3355	15,999.8	87.6649	15,999.8	89.5239	15,999.8	82.5112	15,999.8	87.0155	15,999.8	77.2495	15,999.8	81.3677	15,999.8	74.0987	15,999.8	77.5061	15,999.8	73.9076	15,999.8	75.6484	15,999.8	69.4841	15,999.8	76.5362	15,999.8	69.3769	15,999.8	74.3434	15,999.8	65.8301	15,999.8	73.207	15,999.8	61.9161	15,999.8	67.7875	15,999.8	61.0964	15,999.8	65.6537	15,999.8	52.4209	15,999.8	62.3708	15,999.8	52.6128	15,999.8	61.6479	15,999.8	39.2473	15,999.8	54.8067	15,999.8	49.4581	15,999.8	40.0679	15,999.8	52.4578	15,999.8	48.5937	15,999.8	51.7151	15,999.8	57.5795	15,999.8	45.9436
16,564.5	89.1724	16,564.5	88.869	16,564.5	89.1035	16,564.5	86.2928	16,564.5	88.4539	16,564.5	80.6281	16,564.5	85.8421	16,564.5	77.5571	16,564.5	80.1607	16,564.5	74.5542	16,564.5	77.6756	16,564.5	74.0358	16,564.5	76.9682	16,564.5	70.3871	16,564.5	76.9356	16,564.5	69.6722	16,564.5	75.1775	16,564.5	65.7638	16,564.5	73.3586	16,564.5	60.3697	16,564.5	68.4334	16,564.5	59.2718	16,564.5	65.2239	16,564.5	55.0894	16,564.5	63.1324	16,564.5	54.6496	16,564.5	61.4955	16,564.5	46.0953	16,564.5	53.3156	16,564.5	50.9298	16,564.5	36.7322	16,564.5	52.8879	16,564.5	42.8125	16,564.5	52.5536	16,564.5	56.0654	16,564.5	44.0233
17,148.2	88.4508	17,148.2	88.0898	17,148.2	88.1416	17,148.2	85.1725	17,148.2	87.4576	17,148.2	80.5066	17,148.2	85.1913	17,148.2	78.2534	17,148.2	80.3787	17,148.2	74.7166	17,148.2	79.1257	17,148.2	73.9631	17,148.2	78.3597	17,148.2	71.4118	17,148.2	76.6081	17,148.2	69.4541	17,148.2	74.9592	17,148.2	65.8034	17,148.2	72.5355	17,148.2	61.1127	17,148.2	67.1727	17,148.2	59.7558	17,148.2	63.3542	17,148.2	54.4347	17,148.2	62.6443	17,148.2	52.4599	17,148.2	59.8195	17,148.2	43.6249	17,148.2	51.2561	17,148.2	51.8248	17,148.2	40.4799	17,148.2	50.3018	17,148.2	45.7128	17,148.2	51.4405	17,148.2	52.5094	17,148.2	46.3728
17,753.2	87.4755	17,753.2	86.8609	17,753.2	86.9766	17,753.2	83.6462	17,753.2	86.311	17,753.2	80.1344	17,753.2	84.2897	17,753.2	77.8811	17,753.2	80.5503	17,753.2	74.7282	17,753.2	79.9712	17,753.2	73.3808	17,753.2	78.1062	17,753.2	73.4472	17,753.2	74.634	17,753.2	70.6806	17,753.2	73.2644	17,753.2	68.7893	17,753.2	70.8934	17,753.2	61.4823	17,753.2	65.0549	17,753.2	60.1815	17,753.2	61.5778	17,753.2	56.799	17,753.2	62.1889	17,753.2	54.1914	17,753.2	57.0806	17,753.2	38.6561	17,753.2	45.1186	17,753.2	53.9384	17,753.2	43.119	17,753.2	47.9823	17,753.2	45.9873	17,753.2	50.7462	17,753.2	48.9292	17,753.2	47.4888
18,379.4	86.0483	18,379.4	84.6499	18,379.4	85.6244	18,379.4	81.959	18,379.4	84.7851	18,379.4	79.5692	18,379.4	82.9418	18,379.4	77.243	18,379.4	80.8187	18,379.4	74.1943	18,379.4	79.585	18,379.4	73.5822	18,379.4	75.8156	18,379.4	74.2607	18,379.4	72.5987	18,379.4	70.6565	18,379.4	71.418	18,379.4	68.9425	18,379.4	69.7027	18,379.4	61.3602	18,379.4	62.2386	18,379.4	60.1481	18,379.4	59.2806	18,379.4	56.9975	18,379.4	60.5497	18,379.4	55.0599	18,379.4	57.3151	18,379.4	29.4348	18,379.4	37.1862	18,379.4	53.7079	18,379.4	48.4042	18,379.4	39.6245	18,379.4	40.0965	18,379.4	45.4835	18,379.4	45.7141	18,379.4	41.7127
19,027.6	85.4609	19,027.6	83.6559	19,027.6	85.5609	19,027.6	81.4465	19,027.6	84.592	19,027.6	79.0674	19,027.6	82.5778	19,027.6	75.9553	19,027.6	80.925	19,027.6	73.6593	19,027.6	77.943	19,027.6	73.3381	19,027.6	73.7965	19,027.6	72.2231	19,027.6	72.675	19,027.6	67.2941	19,027.6	69.6429	19,027.6	65.7917	19,027.6	68.0339	19,027.6	58.393	19,027.6	60.0097	19,027.6	57.4191	19,027.6	57.2007	19,027.6	54.7872	19,027.6	58.8793	19,027.6	52.6636	19,027.6	54.2459	19,027.6	39.08	19,027.6	41.6318	19,027.6	50.1157	19,027.6	47.4944	19,027.6	44.7768	19,027.6	38.9243	19,027.6	41.687	19,027.6	45.0055	19,027.6	32.8724
19,698.5	84.1288	19,698.5	81.8525	19,698.5	84.6542	19,698.5	80.0042	19,698.5	83.4554	19,698.5	77.8358	19,698.5	81.635	19,698.5	74.3241	19,698.5	79.7095	19,698.5	74.185	19,698.5	75.3229	19,698.5	71.9204	19,698.5	73.3908	19,698.5	70.0939	19,698.5	71.552	19,698.5	64.6924	19,698.5	68.9242	19,698.5	63.2523	19,698.5	66.4679	19,698.5	56.4268	19,698.5	63.8187	19,698.5	55.8499	19,698.5	57.1266	19,698.5	53.9166	19,698.5	58.0093	19,698.5	48.4817	19,698.5	53.5254	19,698.5	45.1747	19,698.5	43.7674	19,698.5	47.2566	19,698.5	40.9628	19,698.5	46.1962	19,698.5	45.0587	19,698.5	43.0437	19,698.5	40.0554	19,698.5	41.5791
19,999.5	81.9265	19,999.5	79.5195	19,999.5	82.8434	19,999.5	78.6546	19,999.5	81.142	19,999.5	77.1253	19,999.5	80.1641	19,999.5	74.0481	19,999.5	78.1881	19,999.5	75.2522	19,999.5	74.7966	19,999.5	72.0117	19,999.5	73.7476	19,999.5	70.5493	19,999.5	71.5876	19,999.5	65.4988	19,999.5	70.2641	19,999.5	63.7733	19,999.5	67.5448	19,999.5	57.7508	19,999.5	65.722	19,999.5	56.3847	19,999.5	58.4345	19,999.5	55.0852	19,999.5	58.207	19,999.5	49.5084	19,999.5	55.3164	19,999.5	47.1368	19,999.5	45.0191	19,999.5	50.8925	19,999.5	41.3084	19,999.5	50.5898	19,999.5	51.2253	19,999.5	44.5585	19,999.5	42.0199	19,999.5	44.4417
