"SPL Vertical"																																																																							
"On-Axis"		"10°"		"-10°"		"20°"		"-20°"		"30°"		"-30°"		"40°"		"-40°"		"50°"		"-50°"		"60°"		"-60°"		"70°"		"-70°"		"80°"		"-80°"		"90°"		"-90°"		"100°"		"-100°"		"110°"		"-110°"		"120°"		"-120°"		"130°"		"-130°"		"140°"		"-140°"		"150°"		"-150°"		"160°"		"-160°"		"170°"		"-170°"		"180°"	
"Frequency [Hz]"	"Sound Pessure Level [dB]  / [2.83V 1m] "	"Frequency [Hz]"	"Sound Pessure Level [dB]  / [2.83V 1m] "	"Frequency [Hz]"	"Sound Pessure Level [dB]  / [2.83V 1m] "	"Frequency [Hz]"	"Sound Pessure Level [dB]  / [2.83V 1m] "	"Frequency [Hz]"	"Sound Pessure Level [dB]  / [2.83V 1m] "	"Frequency [Hz]"	"Sound Pessure Level [dB]  / [2.83V 1m] "	"Frequency [Hz]"	"Sound Pessure Level [dB]  / [2.83V 1m] "	"Frequency [Hz]"	"Sound Pessure Level [dB]  / [2.83V 1m] "	"Frequency [Hz]"	"Sound Pessure Level [dB]  / [2.83V 1m] "	"Frequency [Hz]"	"Sound Pessure Level [dB]  / [2.83V 1m] "	"Frequency [Hz]"	"Sound Pessure Level [dB]  / [2.83V 1m] "	"Frequency [Hz]"	"Sound Pessure Level [dB]  / [2.83V 1m] "	"Frequency [Hz]"	"Sound Pessure Level [dB]  / [2.83V 1m] "	"Frequency [Hz]"	"Sound Pessure Level [dB]  / [2.83V 1m] "	"Frequency [Hz]"	"Sound Pessure Level [dB]  / [2.83V 1m] "	"Frequency [Hz]"	"Sound Pessure Level [dB]  / [2.83V 1m] "	"Frequency [Hz]"	"Sound Pessure Level [dB]  / [2.83V 1m] "	"Frequency [Hz]"	"Sound Pessure Level [dB]  / [2.83V 1m] "	"Frequency [Hz]"	"Sound Pessure Level [dB]  / [2.83V 1m] "	"Frequency [Hz]"	"Sound Pessure Level [dB]  / [2.83V 1m] "	"Frequency [Hz]"	"Sound Pessure Level [dB]  / [2.83V 1m] "	"Frequency [Hz]"	"Sound Pessure Level [dB]  / [2.83V 1m] "	"Frequency [Hz]"	"Sound Pessure Level [dB]  / [2.83V 1m] "	"Frequency [Hz]"	"Sound Pessure Level [dB]  / [2.83V 1m] "	"Frequency [Hz]"	"Sound Pessure Level [dB]  / [2.83V 1m] "	"Frequency [Hz]"	"Sound Pessure Level [dB]  / [2.83V 1m] "	"Frequency [Hz]"	"Sound Pessure Level [dB]  / [2.83V 1m] "	"Frequency [Hz]"	"Sound Pessure Level [dB]  / [2.83V 1m] "	"Frequency [Hz]"	"Sound Pessure Level [dB]  / [2.83V 1m] "	"Frequency [Hz]"	"Sound Pessure Level [dB]  / [2.83V 1m] "	"Frequency [Hz]"	"Sound Pessure Level [dB]  / [2.83V 1m] "	"Frequency [Hz]"	"Sound Pessure Level [dB]  / [2.83V 1m] "	"Frequency [Hz]"	"Sound Pessure Level [dB]  / [2.83V 1m] "	"Frequency [Hz]"	"Sound Pessure Level [dB]  / [2.83V 1m] "	"Frequency [Hz]"	"Sound Pessure Level [dB]  / [2.83V 1m] "	"Frequency [Hz]"	"Sound Pessure Level [dB]  / [2.83V 1m] "
20.5078	49.9062	20.5078	49.7724	20.5078	50.0437	20.5078	49.6453	20.5078	50.1792	20.5078	49.5255	20.5078	50.3034	20.5078	49.4133	20.5078	50.4037	20.5078	49.3091	20.5078	50.4656	20.5078	49.2133	20.5078	50.4751	20.5078	49.1263	20.5078	50.4199	20.5078	49.0473	20.5078	50.2913	20.5078	48.9737	20.5078	50.0848	20.5078	48.9006	20.5078	49.8008	20.5078	48.821	20.5078	49.4462	20.5078	48.7257	20.5078	49.0376	20.5078	48.605	20.5078	48.6047	20.5078	48.4514	20.5078	48.192	20.5078	48.2629	20.5078	47.8544	20.5078	48.0486	20.5078	47.643	20.5078	47.8336	20.5078	47.5828	20.5078	47.6609
21.2402	42.6258	21.2402	42.3554	21.2402	43.0618	21.2402	42.2881	21.2402	43.5943	21.2402	42.4157	21.2402	44.145	21.2402	42.6935	21.2402	44.645	21.2402	43.0623	21.2402	45.0414	21.2402	43.4667	21.2402	45.2967	21.2402	43.864	21.2402	45.3838	21.2402	44.2238	21.2402	45.2822	21.2402	44.5249	21.2402	44.973	21.2402	44.7507	21.2402	44.4384	21.2402	44.8858	21.2402	43.6637	21.2402	44.9126	21.2402	42.6504	21.2402	44.8094	21.2402	41.4529	21.2402	44.5496	21.2402	40.2579	21.2402	44.1029	21.2402	39.4667	21.2402	43.4405	21.2402	39.5043	21.2402	42.5475	21.2402	40.3199	21.2402	41.4564
21.9727	45.3564	21.9727	46.1949	21.9727	44.4188	21.9727	46.9319	21.9727	43.3937	21.9727	47.5698	21.9727	42.308	21.9727	48.1135	21.9727	41.2106	21.9727	48.5686	21.9727	40.1799	21.9727	48.9405	21.9727	39.3241	21.9727	49.2345	21.9727	38.7665	21.9727	49.4557	21.9727	38.6104	21.9727	49.6084	21.9727	38.8997	21.9727	49.6967	21.9727	39.5992	21.9727	49.7231	21.9727	40.6093	21.9727	49.6884	21.9727	41.7996	21.9727	49.5907	21.9727	43.046	21.9727	49.4244	21.9727	44.2528	21.9727	49.1805	21.9727	45.359	21.9727	48.8468	21.9727	46.3328	21.9727	48.4089	21.9727	47.1632	21.9727	47.8521
22.7051	52.1882	22.7051	52.4295	22.7051	51.9335	22.7051	52.6506	22.7051	51.6738	22.7051	52.8461	22.7051	51.419	22.7051	53.012	22.7051	51.1794	22.7051	53.1454	22.7051	50.9653	22.7051	53.2445	22.7051	50.7852	22.7051	53.3086	22.7051	50.6456	22.7051	53.3382	22.7051	50.5514	22.7051	53.335	22.7051	50.507	22.7051	53.3016	22.7051	50.5175	22.7051	53.2416	22.7051	50.5878	22.7051	53.1582	22.7051	50.7204	22.7051	53.0542	22.7051	50.9117	22.7051	52.9308	22.7051	51.1501	22.7051	52.7872	22.7051	51.4177	22.7051	52.621	22.7051	51.6942	22.7051	52.429	22.7051	51.9621	22.7051	52.209
23.4375	55.6858	23.4375	55.7634	23.4375	55.6011	23.4375	55.8321	23.4375	55.5106	23.4375	55.8897	23.4375	55.4155	23.4375	55.9342	23.4375	55.3167	23.4375	55.9637	23.4375	55.2148	23.4375	55.9763	23.4375	55.1111	23.4375	55.9709	23.4375	55.0077	23.4375	55.9471	23.4375	54.9083	23.4375	55.9051	23.4375	54.8185	23.4375	55.8464	23.4375	54.7454	23.4375	55.7732	23.4375	54.6965	23.4375	55.6884	23.4375	54.6777	23.4375	55.5953	23.4375	54.6915	23.4375	55.4971	23.4375	54.7359	23.4375	55.3961	23.4375	54.8052	23.4375	55.2939	23.4375	54.8917	23.4375	55.1914	23.4375	54.9881	23.4375	55.0891
24.1699	55.0169	24.1699	54.9553	24.1699	55.0794	24.1699	54.8966	24.1699	55.1391	24.1699	54.841	24.1699	55.1901	24.1699	54.7872	24.1699	55.2257	24.1699	54.733	24.1699	55.2387	24.1699	54.6761	24.1699	55.2227	24.1699	54.6141	24.1699	55.1732	24.1699	54.5452	24.1699	55.0889	24.1699	54.4686	24.1699	54.9721	24.1699	54.3847	24.1699	54.8287	24.1699	54.2953	24.1699	54.6679	24.1699	54.2035	24.1699	54.5008	24.1699	54.1137	24.1699	54.3391	24.1699	54.0311	24.1699	54.193	24.1699	53.9615	24.1699	54.0705	24.1699	53.9105	24.1699	53.9767	24.1699	53.8832	24.1699	53.9143	24.1699	53.8836
25.6348	53.1169	25.6348	53.2291	25.6348	53.0417	25.6348	53.3691	25.6348	53.0079	25.6348	53.5254	25.6348	53.0133	25.6348	53.6861	25.6348	53.0491	25.6348	53.8408	25.6348	53.1019	25.6348	53.9809	25.6348	53.1567	25.6348	54.0996	25.6348	53.2003	25.6348	54.1921	25.6348	53.224	25.6348	54.2549	25.6348	53.2249	25.6348	54.2856	25.6348	53.206	25.6348	54.2827	25.6348	53.1752	25.6348	54.2458	25.6348	53.1437	25.6348	54.1754	25.6348	53.1244	25.6348	54.0741	25.6348	53.1293	25.6348	53.9464	25.6348	53.1673	25.6348	53.7994	25.6348	53.2424	25.6348	53.6432	25.6348	53.3524	25.6348	53.4898
26.3672	55.0423	26.3672	55.2863	26.3672	54.8039	26.3672	55.5243	26.3672	54.5832	26.3672	55.7463	26.3672	54.3912	26.3672	55.9449	26.3672	54.2356	26.3672	56.1145	26.3672	54.119	26.3672	56.2515	26.3672	54.039	26.3672	56.3534	26.3672	53.9894	26.3672	56.4189	26.3672	53.9627	26.3672	56.4468	26.3672	53.9532	26.3672	56.4366	26.3672	53.9586	26.3672	56.3875	26.3672	53.9812	26.3672	56.2993	26.3672	54.027	26.3672	56.1723	26.3672	54.1041	26.3672	56.0074	26.3672	54.2203	26.3672	55.8076	26.3672	54.3796	26.3672	55.5783	26.3672	54.5802	26.3672	55.3279	26.3672	54.8141	26.3672	55.0684
27.0996	57.6447	27.0996	57.8198	27.0996	57.465	27.0996	57.9832	27.0996	57.2885	27.0996	58.1292	27.0996	57.123	27.0996	58.2536	27.0996	56.975	27.0996	58.3535	27.0996	56.8489	27.0996	58.4269	27.0996	56.7463	27.0996	58.4731	27.0996	56.666	27.0996	58.4915	27.0996	56.6056	27.0996	58.482	27.0996	56.5622	27.0996	58.4447	27.0996	56.5346	27.0996	58.3797	27.0996	56.5244	27.0996	58.2871	27.0996	56.5356	27.0996	58.1676	27.0996	56.5741	27.0996	58.0224	27.0996	56.6459	27.0996	57.8538	27.0996	56.7541	27.0996	57.6665	27.0996	56.8979	27.0996	57.467	27.0996	57.0714	27.0996	57.265
27.832	59.2951	27.832	59.4029	27.832	59.1818	27.832	59.5008	27.832	59.0674	27.832	59.5854	27.832	58.9564	27.832	59.654	27.832	58.8523	27.832	59.7049	27.832	58.7572	27.832	59.7368	27.832	58.6718	27.832	59.7492	27.832	58.5953	27.832	59.742	27.832	58.5263	27.832	59.7154	27.832	58.4637	27.832	59.6695	27.832	58.4082	27.832	59.6047	27.832	58.3629	27.832	59.5213	27.832	58.3331	27.832	59.4202	27.832	58.3255	27.832	59.3025	27.832	58.3465	27.832	59.1703	27.832	58.3999	27.832	59.0275	27.832	58.4857	27.832	58.8795	27.832	58.5995	27.832	58.7338
29.2969	61.6336	29.2969	61.6764	29.2969	61.5832	29.2969	61.7097	29.2969	61.5274	29.2969	61.7319	29.2969	61.4679	29.2969	61.7415	29.2969	61.406	29.2969	61.7378	29.2969	61.3422	29.2969	61.7204	29.2969	61.2764	29.2969	61.6893	29.2969	61.2079	29.2969	61.6453	29.2969	61.1359	29.2969	61.5892	29.2969	61.0605	29.2969	61.5225	29.2969	60.9833	29.2969	61.4466	29.2969	60.9078	29.2969	61.3636	29.2969	60.8395	29.2969	61.2754	29.2969	60.7847	29.2969	61.1841	29.2969	60.7495	29.2969	61.0923	29.2969	60.7381	29.2969	61.003	29.2969	60.7518	29.2969	60.9197	29.2969	60.7893	29.2969	60.8468
30.0293	62.5457	30.0293	62.5703	30.0293	62.5124	30.0293	62.585	30.0293	62.4716	30.0293	62.5888	30.0293	62.4238	30.0293	62.5806	30.0293	62.3695	30.0293	62.5597	30.0293	62.3086	30.0293	62.5257	30.0293	62.2409	30.0293	62.4787	30.0293	62.1661	30.0293	62.4194	30.0293	62.0844	30.0293	62.3488	30.0293	61.9973	30.0293	62.2688	30.0293	61.9073	30.0293	62.1816	30.0293	61.8186	30.0293	62.09	30.0293	61.7368	30.0293	61.997	30.0293	61.6675	30.0293	61.9059	30.0293	61.6157	30.0293	61.82	30.0293	61.585	30.0293	61.7424	30.0293	61.5768	30.0293	61.6763	30.0293	61.5907	30.0293	61.6248
31.4941	63.456	31.4941	63.4159	31.4941	63.4881	31.4941	63.3688	31.4941	63.511	31.4941	63.3148	31.4941	63.5224	31.4941	63.2538	31.4941	63.5197	31.4941	63.1853	31.4941	63.5002	31.4941	63.1092	31.4941	63.4616	31.4941	63.0255	31.4941	63.4027	31.4941	62.9351	31.4941	63.3237	31.4941	62.8392	31.4941	63.2265	31.4941	62.7403	31.4941	63.1148	31.4941	62.6414	31.4941	62.9935	31.4941	62.5468	31.4941	62.8682	31.4941	62.4611	31.4941	62.7447	31.4941	62.3895	31.4941	62.6284	31.4941	62.3365	31.4941	62.524	31.4941	62.3062	31.4941	62.4357	31.4941	62.301	31.4941	62.3673	31.4941	62.3217
32.2266	63.5537	32.2266	63.5237	32.2266	63.5788	32.2266	63.4895	32.2266	63.5977	32.2266	63.4507	32.2266	63.6079	32.2266	63.4068	32.2266	63.6066	32.2266	63.3567	32.2266	63.5904	32.2266	63.2996	32.2266	63.5566	32.2266	63.2349	32.2266	63.5035	32.2266	63.1626	32.2266	63.431	32.2266	63.0835	32.2266	63.341	32.2266	62.9989	32.2266	63.2372	32.2266	62.9113	32.2266	63.1246	32.2266	62.824	32.2266	63.0091	32.2266	62.741	32.2266	62.8966	32.2266	62.667	32.2266	62.7927	32.2266	62.6068	32.2266	62.7023	32.2266	62.565	32.2266	62.6295	32.2266	62.5451	32.2266	62.5776	32.2266	62.5492
33.6914	64.383	33.6914	64.3881	33.6914	64.3794	33.6914	64.3941	33.6914	64.3771	33.6914	64.3999	33.6914	64.3749	33.6914	64.404	33.6914	64.3707	33.6914	64.4046	33.6914	64.3623	33.6914	64.4004	33.6914	64.3471	33.6914	64.39	33.6914	64.3235	33.6914	64.3725	33.6914	64.2909	33.6914	64.3474	33.6914	64.2501	33.6914	64.3149	33.6914	64.2032	33.6914	64.2756	33.6914	64.1534	33.6914	64.2306	33.6914	64.104	33.6914	64.1819	33.6914	64.0586	33.6914	64.132	33.6914	64.0205	33.6914	64.084	33.6914	63.9922	33.6914	64.0412	33.6914	63.9759	33.6914	64.0067	33.6914	63.9728	33.6914	63.9833
34.4238	65.0082	34.4238	65.021	34.4238	64.9963	34.4238	65.0339	34.4238	64.9857	34.4238	65.0456	34.4238	64.9759	34.4238	65.0547	34.4238	64.9659	34.4238	65.0598	34.4238	64.9539	34.4238	65.0597	34.4238	64.9382	34.4238	65.0533	34.4238	64.9171	34.4238	65.0401	34.4238	64.89	34.4238	65.0196	34.4238	64.8569	34.4238	64.9918	34.4238	64.8192	34.4238	64.957	34.4238	64.779	34.4238	64.9163	34.4238	64.7392	34.4238	64.871	34.4238	64.7029	34.4238	64.8233	34.4238	64.6733	34.4238	64.7757	34.4238	64.653	34.4238	64.7313	34.4238	64.6442	34.4238	64.6934	34.4238	64.6482	34.4238	64.665
35.8887	66.8009	35.8887	66.814	35.8887	66.7864	35.8887	66.8249	35.8887	66.7713	35.8887	66.8328	35.8887	66.7558	35.8887	66.8369	35.8887	66.7398	35.8887	66.8365	35.8887	66.7229	35.8887	66.8312	35.8887	66.7041	35.8887	66.8206	35.8887	66.6827	35.8887	66.8046	35.8887	66.6576	35.8887	66.7832	35.8887	66.6285	35.8887	66.7564	35.8887	66.5958	35.8887	66.7245	35.8887	66.5607	35.8887	66.6882	35.8887	66.5252	35.8887	66.6482	35.8887	66.4923	35.8887	66.6059	35.8887	66.4651	35.8887	66.5634	35.8887	66.4467	35.8887	66.5231	35.8887	66.4392	35.8887	66.4879	35.8887	66.444	35.8887	66.4607
37.3535	68.2801	37.3535	68.2736	37.3535	68.2832	37.3535	68.2633	37.3535	68.2829	37.3535	68.2492	37.3535	68.2793	37.3535	68.2311	37.3535	68.2722	37.3535	68.2094	37.3535	68.261	37.3535	68.1841	37.3535	68.2452	37.3535	68.1556	37.3535	68.2238	37.3535	68.1245	37.3535	68.196	37.3535	68.0911	37.3535	68.1614	37.3535	68.0561	37.3535	68.12	37.3535	68.0199	37.3535	68.0731	37.3535	67.9833	37.3535	68.0228	37.3535	67.9472	37.3535	67.9722	37.3535	67.9128	37.3535	67.925	37.3535	67.8819	37.3535	67.8848	37.3535	67.8566	37.3535	67.8549	37.3535	67.8393	37.3535	67.8372	37.3535	67.8322
38.8184	69.2709	38.8184	69.2536	38.8184	69.283	38.8184	69.2315	38.8184	69.2897	38.8184	69.2049	38.8184	69.2909	38.8184	69.1741	38.8184	69.2861	38.8184	69.1399	38.8184	69.2751	38.8184	69.1029	38.8184	69.2571	38.8184	69.0638	38.8184	69.2319	38.8184	69.0234	38.8184	69.1988	38.8184	68.9827	38.8184	69.1578	38.8184	68.9423	38.8184	69.1096	38.8184	68.903	38.8184	69.0553	38.8184	68.8658	38.8184	68.9974	38.8184	68.8315	38.8184	68.939	38.8184	68.8013	38.8184	68.8836	38.8184	68.7767	38.8184	68.8349	38.8184	68.7594	38.8184	68.7959	38.8184	68.7512	38.8184	68.7686	38.8184	68.7538
39.5508	69.821	39.5508	69.8037	39.5508	69.8333	39.5508	69.7818	39.5508	69.8404	39.5508	69.7556	39.5508	69.8417	39.5508	69.7257	39.5508	69.837	39.5508	69.6925	39.5508	69.8257	39.5508	69.6567	39.5508	69.8073	39.5508	69.619	39.5508	69.7813	39.5508	69.58	39.5508	69.7473	39.5508	69.5405	39.5508	69.7054	39.5508	69.5012	39.5508	69.6563	39.5508	69.4628	39.5508	69.6015	39.5508	69.4261	39.5508	69.5435	39.5508	69.392	39.5508	69.4855	39.5508	69.3616	39.5508	69.4312	39.5508	69.3363	39.5508	69.3841	39.5508	69.318	39.5508	69.3471	39.5508	69.3083	39.5508	69.3219	39.5508	69.3092
41.0156	70.9411	41.0156	70.908	41.0156	70.9685	41.0156	70.8699	41.0156	70.9893	41.0156	70.8276	41.0156	71.0031	41.0156	70.7821	41.0156	71.0091	41.0156	70.7346	41.0156	71.0069	41.0156	70.6863	41.0156	70.9959	41.0156	70.6386	41.0156	70.9758	41.0156	70.5927	41.0156	70.9464	41.0156	70.5501	41.0156	70.908	41.0156	70.512	41.0156	70.8614	41.0156	70.4794	41.0156	70.8082	41.0156	70.453	41.0156	70.7504	41.0156	70.4337	41.0156	70.6908	41.0156	70.4219	41.0156	70.6323	41.0156	70.4179	41.0156	70.5777	41.0156	70.4223	41.0156	70.5294	41.0156	70.4354	41.0156	70.489	41.0156	70.4576
42.4805	71.6673	42.4805	71.6271	42.4805	71.7011	42.4805	71.5816	42.4805	71.7277	42.4805	71.5319	42.4805	71.746	42.4805	71.4789	42.4805	71.755	42.4805	71.4239	42.4805	71.7539	42.4805	71.3679	42.4805	71.742	42.4805	71.3121	42.4805	71.7191	42.4805	71.2579	42.4805	71.6849	42.4805	71.2065	42.4805	71.6401	42.4805	71.1594	42.4805	71.5855	42.4805	71.1178	42.4805	71.5228	42.4805	71.0831	42.4805	71.4543	42.4805	71.0567	42.4805	71.3827	42.4805	71.0397	42.4805	71.3112	42.4805	71.0335	42.4805	71.243	42.4805	71.0388	42.4805	71.1812	42.4805	71.0564	42.4805	71.1284	42.4805	71.0864
43.9453	72.3951	43.9453	72.3485	43.9453	72.4348	43.9453	72.2964	43.9453	72.4666	43.9453	72.2398	43.9453	72.4891	43.9453	72.18	43.9453	72.5012	43.9453	72.1181	43.9453	72.5018	43.9453	72.0554	43.9453	72.4904	43.9453	71.9931	43.9453	72.4663	43.9453	71.9328	43.9453	72.4299	43.9453	71.8758	43.9453	72.3817	43.9453	71.8238	43.9453	72.3229	43.9453	71.7785	43.9453	72.2553	43.9453	71.7414	43.9453	72.1812	43.9453	71.7143	43.9453	72.1035	43.9453	71.6985	43.9453	72.0251	43.9453	71.6954	43.9453	71.9494	43.9453	71.7057	43.9453	71.8794	43.9453	71.7299	43.9453	71.8181	43.9453	71.7677
45.4102	72.9278	45.4102	72.8788	45.4102	72.971	45.4102	72.8253	45.4102	73.0068	45.4102	72.7685	45.4102	73.034	45.4102	72.7098	45.4102	73.0511	45.4102	72.6503	45.4102	73.0571	45.4102	72.5914	45.4102	73.051	45.4102	72.5342	45.4102	73.0324	45.4102	72.48	45.4102	73.0016	45.4102	72.4303	45.4102	72.9591	45.4102	72.3864	45.4102	72.9062	45.4102	72.3496	45.4102	72.8447	45.4102	72.3212	45.4102	72.7768	45.4102	72.3026	45.4102	72.705	45.4102	72.2948	45.4102	72.632	45.4102	72.2987	45.4102	72.5607	45.4102	72.3147	45.4102	72.4939	45.4102	72.343	45.4102	72.434	45.4102	72.3831
47.6074	74.022	47.6074	73.9738	47.6074	74.064	47.6074	73.9207	47.6074	74.0984	47.6074	73.8641	47.6074	74.1239	47.6074	73.8055	47.6074	74.1395	47.6074	73.7462	47.6074	74.1443	47.6074	73.6878	47.6074	74.1376	47.6074	73.6316	47.6074	74.1194	47.6074	73.5791	47.6074	74.0897	47.6074	73.5318	47.6074	74.0495	47.6074	73.491	47.6074	73.9998	47.6074	73.4578	47.6074	73.9424	47.6074	73.4336	47.6074	73.8793	47.6074	73.4191	47.6074	73.8126	47.6074	73.4151	47.6074	73.7447	47.6074	73.4222	47.6074	73.6782	47.6074	73.4404	47.6074	73.6154	47.6074	73.4697	47.6074	73.5585	47.6074	73.5094
49.0723	74.6925	49.0723	74.6426	49.0723	74.7352	49.0723	74.5868	49.0723	74.7692	49.0723	74.5268	49.0723	74.7934	49.0723	74.4642	49.0723	74.8069	49.0723	74.4006	49.0723	74.8088	49.0723	74.3377	49.0723	74.7987	49.0723	74.2773	49.0723	74.7767	49.0723	74.221	49.0723	74.7431	49.0723	74.1703	49.0723	74.6988	49.0723	74.1269	49.0723	74.6452	49.0723	74.0918	49.0723	74.5842	49.0723	74.0663	49.0723	74.5178	49.0723	74.0512	49.0723	74.4485	49.0723	74.047	49.0723	74.3788	49.0723	74.054	49.0723	74.311	49.0723	74.0724	49.0723	74.2476	49.0723	74.1017	49.0723	74.1904	49.0723	74.1414
50.5371	75.233	50.5371	75.1767	50.5371	75.2816	50.5371	75.1144	50.5371	75.3209	50.5371	75.0477	50.5371	75.3498	50.5371	74.9785	50.5371	75.3671	50.5371	74.9088	50.5371	75.372	50.5371	74.8404	50.5371	75.3639	50.5371	74.7754	50.5371	75.3429	50.5371	74.7154	50.5371	75.3091	50.5371	74.6624	50.5371	75.2636	50.5371	74.6178	50.5371	75.2076	50.5371	74.583	50.5371	75.1432	50.5371	74.559	50.5371	75.0724	50.5371	74.5466	50.5371	74.9981	50.5371	74.5462	50.5371	74.9229	50.5371	74.5579	50.5371	74.8493	50.5371	74.5815	50.5371	74.78	50.5371	74.6164	50.5371	74.7169	50.5371	74.6619
52.7344	75.8394	52.7344	75.7815	52.7344	75.8892	52.7344	75.7172	52.7344	75.9293	52.7344	75.6483	52.7344	75.9585	52.7344	75.5769	52.7344	75.9759	52.7344	75.5051	52.7344	75.9805	52.7344	75.4349	52.7344	75.9722	52.7344	75.3684	52.7344	75.9507	52.7344	75.3076	52.7344	75.9167	52.7344	75.2544	52.7344	75.8709	52.7344	75.2103	52.7344	75.8148	52.7344	75.1766	52.7344	75.7503	52.7344	75.1543	52.7344	75.6797	52.7344	75.1439	52.7344	75.6056	52.7344	75.1457	52.7344	75.5306	52.7344	75.1597	52.7344	75.4572	52.7344	75.1853	52.7344	75.3878	52.7344	75.2219	52.7344	75.3244	52.7344	75.2687
54.1992	76.3388	54.1992	76.2799	54.1992	76.3903	54.1992	76.2151	54.1992	76.4325	54.1992	76.1464	54.1992	76.4643	54.1992	76.0759	54.1992	76.4845	54.1992	76.0056	54.1992	76.4922	54.1992	75.9376	54.1992	76.4871	54.1992	75.8739	54.1992	76.4691	54.1992	75.8163	54.1992	76.4384	54.1992	75.7667	54.1992	76.396	54.1992	75.7265	54.1992	76.3431	54.1992	75.6968	54.1992	76.2816	54.1992	75.6785	54.1992	76.2138	54.1992	75.672	54.1992	76.1421	54.1992	75.6774	54.1992	76.069	54.1992	75.6945	54.1992	75.9971	54.1992	75.7226	54.1992	75.9286	54.1992	75.7612	54.1992	75.8654	54.1992	75.8091
56.3965	76.9603	56.3965	76.8947	56.3965	77.0183	56.3965	76.8235	56.3965	77.0669	56.3965	76.7488	56.3965	77.1045	56.3965	76.6729	56.3965	77.1298	56.3965	76.5981	56.3965	77.142	56.3965	76.5265	56.3965	77.1405	56.3965	76.4605	56.3965	77.1253	56.3965	76.402	56.3965	77.0967	56.3965	76.3527	56.3965	77.0556	56.3965	76.3143	56.3965	77.0035	56.3965	76.2878	56.3965	76.9421	56.3965	76.2739	56.3965	76.8736	56.3965	76.2729	56.3965	76.8004	56.3965	76.2848	56.3965	76.725	56.3965	76.3089	56.3965	76.6497	56.3965	76.3444	56.3965	76.5766	56.3965	76.3903	56.3965	76.5079	56.3965	76.4453
58.5938	77.6489	58.5938	77.5788	58.5938	77.7123	58.5938	77.5042	58.5938	77.7672	58.5938	77.4273	58.5938	77.8117	58.5938	77.3507	58.5938	77.8444	58.5938	77.2765	58.5938	77.8643	58.5938	77.2072	58.5938	77.8708	58.5938	77.1449	58.5938	77.8638	58.5938	77.0916	58.5938	77.8435	58.5938	77.049	58.5938	77.8108	58.5938	77.0185	58.5938	77.7669	58.5938	77.001	58.5938	77.7132	58.5938	76.9969	58.5938	77.6517	58.5938	77.0064	58.5938	77.5841	58.5938	77.0289	58.5938	77.5126	58.5938	77.0635	58.5938	77.439	58.5938	77.1089	58.5938	77.3654	58.5938	77.1635	58.5938	77.2936	58.5938	77.2257
60.0586	77.9019	60.0586	77.829	60.0586	77.9684	60.0586	77.7518	60.0586	78.0264	60.0586	77.6727	60.0586	78.0741	60.0586	77.5943	60.0586	78.1101	60.0586	77.5191	60.0586	78.1334	60.0586	77.4494	60.0586	78.1434	60.0586	77.3875	60.0586	78.14	60.0586	77.3356	60.0586	78.1236	60.0586	77.2954	60.0586	78.095	60.0586	77.2682	60.0586	78.0553	60.0586	77.2551	60.0586	78.0059	60.0586	77.2564	60.0586	77.9481	60.0586	77.2719	60.0586	77.8838	60.0586	77.3009	60.0586	77.8144	60.0586	77.3422	60.0586	77.7417	60.0586	77.3941	60.0586	77.6675	60.0586	77.4547	60.0586	77.5936	60.0586	77.5219
62.2559	78.4943	62.2559	78.4199	62.2559	78.5613	62.2559	78.3403	62.2559	78.6186	62.2559	78.258	62.2559	78.6646	62.2559	78.1756	62.2559	78.6977	62.2559	78.0956	62.2559	78.7171	62.2559	78.0205	62.2559	78.7221	62.2559	77.9527	62.2559	78.7129	62.2559	77.8944	62.2559	78.6899	62.2559	77.8475	62.2559	78.6542	62.2559	77.8133	62.2559	78.607	62.2559	77.7932	62.2559	78.55	62.2559	77.7876	62.2559	78.4849	62.2559	77.7967	62.2559	78.4136	62.2559	77.8201	62.2559	78.338	62.2559	77.8568	62.2559	78.2599	62.2559	77.9055	62.2559	78.1814	62.2559	77.9644	62.2559	78.1045	62.2559	78.0314
64.4531	79.0298	64.4531	78.9538	64.4531	79.0981	64.4531	78.8725	64.4531	79.1567	64.4531	78.7884	64.4531	79.2037	64.4531	78.7042	64.4531	79.2378	64.4531	78.6226	64.4531	79.2581	64.4531	78.5461	64.4531	79.2642	64.4531	78.4772	64.4531	79.2561	64.4531	78.4183	64.4531	79.2345	64.4531	78.3711	64.4531	79.2002	64.4531	78.3374	64.4531	79.1546	64.4531	78.3182	64.4531	79.099	64.4531	78.3142	64.4531	79.0352	64.4531	78.3254	64.4531	78.9646	64.4531	78.3514	64.4531	78.8891	64.4531	78.3911	64.4531	78.8103	64.4531	78.443	64.4531	78.7303	64.4531	78.5052	64.4531	78.6513	64.4531	78.5754
66.6504	79.5771	66.6504	79.4993	66.6504	79.6466	66.6504	79.4156	66.6504	79.7056	66.6504	79.3287	66.6504	79.7523	66.6504	79.2413	66.6504	79.7854	66.6504	79.1563	66.6504	79.804	66.6504	79.0763	66.6504	79.8079	66.6504	79.0041	66.6504	79.7972	66.6504	78.9419	66.6504	79.7726	66.6504	78.8918	66.6504	79.7354	66.6504	78.8555	66.6504	79.6868	66.6504	78.8342	66.6504	79.6284	66.6504	78.8286	66.6504	79.5619	66.6504	78.8388	66.6504	79.489	66.6504	78.8642	66.6504	79.4113	66.6504	78.9039	66.6504	79.3306	66.6504	78.9563	66.6504	79.2488	66.6504	79.0194	66.6504	79.1681	66.6504	79.0908
69.5801	80.249	69.5801	80.1692	69.5801	80.3205	69.5801	80.0836	69.5801	80.3813	69.5801	79.995	69.5801	80.4297	69.5801	79.9062	69.5801	80.4641	69.5801	79.8203	69.5801	80.4838	69.5801	79.7399	69.5801	80.4885	69.5801	79.6677	69.5801	80.4784	69.5801	79.6062	69.5801	80.4544	69.5801	79.5573	69.5801	80.4177	69.5801	79.5227	69.5801	80.3697	69.5801	79.5034	69.5801	80.312	69.5801	79.5001	69.5801	80.2464	69.5801	79.5128	69.5801	80.1744	69.5801	79.5408	69.5801	80.0974	69.5801	79.5832	69.5801	80.0172	69.5801	79.6379	69.5801	79.9356	69.5801	79.7031	69.5801	79.8544	69.5801	79.7761
71.7773	80.8362	71.7773	80.7536	71.7773	80.9101	71.7773	80.6652	71.7773	80.9731	71.7773	80.5738	71.7773	81.0232	71.7773	80.4825	71.7773	81.059	71.7773	80.3946	71.7773	81.0796	71.7773	80.3128	71.7773	81.0849	71.7773	80.2401	71.7773	81.0753	71.7773	80.1789	71.7773	81.0516	71.7773	80.1313	71.7773	81.0151	71.7773	80.0988	71.7773	80.9675	71.7773	80.0824	71.7773	80.9104	71.7773	80.0825	71.7773	80.8454	71.7773	80.0989	71.7773	80.7741	71.7773	80.1307	71.7773	80.6979	71.7773	80.1765	71.7773	80.6183	71.7773	80.2342	71.7773	80.5368	71.7773	80.3017	71.7773	80.4554	71.7773	80.3763
73.9746	81.2385	73.9746	81.1539	73.9746	81.3143	73.9746	81.0632	73.9746	81.3788	73.9746	80.9695	73.9746	81.4302	73.9746	80.876	73.9746	81.467	73.9746	80.786	73.9746	81.4884	73.9746	80.7024	73.9746	81.4944	73.9746	80.6284	73.9746	81.4854	73.9746	80.5663	73.9746	81.4623	73.9746	80.5183	73.9746	81.4264	73.9746	80.4861	73.9746	81.3795	73.9746	80.4707	73.9746	81.3229	73.9746	80.4723	73.9746	81.2584	73.9746	80.4908	73.9746	81.1871	73.9746	80.5251	73.9746	81.1106	73.9746	80.5736	73.9746	81.0301	73.9746	80.6344	73.9746	80.9473	73.9746	80.7048	73.9746	80.8639	73.9746	80.7822
76.9043	81.8227	76.9043	81.7355	76.9043	81.9005	76.9043	81.642	76.9043	81.9664	76.9043	81.5453	76.9043	82.0184	76.9043	81.4488	76.9043	82.0549	76.9043	81.3559	76.9043	82.0752	76.9043	81.2698	76.9043	82.0792	76.9043	81.1935	76.9043	82.0675	76.9043	81.1297	76.9043	82.0413	76.9043	81.0804	76.9043	82.0022	76.9043	81.0472	76.9043	81.952	76.9043	81.0311	76.9043	81.8925	76.9043	81.0323	76.9043	81.8254	76.9043	81.0506	76.9043	81.7522	76.9043	81.0848	76.9043	81.6741	76.9043	81.1334	76.9043	81.5925	76.9043	81.1942	76.9043	81.5088	76.9043	81.2649	76.9043	81.4248	76.9043	81.3427
79.834	82.4215	79.834	82.3292	79.834	82.5046	79.834	82.2309	79.834	82.5759	79.834	82.1301	79.834	82.6334	79.834	82.0306	79.834	82.6755	79.834	81.936	79.834	82.7017	79.834	81.85	79.834	82.7121	79.834	81.7759	79.834	82.7073	79.834	81.7167	79.834	82.6888	79.834	81.6744	79.834	82.6579	79.834	81.6506	79.834	82.6165	79.834	81.646	79.834	82.5661	79.834	81.6603	79.834	82.5078	79.834	81.6926	79.834	82.4426	79.834	81.7411	79.834	82.3711	79.834	81.8033	79.834	82.2941	79.834	81.8762	79.834	82.2125	79.834	81.9567	79.834	82.1276	79.834	82.0415
82.7637	83.1155	82.7637	83.0253	82.7637	83.1937	82.7637	82.9262	82.7637	83.2575	82.7637	82.8217	82.7637	83.3049	82.7637	82.7155	82.7637	83.335	82.7637	82.6115	82.7637	83.3474	82.7637	82.5136	82.7637	83.3425	82.7637	82.4255	82.7637	83.3219	82.7637	82.3504	82.7637	83.2872	82.7637	82.2914	82.7637	83.2407	82.7637	82.2505	82.7637	83.1848	82.7637	82.2291	82.7637	83.1214	82.7637	82.2278	82.7637	83.0521	82.7637	82.2462	82.7637	82.978	82.7637	82.283	82.7637	82.8997	82.7637	82.3359	82.7637	82.8178	82.7637	82.4021	82.7637	82.7329	82.7637	82.4782	82.7637	82.6466	82.7637	82.5608
85.6934	83.7033	85.6934	83.6116	85.6934	83.7814	85.6934	83.5092	85.6934	83.8433	85.6934	83.3994	85.6934	83.8872	85.6934	83.2859	85.6934	83.9118	85.6934	83.1725	85.6934	83.9167	85.6934	83.063	85.6934	83.9024	85.6934	82.9611	85.6934	83.87	85.6934	82.8704	85.6934	83.8216	85.6934	82.7942	85.6934	83.7595	85.6934	82.7353	85.6934	83.6866	85.6934	82.6957	85.6934	83.6053	85.6934	82.6768	85.6934	83.518	85.6934	82.6791	85.6934	83.4265	85.6934	82.702	85.6934	83.3324	85.6934	82.744	85.6934	83.2367	85.6934	82.8026	85.6934	83.1411	85.6934	82.8749	85.6934	83.0472	85.6934	82.9575
88.623	84.2269	88.623	84.1341	88.623	84.3085	88.623	84.033	88.623	84.3762	88.623	83.9265	88.623	84.4279	88.623	83.8178	88.623	84.4619	88.623	83.71	88.623	84.4774	88.623	83.6061	88.623	84.4738	88.623	83.509	88.623	84.4517	88.623	83.4213	88.623	84.4119	88.623	83.3457	88.623	84.356	88.623	83.2846	88.623	84.2858	88.623	83.2402	88.623	84.2032	88.623	83.2144	88.623	84.1104	88.623	83.2086	88.623	84.0094	88.623	83.2236	88.623	83.9026	88.623	83.2594	88.623	83.7926	88.623	83.315	88.623	83.6825	88.623	83.3884	88.623	83.5759	88.623	83.4765
91.5527	84.2676	91.5527	84.1709	91.5527	84.3589	91.5527	84.073	91.5527	84.4414	91.5527	83.9781	91.5527	84.5124	91.5527	83.8907	91.5527	84.57	91.5527	83.8148	91.5527	84.6136	91.5527	83.7539	91.5527	84.6432	91.5527	83.7109	91.5527	84.66	91.5527	83.6874	91.5527	84.6656	91.5527	83.6842	91.5527	84.6617	91.5527	83.7011	91.5527	84.6499	91.5527	83.7368	91.5527	84.6313	91.5527	83.7894	91.5527	84.6062	91.5527	83.856	91.5527	84.574	91.5527	83.9334	91.5527	84.5337	91.5527	84.0181	91.5527	84.4842	91.5527	84.1063	91.5527	84.425	91.5527	84.1942	91.5527	84.356	91.5527	84.2784
94.4824	84.9544	94.4824	84.8501	94.4824	85.0463	94.4824	84.737	94.4824	85.1229	94.4824	84.6197	94.4824	85.1821	94.4824	84.503	94.4824	85.223	94.4824	84.3921	94.4824	85.2458	94.4824	84.2922	94.4824	85.2516	94.4824	84.2081	94.4824	85.2424	94.4824	84.1439	94.4824	85.2208	94.4824	84.1029	94.4824	85.1894	94.4824	84.087	94.4824	85.1508	94.4824	84.0965	94.4824	85.1067	94.4824	84.1303	94.4824	85.0579	94.4824	84.1857	94.4824	85.0042	94.4824	84.2588	94.4824	84.9447	94.4824	84.3449	94.4824	84.8782	94.4824	84.4389	94.4824	84.8036	94.4824	84.5356	94.4824	84.7208	94.4824	84.6308
98.1445	85.5965	98.1445	85.4997	98.1445	85.6794	98.1445	85.392	98.1445	85.7457	98.1445	85.2768	98.1445	85.7938	98.1445	85.1581	98.1445	85.8227	98.1445	85.0398	98.1445	85.8324	98.1445	84.926	98.1445	85.8238	98.1445	84.8206	98.1445	85.7987	98.1445	84.7277	98.1445	85.7593	98.1445	84.651	98.1445	85.7081	98.1445	84.5936	98.1445	85.6475	98.1445	84.5584	98.1445	85.5791	98.1445	84.5472	98.1445	85.5038	98.1445	84.5605	98.1445	85.4219	98.1445	84.5979	98.1445	85.3333	98.1445	84.6571	98.1445	85.238	98.1445	84.7348	98.1445	85.137	98.1445	84.8266	98.1445	85.0324	98.1445	84.9274
101.807	86.0381	101.807	85.9378	101.807	86.1253	101.807	85.8281	101.807	86.1963	101.807	85.7131	101.807	86.2489	101.807	85.5972	101.807	86.2821	101.807	85.4847	101.807	86.2958	101.807	85.3801	101.807	86.2912	101.807	85.2871	101.807	86.2702	101.807	85.2094	101.807	86.2356	101.807	85.1499	101.807	86.1904	101.807	85.1108	101.807	86.1373	101.807	85.0938	101.807	86.078	101.807	85.0995	101.807	86.0137	101.807	85.1273	101.807	85.9441	101.807	85.1757	101.807	85.8687	101.807	85.242	101.807	85.7868	101.807	85.3225	101.807	85.6984	101.807	85.4129	101.807	85.6049	101.807	85.5085
105.469	86.4041	105.469	86.3034	105.469	86.4915	105.469	86.1932	105.469	86.5623	105.469	86.078	105.469	86.6144	105.469	85.9627	105.469	86.6468	105.469	85.8519	105.469	86.6598	105.469	85.7504	105.469	86.6549	105.469	85.6624	105.469	86.6348	105.469	85.5914	105.469	86.6027	105.469	85.5406	105.469	86.5622	105.469	85.5118	105.469	86.5162	105.469	85.5061	105.469	86.4667	105.469	85.5237	105.469	86.4141	105.469	85.5631	105.469	86.3577	105.469	85.622	105.469	86.2956	105.469	85.6969	105.469	86.2263	105.469	85.7833	105.469	86.1486	105.469	85.8764	105.469	86.0629	105.469	85.971
109.131	86.8604	109.131	86.7583	109.131	86.9479	109.131	86.6455	109.131	87.0172	109.131	86.5266	109.131	87.0662	109.131	86.4065	109.131	87.0936	109.131	86.2901	109.131	87.0997	109.131	86.182	109.131	87.086	109.131	86.0865	109.131	87.0552	109.131	86.0075	109.131	87.0109	109.131	85.9481	109.131	86.9573	109.131	85.9106	109.131	86.898	109.131	85.8964	109.131	86.8359	109.131	85.9057	109.131	86.7723	109.131	85.9374	109.131	86.707	109.131	85.9891	109.131	86.639	109.131	86.0574	109.131	86.5664	109.131	86.1377	109.131	86.4881	109.131	86.2253	109.131	86.404	109.131	86.3154
112.793	87.1994	112.793	87.0951	112.793	87.289	112.793	86.9802	112.793	87.3603	112.793	86.8594	112.793	87.4111	112.793	86.7375	112.793	87.4402	112.793	86.6196	112.793	87.4477	112.793	86.5101	112.793	87.4353	112.793	86.4135	112.793	87.4057	112.793	86.3334	112.793	87.3626	112.793	86.2729	112.793	87.3099	112.793	86.2344	112.793	87.2514	112.793	86.2192	112.793	87.1895	112.793	86.2276	112.793	87.1252	112.793	86.2587	112.793	87.0584	112.793	86.3105	112.793	86.9876	112.793	86.3797	112.793	86.9112	112.793	86.4619	112.793	86.8284	112.793	86.5525	112.793	86.7396	112.793	86.6465
116.455	87.3892	116.455	87.2797	116.455	87.484	116.455	87.16	116.455	87.5603	116.455	87.0353	116.455	87.6153	116.455	86.9108	116.455	87.6477	116.455	86.7917	116.455	87.6578	116.455	86.6828	116.455	87.6472	116.455	86.5882	116.455	87.6191	116.455	86.5116	116.455	87.5776	116.455	86.4558	116.455	87.5271	116.455	86.423	116.455	87.4717	116.455	86.4143	116.455	87.4139	116.455	86.4298	116.455	87.3547	116.455	86.4685	116.455	87.2931	116.455	86.528	116.455	87.2272	116.455	86.6047	116.455	87.1546	116.455	86.694	116.455	87.0738	116.455	86.7906	116.455	86.9846	116.455	86.8891
120.85	87.7225	120.85	87.6087	120.85	87.819	120.85	87.4828	120.85	87.8942	120.85	87.3508	120.85	87.9454	120.85	87.219	120.85	87.9716	120.85	87.0935	120.85	87.9733	120.85	86.9801	120.85	87.953	120.85	86.8837	120.85	87.9145	120.85	86.8083	120.85	87.8627	120.85	86.7565	120.85	87.803	120.85	86.73	120.85	87.7402	120.85	86.729	120.85	87.6778	120.85	86.7524	120.85	87.6173	120.85	86.7979	120.85	87.5584	120.85	86.862	120.85	87.4989	120.85	86.94	120.85	87.4358	120.85	87.0269	120.85	87.3667	120.85	87.1172	120.85	87.29	120.85	87.2062
125.244	87.9796	125.244	87.864	125.244	88.0766	125.244	87.7347	125.244	88.151	125.244	87.5977	125.244	88.2004	125.244	87.4596	125.244	88.2243	125.244	87.327	125.244	88.2234	125.244	87.2066	125.244	88.2007	125.244	87.1039	125.244	88.1601	125.244	87.0238	125.244	88.1069	125.244	86.9696	125.244	88.0467	125.244	86.9431	125.244	87.9842	125.244	86.9444	125.244	87.9229	125.244	86.9719	125.244	87.8638	125.244	87.0226	125.244	87.8061	125.244	87.0921	125.244	87.7474	125.244	87.1752	125.244	87.6845	125.244	87.2664	125.244	87.6149	125.244	87.36	125.244	87.5372	125.244	87.4515
129.639	88.0731	129.639	87.9548	129.639	88.1719	129.639	87.8217	129.639	88.2476	129.639	87.6791	129.639	88.298	129.639	87.5331	129.639	88.3225	129.639	87.3902	129.639	88.3218	129.639	87.2566	129.639	88.2984	129.639	87.1386	129.639	88.2563	129.639	87.0416	129.639	88.2002	129.639	86.9699	129.639	88.1351	129.639	86.9265	129.639	88.0656	129.639	86.9127	129.639	87.9947	129.639	86.9279	129.639	87.9235	129.639	86.9697	129.639	87.8513	129.639	87.0343	129.639	87.7761	129.639	87.1166	129.639	87.6957	129.639	87.211	129.639	87.6086	129.639	87.3121	129.639	87.5144	129.639	87.4146
134.033	88.1392	134.033	88.0241	134.033	88.2354	134.033	87.8947	134.033	88.3094	134.033	87.7563	134.033	88.3592	134.033	87.6148	134.033	88.3846	134.033	87.4763	134.033	88.3871	134.033	87.3471	134.033	88.3697	134.033	87.233	134.033	88.3369	134.033	87.1396	134.033	88.2939	134.033	87.0713	134.033	88.2458	134.033	87.0319	134.033	88.1963	134.033	87.0233	134.033	88.1471	134.033	87.0458	134.033	88.0974	134.033	87.0976	134.033	88.0442	134.033	87.1749	134.033	87.9836	134.033	87.2725	134.033	87.9118	134.033	87.3835	134.033	87.8266	134.033	87.501	134.033	87.7278	134.033	87.6178
138.428	88.2211	138.428	88.1031	138.428	88.3199	138.428	87.9712	138.428	88.3955	138.428	87.8317	138.428	88.4454	138.428	87.6912	138.428	88.4691	138.428	87.5562	138.428	88.4683	138.428	87.4331	138.428	88.4469	138.428	87.3279	138.428	88.4106	138.428	87.2455	138.428	88.3659	138.428	87.1901	138.428	88.3194	138.428	87.1644	138.428	88.276	138.428	87.1697	138.428	88.2377	138.428	87.2055	138.428	88.203	138.428	87.2693	138.428	88.1676	138.428	87.3567	138.428	88.1257	138.428	87.4619	138.428	88.0714	138.428	87.5776	138.428	88.001	138.428	87.6962	138.428	87.9133	138.428	87.8102
143.555	88.3131	143.555	88.1796	143.555	88.4239	143.555	88.03	143.555	88.5072	143.555	87.8715	143.555	88.5595	143.555	87.7119	143.555	88.5799	143.555	87.5593	143.555	88.5695	143.555	87.4211	143.555	88.5322	143.555	87.3043	143.555	88.474	143.555	87.2143	143.555	88.4028	143.555	87.1554	143.555	88.3273	143.555	87.1299	143.555	88.255	143.555	87.1381	143.555	88.191	143.555	87.1779	143.555	88.1366	143.555	87.2455	143.555	88.089	143.555	87.3348	143.555	88.0429	143.555	87.4388	143.555	87.9917	143.555	87.5498	143.555	87.9298	143.555	87.66	143.555	87.8537	143.555	87.7629
148.682	88.312	148.682	88.1762	148.682	88.4236	148.682	88.0223	148.682	88.5066	148.682	87.8572	148.682	88.5582	148.682	87.6884	148.682	88.5775	148.682	87.524	148.682	88.566	148.682	87.3718	148.682	88.5276	148.682	87.2395	148.682	88.4682	148.682	87.1339	148.682	88.3954	148.682	87.0606	148.682	88.3172	148.682	87.0235	148.682	88.2407	148.682	87.0238	148.682	88.1707	148.682	87.0602	148.682	88.1084	148.682	87.1284	148.682	88.0518	148.682	87.2218	148.682	87.9959	148.682	87.3322	148.682	87.935	148.682	87.4506	148.682	87.8637	148.682	87.5689	148.682	87.7789	148.682	87.6799
153.809	88.3807	153.809	88.2495	153.809	88.4858	153.809	88.0978	153.809	88.5605	153.809	87.9325	153.809	88.6024	153.809	87.761	153.809	88.6114	153.809	87.5909	153.809	88.5895	153.809	87.4299	153.809	88.5415	153.809	87.2856	153.809	88.4739	153.809	87.1649	153.809	88.3947	153.809	87.074	153.809	88.312	153.809	87.0178	153.809	88.2324	153.809	86.999	153.809	88.1598	153.809	87.0177	153.809	88.0941	153.809	87.0711	153.809	88.0322	153.809	87.1536	153.809	87.9688	153.809	87.2576	153.809	87.8983	153.809	87.3743	153.809	87.8162	153.809	87.4951	153.809	87.7207	153.809	87.6125
159.668	88.3307	159.668	88.1968	159.668	88.4379	159.668	88.0425	159.668	88.5138	159.668	87.8749	159.668	88.5555	159.668	87.7017	159.668	88.5625	159.668	87.5308	159.668	88.537	159.668	87.3698	159.668	88.4837	159.668	87.2259	159.668	88.4104	159.668	87.106	159.668	88.3263	159.668	87.0161	159.668	88.2411	159.668	86.9607	159.668	88.1631	159.668	86.943	159.668	88.0965	159.668	86.9635	159.668	88.041	159.668	87.0199	159.668	87.9916	159.668	87.1071	159.668	87.9405	159.668	87.2176	159.668	87.8795	159.668	87.3422	159.668	87.8028	159.668	87.4713	159.668	87.7077	159.668	87.5956
164.795	88.2755	164.795	88.1319	164.795	88.3913	164.795	87.9674	164.795	88.4741	164.795	87.7902	164.795	88.5208	164.795	87.609	164.795	88.5307	164.795	87.4327	164.795	88.5063	164.795	87.2697	164.795	88.4526	164.795	87.1278	164.795	88.3772	164.795	87.0136	164.795	88.2897	164.795	86.9327	164.795	88.1999	164.795	86.8889	164.795	88.1163	164.795	86.8839	164.795	88.0439	164.795	86.9168	164.795	87.9834	164.795	86.9839	164.795	87.931	164.795	87.0789	164.795	87.8798	164.795	87.1935	164.795	87.8221	164.795	87.318	164.795	87.7516	164.795	87.4432	164.795	87.6646	164.795	87.5607
170.654	88.1895	170.654	88.0503	170.654	88.2988	170.654	87.8881	170.654	88.3734	170.654	87.7108	170.654	88.4107	170.654	87.5276	170.654	88.4107	170.654	87.3478	170.654	88.3763	170.654	87.1806	170.654	88.3135	170.654	87.0349	170.654	88.231	170.654	86.9182	170.654	88.1391	170.654	86.8369	170.654	88.0485	170.654	86.795	170.654	87.9683	170.654	86.7941	170.654	87.9032	170.654	86.8326	170.654	87.8529	170.654	86.9057	170.654	87.8123	170.654	87.0059	170.654	87.7731	170.654	87.124	170.654	87.7266	170.654	87.2499	170.654	87.6656	170.654	87.3739	170.654	87.5862	170.654	87.488
176.514	88.0546	176.514	87.9127	176.514	88.1654	176.514	87.7465	176.514	88.2404	176.514	87.5641	176.514	88.2775	176.514	87.3749	176.514	88.2771	176.514	87.189	176.514	88.2426	176.514	87.0164	176.514	88.1804	176.514	86.8669	176.514	88.0996	176.514	86.7494	176.514	88.011	176.514	86.6709	176.514	87.9254	176.514	86.6361	176.514	87.8516	176.514	86.6463	176.514	87.7939	176.514	86.6988	176.514	87.7514	176.514	86.7873	176.514	87.7185	176.514	86.9025	176.514	87.6862	176.514	87.0333	176.514	87.6455	176.514	87.1686	176.514	87.5891	176.514	87.2985	176.514	87.5125	176.514	87.4149
183.105	87.9164	183.105	87.7705	183.105	88.0299	183.105	87.5985	183.105	88.1061	183.105	87.4081	183.105	88.1424	183.105	87.2076	183.105	88.1389	183.105	87.006	183.105	88.0986	183.105	86.8127	183.105	88.028	183.105	86.6376	183.105	87.9368	183.105	86.4903	183.105	87.8369	183.105	86.3803	183.105	87.7404	183.105	86.3153	183.105	87.6571	183.105	86.2999	183.105	87.5917	183.105	86.3346	183.105	87.5425	183.105	86.4148	183.105	87.5021	183.105	86.5315	183.105	87.4603	183.105	86.6726	183.105	87.4065	183.105	86.8249	183.105	87.333	183.105	86.976	183.105	87.2359	183.105	87.1155
189.697	87.8048	189.697	87.6544	189.697	87.922	189.697	87.4787	189.697	88	189.697	87.2863	189.697	88.0356	189.697	87.0868	189.697	88.0283	189.697	86.8893	189.697	87.9818	189.697	86.7028	189.697	87.9034	189.697	86.5359	189.697	87.8043	189.697	86.3967	189.697	87.6979	189.697	86.2928	189.697	87.598	189.697	86.2303	189.697	87.5151	189.697	86.2134	189.697	87.4539	189.697	86.2428	189.697	87.4113	189.697	86.3153	189.697	87.3781	189.697	86.4237	189.697	87.3419	189.697	86.5577	189.697	87.291	189.697	86.7056	189.697	87.2176	189.697	86.8552	189.697	87.1185	189.697	86.9958
196.289	87.7488	196.289	87.5936	196.289	87.867	196.289	87.41	196.289	87.9419	196.289	87.2083	196.289	87.97	196.289	86.9993	196.289	87.9514	196.289	86.7943	196.289	87.8898	196.289	86.6042	196.289	87.7934	196.289	86.4393	196.289	87.6747	196.289	86.3085	196.289	87.5488	196.289	86.2194	196.289	87.4323	196.289	86.1773	196.289	87.3387	196.289	86.1839	196.289	87.2755	196.289	86.2373	196.289	87.2416	196.289	86.331	196.289	87.2276	196.289	86.4551	196.289	87.2193	196.289	86.5969	196.289	87.2019	196.289	86.7435	196.289	87.1637	196.289	86.8822	196.289	87.0977	196.289	87.0028
202.881	87.6534	202.881	87.5009	202.881	87.7654	202.881	87.3159	202.881	87.8315	202.881	87.1086	202.881	87.8493	202.881	86.8907	202.881	87.8201	202.881	86.6749	202.881	87.7493	202.881	86.474	202.881	87.646	202.881	86.3005	202.881	87.5232	202.881	86.1659	202.881	87.3963	202.881	86.0794	202.881	87.2811	202.881	86.0466	202.881	87.1902	202.881	86.0687	202.881	87.1304	202.881	86.1411	202.881	87.1004	202.881	86.2539	202.881	87.0919	202.881	86.3936	202.881	87.0916	202.881	86.5448	202.881	87.0857	202.881	86.6929	202.881	87.0621	202.881	86.8254	202.881	87.0127	202.881	86.9336
210.205	87.5553	210.205	87.4149	210.205	87.6515	210.205	87.2369	210.205	87.6995	210.205	87.0293	210.205	87.698	210.205	86.8019	210.205	87.6493	210.205	86.5655	210.205	87.5598	210.205	86.3324	210.205	87.4403	210.205	86.1163	210.205	87.3062	210.205	85.932	210.205	87.1755	210.205	85.7941	210.205	87.0657	210.205	85.7152	210.205	86.9894	210.205	85.7025	210.205	86.9502	210.205	85.7556	210.205	86.9412	210.205	85.866	210.205	86.9473	210.205	86.0184	210.205	86.9506	210.205	86.1942	210.205	86.935	210.205	86.3751	210.205	86.8894	210.205	86.5452	210.205	86.8086	210.205	86.6924
217.529	87.4137	217.529	87.2598	217.529	87.5259	217.529	87.0736	217.529	87.5893	217.529	86.8654	217.529	87.5993	217.529	86.6458	217.529	87.5554	217.529	86.4252	217.529	87.4618	217.529	86.2136	217.529	87.3283	217.529	86.021	217.529	87.1707	217.529	85.8577	217.529	87.0096	217.529	85.7342	217.529	86.8677	217.529	85.6604	217.529	86.7638	217.529	85.6432	217.529	86.7074	217.529	85.6845	217.529	86.6948	217.529	85.7794	217.529	86.7104	217.529	85.9162	217.529	86.7322	217.529	86.079	217.529	86.739	217.529	86.2496	217.529	86.7148	217.529	86.4109	217.529	86.6515	217.529	86.5484
225.586	87.388	225.586	87.2257	225.586	87.5013	225.586	87.0239	225.586	87.5591	225.586	86.7935	225.586	87.5583	225.586	86.547	225.586	87.4995	225.586	86.2977	225.586	87.3886	225.586	86.0595	225.586	87.2367	225.586	85.8466	225.586	87.0606	225.586	85.6735	225.586	86.8816	225.586	85.5537	225.586	86.7226	225.586	85.4977	225.586	86.6033	225.586	85.5103	225.586	86.5343	225.586	85.5886	225.586	86.5146	225.586	85.7208	225.586	86.5313	225.586	85.8886	225.586	86.565	225.586	86.0702	225.586	86.5945	225.586	86.2443	225.586	86.602	225.586	86.3933	225.586	86.5746	225.586	86.5053
232.91	87.4435	232.91	87.2845	232.91	87.5494	232.91	87.0818	232.91	87.5954	232.91	86.846	232.91	87.5779	232.91	86.5893	232.91	87.4977	232.91	86.3244	232.91	87.361	232.91	86.0647	232.91	87.18	232.91	85.8246	232.91	86.9737	232.91	85.6194	232.91	86.7666	232.91	85.4643	232.91	86.5845	232.91	85.3725	232.91	86.4488	232.91	85.3513	232.91	86.369	232.91	85.3998	232.91	86.34	232.91	85.507	232.91	86.3447	232.91	85.6542	232.91	86.3613	232.91	85.8192	232.91	86.3701	232.91	85.9808	232.91	86.3568	232.91	86.1228	232.91	86.313	232.91	86.235
241.699	87.1658	241.699	86.984	241.699	87.3018	241.699	86.768	241.699	87.382	241.699	86.5294	241.699	87.3993	241.699	86.2791	241.699	87.3507	241.699	86.0273	241.699	87.2384	241.699	85.7835	241.699	87.0715	241.699	85.5581	241.699	86.8662	241.699	85.3632	241.699	86.6459	241.699	85.2122	241.699	86.4382	241.699	85.1179	241.699	86.2693	241.699	85.089	241.699	86.1559	241.699	85.1264	241.699	86.0995	241.699	85.2216	241.699	86.086	241.699	85.3583	241.699	86.0925	241.699	85.5164	241.699	86.0954	241.699	85.6761	241.699	86.0767	241.699	85.8212	241.699	86.026	241.699	85.9402
249.756	87.2746	249.756	87.0552	249.756	87.4327	249.756	86.7866	249.756	87.5205	249.756	86.4832	249.756	87.5329	249.756	86.1599	249.756	87.4703	249.756	85.8314	249.756	87.3386	249.756	85.5123	249.756	87.1507	249.756	85.2179	249.756	86.9266	249.756	84.9648	249.756	86.6926	249.756	84.7711	249.756	86.4778	249.756	84.6534	249.756	86.3071	249.756	84.6224	249.756	86.193	249.756	84.6783	249.756	86.1316	249.756	84.8085	249.756	86.1043	249.756	84.9911	249.756	86.0866	249.756	85.2	249.756	86.0561	249.756	85.411	249.756	85.9976	249.756	85.6057	249.756	85.9035	249.756	85.7721
258.545	87.2511	258.545	87.0468	258.545	87.3991	258.545	86.7988	258.545	87.4809	258.545	86.5201	258.545	87.4904	258.545	86.2239	258.545	87.4261	258.545	85.9217	258.545	87.2925	258.545	85.6246	258.545	87.1015	258.545	85.3442	258.545	86.873	258.545	85.0947	258.545	86.6347	258.545	84.8939	258.545	86.4185	258.545	84.7608	258.545	86.253	258.545	84.7112	258.545	86.1536	258.545	84.7509	258.545	86.1161	258.545	84.8719	258.545	86.1187	258.545	85.0538	258.545	86.1313	258.545	85.269	258.545	86.1266	258.545	85.4903	258.545	86.0859	258.545	85.6954	258.545	86.0003	258.545	85.8686
268.066	87.0648	268.066	86.7939	268.066	87.2726	268.066	86.4761	268.066	87.4053	268.066	86.1302	268.066	87.4554	268.066	85.7755	268.066	87.4208	268.066	85.4296	268.066	87.3046	268.066	85.106	268.066	87.1161	268.066	84.8146	268.066	86.8722	268.066	84.5638	268.066	86.5973	268.066	84.3623	268.066	86.3228	268.066	84.2212	268.066	86.0812	268.066	84.1516	268.066	85.8967	268.066	84.161	268.066	85.7761	268.066	84.248	268.066	85.7057	268.066	84.4009	268.066	85.6581	268.066	84.5992	268.066	85.604	268.066	84.8189	268.066	85.5212	268.066	85.0371	268.066	85.3985	268.066	85.2348
277.588	87.1074	277.588	86.9202	277.588	87.2212	277.588	86.6662	277.588	87.2591	277.588	86.3556	277.588	87.2227	277.588	86.0032	277.588	87.1177	277.588	85.6283	277.588	86.9555	277.588	85.2545	277.588	86.7536	277.588	84.9099	277.588	86.5361	277.588	84.6245	277.588	86.3316	277.588	84.4271	277.588	86.1683	277.588	84.3389	277.588	86.0658	277.588	84.3665	277.588	86.0276	277.588	84.4991	277.588	86.0396	277.588	84.7104	277.588	86.0759	277.588	84.9663	277.588	86.1084	277.588	85.2334	277.588	86.115	277.588	85.4846	277.588	86.0821	277.588	85.7022	277.588	86.0033	277.588	85.8764
287.109	87.0895	287.109	86.9304	287.109	87.1803	287.109	86.712	287.109	87.1955	287.109	86.4435	287.109	87.1309	287.109	86.1349	287.109	86.9871	287.109	85.7965	287.109	86.772	287.109	85.4416	287.109	86.5026	287.109	85.0883	287.109	86.208	287.109	84.7623	287.109	85.9282	287.109	84.4958	287.109	85.7085	287.109	84.3227	287.109	85.5855	287.109	84.2686	287.109	85.571	287.109	84.3392	287.109	85.6441	287.109	84.5169	287.109	85.7611	287.109	84.7662	287.109	85.8737	287.109	85.0462	287.109	85.9444	287.109	85.321	287.109	85.9517	287.109	85.5637	287.109	85.8885	287.109	85.7568
297.363	87.1865	297.363	86.9972	297.363	87.3119	297.363	86.7583	297.363	87.3592	297.363	86.4822	297.363	87.3173	297.363	86.177	297.363	87.1797	297.363	85.8478	297.363	86.9476	297.363	85.498	297.363	86.6322	297.363	85.1346	297.363	86.2585	297.363	84.7726	297.363	85.869	297.363	84.4378	297.363	85.5217	297.363	84.1662	297.363	85.2766	297.363	83.9956	297.363	85.1707	297.363	83.9528	297.363	85.1966	297.363	84.0408	297.363	85.3047	297.363	84.2369	297.363	85.4291	297.363	84.5011	297.363	85.5135	297.363	84.7892	297.363	85.5241	297.363	85.0622	297.363	85.4481	297.363	85.2894
307.617	87.0564	307.617	86.7841	307.617	87.2572	307.617	86.4623	307.617	87.3694	307.617	86.1157	307.617	87.3823	307.617	85.7675	307.617	87.2911	307.617	85.4361	307.617	87.0975	307.617	85.133	307.617	86.8108	307.617	84.865	307.617	86.4497	307.617	84.6391	307.617	86.0467	307.617	84.4661	307.617	85.6493	307.617	84.3614	307.617	85.3159	307.617	84.3403	307.617	85.1007	307.617	84.4098	307.617	85.03	307.617	84.5623	307.617	85.0881	307.617	84.7743	307.617	85.2255	307.617	85.0117	307.617	85.3813	307.617	85.2375	307.617	85.5037	307.617	85.4185	307.617	85.5585	307.617	85.5301
318.604	86.9985	318.604	86.7572	318.604	87.1602	318.604	86.4504	318.604	87.2319	318.604	86.0947	318.604	87.2074	318.604	85.7074	318.604	87.0857	318.604	85.3057	318.604	86.8713	318.604	84.9069	318.604	86.5759	318.604	84.5302	318.604	86.2199	318.604	84.1999	318.604	85.8338	318.604	83.9458	318.604	85.4579	318.604	83.7979	318.604	85.1359	318.604	83.7764	318.604	84.9035	318.604	83.8792	318.604	84.7763	318.604	84.0785	318.604	84.7455	318.604	84.3284	318.604	84.7849	318.604	84.5792	318.604	84.8613	318.604	84.7893	318.604	84.9419	318.604	84.9324	318.604	84.9965	318.604	84.9994
329.59	87.0272	329.59	86.7783	329.59	87.201	329.59	86.471	329.59	87.2865	329.59	86.1226	329.59	87.2752	329.59	85.7476	329.59	87.1646	329.59	85.3563	329.59	86.9584	329.59	84.9555	329.59	86.6685	329.59	84.5535	329.59	86.3168	329.59	84.1668	329.59	85.9377	329.59	83.8248	329.59	85.5772	329.59	83.5683	329.59	85.285	329.59	83.4373	329.59	85.0972	329.59	83.4522	329.59	85.0185	329.59	83.6009	329.59	85.0199	329.59	83.8424	329.59	85.0538	329.59	84.1251	329.59	85.0755	329.59	84.404	329.59	85.0553	329.59	84.6487	329.59	84.979	329.59	84.8428
341.309	86.8582	341.309	86.5732	341.309	87.0524	341.309	86.2189	341.309	87.1415	341.309	85.8223	341.309	87.119	341.309	85.4112	341.309	86.9859	341.309	85.0085	341.309	86.751	341.309	84.6293	341.309	86.4318	341.309	84.2819	341.309	86.0564	341.309	83.9748	341.309	85.6646	341.309	83.7236	341.309	85.3041	341.309	83.5529	341.309	85.0209	341.309	83.4896	341.309	84.8435	341.309	83.5491	341.309	84.7729	341.309	83.723	341.309	84.7853	341.309	83.978	341.309	84.845	341.309	84.2663	341.309	84.9164	341.309	84.5396	341.309	84.9676	341.309	84.76	341.309	84.971	341.309	84.9053
353.76	87.1149	353.76	86.8397	353.76	87.2904	353.76	86.4826	353.76	87.3541	353.76	86.0656	353.76	87.2999	353.76	85.6116	353.76	87.1275	353.76	85.1413	353.76	86.8437	353.76	84.6713	353.76	86.4634	353.76	84.2169	353.76	86.0143	353.76	83.7982	353.76	85.5403	353.76	83.4454	353.76	85.1015	353.76	83.1981	353.76	84.7619	353.76	83.093	353.76	84.5639	353.76	83.1447	353.76	84.505	353.76	83.3329	353.76	84.5411	353.76	83.6079	353.76	84.6133	353.76	83.9105	353.76	84.6742	353.76	84.1906	353.76	84.6964	353.76	84.4163	353.76	84.6661	353.76	84.5748
366.211	87.1505	366.211	86.8875	366.211	87.3137	366.211	86.5403	366.211	87.3653	366.211	86.1273	366.211	87.2987	366.211	85.6671	366.211	87.1123	366.211	85.1767	366.211	86.8107	366.211	84.6722	366.211	86.4073	366.211	84.1727	366.211	85.9283	366.211	83.7062	366.211	85.4193	366.211	83.314	366.211	84.9464	366.211	83.0458	366.211	84.5841	366.211	82.9432	366.211	84.3847	366.211	83.0167	366.211	84.3478	366.211	83.2366	366.211	84.4214	366.211	83.5439	366.211	84.5353	366.211	83.8742	366.211	84.6331	366.211	84.1755	366.211	84.6823	366.211	84.4156	366.211	84.6673	366.211	84.58
378.662	87.274	378.662	86.9604	378.662	87.4877	378.662	86.5708	378.662	87.5858	378.662	86.1344	378.662	87.5606	378.662	85.6785	378.662	87.4104	378.662	85.2206	378.662	87.1382	378.662	84.7657	378.662	86.7521	378.662	84.3131	378.662	86.2697	378.662	83.8694	378.662	85.7251	378.662	83.4623	378.662	85.1769	378.662	83.1443	378.662	84.7079	378.662	82.9788	378.662	84.4025	378.662	83.0075	378.662	84.3029	378.662	83.2221	378.662	84.3802	378.662	83.5641	378.662	84.5536	378.662	83.9543	378.662	84.735	378.662	84.3214	378.662	84.8596	378.662	84.6159	378.662	84.8899	378.662	84.8093
392.578	86.8759	392.578	86.6009	392.578	87.0575	392.578	86.247	392.578	87.1372	392.578	85.8353	392.578	87.1111	392.578	85.3908	392.578	86.9784	392.578	84.936	392.578	86.7413	392.578	84.485	392.578	86.4071	392.578	84.0438	392.578	85.9912	392.578	83.6188	392.578	85.5208	392.578	83.2287	392.578	85.0378	392.578	82.9122	392.578	84.5968	392.578	82.7214	392.578	84.2534	392.578	82.6984	392.578	84.0449	392.578	82.8473	392.578	83.9738	392.578	83.1252	392.578	84.0092	392.578	83.4608	392.578	84.1	392.578	83.7817	392.578	84.1907	392.578	84.033	392.578	84.2312	392.578	84.1846
405.762	86.6767	405.762	86.3776	405.762	86.8751	405.762	85.9993	405.762	86.9588	405.762	85.5686	405.762	86.9215	405.762	85.1135	405.762	86.7646	405.762	84.6562	405.762	86.4977	405.762	84.2085	405.762	86.1393	405.762	83.775	405.762	85.7172	405.762	83.3627	405.762	85.2689	405.762	82.9934	405.762	84.8376	405.762	82.7094	405.762	84.4643	405.762	82.564	405.762	84.1772	405.762	82.5952	405.762	83.9882	405.762	82.7992	405.762	83.8981	405.762	83.1249	405.762	83.9015	405.762	83.4942	405.762	83.9808	405.762	83.8292	405.762	84.0949	405.762	84.0706	405.762	84.1837	405.762	84.1878
420.41	86.45	420.41	86.0954	420.41	86.6889	420.41	85.6561	420.41	86.7976	420.41	85.1779	420.41	86.7742	420.41	84.7135	420.41	86.6274	420.41	84.3049	420.41	86.3755	420.41	83.9688	420.41	86.0476	420.41	83.6947	420.41	85.6847	420.41	83.4617	420.41	85.3368	420.41	83.2578	420.41	85.0488	420.41	83.0912	420.41	84.8387	420.41	82.9867	420.41	84.6839	420.41	82.9707	420.41	84.5335	420.41	83.0498	420.41	84.3434	420.41	83.2	420.41	84.1101	420.41	83.3722	420.41	83.8782	420.41	83.5138	420.41	83.7102	420.41	83.5928	420.41	83.6339	420.41	83.6165
435.059	87.2961	435.059	86.8891	435.059	87.5155	435.059	86.308	435.059	87.5442	435.059	85.5848	435.059	87.3833	435.059	84.78	435.059	87.0372	435.059	83.9857	435.059	86.518	435.059	83.3127	435.059	85.8584	435.059	82.8589	435.059	85.1363	435.059	82.672	435.059	84.5009	435.059	82.7397	435.059	84.1549	435.059	83.0097	435.059	84.2292	435.059	83.416	435.059	84.6494	435.059	83.8942	435.059	85.1955	435.059	84.3867	435.059	85.6695	435.059	84.8453	435.059	85.9743	435.059	85.2352	435.059	86.1028	435.059	85.5381	435.059	86.1007	435.059	85.7569	435.059	86.0257	435.059	85.9117
450.439	88.3307	450.439	87.9986	450.439	88.5003	450.439	87.5056	450.439	88.5067	450.439	86.8582	450.439	88.3467	450.439	86.0731	450.439	88.0141	450.439	85.182	450.439	87.5011	450.439	84.2377	450.439	86.8027	450.439	83.3226	450.439	85.9276	450.439	82.5551	450.439	84.925	450.439	82.0759	450.439	83.9323	450.439	81.9892	450.439	83.2078	450.439	82.2889	450.439	83.0135	450.439	82.8538	450.439	83.3507	450.439	83.5233	450.439	83.9488	450.439	84.1664	450.439	84.5368	450.439	84.7023	450.439	84.9842	450.439	85.0935	450.439	85.2691	450.439	85.3338	450.439	85.4133	450.439	85.4353
466.553	87.9525	466.553	87.6562	466.553	88.1219	466.553	87.234	466.553	88.161	466.553	86.6863	466.553	88.0635	466.553	86.0151	466.553	87.8212	466.553	85.2249	466.553	87.4258	466.553	84.3276	466.553	86.8706	466.553	83.3555	466.553	86.1556	466.553	82.3911	466.553	85.3013	466.553	81.6019	466.553	84.3807	466.553	81.2225	466.553	83.5644	466.553	81.4029	466.553	83.1103	466.553	82.051	466.553	83.1882	466.553	82.9147	466.553	83.6886	466.553	83.7713	466.553	84.3344	466.553	84.4954	466.553	84.9078	466.553	85.0366	466.553	85.311	466.553	85.3849	466.553	85.522	466.553	85.5453
482.666	87.7771	482.666	87.5468	482.666	87.8999	482.666	87.2074	482.666	87.9149	482.666	86.7563	482.666	87.8193	482.666	86.1906	482.666	87.6092	482.666	85.5062	482.666	87.2805	482.666	84.6981	482.666	86.8304	482.666	83.7678	482.666	86.2596	482.666	82.7439	482.666	85.5793	482.666	81.7241	482.666	84.8258	482.666	80.9228	482.666	84.0809	482.666	80.6284	482.666	83.4812	482.666	80.9683	482.666	83.1756	482.666	81.7506	482.666	83.2255	482.666	82.6608	482.666	83.548	482.666	83.4795	482.666	83.9793	482.666	84.1056	482.666	84.3692	482.666	84.5049	482.666	84.6185	482.666	84.6726
500.244	87.7667	500.244	87.4695	500.244	87.9662	500.244	87.1069	500.244	88.0358	500.244	86.7008	500.244	87.951	500.244	86.2529	500.244	87.6985	500.244	85.7407	500.244	87.2754	500.244	85.1245	500.244	86.6878	500.244	84.3627	500.244	85.9535	500.244	83.4358	500.244	85.1137	500.244	82.3843	500.244	84.2579	500.244	81.3717	500.244	83.5426	500.244	80.7235	500.244	83.1513	500.244	80.7578	500.244	83.1688	500.244	81.4379	500.244	83.5055	500.244	82.4153	500.244	83.9843	500.244	83.3764	500.244	84.4551	500.244	84.1594	500.244	84.8196	500.244	84.7002	500.244	85.0112	500.244	84.9813
517.822	87.3574	517.822	87.1372	517.822	87.449	517.822	86.7896	517.822	87.4172	517.822	86.3248	517.822	87.2704	517.822	85.7648	517.822	87.0166	517.822	85.1441	517.822	86.661	517.822	84.5019	517.822	86.2074	517.822	83.8697	517.822	85.6644	517.822	83.2613	517.822	85.0524	517.822	82.6829	517.822	84.4078	517.822	82.1639	517.822	83.779	517.822	81.7872	517.822	83.2185	517.822	81.6775	517.822	82.7798	517.822	81.9147	517.822	82.5312	517.822	82.4393	517.822	82.5499	517.822	83.0744	517.822	82.8525	517.822	83.6288	517.822	83.3246	517.822	83.9639	517.822	83.7673	517.822	84.0093
536.133	87.5816	536.133	87.3165	536.133	87.6906	536.133	86.8994	536.133	87.6388	536.133	86.336	536.133	87.4216	536.133	85.643	536.133	87.0391	536.133	84.8587	536.133	86.5027	536.133	84.0474	536.133	85.8423	536.133	83.2826	536.133	85.1131	536.133	82.6119	536.133	84.3935	536.133	82.0377	536.133	83.7647	536.133	81.5506	536.133	83.2746	536.133	81.197	536.133	82.9208	536.133	81.1047	536.133	82.6872	536.133	81.388	536.133	82.6	536.133	81.998	536.133	82.72	536.133	82.7301	536.133	83.0475	536.133	83.3713	536.133	83.4647	536.133	83.7896	536.133	83.8023	536.133	83.9314
554.443	87.4624	554.443	87.2188	554.443	87.5822	554.443	86.8582	554.443	87.5653	554.443	86.3797	554.443	87.3972	554.443	85.7785	554.443	87.0645	554.443	85.0582	554.443	86.5597	554.443	84.2457	554.443	85.8867	554.443	83.3978	554.443	85.0701	554.443	82.5881	554.443	84.17	554.443	81.8778	554.443	83.2953	554.443	81.3009	554.443	82.5909	554.443	80.8902	554.443	82.1731	554.443	80.7133	554.443	82.0614	554.443	80.8473	554.443	82.1974	554.443	81.2896	554.443	82.5078	554.443	81.9214	554.443	82.9066	554.443	82.5745	554.443	83.2708	554.443	83.106	554.443	83.4698	554.443	83.4198
574.219	87.2433	574.219	86.9456	574.219	87.4057	574.219	86.5349	574.219	87.4144	574.219	86.0323	574.219	87.2581	574.219	85.454	574.219	86.9358	574.219	84.812	574.219	86.46	574.219	84.1246	574.219	85.8539	574.219	83.4265	574.219	85.1444	574.219	82.7667	574.219	84.3537	574.219	82.1896	574.219	83.504	574.219	81.7211	574.219	82.645	574.219	81.3837	574.219	81.8987	574.219	81.2293	574.219	81.4561	574.219	81.3319	574.219	81.4489	574.219	81.7161	574.219	81.8138	574.219	82.2907	574.219	82.3613	574.219	82.8797	574.219	82.9095	574.219	83.3083	574.219	83.3134	574.219	83.4631
594.727	87.1046	594.727	86.8784	594.727	87.1811	594.727	86.5197	594.727	87.0917	594.727	86.0408	594.727	86.8268	594.727	85.4469	594.727	86.3884	594.727	84.7395	594.727	85.7914	594.727	83.9276	594.727	85.0676	594.727	83.0455	594.727	84.272	594.727	82.1693	594.727	83.4853	594.727	81.4156	594.727	82.793	594.727	80.9025	594.727	82.2338	594.727	80.6909	594.727	81.7707	594.727	80.7674	594.727	81.352	594.727	81.0788	594.727	81.0298	594.727	81.5558	594.727	80.9905	594.727	82.1008	594.727	81.3582	594.727	82.5857	594.727	81.9799	594.727	82.8785	594.727	82.5573	594.727	82.8801
615.234	87.1698	615.234	86.9578	615.234	87.2172	615.234	86.598	615.234	87.0888	615.234	86.112	615.234	86.7784	615.234	85.519	615.234	86.2862	615.234	84.8312	615.234	85.6238	615.234	84.0581	615.234	84.8198	615.234	83.2203	615.234	83.9242	615.234	82.3662	615.234	83.0088	615.234	81.5795	615.234	82.1595	615.234	80.9726	615.234	81.4633	615.234	80.6568	615.234	81.0023	615.234	80.6962	615.234	80.842	615.234	81.0684	615.234	80.985	615.234	81.6604	615.234	81.3451	615.234	82.3048	615.234	81.8133	615.234	82.8305	615.234	82.3165	615.234	83.107	615.234	82.7774	615.234	83.0775
637.207	88.0467	637.207	87.8241	637.207	88.1026	637.207	87.4643	637.207	87.9723	637.207	86.9997	637.207	87.6529	637.207	86.4568	637.207	87.1632	637.207	85.8443	637.207	86.5393	637.207	85.1503	637.207	85.8253	637.207	84.3585	637.207	85.0614	637.207	83.4814	637.207	84.2776	637.207	82.5929	637.207	83.4898	637.207	81.8435	637.207	82.7052	637.207	81.4289	637.207	81.9558	637.207	81.4895	637.207	81.3735	637.207	82.0008	637.207	81.2215	637.207	82.7757	637.207	81.6779	637.207	83.5749	637.207	82.5559	637.207	84.2044	637.207	83.4764	637.207	84.5448	637.207	84.1743	637.207	84.5395
659.912	88.5784	659.912	88.2386	659.912	88.7098	659.912	87.7426	659.912	88.6104	659.912	87.1545	659.912	88.2889	659.912	86.5269	659.912	87.775	659.912	85.8879	659.912	87.1104	659.912	85.2442	659.912	86.3488	659.912	84.5866	659.912	85.5615	659.912	83.8952	659.912	84.8271	659.912	83.1525	659.912	84.194	659.912	82.3716	659.912	83.6481	659.912	81.6419	659.912	83.1278	659.912	81.17	659.912	82.5809	659.912	81.2155	659.912	82.0498	659.912	81.8448	659.912	81.7912	659.912	82.8064	659.912	82.1739	659.912	83.7397	659.912	83.1092	659.912	84.3595	659.912	84.0229	659.912	84.4793
683.35	88.9311	683.35	88.5475	683.35	89.0628	683.35	87.9302	683.35	88.9567	683.35	87.1416	683.35	88.6352	683.35	86.274	683.35	88.1091	683.35	85.4035	683.35	87.3798	683.35	84.5492	683.35	86.4631	683.35	83.6862	683.35	85.4188	683.35	82.8082	683.35	84.3618	683.35	81.9822	683.35	83.4343	683.35	81.341	683.35	82.7467	683.35	81.0051	683.35	82.3433	683.35	81.0219	683.35	82.211	683.35	81.3895	683.35	82.2988	683.35	82.0634	683.35	82.5446	683.35	82.8997	683.35	82.9127	683.35	83.6613	683.35	83.3824	683.35	84.1223	683.35	83.8652	683.35	84.1726
706.787	88.3189	706.787	87.9228	706.787	88.5027	706.787	87.3285	706.787	88.4689	706.787	86.5827	706.787	88.2056	706.787	85.7734	706.787	87.7022	706.787	85.002	706.787	86.975	706.787	84.3185	706.787	86.0832	706.787	83.675	706.787	85.1208	706.787	82.9643	706.787	84.1774	706.787	82.1117	706.787	83.2934	706.787	81.1488	706.787	82.4691	706.787	80.2494	706.787	81.7309	706.787	79.7187	706.787	81.1465	706.787	79.853	706.787	80.7876	706.787	80.6628	706.787	80.8155	706.787	81.8159	706.787	81.4432	706.787	82.9027	706.787	82.4812	706.787	83.624	706.787	83.3923	706.787	83.8071
731.689	88.1462	731.689	87.7874	731.689	88.278	731.689	87.2204	731.689	88.1772	731.689	86.4854	731.689	87.8452	731.689	85.6467	731.689	87.2926	731.689	84.7875	731.689	86.5448	731.689	83.9894	731.689	85.6487	731.689	83.2874	731.689	84.6866	731.689	82.6344	731.689	83.769	731.689	81.9433	731.689	82.9756	731.689	81.182	731.689	82.3067	731.689	80.4345	731.689	81.7538	731.689	79.8993	731.689	81.3686	731.689	79.834	731.689	81.1477	731.689	80.3943	731.689	80.9952	731.689	81.4172	731.689	81.0352	731.689	82.4695	731.689	81.6046	731.689	83.1285	731.689	82.5177	731.689	83.1459
758.057	88.1673	758.057	87.7791	758.057	88.3595	758.057	87.2139	758.057	88.3422	758.057	86.5032	758.057	88.1014	758.057	85.687	758.057	87.6253	758.057	84.7997	758.057	86.9133	758.057	83.868	758.057	85.9948	758.057	82.9298	758.057	84.9447	758.057	82.0543	758.057	83.8738	758.057	81.3329	758.057	82.88	758.057	80.8251	758.057	82.0036	758.057	80.5059	758.057	81.2603	758.057	80.3115	758.057	80.7589	758.057	80.2704	758.057	80.7186	758.057	80.5394	758.057	81.1595	758.057	81.1908	758.057	81.7646	758.057	81.9935	758.057	82.2732	758.057	82.5891	758.057	82.6347	758.057	82.7876
784.424	87.9712	784.424	87.696	784.424	88.0905	784.424	87.2556	784.424	88.0369	784.424	86.648	784.424	87.7616	784.424	85.9082	784.424	87.2136	784.424	85.1062	784.424	86.3784	784.424	84.3067	784.424	85.3035	784.424	83.5242	784.424	84.1008	784.424	82.73	784.424	82.9265	784.424	81.9133	784.424	81.9425	784.424	81.1352	784.424	81.2613	784.424	80.5233	784.424	80.8565	784.424	80.2098	784.424	80.5336	784.424	80.2709	784.424	80.1543	784.424	80.6921	784.424	79.8971	784.424	81.3288	784.424	80.0878	784.424	81.9244	784.424	80.7342	784.424	82.2233	784.424	81.5143	784.424	82.0796
812.256	88.5203	812.256	88.234	812.256	88.6884	812.256	87.8109	812.256	88.71	812.256	87.2263	812.256	88.5187	812.256	86.497	812.256	88.0624	812.256	85.6933	812.256	87.3415	812.256	84.8878	812.256	86.3952	812.256	84.0681	812.256	85.262	812.256	83.128	812.256	83.9643	812.256	81.9896	812.256	82.5501	812.256	80.7617	812.256	81.2208	812.256	79.8039	812.256	80.4137	812.256	79.4927	812.256	80.3311	812.256	79.8167	812.256	80.5038	812.256	80.4723	812.256	80.5172	812.256	81.2281	812.256	80.6107	812.256	81.9519	812.256	81.2116	812.256	82.4629	812.256	82.0441	812.256	82.5319
840.82	88.7101	840.82	88.3534	840.82	88.9505	840.82	87.9307	840.82	88.9716	840.82	87.4296	840.82	88.6818	840.82	86.8324	840.82	88.0512	840.82	86.1646	840.82	87.1284	840.82	85.4678	840.82	86.0311	840.82	84.7332	840.82	84.9088	840.82	83.8817	840.82	83.8666	840.82	82.8116	840.82	82.8918	840.82	81.4904	840.82	81.8781	840.82	80.1182	840.82	80.7271	840.82	79.2852	840.82	79.4656	840.82	79.503	840.82	78.5046	840.82	80.4229	840.82	78.5566	840.82	81.4138	840.82	79.494	840.82	82.1421	840.82	80.6025	840.82	82.4433	840.82	81.5669	840.82	82.2347
870.85	88.897	870.85	88.5677	870.85	88.9826	870.85	88.0456	870.85	88.7956	870.85	87.3628	870.85	88.3531	870.85	86.5414	870.85	87.7012	870.85	85.6682	870.85	86.8674	870.85	84.9268	870.85	85.8307	870.85	84.4435	870.85	84.576	870.85	84.1059	870.85	83.1953	870.85	83.6606	870.85	81.9324	870.85	82.9157	870.85	81.1453	870.85	81.8071	870.85	81.0478	870.85	80.4485	870.85	81.2769	870.85	79.359	870.85	81.1641	870.85	79.4638	870.85	80.4653	870.85	80.7913	870.85	79.975	870.85	82.2958	870.85	80.905	870.85	83.2415	870.85	82.4366	870.85	83.3205
901.611	89.3534	901.611	89.1546	901.611	89.2123	901.611	88.6405	901.611	88.784	901.611	87.8888	901.611	88.1566	901.611	86.9773	901.611	87.3864	901.611	85.9701	901.611	86.4871	901.611	84.9593	901.611	85.4735	901.611	84.0783	901.611	84.3755	901.611	83.3966	901.611	83.1935	901.611	82.8151	901.611	81.882	901.611	82.1687	901.611	80.4864	901.611	81.4137	901.611	79.4217	901.611	80.6827	901.611	79.2771	901.611	80.1936	901.611	79.8348	901.611	80.139	901.611	80.3524	901.611	80.6207	901.611	80.5866	901.611	81.4611	901.611	80.8953	901.611	82.131	901.611	81.5667	901.611	82.1615
933.105	89.9839	933.105	89.7759	933.105	89.8165	933.105	89.2108	933.105	89.3077	933.105	88.368	933.105	88.5302	933.105	87.3728	933.105	87.5769	933.105	86.3414	933.105	86.5144	933.105	85.303	933.105	85.3434	933.105	84.2288	933.105	84.0452	933.105	83.2048	933.105	82.6391	933.105	82.463	933.105	81.2257	933.105	82.0797	933.105	80.175	933.105	81.843	933.105	79.9669	933.105	81.5436	933.105	80.3168	933.105	81.1509	933.105	80.5934	933.105	80.8682	933.105	80.6563	933.105	81.1702	933.105	80.7883	933.105	82.1741	933.105	81.5134	933.105	83.1533	933.105	82.6826	933.105	83.3862
966.064	90.4052	966.064	90.3749	966.064	89.937	966.064	89.8097	966.064	89.1615	966.064	88.8347	966.064	88.2882	966.064	87.6576	966.064	87.3704	966.064	86.4436	966.064	86.3154	966.064	85.2499	966.064	85.0615	966.064	84.1073	966.064	83.6742	966.064	83.0775	966.064	82.2468	966.064	82.1594	966.064	80.7257	966.064	81.2927	966.064	78.9793	966.064	80.5749	966.064	77.4069	966.064	80.3142	966.064	76.9708	966.064	80.6388	966.064	77.5197	966.064	81.2706	966.064	78.477	966.064	81.9125	966.064	79.4992	966.064	82.4283	966.064	80.3058	966.064	82.6022	966.064	81.2102	966.064	82.161
999.756	90.4767	999.756	90.5255	999.756	90.0024	999.756	90.1215	999.756	89.1904	999.756	89.3007	999.756	88.1599	999.756	88.1489	999.756	87.0424	999.756	86.8295	999.756	85.9523	999.756	85.6383	999.756	84.9374	999.756	84.8605	999.756	83.963	999.756	84.434	999.756	82.8721	999.756	84.0025	999.756	81.3417	999.756	83.2689	999.756	79.1478	999.756	82.2131	999.756	77.2244	999.756	81.2901	999.756	77.5518	999.756	81.1972	999.756	78.652	999.756	81.7975	999.756	78.9286	999.756	82.4089	999.756	79.0485	999.756	82.7765	999.756	80.0479	999.756	82.8746	999.756	81.4818	999.756	82.5082
1,034.91	90.4926	1,034.91	90.8953	1,034.91	89.7859	1,034.91	90.8377	1,034.91	88.8979	1,034.91	90.2589	1,034.91	87.8369	1,034.91	89.2273	1,034.91	86.595	1,034.91	87.8953	1,034.91	85.25	1,034.91	86.4458	1,034.91	83.8996	1,034.91	85.0604	1,034.91	82.5763	1,034.91	83.8953	1,034.91	81.3118	1,034.91	83.1309	1,034.91	80.0384	1,034.91	82.8488	1,034.91	78.5347	1,034.91	82.7478	1,034.91	76.8365	1,034.91	82.5388	1,034.91	75.2134	1,034.91	82.3923	1,034.91	74.5662	1,034.91	82.67	1,034.91	76.3654	1,034.91	83.3461	1,034.91	78.3638	1,034.91	83.9483	1,034.91	79.5707	1,034.91	83.9427	1,034.91	81.1857	1,034.91	82.9743
1,071.53	90.1748	1,071.53	90.8017	1,071.53	89.2176	1,071.53	90.9437	1,071.53	88.0953	1,071.53	90.555	1,071.53	86.9472	1,071.53	89.7102	1,071.53	86.0063	1,071.53	88.5714	1,071.53	85.4406	1,071.53	87.3362	1,071.53	84.9862	1,071.53	86.1805	1,071.53	84.245	1,071.53	85.2146	1,071.53	83.2627	1,071.53	84.3894	1,071.53	82.3965	1,071.53	83.456	1,071.53	81.5291	1,071.53	82.2367	1,071.53	80.1966	1,071.53	81.1308	1,071.53	79.0495	1,071.53	81.1954	1,071.53	78.7914	1,071.53	82.6078	1,071.53	76.9485	1,071.53	84.1418	1,071.53	73.8967	1,071.53	84.9734	1,071.53	77.8759	1,071.53	84.8583	1,071.53	81.5172	1,071.53	83.7034
1,109.62	88.4901	1,109.62	89.4634	1,109.62	87.2962	1,109.62	90.0237	1,109.62	86.0354	1,109.62	89.9364	1,109.62	85.2003	1,109.62	89.1226	1,109.62	85.2346	1,109.62	87.7195	1,109.62	85.5817	1,109.62	86.0824	1,109.62	85.466	1,109.62	84.7524	1,109.62	84.655	1,109.62	84.0626	1,109.62	83.3256	1,109.62	83.7156	1,109.62	81.7448	1,109.62	83.2196	1,109.62	80.056	1,109.62	82.3624	1,109.62	79.044	1,109.62	81.3135	1,109.62	79.8041	1,109.62	80.8482	1,109.62	80.9172	1,109.62	81.698	1,109.62	80.9238	1,109.62	82.9376	1,109.62	79.0672	1,109.62	83.4564	1,109.62	74.1695	1,109.62	82.7293	1,109.62	74.3104	1,109.62	80.0607
1,148.44	87.3911	1,148.44	88.0694	1,148.44	86.9318	1,148.44	88.6618	1,148.44	86.8044	1,148.44	88.8254	1,148.44	86.9779	1,148.44	88.2754	1,148.44	87.3769	1,148.44	86.9275	1,148.44	87.8018	1,148.44	85.0422	1,148.44	87.8918	1,148.44	83.1814	1,148.44	87.3462	1,148.44	81.9074	1,148.44	86.3491	1,148.44	81.5616	1,148.44	85.4812	1,148.44	81.874	1,148.44	84.6248	1,148.44	82.0277	1,148.44	82.7923	1,148.44	81.6462	1,148.44	80.4373	1,148.44	81.2144	1,148.44	81.4044	1,148.44	81.6786	1,148.44	82.869	1,148.44	82.3316	1,148.44	82.1288	1,148.44	82.0541	1,148.44	79.3136	1,148.44	80.7165	1,148.44	76.9134	1,148.44	78.4752
1,189.45	87.2023	1,189.45	86.4185	1,189.45	88.349	1,189.45	86.4166	1,189.45	89.3019	1,189.45	86.6549	1,189.45	89.9207	1,189.45	86.4706	1,189.45	90.1903	1,189.45	85.6543	1,189.45	90.0398	1,189.45	84.2568	1,189.45	89.321	1,189.45	82.4807	1,189.45	87.9551	1,189.45	80.7274	1,189.45	86.3182	1,189.45	79.4522	1,189.45	85.2435	1,189.45	78.9439	1,189.45	84.6905	1,189.45	78.8763	1,189.45	83.6182	1,189.45	78.0446	1,189.45	81.9747	1,189.45	76.2003	1,189.45	81.7135	1,189.45	78.1586	1,189.45	82.8118	1,189.45	81.2295	1,189.45	83.0415	1,189.45	81.8547	1,189.45	81.4313	1,189.45	80.4046	1,189.45	78.6799	1,189.45	78.2734
1,231.2	91.653	1,231.2	90.096	1,231.2	92.7215	1,231.2	88.1185	1,231.2	93.2466	1,231.2	85.8315	1,231.2	93.2504	1,231.2	83.6701	1,231.2	92.8141	1,231.2	82.2062	1,231.2	92.0333	1,231.2	81.2756	1,231.2	90.9154	1,231.2	80.5429	1,231.2	89.359	1,231.2	80.0784	1,231.2	87.5073	1,231.2	79.5874	1,231.2	86.066	1,231.2	79.0723	1,231.2	85.4416	1,231.2	79.1454	1,231.2	84.7018	1,231.2	78.7714	1,231.2	83.1047	1,231.2	75.4981	1,231.2	81.9829	1,231.2	66.7079	1,231.2	82.9063	1,231.2	74.1341	1,231.2	83.4644	1,231.2	78.2392	1,231.2	82.3662	1,231.2	79.5112	1,231.2	80.6764	1,231.2	79.8995
1,274.41	92.4349	1,274.41	91.904	1,274.41	92.6739	1,274.41	90.9908	1,274.41	92.6664	1,274.41	89.6418	1,274.41	92.3669	1,274.41	87.8866	1,274.41	91.6348	1,274.41	85.8585	1,274.41	90.4492	1,274.41	83.8112	1,274.41	89.0122	1,274.41	81.8473	1,274.41	87.3677	1,274.41	80.0888	1,274.41	85.3566	1,274.41	79.064	1,274.41	83.6031	1,274.41	78.6637	1,274.41	83.1945	1,274.41	79.0554	1,274.41	82.5881	1,274.41	80.3052	1,274.41	80.9064	1,274.41	80.6286	1,274.41	81.6783	1,274.41	78.5086	1,274.41	83.0507	1,274.41	73.8445	1,274.41	82.3834	1,274.41	75.7458	1,274.41	80.9392	1,274.41	79.15	1,274.41	80.1698	1,274.41	80.0265
1,319.82	91.5338	1,319.82	91.492	1,319.82	91.3589	1,319.82	91.0404	1,319.82	91.019	1,319.82	90.0017	1,319.82	90.4946	1,319.82	88.4761	1,319.82	89.7205	1,319.82	86.7838	1,319.82	88.5704	1,319.82	85.2236	1,319.82	86.8649	1,319.82	83.9451	1,319.82	84.5707	1,319.82	82.7719	1,319.82	82.0846	1,319.82	81.2738	1,319.82	80.1156	1,319.82	79.5626	1,319.82	79.1831	1,319.82	79.3027	1,319.82	78.9099	1,319.82	80.6851	1,319.82	78.7304	1,319.82	81.2991	1,319.82	79.3201	1,319.82	79.772	1,319.82	80.6337	1,319.82	76.702	1,319.82	81.6084	1,319.82	77.3183	1,319.82	80.6672	1,319.82	79.2323	1,319.82	78.4971	1,319.82	79.0793
1,365.97	89.9374	1,365.97	90.4992	1,365.97	89.5107	1,365.97	90.6995	1,365.97	89.22	1,365.97	90.1792	1,365.97	88.7973	1,365.97	89.0256	1,365.97	88.1968	1,365.97	87.5339	1,365.97	87.3401	1,365.97	85.921	1,365.97	85.834	1,365.97	84.395	1,365.97	83.5077	1,365.97	83.4054	1,365.97	81.0442	1,365.97	82.8762	1,365.97	79.6198	1,365.97	81.9829	1,365.97	79.5965	1,365.97	81.1379	1,365.97	79.8907	1,365.97	81.7321	1,365.97	78.1091	1,365.97	82.4959	1,365.97	74.3055	1,365.97	81.6537	1,365.97	79.9849	1,365.97	79.7163	1,365.97	82.2441	1,365.97	79.131	1,365.97	80.4178	1,365.97	79.1923	1,365.97	77.7724	1,365.97	78.2009
1,414.31	88.6124	1,414.31	88.526	1,414.31	88.9585	1,414.31	88.7717	1,414.31	89.1278	1,414.31	88.636	1,414.31	89.1411	1,414.31	87.8947	1,414.31	88.822	1,414.31	86.6616	1,414.31	88.0637	1,414.31	85.0061	1,414.31	86.9982	1,414.31	83.2	1,414.31	85.6772	1,414.31	81.9163	1,414.31	84.0305	1,414.31	81.5021	1,414.31	82.2283	1,414.31	80.7956	1,414.31	81.3748	1,414.31	79.5669	1,414.31	81.0796	1,414.31	80.6073	1,414.31	78.7875	1,414.31	82.2974	1,414.31	75.4203	1,414.31	81.3013	1,414.31	78.5657	1,414.31	78.1086	1,414.31	80.1971	1,414.31	77.2982	1,414.31	79.3761	1,414.31	77.3933	1,414.31	76.3866	1,414.31	75.3131
1,464.11	88.8604	1,464.11	88.1636	1,464.11	89.5256	1,464.11	88.0149	1,464.11	89.79	1,464.11	88.0317	1,464.11	89.7543	1,464.11	87.6692	1,464.11	89.322	1,464.11	86.5684	1,464.11	88.3712	1,464.11	84.5891	1,464.11	86.9137	1,464.11	82.2111	1,464.11	85.096	1,464.11	79.5984	1,464.11	82.9599	1,464.11	77.7266	1,464.11	80.4402	1,464.11	77.8999	1,464.11	79.1646	1,464.11	77.0687	1,464.11	80.0292	1,464.11	76.9328	1,464.11	79.7563	1,464.11	79.3132	1,464.11	78.2828	1,464.11	79.7021	1,464.11	77.9552	1,464.11	77.8661	1,464.11	79.2857	1,464.11	77.0805	1,464.11	78.919	1,464.11	77.0462	1,464.11	75.31	1,464.11	74.9598
1,515.38	89.0217	1,515.38	87.7923	1,515.38	89.8331	1,515.38	87.162	1,515.38	90.2523	1,515.38	87.3144	1,515.38	90.1671	1,515.38	87.2947	1,515.38	89.2884	1,515.38	86.4874	1,515.38	87.9932	1,515.38	84.5612	1,515.38	86.5743	1,515.38	82.0245	1,515.38	84.7531	1,515.38	79.3583	1,515.38	82.3698	1,515.38	76.5316	1,515.38	80.0586	1,515.38	76.1293	1,515.38	79.1561	1,515.38	76.116	1,515.38	79.54	1,515.38	73.1298	1,515.38	79.8329	1,515.38	75.4031	1,515.38	78.0711	1,515.38	78.5854	1,515.38	76.5116	1,515.38	77.86	1,515.38	78.8552	1,515.38	76.9463	1,515.38	78.7798	1,515.38	76.8875	1,515.38	75.9757	1,515.38	75.1617
1,568.85	89.118	1,568.85	87.9115	1,568.85	90.0353	1,568.85	86.7923	1,568.85	90.6972	1,568.85	86.6984	1,568.85	90.5487	1,568.85	86.9949	1,568.85	89.5894	1,568.85	86.6316	1,568.85	88.2557	1,568.85	85.0529	1,568.85	86.6774	1,568.85	82.6249	1,568.85	85.0176	1,568.85	80.9202	1,568.85	83.3271	1,568.85	80.0188	1,568.85	81.0978	1,568.85	80.0246	1,568.85	78.4996	1,568.85	80.8479	1,568.85	79.0673	1,568.85	79.5853	1,568.85	79.6624	1,568.85	75.8624	1,568.85	75.3607	1,568.85	77.3333	1,568.85	75.3384	1,568.85	77.3301	1,568.85	79.922	1,568.85	76.1538	1,568.85	79.9341	1,568.85	75.9126	1,568.85	76.0773	1,568.85	73.3693
1,624.51	88.4997	1,624.51	87.7357	1,624.51	89.7585	1,624.51	87.3463	1,624.51	90.7558	1,624.51	87.1424	1,624.51	90.7628	1,624.51	86.979	1,624.51	89.7889	1,624.51	86.6517	1,624.51	87.9684	1,624.51	85.5569	1,624.51	85.639	1,624.51	83.4941	1,624.51	83.8207	1,624.51	81.4639	1,624.51	82.7129	1,624.51	79.5299	1,624.51	80.7781	1,624.51	79.8825	1,624.51	77.0703	1,624.51	83.0356	1,624.51	78.7763	1,624.51	83.3838	1,624.51	80.3839	1,624.51	79.5836	1,624.51	77.7432	1,624.51	75.9605	1,624.51	74.7361	1,624.51	75.4179	1,624.51	77.1623	1,624.51	73.445	1,624.51	79.6323	1,624.51	72.6546	1,624.51	77.1166	1,624.51	69.9509
1,681.64	87.9076	1,681.64	86.9961	1,681.64	89.4651	1,681.64	87.1122	1,681.64	90.8142	1,681.64	87.4166	1,681.64	91.0807	1,681.64	86.8644	1,681.64	90.0412	1,681.64	86.0021	1,681.64	87.8174	1,681.64	85.0492	1,681.64	85.206	1,681.64	83.2435	1,681.64	83.4678	1,681.64	81.6309	1,681.64	82.5642	1,681.64	79.9174	1,681.64	81.5849	1,681.64	76.5025	1,681.64	78.8499	1,681.64	81.2568	1,681.64	76.2184	1,681.64	83.8051	1,681.64	78.5056	1,681.64	82.057	1,681.64	78.6772	1,681.64	78.2981	1,681.64	78.3866	1,681.64	74.0967	1,681.64	77.6625	1,681.64	69.4833	1,681.64	79.9852	1,681.64	69.6992	1,681.64	78.4931	1,681.64	70.6061
1,740.97	88.945	1,740.97	87.3945	1,740.97	90.4296	1,740.97	86.8163	1,740.97	91.2357	1,740.97	87.1899	1,740.97	91.2063	1,740.97	86.7043	1,740.97	90.0488	1,740.97	85.1515	1,740.97	87.5954	1,740.97	84.2998	1,740.97	84.7189	1,740.97	83.3639	1,740.97	82.7989	1,740.97	81.8364	1,740.97	82.1255	1,740.97	81.2384	1,740.97	81.5589	1,740.97	77.8067	1,740.97	79.5803	1,740.97	76.8036	1,740.97	76.172	1,740.97	82.2477	1,740.97	76.396	1,740.97	82.3994	1,740.97	77.5208	1,740.97	79.7504	1,740.97	78.0206	1,740.97	77.2241	1,740.97	79.483	1,740.97	73.9057	1,740.97	80.5811	1,740.97	71.0063	1,740.97	78.8806	1,740.97	71.8268
1,802.49	89.9694	1,802.49	87.9663	1,802.49	91.2816	1,802.49	86.5219	1,802.49	91.938	1,802.49	86.6499	1,802.49	91.5828	1,802.49	86.5764	1,802.49	89.846	1,802.49	85.0107	1,802.49	87.1677	1,802.49	83.6463	1,802.49	84.5306	1,802.49	83.364	1,802.49	82.5325	1,802.49	81.2675	1,802.49	81.3982	1,802.49	79.9543	1,802.49	80.6396	1,802.49	79.1749	1,802.49	78.6841	1,802.49	73.0867	1,802.49	75.3146	1,802.49	76.8008	1,802.49	75.2093	1,802.49	79.797	1,802.49	76.9881	1,802.49	79.3602	1,802.49	76.5495	1,802.49	78.1911	1,802.49	78.8333	1,802.49	75.4303	1,802.49	80.5554	1,802.49	68.5485	1,802.49	77.983	1,802.49	69.802
1,866.21	90.3214	1,866.21	88.7187	1,866.21	91.78	1,866.21	87.1834	1,866.21	92.3542	1,866.21	86.6597	1,866.21	91.3787	1,866.21	86.6665	1,866.21	89.2781	1,866.21	85.8818	1,866.21	86.4977	1,866.21	83.6375	1,866.21	83.5356	1,866.21	82.3034	1,866.21	81.3419	1,866.21	81.4569	1,866.21	80.2952	1,866.21	79.3209	1,866.21	80.0655	1,866.21	78.3448	1,866.21	79.4342	1,866.21	74.6751	1,866.21	77.2155	1,866.21	67.7442	1,866.21	75.3016	1,866.21	76.5715	1,866.21	77.2165	1,866.21	77.5237	1,866.21	76.2604	1,866.21	76.4972	1,866.21	78.7205	1,866.21	75.2232	1,866.21	80.2531	1,866.21	69.0626	1,866.21	77.0564	1,866.21	71.8466
1,932.13	90.3002	1,932.13	89.5606	1,932.13	91.673	1,932.13	89.159	1,932.13	92.4205	1,932.13	88.1447	1,932.13	91.7685	1,932.13	87.6215	1,932.13	89.1907	1,932.13	87.5678	1,932.13	85.0162	1,932.13	86.2995	1,932.13	81.6769	1,932.13	83.7983	1,932.13	79.5271	1,932.13	81.1708	1,932.13	77.7899	1,932.13	78.5691	1,932.13	78.4669	1,932.13	80.471	1,932.13	78.6963	1,932.13	81.1569	1,932.13	75.608	1,932.13	77.0731	1,932.13	76.6204	1,932.13	79.2417	1,932.13	77.1427	1,932.13	80.8673	1,932.13	74.4943	1,932.13	77.2914	1,932.13	78.1057	1,932.13	75.4347	1,932.13	80.1972	1,932.13	72.6329	1,932.13	78.0252	1,932.13	72.4107
2,000.24	92.0645	2,000.24	90.291	2,000.24	92.8143	2,000.24	89.6965	2,000.24	92.9326	2,000.24	89.2067	2,000.24	91.9624	2,000.24	88.3045	2,000.24	89.2102	2,000.24	88.7218	2,000.24	85.9924	2,000.24	87.8725	2,000.24	83.6054	2,000.24	84.5661	2,000.24	82.1593	2,000.24	82.0916	2,000.24	82.0492	2,000.24	80.0436	2,000.24	82.3388	2,000.24	81.0802	2,000.24	81.1549	2,000.24	83.9327	2,000.24	77.0642	2,000.24	81.8139	2,000.24	74.4738	2,000.24	80.981	2,000.24	77.5738	2,000.24	81.9912	2,000.24	77.1915	2,000.24	78.7418	2,000.24	76.0193	2,000.24	76.6426	2,000.24	80.842	2,000.24	73.9781	2,000.24	80.1089	2,000.24	73.5362
2,070.56	93.3424	2,070.56	91.1654	2,070.56	94.4213	2,070.56	89.8235	2,070.56	93.8799	2,070.56	90.5549	2,070.56	91.7941	2,070.56	90.7273	2,070.56	88.8701	2,070.56	90.1485	2,070.56	86.2407	2,070.56	89.1457	2,070.56	84.8007	2,070.56	86.9136	2,070.56	83.0519	2,070.56	84.5143	2,070.56	82.6223	2,070.56	82.1639	2,070.56	83.4471	2,070.56	80.8967	2,070.56	82.4167	2,070.56	82.6579	2,070.56	80.5944	2,070.56	80.869	2,070.56	77.9772	2,070.56	79.9089	2,070.56	75.6855	2,070.56	82.4225	2,070.56	76.8947	2,070.56	79.6466	2,070.56	72.7941	2,070.56	73.6835	2,070.56	80.7377	2,070.56	71.3942	2,070.56	81.3357	2,070.56	75.3239
2,143.8	93.3144	2,143.8	91.3942	2,143.8	94.7081	2,143.8	90.8339	2,143.8	94.534	2,143.8	91.7956	2,143.8	92.6979	2,143.8	92.0526	2,143.8	89.8019	2,143.8	90.3119	2,143.8	87.5602	2,143.8	88.809	2,143.8	85.9996	2,143.8	87.1682	2,143.8	84.976	2,143.8	85.1345	2,143.8	83.8683	2,143.8	83.6684	2,143.8	83.108	2,143.8	79.9008	2,143.8	83.2468	2,143.8	81.2155	2,143.8	82.7826	2,143.8	80.5813	2,143.8	79.281	2,143.8	73.9487	2,143.8	75.6821	2,143.8	79.899	2,143.8	78.5887	2,143.8	80.2138	2,143.8	77.8471	2,143.8	72.6235	2,143.8	81.225	2,143.8	74.0813	2,143.8	82.4164	2,143.8	74.9887
2,219.24	92.8604	2,219.24	90.9355	2,219.24	94.4677	2,219.24	91.521	2,219.24	94.7017	2,219.24	93.0248	2,219.24	93.119	2,219.24	93.4677	2,219.24	90.5921	2,219.24	91.3055	2,219.24	88.2977	2,219.24	88.0239	2,219.24	86.9564	2,219.24	88.1177	2,219.24	85.9436	2,219.24	86.5589	2,219.24	84.7433	2,219.24	83.2557	2,219.24	82.7389	2,219.24	81.7779	2,219.24	81.8206	2,219.24	78.2676	2,219.24	82.8246	2,219.24	80.0924	2,219.24	83.126	2,219.24	80.1467	2,219.24	78.2449	2,219.24	79.9149	2,219.24	77.964	2,219.24	81.9454	2,219.24	80.8663	2,219.24	76.1672	2,219.24	81.3819	2,219.24	68.9041	2,219.24	79.9674	2,219.24	52.7629
2,297.61	94.1404	2,297.61	90.7378	2,297.61	95.746	2,297.61	90.9027	2,297.61	95.0286	2,297.61	93.0418	2,297.61	93.1614	2,297.61	93.439	2,297.61	91.6098	2,297.61	92.3704	2,297.61	89.8784	2,297.61	89.9042	2,297.61	87.444	2,297.61	88.4927	2,297.61	86.9319	2,297.61	86.3865	2,297.61	85.8058	2,297.61	82.2515	2,297.61	81.902	2,297.61	82.1112	2,297.61	80.8447	2,297.61	80.043	2,297.61	82.1698	2,297.61	81.1822	2,297.61	82.7225	2,297.61	83.3612	2,297.61	80.5826	2,297.61	82.7518	2,297.61	76.4788	2,297.61	83.9456	2,297.61	78.0263	2,297.61	79.9995	2,297.61	79.3924	2,297.61	65.7365	2,297.61	80.2249	2,297.61	72.885
2,378.17	94.728	2,378.17	91.911	2,378.17	96.6476	2,378.17	91.4173	2,378.17	95.9528	2,378.17	93.5616	2,378.17	93.26	2,378.17	92.8361	2,378.17	90.4702	2,378.17	91.7832	2,378.17	88.5553	2,378.17	90.8292	2,378.17	88.1255	2,378.17	86.5057	2,378.17	87.2152	2,378.17	83.6253	2,378.17	85.3317	2,378.17	83.1307	2,378.17	83.6966	2,378.17	83.7968	2,378.17	81.972	2,378.17	82.3227	2,378.17	84.7853	2,378.17	79.6192	2,378.17	81.0317	2,378.17	83.4812	2,378.17	79.4087	2,378.17	83.5124	2,378.17	71.1336	2,378.17	81.5095	2,378.17	75.7714	2,378.17	76.4802	2,378.17	79.4513	2,378.17	66.3819	2,378.17	82.422	2,378.17	73.962
2,462.4	92.7219	2,462.4	90.4371	2,462.4	95.2796	2,462.4	91.0456	2,462.4	95.4948	2,462.4	91.8998	2,462.4	93.588	2,462.4	92.0571	2,462.4	89.8237	2,462.4	91.8338	2,462.4	86.8955	2,462.4	90.1554	2,462.4	85.7398	2,462.4	86.93	2,462.4	83.9551	2,462.4	84.4649	2,462.4	77.3538	2,462.4	82.5862	2,462.4	77.9903	2,462.4	81.0457	2,462.4	76.5513	2,462.4	78.2924	2,462.4	76.2544	2,462.4	77.5459	2,462.4	80.5578	2,462.4	80.4416	2,462.4	76.05	2,462.4	80.6343	2,462.4	73.5506	2,462.4	80.7677	2,462.4	77.531	2,462.4	78.8038	2,462.4	79.0529	2,462.4	70.091	2,462.4	80.2746	2,462.4	72.5658
2,548.83	89.7335	2,548.83	85.9074	2,548.83	92.6979	2,548.83	88.3725	2,548.83	93.4713	2,548.83	90.4842	2,548.83	92.1727	2,548.83	90.9679	2,548.83	88.7831	2,548.83	90.1961	2,548.83	83.8871	2,548.83	88.0191	2,548.83	80.7763	2,548.83	84.6263	2,548.83	80.7005	2,548.83	80.4732	2,548.83	77.095	2,548.83	76.5718	2,548.83	73.6469	2,548.83	77.4815	2,548.83	78.2574	2,548.83	77.745	2,548.83	69.6041	2,548.83	74.6302	2,548.83	75.1352	2,548.83	76.7871	2,548.83	75.6106	2,548.83	78.3108	2,548.83	68.9264	2,548.83	77.6452	2,548.83	73.9055	2,548.83	75.557	2,548.83	74.862	2,548.83	69.2371	2,548.83	77.3317	2,548.83	67.7756
2,638.92	88.9214	2,638.92	85.2016	2,638.92	91.5139	2,638.92	86.134	2,638.92	91.6983	2,638.92	88.8154	2,638.92	89.8477	2,638.92	89.7622	2,638.92	85.6754	2,638.92	88.1668	2,638.92	79.1352	2,638.92	83.9384	2,638.92	77.5603	2,638.92	79.5047	2,638.92	79.6115	2,638.92	78.3149	2,638.92	76.6213	2,638.92	76.75	2,638.92	62.1616	2,638.92	68.5428	2,638.92	75.0146	2,638.92	65.299	2,638.92	75.5499	2,638.92	69.8736	2,638.92	69.4712	2,638.92	70.6085	2,638.92	67.8147	2,638.92	74.8291	2,638.92	68.3512	2,638.92	75.5184	2,638.92	71.0477	2,638.92	70.8242	2,638.92	75.1578	2,638.92	71.207	2,638.92	76.1349	2,638.92	61.275
2,731.93	87.1716	2,731.93	83.3106	2,731.93	90.8271	2,731.93	86.0923	2,731.93	91.2946	2,731.93	88.667	2,731.93	89.0468	2,731.93	89.4296	2,731.93	84.0767	2,731.93	87.3719	2,731.93	77.6834	2,731.93	84.1479	2,731.93	77.9155	2,731.93	80.2597	2,731.93	79.3727	2,731.93	74.986	2,731.93	76.451	2,731.93	67.2852	2,731.93	66.5459	2,731.93	63.9114	2,731.93	77.5409	2,731.93	63.7873	2,731.93	76.9011	2,731.93	62.8589	2,731.93	74.4339	2,731.93	67.5876	2,731.93	70.1293	2,731.93	69.8581	2,731.93	67.164	2,731.93	73.1124	2,731.93	71.0714	2,731.93	65.1674	2,731.93	75.3479	2,731.93	64.4554	2,731.93	77.0192	2,731.93	65.5814
2,828.61	87.9211	2,828.61	82.9146	2,828.61	91.5188	2,828.61	86.6815	2,828.61	91.7164	2,828.61	88.8177	2,828.61	89.1082	2,828.61	88.8545	2,828.61	83.5926	2,828.61	86.9195	2,828.61	78.9787	2,828.61	84.0703	2,828.61	80.3316	2,828.61	79.4399	2,828.61	81.2898	2,828.61	70.3669	2,828.61	78.9337	2,828.61	67.0306	2,828.61	71.207	2,828.61	67.5505	2,828.61	77.9549	2,828.61	62.0199	2,828.61	78.5194	2,828.61	62.7431	2,828.61	72.9641	2,828.61	67.093	2,828.61	73.8305	2,828.61	68.7332	2,828.61	66.7358	2,828.61	72.9051	2,828.61	68.0592	2,828.61	70.0694	2,828.61	74.5682	2,828.61	63.5733	2,828.61	73.9366	2,828.61	61.8318
2,928.22	87.8694	2,928.22	83.576	2,928.22	91.6737	2,928.22	87.3787	2,928.22	91.9437	2,928.22	89.5951	2,928.22	89.1468	2,928.22	88.4324	2,928.22	84.0225	2,928.22	85.9794	2,928.22	79.6623	2,928.22	82.7845	2,928.22	81.4696	2,928.22	74.0715	2,928.22	81.5103	2,928.22	66.1984	2,928.22	81.695	2,928.22	69.4	2,928.22	77.1085	2,928.22	61.7435	2,928.22	75.0314	2,928.22	59.6961	2,928.22	79.0808	2,928.22	53.3794	2,928.22	74.5942	2,928.22	61.4453	2,928.22	73.4099	2,928.22	63.9604	2,928.22	70.2468	2,928.22	68.7763	2,928.22	54.4783	2,928.22	68.2332	2,928.22	72.5731	2,928.22	46.2539	2,928.22	73.4013	2,928.22	65.5952
3,031.49	85.911	3,031.49	82.7429	3,031.49	90.7824	3,031.49	87.4541	3,031.49	91.7592	3,031.49	89.3951	3,031.49	89.3781	3,031.49	87.8752	3,031.49	83.3639	3,031.49	84.3148	3,031.49	77.8409	3,031.49	79.174	3,031.49	80.0049	3,031.49	62.2048	3,031.49	81.7382	3,031.49	66.8319	3,031.49	82.4269	3,031.49	56.4118	3,031.49	76.927	3,031.49	66.7863	3,031.49	70.0817	3,031.49	56.0107	3,031.49	76.3026	3,031.49	61.1077	3,031.49	73.9696	3,031.49	59.527	3,031.49	73.8538	3,031.49	59.145	3,031.49	69.9597	3,031.49	64.6161	3,031.49	59.0815	3,031.49	65.0692	3,031.49	69.5045	3,031.49	63.0549	3,031.49	72.6164	3,031.49	53.6992
3,138.43	84.814	3,138.43	82.8362	3,138.43	89.6895	3,138.43	87.9772	3,138.43	91.0915	3,138.43	88.3744	3,138.43	89.0992	3,138.43	86.7338	3,138.43	82.5183	3,138.43	82.4552	3,138.43	76.7731	3,138.43	72.2116	3,138.43	79.856	3,138.43	68.4253	3,138.43	82.0947	3,138.43	43.7536	3,138.43	82.9051	3,138.43	66.9379	3,138.43	76.9498	3,138.43	72.5232	3,138.43	70.481	3,138.43	70.1431	3,138.43	75.6964	3,138.43	55.3884	3,138.43	72.4273	3,138.43	65.1189	3,138.43	71.2014	3,138.43	60.632	3,138.43	69.9632	3,138.43	59.5172	3,138.43	64.439	3,138.43	63.0657	3,138.43	67.406	3,138.43	62.0517	3,138.43	69.1411	3,138.43	59.703
3,249.02	83.6955	3,249.02	83.2155	3,249.02	89.0934	3,249.02	87.892	3,249.02	90.4812	3,249.02	87.8438	3,249.02	88.451	3,249.02	84.1581	3,249.02	81.1581	3,249.02	75.665	3,249.02	76.5382	3,249.02	48.5161	3,249.02	81.214	3,249.02	63.8278	3,249.02	83.3292	3,249.02	73.5338	3,249.02	84.1538	3,249.02	72.993	3,249.02	76.7154	3,249.02	68.8431	3,249.02	73.7157	3,249.02	70.659	3,249.02	73.396	3,249.02	66.1132	3,249.02	71.6532	3,249.02	61.2214	3,249.02	70.3133	3,249.02	59.8899	3,249.02	65.2557	3,249.02	61.9609	3,249.02	65.3891	3,249.02	66.1007	3,249.02	71.5456	3,249.02	66.0469	3,249.02	70.5758	3,249.02	62.0292
3,363.28	80.6197	3,363.28	82.4619	3,363.28	87.5148	3,363.28	86.9432	3,363.28	89.1755	3,363.28	86.8871	3,363.28	86.5462	3,363.28	81.0834	3,363.28	77.3252	3,363.28	69.7949	3,363.28	77.3194	3,363.28	65.9015	3,363.28	82.3672	3,363.28	74.82	3,363.28	84.1324	3,363.28	74.2135	3,363.28	84.2167	3,363.28	67.8693	3,363.28	71.8669	3,363.28	70.2679	3,363.28	77.5843	3,363.28	71.1511	3,363.28	73.9533	3,363.28	68.9205	3,363.28	70.9906	3,363.28	63.1201	3,363.28	69.8511	3,363.28	66.0448	3,363.28	66.0809	3,363.28	58.5193	3,363.28	61.2049	3,363.28	59.0645	3,363.28	68.8014	3,363.28	60.795	3,363.28	68.9727	3,363.28	59.0083
3,481.93	76.1223	3,481.93	81.6666	3,481.93	85.8409	3,481.93	86.5624	3,481.93	87.6249	3,481.93	85.1003	3,481.93	84.8717	3,481.93	79.2303	3,481.93	72.9623	3,481.93	72.6717	3,481.93	78.0578	3,481.93	71.7872	3,481.93	81.6706	3,481.93	76.0025	3,481.93	82.3388	3,481.93	68.6763	3,481.93	81.9519	3,481.93	70.9391	3,481.93	69.1327	3,481.93	70.8158	3,481.93	79.1511	3,481.93	69.2458	3,481.93	74.7195	3,481.93	67.0515	3,481.93	69.831	3,481.93	65.4273	3,481.93	66.4102	3,481.93	67.2933	3,481.93	65.6234	3,481.93	64.4216	3,481.93	57.3392	3,481.93	63.2969	3,481.93	65.5947	3,481.93	55.9113	3,481.93	68.3322	3,481.93	59.4881
3,604.98	75.7819	3,604.98	80.3987	3,604.98	84.2798	3,604.98	85.796	3,604.98	85.9633	3,604.98	83.9858	3,604.98	83.3914	3,604.98	79.1098	3,604.98	68.7994	3,604.98	71.5923	3,604.98	80.3939	3,604.98	76.434	3,604.98	82.8925	3,604.98	73.0772	3,604.98	81.2112	3,604.98	76.4739	3,604.98	78.1574	3,604.98	75.2573	3,604.98	72.5796	3,604.98	70.5441	3,604.98	78.0031	3,604.98	71.5823	3,604.98	73.2201	3,604.98	68.8764	3,604.98	72.7718	3,604.98	63.9883	3,604.98	68.9072	3,604.98	67.194	3,604.98	66.1488	3,604.98	64.1443	3,604.98	47.917	3,604.98	64.1051	3,604.98	64.5244	3,604.98	61.0884	3,604.98	66.8785	3,604.98	64.2588
3,732.42	76.1984	3,732.42	79.9052	3,732.42	84.7678	3,732.42	85.44	3,732.42	85.4229	3,732.42	84.2814	3,732.42	81.9066	3,732.42	80.0592	3,732.42	56.2245	3,732.42	74.6961	3,732.42	81.1502	3,732.42	74.4152	3,732.42	83.2426	3,732.42	76.2016	3,732.42	80.2682	3,732.42	76.4542	3,732.42	76.5097	3,732.42	71.7627	3,732.42	77.0276	3,732.42	70.9911	3,732.42	77.4785	3,732.42	69.1201	3,732.42	70.8533	3,732.42	70.4532	3,732.42	73.3418	3,732.42	60.6265	3,732.42	69.458	3,732.42	65.2982	3,732.42	69.8201	3,732.42	64.5584	3,732.42	53.024	3,732.42	66.4373	3,732.42	64.0414	3,732.42	55.0075	3,732.42	64.5153	3,732.42	66.0166
3,863.53	77.5577	3,863.53	79.8708	3,863.53	85.7011	3,863.53	85.1392	3,863.53	85.8707	3,863.53	84.4537	3,863.53	80.8147	3,863.53	78.5514	3,863.53	65.6216	3,863.53	74.2797	3,863.53	82.1925	3,863.53	76.3514	3,863.53	84.0849	3,863.53	77.7808	3,863.53	80.9	3,863.53	71.6079	3,863.53	78.2055	3,863.53	71.3531	3,863.53	78.5964	3,863.53	71.7469	3,863.53	73.5426	3,863.53	68.3657	3,863.53	66.8474	3,863.53	69.6641	3,863.53	74.5805	3,863.53	65.3721	3,863.53	70.2548	3,863.53	64.4829	3,863.53	67.9026	3,863.53	63.0557	3,863.53	51.553	3,863.53	66.3184	3,863.53	62.3029	3,863.53	52.6416	3,863.53	63.7219	3,863.53	66.0767
3,999.76	78.4052	3,999.76	82.0016	3,999.76	86.2295	3,999.76	86.5949	3,999.76	86.1705	3,999.76	84.1887	3,999.76	80.2102	3,999.76	76.9023	3,999.76	70.7885	3,999.76	74.337	3,999.76	82.4011	3,999.76	77.5822	3,999.76	83.5052	3,999.76	73.6549	3,999.76	81.6795	3,999.76	74.751	3,999.76	78.6839	3,999.76	75.5543	3,999.76	78.3901	3,999.76	70.7837	3,999.76	74.0901	3,999.76	70.6914	3,999.76	74.0427	3,999.76	68.8604	3,999.76	72.2427	3,999.76	67.715	3,999.76	70.692	3,999.76	65.1805	3,999.76	68.6477	3,999.76	62.3079	3,999.76	47.961	3,999.76	66.1629	3,999.76	61.5917	3,999.76	55.9806	3,999.76	66.369	3,999.76	64.822
4,141.11	77.6826	4,141.11	84.4007	4,141.11	86.2704	4,141.11	87.7243	4,141.11	87.1525	4,141.11	84.3852	4,141.11	82.1625	4,141.11	69.4793	4,141.11	69.6922	4,141.11	77.9204	4,141.11	82.7244	4,141.11	77.8964	4,141.11	84.0086	4,141.11	78.2381	4,141.11	81.6101	4,141.11	77.0664	4,141.11	79.7918	4,141.11	65.1481	4,141.11	80.1187	4,141.11	71.2412	4,141.11	76.5738	4,141.11	70.0719	4,141.11	76.8435	4,141.11	68.1309	4,141.11	74.9487	4,141.11	68.7743	4,141.11	71.4858	4,141.11	63.9178	4,141.11	69.7366	4,141.11	63.5572	4,141.11	41.1569	4,141.11	58.808	4,141.11	64.1564	4,141.11	60.2037	4,141.11	65.9986	4,141.11	61.2613
4,286.87	76.2081	4,286.87	86.2506	4,286.87	86.691	4,286.87	87.3996	4,286.87	87.8725	4,286.87	80.3365	4,286.87	83.5575	4,286.87	74.7171	4,286.87	61.8498	4,286.87	80.1776	4,286.87	79.8213	4,286.87	80.2239	4,286.87	82.7151	4,286.87	76.7374	4,286.87	79.3119	4,286.87	72.1876	4,286.87	79.4208	4,286.87	77.4127	4,286.87	80.9451	4,286.87	71.9467	4,286.87	79.1163	4,286.87	72.5097	4,286.87	76.3175	4,286.87	67.6151	4,286.87	73.6036	4,286.87	68.0337	4,286.87	71.0719	4,286.87	65.9792	4,286.87	67.9507	4,286.87	66.0805	4,286.87	58.0693	4,286.87	61.5782	4,286.87	68.9979	4,286.87	63.4628	4,286.87	68.2165	4,286.87	65.29
4,438.48	74.4962	4,438.48	86.6444	4,438.48	84.7165	4,438.48	86.3804	4,438.48	87.0654	4,438.48	75.2859	4,438.48	83.6583	4,438.48	79.6144	4,438.48	75.7409	4,438.48	81.9767	4,438.48	76.9564	4,438.48	80.5226	4,438.48	80.011	4,438.48	78.3822	4,438.48	79.1623	4,438.48	78.487	4,438.48	80.9351	4,438.48	71.3139	4,438.48	78.4435	4,438.48	72.5431	4,438.48	78.1232	4,438.48	71.4837	4,438.48	73.8295	4,438.48	68.9357	4,438.48	70.906	4,438.48	69.6657	4,438.48	72.5961	4,438.48	67.9117	4,438.48	64.2471	4,438.48	64.0152	4,438.48	58.5278	4,438.48	65.5265	4,438.48	63.0327	4,438.48	57.3746	4,438.48	67.2009	4,438.48	66.1975
4,594.48	75.0688	4,594.48	86.4144	4,594.48	82.7743	4,594.48	84.4638	4,594.48	85.8643	4,594.48	77.1145	4,594.48	81.2773	4,594.48	81.4686	4,594.48	80.9125	4,594.48	81.7494	4,594.48	80.6878	4,594.48	80.7598	4,594.48	81.0499	4,594.48	80.2055	4,594.48	82.0958	4,594.48	72.105	4,594.48	83.2243	4,594.48	74.8232	4,594.48	81.34	4,594.48	72.0044	4,594.48	79.197	4,594.48	72.1857	4,594.48	66.2983	4,594.48	69.4973	4,594.48	69.0891	4,594.48	68.7373	4,594.48	68.1806	4,594.48	68.6732	4,594.48	64.1851	4,594.48	67.3491	4,594.48	67.6777	4,594.48	59.0105	4,594.48	67.1352	4,594.48	59.6819	4,594.48	65.2176	4,594.48	58.7631
4,757.08	75.5821	4,757.08	86.9596	4,757.08	84.1624	4,757.08	83.8303	4,757.08	86.142	4,757.08	78.2244	4,757.08	80.4366	4,757.08	81.8188	4,757.08	80.5921	4,757.08	82.6081	4,757.08	81.6041	4,757.08	80.7339	4,757.08	82.0843	4,757.08	74.5031	4,757.08	84.6223	4,757.08	76.204	4,757.08	83.1435	4,757.08	72.4633	4,757.08	81.287	4,757.08	69.9907	4,757.08	77.9037	4,757.08	70.0645	4,757.08	55.753	4,757.08	67.3406	4,757.08	63.4322	4,757.08	67.9178	4,757.08	70.2087	4,757.08	67.1133	4,757.08	60.8939	4,757.08	65.4156	4,757.08	69.5064	4,757.08	62.0554	4,757.08	67.6154	4,757.08	56.8383	4,757.08	68.6733	4,757.08	68.382
4,924.8	78.4591	4,924.8	86.6945	4,924.8	83.0935	4,924.8	82.943	4,924.8	86.7404	4,924.8	81.3096	4,924.8	80.1424	4,924.8	81.72	4,924.8	80.5613	4,924.8	82.6522	4,924.8	80.3031	4,924.8	76.2754	4,924.8	84.3203	4,924.8	78.4666	4,924.8	86.0092	4,924.8	71.4896	4,924.8	82.6438	4,924.8	75.3471	4,924.8	80.2187	4,924.8	71.9831	4,924.8	78.5501	4,924.8	72.909	4,924.8	60.6168	4,924.8	69.4591	4,924.8	63.1755	4,924.8	68.4126	4,924.8	69.0052	4,924.8	70.4742	4,924.8	65.785	4,924.8	68.6939	4,924.8	68.9284	4,924.8	65.7366	4,924.8	69.0759	4,924.8	45.4603	4,924.8	66.568	4,924.8	65.9372
5,098.39	79.4111	5,098.39	86.0782	5,098.39	83.8505	5,098.39	84.0322	5,098.39	86.7236	5,098.39	81.0914	5,098.39	82.6166	5,098.39	83.4491	5,098.39	81.4608	5,098.39	80.465	5,098.39	80.039	5,098.39	79.387	5,098.39	82.9916	5,098.39	79.4058	5,098.39	85.3648	5,098.39	80.0715	5,098.39	82.7224	5,098.39	77.1306	5,098.39	81.0173	5,098.39	74.0947	5,098.39	80.9552	5,098.39	72.7347	5,098.39	58.6223	5,098.39	70.6485	5,098.39	59.64	5,098.39	68.6918	5,098.39	59.445	5,098.39	68.1174	5,098.39	54.1897	5,098.39	70.337	5,098.39	68.733	5,098.39	64.0281	5,098.39	69.2684	5,098.39	57.0189	5,098.39	66.2535	5,098.39	55.0998
5,277.83	77.8281	5,277.83	86.3483	5,277.83	83.9695	5,277.83	83.4842	5,277.83	86.073	5,277.83	82.6938	5,277.83	81.997	5,277.83	84.111	5,277.83	84.305	5,277.83	81.6199	5,277.83	80.9953	5,277.83	81.9402	5,277.83	80.3228	5,277.83	82.1466	5,277.83	83.8394	5,277.83	77.2555	5,277.83	80.1833	5,277.83	76.0877	5,277.83	80.6216	5,277.83	73.3804	5,277.83	79.6157	5,277.83	72.3418	5,277.83	50.0979	5,277.83	70.2311	5,277.83	65.2652	5,277.83	68.2271	5,277.83	53.7296	5,277.83	70.4012	5,277.83	62.0163	5,277.83	69.5374	5,277.83	62.0547	5,277.83	66.7328	5,277.83	65.3969	5,277.83	57.2765	5,277.83	66.5353	5,277.83	65.4468
5,463.87	80.886	5,463.87	86.5739	5,463.87	83.6826	5,463.87	81.8328	5,463.87	86.0686	5,463.87	83.7358	5,463.87	81.0233	5,463.87	84.3037	5,463.87	84.2207	5,463.87	83.3331	5,463.87	79.1561	5,463.87	82.515	5,463.87	76.5337	5,463.87	78.6441	5,463.87	82.6065	5,463.87	77.782	5,463.87	78.0755	5,463.87	74.4442	5,463.87	78.4225	5,463.87	71.3782	5,463.87	77.8258	5,463.87	71.1204	5,463.87	65.4232	5,463.87	70.5555	5,463.87	62.8247	5,463.87	66.0467	5,463.87	56.2082	5,463.87	66.5373	5,463.87	63.8851	5,463.87	70.0156	5,463.87	69.7898	5,463.87	62.3542	5,463.87	60.5779	5,463.87	54.8454	5,463.87	65.3507	5,463.87	56.5352
5,656.49	80.7297	5,656.49	86.1742	5,656.49	83.594	5,656.49	82.4015	5,656.49	85.6657	5,656.49	85.2211	5,656.49	81.0953	5,656.49	84.5554	5,656.49	84.1179	5,656.49	84.6353	5,656.49	81.4669	5,656.49	80.5021	5,656.49	78.2144	5,656.49	78.1286	5,656.49	80.9741	5,656.49	72.3424	5,656.49	79.024	5,656.49	73.5984	5,656.49	76.3711	5,656.49	72.1602	5,656.49	76.6627	5,656.49	69.1755	5,656.49	66.5214	5,656.49	68.0218	5,656.49	56.086	5,656.49	66.7232	5,656.49	62.6848	5,656.49	67.4625	5,656.49	57.843	5,656.49	70.3103	5,656.49	69.0601	5,656.49	64.6865	5,656.49	67.3995	5,656.49	57.8246	5,656.49	61.4359	5,656.49	56.8709
5,856.45	81.0572	5,856.45	85.6598	5,856.45	82.3014	5,856.45	83.4399	5,856.45	85.5941	5,856.45	85.5052	5,856.45	81.5229	5,856.45	85.5172	5,856.45	84.9546	5,856.45	84.4653	5,856.45	83.4747	5,856.45	79.6517	5,856.45	76.3104	5,856.45	78.523	5,856.45	80.9609	5,856.45	78.0524	5,856.45	80.1173	5,856.45	74.2808	5,856.45	76.2161	5,856.45	73.2684	5,856.45	75.5543	5,856.45	70.6945	5,856.45	61.4136	5,856.45	70.0233	5,856.45	57.6249	5,856.45	68.043	5,856.45	65.1019	5,856.45	68.0433	5,856.45	60.9189	5,856.45	72.5661	5,856.45	64.3686	5,856.45	64.5374	5,856.45	67.4576	5,856.45	57.2654	5,856.45	63.188	5,856.45	49.5807
6,062.99	81.5452	6,062.99	85.3768	6,062.99	82.6936	6,062.99	84.1819	6,062.99	85.4556	6,062.99	85.6943	6,062.99	83.0399	6,062.99	86.0659	6,062.99	85.8682	6,062.99	84.405	6,062.99	83.8014	6,062.99	82.6452	6,062.99	79.7749	6,062.99	81.0268	6,062.99	82.5442	6,062.99	75.6352	6,062.99	80.6798	6,062.99	75.5932	6,062.99	75.2751	6,062.99	72.4928	6,062.99	73.9865	6,062.99	71.7283	6,062.99	61.7533	6,062.99	70.7091	6,062.99	60.0709	6,062.99	69.3891	6,062.99	63.9773	6,062.99	68.2817	6,062.99	54.2619	6,062.99	70.8809	6,062.99	64.2675	6,062.99	68.5359	6,062.99	58.2116	6,062.99	61.4278	6,062.99	64.3378	6,062.99	49.7948
6,276.86	82.4432	6,276.86	85.5559	6,276.86	84.1758	6,276.86	83.158	6,276.86	86.427	6,276.86	85.3576	6,276.86	83.5391	6,276.86	85.516	6,276.86	86.4755	6,276.86	84.3728	6,276.86	85.3029	6,276.86	83.0962	6,276.86	81.4699	6,276.86	80.1772	6,276.86	82.0376	6,276.86	76.2393	6,276.86	76.675	6,276.86	72.0721	6,276.86	70.8944	6,276.86	73.4856	6,276.86	71.0807	6,276.86	71.3157	6,276.86	64.2021	6,276.86	69.7022	6,276.86	55.2438	6,276.86	69.1735	6,276.86	63.5874	6,276.86	68.5573	6,276.86	61.929	6,276.86	70.7551	6,276.86	67.2402	6,276.86	69.0984	6,276.86	56.2708	6,276.86	63.5465	6,276.86	63.7445	6,276.86	49.3088
6,498.05	84.8677	6,498.05	86.1911	6,498.05	85.5534	6,498.05	82.6193	6,498.05	87.3435	6,498.05	85.4593	6,498.05	82.9985	6,498.05	84.354	6,498.05	86.1541	6,498.05	84.6935	6,498.05	85.3055	6,498.05	81.0024	6,498.05	81.6821	6,498.05	77.6821	6,498.05	80.4398	6,498.05	76.7141	6,498.05	74.5999	6,498.05	75.3466	6,498.05	71.8391	6,498.05	72.3008	6,498.05	72.4064	6,498.05	71.2668	6,498.05	57.1573	6,498.05	69.2298	6,498.05	63.0922	6,498.05	70.051	6,498.05	64.4534	6,498.05	68.8419	6,498.05	64.414	6,498.05	69.7452	6,498.05	61.865	6,498.05	68.4951	6,498.05	60.0236	6,498.05	62.0081	6,498.05	63.1858	6,498.05	59.6117
6,727.29	85.6068	6,727.29	86.222	6,727.29	86.3578	6,727.29	83.0608	6,727.29	87.381	6,727.29	85.8914	6,727.29	83.0236	6,727.29	84.0541	6,727.29	86.0963	6,727.29	84.2943	6,727.29	84.754	6,727.29	79.7947	6,727.29	77.0312	6,727.29	80.2671	6,727.29	73.4489	6,727.29	76.2604	6,727.29	77.7928	6,727.29	75.5172	6,727.29	73.4757	6,727.29	73.5448	6,727.29	72.5963	6,727.29	71.0216	6,727.29	62.0636	6,727.29	70.5576	6,727.29	45.4395	6,727.29	70.956	6,727.29	51.0304	6,727.29	69.5059	6,727.29	64.6622	6,727.29	71.4194	6,727.29	61.4998	6,727.29	68.7272	6,727.29	59.3243	6,727.29	63.7463	6,727.29	62.1406	6,727.29	48.4102
6,964.6	86.591	6,964.6	86.5061	6,964.6	86.3696	6,964.6	84.363	6,964.6	87.554	6,964.6	86.185	6,964.6	83.1815	6,964.6	83.6658	6,964.6	85.6611	6,964.6	83.3551	6,964.6	84.8138	6,964.6	80.6339	6,964.6	74.7953	6,964.6	79.7721	6,964.6	76.6842	6,964.6	75.9367	6,964.6	80.3585	6,964.6	73.5177	6,964.6	71.8066	6,964.6	71.0554	6,964.6	69.9756	6,964.6	69.8041	6,964.6	66.7311	6,964.6	70.1976	6,964.6	54.8013	6,964.6	68.8629	6,964.6	59.8591	6,964.6	68.8673	6,964.6	65.7954	6,964.6	72.071	6,964.6	56.7055	6,964.6	68.0838	6,964.6	54.6845	6,964.6	58.9422	6,964.6	62.0637	6,964.6	54.2398
7,209.96	86.7141	7,209.96	86.1288	7,209.96	86.5167	7,209.96	84.9435	7,209.96	87.0321	7,209.96	85.3296	7,209.96	81.9887	7,209.96	83.3582	7,209.96	85.9685	7,209.96	82.9441	7,209.96	85.5069	7,209.96	81.9183	7,209.96	77.354	7,209.96	77.0227	7,209.96	81.0251	7,209.96	77.751	7,209.96	82.0532	7,209.96	73.5963	7,209.96	75.0844	7,209.96	73.4831	7,209.96	67.6871	7,209.96	68.5621	7,209.96	65.5696	7,209.96	70.61	7,209.96	57.7791	7,209.96	69.0555	7,209.96	62.5712	7,209.96	66.8304	7,209.96	59.2351	7,209.96	72.8154	7,209.96	65.0341	7,209.96	67.43	7,209.96	61.6233	7,209.96	56.6853	7,209.96	64.5466	7,209.96	51.9922
7,464.11	86.7422	7,464.11	86.1095	7,464.11	85.9051	7,464.11	84.5671	7,464.11	87.105	7,464.11	84.9573	7,464.11	81.6854	7,464.11	84.2383	7,464.11	85.2239	7,464.11	83.1766	7,464.11	86.6148	7,464.11	80.3264	7,464.11	81.7157	7,464.11	77.8515	7,464.11	82.1517	7,464.11	76.9844	7,464.11	81.9037	7,464.11	72.9839	7,464.11	77.0655	7,464.11	73.3054	7,464.11	67.5321	7,464.11	68.3707	7,464.11	65.7817	7,464.11	70.7146	7,464.11	54.0725	7,464.11	68.599	7,464.11	63.6389	7,464.11	66.5899	7,464.11	61.7372	7,464.11	72.3322	7,464.11	63.0544	7,464.11	66.5148	7,464.11	53.8681	7,464.11	61.6674	7,464.11	62.607	7,464.11	51.6022
7,727.78	87.0943	7,727.78	86.1969	7,727.78	85.9997	7,727.78	85.0987	7,727.78	87.052	7,727.78	84.9417	7,727.78	82.2878	7,727.78	84.6326	7,727.78	83.961	7,727.78	82.7951	7,727.78	85.7358	7,727.78	80.3082	7,727.78	81.4034	7,727.78	77.8149	7,727.78	81.6076	7,727.78	74.918	7,727.78	80.8176	7,727.78	70.8727	7,727.78	76.9925	7,727.78	70.6445	7,727.78	69.3141	7,727.78	65.894	7,727.78	66.9131	7,727.78	68.1583	7,727.78	51.1585	7,727.78	67.2339	7,727.78	55.8272	7,727.78	65.8011	7,727.78	51.4592	7,727.78	70.6285	7,727.78	62.7218	7,727.78	66.4612	7,727.78	58.8597	7,727.78	59.1579	7,727.78	61.2891	7,727.78	52.0218
8,000.24	88.0343	8,000.24	86.9908	8,000.24	86.6285	8,000.24	86.1081	8,000.24	86.6526	8,000.24	84.9082	8,000.24	82.5335	8,000.24	85.0388	8,000.24	83.5813	8,000.24	83.1917	8,000.24	84.9896	8,000.24	81.547	8,000.24	79.3257	8,000.24	75.6984	8,000.24	79.089	8,000.24	75.7711	8,000.24	77.161	8,000.24	72.3211	8,000.24	75.4078	8,000.24	71.235	8,000.24	69.5083	8,000.24	68.6096	8,000.24	68.7324	8,000.24	67.0014	8,000.24	54.7065	8,000.24	68.6296	8,000.24	61.9451	8,000.24	65.5903	8,000.24	57.8297	8,000.24	70.3434	8,000.24	63.6668	8,000.24	66.1884	8,000.24	61.1373	8,000.24	59.6114	8,000.24	62.0481	8,000.24	57.8527
8,282.23	89.1557	8,282.23	88.1973	8,282.23	87.7412	8,282.23	86.5866	8,282.23	86.6886	8,282.23	84.7938	8,282.23	83.2604	8,282.23	85.3057	8,282.23	83.2022	8,282.23	83.2009	8,282.23	84.719	8,282.23	79.8929	8,282.23	80.1128	8,282.23	77.5652	8,282.23	73.5571	8,282.23	75.4274	8,282.23	73.4283	8,282.23	72.2027	8,282.23	73.8658	8,282.23	69.311	8,282.23	59.5919	8,282.23	69.2509	8,282.23	65.6268	8,282.23	62.9091	8,282.23	52.1844	8,282.23	70.1934	8,282.23	63.6973	8,282.23	66.6133	8,282.23	58.9741	8,282.23	69.0276	8,282.23	64.9437	8,282.23	68.3762	8,282.23	51.4642	8,282.23	62.5763	8,282.23	61.3798	8,282.23	58.9946
8,574.46	89.8731	8,574.46	89.0184	8,574.46	88.9817	8,574.46	86.3211	8,574.46	87.4661	8,574.46	84.4686	8,574.46	83.6396	8,574.46	84.3618	8,574.46	83.1144	8,574.46	82.8292	8,574.46	83.2104	8,574.46	80.9652	8,574.46	79.2044	8,574.46	78.576	8,574.46	71.0082	8,574.46	73.4699	8,574.46	77.8187	8,574.46	72.1674	8,574.46	75.317	8,574.46	68.067	8,574.46	68.3387	8,574.46	69.3432	8,574.46	53.9706	8,574.46	64.3561	8,574.46	48.951	8,574.46	70.0885	8,574.46	59.2775	8,574.46	67.4803	8,574.46	56.7797	8,574.46	67.1099	8,574.46	56.7918	8,574.46	67.6775	8,574.46	53.1694	8,574.46	63.8834	8,574.46	58.5115	8,574.46	57.1719
8,876.22	89.6502	8,876.22	88.8342	8,876.22	89.1172	8,876.22	86.1935	8,876.22	88.1874	8,876.22	85.1012	8,876.22	84.7684	8,876.22	83.4584	8,876.22	84.5854	8,876.22	82.3889	8,876.22	84.3169	8,876.22	80.8163	8,876.22	79.3705	8,876.22	78.3255	8,876.22	76.0885	8,876.22	74.935	8,876.22	79.8172	8,876.22	73.9193	8,876.22	74.9027	8,876.22	67.8587	8,876.22	66.6568	8,876.22	69.0495	8,876.22	57.7821	8,876.22	66.2916	8,876.22	54.6188	8,876.22	68.1848	8,876.22	58.4309	8,876.22	67.2233	8,876.22	57.6758	8,876.22	67.3733	8,876.22	65.6164	8,876.22	68.2925	8,876.22	51.3357	8,876.22	63.8421	8,876.22	61.1948	8,876.22	53.9774
9,189.7	89.3992	9,189.7	88.2844	9,189.7	88.5623	9,189.7	86.2896	9,189.7	87.8227	9,189.7	85.2991	9,189.7	84.9133	9,189.7	83.2985	9,189.7	84.5154	9,189.7	82.0073	9,189.7	84.8825	9,189.7	80.4276	9,189.7	80.6459	9,189.7	79.2953	9,189.7	77.6083	9,189.7	74.865	9,189.7	78.4909	9,189.7	72.4576	9,189.7	73.2357	9,189.7	67.3142	9,189.7	64.066	9,189.7	68.4431	9,189.7	66.0097	9,189.7	65.275	9,189.7	59.9937	9,189.7	65.5043	9,189.7	59.6438	9,189.7	65.4007	9,189.7	40.9205	9,189.7	65.5974	9,189.7	62.8437	9,189.7	68.9864	9,189.7	56.0236	9,189.7	63.5387	9,189.7	59.1823	9,189.7	58.5974
9,513.43	89.3655	9,513.43	88.4085	9,513.43	88.5636	9,513.43	86.3188	9,513.43	87.6055	9,513.43	84.9591	9,513.43	85.2583	9,513.43	84.1794	9,513.43	84.144	9,513.43	82.5854	9,513.43	83.6983	9,513.43	81.0321	9,513.43	78.4313	9,513.43	78.1648	9,513.43	77.2809	9,513.43	75.2073	9,513.43	76.1539	9,513.43	72.5007	9,513.43	71.4056	9,513.43	68.4323	9,513.43	64.5832	9,513.43	69.6787	9,513.43	66.4661	9,513.43	66.3929	9,513.43	56.2382	9,513.43	66.9435	9,513.43	61.5387	9,513.43	65.8716	9,513.43	51.5426	9,513.43	65.4592	9,513.43	60.6917	9,513.43	65.8928	9,513.43	49.7131	9,513.43	61.2998	9,513.43	54.4144	9,513.43	57.8877
9,848.88	89.5303	9,848.88	88.8587	9,848.88	88.9814	9,848.88	87.0684	9,848.88	87.5151	9,848.88	84.9525	9,848.88	84.2859	9,848.88	84.0877	9,848.88	83.3186	9,848.88	83.0687	9,848.88	82.5053	9,848.88	80.5849	9,848.88	74.6822	9,848.88	78.0156	9,848.88	74.6983	9,848.88	75.047	9,848.88	73.7229	9,848.88	72.2696	9,848.88	75.0279	9,848.88	65.7589	9,848.88	70.3238	9,848.88	68.1676	9,848.88	65.0335	9,848.88	65.3296	9,848.88	48.6983	9,848.88	66.4266	9,848.88	63.9706	9,848.88	65.4567	9,848.88	53.8921	9,848.88	64.8787	9,848.88	58.5452	9,848.88	65.3179	9,848.88	58.0529	9,848.88	61.1652	9,848.88	55.7626	9,848.88	54.7737
10,196.8	90.1111	10,196.8	89.6127	10,196.8	89.2282	10,196.8	87.6514	10,196.8	87.8189	10,196.8	84.2371	10,196.8	84.2133	10,196.8	84.292	10,196.8	82.1633	10,196.8	83.5957	10,196.8	80.5709	10,196.8	81.5582	10,196.8	76.8921	10,196.8	76.7703	10,196.8	77.2992	10,196.8	72.9569	10,196.8	76.2719	10,196.8	70.3402	10,196.8	77.132	10,196.8	64.7498	10,196.8	68.2257	10,196.8	67.0282	10,196.8	65.1152	10,196.8	65.6964	10,196.8	51.1404	10,196.8	67.0188	10,196.8	60.047	10,196.8	64.8727	10,196.8	46.891	10,196.8	65.1822	10,196.8	61.992	10,196.8	66.6912	10,196.8	56.5051	10,196.8	62.8969	10,196.8	52.5243	10,196.8	53.625
10,556.4	90.1332	10,556.4	89.7082	10,556.4	89.481	10,556.4	87.2845	10,556.4	87.9742	10,556.4	83.2944	10,556.4	84.4214	10,556.4	84.0222	10,556.4	82.1663	10,556.4	83.1094	10,556.4	82.9025	10,556.4	80.4163	10,556.4	81.6041	10,556.4	76.2909	10,556.4	77.7126	10,556.4	72.6648	10,556.4	76.5181	10,556.4	69.8813	10,556.4	77.1598	10,556.4	66.3215	10,556.4	69.6581	10,556.4	65.2068	10,556.4	63.2128	10,556.4	65.1718	10,556.4	51.8338	10,556.4	65.1439	10,556.4	55.373	10,556.4	64.4406	10,556.4	56.8411	10,556.4	62.7062	10,556.4	60.6467	10,556.4	66.3008	10,556.4	55.5376	10,556.4	63.0275	10,556.4	59.2059	10,556.4	57.258
10,928.5	89.5989	10,928.5	89.0004	10,928.5	89.1422	10,928.5	86.3095	10,928.5	87.6603	10,928.5	83.7193	10,928.5	84.4651	10,928.5	83.4408	10,928.5	82.1651	10,928.5	83.3029	10,928.5	84.116	10,928.5	79.1466	10,928.5	81.4589	10,928.5	77.598	10,928.5	77.7328	10,928.5	73.0118	10,928.5	74.4892	10,928.5	69.1309	10,928.5	73.7751	10,928.5	67.153	10,928.5	72.0113	10,928.5	64.1554	10,928.5	62.9032	10,928.5	67.4356	10,928.5	59.9734	10,928.5	60.0011	10,928.5	55.5102	10,928.5	63.4951	10,928.5	60.0349	10,928.5	60.2499	10,928.5	57.5976	10,928.5	66.9078	10,928.5	48.5508	10,928.5	63.8877	10,928.5	58.0458	10,928.5	55.8776
11,313.7	88.7378	11,313.7	88.3297	11,313.7	88.5677	11,313.7	86.1058	11,313.7	86.8936	11,313.7	83.7051	11,313.7	83.9242	11,313.7	84.0241	11,313.7	82.4995	11,313.7	82.9568	11,313.7	82.5399	11,313.7	79.9273	11,313.7	79.3336	11,313.7	77.6706	11,313.7	77.7447	11,313.7	75.0823	11,313.7	74.8809	11,313.7	70.5797	11,313.7	72.2715	11,313.7	68.5575	11,313.7	70.5191	11,313.7	65.5026	11,313.7	62.725	11,313.7	67.1621	11,313.7	57.4172	11,313.7	62.8342	11,313.7	52.3377	11,313.7	63.5239	11,313.7	59.9761	11,313.7	63.3829	11,313.7	57.9436	11,313.7	67.5497	11,313.7	54.4723	11,313.7	63.5464	11,313.7	53.0262	11,313.7	54.3271
11,712.9	86.5569	11,712.9	87.5779	11,712.9	87.8786	11,712.9	86.3595	11,712.9	86.3593	11,712.9	85.1555	11,712.9	84.2269	11,712.9	83.7105	11,712.9	83.8707	11,712.9	82.4669	11,712.9	82.2929	11,712.9	80.2651	11,712.9	78.7541	11,712.9	78.688	11,712.9	78.3971	11,712.9	75.3935	11,712.9	75.4725	11,712.9	70.9437	11,712.9	67.6224	11,712.9	67.5188	11,712.9	60.537	11,712.9	65.7683	11,712.9	54.1969	11,712.9	66.465	11,712.9	55.7308	11,712.9	64.0985	11,712.9	56.6085	11,712.9	64.0313	11,712.9	60.9711	11,712.9	64.1093	11,712.9	48.6559	11,712.9	66.8836	11,712.9	47.8789	11,712.9	61.1313	11,712.9	54.2337	11,712.9	49.1061
12,126	87.1371	12,126	88.3044	12,126	87.967	12,126	87.3024	12,126	87.4383	12,126	86.3318	12,126	85.1557	12,126	83.7866	12,126	84.1506	12,126	82.3107	12,126	83.6468	12,126	81.1478	12,126	78.9633	12,126	77.8844	12,126	77.9964	12,126	74.5087	12,126	74.987	12,126	68.5147	12,126	69.6862	12,126	66.9721	12,126	67.8012	12,126	65.4413	12,126	63.5307	12,126	65.305	12,126	54.1155	12,126	64.1668	12,126	56.4932	12,126	63.7966	12,126	58.6716	12,126	63.9199	12,126	54.2547	12,126	64.9133	12,126	57.6481	12,126	62.2249	12,126	50.1622	12,126	37.0884
12,553.7	89.8446	12,553.7	89.8154	12,553.7	89.7622	12,553.7	88.5419	12,553.7	89.1968	12,553.7	86.7071	12,553.7	86.5115	12,553.7	83.963	12,553.7	83.9985	12,553.7	82.1744	12,553.7	83.0054	12,553.7	79.4647	12,553.7	77.4314	12,553.7	75.793	12,553.7	76.4467	12,553.7	71.0597	12,553.7	69.3431	12,553.7	66.9634	12,553.7	65.5264	12,553.7	61.8288	12,553.7	69.2243	12,553.7	60.2402	12,553.7	55.9583	12,553.7	61.6111	12,553.7	56.9599	12,553.7	60.2817	12,553.7	40.9498	12,553.7	60.9042	12,553.7	49.7924	12,553.7	59.2798	12,553.7	53.3096	12,553.7	58.9292	12,553.7	41.1543	12,553.7	59.3118	12,553.7	48.7003	12,553.7	49.0148
12,996.1	91.2985	12,996.1	90.8372	12,996.1	91.0981	12,996.1	89.5093	12,996.1	89.8611	12,996.1	87.0053	12,996.1	87.3548	12,996.1	83.9084	12,996.1	84.3668	12,996.1	81.9549	12,996.1	82.0962	12,996.1	77.633	12,996.1	78.8436	12,996.1	73.1609	12,996.1	73.7414	12,996.1	68.2107	12,996.1	64.2221	12,996.1	61.2512	12,996.1	62.0813	12,996.1	58.7195	12,996.1	70.0445	12,996.1	56.9022	12,996.1	62.4412	12,996.1	59.7704	12,996.1	56.6489	12,996.1	54.7326	12,996.1	48.7375	12,996.1	53.8935	12,996.1	41.9854	12,996.1	57.6422	12,996.1	59.0004	12,996.1	57.68	12,996.1	41.1508	12,996.1	53.7042	12,996.1	49.5708	12,996.1	29.3971
13,454.6	91.6536	13,454.6	91.3736	13,454.6	91.6614	13,454.6	90.0768	13,454.6	90.1847	13,454.6	86.9099	13,454.6	87.4223	13,454.6	83.7073	13,454.6	84.0907	13,454.6	80.8042	13,454.6	81.0135	13,454.6	76.5009	13,454.6	76.8674	13,454.6	70.1176	13,454.6	71.1891	13,454.6	66.7993	13,454.6	67.0294	13,454.6	57.4938	13,454.6	65.0157	13,454.6	60.192	13,454.6	68.2698	13,454.6	52.5651	13,454.6	64.3219	13,454.6	57.8656	13,454.6	50.4147	13,454.6	35.7875	13,454.6	44.9249	13,454.6	54.5049	13,454.6	47.0542	13,454.6	55.8107	13,454.6	56.412	13,454.6	53.2326	13,454.6	51.294	13,454.6	52.7029	13,454.6	50.9121	13,454.6	41.9714
13,928.5	91.5841	13,928.5	91.558	13,928.5	91.4764	13,928.5	89.8784	13,928.5	90.3545	13,928.5	86.5787	13,928.5	87.5627	13,928.5	83.3753	13,928.5	84.0255	13,928.5	78.988	13,928.5	80.2997	13,928.5	74.2215	13,928.5	74.0162	13,928.5	68.4762	13,928.5	71.212	13,928.5	65.1521	13,928.5	62.5959	13,928.5	58.6545	13,928.5	65.4095	13,928.5	59.1187	13,928.5	68.0173	13,928.5	55.3307	13,928.5	62.8945	13,928.5	58.052	13,928.5	50.5539	13,928.5	49.2401	13,928.5	48.2203	13,928.5	55.317	13,928.5	40.313	13,928.5	51.1062	13,928.5	57.1814	13,928.5	51.3993	13,928.5	44.5564	13,928.5	56.6806	13,928.5	53.7679	13,928.5	44.9601
14,419.9	91.8773	14,419.9	91.4707	14,419.9	91.2432	14,419.9	89.5313	14,419.9	90.0889	14,419.9	86.0434	14,419.9	87.4796	14,419.9	82.9298	14,419.9	83.3129	14,419.9	77.4337	14,419.9	79.6628	14,419.9	71.3501	14,419.9	73.8699	14,419.9	68.611	14,419.9	68.9943	14,419.9	62.532	14,419.9	63.4857	14,419.9	53.5478	14,419.9	64.4791	14,419.9	56.4582	14,419.9	70.3175	14,419.9	56.0654	14,419.9	58.3111	14,419.9	56.8758	14,419.9	48.9851	14,419.9	50.9851	14,419.9	48.9157	14,419.9	55.9018	14,419.9	49.5664	14,419.9	47.0911	14,419.9	59.546	14,419.9	52.6667	14,419.9	48.1857	14,419.9	56.9404	14,419.9	56.9866	14,419.9	47.8161
14,928.2	92.0425	14,928.2	91.3099	14,928.2	91.5279	14,928.2	89.1138	14,928.2	89.7859	14,928.2	85.2799	14,928.2	86.8025	14,928.2	81.8621	14,928.2	82.2688	14,928.2	76.8971	14,928.2	78.4498	14,928.2	72.0481	14,928.2	73.4452	14,928.2	67.148	14,928.2	68.2071	14,928.2	63.8824	14,928.2	66.6329	14,928.2	58.8997	14,928.2	61.8232	14,928.2	55.5683	14,928.2	70.1213	14,928.2	57.6793	14,928.2	62.4086	14,928.2	54.8493	14,928.2	52.118	14,928.2	57.9178	14,928.2	51.7792	14,928.2	57.6827	14,928.2	50.0182	14,928.2	49.0155	14,928.2	59.0782	14,928.2	51.3931	14,928.2	43.5555	14,928.2	54.625	14,928.2	55.7479	14,928.2	42.9459
15,454.8	91.4451	15,454.8	91.2239	15,454.8	91.2632	15,454.8	88.6967	15,454.8	89.5545	15,454.8	84.5165	15,454.8	85.8441	15,454.8	80.2278	15,454.8	81.3009	15,454.8	76.421	15,454.8	78.1318	15,454.8	71.6008	15,454.8	73.2307	15,454.8	65.2511	15,454.8	66.3691	15,454.8	65.6706	15,454.8	63.1355	15,454.8	62.5714	15,454.8	64.9629	15,454.8	55.5593	15,454.8	70.6029	15,454.8	60.7419	15,454.8	64.8898	15,454.8	54.1721	15,454.8	54.6732	15,454.8	61.2316	15,454.8	49.8006	15,454.8	59.1659	15,454.8	52.5923	15,454.8	50.3194	15,454.8	58.0822	15,454.8	32.8908	15,454.8	44.6475	15,454.8	55.5133	15,454.8	53.9517	15,454.8	42.3281
15,999.8	90.2308	15,999.8	90.5007	15,999.8	90.3595	15,999.8	87.8702	15,999.8	89.0548	15,999.8	84.2762	15,999.8	84.8793	15,999.8	78.9657	15,999.8	80.3474	15,999.8	75.8956	15,999.8	77.2446	15,999.8	69.8977	15,999.8	71.2032	15,999.8	66.9961	15,999.8	67.214	15,999.8	67.1798	15,999.8	65.2361	15,999.8	65.9361	15,999.8	67.0961	15,999.8	52.95	15,999.8	72.1242	15,999.8	62.5976	15,999.8	64.9251	15,999.8	44.4538	15,999.8	56.9609	15,999.8	63.5759	15,999.8	47.2089	15,999.8	59.9987	15,999.8	53.5223	15,999.8	50.993	15,999.8	58.2778	15,999.8	48.5766	15,999.8	48.5084	15,999.8	57.6509	15,999.8	56.2503	15,999.8	45.9436
16,564.5	89.1724	16,564.5	89.5515	16,564.5	88.9729	16,564.5	86.8332	16,564.5	87.8221	16,564.5	83.3256	16,564.5	83.2234	16,564.5	78.4263	16,564.5	79.0358	16,564.5	74.3909	16,564.5	74.4835	16,564.5	69.9737	16,564.5	69.6594	16,564.5	69.7412	16,564.5	68.2995	16,564.5	67.5626	16,564.5	65.0512	16,564.5	65.3934	16,564.5	67.2371	16,564.5	51.5728	16,564.5	72.3288	16,564.5	61.6105	16,564.5	64.6088	16,564.5	44.8803	16,564.5	55.477	16,564.5	63.1027	16,564.5	38.7051	16,564.5	58.6345	16,564.5	54.7229	16,564.5	49.298	16,564.5	57.5593	16,564.5	49.6425	16,564.5	44.7544	16,564.5	57.2535	16,564.5	55.262	16,564.5	44.0233
17,148.2	88.4508	17,148.2	88.5273	17,148.2	88.1	17,148.2	85.4564	17,148.2	86.181	17,148.2	81.9041	17,148.2	80.9043	17,148.2	77.6554	17,148.2	77.6055	17,148.2	73.1456	17,148.2	75.0618	17,148.2	71.1632	17,148.2	67.5669	17,148.2	69.7956	17,148.2	67.2057	17,148.2	67.8775	17,148.2	60.609	17,148.2	64.0186	17,148.2	65.8761	17,148.2	54.7107	17,148.2	71.8248	17,148.2	60.2361	17,148.2	63.9379	17,148.2	50.2753	17,148.2	52.1535	17,148.2	61.1233	17,148.2	47.8062	17,148.2	57.6272	17,148.2	54.2716	17,148.2	48.7634	17,148.2	58.5	17,148.2	36.4724	17,148.2	41.4825	17,148.2	53.8615	17,148.2	52.9789	17,148.2	46.3728
17,753.2	87.4755	17,753.2	87.2552	17,753.2	87.4176	17,753.2	84.1416	17,753.2	84.7715	17,753.2	80.7721	17,753.2	79.5884	17,753.2	77.2871	17,753.2	76.8503	17,753.2	73.4229	17,753.2	73.7783	17,753.2	69.8035	17,753.2	65.0799	17,753.2	69.409	17,753.2	64.9187	17,753.2	66.9714	17,753.2	58.7156	17,753.2	63.4596	17,753.2	65.1649	17,753.2	51.3349	17,753.2	71.8244	17,753.2	58.1042	17,753.2	62.3745	17,753.2	50.8991	17,753.2	51.0815	17,753.2	61.005	17,753.2	52.864	17,753.2	58.3487	17,753.2	51.0942	17,753.2	50.6781	17,753.2	60.2993	17,753.2	39.5379	17,753.2	47.0711	17,753.2	50.0867	17,753.2	55.0597	17,753.2	47.4888
18,379.4	86.0483	18,379.4	85.4752	18,379.4	85.8926	18,379.4	83.2123	18,379.4	82.91	18,379.4	80.6103	18,379.4	79.3495	18,379.4	77.8081	18,379.4	75.6711	18,379.4	73.5877	18,379.4	71.951	18,379.4	69.6426	18,379.4	55.881	18,379.4	68.219	18,379.4	63.9969	18,379.4	64.8909	18,379.4	59.0492	18,379.4	61.9384	18,379.4	65.3529	18,379.4	49.4283	18,379.4	71.2716	18,379.4	56.2461	18,379.4	63.2831	18,379.4	52.4915	18,379.4	47.3895	18,379.4	59.4911	18,379.4	55.3026	18,379.4	56.7267	18,379.4	48.9387	18,379.4	49.2971	18,379.4	60.3324	18,379.4	42.9326	18,379.4	40.6847	18,379.4	51.2499	18,379.4	52.9798	18,379.4	41.7127
19,027.6	85.4609	19,027.6	84.7159	19,027.6	84.7857	19,027.6	82.9096	19,027.6	81.5076	19,027.6	80.7927	19,027.6	78.6365	19,027.6	77.7329	19,027.6	74.7271	19,027.6	73.0204	19,027.6	68.9925	19,027.6	68.7438	19,027.6	66.1965	19,027.6	65.3526	19,027.6	62.4563	19,027.6	61.6127	19,027.6	60.9064	19,027.6	58.8763	19,027.6	62.3828	19,027.6	48.2777	19,027.6	70.4072	19,027.6	55.3349	19,027.6	63.0811	19,027.6	48.9229	19,027.6	47.0712	19,027.6	56.3639	19,027.6	52.4121	19,027.6	54.2256	19,027.6	45.6753	19,027.6	48.4057	19,027.6	58.2925	19,027.6	38.8264	19,027.6	33.1363	19,027.6	48.9607	19,027.6	44.8042	19,027.6	32.8724
19,698.5	84.1288	19,698.5	83.3225	19,698.5	83.3153	19,698.5	81.3223	19,698.5	79.4338	19,698.5	79.1082	19,698.5	76.8849	19,698.5	75.3566	19,698.5	72.6554	19,698.5	70.4393	19,698.5	68.1052	19,698.5	65.7943	19,698.5	63.3768	19,698.5	62.6107	19,698.5	63.4725	19,698.5	57.5165	19,698.5	56.8403	19,698.5	57.9469	19,698.5	62.1559	19,698.5	45.3003	19,698.5	67.8756	19,698.5	51.9898	19,698.5	61.6955	19,698.5	50.5972	19,698.5	45.2591	19,698.5	54.0639	19,698.5	48.4526	19,698.5	51.2424	19,698.5	49.1493	19,698.5	46.5769	19,698.5	55.1669	19,698.5	45.0445	19,698.5	34.4472	19,698.5	44.9855	19,698.5	35.134	19,698.5	41.5791
19,999.5	81.9265	19,999.5	80.932	19,999.5	81.0999	19,999.5	79.5151	19,999.5	76.5829	19,999.5	77.6141	19,999.5	76.0354	19,999.5	74.1009	19,999.5	71.2415	19,999.5	68.995	19,999.5	68.7069	19,999.5	64.8042	19,999.5	65.4766	19,999.5	64.149	19,999.5	65.8011	19,999.5	59.0121	19,999.5	57.3291	19,999.5	57.5236	19,999.5	60.1446	19,999.5	49.4196	19,999.5	66.6135	19,999.5	52.0979	19,999.5	60.8328	19,999.5	51.4825	19,999.5	43.0804	19,999.5	52.2403	19,999.5	47.8838	19,999.5	55.0234	19,999.5	49.8411	19,999.5	44.3684	19,999.5	56.2686	19,999.5	47.0033	19,999.5	39.1629	19,999.5	42.3653	19,999.5	38.5292	19,999.5	44.4417
