"CEA2034"													
"On Axis"		"Listening Window"		"Early Reflections"		"Sound Power"		"Sound Power DI"		"Early Reflections DI"		"DI offset"	
"Frequency [Hz]"	"Sound Pessure Level [dB]  / [2.83V 1m] "	"Frequency [Hz]"	"Sound Pessure Level [dB]  / [2.83V 1m] "	"Frequency [Hz]"	"Sound Pessure Level [dB]  / [2.83V 1m] "	"Frequency [Hz]"	"Sound Pessure Level [dB]  / [2.83V 1m] "	"Frequency [Hz]"	"Sound Pessure Level [dB]  / [2.83V 1m] "	"Frequency [Hz]"	"Sound Pessure Level [dB]  / [2.83V 1m] "	"Frequency [Hz]"	"Sound Pessure Level [dB]  / [2.83V 1m] "
20.5078	57.2462	20.5078	57.1	20.5078	57.6382	20.5078	59.8952	20.5078	47.1842	20.5078	49.4412	20.5078	49.9794
23.4375	59.5053	23.4375	59.3964	23.4375	60.6049	23.4375	63.4431	23.4375	45.9327	23.4375	48.7709	23.4375	49.9794
26.3672	63.2763	26.3672	63.2187	26.3672	64.3523	26.3672	66.8832	26.3672	46.3149	26.3672	48.8458	26.3672	49.9794
29.2969	66.8979	29.2969	66.8735	29.2969	67.9146	29.2969	70.1697	29.2969	46.6832	29.2969	48.9383	29.2969	49.9794
32.2266	70.7005	32.2266	70.7052	32.2266	71.6474	32.2266	73.6079	32.2266	47.0767	32.2266	49.0372	32.2266	49.9794
35.1563	74.4735	35.1563	74.4915	35.1563	75.2772	35.1563	76.9178	35.1563	47.5531	35.1563	49.1937	35.1563	49.9794
38.0859	77.7688	38.0859	77.7954	38.0859	78.4786	38.0859	79.8855	38.0859	47.8893	38.0859	49.2962	38.0859	49.9794
41.0156	80.4968	41.0156	80.5306	41.0156	81.1353	41.0156	82.3447	41.0156	48.1653	41.0156	49.3747	41.0156	49.9794
43.9453	82.3453	43.9453	82.3817	43.9453	82.9171	43.9453	83.9708	43.9453	48.3903	43.9453	49.4441	43.9453	49.9794
46.875	83.3778	46.875	83.4177	46.875	83.9078	46.875	84.8406	46.875	48.5564	46.875	49.4893	46.875	49.9794
49.8047	83.8681	49.8047	83.9099	49.8047	84.3601	49.8047	85.1916	49.8047	48.6977	49.8047	49.5293	49.8047	49.9794
52.7344	84.1497	52.7344	84.1927	52.7344	84.608	52.7344	85.3497	52.7344	48.8225	52.7344	49.5641	52.7344	49.9794
55.6641	84.3397	55.6641	84.3829	55.6641	84.7655	55.6641	85.4295	55.6641	48.9329	55.6641	49.5969	55.6641	49.9794
58.5938	84.529	58.5938	84.5726	58.5938	84.9289	58.5938	85.5271	58.5938	49.025	58.5938	49.6231	58.5938	49.9794
61.5234	84.6695	61.5234	84.7124	61.5234	85.0396	61.5234	85.5742	61.5234	49.1176	61.5234	49.6522	61.5234	49.9794
64.4531	84.8662	64.4531	84.9075	64.4531	85.2019	64.4531	85.6696	64.4531	49.2173	64.4531	49.6851	64.4531	49.9794
67.3828	85.1435	67.3828	85.1822	67.3828	85.4397	67.3828	85.84	67.3828	49.3216	67.3828	49.7219	67.3828	49.9794
70.3125	85.2951	70.3125	85.3338	70.3125	85.5812	70.3125	85.9549	70.3125	49.3583	70.3125	49.732	70.3125	49.9794
73.2422	85.5852	73.2422	85.624	73.2422	85.8626	73.2422	86.2087	73.2422	49.3947	73.2422	49.7409	73.2422	49.9794
76.1719	85.8465	76.1719	85.8835	76.1719	86.0973	76.1719	86.397	76.1719	49.4658	76.1719	49.7655	76.1719	49.9794
79.1016	85.9756	79.1016	86.0139	79.1016	86.2325	79.1016	86.5317	79.1016	49.4616	79.1016	49.7608	79.1016	49.9794
82.0313	86.323	82.0313	86.3558	82.0313	86.5264	82.0313	86.7441	82.0313	49.5912	82.0313	49.8088	82.0313	49.9794
84.9609	86.7242	84.9609	86.7463	84.9609	86.8225	84.9609	86.8812	84.9609	49.8445	84.9609	49.9032	84.9609	49.9794
87.8906	86.6238	87.8906	86.6597	87.8906	86.8406	87.8906	87.0626	87.8906	49.5765	87.8906	49.7985	87.8906	49.9794
90.8203	86.6965	90.8203	86.734	90.8203	86.9287	90.8203	87.17	90.8203	49.5434	90.8203	49.7847	90.8203	49.9794
93.75	87.0157	93.75	87.0426	93.75	87.1586	93.75	87.2877	93.75	49.7343	93.75	49.8634	93.75	49.9794
96.6797	87.335	96.6797	87.3567	96.6797	87.4209	96.6797	87.4493	96.6797	49.8868	96.6797	49.9152	96.6797	49.9794
102.539	87.5684	102.539	87.5901	102.539	87.66	102.539	87.7042	102.539	49.8653	102.539	49.9095	102.539	49.9794
105.469	87.6777	105.469	87.6962	105.469	87.7442	105.469	87.7616	105.469	49.914	105.469	49.9314	105.469	49.9794
108.398	87.8243	108.398	87.8404	108.398	87.8731	108.398	87.865	108.398	49.9548	108.398	49.9466	108.398	49.9794
111.328	88.0356	111.328	88.0505	111.328	88.0735	111.328	88.0473	111.328	49.9827	111.328	49.9565	111.328	49.9794
117.188	88.3465	117.188	88.3576	117.188	88.3608	117.188	88.312	117.188	50.0249	117.188	49.9761	117.188	49.9794
120.117	88.4943	120.117	88.5027	120.117	88.4952	120.117	88.4456	120.117	50.0364	120.117	49.9868	120.117	49.9794
125.977	88.6258	125.977	88.6284	125.977	88.5751	125.977	88.4532	125.977	50.1547	125.977	50.0328	125.977	49.9794
128.906	88.608	128.906	88.6101	128.906	88.5446	128.906	88.3919	128.906	50.1976	128.906	50.0449	128.906	49.9794
134.766	88.5802	134.766	88.583	134.766	88.5394	134.766	88.4463	134.766	50.1161	134.766	50.023	134.766	49.9794
137.695	88.5851	137.695	88.5852	137.695	88.5336	137.695	88.4501	137.695	50.1145	137.695	50.0309	137.695	49.9794
143.555	88.6206	143.555	88.6118	143.555	88.5108	143.555	88.3791	143.555	50.2121	143.555	50.0804	143.555	49.9794
149.414	88.7699	149.414	88.7503	149.414	88.573	149.414	88.3325	149.414	50.3972	149.414	50.1567	149.414	49.9794
155.273	88.9798	155.273	88.9563	155.273	88.7381	155.273	88.4111	155.273	50.5246	155.273	50.1976	155.273	49.9794
158.203	88.9708	158.203	88.9468	158.203	88.7255	158.203	88.3959	158.203	50.5303	158.203	50.2007	158.203	49.9794
164.063	88.9337	164.063	88.9098	164.063	88.6851	164.063	88.3433	164.063	50.546	164.063	50.2042	164.063	49.9794
169.922	88.7695	169.922	88.7435	169.922	88.5244	169.922	88.2018	169.922	50.5212	169.922	50.1985	169.922	49.9794
175.781	88.6153	175.781	88.582	175.781	88.332	175.781	87.9951	175.781	50.5663	175.781	50.2294	175.781	49.9794
181.641	88.5705	181.641	88.5268	181.641	88.1994	181.641	87.7559	181.641	50.7503	181.641	50.3069	181.641	49.9794
190.43	88.5118	190.43	88.4666	190.43	88.1209	190.43	87.6274	190.43	50.8186	190.43	50.3251	190.43	49.9794
196.289	88.4105	196.289	88.355	196.289	87.9768	196.289	87.4868	196.289	50.8476	196.289	50.3576	196.289	49.9794
202.148	88.6344	202.148	88.5635	202.148	88.081	202.148	87.4531	202.148	51.0898	202.148	50.4619	202.148	49.9794
210.938	88.5849	210.938	88.5191	210.938	88.0473	210.938	87.4034	210.938	51.0951	210.938	50.4511	210.938	49.9794
216.797	88.3104	216.797	88.2457	216.797	87.7917	216.797	87.1877	216.797	51.0374	216.797	50.4334	216.797	49.9794
225.586	88.3862	225.586	88.3075	225.586	87.7506	225.586	86.9894	225.586	51.2975	225.586	50.5363	225.586	49.9794
234.375	88.3043	234.375	88.2296	234.375	87.6778	234.375	86.8789	234.375	51.3301	234.375	50.5312	234.375	49.9794
240.234	88.1587	240.234	88.0729	240.234	87.4607	240.234	86.5608	240.234	51.4915	240.234	50.5915	240.234	49.9794
249.023	88.2689	249.023	88.1697	249.023	87.4286	249.023	86.2886	249.023	51.8605	249.023	50.7206	249.023	49.9794
257.813	88.2986	257.813	88.2356	257.813	87.6707	257.813	86.6838	257.813	51.5312	257.813	50.5443	257.813	49.9794
266.602	87.6086	266.602	87.5434	266.602	87.0259	266.602	86.102	266.602	51.4207	266.602	50.4968	266.602	49.9794
278.32	87.4429	278.32	87.3437	278.32	86.7053	278.32	85.7947	278.32	51.5284	278.32	50.6178	278.32	49.9794
287.109	87.5786	287.109	87.4705	287.109	86.7648	287.109	85.7497	287.109	51.7002	287.109	50.6851	287.109	49.9794
295.898	87.6412	295.898	87.5324	295.898	86.755	295.898	85.4674	295.898	52.0444	295.898	50.7568	295.898	49.9794
307.617	87.2516	307.617	87.1109	307.617	86.349	307.617	85.1114	307.617	51.979	307.617	50.7413	307.617	49.9794
319.336	88.6418	319.336	88.4222	319.336	87.1474	319.336	85.5679	319.336	52.8337	319.336	51.2542	319.336	49.9794
331.055	87.8217	331.055	87.673	331.055	86.6973	331.055	85.3948	331.055	52.2576	331.055	50.9551	331.055	49.9794
342.773	89.1733	342.773	88.9952	342.773	87.8112	342.773	86.3862	342.773	52.5884	342.773	51.1634	342.773	49.9794
354.492	88.9791	354.492	88.8642	354.492	87.875	354.492	86.3336	354.492	52.51	354.492	50.9686	354.492	49.9794
366.211	88.6979	366.211	88.6096	366.211	87.7157	366.211	86.0637	366.211	52.5253	366.211	50.8733	366.211	49.9794
377.93	88.307	377.93	88.2377	377.93	87.5525	377.93	86.2134	377.93	52.0036	377.93	50.6646	377.93	49.9794
392.578	87.8677	392.578	87.7842	392.578	87.0281	392.578	85.6746	392.578	52.089	392.578	50.7355	392.578	49.9794
407.227	87.627	407.227	87.5457	407.227	86.7884	407.227	85.4694	407.227	52.0557	407.227	50.7368	407.227	49.9794
421.875	86.6215	421.875	86.6584	421.875	86.5211	421.875	85.9409	421.875	50.697	421.875	50.1167	421.875	49.9794
436.523	87.7146	436.523	87.5135	436.523	86.6404	436.523	85.8445	436.523	51.6483	436.523	50.8525	436.523	49.9794
451.172	89.0442	451.172	88.8496	451.172	87.6453	451.172	85.8733	451.172	52.9557	451.172	51.1837	451.172	49.9794
465.82	88.8304	465.82	88.6594	465.82	87.558	465.82	85.7313	465.82	52.9076	465.82	51.0808	465.82	49.9794
483.398	88.6696	483.398	88.5087	483.398	87.438	483.398	85.4366	483.398	53.0515	483.398	51.0501	483.398	49.9794
500.977	88.5022	500.977	88.3633	500.977	87.449	500.977	85.4929	500.977	52.8498	500.977	50.8936	500.977	49.9794
518.555	88.3745	518.555	88.1401	518.555	87.0056	518.555	85.1728	518.555	52.9467	518.555	51.114	518.555	49.9794
536.133	88.9535	536.133	88.6824	536.133	87.1862	536.133	84.9235	536.133	53.7382	536.133	51.4756	536.133	49.9794
553.711	88.5275	553.711	88.3158	553.711	87.0547	553.711	84.7553	553.711	53.5399	553.711	51.2406	553.711	49.9794
574.219	88.7989	574.219	88.5196	574.219	87.2306	574.219	84.8526	574.219	53.6465	574.219	51.2684	574.219	49.9794
594.727	88.9277	594.727	88.5594	594.727	87.0648	594.727	84.6951	594.727	53.8437	594.727	51.474	594.727	49.9794
615.234	89.2423	615.234	88.9391	615.234	87.6736	615.234	85.3397	615.234	53.5788	615.234	51.2449	615.234	49.9794
638.672	90.899	638.672	90.4845	638.672	88.7184	638.672	86.229	638.672	54.2349	638.672	51.7455	638.672	49.9794
659.18	90.6482	659.18	90.2562	659.18	88.4573	659.18	85.8397	659.18	54.3959	659.18	51.7782	659.18	49.9794
682.617	90.3893	682.617	90.0083	682.617	88.1978	682.617	85.7692	682.617	54.2185	682.617	51.7899	682.617	49.9794
706.055	90.8275	706.055	90.4444	706.055	88.1253	706.055	85.4819	706.055	54.9419	706.055	52.2984	706.055	49.9794
732.422	89.2943	732.422	89.0872	732.422	87.1042	732.422	84.6395	732.422	54.427	732.422	51.9624	732.422	49.9794
758.789	90.4027	758.789	90.1639	758.789	88.3532	758.789	85.9194	758.789	54.2239	758.789	51.7901	758.789	49.9794
785.156	91.0105	785.156	90.7148	785.156	88.9193	785.156	86.4516	785.156	54.2425	785.156	51.7749	785.156	49.9794
811.523	90.7069	811.523	90.4019	811.523	88.4458	811.523	86.1048	811.523	54.2765	811.523	51.9355	811.523	49.9794
840.82	90.2873	840.82	89.9889	840.82	88.143	840.82	85.9123	840.82	54.056	840.82	51.8253	840.82	49.9794
870.117	90.2432	870.117	89.904	870.117	87.8859	870.117	85.5754	870.117	54.308	870.117	51.9975	870.117	49.9794
902.344	90.2631	902.344	89.861	902.344	87.8809	902.344	85.3921	902.344	54.4482	902.344	51.9595	902.344	49.9794
931.641	90.2782	931.641	89.8821	931.641	87.7031	931.641	85.2209	931.641	54.6406	931.641	52.1584	931.641	49.9794
966.797	90.0665	966.797	89.6147	966.797	87.3401	966.797	84.6345	966.797	54.9597	966.797	52.2541	966.797	49.9794
999.023	89.2411	999.023	88.8833	999.023	86.7104	999.023	84.088	999.023	54.7746	999.023	52.1523	999.023	49.9794
1,034.18	88.2815	1,034.18	88.0603	1,034.18	86.1683	1,034.18	83.5997	1,034.18	54.44	1,034.18	51.8714	1,034.18	49.9794
1,072.27	87.8915	1,072.27	87.5154	1,072.27	85.7659	1,072.27	83.1396	1,072.27	54.3553	1,072.27	51.7289	1,072.27	49.9794
1,110.35	87.7266	1,110.35	87.0903	1,110.35	85.2921	1,110.35	82.3282	1,110.35	54.7415	1,110.35	51.7776	1,110.35	49.9794
1,148.44	88.1303	1,148.44	87.3619	1,148.44	85.414	1,148.44	82.5371	1,148.44	54.8042	1,148.44	51.9273	1,148.44	49.9794
1,189.45	88.0525	1,189.45	87.4225	1,189.45	85.1214	1,189.45	81.9123	1,189.45	55.4896	1,189.45	52.2805	1,189.45	49.9794
1,230.47	87.1439	1,230.47	86.8056	1,230.47	84.4474	1,230.47	80.8998	1,230.47	55.8852	1,230.47	52.3376	1,230.47	49.9794
1,274.41	86.7955	1,274.41	86.3966	1,274.41	83.9091	1,274.41	79.9898	1,274.41	56.3862	1,274.41	52.4669	1,274.41	49.9794
1,318.36	86.1266	1,318.36	85.6944	1,318.36	83.0873	1,318.36	79.0936	1,318.36	56.5802	1,318.36	52.5865	1,318.36	49.9794
1,365.23	85.5166	1,365.23	85.0345	1,365.23	82.2788	1,365.23	78.3558	1,365.23	56.6581	1,365.23	52.7351	1,365.23	49.9794
1,415.04	85.1729	1,415.04	84.4128	1,415.04	81.3431	1,415.04	77.1971	1,415.04	57.1951	1,415.04	53.0491	1,415.04	49.9794
1,464.84	85.284	1,464.84	84.4258	1,464.84	81.0863	1,464.84	76.6348	1,464.84	57.7703	1,464.84	53.3189	1,464.84	49.9794
1,514.65	85.3599	1,514.65	84.4941	1,514.65	81.1307	1,514.65	76.6328	1,514.65	57.8407	1,514.65	53.3428	1,514.65	49.9794
1,570.31	85.1452	1,570.31	84.1901	1,570.31	80.7469	1,570.31	76.2675	1,570.31	57.902	1,570.31	53.4227	1,570.31	49.9794
1,623.05	84.2514	1,623.05	83.3082	1,623.05	79.7656	1,623.05	75.4589	1,623.05	57.8287	1,623.05	53.522	1,623.05	49.9794
1,681.64	84.0166	1,681.64	83.1314	1,681.64	79.47	1,681.64	75.2547	1,681.64	57.8561	1,681.64	53.6408	1,681.64	49.9794
1,740.23	84.7253	1,740.23	83.7601	1,740.23	80.0238	1,740.23	75.6847	1,740.23	58.0548	1,740.23	53.7157	1,740.23	49.9794
1,801.76	84.9109	1,801.76	83.8268	1,801.76	80.0278	1,801.76	75.5865	1,801.76	58.2198	1,801.76	53.7784	1,801.76	49.9794
1,866.21	83.8299	1,866.21	83.1561	1,866.21	79.565	1,866.21	75.3797	1,866.21	57.7558	1,866.21	53.5705	1,866.21	49.9794
1,930.66	83.2557	1,930.66	82.4333	1,930.66	79.068	1,930.66	75.1724	1,930.66	57.2402	1,930.66	53.3446	1,930.66	49.9794
2,000.98	84.4435	2,000.98	83.4682	2,000.98	79.9548	2,000.98	75.9432	2,000.98	57.5043	2,000.98	53.4928	2,000.98	49.9794
2,071.29	85.1857	2,071.29	84.233	2,071.29	80.627	2,071.29	76.468	2,071.29	57.7444	2,071.29	53.5854	2,071.29	49.9794
2,144.53	84.8212	2,144.53	84.0119	2,144.53	80.6113	2,144.53	76.696	2,144.53	57.2953	2,144.53	53.38	2,144.53	49.9794
2,217.77	84.7993	2,217.77	83.8326	2,217.77	80.5973	2,217.77	76.768	2,217.77	57.044	2,217.77	53.2147	2,217.77	49.9794
2,296.88	85.9875	2,296.88	85.2717	2,296.88	81.9083	2,296.88	77.7431	2,296.88	57.508	2,296.88	53.3428	2,296.88	49.9794
2,378.91	86.4769	2,378.91	85.7352	2,378.91	82.406	2,378.91	78.2316	2,378.91	57.4829	2,378.91	53.3086	2,378.91	49.9794
2,460.94	86.6412	2,460.94	85.9054	2,460.94	82.6544	2,460.94	78.5811	2,460.94	57.3037	2,460.94	53.2303	2,460.94	49.9794
2,548.83	87.0306	2,548.83	86.2099	2,548.83	83.08	2,548.83	78.954	2,548.83	57.2353	2,548.83	53.1093	2,548.83	49.9794
2,639.65	87.8083	2,639.65	86.9598	2,639.65	83.7693	2,639.65	79.4485	2,639.65	57.4907	2,639.65	53.17	2,639.65	49.9794
2,733.4	88.0168	2,733.4	87.2398	2,733.4	84.0272	2,733.4	79.6764	2,733.4	57.5428	2,733.4	53.192	2,733.4	49.9794
2,827.15	88.3997	2,827.15	87.5636	2,827.15	84.3869	2,827.15	80.0028	2,827.15	57.5402	2,827.15	53.1561	2,827.15	49.9794
2,926.76	88.1371	2,926.76	87.3898	2,926.76	84.2708	2,926.76	79.9875	2,926.76	57.3816	2,926.76	53.0984	2,926.76	49.9794
3,032.23	88.2051	3,032.23	87.3719	3,032.23	84.1487	3,032.23	79.8673	3,032.23	57.484	3,032.23	53.2026	3,032.23	49.9794
3,137.7	88.4307	3,137.7	87.661	3,137.7	84.3679	3,137.7	80.0864	3,137.7	57.554	3,137.7	53.2725	3,137.7	49.9794
3,249.02	88.3316	3,249.02	87.5225	3,249.02	84.2234	3,249.02	79.9847	3,249.02	57.5173	3,249.02	53.2785	3,249.02	49.9794
3,363.28	88.009	3,363.28	87.2481	3,363.28	83.9467	3,363.28	79.7608	3,363.28	57.4667	3,363.28	53.2807	3,363.28	49.9794
3,483.4	88.5622	3,483.4	87.6334	3,483.4	84.1412	3,483.4	79.7988	3,483.4	57.814	3,483.4	53.4716	3,483.4	49.9794
3,606.45	88.2781	3,606.45	87.4304	3,606.45	83.8631	3,606.45	79.6144	3,606.45	57.7954	3,606.45	53.5467	3,606.45	49.9794
3,732.42	88.2275	3,732.42	87.2936	3,732.42	83.9342	3,732.42	79.7036	3,732.42	57.5694	3,732.42	53.3388	3,732.42	49.9794
3,864.26	88.4319	3,864.26	87.6625	3,864.26	84.2235	3,864.26	79.9587	3,864.26	57.6832	3,864.26	53.4184	3,864.26	49.9794
3,999.02	88.5256	3,999.02	87.9418	3,999.02	84.4003	3,999.02	80.2394	3,999.02	57.6818	3,999.02	53.5209	3,999.02	49.9794
4,139.65	88.6083	4,139.65	88.0058	4,139.65	84.5885	4,139.65	80.4358	4,139.65	57.5494	4,139.65	53.3967	4,139.65	49.9794
4,286.13	89.7464	4,286.13	88.7225	4,286.13	85.3227	4,286.13	80.9011	4,286.13	57.8009	4,286.13	53.3792	4,286.13	49.9794
4,438.48	89.4166	4,438.48	88.6201	4,438.48	85.1853	4,438.48	80.7731	4,438.48	57.8263	4,438.48	53.4142	4,438.48	49.9794
4,593.75	90.1989	4,593.75	89.144	4,593.75	85.6049	4,593.75	80.9326	4,593.75	58.1908	4,593.75	53.5185	4,593.75	49.9794
4,757.81	90.0676	4,757.81	88.8952	4,757.81	85.3958	4,757.81	80.7669	4,757.81	58.1077	4,757.81	53.4788	4,757.81	49.9794
4,924.8	90.1855	4,924.8	89.0209	4,924.8	85.3557	4,924.8	80.7116	4,924.8	58.2887	4,924.8	53.6447	4,924.8	49.9794
5,097.66	90.1228	5,097.66	88.895	5,097.66	85.16	5,097.66	80.472	5,097.66	58.4024	5,097.66	53.7143	5,097.66	49.9794
5,279.3	89.5772	5,279.3	88.4691	5,279.3	84.7505	5,279.3	80.1565	5,279.3	58.292	5,279.3	53.698	5,279.3	49.9794
5,463.87	90.1725	5,463.87	88.8824	5,463.87	84.9539	5,463.87	80.1176	5,463.87	58.7443	5,463.87	53.9079	5,463.87	49.9794
5,657.23	89.7285	5,657.23	88.5031	5,657.23	84.6108	5,657.23	79.8343	5,657.23	58.6481	5,657.23	53.8716	5,657.23	49.9794
5,856.45	89.8979	5,856.45	88.6184	5,856.45	84.6078	5,856.45	79.7727	5,856.45	58.8251	5,856.45	53.99	5,856.45	49.9794
6,061.52	90.0085	6,061.52	88.9045	6,061.52	84.79	6,061.52	79.884	6,061.52	58.9999	6,061.52	54.0938	6,061.52	49.9794
6,275.39	90.3007	6,275.39	89.1052	6,275.39	84.9374	6,275.39	79.9324	6,275.39	59.1523	6,275.39	54.1472	6,275.39	49.9794
6,498.05	90.2852	6,498.05	89.1129	6,498.05	84.935	6,498.05	79.8478	6,498.05	59.2445	6,498.05	54.1573	6,498.05	49.9794
6,726.56	90.2572	6,726.56	89.1229	6,726.56	84.8762	6,726.56	79.7252	6,726.56	59.377	6,726.56	54.226	6,726.56	49.9794
6,963.87	90.2928	6,963.87	89.0971	6,963.87	84.7583	6,963.87	79.5282	6,963.87	59.5483	6,963.87	54.3182	6,963.87	49.9794
7,209.96	90.1705	7,209.96	88.8766	7,209.96	84.5448	7,209.96	79.2772	7,209.96	59.5788	7,209.96	54.3112	7,209.96	49.9794
7,464.84	89.9856	7,464.84	88.7209	7,464.84	84.35	7,464.84	79.071	7,464.84	59.6293	7,464.84	54.3503	7,464.84	49.9794
7,728.52	89.8381	7,728.52	88.5833	7,728.52	84.2292	7,728.52	78.8947	7,728.52	59.668	7,728.52	54.3335	7,728.52	49.9794
8,000.98	90.0648	8,000.98	88.7697	8,000.98	84.3813	8,000.98	79.0015	8,000.98	59.7475	8,000.98	54.3678	8,000.98	49.9794
8,282.23	90.283	8,282.23	89.0291	8,282.23	84.5122	8,282.23	79.0859	8,282.23	59.9227	8,282.23	54.4963	8,282.23	49.9794
8,575.2	90.0413	8,575.2	88.8558	8,575.2	84.2751	8,575.2	78.8379	8,575.2	59.9973	8,575.2	54.5601	8,575.2	49.9794
8,876.95	89.6694	8,876.95	88.5039	8,876.95	83.8834	8,876.95	78.4629	8,876.95	60.0204	8,876.95	54.5999	8,876.95	49.9794
9,190.43	89.4982	9,190.43	88.2366	9,190.43	83.6001	9,190.43	78.2189	9,190.43	59.9971	9,190.43	54.6159	9,190.43	49.9794
9,512.7	89.4391	9,512.7	88.2287	9,512.7	83.5124	9,512.7	78.0941	9,512.7	60.114	9,512.7	54.6957	9,512.7	49.9794
9,849.61	89.7813	9,849.61	88.4578	9,849.61	83.716	9,849.61	78.2751	9,849.61	60.1621	9,849.61	54.7212	9,849.61	49.9794
10,195.3	90.3145	10,195.3	88.9173	10,195.3	84.1734	10,195.3	78.6575	10,195.3	60.2392	10,195.3	54.7232	10,195.3	49.9794
10,555.7	90.8601	10,555.7	89.2914	10,555.7	84.5732	10,555.7	78.9437	10,555.7	60.3272	10,555.7	54.6976	10,555.7	49.9794
10,927.7	91.257	10,927.7	89.4753	10,927.7	84.8504	10,927.7	79.1643	10,927.7	60.2904	10,927.7	54.6043	10,927.7	49.9794
11,314.5	91.2843	11,314.5	89.4666	11,314.5	84.9156	11,314.5	79.2797	11,314.5	60.1663	11,314.5	54.5304	11,314.5	49.9794
11,712.9	90.9655	11,712.9	89.2943	11,712.9	84.8028	11,712.9	79.2557	11,712.9	60.0181	11,712.9	54.4709	11,712.9	49.9794
12,126	91.1202	12,126	89.5093	12,126	85.135	12,126	79.4937	12,126	59.995	12,126	54.3538	12,126	49.9794
12,553.7	90.9744	12,553.7	89.4975	12,553.7	85.3247	12,553.7	79.7251	12,553.7	59.7518	12,553.7	54.1522	12,553.7	49.9794
12,996.1	91.2983	12,996.1	89.8269	12,996.1	85.6612	12,996.1	80.0208	12,996.1	59.7854	12,996.1	54.1451	12,996.1	49.9794
13,453.1	91.4018	13,453.1	89.9914	13,453.1	85.8057	13,453.1	80.1376	13,453.1	59.8333	13,453.1	54.1651	13,453.1	49.9794
13,927.7	90.9585	13,927.7	89.6714	13,927.7	85.4995	13,927.7	79.8341	13,927.7	59.8167	13,927.7	54.1513	13,927.7	49.9794
14,419.9	90.4528	14,419.9	89.1789	14,419.9	84.7661	14,419.9	78.9974	14,419.9	60.1609	14,419.9	54.3922	14,419.9	49.9794
14,929.7	90.6231	14,929.7	88.9149	14,929.7	84.0401	14,929.7	77.9462	14,929.7	60.9481	14,929.7	54.8542	14,929.7	49.9794
15,454.1	91.2185	15,454.1	88.6997	15,454.1	83.3439	15,454.1	76.7541	15,454.1	61.925	15,454.1	55.3352	15,454.1	49.9794
15,999	91.725	15,999	88.5089	15,999	82.7472	15,999	75.5348	15,999	62.9535	15,999	55.7411	15,999	49.9794
16,564.5	92.2654	16,564.5	88.5529	16,564.5	82.648	16,564.5	74.9994	16,564.5	63.5329	16,564.5	55.8843	16,564.5	49.9794
17,147.5	92.6412	17,147.5	88.6407	17,147.5	82.8504	17,147.5	75.1948	17,147.5	63.4253	17,147.5	55.7697	17,147.5	49.9794
17,753.9	92.8791	17,753.9	88.7613	17,753.9	83.3002	17,753.9	76.0185	17,753.9	62.7222	17,753.9	55.4406	17,753.9	49.9794
18,377.9	91.909	18,377.9	87.9435	18,377.9	82.9661	18,377.9	76.3205	18,377.9	61.6025	18,377.9	54.9568	18,377.9	49.9794
19,028.3	90.015	19,028.3	86.4443	19,028.3	82.1039	19,028.3	76.015	19,028.3	60.4087	19,028.3	54.3198	19,028.3	49.9794
19,699.2	87.1028	19,699.2	84.385	19,699.2	80.6841	19,699.2	75.0235	19,699.2	59.3409	19,699.2	53.6803	19,699.2	49.9794
19,998	85.2538	19,998	83.1397	19,998	79.7941	19,998	74.3365	19,998	58.7826	19,998	53.325	19,998	49.9794
