"SPL Vertical"																																																																							
"On-Axis"		"10°"		"-10°"		"20°"		"-20°"		"30°"		"-30°"		"40°"		"-40°"		"50°"		"-50°"		"60°"		"-60°"		"70°"		"-70°"		"80°"		"-80°"		"90°"		"-90°"		"100°"		"-100°"		"110°"		"-110°"		"120°"		"-120°"		"130°"		"-130°"		"140°"		"-140°"		"150°"		"-150°"		"160°"		"-160°"		"170°"		"-170°"		"180°"	
"Frequency [Hz]"	"Sound Pessure Level [dB]  / [2.83V 1m] "	"Frequency [Hz]"	"Sound Pessure Level [dB]  / [2.83V 1m] "	"Frequency [Hz]"	"Sound Pessure Level [dB]  / [2.83V 1m] "	"Frequency [Hz]"	"Sound Pessure Level [dB]  / [2.83V 1m] "	"Frequency [Hz]"	"Sound Pessure Level [dB]  / [2.83V 1m] "	"Frequency [Hz]"	"Sound Pessure Level [dB]  / [2.83V 1m] "	"Frequency [Hz]"	"Sound Pessure Level [dB]  / [2.83V 1m] "	"Frequency [Hz]"	"Sound Pessure Level [dB]  / [2.83V 1m] "	"Frequency [Hz]"	"Sound Pessure Level [dB]  / [2.83V 1m] "	"Frequency [Hz]"	"Sound Pessure Level [dB]  / [2.83V 1m] "	"Frequency [Hz]"	"Sound Pessure Level [dB]  / [2.83V 1m] "	"Frequency [Hz]"	"Sound Pessure Level [dB]  / [2.83V 1m] "	"Frequency [Hz]"	"Sound Pessure Level [dB]  / [2.83V 1m] "	"Frequency [Hz]"	"Sound Pessure Level [dB]  / [2.83V 1m] "	"Frequency [Hz]"	"Sound Pessure Level [dB]  / [2.83V 1m] "	"Frequency [Hz]"	"Sound Pessure Level [dB]  / [2.83V 1m] "	"Frequency [Hz]"	"Sound Pessure Level [dB]  / [2.83V 1m] "	"Frequency [Hz]"	"Sound Pessure Level [dB]  / [2.83V 1m] "	"Frequency [Hz]"	"Sound Pessure Level [dB]  / [2.83V 1m] "	"Frequency [Hz]"	"Sound Pessure Level [dB]  / [2.83V 1m] "	"Frequency [Hz]"	"Sound Pessure Level [dB]  / [2.83V 1m] "	"Frequency [Hz]"	"Sound Pessure Level [dB]  / [2.83V 1m] "	"Frequency [Hz]"	"Sound Pessure Level [dB]  / [2.83V 1m] "	"Frequency [Hz]"	"Sound Pessure Level [dB]  / [2.83V 1m] "	"Frequency [Hz]"	"Sound Pessure Level [dB]  / [2.83V 1m] "	"Frequency [Hz]"	"Sound Pessure Level [dB]  / [2.83V 1m] "	"Frequency [Hz]"	"Sound Pessure Level [dB]  / [2.83V 1m] "	"Frequency [Hz]"	"Sound Pessure Level [dB]  / [2.83V 1m] "	"Frequency [Hz]"	"Sound Pessure Level [dB]  / [2.83V 1m] "	"Frequency [Hz]"	"Sound Pessure Level [dB]  / [2.83V 1m] "	"Frequency [Hz]"	"Sound Pessure Level [dB]  / [2.83V 1m] "	"Frequency [Hz]"	"Sound Pessure Level [dB]  / [2.83V 1m] "	"Frequency [Hz]"	"Sound Pessure Level [dB]  / [2.83V 1m] "	"Frequency [Hz]"	"Sound Pessure Level [dB]  / [2.83V 1m] "	"Frequency [Hz]"	"Sound Pessure Level [dB]  / [2.83V 1m] "	"Frequency [Hz]"	"Sound Pessure Level [dB]  / [2.83V 1m] "
20.5078	57.2462	20.5078	56.9102	20.5078	57.5127	20.5078	56.5511	20.5078	57.6791	20.5078	56.2353	20.5078	57.7254	20.5078	56.0494	20.5078	57.6429	20.5078	56.0842	20.5078	57.4393	20.5078	56.4009	20.5078	57.1541	20.5078	56.9985	20.5078	56.8834	20.5078	57.8155	20.5078	56.7966	20.5078	58.7625	20.5078	57.0897	20.5078	59.7554	20.5078	57.8464	20.5078	60.7298	20.5078	58.9511	20.5078	61.6407	20.5078	60.1872	20.5078	62.4564	20.5078	61.3732	20.5078	63.1529	20.5078	62.4031	20.5078	63.7104	20.5078	63.228	20.5078	64.1111	20.5078	63.8309	20.5078	64.3382	20.5078	64.2111	20.5078	64.3763
23.4375	59.5053	23.4375	59.2461	23.4375	59.7228	23.4375	59.0067	23.4375	59.8574	23.4375	58.8679	23.4375	59.8852	23.4375	58.9182	23.4375	59.8012	23.4375	59.2247	23.4375	59.6276	23.4375	59.8011	23.4375	59.4333	23.4375	60.6023	23.4375	59.3549	23.4375	61.5491	23.4375	59.5814	23.4375	62.561	23.4375	60.2509	23.4375	63.5739	23.4375	61.3263	23.4375	64.5421	23.4375	62.6212	23.4375	65.434	23.4375	63.9365	23.4375	66.2263	23.4375	65.1383	23.4375	66.8999	23.4375	66.1572	23.4375	67.4379	23.4375	66.9636	23.4375	67.8241	23.4375	67.5497	23.4375	68.0427	23.4375	67.9185	23.4375	68.0788
26.3672	63.2763	26.3672	63.1028	26.3672	63.4332	26.3672	62.9587	26.3672	63.5413	26.3672	62.9011	26.3672	63.5837	26.3672	62.9894	26.3672	63.5613	26.3672	63.2682	26.3672	63.4988	26.3672	63.7511	26.3672	63.4554	26.3672	64.4148	26.3672	63.5291	26.3672	65.2103	26.3672	63.8362	26.3672	66.0797	26.3672	64.4517	26.3672	66.9703	26.3672	65.3513	26.3672	67.8394	26.3672	66.422	26.3672	68.6538	26.3672	67.5276	26.3672	69.3872	26.3672	68.5603	26.3672	70.018	26.3672	69.4525	26.3672	70.527	26.3672	70.168	26.3672	70.8969	26.3672	70.6914	26.3672	71.1114	26.3672	71.0193	26.3672	71.1563
29.2969	66.8979	29.2969	66.7719	29.2969	67.0224	29.2969	66.6794	29.2969	67.1206	29.2969	66.6627	29.2969	67.1799	29.2969	66.764	29.2969	67.2027	29.2969	67.0158	29.2969	67.2106	29.2969	67.4301	29.2969	67.2498	29.2969	67.9945	29.2969	67.3904	29.2969	68.6765	29.2969	67.71	29.2969	69.4337	29.2969	68.2585	29.2969	70.2232	29.2969	69.0232	29.2969	71.0064	29.2969	69.9305	29.2969	71.751	29.2969	70.8808	29.2969	72.4299	29.2969	71.7847	29.2969	73.0197	29.2969	72.578	29.2969	73.5001	29.2969	73.2216	29.2969	73.8526	29.2969	73.6951	29.2969	74.0608	29.2969	73.9911	29.2969	74.1106
32.2266	70.7005	32.2266	70.6255	32.2266	70.787	32.2266	70.5861	32.2266	70.8677	32.2266	70.6104	32.2266	70.9343	32.2266	70.726	32.2266	70.9898	32.2266	70.9541	32.2266	71.0517	32.2266	71.3043	32.2266	71.1532	32.2266	71.7714	32.2266	71.3412	32.2266	72.3366	32.2266	71.6648	32.2266	72.9721	32.2266	72.1543	32.2266	73.6462	32.2266	72.8021	32.2266	74.3271	32.2266	73.5611	32.2266	74.9856	32.2266	74.3615	32.2266	75.5952	32.2266	75.133	32.2266	76.1319	32.2266	75.8196	32.2266	76.5743	32.2266	76.3824	32.2266	76.9032	32.2266	76.7984	32.2266	77.1018	32.2266	77.0569	32.2266	77.1564
35.1563	74.4735	35.1563	74.4104	35.1563	74.5527	35.1563	74.3797	35.1563	74.6364	35.1563	74.4005	35.1563	74.7193	35.1563	74.492	35.1563	74.8038	35.1563	74.6699	35.1563	74.902	35.1563	74.9433	35.1563	75.0357	35.1563	75.3121	35.1563	75.2345	35.1563	75.7668	35.1563	75.5293	35.1563	76.2895	35.1563	75.9399	35.1563	76.8569	35.1563	76.4644	35.1563	77.4432	35.1563	77.0747	35.1563	78.0221	35.1563	77.7239	35.1563	78.5681	35.1563	78.3588	35.1563	79.0571	35.1563	78.9315	35.1563	79.4671	35.1563	79.4051	35.1563	79.7783	35.1563	79.7551	35.1563	79.9736	35.1563	79.9681	35.1563	80.0399
38.0859	77.7688	38.0859	77.7183	38.0859	77.8386	38.0859	77.6985	38.0859	77.9197	38.0859	77.7224	38.0859	78.0086	38.0859	77.8034	38.0859	78.1071	38.0859	77.9528	38.0859	78.2234	38.0859	78.1782	38.0859	78.3723	38.0859	78.4813	38.0859	78.5734	38.0859	78.8572	38.0859	78.8466	38.0859	79.2944	38.0859	79.2054	38.0859	79.7765	38.0859	79.649	38.0859	80.2829	38.0859	80.159	38.0859	80.7913	38.0859	80.7016	38.0859	81.2785	38.0859	81.2359	38.0859	81.7214	38.0859	81.7215	38.0859	82.0983	38.0859	82.125	38.0859	82.3894	38.0859	82.4224	38.0859	82.5778	38.0859	82.5994	38.0859	82.6505
41.0156	80.4968	41.0156	80.4551	41.0156	80.561	41.0156	80.4435	41.0156	80.6423	41.0156	80.4706	41.0156	80.738	41.0156	80.5452	41.0156	80.8489	41.0156	80.6749	41.0156	80.98	41.0156	80.8651	41.0156	81.1401	41.0156	81.1176	41.0156	81.3412	41.0156	81.4298	41.0156	81.5955	41.0156	81.7947	41.0156	81.911	41.0156	82.2009	41.0156	82.2874	41.0156	82.633	41.0156	82.7121	41.0156	83.073	41.0156	83.1614	41.0156	83.5008	41.0156	83.6044	41.0156	83.8956	41.0156	84.0084	41.0156	84.2369	41.0156	84.3445	41.0156	84.5056	41.0156	84.5904	41.0156	84.6852	41.0156	84.732	41.0156	84.7632
43.9453	82.3453	43.9453	82.3052	43.9453	82.4087	43.9453	82.2932	43.9453	82.4917	43.9453	82.3152	43.9453	82.5924	43.9453	82.3771	43.9453	82.7113	43.9453	82.4846	43.9453	82.8512	43.9453	82.6418	43.9453	83.0174	43.9453	82.851	43.9453	83.2167	43.9453	83.1114	43.9453	83.4561	43.9453	83.4189	43.9453	83.7401	43.9453	83.7656	43.9453	84.0674	43.9453	84.14	43.9453	84.4285	43.9453	84.5271	43.9453	84.8059	43.9453	84.9096	43.9453	85.1756	43.9453	85.2684	43.9453	85.5112	43.9453	85.5842	43.9453	85.7882	43.9453	85.8386	43.9453	85.9868	43.9453	86.0156	43.9453	86.0937	43.9453	86.103
46.875	83.3778	46.875	83.3396	46.875	83.4409	46.875	83.3293	46.875	83.5264	46.875	83.3507	46.875	83.6327	46.875	83.4074	46.875	83.7595	46.875	83.5028	46.875	83.9076	46.875	83.6398	46.875	84.0791	46.875	83.8198	46.875	84.2773	46.875	84.0426	46.875	84.505	46.875	84.3056	46.875	84.7639	46.875	84.6033	46.875	85.0519	46.875	84.9273	46.875	85.3615	46.875	85.2658	46.875	85.6795	46.875	85.6043	46.875	85.9874	46.875	85.9264	46.875	86.2643	46.875	86.2145	46.875	86.4899	46.875	86.4516	46.875	86.6471	46.875	86.6225	46.875	86.7242	46.875	86.7157
49.8047	83.8681	49.8047	83.8299	49.8047	83.9321	49.8047	83.8192	49.8047	84.0202	49.8047	83.8381	49.8047	84.1311	49.8047	83.8885	49.8047	84.2637	49.8047	83.9724	49.8047	84.4175	49.8047	84.0913	49.8047	84.5924	49.8047	84.2463	49.8047	84.7886	49.8047	84.4373	49.8047	85.0063	49.8047	84.6627	49.8047	85.2447	49.8047	84.9189	49.8047	85.5008	49.8047	85.1999	49.8047	85.7684	49.8047	85.4965	49.8047	86.037	49.8047	85.797	49.8047	86.2925	49.8047	86.0871	49.8047	86.5183	49.8047	86.3513	49.8047	86.698	49.8047	86.5738	49.8047	86.8173	49.8047	86.7404	49.8047	86.8661	49.8047	86.8401
52.7344	84.1497	52.7344	84.1128	52.7344	84.2129	52.7344	84.103	52.7344	84.3014	52.7344	84.1209	52.7344	84.4141	52.7344	84.1673	52.7344	84.5493	52.7344	84.2425	52.7344	84.7054	52.7344	84.3473	52.7344	84.8803	52.7344	84.4819	52.7344	85.0724	52.7344	84.6462	52.7344	85.2795	52.7344	84.8393	52.7344	85.499	52.7344	85.0589	52.7344	85.7274	52.7344	85.3008	52.7344	85.959	52.7344	85.5582	52.7344	86.1855	52.7344	85.8219	52.7344	86.396	52.7344	86.0802	52.7344	86.5777	52.7344	86.3194	52.7344	86.7175	52.7344	86.5255	52.7344	86.8039	52.7344	86.6855	52.7344	86.8288	52.7344	86.7888
55.6641	84.3397	55.6641	84.3025	55.6641	84.4034	55.6641	84.2916	55.6641	84.4928	55.6641	84.3068	55.6641	84.607	55.6641	84.3476	55.6641	84.7439	55.6641	84.4138	55.6641	84.9009	55.6641	84.5049	55.6641	85.075	55.6641	84.6208	55.6641	85.2625	55.6641	84.7614	55.6641	85.4599	55.6641	84.9263	55.6641	85.6633	55.6641	85.114	55.6641	85.8685	55.6641	85.3219	55.6641	86.0701	55.6641	85.5455	55.6641	86.2612	55.6641	85.7776	55.6641	86.4334	55.6641	86.0086	55.6641	86.5767	55.6641	86.2271	55.6641	86.6809	55.6641	86.4203	55.6641	86.737	55.6641	86.5761	55.6641	86.739	55.6641	86.6846
58.5938	84.529	58.5938	84.4905	58.5938	84.5941	58.5938	84.4782	58.5938	84.6856	58.5938	84.4909	58.5938	84.8024	58.5938	84.5273	58.5938	84.942	58.5938	84.5861	58.5938	85.101	58.5938	84.6663	58.5938	85.2751	58.5938	84.7671	58.5938	85.4595	58.5938	84.8881	58.5938	85.6491	58.5938	85.0289	58.5938	85.8388	58.5938	85.189	58.5938	86.0237	58.5938	85.367	58.5938	86.1986	58.5938	85.5598	58.5938	86.3578	58.5938	85.7625	58.5938	86.4947	58.5938	85.9677	58.5938	86.602	58.5938	86.166	58.5938	86.6724	58.5938	86.3464	58.5938	86.6995	58.5938	86.4979	58.5938	86.6794	58.5938	86.6111
61.5234	84.6695	61.5234	84.6282	61.5234	84.7371	61.5234	84.6124	61.5234	84.831	61.5234	84.6204	61.5234	84.95	61.5234	84.6502	61.5234	85.0911	61.5234	84.6999	61.5234	85.2504	61.5234	84.7678	61.5234	85.4226	61.5234	84.8528	61.5234	85.6021	61.5234	84.9543	61.5234	85.7826	61.5234	85.0721	61.5234	85.9583	61.5234	85.2062	61.5234	86.1238	61.5234	85.3563	61.5234	86.274	61.5234	85.521	61.5234	86.4041	61.5234	85.6972	61.5234	86.509	61.5234	85.8796	61.5234	86.5836	61.5234	86.0604	61.5234	86.6228	61.5234	86.2304	61.5234	86.6227	61.5234	86.3795	61.5234	86.5811	61.5234	86.4988
64.4531	84.8662	64.4531	84.8211	64.4531	84.9369	64.4531	84.8003	64.4531	85.033	64.4531	84.8018	64.4531	85.1532	64.4531	84.8232	64.4531	85.2943	64.4531	84.8621	64.4531	85.4519	64.4531	84.9163	64.4531	85.6201	64.4531	84.9844	64.4531	85.7924	64.4531	85.0655	64.4531	85.962	64.4531	85.1597	64.4531	86.1224	64.4531	85.2674	64.4531	86.2677	64.4531	85.3895	64.4531	86.3931	64.4531	85.5259	64.4531	86.4943	64.4531	85.6753	64.4531	86.5675	64.4531	85.8344	64.4531	86.6096	64.4531	85.9976	64.4531	86.6176	64.4531	86.1571	64.4531	86.59	64.4531	86.3039	64.4531	86.5265	64.4531	86.4295
67.3828	85.1435	67.3828	85.0928	67.3828	85.2182	67.3828	85.0647	67.3828	85.3167	67.3828	85.057	67.3828	85.4378	67.3828	85.0669	67.3828	85.5781	67.3828	85.0918	67.3828	85.7328	67.3828	85.1293	67.3828	85.8958	67.3828	85.1778	67.3828	86.0599	67.3828	85.2367	67.3828	86.218	67.3828	85.3062	67.3828	86.363	67.3828	85.3876	67.3828	86.4888	67.3828	85.4826	67.3828	86.5904	67.3828	85.5926	67.3828	86.664	67.3828	85.718	67.3828	86.707	67.3828	85.8573	67.3828	86.7178	67.3828	86.0064	67.3828	86.6954	67.3828	86.1588	67.3828	86.6402	67.3828	86.3065	67.3828	86.554	67.3828	86.4408
70.3125	85.2951	70.3125	85.242	70.3125	85.3725	70.3125	85.2118	70.3125	85.4742	70.3125	85.2021	70.3125	85.5984	70.3125	85.2099	70.3125	85.7413	70.3125	85.232	70.3125	85.8976	70.3125	85.2658	70.3125	86.0606	70.3125	85.3093	70.3125	86.2225	70.3125	85.3615	70.3125	86.3757	70.3125	85.4226	70.3125	86.5127	70.3125	85.4938	70.3125	86.6274	70.3125	85.5771	70.3125	86.7151	70.3125	85.6744	70.3125	86.7727	70.3125	85.7866	70.3125	86.7984	70.3125	85.9132	70.3125	86.7919	70.3125	86.0512	70.3125	86.7537	70.3125	86.1953	70.3125	86.6855	70.3125	86.3384	70.3125	86.5903	70.3125	86.4725
73.2422	85.5852	73.2422	85.532	73.2422	85.6626	73.2422	85.5018	73.2422	85.7641	73.2422	85.492	73.2422	85.8877	73.2422	85.4994	73.2422	86.0296	73.2422	85.5205	73.2422	86.1842	73.2422	85.5523	73.2422	86.3446	73.2422	85.5922	73.2422	86.5029	73.2422	85.6389	73.2422	86.6512	73.2422	85.6921	73.2422	86.7818	73.2422	85.7528	73.2422	86.8882	73.2422	85.823	73.2422	86.9655	73.2422	85.905	73.2422	87.0106	73.2422	86.0009	73.2422	87.0222	73.2422	86.1114	73.2422	87.0006	73.2422	86.2351	73.2422	86.9477	73.2422	86.3684	73.2422	86.8666	73.2422	86.5055	73.2422	86.7618	73.2422	86.6391
76.1719	85.8465	76.1719	85.7897	76.1719	85.9268	76.1719	85.755	76.1719	86.0302	76.1719	85.7398	76.1719	86.1546	76.1719	85.7408	76.1719	86.2959	76.1719	85.7544	76.1719	86.4483	76.1719	85.777	76.1719	86.6046	76.1719	85.8058	76.1719	86.7567	76.1719	85.8392	76.1719	86.8961	76.1719	85.8768	76.1719	87.0151	76.1719	85.9196	76.1719	87.1069	76.1719	85.97	76.1719	87.1665	76.1719	86.0311	76.1719	87.1911	76.1719	86.1064	76.1719	87.1801	76.1719	86.1981	76.1719	87.1349	76.1719	86.3068	76.1719	87.0589	76.1719	86.4305	76.1719	86.9571	76.1719	86.5646	76.1719	86.8358	76.1719	86.7023
79.1016	85.9756	79.1016	85.9184	79.1016	86.0571	79.1016	85.8842	79.1016	86.1627	79.1016	85.8701	79.1016	86.2902	79.1016	85.8725	79.1016	86.4354	79.1016	85.8872	79.1016	86.5922	79.1016	85.9105	79.1016	86.7532	79.1016	85.939	79.1016	86.91	79.1016	85.9708	79.1016	87.0536	79.1016	86.0053	79.1016	87.1757	79.1016	86.0433	79.1016	87.2689	79.1016	86.0875	79.1016	87.3276	79.1016	86.1416	79.1016	87.3487	79.1016	86.2096	79.1016	87.3313	79.1016	86.2951	79.1016	87.2772	79.1016	86.3995	79.1016	87.1904	79.1016	86.522	79.1016	87.0769	79.1016	86.6584	79.1016	86.9446	79.1016	86.802
82.0313	86.323	82.0313	86.2652	82.0313	86.4019	82.0313	86.2271	82.0313	86.5016	82.0313	86.2062	82.0313	86.6199	82.0313	86.1987	82.0313	86.7527	82.0313	86.2007	82.0313	86.8944	82.0313	86.2082	82.0313	87.038	82.0313	86.218	82.0313	87.1753	82.0313	86.228	82.0313	87.2981	82.0313	86.2377	82.0313	87.3981	82.0313	86.2485	82.0313	87.4682	82.0313	86.2636	82.0313	87.5028	82.0313	86.2876	82.0313	87.4991	82.0313	86.3261	82.0313	87.4566	82.0313	86.3843	82.0313	87.3779	82.0313	86.4658	82.0313	87.2685	82.0313	86.5714	82.0313	87.1361	82.0313	86.6984	82.0313	86.9902	82.0313	86.8409
84.9609	86.7242	84.9609	86.6609	84.9609	86.8022	84.9609	86.6111	84.9609	86.8943	84.9609	86.5724	84.9609	86.9985	84.9609	86.5413	84.9609	87.1108	84.9609	86.5141	84.9609	87.2258	84.9609	86.4872	84.9609	87.3366	84.9609	86.4576	84.9609	87.4358	84.9609	86.4236	84.9609	87.5155	84.9609	86.3855	84.9609	87.5682	84.9609	86.3453	84.9609	87.5877	84.9609	86.3074	84.9609	87.5698	84.9609	86.2783	84.9609	87.5129	84.9609	86.2656	84.9609	87.4185	84.9609	86.2772	84.9609	87.2916	84.9609	86.3194	84.9609	87.1399	84.9609	86.3959	84.9609	86.9737	84.9609	86.5061	84.9609	86.8047	84.9609	86.6452
87.8906	86.6238	87.8906	86.5624	87.8906	86.7086	87.8906	86.5228	87.8906	86.8165	87.8906	86.5017	87.8906	86.9448	87.8906	86.4949	87.8906	87.089	87.8906	86.4974	87.8906	87.2425	87.8906	86.5046	87.8906	87.3972	87.8906	86.5129	87.8906	87.5442	87.8906	86.5199	87.8906	87.6742	87.8906	86.5249	87.8906	87.7781	87.8906	86.5296	87.8906	87.8484	87.8906	86.5377	87.8906	87.8793	87.8906	86.5546	87.8906	87.8678	87.8906	86.5869	87.8906	87.8138	87.8906	86.6409	87.8906	87.7206	87.8906	86.7213	87.8906	87.5946	87.8906	86.8298	87.8906	87.4448	87.8906	86.9641	87.8906	87.282	87.8906	87.118
90.8203	86.6965	90.8203	86.6315	90.8203	86.7858	90.8203	86.5898	90.8203	86.8986	90.8203	86.5688	90.8203	87.0317	90.8203	86.5644	90.8203	87.1805	90.8203	86.5716	90.8203	87.3383	90.8203	86.5856	90.8203	87.4975	90.8203	86.6019	90.8203	87.6493	90.8203	86.6174	90.8203	87.7845	90.8203	86.6306	90.8203	87.8939	90.8203	86.6424	90.8203	87.9696	90.8203	86.6556	90.8203	88.0052	90.8203	86.6754	90.8203	87.9968	90.8203	86.7083	90.8203	87.9441	90.8203	86.7611	90.8203	87.85	90.8203	86.8393	90.8203	87.7213	90.8203	86.9458	90.8203	87.5676	90.8203	87.0793	90.8203	87.401	90.8203	87.2342
93.75	87.0157	93.75	86.9368	93.75	87.1124	93.75	86.8758	93.75	87.2255	93.75	86.8309	93.75	87.3519	93.75	86.799	93.75	87.4871	93.75	86.7765	93.75	87.6253	93.75	86.7589	93.75	87.7599	93.75	86.7428	93.75	87.8832	93.75	86.7252	93.75	87.9872	93.75	86.7051	93.75	88.0637	93.75	86.6837	93.75	88.1052	93.75	86.6645	93.75	88.1058	93.75	86.6531	93.75	88.062	93.75	86.6571	93.75	87.9738	93.75	86.6849	93.75	87.845	93.75	86.7438	93.75	87.6836	93.75	86.8383	93.75	87.5011	93.75	86.9685	93.75	87.3115	93.75	87.1295
96.6797	87.335	96.6797	87.2638	96.6797	87.4211	96.6797	87.2065	96.6797	87.521	96.6797	87.1608	96.6797	87.6322	96.6797	87.1229	96.6797	87.7504	96.6797	87.0884	96.6797	87.8701	96.6797	87.053	96.6797	87.9844	96.6797	87.0128	96.6797	88.0857	96.6797	86.9653	96.6797	88.1659	96.6797	86.9103	96.6797	88.2169	96.6797	86.8497	96.6797	88.2312	96.6797	86.7885	96.6797	88.2033	96.6797	86.7343	96.6797	88.13	96.6797	86.697	96.6797	88.0121	96.6797	86.6876	96.6797	87.8546	96.6797	86.7158	96.6797	87.6667	96.6797	86.7883	96.6797	87.4619	96.6797	86.9067	96.6797	87.2562	96.6797	87.0662
102.539	87.5684	102.539	87.4871	102.539	87.6657	102.539	87.4221	102.539	87.7768	102.539	87.3717	102.539	87.898	102.539	87.3326	102.539	88.0242	102.539	87.3006	102.539	88.1495	102.539	87.2705	102.539	88.2669	102.539	87.2381	102.539	88.3691	102.539	87.1999	102.539	88.4486	102.539	87.1547	102.539	88.4977	102.539	87.1036	102.539	88.5096	102.539	87.0507	102.539	88.4789	102.539	87.0031	102.539	88.4029	102.539	86.97	102.539	88.2824	102.539	86.9623	102.539	88.1226	102.539	86.9901	102.539	87.933	102.539	87.0606	102.539	87.7274	102.539	87.1764	102.539	87.522	102.539	87.3335
105.469	87.6777	105.469	87.589	105.469	87.7805	105.469	87.5149	105.469	87.8949	105.469	87.4543	105.469	88.0172	105.469	87.4043	105.469	88.1424	105.469	87.361	105.469	88.2648	105.469	87.3197	105.469	88.3779	105.469	87.2763	105.469	88.4749	105.469	87.2276	105.469	88.5483	105.469	87.1723	105.469	88.5907	105.469	87.1119	105.469	88.5952	105.469	87.0506	105.469	88.5564	105.469	86.9958	105.469	88.4712	105.469	86.9571	105.469	88.3404	105.469	86.9457	105.469	88.1689	105.469	86.9725	105.469	87.9668	105.469	87.045	105.469	87.7483	105.469	87.1659	105.469	87.5306	105.469	87.3313
108.398	87.8243	108.398	87.7388	108.398	87.9222	108.398	87.6667	108.398	88.0304	108.398	87.6069	108.398	88.1449	108.398	87.5566	108.398	88.261	108.398	87.5119	108.398	88.3734	108.398	87.4682	108.398	88.4761	108.398	87.4214	108.398	88.5627	108.398	87.3684	108.398	88.6264	108.398	87.3079	108.398	88.6604	108.398	87.2413	108.398	88.6581	108.398	87.1729	108.398	88.6142	108.398	87.1101	108.398	88.5256	108.398	87.0628	108.398	88.3928	108.398	87.0423	108.398	88.2208	108.398	87.0598	108.398	88.0195	108.398	87.1234	108.398	87.8031	108.398	87.2363	108.398	87.589	108.398	87.3949
111.328	88.0356	111.328	87.9469	111.328	88.1361	111.328	87.8713	111.328	88.2457	111.328	87.808	111.328	88.3603	111.328	87.7543	111.328	88.4749	111.328	87.7062	111.328	88.5842	111.328	87.6593	111.328	88.6823	111.328	87.6089	111.328	88.7632	111.328	87.552	111.328	88.8204	111.328	87.4871	111.328	88.8475	111.328	87.4155	111.328	88.8382	111.328	87.3416	111.328	88.7874	111.328	87.2728	111.328	88.6921	111.328	87.2192	111.328	88.5528	111.328	87.1927	111.328	88.3747	111.328	87.2049	111.328	88.1677	111.328	87.2644	111.328	87.9466	111.328	87.375	111.328	87.7291	111.328	87.5333
117.188	88.3465	117.188	88.2497	117.188	88.4539	117.188	88.1657	117.188	88.5679	117.188	88.0948	117.188	88.6833	117.188	88.035	117.188	88.7948	117.188	87.9824	117.188	88.8967	117.188	87.9324	117.188	88.9838	117.188	87.88	117.188	89.051	117.188	87.8216	117.188	89.0932	117.188	87.7555	117.188	89.1053	117.188	87.6825	117.188	89.0824	117.188	87.6069	117.188	89.0204	117.188	87.536	117.188	88.9171	117.188	87.4797	117.188	88.7731	117.188	87.4497	117.188	88.5934	117.188	87.4574	117.188	88.3877	117.188	87.5116	117.188	88.1701	117.188	87.6161	117.188	87.9577	117.188	87.7681
120.117	88.4943	120.117	88.3882	120.117	88.6099	120.117	88.295	120.117	88.7304	120.117	88.2157	120.117	88.8503	120.117	88.1494	120.117	88.9639	120.117	88.093	120.117	89.0657	120.117	88.0422	120.117	89.1505	120.117	87.9923	120.117	89.2136	120.117	87.9392	120.117	89.2501	120.117	87.8806	120.117	89.2554	120.117	87.8165	120.117	89.2251	120.117	87.75	120.117	89.1556	120.117	87.6871	120.117	89.0454	120.117	87.6367	120.117	88.8961	120.117	87.6093	120.117	88.7134	120.117	87.6159	120.117	88.5075	120.117	87.6652	120.117	88.2931	120.117	87.7621	120.117	88.0867	120.117	87.9053
125.977	88.6258	125.977	88.5207	125.977	88.7363	125.977	88.424	125.977	88.8484	125.977	88.3366	125.977	88.9572	125.977	88.2574	125.977	89.0578	125.977	88.184	125.977	89.1455	125.977	88.1126	125.977	89.2157	125.977	88.0392	125.977	89.2641	125.977	87.9608	125.977	89.2859	125.977	87.8759	125.977	89.2764	125.977	87.7854	125.977	89.2307	125.977	87.693	125.977	89.1445	125.977	87.6056	125.977	89.0156	125.977	87.5326	125.977	88.8454	125.977	87.4856	125.977	88.6399	125.977	87.4765	125.977	88.4108	125.977	87.5156	125.977	88.1744	125.977	87.6092	125.977	87.9501	125.977	87.7567
128.906	88.608	128.906	88.5024	128.906	88.7189	128.906	88.4048	128.906	88.8313	128.906	88.3157	128.906	88.9401	128.906	88.2337	128.906	89.0402	128.906	88.1554	128.906	89.1267	128.906	88.0767	128.906	89.195	128.906	87.9932	128.906	89.2403	128.906	87.9018	128.906	89.258	128.906	87.8013	128.906	89.243	128.906	87.6931	128.906	89.19	128.906	87.582	128.906	89.0945	128.906	87.476	128.906	88.9539	128.906	87.386	128.906	88.7694	128.906	87.325	128.906	88.5471	128.906	87.3066	128.906	88.2995	128.906	87.3422	128.906	88.0443	128.906	87.4386	128.906	87.8025	128.906	87.5951
134.766	88.5802	134.766	88.4606	134.766	88.7071	134.766	88.3526	134.766	88.836	134.766	88.2576	134.766	88.9606	134.766	88.1747	134.766	89.0752	134.766	88.1005	134.766	89.1749	134.766	88.0299	134.766	89.2554	134.766	87.958	134.766	89.3133	134.766	87.8805	134.766	89.345	134.766	87.7958	134.766	89.3461	134.766	87.7049	134.766	89.3117	134.766	87.6125	134.766	89.2366	134.766	87.5268	134.766	89.1168	134.766	87.4589	134.766	88.9513	134.766	87.4216	134.766	88.7442	134.766	87.4281	134.766	88.5058	134.766	87.4886	134.766	88.2524	134.766	87.6081	134.766	88.0046	134.766	87.7838
137.695	88.5851	137.695	88.4519	137.695	88.7242	137.695	88.3298	137.695	88.8625	137.695	88.2219	137.695	88.9933	137.695	88.1283	137.695	89.1106	137.695	88.0466	137.695	89.2099	137.695	87.9725	137.695	89.2876	137.695	87.9009	137.695	89.3412	137.695	87.8279	137.695	89.3684	137.695	87.7512	137.695	89.366	137.695	87.6717	137.695	89.3301	137.695	87.5935	137.695	89.2561	137.695	87.5237	137.695	89.1401	137.695	87.4724	137.695	88.9808	137.695	87.4513	137.695	88.7816	137.695	87.4717	137.695	88.5516	137.695	87.5428	137.695	88.3061	137.695	87.6686	137.695	88.0641	137.695	87.846
143.555	88.6206	143.555	88.4683	143.555	88.7734	143.555	88.3233	143.555	88.9191	143.555	88.1902	143.555	89.0506	143.555	88.0712	143.555	89.162	143.555	87.9656	143.555	89.2491	143.555	87.8703	143.555	89.3095	143.555	87.7817	143.555	89.342	143.555	87.6961	143.555	89.3458	143.555	87.6119	143.555	89.3199	143.555	87.5297	143.555	89.2618	143.555	87.4531	143.555	89.1686	143.555	87.3887	143.555	89.0376	143.555	87.3449	143.555	88.8678	143.555	87.3317	143.555	88.6626	143.555	87.3587	143.555	88.431	143.555	87.4335	143.555	88.1871	143.555	87.5597	143.555	87.9488	143.555	87.7346
149.414	88.7699	149.414	88.606	149.414	88.9266	149.414	88.4422	149.414	89.0685	149.414	88.2839	149.414	89.1888	149.414	88.1342	149.414	89.2823	149.414	87.9939	149.414	89.3456	149.414	87.8613	149.414	89.3774	149.414	87.7342	149.414	89.3781	149.414	87.6109	149.414	89.3483	149.414	87.4912	149.414	89.2886	149.414	87.3775	149.414	89.198	149.414	87.2748	149.414	89.0745	149.414	87.1905	149.414	88.9159	149.414	87.1331	149.414	88.7217	149.414	87.1119	149.414	88.4953	149.414	87.1353	149.414	88.2458	149.414	87.2098	149.414	87.9876	149.414	87.338	149.414	87.7387	149.414	87.5172
155.273	88.9798	155.273	88.8169	155.273	89.1319	155.273	88.6499	155.273	89.2661	155.273	88.4841	155.273	89.3759	155.273	88.3223	155.273	89.4564	155.273	88.1649	155.273	89.5043	155.273	88.0105	155.273	89.5187	155.273	87.8574	155.273	89.4997	155.273	87.7042	155.273	89.4485	155.273	87.552	155.273	89.3654	155.273	87.4044	155.273	89.25	155.273	87.2681	155.273	89.1005	155.273	87.1518	155.273	88.9151	155.273	87.0659	155.273	88.6938	155.273	87.0206	155.273	88.441	155.273	87.0254	155.273	88.1668	155.273	87.0876	155.273	87.8875	155.273	87.2104	155.273	87.6226	155.273	87.3917
158.203	88.9708	158.203	88.8079	158.203	89.1231	158.203	88.641	158.203	89.2575	158.203	88.4753	158.203	89.3674	158.203	88.3133	158.203	89.4478	158.203	88.1552	158.203	89.4955	158.203	87.9994	158.203	89.5096	158.203	87.8437	158.203	89.4906	158.203	87.687	158.203	89.4397	158.203	87.5303	158.203	89.3577	158.203	87.3779	158.203	89.2442	158.203	87.2367	158.203	89.097	158.203	87.1164	158.203	88.9139	158.203	87.0279	158.203	88.6941	158.203	86.9821	158.203	88.441	158.203	86.9886	158.203	88.1646	158.203	87.0547	158.203	87.8807	158.203	87.1833	158.203	87.6096	158.203	87.3716
164.063	88.9337	164.063	88.7614	164.063	89.0945	164.063	88.5849	164.063	89.2357	164.063	88.4102	164.063	89.3501	164.063	88.2405	164.063	89.4319	164.063	88.0762	164.063	89.478	164.063	87.9159	164.063	89.4873	164.063	87.7575	164.063	89.4605	164.063	87.6	164.063	89.3995	164.063	87.4445	164.063	89.3059	164.063	87.2953	164.063	89.1805	164.063	87.1594	164.063	89.0225	164.063	87.0459	164.063	88.8311	164.063	86.9651	164.063	88.6067	164.063	86.9266	164.063	88.3536	164.063	86.9386	164.063	88.0815	164.063	87.0068	164.063	87.8056	164.063	87.1332	164.063	87.5441	164.063	87.3152
169.922	88.7695	169.922	88.616	169.922	88.9115	169.922	88.4582	169.922	89.0342	169.922	88.3018	169.922	89.1308	169.922	88.1496	169.922	89.1963	169.922	88.0017	169.922	89.2284	169.922	87.8562	169.922	89.2274	169.922	87.711	169.922	89.1952	169.922	87.565	169.922	89.1349	169.922	87.4199	169.922	89.049	169.922	87.2801	169.922	88.938	169.922	87.1528	169.922	88.8003	169.922	87.0471	169.922	88.6332	169.922	86.9718	169.922	88.4353	169.922	86.9354	169.922	88.2095	169.922	86.9442	169.922	87.9646	169.922	87.0029	169.922	87.7154	169.922	87.1137	169.922	87.4798	169.922	87.275
175.781	88.6153	175.781	88.4458	175.781	88.7709	175.781	88.2718	175.781	88.903	175.781	88.1006	175.781	89.0035	175.781	87.9366	175.781	89.0667	175.781	87.7806	175.781	89.0901	175.781	87.6313	175.781	89.0745	175.781	87.4862	175.781	89.0233	175.781	87.3444	175.781	88.9416	175.781	87.2072	175.781	88.8343	175.781	87.079	175.781	88.7047	175.781	86.9666	175.781	88.5537	175.781	86.8775	175.781	88.38	175.781	86.8189	175.781	88.1833	175.781	86.796	175.781	87.9663	175.781	86.8123	175.781	87.7371	175.781	86.8701	175.781	87.5088	175.781	86.971	175.781	87.2967	175.781	87.1144
181.641	88.5705	181.641	88.3803	181.641	88.741	181.641	88.18	181.641	88.8821	181.641	87.9776	181.641	88.9858	181.641	87.7781	181.641	89.0466	181.641	87.5833	181.641	89.0621	181.641	87.3926	181.641	89.033	181.641	87.2047	181.641	88.9627	181.641	87.0197	181.641	88.8559	181.641	86.8407	181.641	88.7178	181.641	86.6741	181.641	88.5517	181.641	86.5286	181.641	88.3587	181.641	86.4136	181.641	88.1385	181.641	86.3364	181.641	87.8919	181.641	86.3018	181.641	87.6243	181.641	86.3121	181.641	87.3472	181.641	86.369	181.641	87.0775	181.641	86.4743	181.641	86.8334	181.641	86.6297
190.43	88.5118	190.43	88.3132	190.43	88.6884	190.43	88.1031	190.43	88.8322	190.43	87.8904	190.43	88.9344	190.43	87.6805	190.43	88.9891	190.43	87.4747	190.43	88.9942	190.43	87.2716	190.43	88.9511	190.43	87.0689	190.43	88.8647	190.43	86.8657	190.43	88.742	190.43	86.6646	190.43	88.5898	190.43	86.4726	190.43	88.413	190.43	86.2999	190.43	88.2125	190.43	86.1584	190.43	87.9866	190.43	86.0589	190.43	87.7337	190.43	86.009	190.43	87.4561	190.43	86.0137	190.43	87.1633	190.43	86.0753	190.43	86.8721	190.43	86.1953	190.43	86.6025	190.43	86.3728
196.289	88.4105	196.289	88.1977	196.289	88.5945	196.289	87.9689	196.289	88.738	196.289	87.7358	196.289	88.8321	196.289	87.5076	196.289	88.8719	196.289	87.2894	196.289	88.8565	196.289	87.0828	196.289	88.7894	196.289	86.8877	196.289	88.678	196.289	86.7039	196.289	88.5322	196.289	86.5337	196.289	88.3621	196.289	86.3817	196.289	88.1752	196.289	86.2549	196.289	87.975	196.289	86.1602	196.289	87.7609	196.289	86.1023	196.289	87.5315	196.289	86.0834	196.289	87.2885	196.289	86.1035	196.289	87.04	196.289	86.1622	196.289	86.7996	196.289	86.2608	196.289	86.5826	196.289	86.4011
202.148	88.6344	202.148	88.4186	202.148	88.8085	202.148	88.1718	202.148	88.9323	202.148	87.9045	202.148	88.9995	202.148	87.6265	202.148	89.0075	202.148	87.3456	202.148	88.9579	202.148	87.0685	202.148	88.8561	202.148	86.8012	202.148	88.7112	202.148	86.5507	202.148	88.5343	202.148	86.3254	202.148	88.3361	202.148	86.1348	202.148	88.1239	202.148	85.9871	202.148	87.8997	202.148	85.887	202.148	87.661	202.148	85.8341	202.148	87.4046	202.148	85.8241	202.148	87.1323	202.148	85.8515	202.148	86.854	202.148	85.914	202.148	86.5871	202.148	86.0144	202.148	86.3508	202.148	86.1586
210.938	88.5849	210.938	88.4029	210.938	88.7336	210.938	88.1958	210.938	88.8404	210.938	87.9697	210.938	88.8976	210.938	87.7282	210.938	88.8999	210.938	87.4726	210.938	88.8455	210.938	87.2041	210.938	88.7373	210.938	86.9261	210.938	88.5828	210.938	86.6466	210.938	88.3939	210.938	86.3792	210.938	88.1845	210.938	86.1425	210.938	87.9672	210.938	85.9557	210.938	87.7492	210.938	85.8329	210.938	87.5312	210.938	85.7791	210.938	87.3095	210.938	85.7885	210.938	87.0817	210.938	85.8488	210.938	86.8506	210.938	85.9471	210.938	86.6252	210.938	86.0757	210.938	86.4163	210.938	86.2322
216.797	88.3104	216.797	88.1121	216.797	88.4775	216.797	87.8941	216.797	88.602	216.797	87.6649	216.797	88.674	216.797	87.4296	216.797	88.6872	216.797	87.1896	216.797	88.6398	216.797	86.9445	216.797	88.5355	216.797	86.6954	216.797	88.3831	216.797	86.4475	216.797	88.1961	216.797	86.2117	216.797	87.9895	216.797	86.0036	216.797	87.7758	216.797	85.8399	216.797	87.5612	216.797	85.7329	216.797	87.3449	216.797	85.6862	216.797	87.1227	216.797	85.6936	216.797	86.893	216.797	85.7437	216.797	86.661	216.797	85.8256	216.797	86.4388	216.797	85.9343	216.797	86.2395	216.797	86.0712
225.586	88.3862	225.586	88.1666	225.586	88.5627	225.586	87.9156	225.586	88.6839	225.586	87.6428	225.586	88.7392	225.586	87.3547	225.586	88.7213	225.586	87.055	225.586	88.6278	225.586	86.747	225.586	88.4619	225.586	86.4367	225.586	88.2344	225.586	86.1358	225.586	87.963	225.586	85.8624	225.586	87.6708	225.586	85.6385	225.586	87.381	225.586	85.4836	225.586	87.1104	225.586	85.4072	225.586	86.8655	225.586	85.4041	225.586	86.6438	225.586	85.4558	225.586	86.4403	225.586	85.5388	225.586	86.2542	225.586	85.6333	225.586	86.0895	225.586	85.7304	225.586	85.9497	225.586	85.8328
234.375	88.3043	234.375	88.0783	234.375	88.4912	234.375	87.8259	234.375	88.625	234.375	87.5564	234.375	88.6932	234.375	87.2734	234.375	88.687	234.375	86.9765	234.375	88.6028	234.375	86.6644	234.375	88.4427	234.375	86.3396	234.375	88.2156	234.375	86.0134	234.375	87.9371	234.375	85.7074	234.375	87.6285	234.375	85.4508	234.375	87.3118	234.375	85.2719	234.375	87.0054	234.375	85.1864	234.375	86.7193	234.375	85.189	234.375	86.4571	234.375	85.2551	234.375	86.2208	234.375	85.3517	234.375	86.016	234.375	85.4511	234.375	85.8494	234.375	85.5408	234.375	85.7225	234.375	85.6256
240.234	88.1587	240.234	87.9077	240.234	88.3672	240.234	87.6295	240.234	88.5173	240.234	87.335	240.234	88.5947	240.234	87.0287	240.234	88.5893	240.234	86.7089	240.234	88.4962	240.234	86.3722	240.234	88.3165	240.234	86.0186	240.234	88.058	240.234	85.6583	240.234	87.7362	240.234	85.3144	240.234	87.3733	240.234	85.0211	240.234	86.9942	240.234	84.8131	240.234	86.6213	240.234	84.7107	240.234	86.2697	240.234	84.7079	240.234	85.9483	240.234	84.7739	240.234	85.6649	240.234	84.8672	240.234	85.4308	240.234	84.9536	240.234	85.2568	240.234	85.0193	240.234	85.1434	240.234	85.0738
249.023	88.2689	249.023	87.9821	249.023	88.501	249.023	87.6548	249.023	88.6646	249.023	87.2983	249.023	88.7485	249.023	86.9181	249.023	88.7454	249.023	86.5136	249.023	88.6522	249.023	86.0807	249.023	88.4701	249.023	85.6171	249.023	88.2055	249.023	85.1292	249.023	87.8695	249.023	84.6378	249.023	87.4771	249.023	84.1784	249.023	87.0438	249.023	83.7944	249.023	86.5817	249.023	83.5206	249.023	86.0966	249.023	83.3665	249.023	85.592	249.023	83.3113	249.023	85.0783	249.023	83.3192	249.023	84.5815	249.023	83.3623	249.023	84.1428	249.023	83.4386	249.023	83.8017	249.023	83.5732
257.813	88.2986	257.813	88.0808	257.813	88.4775	257.813	87.8352	257.813	88.6043	257.813	87.5677	257.813	88.6669	257.813	87.2765	257.813	88.6568	257.813	86.9534	257.813	88.5699	257.813	86.5882	257.813	88.4078	257.813	86.175	257.813	88.1782	257.813	85.7194	257.813	87.8951	257.813	85.2435	257.813	87.5775	257.813	84.7875	257.813	87.2448	257.813	84.403	257.813	86.9109	257.813	84.1366	257.813	86.5801	257.813	84.0105	257.813	86.2483	257.813	84.013	257.813	85.9114	257.813	84.1098	257.813	85.5725	257.813	84.2649	257.813	85.2449	257.813	84.4571	257.813	84.9447	257.813	84.6822
266.602	87.6086	266.602	87.3209	266.602	87.866	266.602	87.0296	266.602	88.0663	266.602	86.7535	266.602	88.1877	266.602	86.4964	266.602	88.2155	266.602	86.2462	266.602	88.1422	266.602	85.9811	266.602	87.9668	266.602	85.68	266.602	87.6955	266.602	85.3333	266.602	87.3429	266.602	84.9504	266.602	86.9318	266.602	84.5619	266.602	86.4924	266.602	84.2153	266.602	86.0566	266.602	83.9609	266.602	85.6511	266.602	83.8307	266.602	85.294	266.602	83.8232	266.602	84.9942	266.602	83.9056	266.602	84.7541	266.602	84.0327	266.602	84.5686	266.602	84.1681	266.602	84.4231	266.602	84.2962
278.32	87.4429	278.32	87.1578	278.32	87.671	278.32	86.832	278.32	87.8276	278.32	86.4803	278.32	87.9028	278.32	86.1128	278.32	87.8927	278.32	85.7337	278.32	87.7999	278.32	85.3443	278.32	87.6335	278.32	84.9489	278.32	87.4087	278.32	84.5613	278.32	87.1438	278.32	84.2086	278.32	86.8546	278.32	83.9271	278.32	86.5471	278.32	83.7494	278.32	86.214	278.32	83.686	278.32	85.8393	278.32	83.715	278.32	85.4137	278.32	83.7891	278.32	84.9533	278.32	83.8567	278.32	84.5095	278.32	83.8843	278.32	84.1553	278.32	83.8744	278.32	83.9442	278.32	83.8705
287.109	87.5786	287.109	87.3026	287.109	87.7983	287.109	86.9912	287.109	87.941	287.109	86.6598	287.109	87.9911	287.109	86.3129	287.109	87.9401	287.109	85.9445	287.109	87.7885	287.109	85.5435	287.109	87.5465	287.109	85.104	287.109	87.2357	287.109	84.636	287.109	86.8878	287.109	84.1724	287.109	86.5391	287.109	83.7676	287.109	86.2172	287.109	83.4814	287.109	85.9271	287.109	83.35	287.109	85.6481	287.109	83.3633	287.109	85.3501	287.109	83.4694	287.109	85.0179	287.109	83.6045	287.109	84.6683	287.109	83.7247	287.109	84.346	287.109	83.8238	287.109	84.0963	287.109	83.932
295.898	87.6412	295.898	87.3248	295.898	87.8971	295.898	86.9755	295.898	88.0653	295.898	86.6134	295.898	88.1244	295.898	86.243	295.898	88.0615	295.898	85.8517	295.898	87.8715	295.898	85.4171	295.898	87.5595	295.898	84.9197	295.898	87.1421	295.898	84.3581	295.898	86.6517	295.898	83.7619	295.898	86.1354	295.898	83.1977	295.898	85.6442	295.898	82.7582	295.898	85.2118	295.898	82.522	295.898	84.8375	295.898	82.5036	295.898	84.4939	295.898	82.6403	295.898	84.1572	295.898	82.8344	295.898	83.8333	295.898	83.0084	295.898	83.5565	295.898	83.1337	295.898	83.3583	295.898	83.2326
307.617	87.2516	307.617	86.8347	307.617	87.5931	307.617	86.3814	307.617	87.8297	307.617	85.9313	307.617	87.9435	307.617	85.5108	307.617	87.926	307.617	85.1215	307.617	87.776	307.617	84.741	307.617	87.4979	307.617	84.3373	307.617	87.1014	307.617	83.889	307.617	86.6036	307.617	83.4016	307.617	86.0298	307.617	82.9151	307.617	85.4105	307.617	82.4978	307.617	84.7747	307.617	82.2181	307.617	84.1441	307.617	82.1039	307.617	83.5368	307.617	82.1205	307.617	82.9842	307.617	82.1906	307.617	82.5402	307.617	82.239	307.617	82.2612	307.617	82.2287	307.617	82.1593	307.617	82.1786
319.336	88.6418	319.336	88.2673	319.336	88.9225	319.336	87.8218	319.336	89.0914	319.336	87.329	319.336	89.1373	319.336	86.8065	319.336	89.055	319.336	86.2605	319.336	88.8437	319.336	85.6851	319.336	88.5076	319.336	85.0696	319.336	88.0572	319.336	84.4101	319.336	87.5131	319.336	83.7223	319.336	86.9072	319.336	83.0489	319.336	86.2768	319.336	82.4553	319.336	85.6494	319.336	82.0049	319.336	85.0253	319.336	81.7221	319.336	84.3794	319.336	81.5746	319.336	83.688	319.336	81.4974	319.336	82.9667	319.336	81.4418	319.336	82.2928	319.336	81.4171	319.336	81.7797	319.336	81.498
331.055	87.8217	331.055	87.3707	331.055	88.1978	331.055	86.8774	331.055	88.4745	331.055	86.3739	331.055	88.6376	331.055	85.8796	331.055	88.6821	331.055	85.3908	331.055	88.609	331.055	84.8834	331.055	88.4237	331.055	84.3272	331.055	88.1357	331.055	83.7063	331.055	87.7579	331.055	83.037	331.055	87.3064	331.055	82.3771	331.055	86.7952	331.055	81.8185	331.055	86.2303	331.055	81.4491	331.055	85.6068	331.055	81.2985	331.055	84.9159	331.055	81.3165	331.055	84.1647	331.055	81.4141	331.055	83.3972	331.055	81.5248	331.055	82.6991	331.055	81.643	331.055	82.1634	331.055	81.8271
342.773	89.1733	342.773	88.7714	342.773	89.4702	342.773	88.2915	342.773	89.6448	342.773	87.7657	342.773	89.6905	342.773	87.2215	342.773	89.6102	342.773	86.6719	342.773	89.4147	342.773	86.1123	342.773	89.1221	342.773	85.5268	342.773	88.7577	342.773	84.9047	342.773	88.3523	342.773	84.2573	342.773	87.9371	342.773	83.6306	342.773	87.5307	342.773	83.1027	342.773	87.1275	342.773	82.7571	342.773	86.6976	342.773	82.6349	342.773	86.2051	342.773	82.7056	342.773	85.6372	342.773	82.8894	342.773	85.0248	342.773	83.1106	342.773	84.44	342.773	83.3395	342.773	83.9572	342.773	83.6025
354.492	88.9791	354.492	88.7094	354.492	89.1592	354.492	88.3727	354.492	89.2327	354.492	87.9908	354.492	89.1914	354.492	87.5762	354.492	89.0361	354.492	87.1265	354.492	88.7753	354.492	86.6267	354.492	88.4251	354.492	86.0602	354.492	88.0098	354.492	85.4246	354.492	87.5627	354.492	84.748	354.492	87.1207	354.492	84.0987	354.492	86.7102	354.492	83.5776	354.492	86.3299	354.492	83.2766	354.492	85.948	354.492	83.2179	354.492	85.5249	354.492	83.3336	354.492	85.0501	354.492	83.5109	354.492	84.568	354.492	83.6575	354.492	84.1651	354.492	83.7406	354.492	83.9109	354.492	83.7963
366.211	88.6979	366.211	88.4271	366.211	88.8807	366.211	88.0964	366.211	88.9537	366.211	87.7301	366.211	88.9056	366.211	87.3381	366.211	88.736	366.211	86.9089	366.211	88.4542	366.211	86.4149	366.211	88.0789	366.211	85.8266	366.211	87.6399	366.211	85.1315	366.211	87.1794	366.211	84.3516	366.211	86.7436	366.211	83.5593	366.211	86.3599	366.211	82.8766	366.211	86.0099	366.211	82.4314	366.211	85.6274	366.211	82.2718	366.211	85.1345	366.211	82.3208	366.211	84.4946	366.211	82.4338	366.211	83.7589	366.211	82.4951	366.211	83.0781	366.211	82.4785	366.211	82.6298	366.211	82.4689
377.93	88.307	377.93	87.9929	377.93	88.5509	377.93	87.6581	377.93	88.6889	377.93	87.3487	377.93	88.7037	377.93	87.0823	377.93	88.5938	377.93	86.835	377.93	88.3691	377.93	86.5515	377.93	88.0483	377.93	86.1733	377.93	87.6607	377.93	85.6638	377.93	87.248	377.93	85.0254	377.93	86.861	377.93	84.3092	377.93	86.5384	377.93	83.6181	377.93	86.2774	377.93	83.0822	377.93	86.0229	377.93	82.794	377.93	85.6964	377.93	82.7434	377.93	85.2458	377.93	82.8325	377.93	84.6836	377.93	82.9605	377.93	84.0963	377.93	83.0936	377.93	83.6047	377.93	83.2805
392.578	87.8677	392.578	87.5934	392.578	88.0489	392.578	87.2636	392.578	88.1157	392.578	86.9243	392.578	88.0631	392.578	86.6106	392.578	87.8984	392.578	86.3271	392.578	87.638	392.578	86.0422	392.578	87.3056	392.578	85.7062	392.578	86.9343	392.578	85.278	392.578	86.5655	392.578	84.7476	392.578	86.2395	392.578	84.1487	392.578	85.972	392.578	83.56	392.578	85.7325	392.578	83.0858	392.578	85.4527	392.578	82.8063	392.578	85.0658	392.578	82.724	392.578	84.5538	392.578	82.764	392.578	83.9758	392.578	82.8329	392.578	83.455	392.578	82.8825	392.578	83.1056	392.578	82.9425
407.227	87.627	407.227	87.3108	407.227	87.8429	407.227	86.946	407.227	87.9275	407.227	86.5935	407.227	87.8714	407.227	86.297	407.227	87.6828	407.227	86.0577	407.227	87.3837	407.227	85.8328	407.227	87.0104	407.227	85.561	407.227	86.6161	407.227	85.1959	407.227	86.2693	407.227	84.7271	407.227	86.0299	407.227	84.1887	407.227	85.9023	407.227	83.6561	407.227	85.8089	407.227	83.2227	407.227	85.6218	407.227	82.9535	407.227	85.2305	407.227	82.8387	407.227	84.6004	407.227	82.7987	407.227	83.814	407.227	82.7405	407.227	83.0798	407.227	82.6271	407.227	82.632	407.227	82.5313
421.875	86.6215	421.875	86.3447	421.875	86.791	421.875	86.0312	421.875	86.8157	421.875	85.7719	421.875	86.6883	421.875	85.6391	421.875	86.4268	421.875	85.6423	421.875	86.0747	421.875	85.7246	421.875	85.7104	421.875	85.804	421.875	85.4549	421.875	85.8188	421.875	85.4441	421.875	85.7465	421.875	85.7366	421.875	85.6003	421.875	86.2363	421.875	85.4145	421.875	86.743	421.875	85.2264	421.875	87.0674	421.875	85.0588	421.875	87.0944	421.875	84.9112	421.875	86.795	421.875	84.7691	421.875	86.2276	421.875	84.6306	421.875	85.5418	421.875	84.5422	421.875	84.9484	421.875	84.6117
436.523	87.7146	436.523	87.1982	436.523	87.9926	436.523	86.4794	436.523	88.0173	436.523	85.6332	436.523	87.7813	436.523	84.7865	436.523	87.2728	436.523	84.1022	436.523	86.4693	436.523	83.7147	436.523	85.3454	436.523	83.6576	436.523	83.9355	436.523	83.8699	436.523	82.5491	436.523	84.263	436.523	82.0394	436.523	84.7628	436.523	82.9705	436.523	85.3093	436.523	84.5559	436.523	85.8453	436.523	85.9359	436.523	86.3142	436.523	86.8211	436.523	86.6661	436.523	87.2105	436.523	86.8687	436.523	87.2208	436.523	86.921	436.523	87.0372	436.523	86.8696	436.523	86.8615	436.523	86.8133
451.172	89.0442	451.172	88.6466	451.172	89.2606	451.172	88.0869	451.172	89.2852	451.172	87.3919	451.172	89.1114	451.172	86.5913	451.172	88.7293	451.172	85.7113	451.172	88.1163	451.172	84.7792	451.172	87.2315	451.172	83.8503	451.172	86.0235	451.172	83.0546	451.172	84.4829	451.172	82.611	451.172	82.8217	451.172	82.7054	451.172	81.7773	451.172	83.2936	451.172	82.1052	451.172	84.1248	451.172	83.2745	451.172	84.9439	451.172	84.3771	451.172	85.5934	451.172	85.0818	451.172	86.0023	451.172	85.4256	451.172	86.1586	451.172	85.5813	451.172	86.1007	451.172	85.7231	451.172	85.9174
465.82	88.8304	465.82	88.42	465.82	89.1019	465.82	87.9075	465.82	89.2073	465.82	87.3276	465.82	89.1315	465.82	86.6933	465.82	88.8651	465.82	85.9829	465.82	88.3935	465.82	85.149	465.82	87.6847	465.82	84.1556	465.82	86.6875	465.82	83.0445	465.82	85.3559	465.82	82.0322	465.82	83.7503	465.82	81.5358	465.82	82.2933	465.82	81.8485	465.82	81.8547	465.82	82.7485	465.82	82.6328	465.82	83.7804	465.82	83.763	465.82	84.6481	465.82	84.6287	465.82	85.239	465.82	85.1176	465.82	85.5452	465.82	85.3414	465.82	85.6204	465.82	85.4584	465.82	85.5595
483.398	88.6696	483.398	88.2344	483.398	88.9651	483.398	87.7158	483.398	89.0944	483.398	87.1856	483.398	89.054	483.398	86.6898	483.398	88.8492	483.398	86.2035	483.398	88.478	483.398	85.6303	483.398	87.9206	483.398	84.8498	483.398	87.1392	483.398	83.777	483.398	86.0977	483.398	82.4326	483.398	84.8108	483.398	81.0869	483.398	83.4379	483.398	80.3948	483.398	82.3655	483.398	80.8669	483.398	81.9946	483.398	82.0791	483.398	82.2741	483.398	83.3339	483.398	82.8339	483.398	84.292	483.398	83.4382	483.398	84.8644	483.398	84.0231	483.398	85.0589	483.398	84.547	483.398	84.9259
500.977	88.5022	500.977	87.9452	500.977	88.8865	500.977	87.2935	500.977	89.0685	500.977	86.6713	500.977	89.0491	500.977	86.1918	500.977	88.842	500.977	85.8627	500.977	88.4576	500.977	85.5604	500.977	87.8899	500.977	85.1145	500.977	87.1145	500.977	84.4005	500.977	86.1079	500.977	83.391	500.977	84.8987	500.977	82.2169	500.977	83.6563	500.977	81.2591	500.977	82.7314	500.977	81.0332	500.977	82.4162	500.977	81.6222	500.977	82.5978	500.977	82.5612	500.977	82.952	500.977	83.411	500.977	83.3045	500.977	83.9779	500.977	83.6408	500.977	84.2232	500.977	83.9578	500.977	84.1872
518.555	88.3745	518.555	88.0327	518.555	88.4689	518.555	87.4531	518.555	88.3412	518.555	86.7108	518.555	88.0292	518.555	85.968	518.555	87.572	518.555	85.4203	518.555	87.0086	518.555	85.1414	518.555	86.3865	518.555	84.9959	518.555	85.7712	518.555	84.7602	518.555	85.2384	518.555	84.2728	518.555	84.8213	518.555	83.4955	518.555	84.4471	518.555	82.5601	518.555	83.9551	518.555	81.8326	518.555	83.2321	518.555	81.7653	518.555	82.4136	518.555	82.395	518.555	82.0082	518.555	83.295	518.555	82.432	518.555	84.0676	518.555	83.3396	518.555	84.5145	518.555	84.1405	518.555	84.55
536.133	88.9535	536.133	88.5914	536.133	88.9948	536.133	87.9001	536.133	88.74	536.133	86.9137	536.133	88.2189	536.133	85.7619	536.133	87.4582	536.133	84.7243	536.133	86.4774	536.133	84.1303	536.133	85.3049	536.133	84.0295	536.133	84.045	536.133	84.1154	536.133	82.9958	536.133	84.0535	536.133	82.5794	536.133	83.6868	536.133	82.8166	536.133	83.0627	536.133	83.1872	536.133	82.4617	536.133	83.2216	536.133	82.3299	536.133	82.8281	536.133	82.8544	536.133	82.3533	536.133	83.7014	536.133	82.415	536.133	84.4261	536.133	83.1541	536.133	84.773	536.133	84.0498	536.133	84.6452
553.711	88.5275	553.711	88.2874	553.711	88.5309	553.711	87.7773	553.711	88.3336	553.711	86.9759	553.711	87.9704	553.711	85.9022	553.711	87.4669	553.711	84.6766	553.711	86.8279	553.711	83.5805	553.711	86.033	553.711	82.9445	553.711	85.052	553.711	82.8001	553.711	83.894	553.711	82.8274	553.711	82.7079	553.711	82.7157	553.711	81.8638	553.711	82.3715	553.711	81.6929	553.711	81.9323	553.711	81.9859	553.711	81.6998	553.711	82.226	553.711	81.8944	553.711	82.1456	553.711	82.3876	553.711	81.8785	553.711	82.8349	553.711	81.828	553.711	82.9675	553.711	82.1988	553.711	82.705
574.219	88.7989	574.219	88.599	574.219	88.7351	574.219	88.1239	574.219	88.4331	574.219	87.3776	574.219	87.9284	574.219	86.38	574.219	87.2621	574.219	85.1811	574.219	86.4763	574.219	83.9025	574.219	85.6089	574.219	82.7825	574.219	84.6852	574.219	82.0918	574.219	83.7093	574.219	81.8697	574.219	82.677	574.219	81.8678	574.219	81.6604	574.219	81.8381	574.219	80.9545	574.219	81.7399	574.219	80.9299	574.219	81.729	574.219	81.433	574.219	81.9713	574.219	81.9064	574.219	82.4104	574.219	82.0806	574.219	82.7925	574.219	82.1238	574.219	82.8944	574.219	82.3273	574.219	82.6769
594.727	88.9277	594.727	88.684	594.727	88.8845	594.727	88.1954	594.727	88.5476	594.727	87.5281	594.727	87.9433	594.727	86.7452	594.727	87.1248	594.727	85.8689	594.727	86.1713	594.727	84.8731	594.727	85.2065	594.727	83.7276	594.727	84.4086	594.727	82.4758	594.727	83.9058	594.727	81.2961	594.727	83.5664	594.727	80.4604	594.727	82.9943	594.727	80.1506	594.727	81.7939	594.727	80.3472	594.727	79.9991	594.727	80.9283	594.727	79.0358	594.727	81.7401	594.727	80.3492	594.727	82.5929	594.727	82.1892	594.727	83.3093	594.727	83.3735	594.727	83.7866	594.727	83.9025	594.727	83.9955
615.234	89.2423	615.234	88.953	615.234	89.2289	615.234	88.3673	615.234	88.9466	615.234	87.5586	615.234	88.4365	615.234	86.6633	615.234	87.7203	615.234	85.8166	615.234	86.7971	615.234	85.0595	615.234	85.6796	615.234	84.3356	615.234	84.4762	615.234	83.5981	615.234	83.4797	615.234	82.8894	615.234	83.0193	615.234	82.3113	615.234	83.0052	615.234	81.9407	615.234	82.9541	615.234	81.8241	615.234	82.5304	615.234	82.0376	615.234	81.8918	615.234	82.6235	615.234	81.7375	615.234	83.4406	615.234	82.4876	615.234	84.2134	615.234	83.5847	615.234	84.7093	615.234	84.4223	615.234	84.7989
638.672	90.899	638.672	90.5676	638.672	90.8601	638.672	89.845	638.672	90.4963	638.672	88.7568	638.672	89.8665	638.672	87.4128	638.672	89.0309	638.672	86.0286	638.672	88.0304	638.672	84.845	638.672	86.8739	638.672	83.9518	638.672	85.5707	638.672	83.2686	638.672	84.2277	638.672	82.7313	638.672	83.1319	638.672	82.3849	638.672	82.5402	638.672	82.3122	638.672	82.2609	638.672	82.5746	638.672	81.8378	638.672	83.2152	638.672	81.1638	638.672	84.1857	638.672	80.9474	638.672	85.2659	638.672	82.103	638.672	86.156	638.672	84.0003	638.672	86.6068	638.672	85.5748	638.672	86.4479
659.18	90.6482	659.18	90.4659	659.18	90.4605	659.18	89.881	659.18	89.9764	659.18	88.9283	659.18	89.2858	659.18	87.7419	659.18	88.4594	659.18	86.5534	659.18	87.5129	659.18	85.5615	659.18	86.4071	659.18	84.747	659.18	85.1193	659.18	83.9193	659.18	83.7938	659.18	82.9406	659.18	82.8311	659.18	81.855	659.18	82.4658	659.18	80.9215	659.18	82.2333	659.18	80.5957	659.18	81.486	659.18	81.2331	659.18	80.1495	659.18	82.5761	659.18	79.3804	659.18	83.9798	659.18	80.5167	659.18	84.9747	659.18	82.459	659.18	85.3503	659.18	84.0601	659.18	85.0427
682.617	90.3893	682.617	90.2849	682.617	90.1905	682.617	89.7919	682.617	89.7956	682.617	88.8694	682.617	89.3047	682.617	87.5692	682.617	88.7611	682.617	86.1109	682.617	88.1057	682.617	84.8584	682.617	87.1932	682.617	83.9961	682.617	85.8843	682.617	83.3109	682.617	84.2436	682.617	82.5545	682.617	82.882	682.617	81.7773	682.617	82.6085	682.617	81.2271	682.617	82.911	682.617	81.0534	682.617	82.6785	682.617	81.3358	682.617	81.48	682.617	82.2203	682.617	79.908	682.617	83.551	682.617	80.1078	682.617	84.7949	682.617	82.2778	682.617	85.4857	682.617	84.283	682.617	85.3614
706.055	90.8275	706.055	90.8347	706.055	90.468	706.055	90.3776	706.055	89.8948	706.055	89.3734	706.055	89.2498	706.055	87.7995	706.055	88.6157	706.055	85.8444	706.055	87.9573	706.055	84.1952	706.055	87.1212	706.055	83.6149	706.055	85.8841	706.055	83.6219	706.055	84.0411	706.055	83.2328	706.055	81.747	706.055	82.0023	706.055	80.4501	706.055	80.0514	706.055	81.202	706.055	78.5688	706.055	81.9015	706.055	79.3582	706.055	80.9326	706.055	81.5079	706.055	77.2726	706.055	83.527	706.055	73.5279	706.055	84.9572	706.055	79.4815	706.055	85.6051	706.055	83.455	706.055	85.2356
732.422	89.2943	732.422	89.6635	732.422	88.6833	732.422	89.6925	732.422	87.95	732.422	89.2864	732.422	87.2336	732.422	88.3467	732.422	86.6499	732.422	86.804	732.422	86.225	732.422	84.7553	732.422	85.8717	732.422	82.8172	732.422	85.4208	732.422	82.0581	732.422	84.6571	732.422	82.3502	732.422	83.3479	732.422	82.5816	732.422	81.408	732.422	82.1451	732.422	79.7126	732.422	80.8252	732.422	80.2004	732.422	78.6306	732.422	81.5829	732.422	76.7683	732.422	81.6605	732.422	77.7968	732.422	79.4902	732.422	79.8005	732.422	74.5426	732.422	80.4412	732.422	74.6848	732.422	78.9381
758.789	90.4027	758.789	90.7838	758.789	89.8384	758.789	90.8575	758.789	89.2675	758.789	90.5572	758.789	88.8169	758.789	89.8315	758.789	88.4517	758.789	88.6157	758.789	88.0078	758.789	86.8603	758.789	87.3252	758.789	84.671	758.789	86.3588	758.789	82.6455	758.789	85.2482	758.789	81.844	758.789	84.2283	758.789	82.237	758.789	83.2907	758.789	82.7232	758.789	82.3133	758.789	82.6464	758.789	81.9942	758.789	81.9516	758.789	82.9524	758.789	81.2968	758.789	83.8083	758.789	81.7305	758.789	83.4179	758.789	82.8019	758.789	82.0067	758.789	83.2477	758.789	81.5043	758.789	82.5779
785.156	91.0105	785.156	91.3953	785.156	90.4	785.156	91.4426	785.156	89.7428	785.156	91.129	785.156	89.1974	785.156	90.4899	785.156	88.8007	785.156	89.5746	785.156	88.4382	785.156	88.4169	785.156	87.9001	785.156	87.0447	785.156	86.9998	785.156	85.5322	785.156	85.7452	785.156	84.0827	785.156	84.4614	785.156	83.032	785.156	83.4095	785.156	82.5175	785.156	82.2292	785.156	82.1776	785.156	80.9454	785.156	81.599	785.156	81.0538	785.156	81.0055	785.156	82.0212	785.156	81.3094	785.156	81.8076	785.156	82.4003	785.156	80.4235	785.156	82.9649	785.156	80.5071	785.156	82.2046
811.523	90.7069	811.523	91.262	811.523	89.8986	811.523	91.3561	811.523	89.1269	811.523	90.9069	811.523	88.6333	811.523	89.9687	811.523	88.4603	811.523	88.7417	811.523	88.4259	811.523	87.5088	811.523	88.214	811.523	86.4275	811.523	87.5046	811.523	85.4029	811.523	86.13	811.523	84.3042	811.523	84.3629	811.523	83.2776	811.523	83.1399	811.523	82.6731	811.523	82.7921	811.523	82.4151	811.523	82.3515	811.523	81.9841	811.523	81.5007	811.523	81.2944	811.523	81.0893	811.523	81.1886	811.523	81.3429	811.523	82.0054	811.523	81.4211	811.523	82.555	811.523	81.5293	811.523	82.1857
840.82	90.2873	840.82	90.8694	840.82	89.6473	840.82	91.1734	840.82	89.1062	840.82	91.0004	840.82	88.7173	840.82	90.2246	840.82	88.4537	840.82	88.8404	840.82	88.2341	840.82	87.0996	840.82	87.9495	840.82	85.6618	840.82	87.5184	840.82	85.0618	840.82	86.9302	840.82	84.8961	840.82	86.1554	840.82	84.5524	840.82	84.8979	840.82	83.8901	840.82	82.5138	840.82	83.0783	840.82	78.8501	840.82	82.2957	840.82	78.5541	840.82	81.7179	840.82	81.0855	840.82	81.67	840.82	81.4788	840.82	82.0382	840.82	79.7314	840.82	81.9422	840.82	78.7588	840.82	80.6112
870.117	90.2432	870.117	90.5961	870.117	89.7079	870.117	90.657	870.117	89.1742	870.117	90.3624	870.117	88.8087	870.117	89.6439	870.117	88.6095	870.117	88.4022	870.117	88.3842	870.117	86.527	870.117	87.8194	870.117	84.0843	870.117	86.6258	870.117	82.0285	870.117	84.9576	870.117	82.0638	870.117	84.1183	870.117	83.2692	870.117	84.7521	870.117	83.9735	870.117	85.0524	870.117	83.7302	870.117	83.7287	870.117	82.6776	870.117	80.7225	870.117	81.5915	870.117	79.7805	870.117	81.5632	870.117	81.7096	870.117	81.9968	870.117	81.8585	870.117	81.5049	870.117	80.2845	870.117	80.0775
902.344	90.2631	902.344	90.6403	902.344	89.6743	902.344	90.652	902.344	89.061	902.344	90.256	902.344	88.5507	902.344	89.4962	902.344	88.2094	902.344	88.4234	902.344	88.0246	902.344	87.0531	902.344	87.7768	902.344	85.3706	902.344	87.0645	902.344	83.4011	902.344	85.6142	902.344	81.6005	902.344	83.8175	902.344	81.2226	902.344	82.9577	902.344	82.2164	902.344	82.9126	902.344	82.8822	902.344	82.1422	902.344	82.2552	902.344	80.6636	902.344	80.2017	902.344	80.9014	902.344	78.4668	902.344	82.2583	902.344	79.5864	902.344	82.219	902.344	80.7519	902.344	81.0534	902.344	80.7135
931.641	90.2782	931.641	90.6479	931.641	89.725	931.641	90.5543	931.641	89.2503	931.641	89.8973	931.641	88.8881	931.641	88.805	931.641	88.5488	931.641	87.5699	931.641	88.2036	931.641	86.3566	931.641	87.7287	931.641	84.8876	931.641	86.6833	931.641	82.6886	931.641	84.5909	931.641	80.1325	931.641	82.4047	931.641	80.1409	931.641	83.228	931.641	82.3193	931.641	84.5666	931.641	83.6004	931.641	83.7259	931.641	83.3271	931.641	80.3508	931.641	81.7252	931.641	79.6389	931.641	80.3675	931.641	82.4401	931.641	80.8685	931.641	82.592	931.641	81.1356	931.641	80.7123	931.641	80.2347
966.797	90.0665	966.797	90.3096	966.797	89.7468	966.797	90.1715	966.797	89.486	966.797	89.4355	966.797	89.1683	966.797	88.0892	966.797	88.6728	966.797	86.3992	966.797	88.1007	966.797	84.9042	966.797	87.5888	966.797	83.8055	966.797	86.7756	966.797	82.5289	966.797	84.8639	966.797	80.4608	966.797	81.4001	966.797	78.0803	966.797	79.359	966.797	78.4756	966.797	81.2795	966.797	80.8024	966.797	81.9686	966.797	81.8067	966.797	80.2494	966.797	80.7842	966.797	79.0806	966.797	78.513	966.797	81.78	966.797	78.0383	966.797	82.6886	966.797	78.6064	966.797	80.8764	966.797	78.775
999.023	89.2411	999.023	89.3493	999.023	89.0853	999.023	89.1808	999.023	88.9072	999.023	88.4408	999.023	88.662	999.023	87.0845	999.023	88.2067	999.023	85.4042	999.023	87.5288	999.023	83.8573	999.023	86.9796	999.023	82.7149	999.023	86.4097	999.023	81.7497	999.023	84.8413	999.023	80.4945	999.023	81.5422	999.023	79.3823	999.023	79.6075	999.023	80.2388	999.023	82.085	999.023	81.9937	999.023	82.5504	999.023	82.2999	999.023	78.7928	999.023	80.3506	999.023	75.0059	999.023	76.79	999.023	81.1181	999.023	76.4356	999.023	82.5176	999.023	77.8544	999.023	80.6044	999.023	78.3512
1,034.18	88.2815	1,034.18	88.5742	1,034.18	88.5531	1,034.18	88.905	1,034.18	89.0433	1,034.18	88.5332	1,034.18	89.0847	1,034.18	87.0894	1,034.18	88.3334	1,034.18	84.7632	1,034.18	87.0654	1,034.18	82.6781	1,034.18	86.128	1,034.18	81.653	1,034.18	85.5031	1,034.18	80.1489	1,034.18	83.8889	1,034.18	76.4922	1,034.18	80.0638	1,034.18	75.5936	1,034.18	78.9521	1,034.18	80.4029	1,034.18	82.7144	1,034.18	82.8394	1,034.18	83.3611	1,034.18	82.7649	1,034.18	79.7691	1,034.18	80.1339	1,034.18	74.5897	1,034.18	74.2919	1,034.18	82.0475	1,034.18	67.8147	1,034.18	84.4038	1,034.18	69.6658	1,034.18	82.7639	1,034.18	77.329
1,072.27	87.8915	1,072.27	87.7375	1,072.27	88.4814	1,072.27	87.9803	1,072.27	89.0762	1,072.27	87.9807	1,072.27	89.0614	1,072.27	87.07	1,072.27	87.9734	1,072.27	85.0167	1,072.27	85.9966	1,072.27	82.4893	1,072.27	84.5113	1,072.27	81.3682	1,072.27	84.4111	1,072.27	81.104	1,072.27	83.9564	1,072.27	78.9645	1,072.27	80.7685	1,072.27	72.1414	1,072.27	71.6191	1,072.27	74.5795	1,072.27	80.4233	1,072.27	80.5743	1,072.27	83.9482	1,072.27	82.4336	1,072.27	81.8667	1,072.27	82.027	1,072.27	62.8	1,072.27	80.1704	1,072.27	81.1237	1,072.27	77.7896	1,072.27	85.0878	1,072.27	77.6087	1,072.27	84.3353	1,072.27	80.9753
1,110.35	87.7266	1,110.35	86.9721	1,110.35	88.6357	1,110.35	86.9387	1,110.35	89.1947	1,110.35	87.2577	1,110.35	89.0392	1,110.35	86.901	1,110.35	87.8674	1,110.35	85.3239	1,110.35	85.5569	1,110.35	82.6216	1,110.35	82.725	1,110.35	80.6714	1,110.35	81.6581	1,110.35	81.0814	1,110.35	82.1802	1,110.35	80.3876	1,110.35	80.8901	1,110.35	75.6152	1,110.35	74.2924	1,110.35	54.1309	1,110.35	75.6638	1,110.35	75.8929	1,110.35	81.6289	1,110.35	79.911	1,110.35	81.8657	1,110.35	80.5819	1,110.35	75.1757	1,110.35	79.3823	1,110.35	73.9186	1,110.35	78.0457	1,110.35	82.5892	1,110.35	79.0313	1,110.35	83.7864	1,110.35	81.883
1,148.44	88.1303	1,148.44	86.9519	1,148.44	88.9361	1,148.44	85.8279	1,148.44	89.2901	1,148.44	85.7168	1,148.44	89.0113	1,148.44	86.043	1,148.44	87.8827	1,148.44	85.3826	1,148.44	85.7184	1,148.44	82.975	1,148.44	82.4651	1,148.44	79.4442	1,148.44	79.983	1,148.44	80.2489	1,148.44	81.1063	1,148.44	81.8397	1,148.44	80.9948	1,148.44	80.0294	1,148.44	73.9699	1,148.44	70.8713	1,148.44	74.7625	1,148.44	72.7648	1,148.44	83.0648	1,148.44	80.1333	1,148.44	84.2643	1,148.44	82.1447	1,148.44	80.1955	1,148.44	82.358	1,148.44	76.6936	1,148.44	82.1364	1,148.44	83.5051	1,148.44	82.7347	1,148.44	85.1303	1,148.44	84.2247
1,189.45	88.0525	1,189.45	87.1635	1,189.45	88.5335	1,189.45	85.7771	1,189.45	88.6251	1,189.45	84.3587	1,189.45	88.1461	1,189.45	83.9167	1,189.45	87.0317	1,189.45	84.0397	1,189.45	85.4906	1,189.45	82.9899	1,189.45	83.6305	1,189.45	79.5513	1,189.45	81.1433	1,189.45	76.7817	1,189.45	78.9427	1,189.45	79.0995	1,189.45	79.1627	1,189.45	79.6687	1,189.45	77.3071	1,189.45	76.9001	1,189.45	65.5002	1,189.45	65.8755	1,189.45	75.2406	1,189.45	72.6826	1,189.45	81.1956	1,189.45	79.4227	1,189.45	81.3263	1,189.45	81.7762	1,189.45	74.2482	1,189.45	82.265	1,189.45	75.8376	1,189.45	82.1453	1,189.45	81.3895	1,189.45	82.2466
1,230.47	87.1439	1,230.47	86.2291	1,230.47	87.9067	1,230.47	85.1006	1,230.47	88.1114	1,230.47	83.7082	1,230.47	87.4438	1,230.47	82.5423	1,230.47	85.9305	1,230.47	81.9747	1,230.47	83.7911	1,230.47	81.3327	1,230.47	81.5205	1,230.47	79.4176	1,230.47	79.8675	1,230.47	76.4134	1,230.47	78.5479	1,230.47	77.164	1,230.47	76.4364	1,230.47	78.8495	1,230.47	73.5925	1,230.47	77.6144	1,230.47	66.9303	1,230.47	74.4742	1,230.47	70.2237	1,230.47	74.9601	1,230.47	78.0142	1,230.47	76.0536	1,230.47	78.5815	1,230.47	75.6691	1,230.47	72.9999	1,230.47	76.0361	1,230.47	69.9767	1,230.47	76.9351	1,230.47	76.474	1,230.47	77.6202
1,274.41	86.7955	1,274.41	85.54	1,274.41	87.5282	1,274.41	84.1579	1,274.41	87.4628	1,274.41	82.8979	1,274.41	86.4522	1,274.41	81.8955	1,274.41	84.3838	1,274.41	81.1606	1,274.41	81.4839	1,274.41	80.159	1,274.41	78.8142	1,274.41	78.0562	1,274.41	77.5134	1,274.41	74.9126	1,274.41	76.8709	1,274.41	73.5128	1,274.41	75.9135	1,274.41	73.4384	1,274.41	74.4868	1,274.41	72.1051	1,274.41	70.3082	1,274.41	73.0335	1,274.41	67.5835	1,274.41	75.3926	1,274.41	73.8062	1,274.41	75.0655	1,274.41	73.767	1,274.41	72.7155	1,274.41	69.5496	1,274.41	72.4404	1,274.41	72.8276	1,274.41	73.9888	1,274.41	76.4097	1,274.41	76.0291
1,318.36	86.1266	1,318.36	84.7184	1,318.36	86.9289	1,318.36	82.7609	1,318.36	86.8313	1,318.36	80.6875	1,318.36	85.5376	1,318.36	79.4527	1,318.36	83.2594	1,318.36	78.7609	1,318.36	80.8675	1,318.36	77.7086	1,318.36	78.8	1,318.36	76.2726	1,318.36	76.3559	1,318.36	75.2688	1,318.36	74.9291	1,318.36	74.644	1,318.36	74.7269	1,318.36	73.6271	1,318.36	71.3742	1,318.36	71.7139	1,318.36	60.623	1,318.36	71.1725	1,318.36	65.4068	1,318.36	74.7266	1,318.36	73.1696	1,318.36	75.8211	1,318.36	73.3602	1,318.36	73.2927	1,318.36	64.4792	1,318.36	68.7416	1,318.36	74.1265	1,318.36	70.6828	1,318.36	77.7085	1,318.36	75.9393
1,365.23	85.5166	1,365.23	83.9589	1,365.23	86.2251	1,365.23	82.2507	1,365.23	85.8041	1,365.23	80.507	1,365.23	84.1653	1,365.23	78.557	1,365.23	81.3545	1,365.23	77.8038	1,365.23	78.3897	1,365.23	78.1391	1,365.23	76.554	1,365.23	76.5852	1,365.23	75.5696	1,365.23	71.3776	1,365.23	75.0009	1,365.23	72.8536	1,365.23	74.9254	1,365.23	75.5634	1,365.23	75.0205	1,365.23	73.191	1,365.23	72.3172	1,365.23	69.937	1,365.23	59.4129	1,365.23	75.0088	1,365.23	73.7727	1,365.23	76.4029	1,365.23	75.7037	1,365.23	74.1466	1,365.23	67.1542	1,365.23	70.5817	1,365.23	71.8039	1,365.23	71.5902	1,365.23	77.0417	1,365.23	75.7359
1,415.04	85.1729	1,415.04	83.0446	1,415.04	85.8762	1,415.04	80.4616	1,415.04	84.9183	1,415.04	79.1975	1,415.04	82.0693	1,415.04	78.3553	1,415.04	77.8233	1,415.04	77.1733	1,415.04	75.1308	1,415.04	76.7977	1,415.04	74.2953	1,415.04	76.1189	1,415.04	73.8007	1,415.04	72.8779	1,415.04	74.7389	1,415.04	68.5969	1,415.04	76.2866	1,415.04	71.1135	1,415.04	75.0889	1,415.04	71.3003	1,415.04	71.0931	1,415.04	67.8147	1,415.04	63.7099	1,415.04	73.1475	1,415.04	64.8886	1,415.04	74.7144	1,415.04	71.8242	1,415.04	71.7617	1,415.04	68.2391	1,415.04	68.3516	1,415.04	69.5926	1,415.04	70.2116	1,415.04	75.304	1,415.04	74.2863
1,464.84	85.284	1,464.84	82.5373	1,464.84	85.9037	1,464.84	77.8536	1,464.84	84.1626	1,464.84	75.2526	1,464.84	80.0026	1,464.84	76.6542	1,464.84	74.9236	1,464.84	76.1968	1,464.84	72.5615	1,464.84	74.284	1,464.84	73.6034	1,464.84	73.491	1,464.84	74.8214	1,464.84	72.6369	1,464.84	73.7647	1,464.84	68.7106	1,464.84	72.9859	1,464.84	59.8409	1,464.84	72.3512	1,464.84	67.0108	1,464.84	72.3114	1,464.84	66.3047	1,464.84	71.7534	1,464.84	70.2817	1,464.84	61.3643	1,464.84	73.4108	1,464.84	68.8777	1,464.84	71.2222	1,464.84	67.4223	1,464.84	64.2845	1,464.84	68.9786	1,464.84	62.0898	1,464.84	74.2024	1,464.84	70.9926
1,514.65	85.3599	1,514.65	82.2134	1,514.65	85.8252	1,514.65	77.019	1,514.65	83.4204	1,514.65	71.992	1,514.65	78.8043	1,514.65	74.2317	1,514.65	74.0756	1,514.65	75.8668	1,514.65	72.2416	1,514.65	74.7306	1,514.65	74.2263	1,514.65	71.9486	1,514.65	75.6683	1,514.65	70.6348	1,514.65	74.6283	1,514.65	71.571	1,514.65	73.0723	1,514.65	68.7608	1,514.65	72.8808	1,514.65	63.9958	1,514.65	73.0543	1,514.65	65.2161	1,514.65	72.6832	1,514.65	65.8454	1,514.65	66.9492	1,514.65	72.013	1,514.65	67.147	1,514.65	70.8844	1,514.65	64.0256	1,514.65	58.8873	1,514.65	68.8048	1,514.65	62.2303	1,514.65	74.0112	1,514.65	71.1718
1,570.31	85.1452	1,570.31	82.2459	1,570.31	85.2944	1,570.31	76.7192	1,570.31	82.6416	1,570.31	70.5619	1,570.31	77.2938	1,570.31	74.0009	1,570.31	71.7031	1,570.31	76.0191	1,570.31	74.2691	1,570.31	75.3011	1,570.31	75.9522	1,570.31	73.7231	1,570.31	74.9489	1,570.31	71.2601	1,570.31	73.532	1,570.31	71.2687	1,570.31	72.3824	1,570.31	71.758	1,570.31	72.349	1,570.31	69.4594	1,570.31	73.3187	1,570.31	68.8836	1,570.31	70.9542	1,570.31	66.3697	1,570.31	67.1227	1,570.31	70.3766	1,570.31	68.5178	1,570.31	68.4826	1,570.31	59.9958	1,570.31	60.2661	1,570.31	66.8767	1,570.31	67.4538	1,570.31	73.3494	1,570.31	72.1406
1,623.05	84.2514	1,623.05	81.9767	1,623.05	84.3069	1,623.05	76.684	1,623.05	81.5318	1,623.05	63.9994	1,623.05	75.049	1,623.05	72.2238	1,623.05	69.3751	1,623.05	74.4266	1,623.05	74.4305	1,623.05	74.0281	1,623.05	75.9173	1,623.05	73.1731	1,623.05	74.6508	1,623.05	71.579	1,623.05	73.7581	1,623.05	71.8612	1,623.05	72.4555	1,623.05	70.3502	1,623.05	72.5715	1,623.05	65.2696	1,623.05	74.6409	1,623.05	69.2242	1,623.05	72.51	1,623.05	68.2781	1,623.05	68.1006	1,623.05	67.602	1,623.05	67.2049	1,623.05	66.6646	1,623.05	62.0312	1,623.05	60.6979	1,623.05	64.8877	1,623.05	67.3115	1,623.05	71.9837	1,623.05	70.5904
1,681.64	84.0166	1,681.64	82.0943	1,681.64	83.5199	1,681.64	76.4969	1,681.64	80.2788	1,681.64	55.2067	1,681.64	71.3783	1,681.64	70.4329	1,681.64	70.748	1,681.64	73.5798	1,681.64	76.8694	1,681.64	74.8048	1,681.64	76.927	1,681.64	74.8531	1,681.64	73.7049	1,681.64	71.992	1,681.64	72.7303	1,681.64	69.8126	1,681.64	73.802	1,681.64	71.3879	1,681.64	72.3642	1,681.64	68.9327	1,681.64	73.2459	1,681.64	70.5194	1,681.64	73.793	1,681.64	71.9516	1,681.64	70.4081	1,681.64	67.7871	1,681.64	66.6819	1,681.64	65.181	1,681.64	62.2663	1,681.64	52.3345	1,681.64	61.671	1,681.64	67.4479	1,681.64	70.7036	1,681.64	70.5392
1,740.23	84.7253	1,740.23	82.4612	1,740.23	83.9479	1,740.23	76.1542	1,740.23	79.5039	1,740.23	52.4833	1,740.23	65.9638	1,740.23	71.9443	1,740.23	72.5335	1,740.23	74.6528	1,740.23	77.6034	1,740.23	75.7061	1,740.23	77.4809	1,740.23	76.0425	1,740.23	74.2861	1,740.23	73.3072	1,740.23	72.1565	1,740.23	68.1295	1,740.23	72.6558	1,740.23	71.2946	1,740.23	71.4655	1,740.23	69.8095	1,740.23	72.4266	1,740.23	70.4235	1,740.23	72.9883	1,740.23	72.5116	1,740.23	70.4356	1,740.23	67.2159	1,740.23	67.5886	1,740.23	52.9721	1,740.23	64.2943	1,740.23	60.7212	1,740.23	55.3363	1,740.23	66.5295	1,740.23	69.4389	1,740.23	70.4421
1,801.76	84.9109	1,801.76	82.2436	1,801.76	84.0818	1,801.76	75.1217	1,801.76	79.0537	1,801.76	68.0266	1,801.76	54.7254	1,801.76	74.1422	1,801.76	74.7258	1,801.76	74.7718	1,801.76	77.7259	1,801.76	73.7494	1,801.76	77.2009	1,801.76	74.2455	1,801.76	75.1062	1,801.76	74.3875	1,801.76	72.9126	1,801.76	69.9103	1,801.76	72.7471	1,801.76	67.3265	1,801.76	73.0584	1,801.76	66.4434	1,801.76	70.9985	1,801.76	65.8325	1,801.76	71.6103	1,801.76	70.6721	1,801.76	67.5234	1,801.76	68.251	1,801.76	66.3307	1,801.76	61.1605	1,801.76	61.2712	1,801.76	49.9695	1,801.76	60.0343	1,801.76	64.1323	1,801.76	69.0099	1,801.76	70.1693
1,866.21	83.8299	1,866.21	81.6335	1,866.21	83.6722	1,866.21	77.0321	1,866.21	79.5741	1,866.21	73.1201	1,866.21	60.9942	1,866.21	75.348	1,866.21	76.1121	1,866.21	76.5478	1,866.21	78.9122	1,866.21	76.1343	1,866.21	78.2512	1,866.21	73.2058	1,866.21	74.9118	1,866.21	70.602	1,866.21	71.6783	1,866.21	70.7721	1,866.21	72.9751	1,866.21	69.1167	1,866.21	73.1919	1,866.21	69.2944	1,866.21	69.8664	1,866.21	61.9411	1,866.21	70.5816	1,866.21	62.6071	1,866.21	67.1134	1,866.21	67.4368	1,866.21	66.5567	1,866.21	61.7359	1,866.21	61.5524	1,866.21	61.1206	1,866.21	60.021	1,866.21	63.0444	1,866.21	69.1529	1,866.21	67.3716
1,930.66	83.2557	1,930.66	81.8085	1,930.66	82.5768	1,930.66	78.0977	1,930.66	78.6266	1,930.66	75.4398	1,930.66	69.6922	1,930.66	77.8615	1,930.66	76.9455	1,930.66	78.226	1,930.66	79.5324	1,930.66	76.8347	1,930.66	78.4925	1,930.66	74.826	1,930.66	75.4322	1,930.66	71.4346	1,930.66	71.3536	1,930.66	71.212	1,930.66	70.5801	1,930.66	70.6642	1,930.66	70.7987	1,930.66	70.3526	1,930.66	69.8786	1,930.66	70.0703	1,930.66	69.0195	1,930.66	61.928	1,930.66	67.4202	1,930.66	67.1434	1,930.66	69.5545	1,930.66	65.7662	1,930.66	57.7231	1,930.66	61.1304	1,930.66	60.3794	1,930.66	67.0959	1,930.66	67.1658	1,930.66	66.8394
2,000.98	84.4435	2,000.98	82.9126	2,000.98	83.0821	2,000.98	79.8108	2,000.98	78.297	2,000.98	77.8002	2,000.98	73.135	2,000.98	78.475	2,000.98	77.9277	2,000.98	77.7769	2,000.98	80.5417	2,000.98	75.4973	2,000.98	79.6154	2,000.98	74.7822	2,000.98	76.6053	2,000.98	73.8544	2,000.98	73.0887	2,000.98	71.9124	2,000.98	68.1696	2,000.98	71.5857	2,000.98	69.7124	2,000.98	68.3741	2,000.98	69.9285	2,000.98	70.7264	2,000.98	69.4835	2,000.98	70.1269	2,000.98	65.756	2,000.98	64.0767	2,000.98	68.4467	2,000.98	65.9578	2,000.98	57.761	2,000.98	67.1543	2,000.98	61.7239	2,000.98	70.3396	2,000.98	68.6531	2,000.98	68.7705
2,071.29	85.1857	2,071.29	84.3689	2,071.29	83.8149	2,071.29	81.5389	2,071.29	79.1641	2,071.29	78.696	2,071.29	76.2516	2,071.29	79.0055	2,071.29	78.8934	2,071.29	78.3006	2,071.29	80.2251	2,071.29	76.9567	2,071.29	79.5762	2,071.29	76.1907	2,071.29	76.5157	2,071.29	73.7084	2,071.29	73.455	2,071.29	66.8321	2,071.29	71.0663	2,071.29	67.2093	2,071.29	69.4035	2,071.29	67.0118	2,071.29	68.4317	2,071.29	66.0844	2,071.29	67.932	2,071.29	70.2472	2,071.29	65.0019	2,071.29	65.1496	2,071.29	67.53	2,071.29	60.5354	2,071.29	54.2782	2,071.29	65.5642	2,071.29	60.7996	2,071.29	69.2254	2,071.29	66.9278	2,071.29	68.4882
2,144.53	84.8212	2,144.53	85.0193	2,144.53	83.8105	2,144.53	82.9425	2,144.53	81.5175	2,144.53	80.7453	2,144.53	77.6034	2,144.53	79.1906	2,144.53	79.8466	2,144.53	79.1914	2,144.53	80.7254	2,144.53	78.6383	2,144.53	79.8874	2,144.53	75.1768	2,144.53	77.3093	2,144.53	72.9674	2,144.53	71.5479	2,144.53	72.288	2,144.53	68.7689	2,144.53	68.884	2,144.53	66.1072	2,144.53	68.9769	2,144.53	66.8378	2,144.53	58.8819	2,144.53	70.0691	2,144.53	65.598	2,144.53	62.9551	2,144.53	69.1711	2,144.53	68.6442	2,144.53	63.944	2,144.53	60.2069	2,144.53	65.5386	2,144.53	65.7087	2,144.53	71.1343	2,144.53	69.1754	2,144.53	69.8379
2,217.77	84.7993	2,217.77	85.0067	2,217.77	83.2208	2,217.77	83.8534	2,217.77	82.1165	2,217.77	82.0504	2,217.77	79.591	2,217.77	80.879	2,217.77	79.9957	2,217.77	79.959	2,217.77	81.1468	2,217.77	77.1908	2,217.77	79.897	2,217.77	73.4662	2,217.77	77.1589	2,217.77	71.4931	2,217.77	72.1418	2,217.77	71.937	2,217.77	67.8861	2,217.77	69.5436	2,217.77	64.6594	2,217.77	69.2881	2,217.77	69.2496	2,217.77	70.0591	2,217.77	70.7787	2,217.77	64.0122	2,217.77	58.4027	2,217.77	69.6759	2,217.77	65.792	2,217.77	62.0943	2,217.77	60.3343	2,217.77	65.7045	2,217.77	61.1047	2,217.77	68.9188	2,217.77	67.004	2,217.77	67.2847
2,296.88	85.9875	2,296.88	86.1581	2,296.88	83.9352	2,296.88	84.5764	2,296.88	82.2227	2,296.88	82.1236	2,296.88	81.7369	2,296.88	81.3676	2,296.88	80.8343	2,296.88	80.3822	2,296.88	81.0015	2,296.88	78.3908	2,296.88	79.5943	2,296.88	76.015	2,296.88	76.4924	2,296.88	73.6361	2,296.88	73.5867	2,296.88	71.5003	2,296.88	68.4538	2,296.88	71.8327	2,296.88	63.013	2,296.88	70.2664	2,296.88	64.245	2,296.88	71.3407	2,296.88	68.4798	2,296.88	66.8604	2,296.88	63.8181	2,296.88	66.5397	2,296.88	64.2273	2,296.88	66.3132	2,296.88	61.005	2,296.88	63.4295	2,296.88	61.4991	2,296.88	69.9932	2,296.88	64.3107	2,296.88	66.9153
2,378.91	86.4769	2,378.91	87.2452	2,378.91	84.2859	2,378.91	84.7949	2,378.91	83.5462	2,378.91	83.3671	2,378.91	82.1883	2,378.91	82.6111	2,378.91	81.2194	2,378.91	79.9385	2,378.91	81.163	2,378.91	78.3353	2,378.91	80.2517	2,378.91	76.2346	2,378.91	77.7382	2,378.91	73.0632	2,378.91	72.3363	2,378.91	71.0454	2,378.91	64.6238	2,378.91	66.5423	2,378.91	68.0566	2,378.91	67.3841	2,378.91	68.4619	2,378.91	66.331	2,378.91	68.515	2,378.91	66.7892	2,378.91	66.8248	2,378.91	64.6487	2,378.91	64.2331	2,378.91	66.7052	2,378.91	62.8185	2,378.91	62.2527	2,378.91	63.1494	2,378.91	69.2094	2,378.91	65.0646	2,378.91	66.9793
2,460.94	86.6412	2,460.94	87.3617	2,460.94	84.8424	2,460.94	86.2983	2,460.94	84.7877	2,460.94	84.1312	2,460.94	84.0004	2,460.94	81.9011	2,460.94	81.5605	2,460.94	80.9514	2,460.94	80.8244	2,460.94	78.6879	2,460.94	79.7599	2,460.94	76.0431	2,460.94	77.6407	2,460.94	74.0225	2,460.94	75.31	2,460.94	73.1379	2,460.94	66.0191	2,460.94	69.5003	2,460.94	69.3746	2,460.94	68.902	2,460.94	69.7469	2,460.94	68.4307	2,460.94	70.211	2,460.94	67.3176	2,460.94	67.025	2,460.94	68.7904	2,460.94	66.5621	2,460.94	64.6487	2,460.94	63.0375	2,460.94	65.9055	2,460.94	60.8181	2,460.94	70.052	2,460.94	64.2695	2,460.94	68.4185
2,548.83	87.0306	2,548.83	87.4817	2,548.83	84.9257	2,548.83	86.204	2,548.83	85.145	2,548.83	84.4498	2,548.83	85.006	2,548.83	82.9212	2,548.83	82.3222	2,548.83	80.8702	2,548.83	81.0237	2,548.83	78.6433	2,548.83	80.2228	2,548.83	76.4845	2,548.83	77.7017	2,548.83	74.2903	2,548.83	76.5718	2,548.83	71.6126	2,548.83	68.9117	2,548.83	71.4142	2,548.83	69.7114	2,548.83	69.7274	2,548.83	67.9519	2,548.83	69.0395	2,548.83	71.4051	2,548.83	65.9054	2,548.83	67.6414	2,548.83	68.7976	2,548.83	65.6688	2,548.83	66.144	2,548.83	64.3872	2,548.83	65.6399	2,548.83	63.0326	2,548.83	68.9934	2,548.83	62.2748	2,548.83	68.1655
2,639.65	87.8083	2,639.65	87.9985	2,639.65	85.8854	2,639.65	86.0965	2,639.65	85.5623	2,639.65	84.4731	2,639.65	85.6742	2,639.65	83.3969	2,639.65	82.787	2,639.65	81.7775	2,639.65	80.6983	2,639.65	80.305	2,639.65	80.7765	2,639.65	77.4566	2,639.65	77.9851	2,639.65	74.3788	2,639.65	74.6741	2,639.65	71.9351	2,639.65	63.8494	2,639.65	70.5984	2,639.65	68.8385	2,639.65	66.7386	2,639.65	70.4794	2,639.65	67.3661	2,639.65	68.4958	2,639.65	64.1087	2,639.65	68.1902	2,639.65	67.0373	2,639.65	64.3889	2,639.65	67.012	2,639.65	65.2456	2,639.65	65.2106	2,639.65	62.7425	2,639.65	68.8101	2,639.65	66.4904	2,639.65	69.4634
2,733.4	88.0168	2,733.4	88.3826	2,733.4	86.3574	2,733.4	86.7665	2,733.4	86.8005	2,733.4	84.5747	2,733.4	85.8233	2,733.4	83.1601	2,733.4	83.269	2,733.4	82.4438	2,733.4	81.1444	2,733.4	79.2317	2,733.4	80.823	2,733.4	75.7701	2,733.4	78.9455	2,733.4	72.7279	2,733.4	75.8694	2,733.4	71.0318	2,733.4	68.6529	2,733.4	68.2092	2,733.4	61.7536	2,733.4	67.9448	2,733.4	70.8318	2,733.4	65.9558	2,733.4	70.8304	2,733.4	66.2437	2,733.4	68.6816	2,733.4	64.0267	2,733.4	62.1334	2,733.4	67.1476	2,733.4	63.7032	2,733.4	66.9213	2,733.4	63.1732	2,733.4	67.3164	2,733.4	65.5445	2,733.4	69.6548
2,827.15	88.3997	2,827.15	88.3724	2,827.15	86.5753	2,827.15	87.3144	2,827.15	87.2801	2,827.15	85.0214	2,827.15	86.7416	2,827.15	83.7042	2,827.15	82.7795	2,827.15	81.7938	2,827.15	81.5517	2,827.15	78.8757	2,827.15	81.2473	2,827.15	75.5955	2,827.15	79.375	2,827.15	73.7579	2,827.15	75.7103	2,827.15	72.9779	2,827.15	68.5688	2,827.15	71.1368	2,827.15	54.1418	2,827.15	69.2141	2,827.15	68.1823	2,827.15	66.8256	2,827.15	70.7576	2,827.15	65.6941	2,827.15	69.9606	2,827.15	65.5907	2,827.15	57.4934	2,827.15	65.4263	2,827.15	65.0036	2,827.15	67.013	2,827.15	59.9753	2,827.15	66.1517	2,827.15	65.5565	2,827.15	68.0346
2,926.76	88.1371	2,926.76	88.187	2,926.76	86.9089	2,926.76	87.0563	2,926.76	87.3257	2,926.76	85.3991	2,926.76	87.349	2,926.76	83.9909	2,926.76	83.1318	2,926.76	81.8546	2,926.76	81.9572	2,926.76	78.3516	2,926.76	81.9323	2,926.76	75.7933	2,926.76	79.6932	2,926.76	74.8784	2,926.76	76.4931	2,926.76	72.485	2,926.76	71.1303	2,926.76	70.6907	2,926.76	57.141	2,926.76	67.9863	2,926.76	70.9541	2,926.76	67.6717	2,926.76	67.7312	2,926.76	65.1802	2,926.76	71.033	2,926.76	63.4429	2,926.76	61.7361	2,926.76	65.8562	2,926.76	63.926	2,926.76	66.4681	2,926.76	62.2987	2,926.76	67.3166	2,926.76	60.7206	2,926.76	69.1682
3,032.23	88.2051	3,032.23	88.3085	3,032.23	87.1042	3,032.23	87.0672	3,032.23	87.3231	3,032.23	85.2278	3,032.23	87.2006	3,032.23	84.3914	3,032.23	83.1457	3,032.23	81.403	3,032.23	81.3409	3,032.23	78.6967	3,032.23	82.2842	3,032.23	77.3122	3,032.23	79.5116	3,032.23	73.6496	3,032.23	76.8698	3,032.23	72.0147	3,032.23	74.2992	3,032.23	71.5814	3,032.23	60.0705	3,032.23	70.1594	3,032.23	70.242	3,032.23	69.0097	3,032.23	68.6015	3,032.23	66.9917	3,032.23	68.9001	3,032.23	64.0915	3,032.23	62.4776	3,032.23	66.8931	3,032.23	61.8667	3,032.23	65.8295	3,032.23	60.9724	3,032.23	66.7122	3,032.23	63.8154	3,032.23	67.6234
3,137.7	88.4307	3,137.7	88.586	3,137.7	87.4928	3,137.7	87.0643	3,137.7	87.366	3,137.7	85.313	3,137.7	87.3313	3,137.7	83.8157	3,137.7	83.3333	3,137.7	81.2632	3,137.7	81.2098	3,137.7	79.9713	3,137.7	82.7767	3,137.7	76.7881	3,137.7	80.3944	3,137.7	76.1799	3,137.7	77.521	3,137.7	74.4215	3,137.7	74.774	3,137.7	70.8147	3,137.7	67.8028	3,137.7	69.1478	3,137.7	64.0099	3,137.7	67.5264	3,137.7	66.7958	3,137.7	66.1279	3,137.7	68.6798	3,137.7	64.9604	3,137.7	62.142	3,137.7	66.0374	3,137.7	64.031	3,137.7	65.6434	3,137.7	62.019	3,137.7	66.348	3,137.7	63.942	3,137.7	69.3587
3,249.02	88.3316	3,249.02	88.3817	3,249.02	87.6903	3,249.02	86.748	3,249.02	87.3541	3,249.02	85.5886	3,249.02	87.3836	3,249.02	83.4944	3,249.02	83.6794	3,249.02	82.1546	3,249.02	81.2576	3,249.02	79.8522	3,249.02	82.7693	3,249.02	78.0245	3,249.02	81.005	3,249.02	74.4244	3,249.02	78.0502	3,249.02	69.6383	3,249.02	75.2444	3,249.02	69.8728	3,249.02	69.8105	3,249.02	68.5275	3,249.02	60.3132	3,249.02	67.4348	3,249.02	69.6621	3,249.02	64.5227	3,249.02	66.5744	3,249.02	65.5971	3,249.02	61.4128	3,249.02	64.9957	3,249.02	61.5917	3,249.02	66.073	3,249.02	60.3414	3,249.02	65.6848	3,249.02	60.8783	3,249.02	67.2537
3,363.28	88.009	3,363.28	88.0419	3,363.28	87.4491	3,363.28	86.7644	3,363.28	86.7913	3,363.28	85.4445	3,363.28	87.2457	3,363.28	83.4488	3,363.28	84.182	3,363.28	82.0911	3,363.28	80.6087	3,363.28	79.7306	3,363.28	82.5131	3,363.28	76.8618	3,363.28	80.9745	3,363.28	73.2863	3,363.28	78.3658	3,363.28	74.0413	3,363.28	75.7648	3,363.28	71.1362	3,363.28	72.6185	3,363.28	68.6255	3,363.28	60.6079	3,363.28	68.2087	3,363.28	68.8689	3,363.28	65.4063	3,363.28	65.1056	3,363.28	64.9425	3,363.28	50.471	3,363.28	65.1241	3,363.28	61.997	3,363.28	66.2397	3,363.28	60.4353	3,363.28	65.7099	3,363.28	57.8724	3,363.28	67.0942
3,483.4	88.5622	3,483.4	87.9826	3,483.4	88.0145	3,483.4	87.086	3,483.4	86.4968	3,483.4	85.1176	3,483.4	86.2716	3,483.4	83.743	3,483.4	83.9996	3,483.4	82.1012	3,483.4	80.177	3,483.4	79.5711	3,483.4	82.2027	3,483.4	77.4095	3,483.4	80.3063	3,483.4	76.2229	3,483.4	77.9903	3,483.4	72.0869	3,483.4	73.8385	3,483.4	69.8084	3,483.4	68.245	3,483.4	69.5898	3,483.4	64.2634	3,483.4	66.5441	3,483.4	68.4456	3,483.4	65.8714	3,483.4	64.2612	3,483.4	63.4739	3,483.4	56.0423	3,483.4	65.7592	3,483.4	57.907	3,483.4	64.7432	3,483.4	59.4971	3,483.4	67.2569	3,483.4	57.9267	3,483.4	67.6306
3,606.45	88.2781	3,606.45	88.2012	3,606.45	88.318	3,606.45	87.1556	3,606.45	86.8176	3,606.45	85.3743	3,606.45	85.4759	3,606.45	83.7505	3,606.45	83.9367	3,606.45	82.3103	3,606.45	79.6226	3,606.45	79.5273	3,606.45	81.9293	3,606.45	77.8667	3,606.45	80.6408	3,606.45	74.2248	3,606.45	77.347	3,606.45	73.1953	3,606.45	72.3345	3,606.45	70.8655	3,606.45	68.9994	3,606.45	69.3363	3,606.45	59.2635	3,606.45	66.7985	3,606.45	67.5808	3,606.45	66.2939	3,606.45	63.7876	3,606.45	62.7561	3,606.45	57.5073	3,606.45	64.8662	3,606.45	58.351	3,606.45	64.75	3,606.45	62.665	3,606.45	67.2183	3,606.45	58.2287	3,606.45	66.1757
3,732.42	88.2275	3,732.42	87.9917	3,732.42	88.0154	3,732.42	87.3873	3,732.42	86.8452	3,732.42	85.1183	3,732.42	85.8588	3,732.42	84.2085	3,732.42	84.3493	3,732.42	81.6798	3,732.42	80.4894	3,732.42	80.2444	3,732.42	80.924	3,732.42	77.3521	3,732.42	80.7952	3,732.42	76.58	3,732.42	75.807	3,732.42	73.8333	3,732.42	69.8924	3,732.42	70.2594	3,732.42	61.0439	3,732.42	70.2607	3,732.42	57.092	3,732.42	66.9418	3,732.42	68.6504	3,732.42	66.5119	3,732.42	64.9147	3,732.42	62.4348	3,732.42	60.5637	3,732.42	65.086	3,732.42	60.0976	3,732.42	65.2118	3,732.42	60.7905	3,732.42	66.1336	3,732.42	56.0279	3,732.42	67.7822
3,864.26	88.4319	3,864.26	88.5477	3,864.26	88.5979	3,864.26	87.1052	3,864.26	86.4267	3,864.26	85.2073	3,864.26	86.0908	3,864.26	84.1631	3,864.26	84.7037	3,864.26	81.9937	3,864.26	80.3939	3,864.26	80.3425	3,864.26	81.0624	3,864.26	79.2591	3,864.26	79.5738	3,864.26	75.8843	3,864.26	75.7465	3,864.26	71.4373	3,864.26	69.8649	3,864.26	70.6147	3,864.26	59.3401	3,864.26	68.8235	3,864.26	59.2665	3,864.26	67.9947	3,864.26	67.2268	3,864.26	67.2509	3,864.26	63.6024	3,864.26	62.737	3,864.26	61.1311	3,864.26	64.7974	3,864.26	60.7122	3,864.26	65.9383	3,864.26	59.4944	3,864.26	66.0015	3,864.26	58.6448	3,864.26	67.3248
3,999.02	88.5256	3,999.02	89.0056	3,999.02	89.0854	3,999.02	87.4526	3,999.02	86.6685	3,999.02	85.6631	3,999.02	84.5083	3,999.02	83.9174	3,999.02	84.4186	3,999.02	82.3783	3,999.02	80.8403	3,999.02	81.2448	3,999.02	81.5168	3,999.02	78.1919	3,999.02	80.8485	3,999.02	75.8756	3,999.02	76.5867	3,999.02	75.3453	3,999.02	66.4602	3,999.02	71.1554	3,999.02	67.9279	3,999.02	68.6413	3,999.02	58.9663	3,999.02	67.6175	3,999.02	63.754	3,999.02	65.7872	3,999.02	63.2603	3,999.02	62.829	3,999.02	60.776	3,999.02	64.6802	3,999.02	61.5907	3,999.02	65.7836	3,999.02	61.5534	3,999.02	66.7015	3,999.02	58.4664	3,999.02	64.1289
4,139.65	88.6083	4,139.65	88.983	4,139.65	89.1909	4,139.65	87.113	4,139.65	87.4422	4,139.65	86.1613	4,139.65	84.1369	4,139.65	84.1488	4,139.65	84.5106	4,139.65	82.8155	4,139.65	80.7514	4,139.65	80.5765	4,139.65	81.443	4,139.65	78.917	4,139.65	82.0708	4,139.65	76.5473	4,139.65	76.0526	4,139.65	69.1677	4,139.65	69.3335	4,139.65	70.0109	4,139.65	69.7336	4,139.65	68.5122	4,139.65	67.444	4,139.65	67.2192	4,139.65	66.4229	4,139.65	65.2075	4,139.65	64.3079	4,139.65	63.4782	4,139.65	55.9681	4,139.65	64.9595	4,139.65	55.8068	4,139.65	64.604	4,139.65	61.0868	4,139.65	66.942	4,139.65	54.4233	4,139.65	66.5916
4,286.13	89.7464	4,286.13	89.2602	4,286.13	89.3602	4,286.13	87.5527	4,286.13	88.2812	4,286.13	86.2647	4,286.13	85.4171	4,286.13	84.6123	4,286.13	84.1763	4,286.13	83.0371	4,286.13	81.0918	4,286.13	80.8227	4,286.13	81.6131	4,286.13	78.2548	4,286.13	81.5159	4,286.13	76.6017	4,286.13	74.097	4,286.13	75.0136	4,286.13	69.8788	4,286.13	71.2497	4,286.13	70.9302	4,286.13	68.7246	4,286.13	63.8727	4,286.13	66.0067	4,286.13	66.6076	4,286.13	65.4877	4,286.13	63.2241	4,286.13	62.7951	4,286.13	57.0096	4,286.13	64.2606	4,286.13	54.8169	4,286.13	65.5808	4,286.13	60.2868	4,286.13	64.9508	4,286.13	53.5015	4,286.13	65.513
4,438.48	89.4166	4,438.48	89.3383	4,438.48	89.6337	4,438.48	88.0553	4,438.48	87.6979	4,438.48	86.3431	4,438.48	85.492	4,438.48	85.1347	4,438.48	84.7465	4,438.48	82.7959	4,438.48	81.2828	4,438.48	80.222	4,438.48	79.6904	4,438.48	79.2006	4,438.48	78.0674	4,438.48	75.8351	4,438.48	72.7022	4,438.48	70.0069	4,438.48	73.1234	4,438.48	69.6218	4,438.48	70.7688	4,438.48	67.1603	4,438.48	63.0277	4,438.48	66.4389	4,438.48	64.9376	4,438.48	64.8127	4,438.48	59.5531	4,438.48	61.6368	4,438.48	55.2121	4,438.48	62.6226	4,438.48	58.2477	4,438.48	63.9601	4,438.48	58.2642	4,438.48	66.7435	4,438.48	49.9644	4,438.48	64.35
4,593.75	90.1989	4,593.75	89.1725	4,593.75	89.9475	4,593.75	87.7987	4,593.75	88.6833	4,593.75	86.7898	4,593.75	85.2394	4,593.75	85.2278	4,593.75	85.1838	4,593.75	82.6542	4,593.75	81.3973	4,593.75	81.0147	4,593.75	79.4913	4,593.75	76.7669	4,593.75	77.4733	4,593.75	75.8542	4,593.75	76.8076	4,593.75	72.8162	4,593.75	73.3656	4,593.75	69.1431	4,593.75	66.3122	4,593.75	66.815	4,593.75	64.5592	4,593.75	64.6818	4,593.75	64.5331	4,593.75	63.6941	4,593.75	54.4098	4,593.75	59.8629	4,593.75	52.772	4,593.75	64.0709	4,593.75	56.5071	4,593.75	62.3803	4,593.75	58.7994	4,593.75	65.4929	4,593.75	46.0005	4,593.75	62.5783
4,757.81	90.0676	4,757.81	89.2756	4,757.81	89.9561	4,757.81	88.3652	4,757.81	89.0641	4,757.81	86.632	4,757.81	86.0126	4,757.81	85.2186	4,757.81	84.6383	4,757.81	82.8864	4,757.81	81.3689	4,757.81	79.5976	4,757.81	78.6809	4,757.81	77.9442	4,757.81	77.8832	4,757.81	72.9147	4,757.81	77.9092	4,757.81	70.4176	4,757.81	73.6905	4,757.81	68.4778	4,757.81	62.2166	4,757.81	64.7929	4,757.81	56.5613	4,757.81	64.6872	4,757.81	61.3999	4,757.81	61.2997	4,757.81	58.5443	4,757.81	60.7449	4,757.81	59.8542	4,757.81	62.3812	4,757.81	58.6342	4,757.81	63.1133	4,757.81	60.6931	4,757.81	63.7295	4,757.81	48.6004	4,757.81	63.1945
4,924.8	90.1855	4,924.8	89.3156	4,924.8	90.1215	4,924.8	87.8677	4,924.8	88.6305	4,924.8	87.1881	4,924.8	86.5357	4,924.8	84.7504	4,924.8	85.1514	4,924.8	82.6817	4,924.8	82.1888	4,924.8	79.0349	4,924.8	79.291	4,924.8	75.3868	4,924.8	80.2471	4,924.8	74.0767	4,924.8	77.7726	4,924.8	70.2533	4,924.8	71.6426	4,924.8	66.377	4,924.8	69.0165	4,924.8	64.9473	4,924.8	60.8838	4,924.8	63.9276	4,924.8	63.7079	4,924.8	56.1213	4,924.8	51.1037	4,924.8	60.3507	4,924.8	54.4291	4,924.8	61.1402	4,924.8	60.9356	4,924.8	58.9844	4,924.8	50.9933	4,924.8	63.5904	4,924.8	51.1502	4,924.8	57.4288
5,097.66	90.1228	5,097.66	89.427	5,097.66	90.2021	5,097.66	88.072	5,097.66	88.8348	5,097.66	86.5498	5,097.66	86.6093	5,097.66	85.0612	5,097.66	84.97	5,097.66	82.1838	5,097.66	82.1473	5,097.66	78.2815	5,097.66	78.284	5,097.66	75.4185	5,097.66	80.6925	5,097.66	70.582	5,097.66	76.678	5,097.66	69.2779	5,097.66	71.2473	5,097.66	66.6907	5,097.66	51.0296	5,097.66	64.8663	5,097.66	63.168	5,097.66	63.6017	5,097.66	61.9262	5,097.66	58.5629	5,097.66	51.3705	5,097.66	60.9013	5,097.66	60.1285	5,097.66	59.3486	5,097.66	55.7505	5,097.66	59.4953	5,097.66	56.4717	5,097.66	63.1498	5,097.66	55.0458	5,097.66	59.1857
5,279.3	89.5772	5,279.3	89.3372	5,279.3	89.8382	5,279.3	87.6679	5,279.3	88.6916	5,279.3	86.8575	5,279.3	86.8202	5,279.3	84.5774	5,279.3	84.6054	5,279.3	81.6879	5,279.3	81.8938	5,279.3	77.5358	5,279.3	77.6839	5,279.3	74.1735	5,279.3	80.9706	5,279.3	72.4632	5,279.3	74.8979	5,279.3	70.153	5,279.3	73.9407	5,279.3	67.1242	5,279.3	66.5523	5,279.3	66.2293	5,279.3	60.6008	5,279.3	64.3149	5,279.3	57.0248	5,279.3	60.8702	5,279.3	50.7946	5,279.3	61.6657	5,279.3	55.8174	5,279.3	59.4273	5,279.3	52.9424	5,279.3	57.4104	5,279.3	55.1948	5,279.3	61.3135	5,279.3	54.6651	5,279.3	59.299
5,463.87	90.1725	5,463.87	89.5138	5,463.87	89.9532	5,463.87	87.6682	5,463.87	88.3758	5,463.87	86.5966	5,463.87	86.9158	5,463.87	84.1867	5,463.87	84.6089	5,463.87	81.3398	5,463.87	81.8485	5,463.87	76.6286	5,463.87	76.3221	5,463.87	73.7328	5,463.87	79.9626	5,463.87	69.7344	5,463.87	73.2996	5,463.87	69.4848	5,463.87	73.4564	5,463.87	65.6393	5,463.87	65.5523	5,463.87	65.6741	5,463.87	57.9531	5,463.87	62.2584	5,463.87	58.251	5,463.87	60.6063	5,463.87	60.0066	5,463.87	57.738	5,463.87	56.634	5,463.87	56.2604	5,463.87	49.9036	5,463.87	59.6556	5,463.87	53.3522	5,463.87	60.3416	5,463.87	51.5683	5,463.87	57.263
5,657.23	89.7285	5,657.23	89.2371	5,657.23	89.5977	5,657.23	88.0151	5,657.23	88.1907	5,657.23	86.2872	5,657.23	86.7243	5,657.23	84.1442	5,657.23	84.1182	5,657.23	81.0312	5,657.23	81.8441	5,657.23	76.3099	5,657.23	76.7403	5,657.23	73.4781	5,657.23	78.3855	5,657.23	69.8586	5,657.23	71.8493	5,657.23	69.1982	5,657.23	72.7239	5,657.23	66.4133	5,657.23	66.0739	5,657.23	66.0223	5,657.23	60.1708	5,657.23	64.8085	5,657.23	59.7848	5,657.23	61.2399	5,657.23	61.0723	5,657.23	60.4104	5,657.23	61.4105	5,657.23	56.4952	5,657.23	53.0869	5,657.23	60.0824	5,657.23	52.8217	5,657.23	58.8494	5,657.23	47.9769	5,657.23	58.6288
5,856.45	89.8979	5,856.45	89.7381	5,856.45	89.587	5,856.45	88.0452	5,856.45	88.0991	5,856.45	86.213	5,856.45	86.6643	5,856.45	84.2515	5,856.45	83.5225	5,856.45	80.1424	5,856.45	80.4686	5,856.45	76.225	5,856.45	73.4732	5,856.45	74.3614	5,856.45	77.2064	5,856.45	73.3082	5,856.45	72.5251	5,856.45	70.4117	5,856.45	70.198	5,856.45	66.6059	5,856.45	65.3456	5,856.45	67.2894	5,856.45	63.0872	5,856.45	62.9362	5,856.45	56.894	5,856.45	62.7053	5,856.45	52.7488	5,856.45	61.9219	5,856.45	56.1697	5,856.45	58.3089	5,856.45	55.9384	5,856.45	61.2214	5,856.45	49.3406	5,856.45	60.4474	5,856.45	57.023	5,856.45	56.5176
6,061.52	90.0085	6,061.52	89.8261	6,061.52	89.9302	6,061.52	87.9884	6,061.52	87.941	6,061.52	86.5375	6,061.52	86.7997	6,061.52	83.5082	6,061.52	83.1186	6,061.52	79.5481	6,061.52	79.3368	6,061.52	76.3589	6,061.52	72.4628	6,061.52	75.5433	6,061.52	74.2519	6,061.52	70.991	6,061.52	73.1112	6,061.52	70.124	6,061.52	72.1573	6,061.52	65.117	6,061.52	70.3355	6,061.52	65.9933	6,061.52	64.2619	6,061.52	63.2515	6,061.52	57.2636	6,061.52	59.9475	6,061.52	55.2099	6,061.52	60.0306	6,061.52	51.0054	6,061.52	57.047	6,061.52	54.3922	6,061.52	62.1146	6,061.52	48.2784	6,061.52	60.2183	6,061.52	56.582	6,061.52	57.0547
6,275.39	90.3007	6,275.39	89.9656	6,275.39	89.9135	6,275.39	88.1317	6,275.39	87.9985	6,275.39	86.4205	6,275.39	86.6376	6,275.39	83.2657	6,275.39	83.2277	6,275.39	78.7542	6,275.39	79.717	6,275.39	76.8062	6,275.39	72.9566	6,275.39	74.3597	6,275.39	72.8292	6,275.39	71.1683	6,275.39	74.3274	6,275.39	68.2676	6,275.39	66.8582	6,275.39	65.236	6,275.39	68.2906	6,275.39	62.2589	6,275.39	58.5523	6,275.39	61.5481	6,275.39	56.3207	6,275.39	60.633	6,275.39	55.3704	6,275.39	60.0466	6,275.39	54.9544	6,275.39	55.5228	6,275.39	54.6679	6,275.39	58.5534	6,275.39	50.9157	6,275.39	58.0141	6,275.39	50.1671	6,275.39	56.4608
6,498.05	90.2852	6,498.05	89.6954	6,498.05	89.8773	6,498.05	88.4073	6,498.05	88.4879	6,498.05	86.1925	6,498.05	86.077	6,498.05	83.097	6,498.05	82.121	6,498.05	77.9926	6,498.05	79.3428	6,498.05	75.9932	6,498.05	73.1324	6,498.05	73.8509	6,498.05	72.1668	6,498.05	71.1879	6,498.05	71.3136	6,498.05	68.5608	6,498.05	63.5228	6,498.05	65.3302	6,498.05	65.6546	6,498.05	64.3812	6,498.05	39.2299	6,498.05	61.5966	6,498.05	58.0023	6,498.05	59.0237	6,498.05	48.234	6,498.05	60.3828	6,498.05	56.5673	6,498.05	56.1934	6,498.05	53.9437	6,498.05	59.9696	6,498.05	49.5904	6,498.05	57.9562	6,498.05	52.793	6,498.05	55.1188
6,726.56	90.2572	6,726.56	89.7037	6,726.56	90.0039	6,726.56	88.4326	6,726.56	88.7146	6,726.56	86.0252	6,726.56	86.3093	6,726.56	82.5211	6,726.56	81.668	6,726.56	77.9762	6,726.56	79.1313	6,726.56	75.1514	6,726.56	73.4514	6,726.56	73.9921	6,726.56	71.0471	6,726.56	69.0067	6,726.56	71.7399	6,726.56	65.8261	6,726.56	56.7303	6,726.56	62.7796	6,726.56	58.1148	6,726.56	60.0072	6,726.56	48.6099	6,726.56	57.7504	6,726.56	57.3316	6,726.56	58.9402	6,726.56	55.2172	6,726.56	58.3377	6,726.56	61.5934	6,726.56	54.0116	6,726.56	57.1818	6,726.56	55.9861	6,726.56	50.1643	6,726.56	56.5569	6,726.56	54.1552	6,726.56	51.3558
6,963.87	90.2928	6,963.87	89.7617	6,963.87	89.8622	6,963.87	88.1893	6,963.87	88.6335	6,963.87	86.1359	6,963.87	86.0263	6,963.87	81.6491	6,963.87	81.6317	6,963.87	77.9705	6,963.87	79.0965	6,963.87	74.7239	6,963.87	72.6911	6,963.87	70.5935	6,963.87	67.5938	6,963.87	67.6303	6,963.87	73.3803	6,963.87	65.3567	6,963.87	66.3181	6,963.87	64.1358	6,963.87	57.9833	6,963.87	62.2541	6,963.87	56.6011	6,963.87	59.8661	6,963.87	53.8086	6,963.87	58.4573	6,963.87	55.8715	6,963.87	58.7696	6,963.87	58.5318	6,963.87	54.6042	6,963.87	57.8666	6,963.87	54.4781	6,963.87	48.2837	6,963.87	53.1098	6,963.87	50.7818	6,963.87	53.1373
7,209.96	90.1705	7,209.96	89.404	7,209.96	89.6119	7,209.96	88.2002	7,209.96	88.5774	7,209.96	85.7856	7,209.96	85.96	7,209.96	81.6958	7,209.96	80.9125	7,209.96	77.5033	7,209.96	78.976	7,209.96	74.1457	7,209.96	72.8731	7,209.96	70.017	7,209.96	67.3971	7,209.96	67.4689	7,209.96	74.8666	7,209.96	64.2461	7,209.96	68.8406	7,209.96	62.872	7,209.96	58.3034	7,209.96	59.0828	7,209.96	54.3449	7,209.96	60.0372	7,209.96	54.0978	7,209.96	57.0095	7,209.96	44.5894	7,209.96	57.153	7,209.96	53.7771	7,209.96	55.4272	7,209.96	50.1126	7,209.96	55.1712	7,209.96	32.5916	7,209.96	53.9232	7,209.96	52.821	7,209.96	55.1023
7,464.84	89.9856	7,464.84	89.3719	7,464.84	89.3547	7,464.84	88.3091	7,464.84	88.361	7,464.84	85.348	7,464.84	85.6407	7,464.84	81.609	7,464.84	80.7423	7,464.84	77.7597	7,464.84	78.3819	7,464.84	73.0982	7,464.84	73.9134	7,464.84	68.8196	7,464.84	67.7591	7,464.84	67.7818	7,464.84	75.1201	7,464.84	64.4487	7,464.84	66.143	7,464.84	64.5201	7,464.84	48.6672	7,464.84	57.7312	7,464.84	57.3201	7,464.84	59.3365	7,464.84	56.589	7,464.84	59.7217	7,464.84	52.975	7,464.84	58.2255	7,464.84	56.7426	7,464.84	53.8249	7,464.84	56.1593	7,464.84	54.2193	7,464.84	33.4085	7,464.84	53.2898	7,464.84	54.4105	7,464.84	52.9356
7,728.52	89.8381	7,728.52	89.1872	7,728.52	88.9777	7,728.52	88.0713	7,728.52	88.2574	7,728.52	85.0393	7,728.52	85.1531	7,728.52	81.1618	7,728.52	80.4593	7,728.52	77.7843	7,728.52	78.2031	7,728.52	72.296	7,728.52	71.2549	7,728.52	68.7198	7,728.52	67.7242	7,728.52	68.7146	7,728.52	75.5795	7,728.52	64.6955	7,728.52	60.6772	7,728.52	63.1256	7,728.52	55.2979	7,728.52	59.3788	7,728.52	56.7041	7,728.52	60.6827	7,728.52	59.5023	7,728.52	59.9492	7,728.52	55.4351	7,728.52	58.9804	7,728.52	56.2541	7,728.52	55.6946	7,728.52	55.595	7,728.52	54.4824	7,728.52	32.3151	7,728.52	47.179	7,728.52	48.409	7,728.52	57.2929
8,000.98	90.0648	8,000.98	89.4219	8,000.98	89.1368	8,000.98	88.3182	8,000.98	88.2056	8,000.98	84.5021	8,000.98	85.1513	8,000.98	81.7181	8,000.98	81.2923	8,000.98	76.5659	8,000.98	78.3769	8,000.98	73.6787	8,000.98	72.8611	8,000.98	70.6375	8,000.98	67.2355	8,000.98	68.3851	8,000.98	72.7746	8,000.98	65.2966	8,000.98	66.328	8,000.98	63.0328	8,000.98	61.6763	8,000.98	59.6619	8,000.98	53.4279	8,000.98	59.0355	8,000.98	56.0964	8,000.98	58.3782	8,000.98	48.0577	8,000.98	57.5971	8,000.98	56.5497	8,000.98	55.7568	8,000.98	51.5695	8,000.98	54.0005	8,000.98	48.681	8,000.98	56.6186	8,000.98	56.3175	8,000.98	54.8683
8,282.23	90.283	8,282.23	89.7488	8,282.23	89.5966	8,282.23	88.4042	8,282.23	88.0894	8,282.23	84.1008	8,282.23	84.9657	8,282.23	81.4185	8,282.23	81.1267	8,282.23	76.6172	8,282.23	78.9681	8,282.23	72.856	8,282.23	75.024	8,282.23	71.2521	8,282.23	67.3413	8,282.23	67.8588	8,282.23	67.6642	8,282.23	63.372	8,282.23	64.081	8,282.23	62.1284	8,282.23	58.9723	8,282.23	56.3457	8,282.23	55.1223	8,282.23	59.1843	8,282.23	51.6358	8,282.23	59.2361	8,282.23	36.0926	8,282.23	54.839	8,282.23	50.3658	8,282.23	56.0289	8,282.23	54.4799	8,282.23	56.1014	8,282.23	47.714	8,282.23	55.7772	8,282.23	54.6899	8,282.23	47.3857
8,575.2	90.0413	8,575.2	89.6833	8,575.2	89.7246	8,575.2	87.935	8,575.2	88.1837	8,575.2	84.2199	8,575.2	84.4174	8,575.2	80.5337	8,575.2	80.9409	8,575.2	75.8912	8,575.2	78.2039	8,575.2	74.0388	8,575.2	73.4677	8,575.2	69.3387	8,575.2	68.0362	8,575.2	67.0567	8,575.2	61.5418	8,575.2	63.3807	8,575.2	63.0692	8,575.2	60.9431	8,575.2	55.6887	8,575.2	56.4275	8,575.2	53.223	8,575.2	58.1994	8,575.2	48.3049	8,575.2	58.0165	8,575.2	47.9048	8,575.2	55.558	8,575.2	52.3709	8,575.2	56.4221	8,575.2	48.1127	8,575.2	54.6168	8,575.2	38.3749	8,575.2	55.2067	8,575.2	48.7464	8,575.2	44.2906
8,876.95	89.6694	8,876.95	89.4804	8,876.95	89.6537	8,876.95	87.3593	8,876.95	88.003	8,876.95	83.6919	8,876.95	84.4772	8,876.95	79.6805	8,876.95	80.9043	8,876.95	75.1678	8,876.95	77.6658	8,876.95	72.7192	8,876.95	73.0784	8,876.95	70.0305	8,876.95	71.3493	8,876.95	66.7235	8,876.95	67.6529	8,876.95	63.1544	8,876.95	65.8706	8,876.95	60.8252	8,876.95	56.0654	8,876.95	56.3175	8,876.95	57.0111	8,876.95	55.6126	8,876.95	53.9981	8,876.95	56.1058	8,876.95	54.5661	8,876.95	56.5216	8,876.95	55.4474	8,876.95	55.2977	8,876.95	50.7957	8,876.95	54.6786	8,876.95	45.8952	8,876.95	53.7958	8,876.95	44.7018	8,876.95	52.7561
9,190.43	89.4982	9,190.43	89.2067	9,190.43	89.6346	9,190.43	86.9398	9,190.43	87.9018	9,190.43	83.5893	9,190.43	84.4605	9,190.43	78.8479	9,190.43	80.998	9,190.43	75.8217	9,190.43	78.0771	9,190.43	72.2139	9,190.43	75.1028	9,190.43	69.1506	9,190.43	72.6058	9,190.43	66.8837	9,190.43	68.3493	9,190.43	63.1853	9,190.43	67.2843	9,190.43	60.1312	9,190.43	58.7435	9,190.43	57.0639	9,190.43	59.3323	9,190.43	56.0163	9,190.43	55.1552	9,190.43	54.5282	9,190.43	55.2164	9,190.43	56.2812	9,190.43	54.8154	9,190.43	55.5636	9,190.43	45.6503	9,190.43	56.0207	9,190.43	41.8661	9,190.43	55.6233	9,190.43	51.512	9,190.43	51.4837
9,512.7	89.4391	9,512.7	89.4128	9,512.7	89.6791	9,512.7	86.6504	9,512.7	87.7226	9,512.7	82.9962	9,512.7	84.4314	9,512.7	79.0302	9,512.7	80.7575	9,512.7	74.2976	9,512.7	77.8229	9,512.7	72.1282	9,512.7	75.3728	9,512.7	69.5247	9,512.7	70.8882	9,512.7	65.2111	9,512.7	65.3403	9,512.7	61.8965	9,512.7	65.8378	9,512.7	58.8958	9,512.7	63.9457	9,512.7	54.9911	9,512.7	60.3344	9,512.7	54.842	9,512.7	50.4061	9,512.7	54.9462	9,512.7	55.4949	9,512.7	53.4665	9,512.7	46.893	9,512.7	55.0207	9,512.7	47.8857	9,512.7	48.9023	9,512.7	41.2382	9,512.7	52.589	9,512.7	46.0035	9,512.7	51.5231
9,849.61	89.7813	9,849.61	89.7811	9,849.61	89.8753	9,849.61	86.8427	9,849.61	87.7728	9,849.61	82.5781	9,849.61	84.8611	9,849.61	79.3137	9,849.61	80.9575	9,849.61	75.628	9,849.61	78.3751	9,849.61	72.5242	9,849.61	76.1373	9,849.61	68.2299	9,849.61	70.6849	9,849.61	65.2621	9,849.61	59.6565	9,849.61	62.6892	9,849.61	63.4249	9,849.61	58.966	9,849.61	66.7793	9,849.61	53.0883	9,849.61	62.626	9,849.61	55.8412	9,849.61	48.8041	9,849.61	54.9465	9,849.61	48.8841	9,849.61	54.0404	9,849.61	49.0563	9,849.61	53.1616	9,849.61	45.3632	9,849.61	51.9784	9,849.61	42.103	9,849.61	52.5426	9,849.61	35.0617	9,849.61	50.9959
10,195.3	90.3145	10,195.3	90.1255	10,195.3	90.2119	10,195.3	87.146	10,195.3	88.1375	10,195.3	82.4022	10,195.3	84.8501	10,195.3	78.8026	10,195.3	81.1699	10,195.3	75.4529	10,195.3	78.5167	10,195.3	73.1184	10,195.3	76.1296	10,195.3	67.1722	10,195.3	71.2291	10,195.3	65.4449	10,195.3	59.6013	10,195.3	62.3048	10,195.3	62.8284	10,195.3	56.7019	10,195.3	66.8918	10,195.3	54.7555	10,195.3	63.7324	10,195.3	54.8375	10,195.3	56.9591	10,195.3	55.8166	10,195.3	51.954	10,195.3	53.5683	10,195.3	52.8281	10,195.3	53.0689	10,195.3	45.9346	10,195.3	52.1268	10,195.3	48.1198	10,195.3	54.529	10,195.3	51.4955	10,195.3	46.9659
10,555.7	90.8601	10,555.7	90.0473	10,555.7	90.649	10,555.7	87.0763	10,555.7	88.388	10,555.7	82.3295	10,555.7	85.1258	10,555.7	78.2589	10,555.7	81.8398	10,555.7	76.8698	10,555.7	78.8963	10,555.7	72.8226	10,555.7	76.8333	10,555.7	65.9557	10,555.7	70.9026	10,555.7	67.1871	10,555.7	59.2211	10,555.7	62.0423	10,555.7	64.2779	10,555.7	59.6425	10,555.7	65.6525	10,555.7	55.5087	10,555.7	64.6487	10,555.7	53.0885	10,555.7	54.7041	10,555.7	56.4656	10,555.7	53.4051	10,555.7	53.8729	10,555.7	52.0993	10,555.7	55.641	10,555.7	43.4078	10,555.7	54.8873	10,555.7	46.8939	10,555.7	46.9725	10,555.7	55.395	10,555.7	52.489
10,927.7	91.257	10,927.7	89.7535	10,927.7	90.9405	10,927.7	86.8715	10,927.7	88.7318	10,927.7	83.0125	10,927.7	85.5567	10,927.7	78.6888	10,927.7	81.8308	10,927.7	76.9453	10,927.7	78.4145	10,927.7	73.0419	10,927.7	77.2833	10,927.7	68.0988	10,927.7	69.8875	10,927.7	65.5786	10,927.7	55.9539	10,927.7	61.6606	10,927.7	63.581	10,927.7	57.5252	10,927.7	66.8689	10,927.7	56.3298	10,927.7	66.6602	10,927.7	54.1038	10,927.7	59.4486	10,927.7	55.3943	10,927.7	56.1916	10,927.7	55.1741	10,927.7	53.483	10,927.7	54.1905	10,927.7	48.2936	10,927.7	55.1652	10,927.7	49.5266	10,927.7	55.4117	10,927.7	51.6277	10,927.7	36.935
11,314.5	91.2843	11,314.5	89.8508	11,314.5	90.8903	11,314.5	87.0264	11,314.5	88.961	11,314.5	83.909	11,314.5	86.0303	11,314.5	80.0487	11,314.5	82.5035	11,314.5	76.9936	11,314.5	78.5192	11,314.5	72.7899	11,314.5	75.8581	11,314.5	68.2069	11,314.5	67.1984	11,314.5	63.8805	11,314.5	58.5719	11,314.5	58.7696	11,314.5	61.3777	11,314.5	54.8325	11,314.5	68.7683	11,314.5	54.4778	11,314.5	68.3449	11,314.5	44.9843	11,314.5	59.7367	11,314.5	55.7263	11,314.5	56.6633	11,314.5	54.7528	11,314.5	54.111	11,314.5	56.208	11,314.5	44.0349	11,314.5	41.2506	11,314.5	52.5971	11,314.5	49.6579	11,314.5	57.9878	11,314.5	54.8538
11,712.9	90.9655	11,712.9	89.9975	11,712.9	90.526	11,712.9	87.2833	11,712.9	89.1643	11,712.9	84.1425	11,712.9	86.6107	11,712.9	80.7232	11,712.9	83.1416	11,712.9	75.3788	11,712.9	79.5159	11,712.9	71.8496	11,712.9	75.2349	11,712.9	67.6232	11,712.9	66.3031	11,712.9	60.2311	11,712.9	63.7237	11,712.9	59.1123	11,712.9	57.8906	11,712.9	54.5158	11,712.9	70.3761	11,712.9	52.8337	11,712.9	69.3142	11,712.9	50.1451	11,712.9	60.145	11,712.9	55.1451	11,712.9	52.8108	11,712.9	51.997	11,712.9	52.7164	11,712.9	52.2325	11,712.9	44.2415	11,712.9	53.0579	11,712.9	49.4609	11,712.9	52.2887	11,712.9	60.5246	11,712.9	50.1052
12,126	91.1202	12,126	89.8011	12,126	90.345	12,126	87.2004	12,126	89.4761	12,126	83.8758	12,126	86.998	12,126	80.6654	12,126	82.7034	12,126	74.1594	12,126	79.7964	12,126	70.4453	12,126	73.526	12,126	66.9761	12,126	67.581	12,126	61.5069	12,126	61.546	12,126	58.9697	12,126	60.3805	12,126	53.8686	12,126	70.5597	12,126	51.6394	12,126	70.7209	12,126	54.7503	12,126	58.9654	12,126	54.9081	12,126	50.1896	12,126	51.8133	12,126	46.6699	12,126	52.018	12,126	40.2447	12,126	52.0412	12,126	46.6501	12,126	56.2863	12,126	60.0095	12,126	57.9738
12,553.7	90.9744	12,553.7	89.0198	12,553.7	90.2268	12,553.7	87.0323	12,553.7	89.485	12,553.7	84.1493	12,553.7	87.6449	12,553.7	80.8495	12,553.7	83.1384	12,553.7	74.3428	12,553.7	79.8364	12,553.7	69.9797	12,553.7	75.714	12,553.7	65.3164	12,553.7	67.6665	12,553.7	61.7337	12,553.7	59.4491	12,553.7	57.8413	12,553.7	56.3111	12,553.7	52.838	12,553.7	71.17	12,553.7	53.8664	12,553.7	71.1591	12,553.7	55.5417	12,553.7	58.3969	12,553.7	55.7057	12,553.7	53.1994	12,553.7	47.2386	12,553.7	53.8427	12,553.7	51.6837	12,553.7	51.9478	12,553.7	51.4986	12,553.7	58.0087	12,553.7	47.8155	12,553.7	55.6457	12,553.7	55.8078
12,996.1	91.2983	12,996.1	89.0112	12,996.1	90.7766	12,996.1	87.1148	12,996.1	89.9966	12,996.1	84.4338	12,996.1	88.0716	12,996.1	80.4228	12,996.1	83.5179	12,996.1	74.1944	12,996.1	79.1717	12,996.1	70.2175	12,996.1	75.0034	12,996.1	63.9226	12,996.1	66.8967	12,996.1	62.5637	12,996.1	65.0125	12,996.1	58.4663	12,996.1	56.2031	12,996.1	54.8848	12,996.1	71.3418	12,996.1	54.8439	12,996.1	71.5192	12,996.1	54.9371	12,996.1	56.5408	12,996.1	52.1113	12,996.1	51.3268	12,996.1	39.4515	12,996.1	45.8511	12,996.1	52.6483	12,996.1	52.8655	12,996.1	48.9351	12,996.1	52.4084	12,996.1	55.5467	12,996.1	54.9484	12,996.1	47.9365
13,453.1	91.4018	13,453.1	89.1991	13,453.1	90.9477	13,453.1	86.968	13,453.1	90.3141	13,453.1	84.1927	13,453.1	88.1284	13,453.1	79.2599	13,453.1	83.3903	13,453.1	73.1697	13,453.1	79.1627	13,453.1	69.2768	13,453.1	74.9412	13,453.1	64.663	13,453.1	66.6554	13,453.1	61.7451	13,453.1	67.3421	13,453.1	57.513	13,453.1	51.8407	13,453.1	56.4608	13,453.1	72.5032	13,453.1	52.335	13,453.1	73.2482	13,453.1	52.721	13,453.1	57.6617	13,453.1	43.2027	13,453.1	54.743	13,453.1	44.9787	13,453.1	52.7499	13,453.1	43.7656	13,453.1	45.6775	13,453.1	52.8346	13,453.1	46.0486	13,453.1	48.9942	13,453.1	48.0178	13,453.1	48.0831
13,927.7	90.9585	13,927.7	88.9455	13,927.7	90.6135	13,927.7	86.5829	13,927.7	90.1778	13,927.7	84.2252	13,927.7	88.0183	13,927.7	78.6212	13,927.7	83.0695	13,927.7	71.7206	13,927.7	77.9728	13,927.7	64.8776	13,927.7	71.9656	13,927.7	63.9174	13,927.7	67.9077	13,927.7	59.9573	13,927.7	63.1975	13,927.7	56.3902	13,927.7	55.3379	13,927.7	54.9939	13,927.7	72.6296	13,927.7	44.3281	13,927.7	73.034	13,927.7	46.9923	13,927.7	54.7312	13,927.7	39.8623	13,927.7	55.2347	13,927.7	44.2564	13,927.7	47.5476	13,927.7	46.6106	13,927.7	47.5732	13,927.7	43.5029	13,927.7	31.2753	13,927.7	47.8143	13,927.7	46.8366	13,927.7	39.9019
14,419.9	90.4528	14,419.9	88.7257	14,419.9	90.2707	14,419.9	86.0065	14,419.9	89.1633	14,419.9	83.2885	14,419.9	87.015	14,419.9	76.9581	14,419.9	81.9733	14,419.9	69.0916	14,419.9	75.9408	14,419.9	61.3712	14,419.9	71.467	14,419.9	59.4778	14,419.9	67.5775	14,419.9	56.7048	14,419.9	60.5227	14,419.9	50.7621	14,419.9	50.8679	14,419.9	48.5473	14,419.9	70.6128	14,419.9	45.1141	14,419.9	71.1273	14,419.9	45.193	14,419.9	47.4526	14,419.9	39.3723	14,419.9	52.7524	14,419.9	34.7276	14,419.9	43.8135	14,419.9	45.0454	14,419.9	42.7289	14,419.9	47.019	14,419.9	45.7028	14,419.9	42.2504	14,419.9	50.1377	14,419.9	30.0299
14,929.7	90.6231	14,929.7	88.9339	14,929.7	90.3423	14,929.7	85.2194	14,929.7	88.0213	14,929.7	81.1713	14,929.7	85.1295	14,929.7	74.0592	14,929.7	79.4454	14,929.7	64.7896	14,929.7	72.5908	14,929.7	58.0997	14,929.7	69.775	14,929.7	52.4909	14,929.7	62.5003	14,929.7	49.1814	14,929.7	61.2161	14,929.7	47.7407	14,929.7	50.4147	14,929.7	44.5143	14,929.7	67.7385	14,929.7	40.7094	14,929.7	68.7522	14,929.7	43.2066	14,929.7	39.5439	14,929.7	43.003	14,929.7	47.9255	14,929.7	19.3682	14,929.7	42.27	14,929.7	41.405	14,929.7	36.3502	14,929.7	43.7154	14,929.7	44.921	14,929.7	44.9314	14,929.7	43.0758	14,929.7	29.9376
15,454.1	91.2185	15,454.1	89.3867	15,454.1	90.3721	15,454.1	84.3105	15,454.1	86.7877	15,454.1	78.1112	15,454.1	82.5537	15,454.1	70.4965	15,454.1	76.6593	15,454.1	61.9161	15,454.1	69.2104	15,454.1	57.5642	15,454.1	64.7629	15,454.1	51.541	15,454.1	59.0557	15,454.1	47.4293	15,454.1	56.7936	15,454.1	42.1955	15,454.1	50.022	15,454.1	39.8697	15,454.1	61.5828	15,454.1	34.4919	15,454.1	64.236	15,454.1	29.756	15,454.1	45.2218	15,454.1	36.5907	15,454.1	44.4098	15,454.1	31.6612	15,454.1	45.2294	15,454.1	36.2054	15,454.1	36.438	15,454.1	49.2371	15,454.1	47.3231	15,454.1	53.8305	15,454.1	51.0471	15,454.1	45.7396
15,999	91.725	15,999	89.6034	15,999	90.2771	15,999	82.4878	15,999	84.9766	15,999	71.7137	15,999	78.2909	15,999	69.3596	15,999	71.7255	15,999	66.9779	15,999	65.7277	15,999	62.5678	15,999	58.7014	15,999	58.1907	15,999	54.9379	15,999	52.7839	15,999	48.076	15,999	50.5302	15,999	34.8297	15,999	42.2595	15,999	56.0403	15,999	43.7785	15,999	61.5817	15,999	30.3562	15,999	48.0297	15,999	37.679	15,999	43.1285	15,999	44.7677	15,999	44.3309	15,999	41.3036	15,999	38.4745	15,999	47.6931	15,999	41.6845	15,999	49.9636	15,999	45.6292	15,999	45.4563
16,564.5	92.2654	16,564.5	89.6886	16,564.5	90.1592	16,564.5	80.1922	16,564.5	82.5884	16,564.5	64.4443	16,564.5	66.6275	16,564.5	73.0677	16,564.5	68.7633	16,564.5	71.8369	16,564.5	67.5534	16,564.5	66.9269	16,564.5	63.6549	16,564.5	61.5654	16,564.5	58.5976	16,564.5	55.7619	16,564.5	54.8566	16,564.5	55.0085	16,564.5	51.7568	16,564.5	45.0606	16,564.5	67.1299	16,564.5	50.9319	16,564.5	67.4341	16,564.5	38.9401	16,564.5	46.877	16,564.5	47.0909	16,564.5	39.0523	16,564.5	50.3745	16,564.5	42.0624	16,564.5	47.6014	16,564.5	30.3629	16,564.5	48.5055	16,564.5	41.8456	16,564.5	45.4953	16,564.5	52.8469	16,564.5	44.2985
17,147.5	92.6412	17,147.5	89.6896	17,147.5	89.9519	17,147.5	77.0427	17,147.5	80.1376	17,147.5	73.7617	17,147.5	66.6282	17,147.5	76.2068	17,147.5	73.8678	17,147.5	73.3967	17,147.5	71.6069	17,147.5	68.0693	17,147.5	68.0867	17,147.5	64.0262	17,147.5	62.0313	17,147.5	56.4092	17,147.5	59.7186	17,147.5	55.1904	17,147.5	53.9584	17,147.5	46.6847	17,147.5	70.9043	17,147.5	52.6526	17,147.5	70.3813	17,147.5	42.2466	17,147.5	50.0221	17,147.5	47.8049	17,147.5	28.9137	17,147.5	51.4832	17,147.5	40.266	17,147.5	47.0697	17,147.5	21.515	17,147.5	43.4613	17,147.5	46.2932	17,147.5	44.104	17,147.5	54.7345	17,147.5	57.0039
17,753.9	92.8791	17,753.9	89.4785	17,753.9	89.7767	17,753.9	74.8246	17,753.9	78.8439	17,753.9	79.1077	17,753.9	77.2963	17,753.9	78.8022	17,753.9	77.706	17,753.9	75.0845	17,753.9	73.588	17,753.9	70.4339	17,753.9	69.2431	17,753.9	65.6534	17,753.9	65.043	17,753.9	59.3113	17,753.9	59.573	17,753.9	55.3915	17,753.9	56.8118	17,753.9	51.31	17,753.9	73.788	17,753.9	53.5337	17,753.9	72.6422	17,753.9	37.0541	17,753.9	52.6689	17,753.9	52.4044	17,753.9	34.2545	17,753.9	54.9987	17,753.9	41.033	17,753.9	52.6661	17,753.9	35.2882	17,753.9	43.4598	17,753.9	44.8072	17,753.9	41.5794	17,753.9	47.6595	17,753.9	52.9258
18,377.9	91.909	18,377.9	88.2528	18,377.9	88.575	18,377.9	77.5017	18,377.9	79.6137	18,377.9	81.4952	18,377.9	81.1656	18,377.9	80.2565	18,377.9	80.0217	18,377.9	75.7226	18,377.9	74.4097	18,377.9	71.4137	18,377.9	68.2615	18,377.9	66.6945	18,377.9	67.5515	18,377.9	60.0258	18,377.9	58.5461	18,377.9	55.1535	18,377.9	57.4973	18,377.9	53.8196	18,377.9	75.11	18,377.9	53.92	18,377.9	73.4212	18,377.9	28.0546	18,377.9	53.4818	18,377.9	53.9922	18,377.9	36.5326	18,377.9	56.0125	18,377.9	46.0045	18,377.9	53.3348	18,377.9	39.1031	18,377.9	37.1943	18,377.9	39.1481	18,377.9	48.2421	18,377.9	45.1652	18,377.9	52.4689
19,028.3	90.015	19,028.3	85.9442	19,028.3	86.0844	19,028.3	79.443	19,028.3	80.7926	19,028.3	82.1921	19,028.3	82.174	19,028.3	80.8152	19,028.3	80.4822	19,028.3	75.5867	19,028.3	74.1243	19,028.3	70.8446	19,028.3	67.0728	19,028.3	66.9944	19,028.3	62.6442	19,028.3	60.6019	19,028.3	61.5315	19,028.3	52.3346	19,028.3	58.199	19,028.3	54.1301	19,028.3	74.7586	19,028.3	53.6531	19,028.3	72.8341	19,028.3	32.4876	19,028.3	52.7791	19,028.3	54.248	19,028.3	33.3739	19,028.3	56.5997	19,028.3	42.4065	19,028.3	54.6683	19,028.3	38.8886	19,028.3	49.445	19,028.3	30.1709	19,028.3	51.907	19,028.3	41.2445	19,028.3	53.7186
19,699.2	87.1028	19,699.2	82.6828	19,699.2	82.5771	19,699.2	79.1474	19,699.2	81.4915	19,699.2	81.1395	19,699.2	81.5055	19,699.2	79.7105	19,699.2	79.6676	19,699.2	73.9167	19,699.2	73.2645	19,699.2	69.8468	19,699.2	67.1615	19,699.2	63.8352	19,699.2	60.2085	19,699.2	59.2382	19,699.2	57.5139	19,699.2	49.8925	19,699.2	56.966	19,699.2	53.5539	19,699.2	73.008	19,699.2	52.0448	19,699.2	71.1091	19,699.2	27.6403	19,699.2	46.4202	19,699.2	53.5634	19,699.2	42.5689	19,699.2	56.3689	19,699.2	42.2116	19,699.2	54.1146	19,699.2	36.8129	19,699.2	51.2983	19,699.2	32.4606	19,699.2	48.9559	19,699.2	38.9082	19,699.2	54.467
19,998	85.2538	19,998	80.5951	19,998	80.6453	19,998	78.444	19,998	81.6872	19,998	80.4017	19,998	81.1774	19,998	79.0929	19,998	79.1566	19,998	72.7744	19,998	72.7747	19,998	69.1144	19,998	67.5843	19,998	62.8936	19,998	57.8074	19,998	57.483	19,998	54.8712	19,998	47.5229	19,998	58.924	19,998	52.0676	19,998	72.134	19,998	50.5525	19,998	70.0118	19,998	31.3601	19,998	43.6282	19,998	52.6234	19,998	42.8906	19,998	56.952	19,998	33.9414	19,998	52.9738	19,998	40.0576	19,998	51.6356	19,998	23.2604	19,998	48.5429	19,998	34.1674	19,998	54.9399
