"SPL Horizontal"																																																																							
"On-Axis"		"10°"		"-10°"		"20°"		"-20°"		"30°"		"-30°"		"40°"		"-40°"		"50°"		"-50°"		"60°"		"-60°"		"70°"		"-70°"		"80°"		"-80°"		"90°"		"-90°"		"100°"		"-100°"		"110°"		"-110°"		"120°"		"-120°"		"130°"		"-130°"		"140°"		"-140°"		"150°"		"-150°"		"160°"		"-160°"		"170°"		"-170°"		"180°"	
"Frequency [Hz]"	"Sound Pessure Level [dB]  / [2.83V 1m] "	"Frequency [Hz]"	"Sound Pessure Level [dB]  / [2.83V 1m] "	"Frequency [Hz]"	"Sound Pessure Level [dB]  / [2.83V 1m] "	"Frequency [Hz]"	"Sound Pessure Level [dB]  / [2.83V 1m] "	"Frequency [Hz]"	"Sound Pessure Level [dB]  / [2.83V 1m] "	"Frequency [Hz]"	"Sound Pessure Level [dB]  / [2.83V 1m] "	"Frequency [Hz]"	"Sound Pessure Level [dB]  / [2.83V 1m] "	"Frequency [Hz]"	"Sound Pessure Level [dB]  / [2.83V 1m] "	"Frequency [Hz]"	"Sound Pessure Level [dB]  / [2.83V 1m] "	"Frequency [Hz]"	"Sound Pessure Level [dB]  / [2.83V 1m] "	"Frequency [Hz]"	"Sound Pessure Level [dB]  / [2.83V 1m] "	"Frequency [Hz]"	"Sound Pessure Level [dB]  / [2.83V 1m] "	"Frequency [Hz]"	"Sound Pessure Level [dB]  / [2.83V 1m] "	"Frequency [Hz]"	"Sound Pessure Level [dB]  / [2.83V 1m] "	"Frequency [Hz]"	"Sound Pessure Level [dB]  / [2.83V 1m] "	"Frequency [Hz]"	"Sound Pessure Level [dB]  / [2.83V 1m] "	"Frequency [Hz]"	"Sound Pessure Level [dB]  / [2.83V 1m] "	"Frequency [Hz]"	"Sound Pessure Level [dB]  / [2.83V 1m] "	"Frequency [Hz]"	"Sound Pessure Level [dB]  / [2.83V 1m] "	"Frequency [Hz]"	"Sound Pessure Level [dB]  / [2.83V 1m] "	"Frequency [Hz]"	"Sound Pessure Level [dB]  / [2.83V 1m] "	"Frequency [Hz]"	"Sound Pessure Level [dB]  / [2.83V 1m] "	"Frequency [Hz]"	"Sound Pessure Level [dB]  / [2.83V 1m] "	"Frequency [Hz]"	"Sound Pessure Level [dB]  / [2.83V 1m] "	"Frequency [Hz]"	"Sound Pessure Level [dB]  / [2.83V 1m] "	"Frequency [Hz]"	"Sound Pessure Level [dB]  / [2.83V 1m] "	"Frequency [Hz]"	"Sound Pessure Level [dB]  / [2.83V 1m] "	"Frequency [Hz]"	"Sound Pessure Level [dB]  / [2.83V 1m] "	"Frequency [Hz]"	"Sound Pessure Level [dB]  / [2.83V 1m] "	"Frequency [Hz]"	"Sound Pessure Level [dB]  / [2.83V 1m] "	"Frequency [Hz]"	"Sound Pessure Level [dB]  / [2.83V 1m] "	"Frequency [Hz]"	"Sound Pessure Level [dB]  / [2.83V 1m] "	"Frequency [Hz]"	"Sound Pessure Level [dB]  / [2.83V 1m] "	"Frequency [Hz]"	"Sound Pessure Level [dB]  / [2.83V 1m] "	"Frequency [Hz]"	"Sound Pessure Level [dB]  / [2.83V 1m] "	"Frequency [Hz]"	"Sound Pessure Level [dB]  / [2.83V 1m] "
20.5078	57.2462	20.5078	57.1622	20.5078	57.2313	20.5078	56.9941	20.5078	57.1151	20.5078	56.7734	20.5078	56.9078	20.5078	56.5561	20.5078	56.6374	20.5078	56.4286	20.5078	56.3592	20.5078	56.4988	20.5078	56.1666	20.5078	56.8584	20.5078	56.1848	20.5078	57.5294	20.5078	56.5273	20.5078	58.4467	20.5078	57.2257	20.5078	59.4964	20.5078	58.202	20.5078	60.5676	20.5078	59.3205	20.5078	61.5773	20.5078	60.4537	20.5078	62.471	20.5078	61.5116	20.5078	63.2149	20.5078	62.4388	20.5078	63.7881	20.5078	63.2034	20.5078	64.1775	20.5078	63.7871	20.5078	64.3751	20.5078	64.1798	20.5078	64.3763
23.4375	59.5053	23.4375	59.4274	23.4375	59.5039	23.4375	59.2909	23.4375	59.4224	23.4375	59.1405	23.4375	59.2797	23.4375	59.0506	23.4375	59.1196	23.4375	59.1212	23.4375	59.0173	23.4375	59.4506	23.4375	59.077	23.4375	60.0851	23.4375	59.4029	23.4375	60.9881	23.4375	60.0463	23.4375	62.061	23.4375	60.9687	23.4375	63.1937	23.4375	62.0656	23.4375	64.2972	23.4375	63.2204	23.4375	65.3107	23.4375	64.3402	23.4375	66.1953	23.4375	65.3628	23.4375	66.9266	23.4375	66.2492	23.4375	67.4891	23.4375	66.9759	23.4375	67.8724	23.4375	67.5283	23.4375	68.0701	23.4375	67.8976	23.4375	68.0788
26.3672	63.2763	26.3672	63.2374	26.3672	63.2702	26.3672	63.1705	26.3672	63.2187	26.3672	63.111	26.3672	63.1384	26.3672	63.1131	26.3672	63.0652	26.3672	63.2445	26.3672	63.0557	26.3672	63.5685	26.3672	63.1812	26.3672	64.1168	26.3672	63.5091	26.3672	64.8718	26.3672	64.0727	26.3672	65.7729	26.3672	64.8514	26.3672	66.7424	26.3672	65.7788	26.3672	67.7076	26.3672	66.7715	26.3672	68.6115	26.3672	67.7535	26.3672	69.4132	26.3672	68.6666	26.3672	70.0841	26.3672	69.4699	26.3672	70.6048	26.3672	70.1357	26.3672	70.962	26.3672	70.6457	26.3672	71.1473	26.3672	70.9882	26.3672	71.1563
29.2969	66.8979	29.2969	66.8747	29.2969	66.8984	29.2969	66.8424	29.2969	66.8762	29.2969	66.8286	29.2969	66.8446	29.2969	66.8738	29.2969	66.8317	29.2969	67.0268	29.2969	66.8787	29.2969	67.3322	29.2969	67.0356	29.2969	67.8139	29.2969	67.3485	29.2969	68.4633	29.2969	67.8416	29.2969	69.2402	29.2969	68.505	29.2969	70.0866	29.2969	69.2959	29.2969	70.9428	29.2969	70.1537	29.2969	71.757	29.2969	71.0169	29.2969	72.4886	29.2969	71.8325	29.2969	73.1073	29.2969	72.5598	29.2969	73.5914	29.2969	73.1689	29.2969	73.9257	29.2969	73.6388	29.2969	74.1004	29.2969	73.9555	29.2969	74.1106
32.2266	70.7005	32.2266	70.6983	32.2266	70.6999	32.2266	70.7029	32.2266	70.6965	32.2266	70.7339	32.2266	70.7005	32.2266	70.8189	32.2266	70.7317	32.2266	70.9899	32.2266	70.8188	32.2266	71.2757	32.2266	70.9945	32.2266	71.6932	32.2266	71.2887	32.2266	72.239	32.2266	71.7179	32.2266	72.8889	32.2266	72.2774	32.2266	73.6034	32.2266	72.9409	32.2266	74.3371	32.2266	73.6666	32.2266	75.046	32.2266	74.4072	32.2266	75.6925	32.2266	75.1179	32.2266	76.2458	32.2266	75.7605	32.2266	76.6829	32.2266	76.3048	32.2266	76.9868	32.2266	76.7284	32.2266	77.1466	32.2266	77.0155	32.2266	77.1564
35.1563	74.4735	35.1563	74.4774	35.1563	74.4765	35.1563	74.495	35.1563	74.4865	35.1563	74.5396	35.1563	74.5103	35.1563	74.6298	35.1563	74.5613	35.1563	74.787	35.1563	74.6583	35.1563	75.0313	35.1563	74.8229	35.1563	75.3755	35.1563	75.0751	35.1563	75.8203	35.1563	75.4278	35.1563	76.352	35.1563	75.8811	35.1563	76.9441	35.1563	76.4202	35.1563	77.5625	35.1563	77.0177	35.1563	78.1706	35.1563	77.6382	35.1563	78.7339	35.1563	78.2446	35.1563	79.2226	35.1563	78.8019	35.1563	79.6126	35.1563	79.2805	35.1563	79.8859	35.1563	79.6568	35.1563	80.0304	35.1563	79.9136	35.1563	80.0399
38.0859	77.7688	38.0859	77.7797	38.0859	77.7712	38.0859	77.8085	38.0859	77.7869	38.0859	77.8644	38.0859	77.8208	38.0859	77.9599	38.0859	77.8819	38.0859	78.1097	38.0859	77.9832	38.0859	78.3276	38.0859	78.1392	38.0859	78.6232	38.0859	78.3639	38.0859	78.9983	38.0859	78.6667	38.0859	79.4448	38.0859	79.0491	38.0859	79.9445	38.0859	79.5021	38.0859	80.4716	38.0859	80.0066	38.0859	80.9964	38.0859	80.5361	38.0859	81.4885	38.0859	81.06	38.0859	81.92	38.0859	81.5474	38.0859	82.2673	38.0859	81.9705	38.0859	82.5123	38.0859	82.3061	38.0859	82.6422	38.0859	82.5367	38.0859	82.6505
41.0156	80.4968	41.0156	80.5119	41.0156	80.5002	41.0156	80.5486	41.0156	80.522	41.0156	80.6129	41.0156	80.565	41.0156	80.7131	41.0156	80.635	41.0156	80.8583	41.0156	80.74	41.0156	81.0574	41.0156	80.8894	41.0156	81.3166	41.0156	81.0923	41.0156	81.6373	41.0156	81.355	41.0156	82.0143	41.0156	81.679	41.0156	82.435	41.0156	82.0591	41.0156	82.8805	41.0156	82.4824	41.0156	83.3273	41.0156	82.9293	41.0156	83.7502	41.0156	83.3756	41.0156	84.1242	41.0156	83.7953	41.0156	84.4275	41.0156	84.1634	41.0156	84.6425	41.0156	84.4579	41.0156	84.7565	41.0156	84.6617	41.0156	84.7632
43.9453	82.3453	43.9453	82.3651	43.9453	82.3461	43.9453	82.4075	43.9453	82.3676	43.9453	82.4762	43.9453	82.4116	43.9453	82.5764	43.9453	82.4819	43.9453	82.7141	43.9453	82.5839	43.9453	82.8951	43.9453	82.7236	43.9453	83.1234	43.9453	82.907	43.9453	83.4004	43.9453	83.1386	43.9453	83.7226	43.9453	83.4195	43.9453	84.0813	43.9453	83.7461	43.9453	84.4622	43.9453	84.1091	43.9453	84.8467	43.9453	84.4936	43.9453	85.2133	43.9453	84.88	43.9453	85.5401	43.9453	85.2461	43.9453	85.8069	43.9453	85.5697	43.9453	85.9968	43.9453	85.8305	43.9453	86.0977	43.9453	86.0121	43.9453	86.103
46.875	83.3778	46.875	83.4022	46.875	83.3766	46.875	83.4507	46.875	83.3985	46.875	83.5253	46.875	83.4449	46.875	83.6286	46.875	83.5177	46.875	83.7639	46.875	83.6199	46.875	83.9342	46.875	83.755	46.875	84.1417	46.875	83.9262	46.875	84.3866	46.875	84.136	46.875	84.6664	46.875	84.3845	46.875	84.9746	46.875	84.6691	46.875	85.3007	46.875	84.9827	46.875	85.63	46.875	85.3139	46.875	85.9452	46.875	85.6473	46.875	86.2275	46.875	85.9645	46.875	86.459	46.875	86.2465	46.875	86.6243	46.875	86.475	46.875	86.712	46.875	86.6349	46.875	86.7157
49.8047	83.8681	49.8047	83.8933	49.8047	83.8676	49.8047	83.9433	49.8047	83.8918	49.8047	84.0191	49.8047	83.9412	49.8047	84.1214	49.8047	84.0166	49.8047	84.2516	49.8047	84.1191	49.8047	84.4108	49.8047	84.2503	49.8047	84.5996	49.8047	84.4112	49.8047	84.8176	49.8047	84.6027	49.8047	85.0626	49.8047	84.8242	49.8047	85.3297	49.8047	85.0735	49.8047	85.6109	49.8047	85.345	49.8047	85.8947	49.8047	85.6302	49.8047	86.167	49.8047	85.9168	49.8047	86.412	49.8047	86.19	49.8047	86.6138	49.8047	86.4335	49.8047	86.7587	49.8047	86.6315	49.8047	86.8361	49.8047	86.7703	49.8047	86.8401
52.7344	84.1497	52.7344	84.1758	52.7344	84.1491	52.7344	84.2275	52.7344	84.1743	52.7344	84.3043	52.7344	84.2251	52.7344	84.4059	52.7344	84.3014	52.7344	84.5318	52.7344	84.4028	52.7344	84.6817	52.7344	84.5293	52.7344	84.8549	52.7344	84.6803	52.7344	85.0502	52.7344	84.8554	52.7344	85.2654	52.7344	85.0534	52.7344	85.4967	52.7344	85.2719	52.7344	85.7379	52.7344	85.5067	52.7344	85.9803	52.7344	85.7514	52.7344	86.2126	52.7344	85.9964	52.7344	86.4219	52.7344	86.2299	52.7344	86.5948	52.7344	86.4385	52.7344	86.7192	52.7344	86.6087	52.7344	86.7856	52.7344	86.7283	52.7344	86.7888
55.6641	84.3397	55.6641	84.3661	55.6641	84.3393	55.6641	84.4178	55.6641	84.3649	55.6641	84.4938	55.6641	84.4161	55.6641	84.5927	55.6641	84.492	55.6641	84.713	55.6641	84.5914	55.6641	84.8531	55.6641	84.7128	55.6641	85.0114	55.6641	84.8548	55.6641	85.1861	55.6641	85.0156	55.6641	85.3752	55.6641	85.1937	55.6641	85.5756	55.6641	85.3865	55.6641	85.7826	55.6641	85.5908	55.6641	85.9896	55.6641	85.8012	55.6641	86.1879	55.6641	86.0107	55.6641	86.3669	55.6641	86.2097	55.6641	86.5154	55.6641	86.3873	55.6641	86.6228	55.6641	86.5321	55.6641	86.6808	55.6641	86.6337	55.6641	86.6846
58.5938	84.529	58.5938	84.5521	58.5938	84.5322	58.5938	84.6009	58.5938	84.5617	58.5938	84.6737	58.5938	84.6166	58.5938	84.7684	58.5938	84.6953	58.5938	84.8826	58.5938	84.7955	58.5938	85.0138	58.5938	84.9147	58.5938	85.1594	58.5938	85.0502	58.5938	85.3171	58.5938	85.1996	58.5938	85.4846	58.5938	85.3604	58.5938	85.6591	58.5938	85.5302	58.5938	85.8372	58.5938	85.706	58.5938	86.0137	58.5938	85.884	58.5938	86.1822	58.5938	86.059	58.5938	86.3344	58.5938	86.2238	58.5938	86.4612	58.5938	86.3701	58.5938	86.5538	58.5938	86.4888	58.5938	86.6052	58.5938	86.5713	58.5938	86.6111
61.5234	84.6695	61.5234	84.6928	61.5234	84.6722	61.5234	84.7411	61.5234	84.701	61.5234	84.8124	61.5234	84.7545	61.5234	84.904	61.5234	84.8309	61.5234	85.0127	61.5234	84.9271	61.5234	85.1354	61.5234	85.0401	61.5234	85.2687	61.5234	85.1664	61.5234	85.41	61.5234	85.3028	61.5234	85.5567	61.5234	85.4466	61.5234	85.7066	61.5234	85.5952	61.5234	85.8571	61.5234	85.7462	61.5234	86.0045	61.5234	85.8966	61.5234	86.1441	61.5234	86.0427	61.5234	86.2698	61.5234	86.1793	61.5234	86.3745	61.5234	86.3001	61.5234	86.4511	61.5234	86.398	61.5234	86.4937	61.5234	86.466	61.5234	86.4988
64.4531	84.8662	64.4531	84.889	64.4531	84.8686	64.4531	84.9358	64.4531	84.896	64.4531	85.0042	64.4531	84.9472	64.4531	85.0912	64.4531	85.0198	64.4531	85.1929	64.4531	85.1105	64.4531	85.3056	64.4531	85.2155	64.4531	85.4256	64.4531	85.331	64.4531	85.5497	64.4531	85.4532	64.4531	85.6753	64.4531	85.579	64.4531	85.8003	64.4531	85.7057	64.4531	85.923	64.4531	85.8314	64.4531	86.041	64.4531	85.9539	64.4531	86.1514	64.4531	86.0709	64.4531	86.2501	64.4531	86.179	64.4531	86.3321	64.4531	86.274	64.4531	86.3921	64.4531	86.3507	64.4531	86.4255	64.4531	86.4039	64.4531	86.4295
67.3828	85.1435	67.3828	85.1628	67.3828	85.1479	67.3828	85.2045	67.3828	85.1757	67.3828	85.2662	67.3828	85.2255	67.3828	85.3445	67.3828	85.2947	67.3828	85.4356	67.3828	85.3796	67.3828	85.5351	67.3828	85.4762	67.3828	85.6393	67.3828	85.5802	67.3828	85.7446	67.3828	85.6876	67.3828	85.8486	67.3828	85.7951	67.3828	85.9494	67.3828	85.9001	67.3828	86.046	67.3828	86.0009	67.3828	86.1372	67.3828	86.0961	67.3828	86.2216	67.3828	86.1845	67.3828	86.2969	67.3828	86.2645	67.3828	86.36	67.3828	86.3334	67.3828	86.4071	67.3828	86.3879	67.3828	86.4347	67.3828	86.4247	67.3828	86.4408
70.3125	85.2951	70.3125	85.3051	70.3125	85.3088	70.3125	85.3377	70.3125	85.3457	70.3125	85.3906	70.3125	85.4042	70.3125	85.4602	70.3125	85.481	70.3125	85.5424	70.3125	85.5721	70.3125	85.6329	70.3125	85.673	70.3125	85.7275	70.3125	85.7786	70.3125	85.8227	70.3125	85.8845	70.3125	85.9159	70.3125	85.9868	70.3125	86.0054	70.3125	86.0827	70.3125	86.0906	70.3125	86.1703	70.3125	86.1709	70.3125	86.2486	70.3125	86.246	70.3125	86.317	70.3125	86.3144	70.3125	86.3749	70.3125	86.3741	70.3125	86.4212	70.3125	86.4222	70.3125	86.4541	70.3125	86.4557	70.3125	86.4718	70.3125	86.4725
73.2422	85.5852	73.2422	85.5983	73.2422	85.5959	73.2422	85.6341	73.2422	85.6301	73.2422	85.6897	73.2422	85.6861	73.2422	85.7615	73.2422	85.7607	73.2422	85.845	73.2422	85.8495	73.2422	85.9351	73.2422	85.9475	73.2422	86.0274	73.2422	86.0496	73.2422	86.1178	73.2422	86.1506	73.2422	86.2034	73.2422	86.2463	73.2422	86.2822	73.2422	86.3335	73.2422	86.3536	73.2422	86.4102	73.2422	86.4178	73.2422	86.4757	73.2422	86.475	73.2422	86.5299	73.2422	86.5254	73.2422	86.5733	73.2422	86.5682	73.2422	86.6063	73.2422	86.6024	73.2422	86.6286	73.2422	86.6265	73.2422	86.6398	73.2422	86.6391
76.1719	85.8465	76.1719	85.8605	76.1719	85.8552	76.1719	85.8959	76.1719	85.8863	76.1719	85.9499	76.1719	85.9381	76.1719	86.0184	76.1719	86.0073	76.1719	86.0968	76.1719	86.0896	76.1719	86.18	76.1719	86.1798	76.1719	86.2631	76.1719	86.2723	76.1719	86.3417	76.1719	86.362	76.1719	86.4129	76.1719	86.4444	76.1719	86.4747	76.1719	86.5162	76.1719	86.5268	76.1719	86.5755	76.1719	86.5698	76.1719	86.622	76.1719	86.6052	76.1719	86.6564	76.1719	86.6345	76.1719	86.6805	76.1719	86.6586	76.1719	86.696	76.1719	86.6781	76.1719	86.7042	76.1719	86.6928	76.1719	86.7062	76.1719	86.7023
79.1016	85.9756	79.1016	85.9905	79.1016	85.9842	79.1016	86.0276	79.1016	86.0161	79.1016	86.0838	79.1016	86.0695	79.1016	86.1552	79.1016	86.1409	79.1016	86.2365	79.1016	86.2258	79.1016	86.3224	79.1016	86.3188	79.1016	86.4077	79.1016	86.4139	79.1016	86.4875	79.1016	86.5055	79.1016	86.5582	79.1016	86.5886	79.1016	86.6179	79.1016	86.6596	79.1016	86.6658	79.1016	86.7163	79.1016	86.7029	79.1016	86.7582	79.1016	86.731	79.1016	86.7863	79.1016	86.7522	79.1016	86.8029	79.1016	86.7688	79.1016	86.8106	79.1016	86.7822	79.1016	86.8118	79.1016	86.7932	79.1016	86.8085	79.1016	86.802
82.0313	86.323	82.0313	86.3429	82.0313	86.3233	82.0313	86.3814	82.0313	86.3438	82.0313	86.4355	82.0313	86.383	82.0313	86.5011	82.0313	86.438	82.0313	86.5733	82.0313	86.5047	82.0313	86.6466	82.0313	86.578	82.0313	86.7158	82.0313	86.6522	82.0313	86.7762	82.0313	86.722	82.0313	86.8242	82.0313	86.7825	82.0313	86.8578	82.0313	86.8301	82.0313	86.8769	82.0313	86.8628	82.0313	86.883	82.0313	86.8805	82.0313	86.8792	82.0313	86.8851	82.0313	86.8693	82.0313	86.8799	82.0313	86.8574	82.0313	86.869	82.0313	86.8471	82.0313	86.8567	82.0313	86.8412	82.0313	86.8465	82.0313	86.8409
84.9609	86.7242	84.9609	86.7492	84.9609	86.7129	84.9609	86.7862	84.9609	86.7155	84.9609	86.8322	84.9609	86.7307	84.9609	86.8832	84.9609	86.7559	84.9609	86.9344	84.9609	86.7875	84.9609	86.9802	84.9609	86.821	84.9609	87.0158	84.9609	86.8515	84.9609	87.0364	84.9609	86.8743	84.9609	87.039	84.9609	86.8854	84.9609	87.0223	84.9609	86.8822	84.9609	86.987	84.9609	86.8641	84.9609	86.9364	84.9609	86.8324	84.9609	86.8755	84.9609	86.791	84.9609	86.8109	84.9609	86.7453	84.9609	86.7497	84.9609	86.702	84.9609	86.6986	84.9609	86.6675	84.9609	86.6626	84.9609	86.6473	84.9609	86.6452
87.8906	86.6238	87.8906	86.6378	87.8906	86.6319	87.8906	86.6725	87.8906	86.6618	87.8906	86.7246	87.8906	86.7113	87.8906	86.7899	87.8906	86.777	87.8906	86.8626	87.8906	86.8538	87.8906	86.9368	87.8906	86.9359	87.8906	87.0064	87.8906	87.017	87.8906	87.0663	87.8906	87.0911	87.8906	87.1124	87.8906	87.153	87.8906	87.1426	87.8906	87.1986	87.8906	87.1569	87.8906	87.2261	87.8906	87.1575	87.8906	87.2355	87.8906	87.1482	87.8906	87.229	87.8906	87.1341	87.8906	87.2106	87.8906	87.1203	87.8906	87.1854	87.8906	87.1112	87.8906	87.1586	87.8906	87.11	87.8906	87.1349	87.8906	87.118
90.8203	86.6965	90.8203	86.7109	90.8203	86.705	90.8203	86.747	90.8203	86.7363	90.8203	86.8017	90.8203	86.7883	90.8203	86.8706	90.8203	86.8576	90.8203	86.9484	90.8203	86.9392	90.8203	87.0287	90.8203	87.0272	90.8203	87.1053	90.8203	87.1151	90.8203	87.1725	90.8203	87.1966	90.8203	87.2256	90.8203	87.2656	90.8203	87.2619	90.8203	87.3176	90.8203	87.2806	90.8203	87.3501	90.8203	87.2835	90.8203	87.3626	90.8203	87.2744	90.8203	87.3569	90.8203	87.2585	90.8203	87.3374	90.8203	87.2418	90.8203	87.3094	90.8203	87.2298	90.8203	87.2792	90.8203	87.2265	90.8203	87.2526	90.8203	87.2342
93.75	87.0157	93.75	87.0271	93.75	87.0208	93.75	87.0536	93.75	87.0424	93.75	87.0928	93.75	87.0792	93.75	87.1408	93.75	87.1286	93.75	87.1931	93.75	87.1866	93.75	87.2443	93.75	87.2483	93.75	87.2891	93.75	87.308	93.75	87.3226	93.75	87.3599	93.75	87.3407	93.75	87.3985	93.75	87.3413	93.75	87.4193	93.75	87.3245	93.75	87.4198	93.75	87.2926	93.75	87.3999	93.75	87.2507	93.75	87.3621	93.75	87.2053	93.75	87.3115	93.75	87.1642	93.75	87.2551	93.75	87.1345	93.75	87.201	93.75	87.1219	93.75	87.1571	93.75	87.1295
96.6797	87.335	96.6797	87.3555	96.6797	87.328	96.6797	87.388	96.6797	87.3344	96.6797	87.4298	96.6797	87.3527	96.6797	87.4771	96.6797	87.3804	96.6797	87.5246	96.6797	87.4134	96.6797	87.5668	96.6797	87.4471	96.6797	87.5976	96.6797	87.4761	96.6797	87.6119	96.6797	87.4949	96.6797	87.6053	96.6797	87.4989	96.6797	87.5757	96.6797	87.4845	96.6797	87.5234	96.6797	87.4505	96.6797	87.4517	96.6797	87.398	96.6797	87.367	96.6797	87.3311	96.6797	87.2778	96.6797	87.2568	96.6797	87.1941	96.6797	87.184	96.6797	87.126	96.6797	87.1223	96.6797	87.0816	96.6797	87.0808	96.6797	87.0662
102.539	87.5684	102.539	87.5729	102.539	87.5772	102.539	87.5898	102.539	87.5987	102.539	87.6171	102.539	87.6315	102.539	87.6516	102.539	87.6727	102.539	87.6888	102.539	87.7184	102.539	87.7235	102.539	87.7638	102.539	87.7501	102.539	87.8035	102.539	87.7631	102.539	87.8316	102.539	87.7583	102.539	87.8431	102.539	87.7332	102.539	87.8339	102.539	87.6877	102.539	87.8021	102.539	87.625	102.539	87.7483	102.539	87.5512	102.539	87.6763	102.539	87.4749	102.539	87.5926	102.539	87.4061	102.539	87.5065	102.539	87.3549	102.539	87.4283	102.539	87.3292	102.539	87.368	102.539	87.3335
105.469	87.6777	105.469	87.6783	105.469	87.6883	105.469	87.6892	105.469	87.7101	105.469	87.7083	105.469	87.7419	105.469	87.7326	105.469	87.7812	105.469	87.7579	105.469	87.8246	105.469	87.7794	105.469	87.8675	105.469	87.792	105.469	87.9043	105.469	87.791	105.469	87.9294	105.469	87.7726	105.469	87.9372	105.469	87.7348	105.469	87.9234	105.469	87.6783	105.469	87.8856	105.469	87.6067	105.469	87.8241	105.469	87.5268	105.469	87.7423	105.469	87.4476	105.469	87.6469	105.469	87.3797	105.469	87.5473	105.469	87.333	105.469	87.4544	105.469	87.3156	105.469	87.3794	105.469	87.3313
108.398	87.8243	108.398	87.8372	108.398	87.8211	108.398	87.8588	108.398	87.8279	108.398	87.8867	108.398	87.8441	108.398	87.9177	108.398	87.8677	108.398	87.9478	108.398	87.8958	108.398	87.972	108.398	87.9242	108.398	87.9853	108.398	87.9481	108.398	87.9829	108.398	87.9619	108.398	87.961	108.398	87.9606	108.398	87.9175	108.398	87.9399	108.398	87.8531	108.398	87.8977	108.398	87.7711	108.398	87.8345	108.398	87.6783	108.398	87.7538	108.398	87.5839	108.398	87.6625	108.398	87.4987	108.398	87.5703	108.398	87.4336	108.398	87.4881	108.398	87.3973	108.398	87.4268	108.398	87.3949
111.328	88.0356	111.328	88.0512	111.328	88.029	111.328	88.0749	111.328	88.0315	111.328	88.1045	111.328	88.0425	111.328	88.137	111.328	88.0599	111.328	88.1682	111.328	88.081	111.328	88.1932	111.328	88.1019	111.328	88.2066	111.328	88.1179	111.328	88.2033	111.328	88.1238	111.328	88.1792	111.328	88.1147	111.328	88.1319	111.328	88.0867	111.328	88.0618	111.328	88.0379	111.328	87.9723	111.328	87.9689	111.328	87.8701	111.328	87.8837	111.328	87.765	111.328	87.7896	111.328	87.6682	111.328	87.6965	111.328	87.5915	111.328	87.6158	111.328	87.5446	111.328	87.5585	111.328	87.5333
117.188	88.3465	117.188	88.3411	117.188	88.3584	117.188	88.3422	117.188	88.3762	117.188	88.3489	117.188	88.3985	117.188	88.3595	117.188	88.4235	117.188	88.3709	117.188	88.4486	117.188	88.3789	117.188	88.4701	117.188	88.3788	117.188	88.484	117.188	88.3656	117.188	88.4855	117.188	88.3351	117.188	88.4703	117.188	88.285	117.188	88.4346	117.188	88.2153	117.188	88.3768	117.188	88.1293	117.188	88.2974	117.188	88.0336	117.188	88.2003	117.188	87.9379	117.188	88.0927	117.188	87.8535	117.188	87.9843	117.188	87.7915	117.188	87.8868	117.188	87.7613	117.188	87.8116	117.188	87.7681
120.117	88.4943	120.117	88.479	120.117	88.5143	120.117	88.4684	120.117	88.5384	120.117	88.4621	120.117	88.5656	120.117	88.4589	120.117	88.5943	120.117	88.4566	120.117	88.6224	120.117	88.452	120.117	88.6466	120.117	88.4411	120.117	88.6629	120.117	88.4198	120.117	88.6668	120.117	88.3844	120.117	88.6536	120.117	88.3328	120.117	88.6196	120.117	88.2653	120.117	88.5626	120.117	88.185	120.117	88.4828	120.117	88.0984	120.117	88.3836	120.117	88.0146	120.117	88.2717	120.117	87.9442	120.117	88.1566	120.117	87.8976	120.117	88.0497	120.117	87.8833	120.117	87.9627	120.117	87.9053
125.977	88.6258	125.977	88.6213	125.977	88.6316	125.977	88.6175	125.977	88.6389	125.977	88.6133	125.977	88.6477	125.977	88.6069	125.977	88.6569	125.977	88.5958	125.977	88.665	125.977	88.5769	125.977	88.6693	125.977	88.5463	125.977	88.6662	125.977	88.5007	125.977	88.6513	125.977	88.4373	125.977	88.6199	125.977	88.3551	125.977	88.5682	125.977	88.2558	125.977	88.494	125.977	88.144	125.977	88.3976	125.977	88.0278	125.977	88.2824	125.977	87.9175	125.977	88.1555	125.977	87.8254	125.977	88.0273	125.977	87.7627	125.977	87.9099	125.977	87.7385	125.977	87.8161	125.977	87.7567
128.906	88.608	128.906	88.6073	128.906	88.6097	128.906	88.6071	128.906	88.6125	128.906	88.6062	128.906	88.6161	128.906	88.6026	128.906	88.6194	128.906	88.5934	128.906	88.6205	128.906	88.575	128.906	88.6167	128.906	88.543	128.906	88.6042	128.906	88.4933	128.906	88.5785	128.906	88.4228	128.906	88.535	128.906	88.3302	128.906	88.4702	128.906	88.2169	128.906	88.382	128.906	88.0881	128.906	88.2714	128.906	87.9522	128.906	88.1427	128.906	87.8211	128.906	88.0039	128.906	87.7083	128.906	87.8664	128.906	87.6269	128.906	87.7437	128.906	87.5873	128.906	87.6495	128.906	87.5951
134.766	88.5802	134.766	88.5972	134.766	88.5641	134.766	88.6151	134.766	88.5493	134.766	88.6331	134.766	88.5359	134.766	88.6498	134.766	88.5237	134.766	88.6629	134.766	88.5119	134.766	88.6688	134.766	88.4991	134.766	88.6629	134.766	88.4825	134.766	88.6405	134.766	88.4584	134.766	88.5976	134.766	88.4231	134.766	88.5313	134.766	88.3729	134.766	88.4418	134.766	88.306	134.766	88.3323	134.766	88.2229	134.766	88.2097	134.766	88.1275	134.766	88.0838	134.766	88.0269	134.766	87.9669	134.766	87.9311	134.766	87.8715	134.766	87.8516	134.766	87.8082	134.766	87.7996	134.766	87.7838
137.695	88.5851	137.695	88.5943	137.695	88.5752	137.695	88.6033	137.695	88.564	137.695	88.6125	137.695	88.5514	137.695	88.6218	137.695	88.5374	137.695	88.6295	137.695	88.5218	137.695	88.6331	137.695	88.5036	137.695	88.6285	137.695	88.4812	137.695	88.611	137.695	88.4521	137.695	88.5764	137.695	88.4134	137.695	88.5214	137.695	88.3624	137.695	88.4454	137.695	88.2979	137.695	88.3506	137.695	88.2207	137.695	88.2425	137.695	88.1342	137.695	88.13	137.695	88.045	137.695	88.0237	137.695	87.962	137.695	87.9349	137.695	87.8952	137.695	87.8735	137.695	87.8542	137.695	87.846
143.555	88.6206	143.555	88.5981	143.555	88.6366	143.555	88.5705	143.555	88.6455	143.555	88.5394	143.555	88.6472	143.555	88.5061	143.555	88.6418	143.555	88.4715	143.555	88.6297	143.555	88.4349	143.555	88.6104	143.555	88.3948	143.555	88.5828	143.555	88.3486	143.555	88.545	143.555	88.2936	143.555	88.4946	143.555	88.2278	143.555	88.4296	143.555	88.1509	143.555	88.349	143.555	88.065	143.555	88.254	143.555	87.9749	143.555	88.1484	143.555	87.8876	143.555	88.0386	143.555	87.8119	143.555	87.9331	143.555	87.7566	143.555	87.8416	143.555	87.7293	143.555	87.7731	143.555	87.7346
149.414	88.7699	149.414	88.7485	149.414	88.7784	149.414	88.7149	149.414	88.7739	149.414	88.6706	149.414	88.757	149.414	88.6169	149.414	88.7288	149.414	88.555	149.414	88.6906	149.414	88.4853	149.414	88.643	149.414	88.4072	149.414	88.5859	149.414	88.32	149.414	88.5186	149.414	88.2229	149.414	88.4394	149.414	88.1163	149.414	88.3472	149.414	88.002	149.414	88.2416	149.414	87.8844	149.414	88.1242	149.414	87.7699	149.414	87.9988	149.414	87.6664	149.414	87.8718	149.414	87.5827	149.414	87.7513	149.414	87.5265	149.414	87.6466	149.414	87.5038	149.414	87.5662	149.414	87.5172
155.273	88.9798	155.273	88.9597	155.273	88.9847	155.273	88.9254	155.273	88.9743	155.273	88.8782	155.273	88.9489	155.273	88.8192	155.273	88.9092	155.273	88.7491	155.273	88.8561	155.273	88.668	155.273	88.7902	155.273	88.5749	155.273	88.7112	155.273	88.4687	155.273	88.6184	155.273	88.3486	155.273	88.5108	155.273	88.2147	155.273	88.3877	155.273	88.0696	155.273	88.2498	155.273	87.9184	155.273	88.0998	155.273	87.7689	155.273	87.9433	155.273	87.631	155.273	87.7884	155.273	87.5155	155.273	87.6455	155.273	87.4326	155.273	87.5254	155.273	87.3898	155.273	87.4383	155.273	87.3917
158.203	88.9708	158.203	88.9517	158.203	88.9745	158.203	88.9179	158.203	88.9625	158.203	88.8706	158.203	88.9353	158.203	88.8108	158.203	88.894	158.203	88.7393	158.203	88.8394	158.203	88.6561	158.203	88.7722	158.203	88.5604	158.203	88.6923	158.203	88.4512	158.203	88.599	158.203	88.328	158.203	88.4912	158.203	88.1913	158.203	88.3681	158.203	88.044	158.203	88.2304	158.203	87.8915	158.203	88.0807	158.203	87.7417	158.203	87.9245	158.203	87.6045	158.203	87.77	158.203	87.4904	158.203	87.6272	158.203	87.4092	158.203	87.5069	158.203	87.3682	158.203	87.4192	158.203	87.3716
164.063	88.9337	164.063	88.9176	164.063	88.9345	164.063	88.8874	164.063	88.9193	164.063	88.8446	164.063	88.8881	164.063	88.7904	164.063	88.8413	164.063	88.7254	164.063	88.7798	164.063	88.6489	164.063	88.7042	164.063	88.5596	164.063	88.6147	164.063	88.4557	164.063	88.511	164.063	88.336	164.063	88.393	164.063	88.2007	164.063	88.261	164.063	88.0525	164.063	88.1167	164.063	87.8966	164.063	87.9639	164.063	87.7414	164.063	87.8088	164.063	87.5967	164.063	87.6599	164.063	87.4733	164.063	87.5269	164.063	87.3807	164.063	87.4198	164.063	87.3266	164.063	87.3472	164.063	87.3152
169.922	88.7695	169.922	88.7391	169.922	88.783	169.922	88.6935	169.922	88.7791	169.922	88.635	169.922	88.758	169.922	88.5663	169.922	88.7208	169.922	88.4894	169.922	88.6687	169.922	88.4053	169.922	88.6024	169.922	88.314	169.922	88.5222	169.922	88.2145	169.922	88.4276	169.922	88.1059	169.922	88.318	169.922	87.9878	169.922	88.1936	169.922	87.862	169.922	88.0559	169.922	87.7323	169.922	87.909	169.922	87.6049	169.922	87.7593	169.922	87.4877	169.922	87.6153	169.922	87.3892	169.922	87.4867	169.922	87.317	169.922	87.3826	169.922	87.2776	169.922	87.3105	169.922	87.275
175.781	88.6153	175.781	88.5857	175.781	88.6231	175.781	88.5354	175.781	88.6098	175.781	88.4664	175.781	88.577	175.781	88.3814	175.781	88.5274	175.781	88.2833	175.781	88.4642	175.781	88.1745	175.781	88.3898	175.781	88.0568	175.781	88.3058	175.781	87.9317	175.781	88.2126	175.781	87.801	175.781	88.1097	175.781	87.6672	175.781	87.9966	175.781	87.5344	175.781	87.8738	175.781	87.4081	175.781	87.7432	175.781	87.2951	175.781	87.6092	175.781	87.202	175.781	87.4777	175.781	87.1344	175.781	87.3561	175.781	87.0964	175.781	87.2513	175.781	87.0897	175.781	87.1693	175.781	87.1144
181.641	88.5705	181.641	88.5543	181.641	88.5587	181.641	88.5112	181.641	88.5191	181.641	88.4436	181.641	88.4533	181.641	88.3542	181.641	88.3642	181.641	88.2457	181.641	88.2558	181.641	88.1204	181.641	88.1317	181.641	87.9796	181.641	87.9956	181.641	87.8247	181.641	87.8502	181.641	87.6579	181.641	87.6977	181.641	87.4825	181.641	87.5405	181.641	87.3043	181.641	87.3813	181.641	87.1312	181.641	87.2242	181.641	86.9725	181.641	87.0745	181.641	86.8372	181.641	86.9381	181.641	86.7326	181.641	86.8211	181.641	86.6627	181.641	86.7284	181.641	86.6288	181.641	86.6637	181.641	86.6297
190.43	88.5118	190.43	88.4883	190.43	88.5064	190.43	88.4385	190.43	88.4708	190.43	88.3663	190.43	88.4052	190.43	88.2757	190.43	88.3114	190.43	88.1703	190.43	88.1917	190.43	88.0529	190.43	88.0489	190.43	87.9246	190.43	87.8856	190.43	87.7856	190.43	87.7046	190.43	87.6356	190.43	87.5092	190.43	87.4751	190.43	87.3042	190.43	87.3062	190.43	87.0961	190.43	87.1331	190.43	86.8945	190.43	86.9619	190.43	86.7108	190.43	86.7995	190.43	86.5566	190.43	86.6533	190.43	86.4421	190.43	86.5295	190.43	86.373	190.43	86.4342	190.43	86.3508	190.43	86.3728
196.289	88.4105	196.289	88.3541	196.289	88.431	196.289	88.2652	196.289	88.4144	196.289	88.1493	196.289	88.3619	196.289	88.0133	196.289	88.2766	196.289	87.8645	196.289	88.1625	196.289	87.7096	196.289	88.0241	196.289	87.5542	196.289	87.8655	196.289	87.4017	196.289	87.6907	196.289	87.2545	196.289	87.5035	196.289	87.1138	196.289	87.3085	196.289	86.981	196.289	87.1119	196.289	86.8575	196.289	86.9222	196.289	86.7449	196.289	86.7495	196.289	86.6448	196.289	86.6044	196.289	86.5584	196.289	86.4953	196.289	86.4871	196.289	86.4263	196.289	86.4333	196.289	86.3965	196.289	86.4011
202.148	88.6344	202.148	88.5638	202.148	88.6597	202.148	88.4499	202.148	88.6399	202.148	88.2972	202.148	88.5778	202.148	88.1119	202.148	88.4775	202.148	87.9018	202.148	88.3445	202.148	87.6756	202.148	88.1851	202.148	87.4422	202.148	88.0048	202.148	87.2103	202.148	87.8089	202.148	86.9876	202.148	87.6019	202.148	86.7814	202.148	87.388	202.148	86.5978	202.148	87.172	202.148	86.442	202.148	86.96	202.148	86.3173	202.148	86.7596	202.148	86.2251	202.148	86.5788	202.148	86.1646	202.148	86.425	202.148	86.1342	202.148	86.3031	202.148	86.1323	202.148	86.2147	202.148	86.1586
210.938	88.5849	210.938	88.5324	210.938	88.5958	210.938	88.4385	210.938	88.5663	210.938	88.3043	210.938	88.4987	210.938	88.1325	210.938	88.3965	210.938	87.9269	210.938	88.2635	210.938	87.6931	210.938	88.1039	210.938	87.4389	210.938	87.9221	210.938	87.1751	210.938	87.7228	210.938	86.915	210.938	87.5112	210.938	86.6746	210.938	87.2941	210.938	86.4696	210.938	87.0797	210.938	86.3125	210.938	86.8778	210.938	86.2092	210.938	86.6981	210.938	86.1567	210.938	86.5483	210.938	86.1452	210.938	86.4313	210.938	86.161	210.938	86.3445	210.938	86.1923	210.938	86.281	210.938	86.2322
216.797	88.3104	216.797	88.2787	216.797	88.301	216.797	88.2056	216.797	88.2526	216.797	88.0917	216.797	88.1688	216.797	87.9391	216.797	88.0544	216.797	87.7507	216.797	87.9149	216.797	87.531	216.797	87.7562	216.797	87.2861	216.797	87.5837	216.797	87.0253	216.797	87.4021	216.797	86.7611	216.797	87.2159	216.797	86.5097	216.797	87.0296	216.797	86.2894	216.797	86.8486	216.797	86.1166	216.797	86.6789	216.797	86.0016	216.797	86.5268	216.797	85.9453	216.797	86.3969	216.797	85.9386	216.797	86.2905	216.797	85.9666	216.797	86.2047	216.797	86.0143	216.797	86.1337	216.797	86.0712
225.586	88.3862	225.586	88.3928	225.586	88.3302	225.586	88.3504	225.586	88.2253	225.586	88.26	225.586	88.0742	225.586	88.1228	225.586	87.8814	225.586	87.9403	225.586	87.6542	225.586	87.7147	225.586	87.4019	225.586	87.4499	225.586	87.136	225.586	87.1539	225.586	86.8694	225.586	86.8398	225.586	86.6159	225.586	86.5271	225.586	86.3888	225.586	86.2404	225.586	86.1995	225.586	86.0054	225.586	86.0559	225.586	85.8411	225.586	85.9596	225.586	85.7534	225.586	85.9053	225.586	85.7319	225.586	85.8809	225.586	85.7543	225.586	85.8702	225.586	85.7948	225.586	85.8576	225.586	85.8328
234.375	88.3043	234.375	88.2805	234.375	88.2814	234.375	88.2161	234.375	88.2061	234.375	88.1172	234.375	88.0752	234.375	87.9884	234.375	87.8875	234.375	87.8319	234.375	87.6451	234.375	87.6477	234.375	87.3535	234.375	87.4345	234.375	87.0228	234.375	87.1927	234.375	86.6683	234.375	86.9266	234.375	86.3115	234.375	86.6471	234.375	85.9794	234.375	86.3728	234.375	85.7014	234.375	86.127	234.375	85.5027	234.375	85.9315	234.375	85.3958	234.375	85.798	234.375	85.3752	234.375	85.7224	234.375	85.4179	234.375	85.6855	234.375	85.4923	234.375	85.6609	234.375	85.5681	234.375	85.6256
240.234	88.1587	240.234	88.0936	240.234	88.169	240.234	87.9812	240.234	88.1192	240.234	87.8297	240.234	88.0061	240.234	87.6471	240.234	87.8284	240.234	87.4399	240.234	87.5873	240.234	87.2118	240.234	87.2861	240.234	86.9642	240.234	86.9314	240.234	86.6982	240.234	86.5347	240.234	86.4169	240.234	86.1145	240.234	86.1291	240.234	85.6986	240.234	85.8508	240.234	85.3233	240.234	85.6036	240.234	85.028	240.234	85.4084	240.234	84.8427	240.234	85.2764	240.234	84.7751	240.234	85.2016	240.234	84.8046	240.234	85.1619	240.234	84.8911	240.234	85.1275	240.234	84.9912	240.234	85.0738
249.023	88.2689	249.023	88.1875	249.023	88.2876	249.023	88.0487	249.023	88.2392	249.023	87.8596	249.023	88.1199	249.023	87.6287	249.023	87.926	249.023	87.3658	249.023	87.6541	249.023	87.0811	249.023	87.3011	249.023	86.7838	249.023	86.8661	249.023	86.481	249.023	86.352	249.023	86.1765	249.023	85.7697	249.023	85.8717	249.023	85.1424	249.023	85.5668	249.023	84.5106	249.023	85.2624	249.023	83.9328	249.023	84.9608	249.023	83.476	249.023	84.6653	249.023	83.1934	249.023	84.3783	249.023	83.0997	249.023	84.1006	249.023	83.1663	249.023	83.8312	249.023	83.3408	249.023	83.5732
257.813	88.2986	257.813	88.1784	257.813	88.3781	257.813	88.0218	257.813	88.4125	257.813	87.8324	257.813	88.3976	257.813	87.6129	257.813	88.3286	257.813	87.3647	257.813	88.2002	257.813	87.0889	257.813	88.0069	257.813	86.7873	257.813	87.7434	257.813	86.4658	257.813	87.4068	257.813	86.1361	257.813	86.9989	257.813	85.8169	257.813	86.5306	257.813	85.5312	257.813	86.0261	257.813	85.3001	257.813	85.5254	257.813	85.1334	257.813	85.0822	257.813	85.0236	257.813	84.7509	257.813	84.9476	257.813	84.5652	257.813	84.8766	257.813	84.5208	257.813	84.7891	257.813	84.5779	257.813	84.6822
266.602	87.6086	266.602	87.4653	266.602	87.7065	266.602	87.2801	266.602	87.7574	266.602	87.0582	266.602	87.7603	266.602	86.806	266.602	87.7137	266.602	86.5304	266.602	87.6145	266.602	86.238	266.602	87.4577	266.602	85.9349	266.602	87.2368	266.602	85.6282	266.602	86.9462	266.602	85.3283	266.602	86.5841	266.602	85.0495	266.602	86.1573	266.602	84.8102	266.602	85.6864	266.602	84.6273	266.602	85.2092	266.602	84.5086	266.602	84.7786	266.602	84.447	266.602	84.4497	266.602	84.4202	266.602	84.2572	266.602	84.399	266.602	84.1966	266.602	84.3597	266.602	84.2276	266.602	84.2962
278.32	87.4429	278.32	87.4032	278.32	87.4186	278.32	87.2951	278.32	87.3397	278.32	87.1185	278.32	87.2202	278.32	86.8764	278.32	87.0764	278.32	86.5736	278.32	86.9229	278.32	86.2159	278.32	86.7677	278.32	85.8106	278.32	86.609	278.32	85.3689	278.32	86.4354	278.32	84.9085	278.32	86.2303	278.32	84.4577	278.32	85.9784	278.32	84.0557	278.32	85.6739	278.32	83.7464	278.32	85.3258	278.32	83.5624	278.32	84.9602	278.32	83.508	278.32	84.616	278.32	83.5543	278.32	84.3305	278.32	83.6543	278.32	84.1218	278.32	83.7658	278.32	83.9789	278.32	83.8705
287.109	87.5786	287.109	87.5211	287.109	87.5669	287.109	87.4004	287.109	87.4835	287.109	87.2236	287.109	87.3312	287.109	86.9973	287.109	87.118	287.109	86.7264	287.109	86.8576	287.109	86.4132	287.109	86.5668	287.109	86.0597	287.109	86.2622	287.109	85.6703	287.109	85.9564	287.109	85.2564	287.109	85.6555	287.109	84.8398	287.109	85.3606	287.109	84.454	287.109	85.0716	287.109	84.1377	287.109	84.793	287.109	83.9217	287.109	84.5368	287.109	83.8143	287.109	84.32	287.109	83.7962	287.109	84.1567	287.109	83.8308	287.109	84.0485	287.109	83.8825	287.109	83.9812	287.109	83.932
295.898	87.6412	295.898	87.5369	295.898	87.6755	295.898	87.3718	295.898	87.633	295.898	87.1569	295.898	87.51	295.898	86.9029	295.898	87.305	295.898	86.6172	295.898	87.0185	295.898	86.3022	295.898	86.6529	295.898	85.9551	295.898	86.2133	295.898	85.5712	295.898	85.7081	295.898	85.1498	295.898	85.1529	295.898	84.7024	295.898	84.5734	295.898	84.2581	295.898	84.0098	295.898	83.8625	295.898	83.5168	295.898	83.5638	295.898	83.1521	295.898	83.3876	295.898	82.9545	295.898	83.3185	295.898	82.9203	295.898	83.306	295.898	83.0007	295.898	83.2908	295.898	83.1254	295.898	83.2326
307.617	87.2516	307.617	87.0808	307.617	87.3245	307.617	86.8193	307.617	87.3038	307.617	86.4858	307.617	87.2025	307.617	86.1091	307.617	87.0388	307.617	85.7226	307.617	86.831	307.617	85.3545	307.617	86.5916	307.617	85.0183	307.617	86.3225	307.617	84.7081	307.617	86.0137	307.617	84.4038	307.617	85.6474	307.617	84.0841	307.617	85.205	307.617	83.7402	307.617	84.6781	307.617	83.3841	307.617	84.0797	307.617	83.0464	307.617	83.454	307.617	82.7618	307.617	82.8784	307.617	82.5479	307.617	82.4414	307.617	82.3943	307.617	82.197	307.617	82.2752	307.617	82.1312	307.617	82.1786
319.336	88.6418	319.336	88.4915	319.336	88.6492	319.336	88.1959	319.336	88.5179	319.336	87.7551	319.336	88.2549	319.336	87.174	319.336	87.8709	319.336	86.4657	319.336	87.3828	319.336	85.6568	319.336	86.8157	319.336	84.7929	319.336	86.2029	319.336	83.9405	319.336	85.5833	319.336	83.1776	319.336	84.9932	319.336	82.5686	319.336	84.4555	319.336	82.1365	319.336	83.973	319.336	81.8555	319.336	83.5309	319.336	81.6744	319.336	83.1099	319.336	81.5485	319.336	82.6998	319.336	81.4572	319.336	82.3081	319.336	81.4045	319.336	81.959	319.336	81.4104	319.336	81.6819	319.336	81.498
331.055	87.8217	331.055	87.7176	331.055	87.8293	331.055	87.5117	331.055	87.747	331.055	87.2001	331.055	87.5827	331.055	86.7807	331.055	87.3458	331.055	86.2546	331.055	87.0464	331.055	85.628	331.055	86.6946	331.055	84.9158	331.055	86.2991	331.055	84.1464	331.055	85.8664	331.055	83.367	331.055	85.4006	331.055	82.6441	331.055	84.9049	331.055	82.0533	331.055	84.3851	331.055	81.6536	331.055	83.8539	331.055	81.4584	331.055	83.3347	331.055	81.4288	331.055	82.8606	331.055	81.4981	331.055	82.4653	331.055	81.605	331.055	82.1689	331.055	81.7152	331.055	81.9659	331.055	81.8271
342.773	89.1733	342.773	89.1375	342.773	89.0983	342.773	88.9925	342.773	88.9091	342.773	88.7378	342.773	88.6014	342.773	88.3718	342.773	88.1723	342.773	87.8937	342.773	87.6232	342.773	87.3056	342.773	86.9657	342.773	86.6178	342.773	86.2286	342.773	85.8534	342.773	85.4656	342.773	85.0558	342.773	84.7574	342.773	84.2921	342.773	84.1952	342.773	83.6459	342.773	83.8424	342.773	83.1926	342.773	83.6977	342.773	82.9653	342.773	83.6973	342.773	82.9393	342.773	83.7557	342.773	83.0512	342.773	83.8029	342.773	83.2323	342.773	83.7992	342.773	83.4283	342.773	83.7311	342.773	83.6025
354.492	88.9791	354.492	88.9108	354.492	88.9804	354.492	88.7755	354.492	88.9094	354.492	88.5687	354.492	88.7564	354.492	88.2822	354.492	88.5083	354.492	87.9056	354.492	88.1495	354.492	87.4301	354.492	87.6655	354.492	86.8521	354.492	87.0454	354.492	86.1798	354.492	86.2897	354.492	85.4425	354.492	85.4199	354.492	84.6997	354.492	84.4966	354.492	84.0429	354.492	83.6347	354.492	83.5742	354.492	82.9937	354.492	83.3561	354.492	82.7027	354.492	83.3677	354.492	82.7622	354.492	83.517	354.492	83.0415	354.492	83.6924	354.492	83.377	354.492	83.8038	354.492	83.6491	354.492	83.7963
366.211	88.6979	366.211	88.5753	366.211	88.769	366.211	88.3973	366.211	88.7873	366.211	88.1551	366.211	88.7461	366.211	87.8365	366.211	88.6332	366.211	87.4277	366.211	88.4315	366.211	86.9159	366.211	88.121	366.211	86.2946	366.211	87.6797	366.211	85.5706	366.211	87.088	366.211	84.7737	366.211	86.3325	366.211	83.9685	366.211	85.4163	366.211	83.256	366.211	84.3755	366.211	82.7466	366.211	83.3053	366.211	82.4996	366.211	82.3786	366.211	82.4775	366.211	81.7996	366.211	82.5677	366.211	81.6621	366.211	82.6476	366.211	81.8594	366.211	82.6282	366.211	82.1844	366.211	82.4689
377.93	88.307	377.93	88.2301	377.93	88.343	377.93	88.107	377.93	88.3414	377.93	87.9295	377.93	88.3026	377.93	87.686	377.93	88.2236	377.93	87.3618	377.93	88.0963	377.93	86.9406	377.93	87.9085	377.93	86.4086	377.93	87.6445	377.93	85.7616	377.93	87.2889	377.93	85.0157	377.93	86.8309	377.93	84.2223	377.93	86.2699	377.93	83.4805	377.93	85.624	377.93	82.9237	377.93	84.9373	377.93	82.6559	377.93	84.2844	377.93	82.6722	377.93	83.757	377.93	82.8589	377.93	83.424	377.93	83.0755	377.93	83.2867	377.93	83.2258	377.93	83.2731	377.93	83.2805
392.578	87.8677	392.578	87.878	392.578	87.8095	392.578	87.8362	392.578	87.7065	392.578	87.7359	392.578	87.5609	392.578	87.567	392.578	87.373	392.578	87.3152	392.578	87.1399	392.578	86.9627	392.578	86.8549	392.578	86.4907	392.578	86.509	392.578	85.8849	392.578	86.094	392.578	85.1442	392.578	85.6085	392.578	84.2955	392.578	85.0644	392.578	83.4137	392.578	84.4945	392.578	82.6354	392.578	83.955	392.578	82.1274	392.578	83.5148	392.578	81.9844	392.578	83.2269	392.578	82.1462	392.578	83.0935	392.578	82.4498	392.578	83.0582	392.578	82.7431	392.578	83.0339	392.578	82.9425
407.227	87.627	407.227	87.6176	407.227	87.5908	407.227	87.5692	407.227	87.5001	407.227	87.483	407.227	87.3466	407.227	87.3521	407.227	87.1234	407.227	87.1609	407.227	86.8249	407.227	86.8872	407.227	86.4469	407.227	86.5071	407.227	85.9871	407.227	86.001	407.227	85.4478	407.227	85.3615	407.227	84.8408	407.227	84.604	407.227	84.1952	407.227	83.7816	407.227	83.5638	407.227	82.9967	407.227	83.0213	407.227	82.3893	407.227	82.6425	407.227	82.072	407.227	82.4622	407.227	82.0473	407.227	82.4474	407.227	82.2038	407.227	82.5124	407.227	82.3989	407.227	82.5627	407.227	82.5313
421.875	86.6215	421.875	86.5411	421.875	86.7322	421.875	86.4959	421.875	86.8654	421.875	86.4851	421.875	87.0076	421.875	86.4982	421.875	87.1376	421.875	86.5125	421.875	87.225	421.875	86.4968	421.875	87.2346	421.875	86.4192	421.875	87.1327	421.875	86.2569	421.875	86.8937	421.875	86.0045	421.875	86.5075	421.875	85.6801	421.875	85.9873	421.875	85.3277	421.875	85.3805	421.875	85.0099	421.875	84.777	421.875	84.7865	421.875	84.2982	421.875	84.6838	421.875	84.0483	421.875	84.6776	421.875	84.0473	421.875	84.7058	421.875	84.2162	421.875	84.6994	421.875	84.436	421.875	84.6117
436.523	87.7146	436.523	87.5978	436.523	87.7034	436.523	87.3616	436.523	87.5761	436.523	87.0332	436.523	87.3642	436.523	86.6529	436.523	87.1117	436.523	86.2653	436.523	86.8618	436.523	85.9073	436.523	86.6393	436.523	85.601	436.523	86.4405	436.523	85.3562	436.523	86.2383	436.523	85.1825	436.523	86.0027	436.523	85.101	436.523	85.7246	436.523	85.1435	436.523	85.4365	436.523	85.3327	436.523	85.2178	436.523	85.6557	436.523	85.1698	436.523	86.0545	436.523	85.3511	436.523	86.4433	436.523	85.7236	436.523	86.737	436.523	86.171	436.523	86.8715	436.523	86.5649	436.523	86.8133
451.172	89.0442	451.172	88.9318	451.172	89.0366	451.172	88.7052	451.172	88.9099	451.172	88.3727	451.172	88.6731	451.172	87.9413	451.172	88.3435	451.172	87.4124	451.172	87.9429	451.172	86.7819	451.172	87.492	451.172	86.0459	451.172	87.0024	451.172	85.2162	451.172	86.4746	451.172	84.3504	451.172	85.9026	451.172	83.5917	451.172	85.2918	451.172	83.1682	451.172	84.6847	451.172	83.259	451.172	84.1854	451.172	83.8067	451.172	83.9445	451.172	84.5562	451.172	84.0666	451.172	85.2565	451.172	84.5034	451.172	85.7542	451.172	85.076	451.172	85.9798	451.172	85.5921	451.172	85.9174
465.82	88.8304	465.82	88.7018	465.82	88.8508	465.82	88.4697	465.82	88.7646	465.82	88.1433	465.82	88.5791	465.82	87.7315	465.82	88.303	465.82	87.2378	465.82	87.9432	465.82	86.6568	465.82	87.5009	465.82	85.9774	465.82	86.9724	465.82	85.1961	465.82	86.3537	465.82	84.3436	465.82	85.6512	465.82	83.5277	465.82	84.9009	465.82	82.9599	465.82	84.1915	465.82	82.8704	465.82	83.6738	465.82	83.292	465.82	83.5076	465.82	84.0022	465.82	83.7399	465.82	84.7225	465.82	84.2466	465.82	85.2689	465.82	84.8233	465.82	85.5556	465.82	85.297	465.82	85.5595
483.398	88.6696	483.398	88.6821	483.398	88.5557	483.398	88.6002	483.398	88.3399	483.398	88.4308	483.398	88.0298	483.398	88.1734	483.398	87.6403	483.398	87.8131	483.398	87.1864	483.398	87.3178	483.398	86.6758	483.398	86.6393	483.398	86.103	483.398	85.7189	483.398	85.4512	483.398	84.4993	483.398	84.7063	483.398	82.9637	483.398	83.8869	483.398	81.2645	483.398	83.0901	483.398	80.006	483.398	82.5282	483.398	80.074	483.398	82.4473	483.398	81.3093	483.398	82.8914	483.398	82.7667	483.398	83.621	483.398	83.9233	483.398	84.3278	483.398	84.6444	483.398	84.8005	483.398	84.9259
500.977	88.5022	500.977	88.3353	500.977	88.5788	500.977	88.1076	500.977	88.549	500.977	87.8524	500.977	88.4116	500.977	87.592	500.977	88.175	500.977	87.3221	500.977	87.8483	500.977	87.0067	500.977	87.4305	500.977	86.5879	500.977	86.9024	500.977	86.0022	500.977	86.2249	500.977	85.2026	500.977	85.3471	500.977	84.1891	500.977	84.2273	500.977	83.0718	500.977	82.8835	500.977	82.1556	500.977	81.5118	500.977	81.8652	500.977	80.6315	500.977	82.3075	500.977	80.7793	500.977	83.1014	500.977	81.744	500.977	83.814	500.977	82.8653	500.977	84.2074	500.977	83.7292	500.977	84.1872
518.555	88.3745	518.555	88.265	518.555	88.3362	518.555	88.0155	518.555	88.1633	518.555	87.6535	518.555	87.8895	518.555	87.2207	518.555	87.5651	518.555	86.7577	518.555	87.2439	518.555	86.279	518.555	86.9569	518.555	85.7532	518.555	86.6869	518.555	85.1058	518.555	86.3646	518.555	84.2466	518.555	85.8907	518.555	83.1248	518.555	85.1676	518.555	81.8417	518.555	84.1336	518.555	80.8565	518.555	82.833	518.555	80.8794	518.555	81.5835	518.555	81.9067	518.555	81.0821	518.555	83.1786	518.555	81.7139	518.555	84.1487	518.555	82.8985	518.555	84.6214	518.555	83.946	518.555	84.55
536.133	88.9535	536.133	88.803	536.133	88.9391	536.133	88.5113	536.133	88.7519	536.133	88.1185	536.133	88.3992	536.133	87.6749	536.133	87.9047	536.133	87.2229	536.133	87.3078	536.133	86.7659	536.133	86.6544	536.133	86.2479	536.133	85.9747	536.133	85.5577	536.133	85.255	536.133	84.5536	536.133	84.4269	536.133	83.0976	536.133	83.391	536.133	81.1462	536.133	82.0889	536.133	79.1522	536.133	80.6757	536.133	78.696	536.133	79.8151	536.133	80.2987	536.133	80.3039	536.133	82.263	536.133	81.7448	536.133	83.703	536.133	83.1951	536.133	84.4888	536.133	84.2026	536.133	84.6452
553.711	88.5275	553.711	88.3889	553.711	88.5347	553.711	88.1302	553.711	88.4157	553.711	87.7785	553.711	88.1931	553.711	87.3706	553.711	87.9024	553.711	86.9393	553.711	87.5802	553.711	86.4922	553.711	87.242	553.711	85.9931	553.711	86.8616	553.711	85.3604	553.711	86.3653	553.711	84.4844	553.711	85.6438	553.711	83.2563	553.711	84.5705	553.711	81.6301	553.711	83.0196	553.711	79.8241	553.711	80.933	553.711	78.723	553.711	78.6579	553.711	79.2505	553.711	77.6924	553.711	80.681	553.711	78.9499	553.711	81.9444	553.711	80.77	553.711	82.6483	553.711	82.0831	553.711	82.705
574.219	88.7989	574.219	88.5955	574.219	88.8193	574.219	88.2438	574.219	88.6525	574.219	87.8128	574.219	88.3236	574.219	87.3974	574.219	87.8894	574.219	87.0759	574.219	87.4364	574.219	86.8467	574.219	87.0517	574.219	86.603	574.219	86.7654	574.219	86.173	574.219	86.5069	574.219	85.3724	574.219	86.124	574.219	84.0232	574.219	85.4371	574.219	81.9678	574.219	84.2758	574.219	79.2664	574.219	82.505	574.219	77.2641	574.219	80.1754	574.219	78.2422	574.219	78.2094	574.219	80.4145	574.219	78.4997	574.219	81.9909	574.219	80.3023	574.219	82.7304	574.219	81.8536	574.219	82.6769
594.727	88.9277	594.727	88.7065	594.727	88.9119	594.727	88.262	594.727	88.6608	594.727	87.6382	594.727	88.1942	594.727	86.9352	594.727	87.5698	594.727	86.3121	594.727	86.9083	594.727	85.9054	594.727	86.3787	594.727	85.6856	594.727	86.0886	594.727	85.434	594.727	85.9532	594.727	84.8727	594.727	85.7247	594.727	83.7712	594.727	85.1277	594.727	82.015	594.727	83.9318	594.727	79.9014	594.727	81.9818	594.727	78.9165	594.727	79.4854	594.727	80.1636	594.727	78.1612	594.727	82.019	594.727	79.641	594.727	83.3643	594.727	81.7802	594.727	84.0202	594.727	83.2694	594.727	83.9955
615.234	89.2423	615.234	89.0277	615.234	89.2628	615.234	88.6444	615.234	89.0868	615.234	88.1529	615.234	88.7355	615.234	87.6589	615.234	88.2634	615.234	87.2861	615.234	87.7665	615.234	87.0871	615.234	87.357	615.234	86.962	615.234	87.0851	615.234	86.6886	615.234	86.8664	615.234	86.0108	615.234	86.5023	615.234	84.6754	615.234	85.7597	615.234	82.4165	615.234	84.4228	615.234	79.133	615.234	82.3507	615.234	76.8435	615.234	79.8732	615.234	79.0453	615.234	78.9746	615.234	81.9237	615.234	80.7338	615.234	83.7645	615.234	82.8197	615.234	84.6705	615.234	84.1947	615.234	84.7989
638.672	90.899	638.672	90.6154	638.672	90.9251	638.672	90.0651	638.672	90.6985	638.672	89.2577	638.672	90.2179	638.672	88.2768	638.672	89.4937	638.672	87.3618	638.672	88.5982	638.672	86.8732	638.672	87.7406	638.672	86.9344	638.672	87.2465	638.672	87.191	638.672	87.2492	638.672	87.1416	638.672	87.438	638.672	86.3986	638.672	87.3243	638.672	84.6257	638.672	86.5051	638.672	81.4309	638.672	84.6275	638.672	77.489	638.672	81.3334	638.672	79.0502	638.672	77.8183	638.672	82.8689	638.672	79.9123	638.672	85.2385	638.672	83.4262	638.672	86.3542	638.672	85.5359	638.672	86.4479
659.18	90.6482	659.18	90.4183	659.18	90.6399	659.18	89.9439	659.18	90.3959	659.18	89.2273	659.18	89.918	659.18	88.3179	659.18	89.2264	659.18	87.3749	659.18	88.4004	659.18	86.6802	659.18	87.6262	659.18	86.4217	659.18	87.1573	659.18	86.4027	659.18	87.0784	659.18	86.1683	659.18	87.133	659.18	85.2857	659.18	86.905	659.18	83.3617	659.18	86.0185	659.18	79.9383	659.18	84.1186	659.18	75.7581	659.18	80.78	659.18	77.7167	659.18	76.59	659.18	81.5994	659.18	78.0232	659.18	83.9216	659.18	81.7956	659.18	84.9927	659.18	84.0588	659.18	85.0427
682.617	90.3893	682.617	90.19	682.617	90.3608	682.617	89.7431	682.617	90.1054	682.617	89.026	682.617	89.6055	682.617	88.0601	682.617	88.8428	682.617	87.0115	682.617	87.8538	682.617	86.2764	682.617	86.8386	682.617	86.2061	682.617	86.22	682.617	86.5637	682.617	86.2808	682.617	86.7355	682.617	86.6831	682.617	86.2269	682.617	86.8112	682.617	84.6638	682.617	86.204	682.617	81.5585	682.617	84.4975	682.617	76.3979	682.617	81.2333	682.617	75.8436	682.617	76.692	682.617	80.7616	682.617	78.0029	682.617	83.7291	682.617	82.0794	682.617	85.1379	682.617	84.4283	682.617	85.3614
706.055	90.8275	706.055	90.5877	706.055	90.8495	706.055	90.0972	706.055	90.6475	706.055	89.2827	706.055	90.1783	706.055	88.0448	706.055	89.3642	706.055	86.348	706.055	88.1091	706.055	84.5722	706.055	86.3895	706.055	83.9668	706.055	84.6049	706.055	84.9494	706.055	83.9873	706.055	86.0408	706.055	84.9005	706.055	86.2188	706.055	85.9024	706.055	85.0369	706.055	86.0028	706.055	81.8691	706.055	84.75	706.055	74.4503	706.055	81.468	706.055	71.5133	706.055	73.5714	706.055	80.2612	706.055	72.1892	706.055	83.7488	706.055	80.5881	706.055	85.1775	706.055	83.9246	706.055	85.2356
732.422	89.2943	732.422	89.2327	732.422	89.2435	732.422	89.0444	732.422	89.0751	732.422	88.6837	732.422	88.7655	732.422	88.0664	732.422	88.2643	732.422	87.0818	732.422	87.4901	732.422	85.6607	732.422	86.3564	732.422	83.9959	732.422	84.8781	732.422	82.914	732.422	83.4484	732.422	83.1495	732.422	82.9547	732.422	83.8446	732.422	83.5462	732.422	83.8616	732.422	84.1726	732.422	82.595	732.422	83.9909	732.422	79.4085	732.422	82.5285	732.422	72.4632	732.422	79.1767	732.422	68.059	732.422	72.5621	732.422	75.9567	732.422	71.0266	732.422	78.7376	732.422	76.7454	732.422	78.9381
758.789	90.4027	758.789	90.2589	758.789	90.4008	758.789	89.9649	758.789	90.2515	758.789	89.5026	758.789	89.9403	758.789	88.8284	758.789	89.4278	758.789	87.8856	758.789	88.6483	758.789	86.6833	758.789	87.5379	758.789	85.4701	758.789	86.1314	758.789	84.7874	758.789	84.7741	758.789	84.8213	758.789	84.1517	758.789	84.9323	758.789	84.3877	758.789	84.3677	758.789	84.6632	758.789	82.6028	758.789	84.2113	758.789	79.2369	758.789	82.5727	758.789	75.9017	758.789	79.4336	758.789	78.3137	758.789	76.1383	758.789	81.3387	758.789	77.9745	758.789	82.6974	758.789	81.015	758.789	82.5779
785.156	91.0105	785.156	90.8393	785.156	90.9907	785.156	90.4842	785.156	90.7849	785.156	89.9464	785.156	90.4122	785.156	89.2036	785.156	89.8825	785.156	88.2256	785.156	89.1669	785.156	87.05	785.156	88.2021	785.156	85.9247	785.156	86.97	785.156	85.3152	785.156	85.6842	785.156	85.3656	785.156	84.9304	785.156	85.5213	785.156	85.0407	785.156	85.0712	785.156	85.3536	785.156	83.4276	785.156	84.9773	785.156	79.8174	785.156	83.265	785.156	73.2382	785.156	79.4423	785.156	75.2038	785.156	73.1213	785.156	80.1099	785.156	76.0548	785.156	82.1255	785.156	80.428	785.156	82.2046
811.523	90.7069	811.523	90.525	811.523	90.6913	811.523	90.1498	811.523	90.4811	811.523	89.5834	811.523	90.0852	811.523	88.8077	811.523	89.5072	811.523	87.7822	811.523	88.7294	811.523	86.4974	811.523	87.7054	811.523	85.1397	811.523	86.4069	811.523	84.2542	811.523	84.9973	811.523	84.2329	811.523	84.048	811.523	84.5302	811.523	84.024	811.523	84.2961	811.523	84.339	811.523	82.9472	811.523	84.0641	811.523	80.0352	811.523	82.6093	811.523	76.2139	811.523	79.6091	811.523	77.3416	811.523	76.1609	811.523	80.573	811.523	77.6506	811.523	82.1723	811.523	80.6715	811.523	82.1857
840.82	90.2873	840.82	90.0491	840.82	90.3092	840.82	89.6259	840.82	90.1073	840.82	89.0434	840.82	89.7081	840.82	88.2934	840.82	89.1454	840.82	87.3313	840.82	88.4107	840.82	86.1275	840.82	87.4391	840.82	84.8065	840.82	86.181	840.82	83.8145	840.82	84.7654	840.82	83.5961	840.82	83.6783	840.82	83.7845	840.82	83.4313	840.82	83.5325	840.82	83.6719	840.82	82.1748	840.82	83.4912	840.82	79.0954	840.82	82.1336	840.82	73.8287	840.82	78.8111	840.82	73.7665	840.82	72.7226	840.82	78.2356	840.82	74.1117	840.82	80.415	840.82	78.7722	840.82	80.6112
870.117	90.2432	870.117	90.0158	870.117	90.248	870.117	89.5683	870.117	90.0325	870.117	88.8993	870.117	89.6007	870.117	87.9827	870.117	88.9498	870.117	86.7638	870.117	88.0649	870.117	85.2327	870.117	86.9126	870.117	83.6638	870.117	85.4722	870.117	82.8374	870.117	83.9224	870.117	83.1351	870.117	82.9492	870.117	83.6878	870.117	83.1321	870.117	83.5874	870.117	83.7495	870.117	82.3331	870.117	83.7902	870.117	79.4983	870.117	82.7138	870.117	75.136	870.117	80.202	870.117	74.7428	870.117	76.6236	870.117	78.119	870.117	76.1027	870.117	79.9414	870.117	78.63	870.117	80.0775
902.344	90.2631	902.344	89.997	902.344	90.2414	902.344	89.4808	902.344	89.9454	902.344	88.799	902.344	89.4336	902.344	88.0364	902.344	88.7859	902.344	87.1816	902.344	88.0429	902.344	86.0798	902.344	87.1377	902.344	84.55	902.344	85.9149	902.344	82.746	902.344	84.288	902.344	81.6847	902.344	82.5912	902.344	82.0549	902.344	81.8303	902.344	82.5305	902.344	82.2543	902.344	81.8288	902.344	82.6029	902.344	79.2025	902.344	81.8515	902.344	74.0702	902.344	79.4397	902.344	73.7972	902.344	75.5456	902.344	78.428	902.344	75.5814	902.344	80.5906	902.344	78.9622	902.344	80.7135
931.641	90.2782	931.641	90.0445	931.641	90.2467	931.641	89.5561	931.641	89.9484	931.641	88.8244	931.641	89.3984	931.641	87.8563	931.641	88.628	931.641	86.6502	931.641	87.6668	931.641	85.2254	931.641	86.5101	931.641	83.7319	931.641	85.1106	931.641	82.5624	931.641	83.5098	931.641	82.1127	931.641	82.2035	931.641	82.243	931.641	82.0119	931.641	82.3148	931.641	82.5836	931.641	81.5792	931.641	82.7336	931.641	79.2403	931.641	81.7103	931.641	74.4773	931.641	79.0832	931.641	73.0539	931.641	75.4219	931.641	77.6633	931.641	75.9063	931.641	79.9556	931.641	78.8082	931.641	80.2347
966.797	90.0665	966.797	89.7568	966.797	90.0587	966.797	89.1761	966.797	89.7017	966.797	88.3618	966.797	89.0177	966.797	87.3323	966.797	88.106	966.797	86.0862	966.797	87.0999	966.797	84.6454	966.797	86.0456	966.797	83.1734	966.797	84.8176	966.797	82.0063	966.797	83.2292	966.797	81.3653	966.797	81.474	966.797	81.1796	966.797	80.6922	966.797	81.1756	966.797	81.2898	966.797	80.7745	966.797	81.68	966.797	79.2131	966.797	80.7154	966.797	75.7629	966.797	77.9694	966.797	72.092	966.797	74.3922	966.797	75.1363	966.797	75.0758	966.797	78.0347	966.797	77.6734	966.797	78.775
999.023	89.2411	999.023	88.7804	999.023	89.4319	999.023	88.1866	999.023	89.2624	999.023	87.5432	999.023	88.7263	999.023	86.7682	999.023	87.8879	999.023	85.6192	999.023	86.8485	999.023	83.8933	999.023	85.7086	999.023	81.9204	999.023	84.4668	999.023	80.8892	999.023	82.9317	999.023	80.9067	999.023	80.9506	999.023	80.8008	999.023	79.2618	999.023	80.3994	999.023	79.4751	999.023	79.9481	999.023	80.5094	999.023	78.9315	999.023	80.4431	999.023	76.4484	999.023	78.5	999.023	73.1174	999.023	74.3094	999.023	74.752	999.023	72.6968	999.023	77.6485	999.023	76.5791	999.023	78.3512
1,034.18	88.2815	1,034.18	87.8267	1,034.18	88.5034	1,034.18	87.2608	1,034.18	88.4301	1,034.18	86.699	1,034.18	88.0394	1,034.18	86.0523	1,034.18	87.3362	1,034.18	84.9882	1,034.18	86.3523	1,034.18	83.2339	1,034.18	85.1438	1,034.18	81.1817	1,034.18	83.7679	1,034.18	80.2112	1,034.18	82.2804	1,034.18	80.0986	1,034.18	80.7877	1,034.18	79.1465	1,034.18	79.4388	1,034.18	77.3667	1,034.18	78.4161	1,034.18	76.8735	1,034.18	78.0195	1,034.18	77.7541	1,034.18	78.1754	1,034.18	78.0433	1,034.18	78.182	1,034.18	77.2915	1,034.18	77.6607	1,034.18	76.3819	1,034.18	77.2282	1,034.18	76.62	1,034.18	77.4028	1,034.18	77.329
1,072.27	87.8915	1,072.27	87.5495	1,072.27	87.8487	1,072.27	86.9497	1,072.27	87.4882	1,072.27	86.3756	1,072.27	86.9583	1,072.27	85.915	1,072.27	86.3844	1,072.27	85.1626	1,072.27	85.7773	1,072.27	83.4086	1,072.27	84.901	1,072.27	79.9339	1,072.27	83.2778	1,072.27	76.2495	1,072.27	80.5987	1,072.27	77.973	1,072.27	78.1966	1,072.27	79.0905	1,072.27	78.4013	1,072.27	77.0598	1,072.27	78.6373	1,072.27	71.891	1,072.27	76.9977	1,072.27	73.4949	1,072.27	73.8408	1,072.27	78.1152	1,072.27	74.5332	1,072.27	80.2272	1,072.27	78.0095	1,072.27	80.9345	1,072.27	80.0052	1,072.27	81.0309	1,072.27	80.7758	1,072.27	80.9753
1,110.35	87.7266	1,110.35	87.3119	1,110.35	87.5832	1,110.35	86.3817	1,110.35	86.975	1,110.35	85.2394	1,110.35	86.0826	1,110.35	84.4529	1,110.35	85.1402	1,110.35	84.0833	1,110.35	84.3139	1,110.35	83.154	1,110.35	83.4481	1,110.35	80.3582	1,110.35	82.0022	1,110.35	74.7111	1,110.35	79.3069	1,110.35	74.5904	1,110.35	75.3972	1,110.35	77.8377	1,110.35	75.0843	1,110.35	77.9044	1,110.35	77.6336	1,110.35	74.8844	1,110.35	78.0814	1,110.35	68.2621	1,110.35	75.4266	1,110.35	73.9537	1,110.35	68.5741	1,110.35	79.0058	1,110.35	73.5515	1,110.35	81.2814	1,110.35	78.6096	1,110.35	82.0633	1,110.35	80.8799	1,110.35	81.883
1,148.44	88.1303	1,148.44	87.7492	1,148.44	87.9578	1,148.44	86.6724	1,148.44	87.3539	1,148.44	84.9709	1,148.44	86.3455	1,148.44	83.4309	1,148.44	84.9575	1,148.44	83.069	1,148.44	83.5688	1,148.44	83.0262	1,148.44	82.9103	1,148.44	81.5443	1,148.44	82.713	1,148.44	76.5064	1,148.44	81.6141	1,148.44	68.8403	1,148.44	78.0068	1,148.44	76.9895	1,148.44	72.0286	1,148.44	79.2796	1,148.44	76.6772	1,148.44	77.6875	1,148.44	79.0203	1,148.44	70.1144	1,148.44	76.9268	1,148.44	74.403	1,148.44	66.6636	1,148.44	80.8402	1,148.44	74.2937	1,148.44	83.3807	1,148.44	80.5475	1,148.44	84.2848	1,148.44	83.1706	1,148.44	84.2247
1,189.45	88.0525	1,189.45	87.7401	1,189.45	87.9586	1,189.45	86.9291	1,189.45	87.5098	1,189.45	85.5049	1,189.45	86.7013	1,189.45	83.4958	1,189.45	85.4499	1,189.45	81.7484	1,189.45	83.7588	1,189.45	81.6068	1,189.45	82.3131	1,189.45	81.6051	1,189.45	82.116	1,189.45	79.4771	1,189.45	82.1449	1,189.45	72.5389	1,189.45	80.4109	1,189.45	68.2652	1,189.45	74.6221	1,189.45	77.6978	1,189.45	71.4393	1,189.45	79.9443	1,189.45	78.4448	1,189.45	78.2383	1,189.45	80.1173	1,189.45	72.2537	1,189.45	78.076	1,189.45	75.6388	1,189.45	72.0142	1,189.45	80.4642	1,189.45	74.9855	1,189.45	82.2839	1,189.45	80.214	1,189.45	82.2466
1,230.47	87.1439	1,230.47	86.9061	1,230.47	87.193	1,230.47	86.4195	1,230.47	87.0117	1,230.47	85.5201	1,230.47	86.4934	1,230.47	84.0419	1,230.47	85.5271	1,230.47	82.1213	1,230.47	84.0779	1,230.47	80.6372	1,230.47	82.33	1,230.47	80.0347	1,230.47	80.9192	1,230.47	78.6963	1,230.47	80.3105	1,230.47	74.7311	1,230.47	79.3826	1,230.47	68.5916	1,230.47	76.6803	1,230.47	74.3863	1,230.47	72.933	1,230.47	77.5823	1,230.47	75.0725	1,230.47	77.1874	1,230.47	78.0592	1,230.47	72.6982	1,230.47	77.8999	1,230.47	57.134	1,230.47	72.8399	1,230.47	72.2292	1,230.47	60.5357	1,230.47	76.6791	1,230.47	74.9723	1,230.47	77.6202
1,274.41	86.7955	1,274.41	86.5036	1,274.41	86.8784	1,274.41	85.9655	1,274.41	86.6786	1,274.41	85.0701	1,274.41	86.0976	1,274.41	83.7603	1,274.41	85.0815	1,274.41	82.2138	1,274.41	83.6142	1,274.41	80.9267	1,274.41	81.8286	1,274.41	79.9733	1,274.41	80.2147	1,274.41	78.5666	1,274.41	79.1105	1,274.41	75.9203	1,274.41	77.9185	1,274.41	71.8596	1,274.41	75.8377	1,274.41	71.1184	1,274.41	72.9074	1,274.41	74.17	1,274.41	73.2613	1,274.41	75.1834	1,274.41	76.1709	1,274.41	72.6854	1,274.41	76.341	1,274.41	63.3028	1,274.41	71.9238	1,274.41	70.3412	1,274.41	64.3537	1,274.41	75.2933	1,274.41	73.2446	1,274.41	76.0291
1,318.36	86.1266	1,318.36	85.943	1,318.36	86.0686	1,318.36	85.4446	1,318.36	85.7855	1,318.36	84.5569	1,318.36	85.1593	1,318.36	83.1783	1,318.36	84.0405	1,318.36	81.4584	1,318.36	82.457	1,318.36	80.2668	1,318.36	80.7496	1,318.36	79.9131	1,318.36	79.4287	1,318.36	79.0387	1,318.36	78.429	1,318.36	76.4664	1,318.36	76.7361	1,318.36	72.4989	1,318.36	73.7326	1,318.36	72.7723	1,318.36	72.253	1,318.36	73.9038	1,318.36	73.8596	1,318.36	72.1814	1,318.36	74.3666	1,318.36	69.0149	1,318.36	72.8543	1,318.36	68.5896	1,318.36	68.3526	1,318.36	72.4641	1,318.36	67.0081	1,318.36	75.5131	1,318.36	73.3099	1,318.36	75.9393
1,365.23	85.5166	1,365.23	85.1861	1,365.23	85.5677	1,365.23	84.6328	1,365.23	85.2714	1,365.23	83.8419	1,365.23	84.5421	1,365.23	82.542	1,365.23	83.3562	1,365.23	80.5052	1,365.23	81.791	1,365.23	78.6696	1,365.23	80.0633	1,365.23	78.334	1,365.23	78.6667	1,365.23	77.7761	1,365.23	77.9482	1,365.23	75.2159	1,365.23	76.8791	1,365.23	71.0823	1,365.23	74.0694	1,365.23	72.2783	1,365.23	70.6794	1,365.23	74.0061	1,365.23	72.2081	1,365.23	72.954	1,365.23	73.6925	1,365.23	68.7393	1,365.23	72.5699	1,365.23	62.8706	1,365.23	67.0751	1,365.23	70.7708	1,365.23	59.6685	1,365.23	74.9864	1,365.23	72.626	1,365.23	75.7359
1,415.04	85.1729	1,415.04	84.7602	1,415.04	85.1058	1,415.04	83.8919	1,415.04	84.5487	1,415.04	82.7136	1,415.04	83.5882	1,415.04	81.3059	1,415.04	82.4316	1,415.04	79.3995	1,415.04	81.1369	1,415.04	77.2074	1,415.04	79.4541	1,415.04	76.4447	1,415.04	77.4084	1,415.04	76.5548	1,415.04	75.9802	1,415.04	75.069	1,415.04	75.2305	1,415.04	71.5803	1,415.04	73.3938	1,415.04	70.1863	1,415.04	69.9373	1,415.04	71.6057	1,415.04	69.4152	1,415.04	71.3144	1,415.04	72.0092	1,415.04	68.1698	1,415.04	72.7447	1,415.04	64.3692	1,415.04	70.3484	1,415.04	69.702	1,415.04	60.5442	1,415.04	73.717	1,415.04	70.165	1,415.04	74.2863
1,464.84	85.284	1,464.84	84.891	1,464.84	85.1851	1,464.84	83.9581	1,464.84	84.5908	1,464.84	82.5331	1,464.84	83.6752	1,464.84	80.9702	1,464.84	82.7456	1,464.84	79.309	1,464.84	81.6875	1,464.84	77.135	1,464.84	79.914	1,464.84	75.3996	1,464.84	77.2501	1,464.84	74.9812	1,464.84	74.9049	1,464.84	74.0392	1,464.84	73.7258	1,464.84	71.7696	1,464.84	72.6311	1,464.84	71.0567	1,464.84	70.8468	1,464.84	71.6377	1,464.84	69.4857	1,464.84	70.5445	1,464.84	71.4581	1,464.84	68.9364	1,464.84	72.0476	1,464.84	67.828	1,464.84	69.4927	1,464.84	69.1816	1,464.84	62.9694	1,464.84	71.6191	1,464.84	65.3826	1,464.84	70.9926
1,514.65	85.3599	1,514.65	84.8635	1,514.65	85.3217	1,514.65	83.9429	1,514.65	84.8059	1,514.65	82.8241	1,514.65	84.0103	1,514.65	81.6838	1,514.65	83.0796	1,514.65	80.1253	1,514.65	81.9217	1,514.65	77.4583	1,514.65	80.2163	1,514.65	74.7318	1,514.65	77.7644	1,514.65	73.9702	1,514.65	75.1614	1,514.65	72.8624	1,514.65	73.6558	1,514.65	70.3866	1,514.65	72.6051	1,514.65	71.0959	1,514.65	71.2656	1,514.65	71.7896	1,514.65	70.7245	1,514.65	69.6289	1,514.65	70.4487	1,514.65	66.9257	1,514.65	69.4103	1,514.65	66.8222	1,514.65	67.3522	1,514.65	69.3988	1,514.65	65.2352	1,514.65	71.5794	1,514.65	67.7701	1,514.65	71.1718
1,570.31	85.1452	1,570.31	84.6116	1,570.31	85.0573	1,570.31	83.7019	1,570.31	84.4299	1,570.31	82.6471	1,570.31	83.49	1,570.31	81.4713	1,570.31	82.3535	1,570.31	79.9801	1,570.31	81.0646	1,570.31	77.5602	1,570.31	79.4588	1,570.31	74.7178	1,570.31	77.2697	1,570.31	73.8765	1,570.31	74.8863	1,570.31	73.0298	1,570.31	73.3167	1,570.31	69.5867	1,570.31	71.6876	1,570.31	69.2004	1,570.31	69.5424	1,570.31	71.0991	1,570.31	69.625	1,570.31	69.0922	1,570.31	69.5594	1,570.31	63.2446	1,570.31	68.4034	1,570.31	62.399	1,570.31	66.0736	1,570.31	68.7138	1,570.31	64.76	1,570.31	71.7684	1,570.31	69.6674	1,570.31	72.1406
1,623.05	84.2514	1,623.05	83.6283	1,623.05	84.1948	1,623.05	82.7221	1,623.05	83.5317	1,623.05	81.7579	1,623.05	82.5178	1,623.05	80.5332	1,623.05	81.1836	1,623.05	79.1196	1,623.05	79.7223	1,623.05	77.3476	1,623.05	78.3142	1,623.05	74.844	1,623.05	76.5226	1,623.05	73.0274	1,623.05	74.2325	1,623.05	72.0371	1,623.05	72.7406	1,623.05	69.0332	1,623.05	71.4243	1,623.05	68.6941	1,623.05	69.029	1,623.05	70.9321	1,623.05	68.5021	1,623.05	69.0814	1,623.05	68.6912	1,623.05	64.0611	1,623.05	67.443	1,623.05	62.3499	1,623.05	64.6719	1,623.05	68.1778	1,623.05	61.4352	1,623.05	71.2225	1,623.05	66.4093	1,623.05	70.5904
1,681.64	84.0166	1,681.64	83.3656	1,681.64	84.1077	1,681.64	82.4259	1,681.64	83.6977	1,681.64	81.4163	1,681.64	82.7793	1,681.64	80.0051	1,681.64	81.1823	1,681.64	78.0292	1,681.64	79.2181	1,681.64	75.8325	1,681.64	77.6913	1,681.64	73.8094	1,681.64	76.311	1,681.64	72.9737	1,681.64	74.499	1,681.64	72.5252	1,681.64	73.3017	1,681.64	68.9914	1,681.64	71.8215	1,681.64	64.8264	1,681.64	67.7952	1,681.64	67.7966	1,681.64	65.865	1,681.64	67.4742	1,681.64	66.4361	1,681.64	63.7806	1,681.64	67.054	1,681.64	60.7376	1,681.64	66.8699	1,681.64	67.4697	1,681.64	64.842	1,681.64	70.7982	1,681.64	67.2095	1,681.64	70.5392
1,740.23	84.7253	1,740.23	84.0605	1,740.23	84.8906	1,740.23	83.0535	1,740.23	84.4863	1,740.23	81.8792	1,740.23	83.3796	1,740.23	80.3563	1,740.23	81.6114	1,740.23	78.3553	1,740.23	79.8121	1,740.23	76.1891	1,740.23	78.3751	1,740.23	73.954	1,740.23	76.7621	1,740.23	73.0151	1,740.23	74.955	1,740.23	72.7665	1,740.23	73.9308	1,740.23	68.7444	1,740.23	73.0864	1,740.23	62.83	1,740.23	69.695	1,740.23	66.5661	1,740.23	66.4835	1,740.23	67.8262	1,740.23	68.3174	1,740.23	66.4478	1,740.23	68.0442	1,740.23	61.9172	1,740.23	67.1113	1,740.23	66.8814	1,740.23	65.927	1,740.23	69.9135	1,740.23	68.4271	1,740.23	70.4421
1,801.76	84.9109	1,801.76	84.4681	1,801.76	84.8429	1,801.76	83.6189	1,801.76	84.1415	1,801.76	82.454	1,801.76	82.7556	1,801.76	80.7214	1,801.76	80.989	1,801.76	78.319	1,801.76	79.5554	1,801.76	76.2643	1,801.76	78.3351	1,801.76	74.7994	1,801.76	76.1041	1,801.76	73.548	1,801.76	73.0629	1,801.76	73.5451	1,801.76	72.7317	1,801.76	70.6476	1,801.76	73.8753	1,801.76	64.5904	1,801.76	71.766	1,801.76	66.5242	1,801.76	67.1807	1,801.76	68.4034	1,801.76	66.3109	1,801.76	67.4872	1,801.76	66.9809	1,801.76	63.1469	1,801.76	65.5362	1,801.76	66.1004	1,801.76	61.8931	1,801.76	69.9013	1,801.76	66.9847	1,801.76	70.1693
1,866.21	83.8299	1,866.21	83.6862	1,866.21	83.8897	1,866.21	83.2631	1,866.21	83.4072	1,866.21	82.1674	1,866.21	82.2249	1,866.21	80.2342	1,866.21	80.8264	1,866.21	78.0477	1,866.21	79.2503	1,866.21	76.9411	1,866.21	77.3216	1,866.21	75.7412	1,866.21	74.8354	1,866.21	73.1994	1,866.21	71.8041	1,866.21	72.1168	1,866.21	70.9591	1,866.21	70.5605	1,866.21	72.106	1,866.21	67.4036	1,866.21	69.0546	1,866.21	67.1185	1,866.21	65.0615	1,866.21	67.6241	1,866.21	65.1526	1,866.21	68.929	1,866.21	68.0616	1,866.21	66.308	1,866.21	68.8594	1,866.21	65.0221	1,866.21	64.2439	1,866.21	66.8584	1,866.21	64.6378	1,866.21	67.3716
1,930.66	83.2557	1,930.66	82.8689	1,930.66	83.1823	1,930.66	82.1274	1,930.66	82.6866	1,930.66	81.0505	1,930.66	81.8719	1,930.66	79.4878	1,930.66	80.5713	1,930.66	77.608	1,930.66	78.7182	1,930.66	76.0549	1,930.66	77.0108	1,930.66	74.1731	1,930.66	75.5416	1,930.66	71.3625	1,930.66	72.8848	1,930.66	71.3827	1,930.66	68.8646	1,930.66	71.0187	1,930.66	68.6544	1,930.66	68.1567	1,930.66	68.0584	1,930.66	68.1972	1,930.66	65.2432	1,930.66	65.2571	1,930.66	65.9031	1,930.66	67.0503	1,930.66	63.4982	1,930.66	66.3292	1,930.66	66.8635	1,930.66	67.1308	1,930.66	64.7588	1,930.66	68.8908	1,930.66	62.6242	1,930.66	66.8394
2,000.98	84.4435	2,000.98	83.8351	2,000.98	84.5841	2,000.98	82.7991	2,000.98	84.1218	2,000.98	81.5855	2,000.98	83.0313	2,000.98	79.9951	2,000.98	81.6077	2,000.98	77.485	2,000.98	80.0287	2,000.98	75.2971	2,000.98	78.3448	2,000.98	74.4118	2,000.98	76.646	2,000.98	71.4619	2,000.98	74.8487	2,000.98	69.1938	2,000.98	72.5703	2,000.98	69.0919	2,000.98	71.524	2,000.98	66.0141	2,000.98	69.4011	2,000.98	68.4803	2,000.98	62.1006	2,000.98	66.7299	2,000.98	64.6549	2,000.98	63.5975	2,000.98	64.3125	2,000.98	61.582	2,000.98	63.909	2,000.98	61.2099	2,000.98	65.6686	2,000.98	67.6555	2,000.98	66.3472	2,000.98	68.7705
2,071.29	85.1857	2,071.29	84.5944	2,071.29	85.1639	2,071.29	83.7796	2,071.29	84.5028	2,071.29	82.979	2,071.29	83.124	2,071.29	81.4552	2,071.29	81.4064	2,071.29	78.8916	2,071.29	79.9889	2,071.29	76.5974	2,071.29	78.3645	2,071.29	75.504	2,071.29	76.3308	2,071.29	73.5426	2,071.29	74.4881	2,071.29	70.5837	2,071.29	72.1707	2,071.29	69.6806	2,071.29	71.358	2,071.29	66.5722	2,071.29	70.804	2,071.29	67.0144	2,071.29	66.1649	2,071.29	66.0598	2,071.29	66.6503	2,071.29	65.4542	2,071.29	67.0197	2,071.29	65.5275	2,071.29	65.9959	2,071.29	62.7228	2,071.29	63.7632	2,071.29	66.8149	2,071.29	64.9324	2,071.29	68.4882
2,144.53	84.8212	2,144.53	84.4952	2,144.53	84.5437	2,144.53	83.7948	2,144.53	83.7374	2,144.53	82.5912	2,144.53	82.5875	2,144.53	81.0685	2,144.53	81.1645	2,144.53	79.8588	2,144.53	79.7822	2,144.53	78.6209	2,144.53	77.6254	2,144.53	76.6297	2,144.53	75.0609	2,144.53	73.8028	2,144.53	74.3764	2,144.53	71.1891	2,144.53	71.937	2,144.53	71.2372	2,144.53	68.6042	2,144.53	68.2567	2,144.53	70.3295	2,144.53	65.9371	2,144.53	69.2944	2,144.53	66.1256	2,144.53	67.6791	2,144.53	62.9047	2,144.53	65.0202	2,144.53	65.1656	2,144.53	62.9177	2,144.53	65.3539	2,144.53	59.9367	2,144.53	68.5563	2,144.53	64.0979	2,144.53	69.8379
2,217.77	84.7993	2,217.77	84.3716	2,217.77	84.5576	2,217.77	83.2447	2,217.77	83.7574	2,217.77	81.6539	2,217.77	82.8426	2,217.77	80.2119	2,217.77	81.6239	2,217.77	79.0392	2,217.77	80.0771	2,217.77	77.534	2,217.77	78.548	2,217.77	75.2177	2,217.77	76.1807	2,217.77	72.9431	2,217.77	73.2464	2,217.77	70.9914	2,217.77	71.202	2,217.77	71.5911	2,217.77	68.0324	2,217.77	69.0683	2,217.77	69.7399	2,217.77	67.0457	2,217.77	67.6765	2,217.77	67.2114	2,217.77	67.2793	2,217.77	67.1451	2,217.77	66.4228	2,217.77	67.396	2,217.77	65.3242	2,217.77	66.3627	2,217.77	66.4399	2,217.77	68.7253	2,217.77	56.5259	2,217.77	67.2847
2,296.88	85.9875	2,296.88	85.8341	2,296.88	86.0022	2,296.88	84.975	2,296.88	85.7172	2,296.88	83.4202	2,296.88	84.5298	2,296.88	81.69	2,296.88	82.8845	2,296.88	79.6462	2,296.88	81.7404	2,296.88	76.9383	2,296.88	80.1279	2,296.88	74.4075	2,296.88	77.348	2,296.88	72.795	2,296.88	75.2494	2,296.88	69.6584	2,296.88	74.5428	2,296.88	69.6471	2,296.88	72.0183	2,296.88	67.5597	2,296.88	70.46	2,296.88	66.2097	2,296.88	68.7905	2,296.88	68.8631	2,296.88	66.2712	2,296.88	66.5592	2,296.88	65.9903	2,296.88	67.9206	2,296.88	61.4134	2,296.88	66.1388	2,296.88	65.2149	2,296.88	68.7363	2,296.88	66.1925	2,296.88	66.9153
2,378.91	86.4769	2,378.91	86.2819	2,378.91	86.258	2,378.91	85.1143	2,378.91	85.9654	2,378.91	84.0679	2,378.91	84.8584	2,378.91	83.0518	2,378.91	83.5125	2,378.91	80.9251	2,378.91	81.8481	2,378.91	78.1824	2,378.91	79.5284	2,378.91	75.7355	2,378.91	77.4883	2,378.91	75.4648	2,378.91	75.7751	2,378.91	73.3361	2,378.91	74.2994	2,378.91	68.6816	2,378.91	70.9657	2,378.91	67.225	2,378.91	69.8509	2,378.91	66.4896	2,378.91	68.8756	2,378.91	68.7921	2,378.91	69.4728	2,378.91	66.1202	2,378.91	70.2744	2,378.91	65.0593	2,378.91	67.1508	2,378.91	61.507	2,378.91	66.1348	2,378.91	64.9447	2,378.91	63.2782	2,378.91	66.9793
2,460.94	86.6412	2,460.94	86.2802	2,460.94	86.5812	2,460.94	85.4804	2,460.94	85.9167	2,460.94	84.2489	2,460.94	84.8447	2,460.94	82.6532	2,460.94	83.523	2,460.94	80.9111	2,460.94	81.6679	2,460.94	79.1471	2,460.94	79.7734	2,460.94	76.7592	2,460.94	77.9558	2,460.94	75.0117	2,460.94	75.2395	2,460.94	73.2298	2,460.94	74.2151	2,460.94	71.63	2,460.94	71.785	2,460.94	71.0445	2,460.94	69.4828	2,460.94	68.3678	2,460.94	69.0764	2,460.94	69.6322	2,460.94	66.4636	2,460.94	67.5366	2,460.94	69.5001	2,460.94	68.5615	2,460.94	64.8949	2,460.94	65.1464	2,460.94	66.8881	2,460.94	68.94	2,460.94	61.2174	2,460.94	68.4185
2,548.83	87.0306	2,548.83	86.6049	2,548.83	86.9495	2,548.83	85.6754	2,548.83	86.4004	2,548.83	84.323	2,548.83	85.5058	2,548.83	82.7605	2,548.83	84.2812	2,548.83	80.7839	2,548.83	82.6841	2,548.83	78.7437	2,548.83	80.6276	2,548.83	75.9613	2,548.83	78.8888	2,548.83	73.8556	2,548.83	76.3278	2,548.83	73.0693	2,548.83	74.0625	2,548.83	70.2107	2,548.83	73.6028	2,548.83	70.7377	2,548.83	70.6163	2,548.83	67.2058	2,548.83	70.4725	2,548.83	69.6983	2,548.83	65.3413	2,548.83	66.9719	2,548.83	69.565	2,548.83	67.9878	2,548.83	66.82	2,548.83	64.1179	2,548.83	67.0853	2,548.83	69.522	2,548.83	63.1132	2,548.83	68.1655
2,639.65	87.8083	2,639.65	87.412	2,639.65	87.6854	2,639.65	86.5105	2,639.65	87.1416	2,639.65	85.1952	2,639.65	86.1566	2,639.65	83.6254	2,639.65	84.6925	2,639.65	81.5678	2,639.65	83.0953	2,639.65	79.2201	2,639.65	81.0688	2,639.65	77.0088	2,639.65	79.0266	2,639.65	73.7786	2,639.65	77.1828	2,639.65	73.0996	2,639.65	74.3323	2,639.65	70.3964	2,639.65	73.6385	2,639.65	69.8515	2,639.65	70.5883	2,639.65	66.1912	2,639.65	71.1104	2,639.65	68.5775	2,639.65	66.5198	2,639.65	68.0371	2,639.65	69.3599	2,639.65	67.9644	2,639.65	68.2015	2,639.65	64.1235	2,639.65	68.3336	2,639.65	69.049	2,639.65	64.6818	2,639.65	69.4634
2,733.4	88.0168	2,733.4	87.5943	2,733.4	87.8985	2,733.4	86.7854	2,733.4	87.3731	2,733.4	85.5307	2,733.4	86.4388	2,733.4	83.6939	2,733.4	84.9249	2,733.4	81.6131	2,733.4	83.1635	2,733.4	79.2231	2,733.4	81.1981	2,733.4	77.2936	2,733.4	78.9696	2,733.4	74.8591	2,733.4	77.2499	2,733.4	73.2224	2,733.4	74.4878	2,733.4	71.351	2,733.4	72.8688	2,733.4	70.393	2,733.4	70.8481	2,733.4	68.0543	2,733.4	69.48	2,733.4	65.8204	2,733.4	67.9612	2,733.4	68.7271	2,733.4	66.6664	2,733.4	69.0451	2,733.4	68.0681	2,733.4	64.2671	2,733.4	68.3711	2,733.4	68.8486	2,733.4	61.83	2,733.4	69.6548
2,827.15	88.3997	2,827.15	88.0519	2,827.15	88.3083	2,827.15	87.1921	2,827.15	87.7745	2,827.15	85.7975	2,827.15	86.8413	2,827.15	83.8606	2,827.15	85.4797	2,827.15	81.804	2,827.15	83.6999	2,827.15	79.2294	2,827.15	81.6429	2,827.15	77.0297	2,827.15	79.1795	2,827.15	74.7783	2,827.15	77.2648	2,827.15	72.9584	2,827.15	74.987	2,827.15	71.4486	2,827.15	73.0561	2,827.15	69.7339	2,827.15	71.7835	2,827.15	68.6835	2,827.15	70.577	2,827.15	68.1101	2,827.15	68.2377	2,827.15	67.7134	2,827.15	68.4055	2,827.15	69.656	2,827.15	66.3797	2,827.15	64.7173	2,827.15	69.7684	2,827.15	68.0388	2,827.15	65.2025	2,827.15	68.0346
2,926.76	88.1371	2,926.76	87.8216	2,926.76	88.0032	2,926.76	86.9899	2,926.76	87.531	2,926.76	85.6955	2,926.76	86.6181	2,926.76	83.7442	2,926.76	85.1707	2,926.76	81.581	2,926.76	83.3377	2,926.76	79.1584	2,926.76	81.2485	2,926.76	77.0331	2,926.76	78.7205	2,926.76	75.3463	2,926.76	76.6581	2,926.76	72.9806	2,926.76	74.8166	2,926.76	71.6858	2,926.76	72.6869	2,926.76	69.3828	2,926.76	71.4929	2,926.76	68.0198	2,926.76	69.7634	2,926.76	66.2662	2,926.76	68.5893	2,926.76	67.7976	2,926.76	67.1723	2,926.76	69.1006	2,926.76	66.6828	2,926.76	65.5142	2,926.76	68.1494	2,926.76	68.0289	2,926.76	63.5903	2,926.76	69.1682
3,032.23	88.2051	3,032.23	87.7569	3,032.23	88.1372	3,032.23	86.6722	3,032.23	87.5557	3,032.23	85.1831	3,032.23	86.5294	3,032.23	83.0726	3,032.23	85.1018	3,032.23	80.689	3,032.23	83.1014	3,032.23	78.2018	3,032.23	81.048	3,032.23	75.7521	3,032.23	78.78	3,032.23	74.4	3,032.23	76.1898	3,032.23	72.3087	3,032.23	74.8436	3,032.23	71.3424	3,032.23	72.2712	3,032.23	69.1833	3,032.23	71.452	3,032.23	67.6211	3,032.23	69.3001	3,032.23	65.6716	3,032.23	68.6864	3,032.23	67.8277	3,032.23	66.0257	3,032.23	67.745	3,032.23	66.8937	3,032.23	64.5984	3,032.23	66.5981	3,032.23	69.2467	3,032.23	63.8626	3,032.23	67.6234
3,137.7	88.4307	3,137.7	88.0397	3,137.7	88.331	3,137.7	87.1154	3,137.7	87.8008	3,137.7	85.5904	3,137.7	86.7638	3,137.7	83.4941	3,137.7	85.2568	3,137.7	81.1687	3,137.7	83.3824	3,137.7	78.9547	3,137.7	81.0508	3,137.7	76.4084	3,137.7	78.9216	3,137.7	74.5126	3,137.7	76.7051	3,137.7	72.4436	3,137.7	74.3433	3,137.7	70.9662	3,137.7	72.5852	3,137.7	68.6603	3,137.7	71.6828	3,137.7	68.4094	3,137.7	69.2496	3,137.7	61.2984	3,137.7	68.4458	3,137.7	64.0886	3,137.7	64.8258	3,137.7	67.3949	3,137.7	66.81	3,137.7	64.2525	3,137.7	67.0142	3,137.7	67.8233	3,137.7	63.7838	3,137.7	69.3587
3,249.02	88.3316	3,249.02	87.9352	3,249.02	88.1582	3,249.02	86.9505	3,249.02	87.5867	3,249.02	85.2577	3,249.02	86.5246	3,249.02	83.2154	3,249.02	84.9321	3,249.02	80.6782	3,249.02	82.7657	3,249.02	78.5029	3,249.02	80.5947	3,249.02	76.3286	3,249.02	78.5336	3,249.02	74.65	3,249.02	76.7646	3,249.02	72.7028	3,249.02	74.5259	3,249.02	71.3516	3,249.02	72.443	3,249.02	69.6934	3,249.02	70.9006	3,249.02	69.5082	3,249.02	68.8899	3,249.02	64.0188	3,249.02	69.0593	3,249.02	66.3961	3,249.02	64.0787	3,249.02	65.7925	3,249.02	65.8325	3,249.02	64.0476	3,249.02	66.0469	3,249.02	66.408	3,249.02	63.9112	3,249.02	67.2537
3,363.28	88.009	3,363.28	87.6587	3,363.28	87.8501	3,363.28	86.6545	3,363.28	87.4123	3,363.28	84.8956	3,363.28	86.3871	3,363.28	82.6228	3,363.28	84.5104	3,363.28	80.0954	3,363.28	82.2051	3,363.28	77.9862	3,363.28	80.191	3,363.28	76.5401	3,363.28	77.7161	3,363.28	74.5343	3,363.28	75.7331	3,363.28	72.8268	3,363.28	74.1057	3,363.28	71.609	3,363.28	71.7432	3,363.28	69.1249	3,363.28	70.8986	3,363.28	69.4402	3,363.28	69.7709	3,363.28	66.3984	3,363.28	67.6202	3,363.28	66.4501	3,363.28	64.8593	3,363.28	65.2712	3,363.28	65.3874	3,363.28	63.5079	3,363.28	63.7037	3,363.28	66.9692	3,363.28	61.269	3,363.28	67.0942
3,483.4	88.5622	3,483.4	88.1101	3,483.4	88.4398	3,483.4	86.9247	3,483.4	87.897	3,483.4	84.9225	3,483.4	86.7631	3,483.4	82.4058	3,483.4	84.9363	3,483.4	80.0264	3,483.4	82.54	3,483.4	77.9568	3,483.4	80.3988	3,483.4	76.3197	3,483.4	78.1972	3,483.4	74.3269	3,483.4	76.7728	3,483.4	73.2237	3,483.4	74.8121	3,483.4	70.9239	3,483.4	73.1185	3,483.4	69.3281	3,483.4	70.9798	3,483.4	67.6415	3,483.4	69.943	3,483.4	64.4137	3,483.4	68.6143	3,483.4	66.3393	3,483.4	65.7755	3,483.4	63.2908	3,483.4	66.8964	3,483.4	64.4074	3,483.4	64.7488	3,483.4	65.9233	3,483.4	64.501	3,483.4	67.6306
3,606.45	88.2781	3,606.45	87.7719	3,606.45	88.1692	3,606.45	86.5597	3,606.45	87.4859	3,606.45	84.6149	3,606.45	86.1349	3,606.45	82.5126	3,606.45	84.2142	3,606.45	80.5183	3,606.45	81.8411	3,606.45	78.5572	3,606.45	79.494	3,606.45	76.8947	3,606.45	78.0721	3,606.45	75.0467	3,606.45	76.4349	3,606.45	73.4087	3,606.45	74.1106	3,606.45	71.1697	3,606.45	72.5087	3,606.45	69.7109	3,606.45	70.4016	3,606.45	68.2506	3,606.45	68.4719	3,606.45	65.4121	3,606.45	68.1104	3,606.45	66.4877	3,606.45	64.5177	3,606.45	62.8027	3,606.45	67.4367	3,606.45	64.4001	3,606.45	65.0149	3,606.45	66.9463	3,606.45	64.409	3,606.45	66.1757
3,732.42	88.2275	3,732.42	87.5493	3,732.42	88.18	3,732.42	86.2079	3,732.42	87.4899	3,732.42	84.3466	3,732.42	86.2449	3,732.42	82.4523	3,732.42	84.5303	3,732.42	80.4776	3,732.42	82.1849	3,732.42	78.6782	3,732.42	80.7616	3,732.42	77.2026	3,732.42	79.2971	3,732.42	75.139	3,732.42	77.284	3,732.42	73.0506	3,732.42	75.0633	3,732.42	71.4628	3,732.42	73.2449	3,732.42	70.3924	3,732.42	71.3383	3,732.42	68.4608	3,732.42	69.8447	3,732.42	66.4929	3,732.42	68.5111	3,732.42	67.115	3,732.42	65.3346	3,732.42	65.0928	3,732.42	66.8901	3,732.42	64.1337	3,732.42	66.1291	3,732.42	66.5317	3,732.42	65.3809	3,732.42	67.7822
3,864.26	88.4319	3,864.26	87.9202	3,864.26	88.2942	3,864.26	86.6885	3,864.26	87.7741	3,864.26	84.9786	3,864.26	86.4586	3,864.26	82.9948	3,864.26	84.5995	3,864.26	81.6235	3,864.26	82.7861	3,864.26	80.3966	3,864.26	81.5006	3,864.26	77.8878	3,864.26	79.641	3,864.26	75.8849	3,864.26	77.8034	3,864.26	73.8325	3,864.26	75.714	3,864.26	71.349	3,864.26	73.5904	3,864.26	69.6205	3,864.26	70.5285	3,864.26	67.2799	3,864.26	70.2138	3,864.26	67.1663	3,864.26	67.3238	3,864.26	64.2065	3,864.26	66.5054	3,864.26	64.3404	3,864.26	65.8612	3,864.26	66.0998	3,864.26	63.5076	3,864.26	65.5696	3,864.26	64.649	3,864.26	67.3248
3,999.02	88.5256	3,999.02	88.1616	3,999.02	88.4946	3,999.02	87.0577	3,999.02	87.9355	3,999.02	85.005	3,999.02	86.789	3,999.02	83.7598	3,999.02	84.8866	3,999.02	82.3566	3,999.02	83.7833	3,999.02	80.5063	3,999.02	82.3957	3,999.02	77.9861	3,999.02	80.5937	3,999.02	75.4767	3,999.02	78.465	3,999.02	73.049	3,999.02	75.9615	3,999.02	71.0343	3,999.02	73.7629	3,999.02	70.3091	3,999.02	71.2711	3,999.02	69.5573	3,999.02	69.2993	3,999.02	67.3234	3,999.02	68.9917	3,999.02	65.9866	3,999.02	66.6687	3,999.02	64.5759	3,999.02	66.5611	3,999.02	66.61	3,999.02	65.1682	3,999.02	66.2321	3,999.02	65.999	3,999.02	64.1289
4,139.65	88.6083	4,139.65	88.1448	4,139.65	88.555	4,139.65	87.0006	4,139.65	88.0394	4,139.65	85.4599	4,139.65	86.815	4,139.65	84.0725	4,139.65	85.3013	4,139.65	83.0597	4,139.65	84.0671	4,139.65	80.8072	4,139.65	82.562	4,139.65	79.3865	4,139.65	80.9208	4,139.65	76.9389	4,139.65	78.593	4,139.65	74.0742	4,139.65	75.6672	4,139.65	72.5686	4,139.65	73.4619	4,139.65	70.0273	4,139.65	71.7912	4,139.65	68.1153	4,139.65	69.1282	4,139.65	67.0555	4,139.65	66.7549	4,139.65	65.5161	4,139.65	64.7468	4,139.65	63.237	4,139.65	63.5477	4,139.65	64.8412	4,139.65	64.9259	4,139.65	63.0674	4,139.65	66.6723	4,139.65	66.5916
4,286.13	89.7464	4,286.13	88.9468	4,286.13	89.616	4,286.13	87.7278	4,286.13	88.7585	4,286.13	86.4717	4,286.13	87.5517	4,286.13	84.8957	4,286.13	86.4768	4,286.13	82.8388	4,286.13	84.9073	4,286.13	80.7518	4,286.13	83.5866	4,286.13	77.6137	4,286.13	81.3269	4,286.13	75.182	4,286.13	78.5743	4,286.13	73.0899	4,286.13	75.724	4,286.13	71.3777	4,286.13	73.2323	4,286.13	67.9515	4,286.13	71.3923	4,286.13	66.4151	4,286.13	70.4135	4,286.13	66.8421	4,286.13	68.1236	4,286.13	62.8912	4,286.13	68.1531	4,286.13	65.7426	4,286.13	66.4149	4,286.13	66.0197	4,286.13	64.3171	4,286.13	66.744	4,286.13	66.2762	4,286.13	65.513
4,438.48	89.4166	4,438.48	88.818	4,438.48	89.4411	4,438.48	87.6353	4,438.48	88.5621	4,438.48	85.9715	4,438.48	87.5073	4,438.48	84.8765	4,438.48	85.9914	4,438.48	83.4504	4,438.48	84.8746	4,438.48	81.4385	4,438.48	82.9341	4,438.48	78.7446	4,438.48	80.9009	4,438.48	76.9053	4,438.48	78.0844	4,438.48	74.0044	4,438.48	75.6659	4,438.48	70.2303	4,438.48	72.8109	4,438.48	69.3771	4,438.48	70.6977	4,438.48	66.2448	4,438.48	69.0388	4,438.48	64.6571	4,438.48	66.5273	4,438.48	62.6686	4,438.48	66.6072	4,438.48	63.5188	4,438.48	64.8541	4,438.48	65.9623	4,438.48	63.3223	4,438.48	63.5364	4,438.48	64.7242	4,438.48	64.35
4,593.75	90.1989	4,593.75	89.5755	4,593.75	90.1193	4,593.75	88.219	4,593.75	89.3852	4,593.75	86.6876	4,593.75	87.7518	4,593.75	84.9517	4,593.75	86.3224	4,593.75	83.5201	4,593.75	84.6923	4,593.75	79.9017	4,593.75	82.933	4,593.75	77.0546	4,593.75	80.3625	4,593.75	73.1746	4,593.75	77.2994	4,593.75	70.4821	4,593.75	74.2605	4,593.75	71.4411	4,593.75	71.6287	4,593.75	67.9412	4,593.75	70.4657	4,593.75	68.1167	4,593.75	67.1829	4,593.75	65.0054	4,593.75	65.3468	4,593.75	61.3354	4,593.75	66.1305	4,593.75	62.5427	4,593.75	63.0659	4,593.75	62.6658	4,593.75	61.8423	4,593.75	62.3549	4,593.75	62.868	4,593.75	62.5783
4,757.81	90.0676	4,757.81	89.0121	4,757.81	90.1742	4,757.81	87.5076	4,757.81	88.9322	4,757.81	86.0562	4,757.81	87.3279	4,757.81	84.9184	4,757.81	86.1548	4,757.81	82.4332	4,757.81	84.7825	4,757.81	80.2954	4,757.81	82.4319	4,757.81	77.2035	4,757.81	79.8818	4,757.81	74.4612	4,757.81	76.5367	4,757.81	73.1503	4,757.81	73.6872	4,757.81	68.1102	4,757.81	71.1734	4,757.81	68.3884	4,757.81	67.592	4,757.81	65.1291	4,757.81	67.0072	4,757.81	65.9177	4,757.81	63.4858	4,757.81	59.0646	4,757.81	63.7593	4,757.81	63.0722	4,757.81	60.5192	4,757.81	63.936	4,757.81	62.8586	4,757.81	61.0395	4,757.81	63.2243	4,757.81	63.1945
4,924.8	90.1855	4,924.8	89.3091	4,924.8	90.0984	4,924.8	87.8325	4,924.8	88.9315	4,924.8	86.5143	4,924.8	87.3585	4,924.8	84.5912	4,924.8	85.945	4,924.8	82.7434	4,924.8	84.1981	4,924.8	78.8532	4,924.8	81.7678	4,924.8	75.9501	4,924.8	78.5593	4,924.8	72.6486	4,924.8	75.4029	4,924.8	69.9228	4,924.8	72.4796	4,924.8	69.1403	4,924.8	68.8301	4,924.8	66.8014	4,924.8	68.1762	4,924.8	66.1002	4,924.8	66.6913	4,924.8	65.2631	4,924.8	64.9562	4,924.8	59.8507	4,924.8	63.7953	4,924.8	61.6292	4,924.8	59.676	4,924.8	63.343	4,924.8	61.1831	4,924.8	58.5793	4,924.8	62.3132	4,924.8	57.4288
5,097.66	90.1228	5,097.66	89.0284	5,097.66	90.0566	5,097.66	87.4914	5,097.66	88.7627	5,097.66	85.8202	5,097.66	87.1387	5,097.66	84.1417	5,097.66	85.8139	5,097.66	81.0665	5,097.66	84.2203	5,097.66	77.602	5,097.66	81.427	5,097.66	74.4359	5,097.66	77.9417	5,097.66	72.1985	5,097.66	73.7308	5,097.66	70.7483	5,097.66	71.4237	5,097.66	68.9619	5,097.66	70.3351	5,097.66	67.6414	5,097.66	67.7109	5,097.66	63.4711	5,097.66	66.117	5,097.66	64.0874	5,097.66	64.1352	5,097.66	60.4746	5,097.66	64.3748	5,097.66	62.5734	5,097.66	58.0992	5,097.66	61.5115	5,097.66	62.0724	5,097.66	59.2268	5,097.66	57.8241	5,097.66	59.1857
5,279.3	89.5772	5,279.3	88.5204	5,279.3	89.5844	5,279.3	86.9542	5,279.3	88.1498	5,279.3	85.6229	5,279.3	86.6574	5,279.3	83.89	5,279.3	85.5159	5,279.3	81.2176	5,279.3	83.443	5,279.3	77.6589	5,279.3	80.3011	5,279.3	74.8447	5,279.3	76.1759	5,279.3	72.4308	5,279.3	73.6843	5,279.3	70.1865	5,279.3	71.4386	5,279.3	67.2613	5,279.3	68.9207	5,279.3	65.1109	5,279.3	67.4848	5,279.3	63.738	5,279.3	65.5769	5,279.3	63.0802	5,279.3	64.11	5,279.3	60.0404	5,279.3	63.3972	5,279.3	62.5095	5,279.3	57.8595	5,279.3	55.5359	5,279.3	63.1453	5,279.3	58.3326	5,279.3	59.2279	5,279.3	59.299
5,463.87	90.1725	5,463.87	89.124	5,463.87	89.9517	5,463.87	87.7096	5,463.87	88.5784	5,463.87	86.1671	5,463.87	87.017	5,463.87	83.759	5,463.87	85.6492	5,463.87	80.1278	5,463.87	83.1798	5,463.87	76.1255	5,463.87	79.3368	5,463.87	73.1191	5,463.87	75.408	5,463.87	70.3583	5,463.87	72.4243	5,463.87	69.3068	5,463.87	70.9043	5,463.87	68.2311	5,463.87	69.416	5,463.87	67.0851	5,463.87	66.9288	5,463.87	64.6088	5,463.87	65.9062	5,463.87	61.9293	5,463.87	62.7711	5,463.87	62.1385	5,463.87	63.5659	5,463.87	61.6567	5,463.87	60.6976	5,463.87	60.3265	5,463.87	59.7817	5,463.87	56.2847	5,463.87	55.3314	5,463.87	57.263
5,657.23	89.7285	5,657.23	88.6332	5,657.23	89.7444	5,657.23	86.9526	5,657.23	88.3117	5,657.23	85.3456	5,657.23	86.9659	5,657.23	82.9011	5,657.23	85.5105	5,657.23	79.4091	5,657.23	82.7168	5,657.23	76.2071	5,657.23	78.8328	5,657.23	74.2553	5,657.23	75.6814	5,657.23	72.2258	5,657.23	73.5115	5,657.23	71.0144	5,657.23	71.8839	5,657.23	68.4848	5,657.23	68.913	5,657.23	66.312	5,657.23	67.4256	5,657.23	63.8178	5,657.23	65.7487	5,657.23	60.8848	5,657.23	62.7296	5,657.23	57.5348	5,657.23	61.9299	5,657.23	60.1803	5,657.23	57.2938	5,657.23	56.7311	5,657.23	62.0377	5,657.23	57.443	5,657.23	56.9388	5,657.23	58.6288
5,856.45	89.8979	5,856.45	88.5581	5,856.45	89.7171	5,856.45	87.1778	5,856.45	88.265	5,856.45	85.6894	5,856.45	87.0085	5,856.45	83.0148	5,856.45	85.47	5,856.45	79.5719	5,856.45	82.3701	5,856.45	76.9184	5,856.45	78.2996	5,856.45	74.6401	5,856.45	75.853	5,856.45	72.2293	5,856.45	74.4092	5,856.45	69.3112	5,856.45	71.9915	5,856.45	67.598	5,856.45	69.4725	5,856.45	65.25	5,856.45	67.1118	5,856.45	62.9319	5,856.45	65.2469	5,856.45	61.1925	5,856.45	64.67	5,856.45	59.5353	5,856.45	63.3974	5,856.45	61.9315	5,856.45	59.6213	5,856.45	55.7997	5,856.45	62.0995	5,856.45	55.9911	5,856.45	53.3652	5,856.45	56.5176
6,061.52	90.0085	6,061.52	89.0463	6,061.52	89.9304	6,061.52	87.6501	6,061.52	88.5365	6,061.52	85.988	6,061.52	87.533	6,061.52	83.0113	6,061.52	85.761	6,061.52	79.4382	6,061.52	82.4771	6,061.52	76.6837	6,061.52	79.1711	6,061.52	74.1012	6,061.52	77.2413	6,061.52	71.4984	6,061.52	74.9655	6,061.52	69.3924	6,061.52	72.3843	6,061.52	67.6195	6,061.52	69.3517	6,061.52	66.52	6,061.52	67.7091	6,061.52	65.004	6,061.52	65.4091	6,061.52	61.5641	6,061.52	62.6972	6,061.52	60.9858	6,061.52	63.4365	6,061.52	61.5702	6,061.52	61.5693	6,061.52	53.6426	6,061.52	59.2947	6,061.52	58.0631	6,061.52	53.2893	6,061.52	57.0547
6,275.39	90.3007	6,275.39	89.145	6,275.39	90.1939	6,275.39	87.8105	6,275.39	89.0789	6,275.39	85.7061	6,275.39	87.9813	6,275.39	82.4362	6,275.39	85.9291	6,275.39	78.8279	6,275.39	82.3829	6,275.39	76.6459	6,275.39	79.6058	6,275.39	74.4158	6,275.39	77.6983	6,275.39	72.3214	6,275.39	75.161	6,275.39	69.1648	6,275.39	72.1162	6,275.39	67.0746	6,275.39	69.3736	6,275.39	65.9903	6,275.39	67.5132	6,275.39	62.4997	6,275.39	64.7113	6,275.39	60.7188	6,275.39	63.9419	6,275.39	59.1403	6,275.39	64.1888	6,275.39	59.3959	6,275.39	60.991	6,275.39	55.6065	6,275.39	57.2044	6,275.39	54.1938	6,275.39	54.8875	6,275.39	56.4608
6,498.05	90.2852	6,498.05	89.1201	6,498.05	90.4233	6,498.05	87.8059	6,498.05	89.2411	6,498.05	85.434	6,498.05	88.152	6,498.05	81.9716	6,498.05	85.6175	6,498.05	79.1686	6,498.05	82.2647	6,498.05	77.3554	6,498.05	80.1242	6,498.05	74.4338	6,498.05	77.7551	6,498.05	71.4938	6,498.05	75.0431	6,498.05	67.7506	6,498.05	72.0366	6,498.05	65.849	6,498.05	69.6617	6,498.05	63.7579	6,498.05	67.1332	6,498.05	62.7003	6,498.05	65.8793	6,498.05	61.8533	6,498.05	62.8853	6,498.05	58.8573	6,498.05	63.8837	6,498.05	58.7373	6,498.05	61.4545	6,498.05	50.6795	6,498.05	57.8359	6,498.05	55.2443	6,498.05	53.7463	6,498.05	55.1188
6,726.56	90.2572	6,726.56	89.2051	6,726.56	90.3251	6,726.56	87.8759	6,726.56	89.3672	6,726.56	85.3256	6,726.56	87.9878	6,726.56	81.9577	6,726.56	85.1887	6,726.56	79.1693	6,726.56	81.706	6,726.56	76.8641	6,726.56	79.5716	6,726.56	73.4122	6,726.56	76.847	6,726.56	70.1766	6,726.56	73.8077	6,726.56	66.7248	6,726.56	71.0514	6,726.56	65.2194	6,726.56	68.0718	6,726.56	63.5622	6,726.56	65.8739	6,726.56	62.1618	6,726.56	64.838	6,726.56	59.849	6,726.56	60.6822	6,726.56	59.1648	6,726.56	61.9818	6,726.56	57.4635	6,726.56	61.1445	6,726.56	51.625	6,726.56	57.1335	6,726.56	49.8707	6,726.56	53.7589	6,726.56	51.3558
6,963.87	90.2928	6,963.87	89.2546	6,963.87	90.4099	6,963.87	87.7201	6,963.87	89.4517	6,963.87	84.5207	6,963.87	87.9798	6,963.87	81.0022	6,963.87	84.9075	6,963.87	78.0599	6,963.87	81.8854	6,963.87	75.0102	6,963.87	79.3904	6,963.87	71.3062	6,963.87	76.0431	6,963.87	68.413	6,963.87	73.0769	6,963.87	66.209	6,963.87	69.5957	6,963.87	65.2459	6,963.87	67.8146	6,963.87	62.2512	6,963.87	66.3836	6,963.87	60.3671	6,963.87	64.056	6,963.87	60.4369	6,963.87	62.4403	6,963.87	59.7782	6,963.87	61.6436	6,963.87	52.7042	6,963.87	60.8599	6,963.87	48.8456	6,963.87	55.4553	6,963.87	51.0062	6,963.87	52.567	6,963.87	53.1373
7,209.96	90.1705	7,209.96	89.0802	7,209.96	90.3385	7,209.96	87.2259	7,209.96	89.4182	7,209.96	83.8514	7,209.96	87.6855	7,209.96	80.1785	7,209.96	84.55	7,209.96	77.4267	7,209.96	81.5086	7,209.96	74.0134	7,209.96	78.9701	7,209.96	69.8142	7,209.96	75.4688	7,209.96	68.0592	7,209.96	72.1192	7,209.96	66.202	7,209.96	70.2422	7,209.96	64.4381	7,209.96	67.9725	7,209.96	62.2161	7,209.96	65.734	7,209.96	58.1412	7,209.96	63.6198	7,209.96	58.9851	7,209.96	61.6235	7,209.96	59.1332	7,209.96	61.3239	7,209.96	53.5773	7,209.96	60.7664	7,209.96	49.0317	7,209.96	54.7133	7,209.96	50.1491	7,209.96	51.7294	7,209.96	55.1023
7,464.84	89.9856	7,464.84	88.9806	7,464.84	90.1891	7,464.84	86.9364	7,464.84	89.4554	7,464.84	83.1181	7,464.84	87.5102	7,464.84	79.9044	7,464.84	84.1828	7,464.84	76.8303	7,464.84	81.2049	7,464.84	73.1707	7,464.84	78.3379	7,464.84	69.716	7,464.84	75.2082	7,464.84	67.7222	7,464.84	71.9878	7,464.84	65.4559	7,464.84	69.877	7,464.84	64.3282	7,464.84	67.212	7,464.84	61.0612	7,464.84	64.7078	7,464.84	60.1148	7,464.84	64.2118	7,464.84	59.242	7,464.84	61.5907	7,464.84	58.4542	7,464.84	60.6304	7,464.84	55.6418	7,464.84	59.1355	7,464.84	48.9477	7,464.84	55.7641	7,464.84	53.0414	7,464.84	50.2242	7,464.84	52.9356
7,728.52	89.8381	7,728.52	88.9379	7,728.52	90.1579	7,728.52	86.7034	7,728.52	89.4563	7,728.52	82.616	7,728.52	87.4723	7,728.52	79.5738	7,728.52	84.2497	7,728.52	75.8391	7,728.52	81.3632	7,728.52	72.5686	7,728.52	78.1662	7,728.52	70.5126	7,728.52	74.6536	7,728.52	67.3641	7,728.52	72.6423	7,728.52	65.8559	7,728.52	69.7195	7,728.52	62.4516	7,728.52	67.4266	7,728.52	61.0889	7,728.52	65.7985	7,728.52	62.5503	7,728.52	64.6879	7,728.52	54.097	7,728.52	60.6068	7,728.52	59.3527	7,728.52	60.6618	7,728.52	56.4437	7,728.52	59.5579	7,728.52	53.3024	7,728.52	55.12	7,728.52	57.3145	7,728.52	56.6545	7,728.52	57.2929
8,000.98	90.0648	8,000.98	89.1704	8,000.98	90.3317	8,000.98	86.5508	8,000.98	89.7373	8,000.98	82.6649	8,000.98	87.6795	8,000.98	79.6051	8,000.98	84.4569	8,000.98	75.2854	8,000.98	81.5195	8,000.98	72.0614	8,000.98	77.9842	8,000.98	69.1848	8,000.98	75.0155	8,000.98	68.6389	8,000.98	72.8647	8,000.98	65.0634	8,000.98	69.8385	8,000.98	63.1891	8,000.98	68.0728	8,000.98	61.0817	8,000.98	65.3065	8,000.98	59.8173	8,000.98	62.5385	8,000.98	58.8031	8,000.98	63.2454	8,000.98	57.2344	8,000.98	59.2656	8,000.98	54.8479	8,000.98	60.3194	8,000.98	49.3172	8,000.98	50.7119	8,000.98	50.6546	8,000.98	58.1967	8,000.98	54.8683
8,282.23	90.283	8,282.23	89.4122	8,282.23	90.6159	8,282.23	86.4996	8,282.23	90.1205	8,282.23	82.7475	8,282.23	87.6777	8,282.23	79.6668	8,282.23	84.4464	8,282.23	75.4616	8,282.23	81.3507	8,282.23	73.2094	8,282.23	77.9763	8,282.23	71.0035	8,282.23	75.4903	8,282.23	69.1804	8,282.23	72.8367	8,282.23	65.3868	8,282.23	69.9472	8,282.23	63.4535	8,282.23	67.4559	8,282.23	59.7796	8,282.23	64.6773	8,282.23	59.8861	8,282.23	62.0708	8,282.23	58.8488	8,282.23	62.0885	8,282.23	56.9628	8,282.23	57.9305	8,282.23	55.2313	8,282.23	59.842	8,282.23	44.2521	8,282.23	55.4307	8,282.23	47.4475	8,282.23	50.4032	8,282.23	47.3857
8,575.2	90.0413	8,575.2	89.1781	8,575.2	90.4326	8,575.2	86.0233	8,575.2	89.9424	8,575.2	82.2893	8,575.2	87.395	8,575.2	78.9158	8,575.2	84.2506	8,575.2	75.1758	8,575.2	80.8895	8,575.2	73.789	8,575.2	77.6053	8,575.2	71.8548	8,575.2	75.6148	8,575.2	67.6304	8,575.2	73.4181	8,575.2	65.8401	8,575.2	69.9551	8,575.2	62.2732	8,575.2	67.4278	8,575.2	59.7504	8,575.2	65.703	8,575.2	59.0693	8,575.2	62.4209	8,575.2	58.6611	8,575.2	61.6348	8,575.2	57.2756	8,575.2	59.7374	8,575.2	53.4857	8,575.2	57.5471	8,575.2	52.0647	8,575.2	52.7579	8,575.2	49.2592	8,575.2	52.4207	8,575.2	44.2906
8,876.95	89.6694	8,876.95	88.7584	8,876.95	90.0938	8,876.95	85.2834	8,876.95	89.5409	8,876.95	81.9502	8,876.95	86.7466	8,876.95	78.4983	8,876.95	83.8625	8,876.95	74.9444	8,876.95	80.61	8,876.95	73.0309	8,876.95	77.5997	8,876.95	69.5334	8,876.95	75.3113	8,876.95	67.0947	8,876.95	72.1304	8,876.95	63.9936	8,876.95	68.2904	8,876.95	61.8371	8,876.95	66.7672	8,876.95	59.2811	8,876.95	64.7104	8,876.95	56.6022	8,876.95	61.1941	8,876.95	56.4245	8,876.95	60.9807	8,876.95	53.9758	8,876.95	60.2569	8,876.95	53.8088	8,876.95	58.8986	8,876.95	51.5895	8,876.95	54.3757	8,876.95	50.152	8,876.95	46.2814	8,876.95	52.7561
9,190.43	89.4982	9,190.43	88.3327	9,190.43	89.8961	9,190.43	84.7057	9,190.43	89.2052	9,190.43	81.5081	9,190.43	86.2941	9,190.43	78.2177	9,190.43	83.2366	9,190.43	75.3134	9,190.43	79.9334	9,190.43	73.0487	9,190.43	77.539	9,190.43	69.903	9,190.43	75.0469	9,190.43	66.2378	9,190.43	71.6358	9,190.43	64.0748	9,190.43	69.5663	9,190.43	62.3505	9,190.43	66.3955	9,190.43	58.8236	9,190.43	63.9069	9,190.43	57.0991	9,190.43	60.9518	9,190.43	57.2646	9,190.43	59.0999	9,190.43	54.8356	9,190.43	59.6467	9,190.43	54.1182	9,190.43	57.7206	9,190.43	49.8969	9,190.43	50.3532	9,190.43	42.5242	9,190.43	48.5792	9,190.43	51.4837
9,512.7	89.4391	9,512.7	88.3214	9,512.7	89.8283	9,512.7	84.7541	9,512.7	89.1161	9,512.7	81.5655	9,512.7	86.083	9,512.7	78.1389	9,512.7	83.0474	9,512.7	75.8534	9,512.7	79.7071	9,512.7	73.2874	9,512.7	77.2337	9,512.7	70.3212	9,512.7	74.6268	9,512.7	65.8981	9,512.7	71.7881	9,512.7	64.7919	9,512.7	68.6957	9,512.7	61.0108	9,512.7	65.7786	9,512.7	59.3346	9,512.7	64.3386	9,512.7	57.3215	9,512.7	61.5799	9,512.7	57.1084	9,512.7	58.3526	9,512.7	54.6072	9,512.7	58.9641	9,512.7	50.8557	9,512.7	56.1533	9,512.7	47.446	9,512.7	51.2801	9,512.7	38.0019	9,512.7	52.1082	9,512.7	51.5231
9,849.61	89.7813	9,849.61	88.512	9,849.61	90.0341	9,849.61	85.1283	9,849.61	89.1757	9,849.61	81.7202	9,849.61	86.2035	9,849.61	78.6582	9,849.61	83.0303	9,849.61	76.0271	9,849.61	80.2153	9,849.61	72.972	9,849.61	77.5536	9,849.61	69.2088	9,849.61	74.673	9,849.61	67.0152	9,849.61	71.1601	9,849.61	63.5842	9,849.61	67.9097	9,849.61	61.9821	9,849.61	66.3292	9,849.61	60.25	9,849.61	64.0245	9,849.61	55.9439	9,849.61	59.8565	9,849.61	54.9312	9,849.61	59.7887	9,849.61	53.7072	9,849.61	58.3965	9,849.61	51.5807	9,849.61	56.9548	9,849.61	43.0808	9,849.61	54.6545	9,849.61	34.5492	9,849.61	50.8602	9,849.61	50.9959
10,195.3	90.3145	10,195.3	88.8483	10,195.3	90.5779	10,195.3	85.8154	10,195.3	89.643	10,195.3	82.2693	10,195.3	86.8035	10,195.3	79.3939	10,195.3	83.4798	10,195.3	76.8425	10,195.3	80.7058	10,195.3	74.0491	10,195.3	78.0498	10,195.3	70.2077	10,195.3	75.1827	10,195.3	67.4977	10,195.3	72.4142	10,195.3	64.6651	10,195.3	69.3258	10,195.3	61.9555	10,195.3	66.647	10,195.3	58.9449	10,195.3	63.5228	10,195.3	56.3015	10,195.3	60.4001	10,195.3	56.6793	10,195.3	59.7943	10,195.3	52.9717	10,195.3	58.3229	10,195.3	51.6625	10,195.3	55.4466	10,195.3	40.0343	10,195.3	53.2667	10,195.3	45.0699	10,195.3	42.6305	10,195.3	46.9659
10,555.7	90.8601	10,555.7	89.2986	10,555.7	91.0594	10,555.7	86.1045	10,555.7	90.0987	10,555.7	82.2649	10,555.7	87.2234	10,555.7	79.4272	10,555.7	83.7268	10,555.7	77.2394	10,555.7	81.2586	10,555.7	73.4884	10,555.7	78.1566	10,555.7	69.9721	10,555.7	75.4268	10,555.7	67.4469	10,555.7	72.3987	10,555.7	64.5361	10,555.7	68.9575	10,555.7	62.7829	10,555.7	66.8228	10,555.7	58.5971	10,555.7	65.0976	10,555.7	52.8361	10,555.7	60.1952	10,555.7	56.7348	10,555.7	60.9399	10,555.7	53.2436	10,555.7	57.1985	10,555.7	47.8646	10,555.7	53.5516	10,555.7	52.8223	10,555.7	48.8865	10,555.7	42.6658	10,555.7	53.2702	10,555.7	52.489
10,927.7	91.257	10,927.7	89.1557	10,927.7	91.5269	10,927.7	86.0001	10,927.7	90.2963	10,927.7	82.1983	10,927.7	87.5907	10,927.7	79.5014	10,927.7	84.2744	10,927.7	77.1292	10,927.7	81.882	10,927.7	72.9871	10,927.7	78.9184	10,927.7	70.5269	10,927.7	76.2017	10,927.7	68.4544	10,927.7	73.0827	10,927.7	64.8634	10,927.7	69.2107	10,927.7	63.568	10,927.7	67.8915	10,927.7	60.0362	10,927.7	64.2434	10,927.7	58.9732	10,927.7	61.7784	10,927.7	53.6338	10,927.7	60.9947	10,927.7	51.333	10,927.7	58.0395	10,927.7	52.0066	10,927.7	54.006	10,927.7	45.509	10,927.7	53.9502	10,927.7	44.761	10,927.7	49.7273	10,927.7	36.935
11,314.5	91.2843	11,314.5	89.0353	11,314.5	91.4529	11,314.5	86.179	11,314.5	90.1465	11,314.5	82.8135	11,314.5	87.6606	11,314.5	79.7565	11,314.5	84.5588	11,314.5	76.9995	11,314.5	81.8387	11,314.5	73.0084	11,314.5	78.353	11,314.5	71.088	11,314.5	75.7719	11,314.5	67.9665	11,314.5	73.0172	11,314.5	64.9112	11,314.5	69.805	11,314.5	62.1543	11,314.5	67.0401	11,314.5	59.4063	11,314.5	64.3378	11,314.5	60.4538	11,314.5	61.781	11,314.5	54.4332	11,314.5	59.2166	11,314.5	49.2703	11,314.5	56.0831	11,314.5	51.6924	11,314.5	51.29	11,314.5	54.1697	11,314.5	50.6447	11,314.5	51.9779	11,314.5	54.8005	11,314.5	54.8538
11,712.9	90.9655	11,712.9	88.6817	11,712.9	91.1898	11,712.9	85.9218	11,712.9	90.1527	11,712.9	82.6907	11,712.9	87.8332	11,712.9	78.8791	11,712.9	84.5627	11,712.9	75.5388	11,712.9	81.6272	11,712.9	71.1841	11,712.9	77.2616	11,712.9	70.1461	11,712.9	74.8415	11,712.9	64.4488	11,712.9	71.5348	11,712.9	63.74	11,712.9	68.1211	11,712.9	60.8608	11,712.9	65.2272	11,712.9	58.1999	11,712.9	63.7399	11,712.9	57.3927	11,712.9	60.5961	11,712.9	47.3308	11,712.9	56.1956	11,712.9	51.0573	11,712.9	52.6221	11,712.9	52.6181	11,712.9	54.0513	11,712.9	55.1719	11,712.9	49.1357	11,712.9	53.5987	11,712.9	39.2357	11,712.9	50.1052
12,126	91.1202	12,126	88.8246	12,126	91.5513	12,126	86.1765	12,126	90.7157	12,126	82.7694	12,126	88.6399	12,126	79.2301	12,126	85.3186	12,126	74.7439	12,126	81.78	12,126	72.2505	12,126	77.6964	12,126	70.5433	12,126	75.2333	12,126	63.8735	12,126	71.9988	12,126	65.0775	12,126	68.1468	12,126	59.5042	12,126	65.4559	12,126	55.8284	12,126	63.7001	12,126	55.4853	12,126	59.0803	12,126	50.4366	12,126	53.9856	12,126	51.985	12,126	53.5757	12,126	53.4614	12,126	53.0101	12,126	53.3956	12,126	52.7593	12,126	49.7991	12,126	49.4212	12,126	57.9738
12,553.7	90.9744	12,553.7	88.7776	12,553.7	91.5726	12,553.7	86.5941	12,553.7	90.8739	12,553.7	83.5497	12,553.7	89.1206	12,553.7	79.1167	12,553.7	86.037	12,553.7	75.5594	12,553.7	82.3559	12,553.7	72.4592	12,553.7	78.6923	12,553.7	70.2887	12,553.7	75.5098	12,553.7	65.9178	12,553.7	72.026	12,553.7	65.4712	12,553.7	69.049	12,553.7	61.0164	12,553.7	66.5898	12,553.7	57.4434	12,553.7	64.3393	12,553.7	49.9272	12,553.7	60.4848	12,553.7	49.7193	12,553.7	56.5244	12,553.7	52.959	12,553.7	55.0348	12,553.7	52.9344	12,553.7	58.288	12,553.7	47.339	12,553.7	56.6886	12,553.7	46.4408	12,553.7	50.6629	12,553.7	55.8078
12,996.1	91.2983	12,996.1	88.8347	12,996.1	91.9372	12,996.1	86.7043	12,996.1	91.3328	12,996.1	83.3485	12,996.1	89.7186	12,996.1	78.5179	12,996.1	86.6438	12,996.1	75.35	12,996.1	82.4044	12,996.1	70.5416	12,996.1	78.8951	12,996.1	69.7416	12,996.1	75.2323	12,996.1	66.5893	12,996.1	71.921	12,996.1	64.7294	12,996.1	69.8203	12,996.1	61.0269	12,996.1	67.2939	12,996.1	57.54	12,996.1	64.6451	12,996.1	53.8633	12,996.1	60.0853	12,996.1	51.0254	12,996.1	58.3965	12,996.1	47.8086	12,996.1	55.751	12,996.1	51.3755	12,996.1	58.3719	12,996.1	51.7662	12,996.1	53.685	12,996.1	53.5944	12,996.1	37.2221	12,996.1	47.9365
13,453.1	91.4018	13,453.1	89.1413	13,453.1	91.9993	13,453.1	86.8447	13,453.1	91.5594	13,453.1	83.6872	13,453.1	89.8737	13,453.1	78.3583	13,453.1	86.8318	13,453.1	75.1091	13,453.1	82.587	13,453.1	69.9854	13,453.1	79.2306	13,453.1	68.969	13,453.1	75.4781	13,453.1	65.9148	13,453.1	72.446	13,453.1	62.5455	13,453.1	69.8528	13,453.1	58.8744	13,453.1	67.5231	13,453.1	55.5514	13,453.1	63.3865	13,453.1	51.5011	13,453.1	60.4472	13,453.1	55.1268	13,453.1	61.1637	13,453.1	46.9396	13,453.1	55.0416	13,453.1	52.9259	13,453.1	58.1536	13,453.1	47.9203	13,453.1	53.8547	13,453.1	49.6783	13,453.1	47.9404	13,453.1	48.0831
13,927.7	90.9585	13,927.7	88.8959	13,927.7	91.5503	13,927.7	86.5287	13,927.7	91.2364	13,927.7	83.1393	13,927.7	89.8748	13,927.7	77.5912	13,927.7	86.6071	13,927.7	73.1228	13,927.7	82.4143	13,927.7	68.691	13,927.7	78.3582	13,927.7	66.2079	13,927.7	75.2072	13,927.7	63.0382	13,927.7	71.4201	13,927.7	59.2382	13,927.7	68.4998	13,927.7	53.8244	13,927.7	65.843	13,927.7	51.5564	13,927.7	61.7225	13,927.7	52.0021	13,927.7	59.6508	13,927.7	52.206	13,927.7	60.7116	13,927.7	46.8296	13,927.7	55.0865	13,927.7	50.3317	13,927.7	55.629	13,927.7	47.9099	13,927.7	53.2002	13,927.7	48.2002	13,927.7	50.7535	13,927.7	39.9019
14,419.9	90.4528	14,419.9	88.4282	14,419.9	91.1456	14,419.9	85.4596	14,419.9	90.8266	14,419.9	80.7761	14,419.9	89.2978	14,419.9	74.5907	14,419.9	85.5927	14,419.9	68.3026	14,419.9	80.934	14,419.9	65.8485	14,419.9	76.3382	14,419.9	62.0999	14,419.9	73.3085	14,419.9	58.8362	14,419.9	69.6209	14,419.9	56.0468	14,419.9	66.7423	14,419.9	49.9653	14,419.9	63.4382	14,419.9	49.3936	14,419.9	60.016	14,419.9	50.1679	14,419.9	59.0167	14,419.9	51.8624	14,419.9	58.9744	14,419.9	30.3855	14,419.9	52.5976	14,419.9	45.1066	14,419.9	53.9271	14,419.9	48.0845	14,419.9	50.6923	14,419.9	39.2504	14,419.9	48.0225	14,419.9	30.0299
14,929.7	90.6231	14,929.7	88.5267	14,929.7	90.9975	14,929.7	84.5866	14,929.7	90.1648	14,929.7	77.8235	14,929.7	88.0228	14,929.7	70.4859	14,929.7	83.7634	14,929.7	65.8777	14,929.7	78.6492	14,929.7	59.6133	14,929.7	73.4669	14,929.7	54.4837	14,929.7	70.3387	14,929.7	55.9616	14,929.7	67.1357	14,929.7	50.1989	14,929.7	64.0108	14,929.7	48.6696	14,929.7	60.823	14,929.7	45.0816	14,929.7	58.0249	14,929.7	47.3085	14,929.7	56.5245	14,929.7	47.4388	14,929.7	55.9813	14,929.7	30.8815	14,929.7	50.7148	14,929.7	34.3606	14,929.7	51.3887	14,929.7	41.7279	14,929.7	49.6039	14,929.7	40.7929	14,929.7	45.8873	14,929.7	29.9376
15,454.1	91.2185	15,454.1	88.504	15,454.1	91.0863	15,454.1	83.284	15,454.1	89.004	15,454.1	74.1435	15,454.1	85.5975	15,454.1	61.8202	15,454.1	81.0318	15,454.1	55.9763	15,454.1	75.959	15,454.1	53.9582	15,454.1	69.656	15,454.1	52.6973	15,454.1	65.9121	15,454.1	49.9527	15,454.1	62.5626	15,454.1	45.8142	15,454.1	59.4837	15,454.1	45.5199	15,454.1	57.2021	15,454.1	43.1221	15,454.1	54.5903	15,454.1	44.6253	15,454.1	52.2388	15,454.1	42.2386	15,454.1	46.7494	15,454.1	43.9433	15,454.1	45.4608	15,454.1	34.5848	15,454.1	46.5233	15,454.1	41.8106	15,454.1	44.0501	15,454.1	56.1963	15,454.1	34.9389	15,454.1	45.7396
15,999	91.725	15,999	88.2025	15,999	91.3555	15,999	80.6174	15,999	87.8697	15,999	63.2403	15,999	82.0742	15,999	63.7214	15,999	76.7863	15,999	64.577	15,999	71.9805	15,999	62.9821	15,999	63.5545	15,999	59.9457	15,999	59.6644	15,999	57.3665	15,999	54.9272	15,999	51.6561	15,999	51.3696	15,999	52.0494	15,999	49.4902	15,999	49.3722	15,999	49.5522	15,999	45.9163	15,999	47.6459	15,999	46.7972	15,999	43.9015	15,999	43.4846	15,999	43.769	15,999	45.5678	15,999	41.943	15,999	41.5868	15,999	43.2191	15,999	46.877	15,999	39.6036	15,999	45.4563
16,564.5	92.2654	16,564.5	87.6775	16,564.5	91.9329	16,564.5	76.9001	16,564.5	87.3914	16,564.5	69.7057	16,564.5	76.3878	16,564.5	71.8331	16,564.5	68.9614	16,564.5	70.9218	16,564.5	70.8464	16,564.5	68.3137	16,564.5	65.8006	16,564.5	63.9049	16,564.5	65.3483	16,564.5	61.8192	16,564.5	61.8296	16,564.5	57.4935	16,564.5	57.083	16,564.5	56.5087	16,564.5	54.1796	16,564.5	52.6359	16,564.5	54.6017	16,564.5	51.7776	16,564.5	53.9697	16,564.5	52.6446	16,564.5	51.8748	16,564.5	46.0103	16,564.5	47.1821	16,564.5	49.3789	16,564.5	45.9829	16,564.5	48.4404	16,564.5	42.4686	16,564.5	47.5526	16,564.5	45.9711	16,564.5	44.2985
17,147.5	92.6412	17,147.5	87.1738	17,147.5	92.3255	17,147.5	74.852	17,147.5	87.0105	17,147.5	76.5609	17,147.5	72.054	17,147.5	76.0797	17,147.5	71.7912	17,147.5	73.7923	17,147.5	74.2704	17,147.5	71.018	17,147.5	70.0195	17,147.5	67.1706	17,147.5	67.37	17,147.5	63.095	17,147.5	65.8102	17,147.5	61.1491	17,147.5	60.71	17,147.5	59.5974	17,147.5	58.0167	17,147.5	54.3784	17,147.5	58.1202	17,147.5	52.8992	17,147.5	55.9334	17,147.5	54.2774	17,147.5	51.4335	17,147.5	45.1802	17,147.5	47.9686	17,147.5	51.0258	17,147.5	49.0798	17,147.5	49.5182	17,147.5	42.5257	17,147.5	47.5034	17,147.5	43.7616	17,147.5	57.0039
17,753.9	92.8791	17,753.9	86.2152	17,753.9	92.7355	17,753.9	76.7884	17,753.9	86.8012	17,753.9	80.7497	17,753.9	76.852	17,753.9	79.0603	17,753.9	78.0288	17,753.9	76.1394	17,753.9	78.0458	17,753.9	72.4807	17,753.9	73.5612	17,753.9	69.0949	17,753.9	69.1783	17,753.9	64.7553	17,753.9	68.5363	17,753.9	63.4502	17,753.9	63.5124	17,753.9	61.4761	17,753.9	61.4323	17,753.9	56.2382	17,753.9	60.6669	17,753.9	52.5396	17,753.9	56.7246	17,753.9	54.6932	17,753.9	52.2554	17,753.9	49.6879	17,753.9	51.1008	17,753.9	53.3807	17,753.9	51.9724	17,753.9	51.8683	17,753.9	51.7933	17,753.9	51.5218	17,753.9	52.8969	17,753.9	52.9258
18,377.9	91.909	18,377.9	83.8603	18,377.9	92.0508	18,377.9	80.423	18,377.9	86.0182	18,377.9	82.5288	18,377.9	81.0846	18,377.9	80.0243	18,377.9	80.6985	18,377.9	77.0444	18,377.9	79.6004	18,377.9	72.8567	18,377.9	75.0441	18,377.9	69.9042	18,377.9	70.7454	18,377.9	65.5262	18,377.9	69.5086	18,377.9	64.2834	18,377.9	64.6896	18,377.9	61.5361	18,377.9	63.7737	18,377.9	55.9606	18,377.9	61.4215	18,377.9	52.8453	18,377.9	56.4279	18,377.9	54	18,377.9	54.694	18,377.9	51.8289	18,377.9	52.1772	18,377.9	53.4832	18,377.9	55.3759	18,377.9	52.1196	18,377.9	53.9439	18,377.9	54.0046	18,377.9	51.9246	18,377.9	52.4689
19,028.3	90.015	19,028.3	81.029	19,028.3	90.5547	19,028.3	82.5641	19,028.3	85.1438	19,028.3	82.9839	19,028.3	82.9539	19,028.3	79.671	19,028.3	81.7953	19,028.3	76.5784	19,028.3	80.1171	19,028.3	72.6185	19,028.3	75.2004	19,028.3	69.1585	19,028.3	72.0863	19,028.3	63.7874	19,028.3	69.4925	19,028.3	63.6903	19,028.3	64.7935	19,028.3	59.8247	19,028.3	64.353	19,028.3	54.4066	19,028.3	60.9143	19,028.3	53.9902	19,028.3	55.0173	19,028.3	53.1464	19,028.3	54.4687	19,028.3	53.4287	19,028.3	53.153	19,028.3	53.7553	19,028.3	55.5818	19,028.3	51.7579	19,028.3	54.2609	19,028.3	54.2725	19,028.3	52.8648	19,028.3	53.7186
19,699.2	87.1028	19,699.2	78.3386	19,699.2	88.2716	19,699.2	83.0827	19,699.2	83.9329	19,699.2	82.8533	19,699.2	83.1613	19,699.2	78.5775	19,699.2	81.9198	19,699.2	75.3514	19,699.2	79.8107	19,699.2	72.044	19,699.2	74.6107	19,699.2	67.5067	19,699.2	71.5388	19,699.2	62.069	19,699.2	68.8139	19,699.2	62.5261	19,699.2	64.9649	19,699.2	57.615	19,699.2	63.7158	19,699.2	52.635	19,699.2	59.7006	19,699.2	52.7476	19,699.2	52.0913	19,699.2	52.9461	19,699.2	54.7219	19,699.2	51.8158	19,699.2	52.3984	19,699.2	53.7412	19,699.2	55.17	19,699.2	51.2156	19,699.2	53.8226	19,699.2	54.4193	19,699.2	51.8362	19,699.2	54.467
19,998	85.2538	19,998	77.6537	19,998	86.804	19,998	82.7981	19,998	82.9595	19,998	82.3543	19,998	82.8116	19,998	77.7295	19,998	81.5797	19,998	74.5267	19,998	79.3556	19,998	71.0243	19,998	74.4117	19,998	66.3921	19,998	70.6341	19,998	61.4937	19,998	68.2286	19,998	61.2108	19,998	64.7859	19,998	57.7593	19,998	62.8913	19,998	53.1443	19,998	58.8944	19,998	52.4344	19,998	50.5766	19,998	52.6259	19,998	54.7291	19,998	50.1656	19,998	52.8674	19,998	54.0915	19,998	54.5331	19,998	50.9249	19,998	54.2036	19,998	54.4034	19,998	49.6897	19,998	54.9399
