"SPL Horizontal"																																																																							
"On-Axis"		"10°"		"-10°"		"20°"		"-20°"		"30°"		"-30°"		"40°"		"-40°"		"50°"		"-50°"		"60°"		"-60°"		"70°"		"-70°"		"80°"		"-80°"		"90°"		"-90°"		"100°"		"-100°"		"110°"		"-110°"		"120°"		"-120°"		"130°"		"-130°"		"140°"		"-140°"		"150°"		"-150°"		"160°"		"-160°"		"170°"		"-170°"		"180°"	
"Frequency [Hz]"	"Sound Pessure Level [dB]  / [2.83V 1m] "	"Frequency [Hz]"	"Sound Pessure Level [dB]  / [2.83V 1m] "	"Frequency [Hz]"	"Sound Pessure Level [dB]  / [2.83V 1m] "	"Frequency [Hz]"	"Sound Pessure Level [dB]  / [2.83V 1m] "	"Frequency [Hz]"	"Sound Pessure Level [dB]  / [2.83V 1m] "	"Frequency [Hz]"	"Sound Pessure Level [dB]  / [2.83V 1m] "	"Frequency [Hz]"	"Sound Pessure Level [dB]  / [2.83V 1m] "	"Frequency [Hz]"	"Sound Pessure Level [dB]  / [2.83V 1m] "	"Frequency [Hz]"	"Sound Pessure Level [dB]  / [2.83V 1m] "	"Frequency [Hz]"	"Sound Pessure Level [dB]  / [2.83V 1m] "	"Frequency [Hz]"	"Sound Pessure Level [dB]  / [2.83V 1m] "	"Frequency [Hz]"	"Sound Pessure Level [dB]  / [2.83V 1m] "	"Frequency [Hz]"	"Sound Pessure Level [dB]  / [2.83V 1m] "	"Frequency [Hz]"	"Sound Pessure Level [dB]  / [2.83V 1m] "	"Frequency [Hz]"	"Sound Pessure Level [dB]  / [2.83V 1m] "	"Frequency [Hz]"	"Sound Pessure Level [dB]  / [2.83V 1m] "	"Frequency [Hz]"	"Sound Pessure Level [dB]  / [2.83V 1m] "	"Frequency [Hz]"	"Sound Pessure Level [dB]  / [2.83V 1m] "	"Frequency [Hz]"	"Sound Pessure Level [dB]  / [2.83V 1m] "	"Frequency [Hz]"	"Sound Pessure Level [dB]  / [2.83V 1m] "	"Frequency [Hz]"	"Sound Pessure Level [dB]  / [2.83V 1m] "	"Frequency [Hz]"	"Sound Pessure Level [dB]  / [2.83V 1m] "	"Frequency [Hz]"	"Sound Pessure Level [dB]  / [2.83V 1m] "	"Frequency [Hz]"	"Sound Pessure Level [dB]  / [2.83V 1m] "	"Frequency [Hz]"	"Sound Pessure Level [dB]  / [2.83V 1m] "	"Frequency [Hz]"	"Sound Pessure Level [dB]  / [2.83V 1m] "	"Frequency [Hz]"	"Sound Pessure Level [dB]  / [2.83V 1m] "	"Frequency [Hz]"	"Sound Pessure Level [dB]  / [2.83V 1m] "	"Frequency [Hz]"	"Sound Pessure Level [dB]  / [2.83V 1m] "	"Frequency [Hz]"	"Sound Pessure Level [dB]  / [2.83V 1m] "	"Frequency [Hz]"	"Sound Pessure Level [dB]  / [2.83V 1m] "	"Frequency [Hz]"	"Sound Pessure Level [dB]  / [2.83V 1m] "	"Frequency [Hz]"	"Sound Pessure Level [dB]  / [2.83V 1m] "	"Frequency [Hz]"	"Sound Pessure Level [dB]  / [2.83V 1m] "	"Frequency [Hz]"	"Sound Pessure Level [dB]  / [2.83V 1m] "	"Frequency [Hz]"	"Sound Pessure Level [dB]  / [2.83V 1m] "
20.5078	65.5107	20.5078	65.5627	20.5078	65.5333	20.5078	65.6891	20.5078	65.6323	20.5078	65.8906	20.5078	65.8105	20.5078	66.1683	20.5078	66.0705	20.5078	66.5216	20.5078	66.4133	20.5078	66.9478	20.5078	66.8365	20.5078	67.4399	20.5078	67.333	20.5078	67.9868	20.5078	67.8905	20.5078	68.5729	20.5078	68.4915	20.5078	69.1794	20.5078	69.1148	20.5078	69.7847	20.5078	69.7369	20.5078	70.3667	20.5078	70.334	20.5078	70.9034	20.5078	70.8829	20.5078	71.374	20.5078	71.3627	20.5078	71.7606	20.5078	71.7552	20.5078	72.0481	20.5078	72.046	20.5078	72.2253	20.5078	72.2247	20.5078	72.285
21.2402	67.2241	21.2402	67.2505	21.2402	67.2419	21.2402	67.3227	21.2402	67.3046	21.2402	67.4449	21.2402	67.4155	21.2402	67.6228	21.2402	67.5801	21.2402	67.8619	21.2402	67.8041	21.2402	68.1665	21.2402	68.0926	21.2402	68.537	21.2402	68.4475	21.2402	68.969	21.2402	68.866	21.2402	69.4522	21.2402	69.3395	21.2402	69.9706	21.2402	69.8529	21.2402	70.5036	21.2402	70.3864	21.2402	71.0277	21.2402	70.9165	21.2402	71.519	21.2402	71.4185	21.2402	71.9542	21.2402	71.8687	21.2402	72.3127	21.2402	72.2457	21.2402	72.5778	21.2402	72.5317	21.2402	72.7371	21.2402	72.7136	21.2402	72.7831
21.9727	68.3959	21.9727	68.4092	21.9727	68.4072	21.9727	68.4493	21.9727	68.4434	21.9727	68.5211	21.9727	68.5079	21.9727	68.6315	21.9727	68.6062	21.9727	68.7888	21.9727	68.7458	21.9727	69.0007	21.9727	68.9349	21.9727	69.2726	21.9727	69.1804	21.9727	69.6059	21.9727	69.4862	21.9727	69.9955	21.9727	69.8506	21.9727	70.4298	21.9727	70.2655	21.9727	70.8907	21.9727	70.7154	21.9727	71.3555	21.9727	71.1795	21.9727	71.7992	21.9727	71.633	21.9727	72.1969	21.9727	72.0506	21.9727	72.5262	21.9727	72.4085	21.9727	72.7685	21.9727	72.6863	21.9727	72.9106	21.9727	72.8683	21.9727	72.9444
22.7051	68.7794	22.7051	68.791	22.7051	68.7747	22.7051	68.8119	22.7051	68.7772	22.7051	68.8469	22.7051	68.79	22.7051	68.9032	22.7051	68.8191	22.7051	68.9902	22.7051	68.8728	22.7051	69.1177	22.7051	68.9617	22.7051	69.2952	22.7051	69.0971	22.7051	69.5289	22.7051	69.2888	22.7051	69.8199	22.7051	69.5429	22.7051	70.1619	22.7051	69.8581	22.7051	70.541	22.7051	70.2248	22.7051	70.9364	22.7051	70.6248	22.7051	71.3233	22.7051	71.0335	22.7051	71.6756	22.7051	71.4236	22.7051	71.9688	22.7051	71.768	22.7051	72.1826	22.7051	72.0431	22.7051	72.3021	22.7051	72.2307	22.7051	72.3187
23.4375	68.201	23.4375	68.1995	23.4375	68.184	23.4375	68.1821	23.4375	68.1483	23.4375	68.1534	23.4375	68.0956	23.4375	68.1208	23.4375	68.0307	23.4375	68.0939	23.4375	67.9609	23.4375	68.0851	23.4375	67.8976	23.4375	68.1084	23.4375	67.8553	23.4375	68.1774	23.4375	67.8518	23.4375	68.3028	23.4375	67.9049	23.4375	68.4884	23.4375	68.0285	23.4375	68.7285	23.4375	68.2279	23.4375	69.0071	23.4375	68.4956	23.4375	69.2999	23.4375	68.8113	23.4375	69.5782	23.4375	69.1453	23.4375	69.8134	23.4375	69.4641	23.4375	69.9809	23.4375	69.7365	23.4375	70.0625	23.4375	69.9369	23.4375	70.0483
24.1699	67.3268	24.1699	67.3027	24.1699	67.3089	24.1699	67.238	24.1699	67.2484	24.1699	67.135	24.1699	67.1457	24.1699	66.9976	24.1699	67.0024	24.1699	66.8318	24.1699	66.8219	24.1699	66.6466	24.1699	66.6102	24.1699	66.4543	24.1699	66.3774	24.1699	66.2713	24.1699	66.1386	24.1699	66.1166	24.1699	65.9144	24.1699	66.0087	24.1699	65.7298	24.1699	65.9615	24.1699	65.6096	24.1699	65.9781	24.1699	65.5721	24.1699	66.0485	24.1699	65.621	24.1699	66.1507	24.1699	65.7426	24.1699	66.2554	24.1699	65.9079	24.1699	66.3334	24.1699	66.0814	24.1699	66.3617	24.1699	66.2295	24.1699	66.3272
25.6348	55.3228	25.6348	55.1102	25.6348	55.3156	25.6348	54.6681	25.6348	55.1008	25.6348	53.9927	25.6348	54.6988	25.6348	53.1083	25.6348	54.1573	25.6348	52.1315	25.6348	53.5886	25.6348	51.3958	25.6348	53.2155	25.6348	51.461	25.6348	53.3405	25.6348	52.5852	25.6348	54.129	25.6348	54.3484	25.6348	55.4294	25.6348	56.2239	25.6348	56.9365	25.6348	57.9488	25.6348	58.4184	25.6348	59.4403	25.6348	59.7567	25.6348	60.685	25.6348	60.9031	25.6348	61.6894	25.6348	61.8409	25.6348	62.4631	25.6348	62.5662	25.6348	63.0145	25.6348	63.079	25.6348	63.3491	25.6348	63.3803	25.6348	63.4705
26.3672	53.5661	26.3672	53.8157	26.3672	53.6296	26.3672	54.381	26.3672	54.0144	26.3672	55.2537	26.3672	54.729	26.3672	56.3893	26.3672	55.7511	26.3672	57.708	26.3672	57.0124	26.3672	59.1198	26.3672	58.4177	26.3672	60.5475	26.3672	59.8753	26.3672	61.9353	26.3672	61.3147	26.3672	63.2465	26.3672	62.6886	26.3672	64.4576	26.3672	63.9667	26.3672	65.5529	26.3672	65.1296	26.3672	66.5211	26.3672	66.1642	26.3672	67.3531	26.3672	67.0604	26.3672	68.0412	26.3672	67.8104	26.3672	68.5783	26.3672	68.4073	26.3672	68.9586	26.3672	68.8457	26.3672	69.1776	26.3672	69.1215	26.3672	69.2324
27.0996	62.8667	27.0996	62.9424	27.0996	62.874	27.0996	63.1067	27.0996	62.9673	27.0996	63.3714	27.0996	63.158	27.0996	63.7493	27.0996	63.4616	27.0996	64.2479	27.0996	63.8913	27.0996	64.8636	27.0996	64.4509	27.0996	65.5798	27.0996	65.1301	27.0996	66.3693	27.0996	65.9043	27.0996	67.1988	27.0996	66.7396	27.0996	68.0336	27.0996	67.5978	27.0996	68.8413	27.0996	68.4424	27.0996	69.5932	27.0996	69.2407	27.0996	70.2649	27.0996	69.9652	27.0996	70.836	27.0996	70.5931	27.0996	71.2903	27.0996	71.1065	27.0996	71.6149	27.0996	71.4918	27.0996	71.8009	27.0996	71.7392	27.0996	71.8429
27.832	65.5728	27.832	65.6334	27.832	65.5529	27.832	65.7398	27.832	65.5757	27.832	65.9033	27.832	65.6506	27.832	66.1382	27.832	65.793	27.832	66.4583	27.832	66.0214	27.832	66.8725	27.832	66.3526	27.832	67.3804	27.832	66.7954	27.832	67.9706	27.832	67.3459	27.832	68.6217	27.832	67.9862	27.832	69.3051	27.832	68.6871	27.832	69.9894	27.832	69.4128	27.832	70.6436	27.832	70.127	27.832	71.2393	27.832	70.7956	27.832	71.7519	27.832	71.3898	27.832	72.1611	27.832	71.8861	27.832	72.4512	27.832	72.2664	27.832	72.611	27.832	72.5183	27.832	72.6341
29.2969	67.8189	29.2969	67.8339	29.2969	67.805	29.2969	67.8542	29.2969	67.7934	29.2969	67.889	29.2969	67.7905	29.2969	67.9519	29.2969	67.8085	29.2969	68.0599	29.2969	67.8642	29.2969	68.2308	29.2969	67.9776	29.2969	68.4794	29.2969	68.1688	29.2969	68.8131	29.2969	68.4519	29.2969	69.2284	29.2969	68.831	29.2969	69.7096	29.2969	69.2956	29.2969	70.2313	29.2969	69.8222	29.2969	70.7616	29.2969	70.378	29.2969	71.2677	29.2969	70.9265	29.2969	71.7186	29.2969	71.4329	29.2969	72.088	29.2969	71.8671	29.2969	72.3555	29.2969	72.2052	29.2969	72.5062	29.2969	72.4303	29.2969	72.5319
30.0293	67.9615	30.0293	67.9647	30.0293	67.9502	30.0293	67.9642	30.0293	67.9312	30.0293	67.9695	30.0293	67.9101	30.0293	67.9949	30.0293	67.8981	30.0293	68.0584	30.0293	67.9114	30.0293	68.1802	30.0293	67.9709	30.0293	68.3782	30.0293	68.0991	30.0293	68.6639	30.0293	68.3155	30.0293	69.0375	30.0293	68.6306	30.0293	69.4855	30.0293	69.0405	30.0293	69.9827	30.0293	69.5257	30.0293	70.4963	30.0293	70.0547	30.0293	70.991	30.0293	70.5895	30.0293	71.4339	30.0293	71.0922	30.0293	71.7968	30.0293	71.5295	30.0293	72.0577	30.0293	71.8746	30.0293	72.2012	30.0293	72.1083	30.0293	72.2188
31.4941	68.9515	31.4941	68.9493	31.4941	68.945	31.4941	68.9422	31.4941	68.9298	31.4941	68.9387	31.4941	68.911	31.4941	68.9517	31.4941	68.8979	31.4941	68.9976	31.4941	68.9049	31.4941	69.095	31.4941	68.9501	31.4941	69.2614	31.4941	69.0539	31.4941	69.5089	31.4941	69.2348	31.4941	69.8397	31.4941	69.5043	31.4941	70.2437	31.4941	69.862	31.4941	70.6987	31.4941	70.2933	31.4941	71.1744	31.4941	70.7714	31.4941	71.637	31.4941	71.2618	31.4941	72.0539	31.4941	71.7285	31.4941	72.3969	31.4941	72.1387	31.4941	72.6439	31.4941	72.4652	31.4941	72.7793	31.4941	72.688	31.4941	72.7945
32.2266	69.6889	32.2266	69.6814	32.2266	69.6876	32.2266	69.669	32.2266	69.6773	32.2266	69.6595	32.2266	69.6614	32.2266	69.6646	32.2266	69.6477	32.2266	69.6992	32.2266	69.6477	32.2266	69.78	32.2266	69.6771	32.2266	69.9233	32.2266	69.7536	32.2266	70.1408	32.2266	69.8949	32.2266	70.4356	32.2266	70.1139	32.2266	70.7995	32.2266	70.4142	32.2266	71.2132	32.2266	70.7872	32.2266	71.649	32.2266	71.2116	32.2266	72.0749	32.2266	71.6573	32.2266	72.4595	32.2266	72.0904	32.2266	72.7752	32.2266	72.4781	32.2266	73	32.2266	72.7924	32.2266	73.1187	32.2266	73.0121	32.2266	73.123
33.6914	70.8776	33.6914	70.8752	33.6914	70.8696	33.6914	70.8654	33.6914	70.8507	33.6914	70.8544	33.6914	70.8238	33.6914	70.8514	33.6914	70.795	33.6914	70.8682	33.6914	70.7736	33.6914	70.9186	33.6914	70.7725	33.6914	71.0169	33.6914	70.8071	33.6914	71.1743	33.6914	70.8938	33.6914	71.3966	33.6914	71.0461	33.6914	71.6806	33.6914	71.2713	33.6914	72.0131	33.6914	71.566	33.6914	72.3723	33.6914	71.9155	33.6914	72.7306	33.6914	72.2949	33.6914	73.0592	33.6914	72.6736	33.6914	73.3312	33.6914	73.0203	33.6914	73.5245	33.6914	73.3071	33.6914	73.6234	33.6914	73.5117	33.6914	73.6195
34.4238	71.2901	34.4238	71.2858	34.4238	71.2824	34.4238	71.2723	34.4238	71.2625	34.4238	71.2552	34.4238	71.233	34.4238	71.2426	34.4238	71.1993	34.4238	71.2454	34.4238	71.1697	34.4238	71.2763	34.4238	71.1558	34.4238	71.349	34.4238	71.1719	34.4238	71.4751	34.4238	71.2334	34.4238	71.6616	34.4238	71.3538	34.4238	71.9074	34.4238	71.5416	34.4238	72.202	34.4238	71.7959	34.4238	72.526	34.4238	72.105	34.4238	72.8539	34.4238	72.4472	34.4238	73.1576	34.4238	72.794	34.4238	73.4109	34.4238	73.1154	34.4238	73.5915	34.4238	73.3837	34.4238	73.6837	34.4238	73.5766	34.4238	73.679
35.8887	71.9048	35.8887	71.8996	35.8887	71.8975	35.8887	71.8842	35.8887	71.8775	35.8887	71.8635	35.8887	71.8469	35.8887	71.8447	35.8887	71.8103	35.8887	71.8372	35.8887	71.7753	35.8887	71.8527	35.8887	71.7521	35.8887	71.9033	35.8887	71.7534	35.8887	72.0006	35.8887	71.7933	35.8887	72.152	35.8887	71.885	35.8887	72.3584	35.8887	72.0376	35.8887	72.6121	35.8887	72.2521	35.8887	72.8967	35.8887	72.5198	35.8887	73.1893	35.8887	72.8221	35.8887	73.464	35.8887	73.1333	35.8887	73.6953	35.8887	73.4251	35.8887	73.8615	35.8887	73.6707	35.8887	73.9469	35.8887	73.8483	35.8887	73.9427
37.3535	72.618	37.3535	72.612	37.3535	72.6125	37.3535	72.5967	37.3535	72.5955	37.3535	72.5762	37.3535	72.5686	37.3535	72.5569	37.3535	72.536	37.3535	72.547	37.3535	72.5039	37.3535	72.5568	37.3535	72.4811	37.3535	72.5972	37.3535	72.4788	37.3535	72.6787	37.3535	72.5093	37.3535	72.8087	37.3535	72.5846	37.3535	72.9887	37.3535	72.7136	37.3535	73.213	37.3535	72.8984	37.3535	73.4676	37.3535	73.1327	37.3535	73.732	37.3535	73.401	37.3535	73.9822	37.3535	73.6807	37.3535	74.1943	37.3535	73.9457	37.3535	74.3473	37.3535	74.1706	37.3535	74.426	37.3535	74.3343	37.3535	74.4219
38.8184	73.3919	38.8184	73.386	38.8184	73.3886	38.8184	73.3728	38.8184	73.376	38.8184	73.3555	38.8184	73.3558	38.8184	73.3397	38.8184	73.3315	38.8184	73.3323	38.8184	73.3085	38.8184	73.342	38.8184	73.2945	38.8184	73.3784	38.8184	73.2987	38.8184	73.4506	38.8184	73.3316	38.8184	73.5651	38.8184	73.4031	38.8184	73.7242	38.8184	73.5207	38.8184	73.9234	38.8184	73.6863	38.8184	74.1512	38.8184	73.8946	38.8184	74.3897	38.8184	74.1325	38.8184	74.6176	38.8184	74.3805	38.8184	74.8128	38.8184	74.6154	38.8184	74.9558	38.8184	74.8145	38.8184	75.0319	38.8184	74.9583	38.8184	75.033
39.5508	73.8215	39.5508	73.8118	39.5508	73.8232	39.5508	73.7958	39.5508	73.8167	39.5508	73.7766	39.5508	73.8034	39.5508	73.7591	39.5508	73.7864	39.5508	73.75	39.5508	73.7703	39.5508	73.7571	39.5508	73.7618	39.5508	73.7893	39.5508	73.7689	39.5508	73.855	39.5508	73.8009	39.5508	73.9607	39.5508	73.8667	39.5508	74.1084	39.5508	73.9731	39.5508	74.2944	39.5508	74.1225	39.5508	74.508	39.5508	74.3107	39.5508	74.7329	39.5508	74.5266	39.5508	74.9488	39.5508	74.7527	39.5508	75.1347	39.5508	74.9679	39.5508	75.2718	39.5508	75.1507	39.5508	75.3462	39.5508	75.2826	39.5508	75.3499
41.0156	74.7356	41.0156	74.7332	41.0156	74.7327	41.0156	74.7269	41.0156	74.7242	41.0156	74.7192	41.0156	74.7113	41.0156	74.7141	41.0156	74.6961	41.0156	74.7166	41.0156	74.6825	41.0156	74.7331	41.0156	74.6756	41.0156	74.7703	41.0156	74.6821	41.0156	74.8347	41.0156	74.7096	41.0156	74.9312	41.0156	74.7658	41.0156	75.0615	41.0156	74.8569	41.0156	75.2223	41.0156	74.9855	41.0156	75.4051	41.0156	75.1493	41.0156	75.5963	41.0156	75.3393	41.0156	75.7789	41.0156	75.5409	41.0156	75.9346	41.0156	75.7356	41.0156	76.0471	41.0156	75.9041	41.0156	76.1038	41.0156	76.0291	41.0156	76.0979
42.4805	75.4701	42.4805	75.4661	42.4805	75.4706	42.4805	75.4596	42.4805	75.4675	42.4805	75.4526	42.4805	75.4616	42.4805	75.4481	42.4805	75.4548	42.4805	75.4499	42.4805	75.4501	42.4805	75.4631	42.4805	75.4515	42.4805	75.4934	42.4805	75.4644	42.4805	75.5462	42.4805	75.495	42.4805	75.6264	42.4805	75.5495	42.4805	75.7363	42.4805	75.6329	42.4805	75.8743	42.4805	75.7474	42.4805	76.0343	42.4805	75.891	42.4805	76.2051	42.4805	76.0562	42.4805	76.3719	42.4805	76.2304	42.4805	76.518	42.4805	76.3974	42.4805	76.6278	42.4805	76.54	42.4805	76.6889	42.4805	76.6427	42.4805	76.6942
43.9453	76.3458	43.9453	76.3434	43.9453	76.3459	43.9453	76.3395	43.9453	76.3437	43.9453	76.3358	43.9453	76.3399	43.9453	76.3344	43.9453	76.336	43.9453	76.3387	43.9453	76.3342	43.9453	76.3527	43.9453	76.338	43.9453	76.3812	43.9453	76.3515	43.9453	76.4289	43.9453	76.3798	43.9453	76.5001	43.9453	76.4281	43.9453	76.5969	43.9453	76.5007	43.9453	76.7182	43.9453	76.5998	43.9453	76.8589	43.9453	76.7241	43.9453	77.0091	43.9453	76.8677	43.9453	77.1559	43.9453	77.0202	43.9453	77.2844	43.9453	77.1677	43.9453	77.3804	43.9453	77.2949	43.9453	77.4329	43.9453	77.3876	43.9453	77.4355
45.4102	76.8848	45.4102	76.8829	45.4102	76.885	45.4102	76.8801	45.4102	76.8836	45.4102	76.8775	45.4102	76.881	45.4102	76.8769	45.4102	76.8783	45.4102	76.8812	45.4102	76.8775	45.4102	76.8935	45.4102	76.8812	45.4102	76.9179	45.4102	76.8928	45.4102	76.9586	45.4102	76.9165	45.4102	77.0191	45.4102	76.9567	45.4102	77.1017	45.4102	77.0174	45.4102	77.2056	45.4102	77.1007	45.4102	77.3267	45.4102	77.206	45.4102	77.4568	45.4102	77.3288	45.4102	77.5844	45.4102	77.4606	45.4102	77.6964	45.4102	77.5891	45.4102	77.7801	45.4102	77.701	45.4102	77.8254	45.4102	77.7835	45.4102	77.8266
47.6074	77.7653	47.6074	77.7642	47.6074	77.7669	47.6074	77.7639	47.6074	77.769	47.6074	77.7653	47.6074	77.7717	47.6074	77.7693	47.6074	77.7758	47.6074	77.7777	47.6074	77.7822	47.6074	77.7927	47.6074	77.7927	47.6074	77.817	47.6074	77.8095	47.6074	77.8536	47.6074	77.8355	47.6074	77.9054	47.6074	77.8736	47.6074	77.9742	47.6074	77.9269	47.6074	78.0598	47.6074	77.9972	47.6074	78.1595	47.6074	78.0841	47.6074	78.267	47.6074	78.1843	47.6074	78.3734	47.6074	78.2913	47.6074	78.468	47.6074	78.3955	47.6074	78.5399	47.6074	78.4857	47.6074	78.5805	47.6074	78.5515	47.6074	78.5845
49.0723	78.3661	49.0723	78.3653	49.0723	78.3687	49.0723	78.3665	49.0723	78.3731	49.0723	78.3703	49.0723	78.3795	49.0723	78.3774	49.0723	78.388	49.0723	78.3888	49.0723	78.3995	49.0723	78.4063	49.0723	78.4149	49.0723	78.4319	49.0723	78.4358	49.0723	78.4679	49.0723	78.4643	49.0723	78.5167	49.0723	78.5027	49.0723	78.5798	49.0723	78.5534	49.0723	78.6573	49.0723	78.6178	49.0723	78.7469	49.0723	78.6957	49.0723	78.8433	49.0723	78.7844	49.0723	78.9389	49.0723	78.8784	49.0723	79.0243	49.0723	78.9695	49.0723	79.0897	49.0723	79.0481	49.0723	79.1274	49.0723	79.1049	49.0723	79.1326
50.5371	78.8819	50.5371	78.8811	50.5371	78.8855	50.5371	78.8832	50.5371	78.8919	50.5371	78.8886	50.5371	78.901	50.5371	78.8975	50.5371	78.9128	50.5371	78.9107	50.5371	78.9277	50.5371	78.9293	50.5371	78.946	50.5371	78.9546	50.5371	78.9689	50.5371	78.9886	50.5371	78.9977	50.5371	79.033	50.5371	79.0341	50.5371	79.0892	50.5371	79.08	50.5371	79.1574	50.5371	79.1368	50.5371	79.2358	50.5371	79.2043	50.5371	79.3202	50.5371	79.2806	50.5371	79.4041	50.5371	79.3612	50.5371	79.4793	50.5371	79.4392	50.5371	79.5375	50.5371	79.5064	50.5371	79.5717	50.5371	79.5547	50.5371	79.5776
52.7344	79.6844	52.7344	79.685	52.7344	79.6881	52.7344	79.69	52.7344	79.6963	52.7344	79.6992	52.7344	79.7085	52.7344	79.7124	52.7344	79.7246	52.7344	79.7296	52.7344	79.7442	52.7344	79.7511	52.7344	79.7673	52.7344	79.7774	52.7344	79.7939	52.7344	79.8097	52.7344	79.8247	52.7344	79.8491	52.7344	79.8605	52.7344	79.8968	52.7344	79.9024	52.7344	79.953	52.7344	79.9514	52.7344	80.017	52.7344	80.0077	52.7344	80.0858	52.7344	80.0698	52.7344	80.1545	52.7344	80.1344	52.7344	80.2168	52.7344	80.1963	52.7344	80.2658	52.7344	80.2491	52.7344	80.2957	52.7344	80.2863	52.7344	80.3027
54.1992	80.1511	54.1992	80.1521	54.1992	80.1554	54.1992	80.1581	54.1992	80.1648	54.1992	80.1688	54.1992	80.179	54.1992	80.1838	54.1992	80.1976	54.1992	80.2027	54.1992	80.22	54.1992	80.2253	54.1992	80.2457	54.1992	80.252	54.1992	80.2744	54.1992	80.2832	54.1992	80.3063	54.1992	80.3199	54.1992	80.3417	54.1992	80.3631	54.1992	80.3814	54.1992	80.4132	54.1992	80.426	54.1992	80.4696	54.1992	80.4758	54.1992	80.5301	54.1992	80.5297	54.1992	80.5907	54.1992	80.585	54.1992	80.646	54.1992	80.6377	54.1992	80.69	54.1992	80.6821	54.1992	80.7176	54.1992	80.7128	54.1992	80.7254
56.3965	80.7915	56.3965	80.7921	56.3965	80.7975	56.3965	80.7989	56.3965	80.81	56.3965	80.8115	56.3965	80.8283	56.3965	80.8291	56.3965	80.8519	56.3965	80.8509	56.3965	80.8795	56.3965	80.8762	56.3965	80.9103	56.3965	80.9046	56.3965	80.9434	56.3965	80.9363	56.3965	80.9781	56.3965	80.9716	56.3965	81.0143	56.3965	81.0111	56.3965	81.0522	56.3965	81.0552	56.3965	81.0922	56.3965	81.1038	56.3965	81.1346	56.3965	81.1553	56.3965	81.1786	56.3965	81.2068	56.3965	81.2226	56.3965	81.2541	56.3965	81.2635	56.3965	81.2925	56.3965	81.2973	56.3965	81.3177	56.3965	81.3196	56.3965	81.3269
58.5938	81.4357	58.5938	81.4353	58.5938	81.4432	58.5938	81.4417	58.5938	81.4577	58.5938	81.4542	58.5938	81.4787	58.5938	81.4717	58.5938	81.5049	58.5938	81.4931	58.5938	81.5351	58.5938	81.5172	58.5938	81.5679	58.5938	81.5433	58.5938	81.6017	58.5938	81.5711	58.5938	81.6357	58.5938	81.6005	58.5938	81.669	58.5938	81.6321	58.5938	81.7014	58.5938	81.6664	58.5938	81.7333	58.5938	81.7036	58.5938	81.7647	58.5938	81.743	58.5938	81.7957	58.5938	81.783	58.5938	81.8254	58.5938	81.8205	58.5938	81.8519	58.5938	81.8521	58.5938	81.8727	58.5938	81.8746	58.5938	81.8847	58.5938	81.8857
60.0586	81.854	60.0586	81.8523	60.0586	81.8634	60.0586	81.8581	60.0586	81.8805	60.0586	81.8704	60.0586	81.9044	60.0586	81.888	60.0586	81.9338	60.0586	81.9096	60.0586	81.9673	60.0586	81.9337	60.0586	82.0029	60.0586	81.9592	60.0586	82.0388	60.0586	81.9855	60.0586	82.0736	60.0586	82.0123	60.0586	82.1062	60.0586	82.0401	60.0586	82.1362	60.0586	82.0693	60.0586	82.1634	60.0586	82.1005	60.0586	82.1884	60.0586	82.1335	60.0586	82.2112	60.0586	82.1672	60.0586	82.2317	60.0586	82.1995	60.0586	82.2488	60.0586	82.2278	60.0586	82.261	60.0586	82.2495	60.0586	82.266	60.0586	82.2624
62.2559	82.3674	62.2559	82.3686	62.2559	82.3749	62.2559	82.3781	62.2559	82.3909	62.2559	82.3947	62.2559	82.4146	62.2559	82.4171	62.2559	82.4447	62.2559	82.4433	62.2559	82.4793	62.2559	82.4716	62.2559	82.5162	62.2559	82.5005	62.2559	82.5535	62.2559	82.5286	62.2559	82.5892	62.2559	82.5554	62.2559	82.6218	62.2559	82.581	62.2559	82.6507	62.2559	82.6057	62.2559	82.6756	62.2559	82.6303	62.2559	82.6969	62.2559	82.6552	62.2559	82.7151	62.2559	82.68	62.2559	82.7305	62.2559	82.7037	62.2559	82.7427	62.2559	82.7245	62.2559	82.751	62.2559	82.7407	62.2559	82.754	62.2559	82.7507
64.4531	82.8358	64.4531	82.8377	64.4531	82.8432	64.4531	82.8483	64.4531	82.8597	64.4531	82.8666	64.4531	82.8845	64.4531	82.8909	64.4531	82.9159	64.4531	82.919	64.4531	82.9519	64.4531	82.9489	64.4531	82.9903	64.4531	82.9787	64.4531	83.0285	64.4531	83.0067	64.4531	83.0644	64.4531	83.0322	64.4531	83.0964	64.4531	83.0548	64.4531	83.1232	64.4531	83.0751	64.4531	83.1448	64.4531	83.0937	64.4531	83.1613	64.4531	83.1116	64.4531	83.1736	64.4531	83.1292	64.4531	83.1823	64.4531	83.1461	64.4531	83.188	64.4531	83.1617	64.4531	83.1904	64.4531	83.1746	64.4531	83.1892	64.4531	83.184
66.6504	83.1902	66.6504	83.1919	66.6504	83.1977	66.6504	83.2022	66.6504	83.2141	66.6504	83.2198	66.6504	83.2385	66.6504	83.2428	66.6504	83.2693	66.6504	83.2691	66.6504	83.3042	66.6504	83.2962	66.6504	83.3407	66.6504	83.3221	66.6504	83.3763	66.6504	83.3449	66.6504	83.4084	66.6504	83.3636	66.6504	83.4352	66.6504	83.3778	66.6504	83.4554	66.6504	83.3882	66.6504	83.4687	66.6504	83.396	66.6504	83.4756	66.6504	83.4025	66.6504	83.477	66.6504	83.4092	66.6504	83.4744	66.6504	83.4168	66.6504	83.4691	66.6504	83.4255	66.6504	83.4619	66.6504	83.4349	66.6504	83.4536	66.6504	83.4444
69.5801	83.799	69.5801	83.7976	69.5801	83.8099	69.5801	83.8051	69.5801	83.83	69.5801	83.8202	69.5801	83.8582	69.5801	83.8411	69.5801	83.8928	69.5801	83.8654	69.5801	83.9313	69.5801	83.8906	69.5801	83.971	69.5801	83.9144	69.5801	84.0089	69.5801	83.9348	69.5801	84.0424	69.5801	83.9506	69.5801	84.0691	69.5801	83.9614	69.5801	84.0876	69.5801	83.9679	69.5801	84.0972	69.5801	83.9714	69.5801	84.0984	69.5801	83.9739	69.5801	84.0923	69.5801	83.977	69.5801	84.0808	69.5801	83.9823	69.5801	84.0658	69.5801	83.9906	69.5801	84.0491	69.5801	84.002	69.5801	84.0321	69.5801	84.0161
71.7773	84.1038	71.7773	84.1015	71.7773	84.1158	71.7773	84.1083	71.7773	84.1371	71.7773	84.1228	71.7773	84.1667	71.7773	84.143	71.7773	84.2027	71.7773	84.1666	71.7773	84.2426	71.7773	84.1908	71.7773	84.2835	71.7773	84.2132	71.7773	84.3222	71.7773	84.2316	71.7773	84.3558	71.7773	84.2446	71.7773	84.3818	71.7773	84.2518	71.7773	84.3982	71.7773	84.2538	71.7773	84.4044	71.7773	84.2521	71.7773	84.4007	71.7773	84.2489	71.7773	84.3884	71.7773	84.2467	71.7773	84.3696	71.7773	84.2475	71.7773	84.3468	71.7773	84.2529	71.7773	84.3227	71.7773	84.2636	71.7773	84.2996	71.7773	84.2794
73.9746	84.507	73.9746	84.5032	73.9746	84.5205	73.9746	84.5085	73.9746	84.5432	73.9746	84.5214	73.9746	84.5739	73.9746	84.54	73.9746	84.6107	73.9746	84.5618	73.9746	84.651	73.9746	84.584	73.9746	84.6916	73.9746	84.6039	73.9746	84.7292	73.9746	84.6193	73.9746	84.7606	73.9746	84.6286	73.9746	84.7832	73.9746	84.6313	73.9746	84.795	73.9746	84.6279	73.9746	84.7953	73.9746	84.6203	73.9746	84.7845	73.9746	84.6107	73.9746	84.7642	73.9746	84.6023	73.9746	84.737	73.9746	84.5976	73.9746	84.7062	73.9746	84.5989	73.9746	84.6752	73.9746	84.6076	73.9746	84.6469	73.9746	84.6238
76.9043	84.9025	76.9043	84.8995	76.9043	84.915	76.9043	84.9054	76.9043	84.9367	76.9043	84.9187	76.9043	84.9664	76.9043	84.9372	76.9043	85.0021	76.9043	84.9585	76.9043	85.0411	76.9043	84.9796	76.9043	85.0802	76.9043	84.9976	76.9043	85.1159	76.9043	85.0101	76.9043	85.1448	76.9043	85.0156	76.9043	85.164	76.9043	85.0133	76.9043	85.1716	76.9043	85.0039	76.9043	85.1666	76.9043	84.9892	76.9043	85.1496	76.9043	84.972	76.9043	85.1225	76.9043	84.9557	76.9043	85.0884	76.9043	84.9438	76.9043	85.0511	76.9043	84.9393	76.9043	85.0147	76.9043	84.944	76.9043	84.9829	76.9043	84.9588
79.834	85.2575	79.834	85.2622	79.834	85.2629	79.834	85.2762	79.834	85.2784	79.834	85.298	79.834	85.3028	79.834	85.3253	79.834	85.3344	79.834	85.3554	79.834	85.3708	79.834	85.3851	79.834	85.4087	79.834	85.4115	79.834	85.4449	79.834	85.4318	79.834	85.4759	79.834	85.4441	79.834	85.4988	79.834	85.4471	79.834	85.5114	79.834	85.4412	79.834	85.5125	79.834	85.4279	79.834	85.5025	79.834	85.4096	79.834	85.483	79.834	85.3899	79.834	85.4569	79.834	85.3725	79.834	85.428	79.834	85.3606	79.834	85.4003	79.834	85.3568	79.834	85.3776	79.834	85.3625
82.7637	85.7505	82.7637	85.7597	82.7637	85.7481	82.7637	85.7749	82.7637	85.7526	82.7637	85.7944	82.7637	85.763	82.7637	85.816	82.7637	85.7778	82.7637	85.8369	82.7637	85.7948	82.7637	85.854	82.7637	85.8111	82.7637	85.8643	82.7637	85.8238	82.7637	85.865	82.7637	85.8298	82.7637	85.8542	82.7637	85.8267	82.7637	85.831	82.7637	85.8126	82.7637	85.7961	82.7637	85.7872	82.7637	85.7517	82.7637	85.7515	82.7637	85.7015	82.7637	85.708	82.7637	85.6505	82.7637	85.661	82.7637	85.604	82.7637	85.6156	82.7637	85.5674	82.7637	85.577	82.7637	85.5449	82.7637	85.5503	82.7637	85.539
85.6934	86.1054	85.6934	86.1114	85.6934	86.1044	85.6934	86.1216	85.6934	86.1082	85.6934	86.1345	85.6934	86.1158	85.6934	86.1477	85.6934	86.1255	85.6934	86.1584	85.6934	86.1349	85.6934	86.1633	85.6934	86.141	85.6934	86.1593	85.6934	86.1408	85.6934	86.1437	85.6934	86.1314	85.6934	86.1146	85.6934	86.1106	85.6934	86.0715	85.6934	86.0768	85.6934	86.0155	85.6934	86.0302	85.6934	85.9497	85.6934	85.9724	85.6934	85.8789	85.6934	85.907	85.6934	85.8091	85.6934	85.839	85.6934	85.7472	85.6934	85.7747	85.6934	85.6995	85.6934	85.7206	85.6934	85.6713	85.6934	85.6828	85.6934	85.6656
88.623	86.2127	88.623	86.209	88.623	86.2262	88.623	86.2147	88.623	86.2492	88.623	86.2286	88.623	86.2803	88.623	86.2483	88.623	86.3171	88.623	86.271	88.623	86.3568	88.623	86.2936	88.623	86.396	88.623	86.3126	88.623	86.4309	88.623	86.3249	88.623	86.4578	88.623	86.3284	88.623	86.4736	88.623	86.3217	88.623	86.476	88.623	86.3052	88.623	86.4639	88.623	86.2808	88.623	86.4379	88.623	86.2518	88.623	86.4001	88.623	86.2227	88.623	86.3545	88.623	86.1984	88.623	86.3058	88.623	86.1836	88.623	86.2596	88.623	86.1816	88.623	86.221	88.623	86.1942
91.5527	86.2557	91.5527	86.2477	91.5527	86.277	91.5527	86.2526	91.5527	86.311	91.5527	86.2695	91.5527	86.3562	91.5527	86.2964	91.5527	86.4102	91.5527	86.3305	91.5527	86.4699	91.5527	86.3688	91.5527	86.5318	91.5527	86.4077	91.5527	86.5915	91.5527	86.4439	91.5527	86.6451	91.5527	86.4743	91.5527	86.6885	91.5527	86.497	91.5527	86.7186	91.5527	86.5111	91.5527	86.7334	91.5527	86.5174	91.5527	86.7325	91.5527	86.518	91.5527	86.717	91.5527	86.516	91.5527	86.6899	91.5527	86.5152	91.5527	86.6551	91.5527	86.5195	91.5527	86.6176	91.5527	86.5315	91.5527	86.5821	91.5527	86.5526
94.4824	86.7308	94.4824	86.7307	94.4824	86.7367	94.4824	86.736	94.4824	86.7486	94.4824	86.7453	94.4824	86.7657	94.4824	86.757	94.4824	86.7867	94.4824	86.7688	94.4824	86.8096	94.4824	86.7782	94.4824	86.8318	94.4824	86.7824	94.4824	86.8505	94.4824	86.7791	94.4824	86.8624	94.4824	86.7666	94.4824	86.8648	94.4824	86.7439	94.4824	86.8553	94.4824	86.7117	94.4824	86.8327	94.4824	86.6719	94.4824	86.7973	94.4824	86.6283	94.4824	86.7511	94.4824	86.5856	94.4824	86.6979	94.4824	86.5493	94.4824	86.6429	94.4824	86.5247	94.4824	86.592	94.4824	86.5158	94.4824	86.551	94.4824	86.5247
98.1445	87.0652	98.1445	87.0705	98.1445	87.0642	98.1445	87.0796	98.1445	87.0673	98.1445	87.0912	98.1445	87.0737	98.1445	87.1037	98.1445	87.0819	98.1445	87.1144	98.1445	87.0899	98.1445	87.1207	98.1445	87.0951	98.1445	87.1193	98.1445	87.0947	98.1445	87.1075	98.1445	87.0859	98.1445	87.0829	98.1445	87.0662	98.1445	87.0444	98.1445	87.0339	98.1445	86.9924	98.1445	86.9887	98.1445	86.9292	98.1445	86.932	98.1445	86.859	98.1445	86.867	98.1445	86.7878	98.1445	86.7989	98.1445	86.7226	98.1445	86.7343	98.1445	86.6707	98.1445	86.6803	98.1445	86.6381	98.1445	86.6435	98.1445	86.6287
101.807	87.3024	101.807	87.3042	101.807	87.3046	101.807	87.3094	101.807	87.3109	101.807	87.317	101.807	87.3207	101.807	87.325	101.807	87.3328	101.807	87.3314	101.807	87.3456	101.807	87.3334	101.807	87.3566	101.807	87.3283	101.807	87.363	101.807	87.3135	101.807	87.3618	101.807	87.2871	101.807	87.3502	101.807	87.2482	101.807	87.3258	101.807	87.1975	101.807	87.2875	101.807	87.1377	101.807	87.236	101.807	87.0732	101.807	87.1737	101.807	87.0102	101.807	87.1052	101.807	86.9554	101.807	87.0366	101.807	86.9158	101.807	86.9752	101.807	86.8966	101.807	86.928	101.807	86.9007
105.469	87.4416	105.469	87.4393	105.469	87.4471	105.469	87.4395	105.469	87.4556	105.469	87.4412	105.469	87.467	105.469	87.4429	105.469	87.4802	105.469	87.4427	105.469	87.4939	105.469	87.4382	105.469	87.5059	105.469	87.4272	105.469	87.5138	105.469	87.4076	105.469	87.5148	105.469	87.3779	105.469	87.5061	105.469	87.3377	105.469	87.4853	105.469	87.2882	105.469	87.4512	105.469	87.2322	105.469	87.4038	105.469	87.1744	105.469	87.3449	105.469	87.1204	105.469	87.2783	105.469	87.0766	105.469	87.2095	105.469	87.049	105.469	87.1453	105.469	87.0416	105.469	87.0923	105.469	87.0564
109.131	87.6695	109.131	87.6761	109.131	87.6649	109.131	87.6841	109.131	87.6624	109.131	87.6927	109.131	87.6617	109.131	87.7007	109.131	87.6622	109.131	87.706	109.131	87.6628	109.131	87.7066	109.131	87.662	109.131	87.7	109.131	87.6581	109.131	87.6839	109.131	87.6488	109.131	87.6566	109.131	87.632	109.131	87.6174	109.131	87.6059	109.131	87.5669	109.131	87.5696	109.131	87.5075	109.131	87.5236	109.131	87.4434	109.131	87.4698	109.131	87.3801	109.131	87.412	109.131	87.324	109.131	87.3555	109.131	87.2812	109.131	87.3063	109.131	87.2567	109.131	87.2706	109.131	87.2532
112.793	87.9565	112.793	87.9643	112.793	87.9497	112.793	87.9731	112.793	87.9438	112.793	87.9825	112.793	87.9381	112.793	87.9912	112.793	87.9319	112.793	87.9976	112.793	87.9241	112.793	87.9994	112.793	87.9134	112.793	87.994	112.793	87.8982	112.793	87.9788	112.793	87.877	112.793	87.9516	112.793	87.8482	112.793	87.911	112.793	87.8108	112.793	87.8573	112.793	87.7647	112.793	87.7925	112.793	87.711	112.793	87.7206	112.793	87.6526	112.793	87.647	112.793	87.5937	112.793	87.5785	112.793	87.5397	112.793	87.5219	112.793	87.4969	112.793	87.4829	112.793	87.4708	112.793	87.4656
116.455	88.0816	116.455	88.0702	116.455	88.0939	116.455	88.0604	116.455	88.1065	116.455	88.0522	116.455	88.1184	116.455	88.0455	116.455	88.1285	116.455	88.0392	116.455	88.1355	116.455	88.0319	116.455	88.138	116.455	88.0214	116.455	88.1339	116.455	88.0056	116.455	88.1216	116.455	87.9822	116.455	88.0993	116.455	87.9499	116.455	88.0657	116.455	87.9084	116.455	88.0207	116.455	87.8592	116.455	87.9653	116.455	87.8055	116.455	87.9023	116.455	87.7519	116.455	87.8359	116.455	87.7044	116.455	87.7719	116.455	87.669	116.455	87.7163	116.455	87.6506	116.455	87.675	116.455	87.6524
120.85	88.2923	120.85	88.2719	120.85	88.3099	120.85	88.2489	120.85	88.3244	120.85	88.2239	120.85	88.3359	120.85	88.1973	120.85	88.3442	120.85	88.1695	120.85	88.3494	120.85	88.1405	120.85	88.3511	120.85	88.1102	120.85	88.3483	120.85	88.0781	120.85	88.3399	120.85	88.0438	120.85	88.3241	120.85	88.0074	120.85	88.2996	120.85	87.9695	120.85	88.265	120.85	87.9319	120.85	88.2203	120.85	87.8971	120.85	88.1663	120.85	87.8686	120.85	88.1057	120.85	87.8502	120.85	88.0422	120.85	87.8454	120.85	87.9807	120.85	87.8564	120.85	87.9264	120.85	87.8839
125.244	88.5094	125.244	88.4922	125.244	88.5202	125.244	88.4687	125.244	88.5249	125.244	88.4388	125.244	88.5238	125.244	88.4026	125.244	88.517	125.244	88.3599	125.244	88.5046	125.244	88.3109	125.244	88.4864	125.244	88.2555	125.244	88.4619	125.244	88.194	125.244	88.4301	125.244	88.1272	125.244	88.3899	125.244	88.0564	125.244	88.3404	125.244	87.9841	125.244	88.2809	125.244	87.9137	125.244	88.2119	125.244	87.8498	125.244	88.1351	125.244	87.7971	125.244	88.0534	125.244	87.7607	125.244	87.9713	125.244	87.7444	125.244	87.8945	125.244	87.7506	125.244	87.8287	125.244	87.7794
129.639	88.4908	129.639	88.4868	129.639	88.4909	129.639	88.4785	129.639	88.4871	129.639	88.4652	129.639	88.4793	129.639	88.446	129.639	88.4673	129.639	88.4196	129.639	88.4501	129.639	88.3842	129.639	88.4269	129.639	88.3383	129.639	88.3962	129.639	88.2806	129.639	88.3562	129.639	88.2103	129.639	88.3055	129.639	88.1281	129.639	88.2428	129.639	88.0363	129.639	88.168	129.639	87.9391	129.639	88.0824	129.639	87.8426	129.639	87.989	129.639	87.7541	129.639	87.8926	129.639	87.6813	129.639	87.7998	129.639	87.6314	129.639	87.7183	129.639	87.6094	129.639	87.6555	129.639	87.6178
134.033	88.2405	134.033	88.2497	134.033	88.2297	134.033	88.2573	134.033	88.2177	134.033	88.2634	134.033	88.2053	134.033	88.2681	134.033	88.1933	134.033	88.2714	134.033	88.1828	134.033	88.2724	134.033	88.1741	134.033	88.27	134.033	88.1672	134.033	88.2627	134.033	88.1613	134.033	88.249	134.033	88.1547	134.033	88.2278	134.033	88.1457	134.033	88.1988	134.033	88.1325	134.033	88.163	134.033	88.1142	134.033	88.1228	134.033	88.0908	134.033	88.0818	134.033	88.0639	134.033	88.0442	134.033	88.0365	134.033	88.0142	134.033	88.0123	134.033	87.9952	134.033	87.9953	134.033	87.9889
138.428	88.4561	138.428	88.4551	138.428	88.4501	138.428	88.4478	138.428	88.4367	138.428	88.4356	138.428	88.4167	138.428	88.42	138.428	88.3913	138.428	88.4023	138.428	88.3623	138.428	88.3835	138.428	88.3314	138.428	88.364	138.428	88.3006	138.428	88.3438	138.428	88.2711	138.428	88.3221	138.428	88.2439	138.428	88.2985	138.428	88.2191	138.428	88.2725	138.428	88.1967	138.428	88.2446	138.428	88.1764	138.428	88.2155	138.428	88.158	138.428	88.187	138.428	88.1416	138.428	88.161	138.428	88.1281	138.428	88.1395	138.428	88.1184	138.428	88.124	138.428	88.1138	138.428	88.1155
143.555	88.6743	143.555	88.6563	143.555	88.6809	143.555	88.6279	143.555	88.6755	143.555	88.5907	143.555	88.6584	143.555	88.5466	143.555	88.6302	143.555	88.4974	143.555	88.5921	143.555	88.4446	143.555	88.5456	143.555	88.3895	143.555	88.4921	143.555	88.3329	143.555	88.4331	143.555	88.2753	143.555	88.3698	143.555	88.2175	143.555	88.3038	143.555	88.1602	143.555	88.2366	143.555	88.1048	143.555	88.1701	143.555	88.0529	143.555	88.1066	143.555	88.0067	143.555	88.0489	143.555	87.9686	143.555	87.9996	143.555	87.9408	143.555	87.961	143.555	87.9252	143.555	87.9352	143.555	87.9231
148.682	88.6735	148.682	88.6432	148.682	88.6917	148.682	88.6021	148.682	88.6975	148.682	88.5521	148.682	88.6912	148.682	88.4956	148.682	88.6738	148.682	88.4351	148.682	88.6467	148.682	88.3728	148.682	88.6113	148.682	88.3104	148.682	88.5688	148.682	88.2494	148.682	88.5201	148.682	88.1904	148.682	88.4657	148.682	88.1343	148.682	88.4061	148.682	88.0818	148.682	88.342	148.682	88.0341	148.682	88.2746	148.682	87.9927	148.682	88.2058	148.682	87.9594	148.682	88.1385	148.682	87.9364	148.682	88.0757	148.682	87.9256	148.682	88.0208	148.682	87.9283	148.682	87.9766	148.682	87.9454
153.809	88.693	153.809	88.6707	153.809	88.6994	153.809	88.6331	153.809	88.6904	153.809	88.5816	153.809	88.6671	153.809	88.5183	153.809	88.6317	153.809	88.4457	153.809	88.5866	153.809	88.3664	153.809	88.5343	153.809	88.2833	153.809	88.4772	153.809	88.199	153.809	88.417	153.809	88.116	153.809	88.3545	153.809	88.0369	153.809	88.2904	153.809	87.9642	153.809	88.2245	153.809	87.9004	153.809	88.1573	153.809	87.848	153.809	88.0893	153.809	87.8092	153.809	88.0221	153.809	87.7856	153.809	87.9579	153.809	87.7782	153.809	87.8994	153.809	87.7871	153.809	87.8497	153.809	87.8115
159.668	88.8523	159.668	88.839	159.668	88.8467	159.668	88.8071	159.668	88.8225	159.668	88.7578	159.668	88.7813	159.668	88.693	159.668	88.7252	159.668	88.6147	159.668	88.6572	159.668	88.5257	159.668	88.5806	159.668	88.4286	159.668	88.4987	159.668	88.3265	159.668	88.4146	159.668	88.2229	159.668	88.3309	159.668	88.1215	159.668	88.2492	159.668	88.0262	159.668	88.1707	159.668	87.9411	159.668	88.0962	159.668	87.8698	159.668	88.0262	159.668	87.8152	159.668	87.9614	159.668	87.779	159.668	87.9026	159.668	87.7617	159.668	87.8514	159.668	87.7622	159.668	87.8094	159.668	87.7789
164.795	88.9151	164.795	88.9198	164.795	88.8953	164.795	88.91	164.795	88.8606	164.795	88.8862	164.795	88.8116	164.795	88.8494	164.795	88.7497	164.795	88.8	164.795	88.6769	164.795	88.7387	164.795	88.5958	164.795	88.6659	164.795	88.5089	164.795	88.5826	164.795	88.4192	164.795	88.4902	164.795	88.329	164.795	88.391	164.795	88.2407	164.795	88.2886	164.795	88.1565	164.795	88.1874	164.795	88.0783	164.795	88.0921	164.795	88.008	164.795	88.0077	164.795	87.9474	164.795	87.9381	164.795	87.8985	164.795	87.8862	164.795	87.8629	164.795	87.853	164.795	87.8425	164.795	87.8387
170.654	88.4664	170.654	88.4486	170.654	88.476	170.654	88.4257	170.654	88.4748	170.654	88.4014	170.654	88.4618	170.654	88.3786	170.654	88.4371	170.654	88.3594	170.654	88.4019	170.654	88.344	170.654	88.3585	170.654	88.3311	170.654	88.3094	170.654	88.3181	170.654	88.2574	170.654	88.3018	170.654	88.205	170.654	88.2796	170.654	88.1542	170.654	88.2499	170.654	88.1068	170.654	88.2126	170.654	88.0643	170.654	88.1695	170.654	88.028	170.654	88.1236	170.654	87.9993	170.654	88.0786	170.654	87.9794	170.654	88.0381	170.654	87.9694	170.654	88.0053	170.654	87.9703	170.654	87.9823
176.514	88.4474	176.514	88.3989	176.514	88.4749	176.514	88.3332	176.514	88.4795	176.514	88.2563	176.514	88.462	176.514	88.1754	176.514	88.4247	176.514	88.0982	176.514	88.3719	176.514	88.0312	176.514	88.3084	176.514	87.979	176.514	88.2398	176.514	87.9435	176.514	88.171	176.514	87.924	176.514	88.1064	176.514	87.9172	176.514	88.0494	176.514	87.9189	176.514	88.002	176.514	87.9248	176.514	87.9653	176.514	87.9311	176.514	87.9392	176.514	87.9354	176.514	87.9229	176.514	87.9364	176.514	87.9151	176.514	87.934	176.514	87.9138	176.514	87.9291	176.514	87.9171	176.514	87.9229
183.105	88.404	183.105	88.3658	183.105	88.4117	183.105	88.2984	183.105	88.3901	183.105	88.2064	183.105	88.3427	183.105	88.0969	183.105	88.275	183.105	87.9793	183.105	88.1933	183.105	87.8641	183.105	88.1043	183.105	87.7615	183.105	88.0146	183.105	87.6799	183.105	87.9297	183.105	87.6242	183.105	87.8541	183.105	87.5954	183.105	87.7908	183.105	87.5904	183.105	87.7416	183.105	87.6033	183.105	87.707	183.105	87.6268	183.105	87.6865	183.105	87.6535	183.105	87.6783	183.105	87.6773	183.105	87.6797	183.105	87.6942	183.105	87.6869	183.105	87.7023	183.105	87.6958	183.105	87.7021
189.697	88.2522	189.697	88.2472	189.697	88.223	189.697	88.2086	189.697	88.1621	189.697	88.1398	189.697	88.0751	189.697	88.0473	189.697	87.9703	189.697	87.9396	189.697	87.8583	189.697	87.8275	189.697	87.7512	189.697	87.7223	189.697	87.6604	189.697	87.6352	189.697	87.5955	189.697	87.5753	189.697	87.562	189.697	87.5481	189.697	87.5612	189.697	87.5544	189.697	87.5893	189.697	87.5901	189.697	87.6391	189.697	87.6472	189.697	87.7015	189.697	87.7151	189.697	87.7667	189.697	87.783	189.697	87.8257	189.697	87.8412	189.697	87.8712	189.697	87.8823	189.697	87.8977	189.697	87.9017
196.289	88.5182	196.289	88.4745	196.289	88.52	196.289	88.3924	196.289	88.4788	196.289	88.2777	196.289	88.3963	196.289	88.1385	196.289	88.2773	196.289	87.9847	196.289	88.1298	196.289	87.8281	196.289	87.965	196.289	87.6811	196.289	87.7969	196.289	87.556	196.289	87.6411	196.289	87.4632	196.289	87.5125	196.289	87.4094	196.289	87.4232	196.289	87.3963	196.289	87.3797	196.289	87.4196	196.289	87.3811	196.289	87.4701	196.289	87.4198	196.289	87.5354	196.289	87.4828	196.289	87.6016	196.289	87.5551	196.289	87.6562	196.289	87.6219	196.289	87.6893	196.289	87.6711	196.289	87.6947
202.881	88.5066	202.881	88.4507	202.881	88.5184	202.881	88.3536	202.881	88.4852	202.881	88.2201	202.881	88.4085	202.881	88.0573	202.881	88.2921	202.881	87.8747	202.881	88.1425	202.881	87.6838	202.881	87.9695	202.881	87.4984	202.881	87.7853	202.881	87.3329	202.881	87.6048	202.881	87.2012	202.881	87.4436	202.881	87.1141	202.881	87.3163	202.881	87.0766	202.881	87.2328	202.881	87.0862	202.881	87.1968	202.881	87.1335	202.881	87.2038	202.881	87.2038	202.881	87.2426	202.881	87.2802	202.881	87.2978	202.881	87.3469	202.881	87.3527	202.881	87.3917	202.881	87.3927	202.881	87.4073
210.205	88.4565	210.205	88.3992	210.205	88.4659	210.205	88.296	210.205	88.4273	210.205	88.1513	210.205	88.3429	210.205	87.9714	210.205	88.217	210.205	87.7653	210.205	88.0564	210.205	87.5447	210.205	87.8706	210.205	87.3241	210.205	87.6716	210.205	87.12	210.205	87.4736	210.205	86.9498	210.205	87.2923	210.205	86.8282	210.205	87.1427	210.205	86.7648	210.205	87.0366	210.205	86.7602	210.205	86.9801	210.205	86.8055	210.205	86.971	210.205	86.8841	210.205	86.9992	210.205	86.9752	210.205	87.0485	210.205	87.0586	210.205	87.1001	210.205	87.1182	210.205	87.1365	210.205	87.1447
217.529	88.3692	217.529	88.3218	217.529	88.3672	217.529	88.2264	217.529	88.3164	217.529	88.0866	217.529	88.2198	217.529	87.9083	217.529	88.083	217.529	87.7001	217.529	87.914	217.529	87.4734	217.529	87.7239	217.529	87.2429	217.529	87.5261	217.529	87.0259	217.529	87.3359	217.529	86.8408	217.529	87.1685	217.529	86.7046	217.529	87.0375	217.529	86.6284	217.529	86.9513	217.529	86.6148	217.529	86.912	217.529	86.6561	217.529	86.9141	217.529	86.736	217.529	86.9455	217.529	86.8334	217.529	86.99	217.529	86.9273	217.529	87.0305	217.529	87.0007	217.529	87.0517	217.529	87.0432
225.586	88.3908	225.586	88.358	225.586	88.3657	225.586	88.2694	225.586	88.2823	225.586	88.1293	225.586	88.1431	225.586	87.9441	225.586	87.9532	225.586	87.7229	225.586	87.7216	225.586	87.478	225.586	87.4622	225.586	87.2255	225.586	87.1935	225.586	86.9851	225.586	86.9393	225.586	86.7788	225.586	86.7252	225.586	86.6279	225.586	86.5751	225.586	86.5477	225.586	86.5041	225.586	86.5428	225.586	86.514	225.586	86.6043	225.586	86.5914	225.586	86.7114	225.586	86.7113	225.586	86.8364	225.586	86.8437	225.586	86.9511	225.586	86.9599	225.586	87.0318	225.586	87.0374	225.586	87.0627
232.91	88.4854	232.91	88.4484	232.91	88.4659	232.91	88.3586	232.91	88.3873	232.91	88.2208	232.91	88.2484	232.91	88.0409	232.91	88.0502	232.91	87.8265	232.91	87.7969	232.91	87.5875	232.91	87.4973	232.91	87.337	232.91	87.1665	232.91	87.0913	232.91	86.8273	232.91	86.8699	232.91	86.5105	232.91	86.6924	232.91	86.2511	232.91	86.5754	232.91	86.0812	232.91	86.5262	232.91	86.0194	232.91	86.5396	232.91	86.0623	232.91	86.5975	232.91	86.1854	232.91	86.6731	232.91	86.3505	232.91	86.7373	232.91	86.5176	232.91	86.7648	232.91	86.654	232.91	86.7389
241.699	88.1502	241.699	88.0711	241.699	88.1702	241.699	87.936	241.699	88.1301	241.699	87.7496	241.699	88.0306	241.699	87.5191	241.699	87.8739	241.699	87.2543	241.699	87.6647	241.699	86.9686	241.699	87.4108	241.699	86.6792	241.699	87.1237	241.699	86.4071	241.699	86.8203	241.699	86.1756	241.699	86.5231	241.699	86.0071	241.699	86.2592	241.699	85.9171	241.699	86.0567	241.699	85.9085	241.699	85.9372	241.699	85.9694	241.699	85.9081	241.699	86.0745	241.699	85.9585	241.699	86.1917	241.699	86.0612	241.699	86.2897	241.699	86.1808	241.699	86.3442	241.699	86.283	241.699	86.3419
249.756	88.43	249.756	88.3672	249.756	88.4252	249.756	88.2392	249.756	88.3514	249.756	88.0498	249.756	88.2088	249.756	87.8051	249.756	87.9989	249.756	87.5135	249.756	87.7259	249.756	87.1867	249.756	87.3974	249.756	86.841	249.756	87.0265	249.756	86.4976	249.756	86.6338	249.756	86.1821	249.756	86.2486	249.756	85.922	249.756	85.9076	249.756	85.7413	249.756	85.6488	249.756	85.6525	249.756	85.5004	249.756	85.6518	249.756	85.4692	249.756	85.7174	249.756	85.5358	249.756	85.8157	249.756	85.661	249.756	85.9099	249.756	85.7994	249.756	85.9685	249.756	85.9114	249.756	85.9711
258.545	88.2731	258.545	88.194	258.545	88.2935	258.545	88.059	258.545	88.2542	258.545	87.8723	258.545	88.1552	258.545	87.6405	258.545	87.9979	258.545	87.3734	258.545	87.7854	258.545	87.0839	258.545	87.5232	258.545	86.7895	258.545	87.2204	258.545	86.5108	258.545	86.891	258.545	86.2707	258.545	86.556	258.545	86.0899	258.545	86.2425	258.545	85.9818	258.545	85.9821	258.545	85.9481	258.545	85.8033	258.545	85.976	258.545	85.7225	258.545	86.0418	258.545	85.7364	258.545	86.116	258.545	85.8214	258.545	86.1705	258.545	85.9416	258.545	86.184	258.545	86.0597	258.545	86.1461
268.066	87.9403	268.066	87.8395	268.066	87.9801	268.066	87.6798	268.066	87.9571	268.066	87.4643	268.066	87.87	268.066	87.1982	268.066	87.7179	268.066	86.8901	268.066	87.5008	268.066	86.5539	268.066	87.2207	268.066	86.2102	268.066	86.8841	268.066	85.8869	268.066	86.5038	268.066	85.6169	268.066	86.1025	268.066	85.4309	268.066	85.7145	268.066	85.3475	268.066	85.384	268.066	85.3646	268.066	85.1557	268.066	85.4574	268.066	85.059	268.066	85.5864	268.066	85.0939	268.066	85.7085	268.066	85.2291	268.066	85.7871	268.066	85.4135	268.066	85.7977	268.066	85.5947	268.066	85.7311
277.588	88.1861	277.588	88.1466	277.588	88.1423	277.588	88.0219	277.588	88.0207	277.588	87.8129	277.588	87.8303	277.588	87.5241	277.588	87.5842	277.588	87.164	277.588	87.2992	277.588	86.7472	277.588	86.995	277.588	86.2967	277.588	86.6929	277.588	85.8473	277.588	86.4134	277.588	85.4451	277.588	86.1749	277.588	85.1424	277.588	85.9916	277.588	84.9824	277.588	85.8722	277.588	84.9811	277.588	85.8191	277.588	85.1173	277.588	85.827	277.588	85.3404	277.588	85.8818	277.588	85.5902	277.588	85.9614	277.588	85.8145	277.588	86.0376	277.588	85.9785	277.588	86.0812	277.588	86.0667
287.109	88.336	287.109	88.2808	287.109	88.3036	287.109	88.1407	287.109	88.1813	287.109	87.9187	287.109	87.9687	287.109	87.6179	287.109	87.6689	287.109	87.2438	287.109	87.2912	287.109	86.8069	287.109	86.8538	287.109	86.3274	287.109	86.3868	287.109	85.8401	287.109	85.9333	287.109	85.3972	287.109	85.5462	287.109	85.0623	287.109	85.2772	287.109	84.8917	287.109	85.1598	287.109	84.9072	287.109	85.1943	287.109	85.0817	287.109	85.3477	287.109	85.3515	287.109	85.5672	287.109	85.6431	287.109	85.7972	287.109	85.8956	287.109	85.9907	287.109	86.0687	287.109	86.1132	287.109	86.1424
297.363	88.5054	297.363	88.4162	297.363	88.5242	297.363	88.2623	297.363	88.4645	297.363	88.0471	297.363	88.3166	297.363	87.7719	297.363	88.0702	297.363	87.4375	297.363	87.7167	297.363	87.0459	297.363	87.2517	297.363	86.6037	297.363	86.68	297.363	86.1275	297.363	86.0232	297.363	85.6482	297.363	85.3301	297.363	85.2146	297.363	84.6851	297.363	84.8869	297.363	84.2013	297.363	84.7171	297.363	83.9786	297.363	84.7215	297.363	84.0416	297.363	84.8661	297.363	84.3188	297.363	85.0804	297.363	84.6888	297.363	85.2849	297.363	85.0399	297.363	85.4139	297.363	85.2975	297.363	85.4244
307.617	87.9403	307.617	87.8091	307.617	88.0044	307.617	87.6136	307.617	87.9989	307.617	87.3578	307.617	87.9205	307.617	87.0473	307.617	87.7647	307.617	86.6904	307.617	87.5265	307.617	86.2994	307.617	87.2013	307.617	85.8921	307.617	86.7887	307.617	85.4944	307.617	86.297	307.617	85.141	307.617	85.7514	307.617	84.8726	307.617	85.2025	307.617	84.7266	307.617	84.7293	307.617	84.7218	307.617	84.4239	307.617	84.8457	307.617	84.3501	307.617	85.0542	307.617	84.4993	307.617	85.2852	307.617	84.7911	307.617	85.4753	307.617	85.1177	307.617	85.5733	307.617	85.3882	307.617	85.547
318.604	87.8492	318.604	87.7586	318.604	87.8641	318.604	87.5874	318.604	87.8081	318.604	87.3318	318.604	87.6848	318.604	86.9903	318.604	87.4965	318.604	86.5664	318.604	87.2432	318.604	86.0713	318.604	86.9239	318.604	85.5286	318.604	86.5376	318.604	84.9792	318.604	86.0871	318.604	84.4836	318.604	85.5848	318.604	84.1138	318.604	85.0604	318.604	83.9309	318.604	84.5678	318.604	83.9535	318.604	84.1833	318.604	84.1425	318.604	83.9825	318.604	84.4185	318.604	83.9978	318.604	84.6936	318.604	84.1915	318.604	84.8962	318.604	84.4729	318.604	84.9799	318.604	84.7427	318.604	84.9255
329.59	87.9442	329.59	87.8684	329.59	87.9441	329.59	87.7134	329.59	87.8701	329.59	87.4744	329.59	87.7231	329.59	87.1452	329.59	87.5043	329.59	86.7197	329.59	87.2153	329.59	86.1955	329.59	86.8597	329.59	85.5797	329.59	86.4447	329.59	84.8996	329.59	85.9834	329.59	84.2158	329.59	85.4991	329.59	83.6309	329.59	85.0279	329.59	83.27	329.59	84.6194	329.59	83.2163	329.59	84.328	329.59	83.4454	329.59	84.1941	329.59	83.8376	329.59	84.2219	329.59	84.2528	329.59	84.3717	329.59	84.5873	329.59	84.5728	329.59	84.7858	329.59	84.7484	329.59	84.8338
341.309	87.423	341.309	87.3888	341.309	87.3779	341.309	87.2758	341.309	87.2525	341.309	87.0837	341.309	87.046	341.309	86.8118	341.309	86.7579	341.309	86.4588	341.309	86.3893	341.309	86.0256	341.309	85.9448	341.309	85.5181	341.309	85.4363	341.309	84.9541	341.309	84.8888	341.309	84.3715	341.309	84.3472	341.309	83.8368	341.309	83.8802	341.309	83.4414	341.309	83.5705	341.309	83.2729	341.309	83.4821	341.309	83.3633	341.309	83.6201	341.309	83.6606	341.309	83.9197	341.309	84.0555	341.309	84.2771	341.309	84.434	341.309	84.5924	341.309	84.7105	341.309	84.7925	341.309	84.8358
353.76	87.7733	353.76	87.6942	353.76	87.7806	353.76	87.5467	353.76	87.7104	353.76	87.331	353.76	87.555	353.76	87.0442	353.76	87.3063	353.76	86.6806	353.76	86.9559	353.76	86.2345	353.76	86.4969	353.76	85.704	353.76	85.927	353.76	85.0992	353.76	85.2541	353.76	84.4537	353.76	84.5065	353.76	83.8367	353.76	83.7485	353.76	83.3552	353.76	83.093	353.76	83.1198	353.76	82.6846	353.76	83.1759	353.76	82.6258	353.76	83.4597	353.76	82.8927	353.76	83.8358	353.76	83.3446	353.76	84.1691	353.76	83.8156	353.76	84.365	353.76	84.1816	353.76	84.3731
366.211	87.6848	366.211	87.5818	366.211	87.7149	366.211	87.4026	366.211	87.673	366.211	87.1417	366.211	87.5576	366.211	86.7922	366.211	87.3648	366.211	86.3471	366.211	87.0883	366.211	85.8027	366.211	86.7197	366.211	85.1643	366.211	86.2505	366.211	84.4555	366.211	85.6748	366.211	83.7318	366.211	84.9963	366.211	83.0896	366.211	84.2405	366.211	82.6525	366.211	83.471	366.211	82.5132	366.211	82.8036	366.211	82.6632	366.211	82.3854	366.211	82.9898	366.211	82.3142	366.211	83.3457	366.211	82.5534	366.211	83.6108	366.211	82.9529	366.211	83.7119	366.211	83.3474	366.211	83.6201
378.662	87.6774	378.662	87.6128	378.662	87.6777	378.662	87.4836	378.662	87.6097	378.662	87.2849	378.662	87.4665	378.662	87.0066	378.662	87.2398	378.662	86.6346	378.662	86.9211	378.662	86.1536	378.662	86.5039	378.662	85.5529	378.662	85.9867	378.662	84.8357	378.662	85.3788	378.662	84.0369	378.662	84.7087	378.662	83.2486	378.662	84.0359	378.662	82.6348	378.662	83.4581	378.662	82.3819	378.662	83.0945	378.662	82.5606	378.662	83.029	378.662	83.0472	378.662	83.2465	378.662	83.6247	378.662	83.6344	378.662	84.1155	378.662	84.047	378.662	84.4199	378.662	84.3623	378.662	84.5003
392.578	87.0715	392.578	87.0225	392.578	87.0684	392.578	86.9177	392.578	87.0142	392.578	86.7519	392.578	86.9066	392.578	86.5181	392.578	86.738	392.578	86.2076	392.578	86.4955	392.578	85.8099	392.578	86.1621	392.578	85.3161	392.578	85.7204	392.578	84.7248	392.578	85.1587	392.578	84.0536	392.578	84.4807	392.578	83.3566	392.578	83.7222	392.578	82.7398	392.578	82.9744	392.578	82.3486	392.578	82.3941	392.578	82.292	392.578	82.1513	392.578	82.5493	392.578	82.3009	392.578	82.9744	392.578	82.7185	392.578	83.3916	392.578	83.1971	392.578	83.6693	392.578	83.5672	392.578	83.7347
405.762	87.7335	405.762	87.6799	405.762	87.6987	405.762	87.5385	405.762	87.5772	405.762	87.3108	405.762	87.3736	405.762	86.997	405.762	87.0937	405.762	86.5942	405.762	86.7415	405.762	86.0969	405.762	86.3168	405.762	85.501	405.762	85.8149	405.762	84.813	405.762	85.2306	405.762	84.0663	405.762	84.5686	405.762	83.345	405.762	83.8632	405.762	82.7989	405.762	83.2045	405.762	82.6016	405.762	82.7489	405.762	82.8255	405.762	82.6608	405.762	83.3582	405.762	82.977	405.762	83.9846	405.762	83.5516	405.762	84.514	405.762	84.1637	405.762	84.8283	405.762	84.6372	405.762	84.8718
420.41	88.157	420.41	88.0539	420.41	88.2056	420.41	87.9048	420.41	88.1883	420.41	87.7117	420.41	88.0929	420.41	87.4671	420.41	87.9072	420.41	87.1535	420.41	87.6187	420.41	86.745	420.41	87.2145	420.41	86.2123	420.41	86.681	420.41	85.5321	420.41	86.0064	420.41	84.7039	420.41	85.1883	420.41	83.7823	420.41	84.2508	420.41	82.924	420.41	83.2791	420.41	82.3954	420.41	82.4609	420.41	82.4123	420.41	82.0616	420.41	82.9028	420.41	82.2301	420.41	83.5674	420.41	82.8216	420.41	84.1311	420.41	83.5318	420.41	84.4404	420.41	84.1142	420.41	84.435
435.059	87.9573	435.059	87.8852	435.059	87.9614	435.059	87.737	435.059	87.9049	435.059	87.5049	435.059	87.7917	435.059	87.181	435.059	87.62	435.059	86.7579	435.059	87.3794	435.059	86.2285	435.059	87.0511	435.059	85.589	435.059	86.609	435.059	84.8452	435.059	86.0242	435.059	84.0267	435.059	85.273	435.059	83.2096	435.059	84.3526	435.059	82.5381	435.059	83.3159	435.059	82.1984	435.059	82.3299	435.059	82.2974	435.059	81.7038	435.059	82.7479	435.059	81.7088	435.059	83.3259	435.059	82.2666	435.059	83.8151	435.059	83.0205	435.059	84.0731	435.059	83.6599	435.059	84.027
450.439	87.9382	450.439	87.8527	450.439	87.9701	450.439	87.718	450.439	87.9423	450.439	87.5326	450.439	87.8487	450.439	87.2854	450.439	87.6832	450.439	86.9534	450.439	87.4378	450.439	86.503	450.439	87.1002	450.439	85.8943	450.439	86.6533	450.439	85.0878	450.439	86.0766	450.439	84.0598	450.439	85.3514	450.439	82.8396	450.439	84.4736	450.439	81.5953	450.439	83.4797	450.439	80.7319	450.439	82.495	450.439	80.6965	450.439	81.7721	450.439	81.4158	450.439	81.5903	450.439	82.3694	450.439	81.977	450.439	83.1465	450.439	82.6435	450.439	83.5701	450.439	83.2544	450.439	83.5967
466.553	87.6572	466.553	87.5852	466.553	87.668	466.553	87.4549	466.553	87.6168	466.553	87.2703	466.553	87.5037	466.553	87.0311	466.553	87.3249	466.553	86.7284	466.553	87.07	466.553	86.3423	466.553	86.721	466.553	85.8453	466.553	86.2545	466.553	85.2093	466.553	85.6466	466.553	84.4197	466.553	84.882	466.553	83.502	466.553	83.9724	466.553	82.5686	466.553	82.9934	466.553	81.8626	466.553	82.1356	466.553	81.673	466.553	81.693	466.553	82.0573	466.553	81.8487	466.553	82.7482	466.553	82.4501	466.553	83.4138	466.553	83.1568	466.553	83.8435	466.553	83.7007	466.553	83.945
482.666	87.3361	482.666	87.2893	482.666	87.3302	482.666	87.1897	482.666	87.2773	482.666	87.04	482.666	87.1861	482.666	86.8388	482.666	87.0606	482.666	86.5739	482.666	86.8918	482.666	86.2194	482.666	86.6533	482.666	85.7371	482.666	86.3035	482.666	85.0827	482.666	85.7916	482.666	84.2164	482.666	85.0654	482.666	83.1288	482.666	84.0826	482.666	81.9026	482.666	82.8424	482.666	80.8276	482.666	81.4729	482.666	80.4059	482.666	80.3941	482.666	80.871	482.666	80.2229	482.666	81.8178	482.666	80.9991	482.666	82.7109	482.666	82.0763	482.666	83.2547	482.666	82.9257	482.666	83.3351
500.244	87.1265	500.244	87.0443	500.244	87.1305	500.244	86.9014	500.244	87.0501	500.244	86.7152	500.244	86.8959	500.244	86.4907	500.244	86.6909	500.244	86.2139	500.244	86.4582	500.244	85.8536	500.244	86.2038	500.244	85.37	500.244	85.9062	500.244	84.7271	500.244	85.5169	500.244	83.9093	500.244	84.9724	500.244	82.9543	500.244	84.2104	500.244	82.0108	500.244	83.1969	500.244	81.3821	500.244	81.988	500.244	81.3752	500.244	80.859	500.244	81.9523	500.244	80.3654	500.244	82.7387	500.244	80.8414	500.244	83.3723	500.244	81.8714	500.244	83.6485	500.244	82.8551	500.244	83.4792
517.822	87.0401	517.822	86.9229	517.822	87.0291	517.822	86.697	517.822	86.8937	517.822	86.4002	517.822	86.6604	517.822	86.075	517.822	86.3721	517.822	85.7475	517.822	86.0743	517.822	85.4067	517.822	85.7926	517.822	84.9985	517.822	85.5137	517.822	84.4384	517.822	85.1816	517.822	83.6339	517.822	84.7128	517.822	82.5195	517.822	84.0193	517.822	81.1423	517.822	83.0388	517.822	79.8816	517.822	81.7982	517.822	79.5582	517.822	80.5696	517.822	80.4705	517.822	80.0077	517.822	81.8224	517.822	80.5667	517.822	82.9026	517.822	81.7405	517.822	83.4517	517.822	82.8059	517.822	83.4131
536.133	87.8205	536.133	87.6314	536.133	87.8342	536.133	87.2911	536.133	87.6646	536.133	86.8411	536.133	87.3185	536.133	86.3353	536.133	86.8167	536.133	85.8224	536.133	86.1939	536.133	85.3182	536.133	85.4957	536.133	84.7837	536.133	84.7665	536.133	84.1262	536.133	84.0274	536.133	83.2226	536.133	83.2541	536.133	81.9537	536.133	82.378	536.133	80.2862	536.133	81.3261	536.133	78.5682	536.133	80.1291	536.133	77.9973	536.133	79.1418	536.133	79.2562	536.133	79.0978	536.133	81.0907	536.133	80.1901	536.133	82.5179	536.133	81.6476	536.133	83.2856	536.133	82.7961	536.133	83.3695
554.443	87.7988	554.443	87.6568	554.443	87.7893	554.443	87.381	554.443	87.6339	554.443	87.0096	554.443	87.3616	554.443	86.5923	554.443	87.0208	554.443	86.1713	554.443	86.6651	554.443	85.7554	554.443	86.3269	554.443	85.3048	554.443	85.9911	554.443	84.7364	554.443	85.588	554.443	83.9462	554.443	85.0086	554.443	82.8391	554.443	84.1273	554.443	81.3849	554.443	82.8213	554.443	79.7877	554.443	81.0234	554.443	78.7912	554.443	78.9689	554.443	79.1996	554.443	77.8194	554.443	80.4992	554.443	78.7105	554.443	81.7154	554.443	80.4394	554.443	82.4076	554.443	81.786	554.443	82.4464
574.219	88.5236	574.219	88.2693	574.219	88.5602	574.219	87.8221	574.219	88.3735	574.219	87.2341	574.219	87.9759	574.219	86.5902	574.219	87.403	574.219	85.9954	574.219	86.7207	574.219	85.5242	574.219	86.0239	574.219	85.1555	574.219	85.4081	574.219	84.7598	574.219	84.9095	574.219	84.1496	574.219	84.4595	574.219	83.1287	574.219	83.9029	574.219	81.5237	574.219	83.0585	574.219	79.3164	574.219	81.7802	574.219	77.3565	574.219	80.0827	574.219	77.7581	574.219	78.5526	574.219	79.82	574.219	78.5341	574.219	81.5347	574.219	79.996	574.219	82.386	574.219	81.5057	574.219	82.3587
594.727	88.1224	594.727	87.9449	594.727	88.1141	594.727	87.5846	594.727	87.9237	594.727	87.0544	594.727	87.5635	594.727	86.3842	594.727	87.0583	594.727	85.6297	594.727	86.452	594.727	84.868	594.727	85.8074	594.727	84.1644	594.727	85.1872	594.727	83.5141	594.727	84.6124	594.727	82.8133	594.727	84.0239	594.727	81.9043	594.727	83.2865	594.727	80.6819	594.727	82.2328	594.727	79.2987	594.727	80.738	594.727	78.4876	594.727	78.927	594.727	79.0564	594.727	77.7237	594.727	80.4601	594.727	78.3909	594.727	81.7119	594.727	80.115	594.727	82.3796	594.727	81.5723	594.727	82.3438
615.234	88.0667	615.234	87.9096	615.234	88.0701	615.234	87.6124	615.234	87.9201	615.234	87.2022	615.234	87.6317	615.234	86.7158	615.234	87.2325	615.234	86.1887	615.234	86.7564	615.234	85.6371	615.234	86.2319	615.234	85.0387	615.234	85.665	615.234	84.3198	615.234	85.0275	615.234	83.3548	615.234	84.2505	615.234	81.9721	615.234	83.2258	615.234	79.9737	615.234	81.8126	615.234	77.3083	615.234	79.8797	615.234	75.1523	615.234	77.5604	615.234	76.1792	615.234	76.1443	615.234	78.6659	615.234	77.2434	615.234	80.5116	615.234	79.2964	615.234	81.4505	615.234	80.823	615.234	81.5443
637.207	88.2672	637.207	88.0485	637.207	88.2754	637.207	87.634	637.207	88.0767	637.207	87.0683	637.207	87.6903	637.207	86.437	637.207	87.1587	637.207	85.8591	637.207	86.5605	637.207	85.4325	637.207	86.0076	637.207	85.1528	637.207	85.5946	637.207	84.8841	637.207	85.3102	637.207	84.4139	637.207	85.0052	637.207	83.5094	637.207	84.4551	637.207	81.927	637.207	83.4294	637.207	79.4289	637.207	81.715	637.207	76.293	637.207	79.2102	637.207	75.5938	637.207	76.698	637.207	78.234	637.207	76.9111	637.207	80.5415	637.207	79.1891	637.207	81.7263	637.207	81.0148	637.207	81.8663
659.912	88.1119	659.912	87.843	659.912	88.1545	659.912	87.379	659.912	87.9615	659.912	86.7766	659.912	87.5512	659.912	86.1293	659.912	86.9807	659.912	85.5655	659.912	86.3537	659.912	85.1902	659.912	85.8047	659.912	84.9839	659.912	85.4326	659.912	84.7729	659.912	85.2159	659.912	84.3118	659.912	84.9973	659.912	83.3617	659.912	84.5518	659.912	81.7047	659.912	83.648	659.912	79.1941	659.912	82.0622	659.912	76.3956	659.912	79.6373	659.912	76.1917	659.912	76.9146	659.912	78.5974	659.912	76.6648	659.912	80.6692	659.912	78.9476	659.912	81.7427	659.912	80.8915	659.912	81.8197
683.35	89.0322	683.35	88.8408	683.35	88.9843	683.35	88.4009	683.35	88.7064	683.35	87.7168	683.35	88.2054	683.35	86.8297	683.35	87.4949	683.35	85.8496	683.35	86.6168	683.35	84.9646	683.35	85.6732	683.35	84.3508	683.35	84.8382	683.35	83.9973	683.35	84.2779	683.35	83.6671	683.35	83.9808	683.35	83.0466	683.35	83.7071	683.35	81.8572	683.35	83.1286	683.35	79.8967	683.35	81.9552	683.35	77.4187	683.35	80.0161	683.35	76.6228	683.35	77.743	683.35	78.7604	683.35	77.3806	683.35	81.0076	683.35	79.4546	683.35	82.2381	683.35	81.4167	683.35	82.3711
706.787	89.4433	706.787	89.1305	706.787	89.4905	706.787	88.5771	706.787	89.2616	706.787	87.8278	706.787	88.7588	706.787	86.958	706.787	88.0034	706.787	86.0901	706.787	87.0582	706.787	85.3886	706.787	86.0659	706.787	84.9802	706.787	85.2501	706.787	84.8167	706.787	84.7789	706.787	84.6493	706.787	84.5627	706.787	84.1439	706.787	84.2841	706.787	82.9571	706.787	83.5884	706.787	80.7199	706.787	82.1505	706.787	77.254	706.787	79.6614	706.787	75.4267	706.787	76.4091	706.787	78.5066	706.787	76.1946	706.787	81.3282	706.787	79.3379	706.787	82.7127	706.787	81.7317	706.787	82.8285
731.689	89.4138	731.689	89.1969	731.689	89.4016	731.689	88.7526	731.689	89.1572	731.689	88.0851	731.689	88.6795	731.689	87.217	731.689	87.9745	731.689	86.2197	731.689	87.0648	731.689	85.2457	731.689	86.0145	731.689	84.5076	731.689	84.9713	731.689	84.1204	731.689	84.1687	731.689	83.9221	731.689	83.7644	731.689	83.5305	731.689	83.6051	731.689	82.5178	731.689	83.2787	731.689	80.4529	731.689	82.3449	731.689	77.015	731.689	80.4342	731.689	74.5615	731.689	77.5346	731.689	77.5373	731.689	76.0802	731.689	80.5399	731.689	78.4741	731.689	82.0012	731.689	80.9223	731.689	82.1046
758.057	89.9129	758.057	89.6854	758.057	89.8652	758.057	89.1785	758.057	89.5637	758.057	88.4174	758.057	89.0334	758.057	87.4617	758.057	88.2995	758.057	86.4083	758.057	87.3962	758.057	85.4061	758.057	86.3859	758.057	84.6562	758.057	85.3869	758.057	84.2954	758.057	84.5817	758.057	84.196	758.057	84.0984	758.057	83.9776	758.057	83.7995	758.057	83.1798	758.057	83.2967	758.057	81.2714	758.057	82.1544	758.057	77.4847	758.057	79.9592	758.057	73.0524	758.057	76.5334	758.057	77.0905	758.057	74.8809	758.057	80.8951	758.057	78.1589	758.057	82.5126	758.057	81.0873	758.057	82.517
784.424	90.1949	784.424	89.8932	784.424	90.2034	784.424	89.3047	784.424	89.9206	784.424	88.4433	784.424	89.3587	784.424	87.3562	784.424	88.5361	784.424	86.1875	784.424	87.4875	784.424	85.2178	784.424	86.3214	784.424	84.7048	784.424	85.2916	784.424	84.5946	784.424	84.6865	784.424	84.5641	784.424	84.4871	784.424	84.2705	784.424	84.3407	784.424	83.3979	784.424	83.8782	784.424	81.563	784.424	82.8063	784.424	78.2618	784.424	80.7705	784.424	74.3334	784.424	77.2687	784.424	76.4338	784.424	73.7373	784.424	80.0037	784.424	76.7452	784.424	81.7466	784.424	80.2345	784.424	81.8228
812.256	90.0989	812.256	89.8999	812.256	90.0475	812.256	89.4235	812.256	89.7732	812.256	88.6612	812.256	89.2849	812.256	87.6249	812.256	88.5661	812.256	86.344	812.256	87.5887	812.256	84.9175	812.256	86.3523	812.256	83.6867	812.256	84.976	812.256	83.2215	812.256	83.8372	812.256	83.537	812.256	83.4076	812.256	83.8488	812.256	83.5524	812.256	83.4091	812.256	83.5655	812.256	81.6883	812.256	82.8321	812.256	78.0643	812.256	80.8759	812.256	73.4182	812.256	77.1679	812.256	76.7998	812.256	73.6517	812.256	80.7511	812.256	77.3307	812.256	82.5063	812.256	80.8993	812.256	82.5313
840.82	90.188	840.82	89.9907	840.82	90.1775	840.82	89.5866	840.82	89.9554	840.82	88.9441	840.82	89.5251	840.82	87.994	840.82	88.8781	840.82	86.6792	840.82	87.9764	840.82	85.0641	840.82	86.7747	840.82	83.5023	840.82	85.303	840.82	82.6605	840.82	83.8202	840.82	82.8213	840.82	82.8802	840.82	83.3155	840.82	82.7888	840.82	83.2495	840.82	83.0353	840.82	81.9161	840.82	82.8502	840.82	78.4427	840.82	81.5739	840.82	71.1636	840.82	78.2928	840.82	73.4126	840.82	71.4612	840.82	79.0391	840.82	74.4135	840.82	81.3797	840.82	79.6949	840.82	81.6227
870.85	89.9701	870.85	89.8058	870.85	89.9149	870.85	89.3889	870.85	89.6647	870.85	88.6814	870.85	89.2288	870.85	87.644	870.85	88.591	870.85	86.2613	870.85	87.7041	870.85	84.6176	870.85	86.505	870.85	83.0362	870.85	84.9898	870.85	82.099	870.85	83.4095	870.85	82.0995	870.85	82.4402	870.85	82.5696	870.85	82.492	870.85	82.7784	870.85	82.9011	870.85	82.0924	870.85	82.8248	870.85	79.8373	870.85	81.7667	870.85	75.2298	870.85	79.3847	870.85	73.679	870.85	76.0989	870.85	78.3924	870.85	76.2631	870.85	80.7462	870.85	79.2373	870.85	80.912
901.611	89.7747	901.611	89.5541	901.611	89.7326	901.611	89.0981	901.611	89.4461	901.611	88.4691	901.611	88.9716	901.611	87.7138	901.611	88.3766	901.611	86.7933	901.611	87.6808	901.611	85.579	901.611	86.8046	901.611	83.9661	901.611	85.5971	901.611	82.2013	901.611	83.9884	901.611	81.2824	901.611	82.2928	901.611	81.6596	901.611	81.3753	901.611	82.0596	901.611	81.4877	901.611	81.3098	901.611	81.5786	901.611	78.4829	901.611	80.6307	901.611	71.3385	901.611	77.7809	901.611	70.4539	901.611	71.7697	901.611	77.7008	901.611	72.585	901.611	80.3053	901.611	78.1487	901.611	80.4078
933.105	90.0007	933.105	89.7175	933.105	89.9972	933.105	89.1908	933.105	89.7004	933.105	88.4953	933.105	89.136	933.105	87.6749	933.105	88.3642	933.105	86.6567	933.105	87.4517	933.105	85.2881	933.105	86.3994	933.105	83.594	933.105	85.1135	933.105	82.19	933.105	83.5623	933.105	81.9296	933.105	82.1519	933.105	82.3939	933.105	81.7162	933.105	82.563	933.105	82.1288	933.105	81.7862	933.105	82.2994	933.105	79.3399	933.105	81.4458	933.105	73.5576	933.105	78.9757	933.105	69.4315	933.105	74.3643	933.105	76.8008	933.105	73.5174	933.105	79.6942	933.105	77.8664	933.105	79.935
966.064	90.1501	966.064	89.912	966.064	90.1064	966.064	89.3566	966.064	89.8075	966.064	88.4921	966.064	89.2586	966.064	87.4304	966.064	88.4718	966.064	86.3543	966.064	87.489	966.064	85.3077	966.064	86.3432	966.064	84.0693	966.064	84.9966	966.064	82.4646	966.064	83.4036	966.064	81.0436	966.064	81.784	966.064	80.972	966.064	80.8351	966.064	81.6957	966.064	80.884	966.064	81.7087	966.064	81.1027	966.064	80.1429	966.064	80.538	966.064	75.9794	966.064	78.4732	966.064	68.2799	966.064	74.1806	966.064	74.036	966.064	71.8426	966.064	77.998	966.064	76.2708	966.064	78.5275
999.756	90.0812	999.756	89.8339	999.756	90.0534	999.756	89.3006	999.756	89.7801	999.756	88.507	999.756	89.2662	999.756	87.5101	999.756	88.4823	999.756	86.3763	999.756	87.4368	999.756	85.1288	999.756	86.2336	999.756	83.732	999.756	84.9261	999.756	82.2961	999.756	83.3246	999.756	81.4538	999.756	81.3335	999.756	81.7653	999.756	79.9039	999.756	82.4106	999.756	80.2825	999.756	82.249	999.756	81.2077	999.756	80.6295	999.756	81.2095	999.756	76.9648	999.756	79.5727	999.756	71.5405	999.756	75.5308	999.756	74.256	999.756	72.9904	999.756	78.2445	999.756	77.4059	999.756	79.306
1,034.91	89.9105	1,034.91	89.7413	1,034.91	89.8358	1,034.91	89.2559	1,034.91	89.5477	1,034.91	88.4114	1,034.91	89.0279	1,034.91	87.2738	1,034.91	88.2541	1,034.91	86.0232	1,034.91	87.2337	1,034.91	84.8312	1,034.91	85.9939	1,034.91	83.6634	1,034.91	84.545	1,034.91	82.241	1,034.91	82.8712	1,034.91	80.4592	1,034.91	81.0221	1,034.91	79.3926	1,034.91	79.4376	1,034.91	80.0839	1,034.91	79.1007	1,034.91	80.7382	1,034.91	79.8939	1,034.91	79.8352	1,034.91	80.2321	1,034.91	76.7137	1,034.91	78.8061	1,034.91	72.9239	1,034.91	74.7688	1,034.91	75.9772	1,034.91	73.7444	1,034.91	79.0999	1,034.91	78.1057	1,034.91	79.856
1,071.53	89.7065	1,071.53	89.4433	1,071.53	89.6442	1,071.53	88.8448	1,071.53	89.2951	1,071.53	87.9674	1,071.53	88.6843	1,071.53	86.9337	1,071.53	87.8103	1,071.53	85.8235	1,071.53	86.6986	1,071.53	84.5263	1,071.53	85.4471	1,071.53	82.8486	1,071.53	84.1396	1,071.53	80.9524	1,071.53	82.7087	1,071.53	79.593	1,071.53	81.0519	1,071.53	79.171	1,071.53	79.4934	1,071.53	79.3579	1,071.53	78.9872	1,071.53	79.6109	1,071.53	79.411	1,071.53	78.8477	1,071.53	79.2708	1,071.53	75.7151	1,071.53	77.4239	1,071.53	71.7639	1,071.53	72.9166	1,071.53	76.0268	1,071.53	70.6233	1,071.53	78.7719	1,071.53	75.9119	1,071.53	78.6515
1,109.62	89.2465	1,109.62	88.8412	1,109.62	89.2917	1,109.62	88.107	1,109.62	88.9442	1,109.62	87.0698	1,109.62	88.2127	1,109.62	85.7876	1,109.62	87.1824	1,109.62	84.3836	1,109.62	85.979	1,109.62	82.986	1,109.62	84.6731	1,109.62	81.6252	1,109.62	83.2606	1,109.62	80.2963	1,109.62	81.7218	1,109.62	79.1278	1,109.62	80.0294	1,109.62	78.4734	1,109.62	78.3311	1,109.62	78.6809	1,109.62	77.5225	1,109.62	79.1953	1,109.62	78.1098	1,109.62	78.6554	1,109.62	78.466	1,109.62	75.6319	1,109.62	76.964	1,109.62	70.1047	1,109.62	71.789	1,109.62	74.4467	1,109.62	65.4601	1,109.62	77.947	1,109.62	74.7392	1,109.62	78.0471
1,148.44	89.1338	1,148.44	88.7341	1,148.44	89.085	1,148.44	87.9252	1,148.44	88.6209	1,148.44	86.7483	1,148.44	87.8463	1,148.44	85.2461	1,148.44	86.8452	1,148.44	83.5975	1,148.44	85.5984	1,148.44	82.1605	1,148.44	84.0703	1,148.44	81.0928	1,148.44	82.4375	1,148.44	79.9865	1,148.44	81.025	1,148.44	78.5126	1,148.44	79.813	1,148.44	77.2336	1,148.44	78.5672	1,148.44	76.8594	1,148.44	77.5217	1,148.44	76.6212	1,148.44	77.0112	1,148.44	75.3225	1,148.44	76.516	1,148.44	72.1021	1,148.44	75.1311	1,148.44	68.5572	1,148.44	71.5171	1,148.44	72.7352	1,148.44	66.1263	1,148.44	76.1104	1,148.44	72.8104	1,148.44	76.3097
1,189.45	88.9091	1,189.45	88.5385	1,189.45	89.0059	1,189.45	88.0091	1,189.45	88.7441	1,189.45	87.3013	1,189.45	88.1439	1,189.45	86.2534	1,189.45	87.2808	1,189.45	84.805	1,189.45	86.1834	1,189.45	83.146	1,189.45	84.7934	1,189.45	81.4204	1,189.45	83.0924	1,189.45	79.3657	1,189.45	81.2626	1,189.45	77.1713	1,189.45	79.5727	1,189.45	76.8355	1,189.45	78.1668	1,189.45	77.9825	1,189.45	77.5881	1,189.45	78.212	1,189.45	78.2293	1,189.45	76.7739	1,189.45	78.6575	1,189.45	72.9684	1,189.45	77.4513	1,189.45	65.8629	1,189.45	73.3403	1,189.45	72.2422	1,189.45	62.3389	1,189.45	76.4144	1,189.45	71.8665	1,189.45	76.3823
1,231.2	89.0441	1,231.2	88.6095	1,231.2	89.0864	1,231.2	87.9146	1,231.2	88.7048	1,231.2	87.0611	1,231.2	88.0004	1,231.2	86.065	1,231.2	87.1053	1,231.2	84.8902	1,231.2	86.0594	1,231.2	83.4249	1,231.2	84.8059	1,231.2	81.5296	1,231.2	83.3159	1,231.2	79.3896	1,231.2	81.6712	1,231.2	77.7931	1,231.2	79.9951	1,231.2	77.3072	1,231.2	78.4809	1,231.2	77.6937	1,231.2	77.7731	1,231.2	78.3133	1,231.2	78.3007	1,231.2	77.8708	1,231.2	78.7155	1,231.2	74.6908	1,231.2	77.4975	1,231.2	66.1227	1,231.2	73.3814	1,231.2	72.1423	1,231.2	65.5399	1,231.2	76.2558	1,231.2	72.2475	1,231.2	76.149
1,274.41	88.9157	1,274.41	88.5143	1,274.41	88.892	1,274.41	87.7732	1,274.41	88.4873	1,274.41	86.8717	1,274.41	87.7728	1,274.41	85.896	1,274.41	86.7631	1,274.41	84.7677	1,274.41	85.47	1,274.41	83.4153	1,274.41	84.0088	1,274.41	81.8578	1,274.41	82.5585	1,274.41	80.0392	1,274.41	81.1708	1,274.41	77.9729	1,274.41	79.6716	1,274.41	76.6555	1,274.41	77.8447	1,274.41	77.2685	1,274.41	76.2506	1,274.41	78.4141	1,274.41	76.6846	1,274.41	78.451	1,274.41	77.9216	1,274.41	76.1352	1,274.41	77.6262	1,274.41	69.1664	1,274.41	74.57	1,274.41	71.2953	1,274.41	66.1357	1,274.41	76.2272	1,274.41	71.1739	1,274.41	76.1337
1,319.82	89.1238	1,319.82	88.8714	1,319.82	88.9767	1,319.82	88.2076	1,319.82	88.4652	1,319.82	87.2078	1,319.82	87.644	1,319.82	86.0443	1,319.82	86.5765	1,319.82	84.833	1,319.82	85.339	1,319.82	83.5639	1,319.82	84.0814	1,319.82	82.248	1,319.82	82.9304	1,319.82	80.8168	1,319.82	81.7384	1,319.82	78.9077	1,319.82	80.2088	1,319.82	76.7216	1,319.82	78.2909	1,319.82	76.603	1,319.82	76.6845	1,319.82	78.2024	1,319.82	77.0197	1,319.82	78.665	1,319.82	78.2617	1,319.82	76.7431	1,319.82	77.9878	1,319.82	70.852	1,319.82	74.7746	1,319.82	71.2688	1,319.82	66.1544	1,319.82	76.0489	1,319.82	71.2766	1,319.82	76.0181
1,365.97	88.9412	1,365.97	88.5159	1,365.97	88.8674	1,365.97	87.6191	1,365.97	88.3844	1,365.97	86.4791	1,365.97	87.6309	1,365.97	85.434	1,365.97	86.677	1,365.97	84.5269	1,365.97	85.4649	1,365.97	83.4626	1,365.97	84.0019	1,365.97	82.068	1,365.97	82.535	1,365.97	80.4157	1,365.97	81.3311	1,365.97	78.6211	1,365.97	80.2488	1,365.97	77.0017	1,365.97	78.7099	1,365.97	76.4044	1,365.97	76.4965	1,365.97	77.0207	1,365.97	75.5543	1,365.97	77.5821	1,365.97	76.9856	1,365.97	76.4245	1,365.97	77.8384	1,365.97	71.8528	1,365.97	76.2507	1,365.97	70.8874	1,365.97	69.6411	1,365.97	75.7415	1,365.97	70.0408	1,365.97	75.8283
1,414.31	88.7058	1,414.31	88.2453	1,414.31	88.7985	1,414.31	87.5036	1,414.31	88.4672	1,414.31	86.5304	1,414.31	87.7934	1,414.31	85.4009	1,414.31	86.8717	1,414.31	84.1209	1,414.31	85.6986	1,414.31	82.6172	1,414.31	84.3428	1,414.31	80.9821	1,414.31	82.969	1,414.31	79.5114	1,414.31	81.6175	1,414.31	78.3519	1,414.31	80.3614	1,414.31	77.2709	1,414.31	79.3188	1,414.31	76.4523	1,414.31	78.0025	1,414.31	76.7507	1,414.31	76.1806	1,414.31	76.8881	1,414.31	75.7625	1,414.31	74.7458	1,414.31	76.2983	1,414.31	69.3329	1,414.31	74.559	1,414.31	72.5967	1,414.31	67.2738	1,414.31	76.3812	1,414.31	69.7197	1,414.31	75.7329
1,464.11	88.3679	1,464.11	87.9723	1,464.11	88.5368	1,464.11	87.3605	1,464.11	88.3884	1,464.11	86.5938	1,464.11	87.8304	1,464.11	85.6762	1,464.11	86.9796	1,464.11	84.4433	1,464.11	86.0471	1,464.11	82.8294	1,464.11	85.0197	1,464.11	81.0989	1,464.11	83.7136	1,464.11	79.7005	1,464.11	82.2113	1,464.11	78.7243	1,464.11	80.895	1,464.11	77.5221	1,464.11	79.8186	1,464.11	75.8846	1,464.11	78.4757	1,464.11	75.0503	1,464.11	76.7273	1,464.11	75.2509	1,464.11	76.5676	1,464.11	74.0756	1,464.11	77.5234	1,464.11	68.2581	1,464.11	76.2944	1,464.11	70.2881	1,464.11	70.5497	1,464.11	74.7402	1,464.11	66.9895	1,464.11	73.6957
1,515.38	88.9154	1,515.38	88.6428	1,515.38	88.9266	1,515.38	88.0683	1,515.38	88.5949	1,515.38	87.2416	1,515.38	87.8148	1,515.38	86.3094	1,515.38	86.7752	1,515.38	85.2766	1,515.38	85.8789	1,515.38	84.0024	1,515.38	85.1357	1,515.38	82.3788	1,515.38	84.0341	1,515.38	80.4244	1,515.38	82.2577	1,515.38	78.5675	1,515.38	80.3503	1,515.38	77.308	1,515.38	79.3706	1,515.38	76.7588	1,515.38	78.8225	1,515.38	76.6429	1,515.38	77.6267	1,515.38	76.3939	1,515.38	76.8648	1,515.38	74.8478	1,515.38	77.3538	1,515.38	69.5511	1,515.38	76.3767	1,515.38	67.9792	1,515.38	71.369	1,515.38	73.0441	1,515.38	67.9022	1,515.38	72.7584
1,568.85	89.433	1,568.85	89.1556	1,568.85	89.2584	1,568.85	88.356	1,568.85	88.724	1,568.85	87.1112	1,568.85	87.8515	1,568.85	85.7766	1,568.85	86.6185	1,568.85	84.8199	1,568.85	85.209	1,568.85	84.1532	1,568.85	84.0653	1,568.85	83.1035	1,568.85	83.2095	1,568.85	81.2336	1,568.85	82.0139	1,568.85	79.057	1,568.85	80.2136	1,568.85	77.7793	1,568.85	78.5611	1,568.85	77.5203	1,568.85	78.1695	1,568.85	77.7276	1,568.85	78.0614	1,568.85	77.6948	1,568.85	77.6288	1,568.85	75.8238	1,568.85	77.3471	1,568.85	69.1324	1,568.85	76.2196	1,568.85	68.6725	1,568.85	72.3258	1,568.85	74.7518	1,568.85	70.3734	1,568.85	74.6425
1,624.51	88.8567	1,624.51	88.4493	1,624.51	88.8634	1,624.51	87.9274	1,624.51	88.4191	1,624.51	87.2712	1,624.51	87.6533	1,624.51	86.0615	1,624.51	86.6314	1,624.51	84.4	1,624.51	85.3484	1,624.51	83.1475	1,624.51	83.8391	1,624.51	82.329	1,624.51	82.4514	1,624.51	80.985	1,624.51	81.4601	1,624.51	79.112	1,624.51	80.1114	1,624.51	77.5349	1,624.51	77.8877	1,624.51	76.7618	1,624.51	76.518	1,624.51	77.3591	1,624.51	76.5075	1,624.51	78.2969	1,624.51	76.7046	1,624.51	77.4021	1,624.51	77.3136	1,624.51	72.1977	1,624.51	76.4999	1,624.51	69.2164	1,624.51	71.7189	1,624.51	75.8655	1,624.51	69.8888	1,624.51	75.7503
1,681.64	88.3875	1,681.64	88.1672	1,681.64	88.2432	1,681.64	87.4366	1,681.64	87.9968	1,681.64	86.4337	1,681.64	87.5832	1,681.64	85.4198	1,681.64	86.8272	1,681.64	84.3426	1,681.64	85.7423	1,681.64	83.1983	1,681.64	84.4729	1,681.64	82.2095	1,681.64	83.2463	1,681.64	81.0981	1,681.64	82.1335	1,681.64	79.4367	1,681.64	80.6041	1,681.64	77.8645	1,681.64	78.1212	1,681.64	76.9228	1,681.64	76.3184	1,681.64	77.305	1,681.64	76.7657	1,681.64	78.9154	1,681.64	76.5618	1,681.64	78.1879	1,681.64	76.6863	1,681.64	71.914	1,681.64	76.6594	1,681.64	66.9485	1,681.64	72.5371	1,681.64	74.517	1,681.64	66.9525	1,681.64	74.1452
1,740.97	88.7782	1,740.97	88.6534	1,740.97	88.7761	1,740.97	88.1159	1,740.97	88.5844	1,740.97	87.1663	1,740.97	88.0056	1,740.97	86.0873	1,740.97	87.2613	1,740.97	84.8002	1,740.97	86.5562	1,740.97	83.3196	1,740.97	85.5693	1,740.97	82.1295	1,740.97	84.1847	1,740.97	80.8237	1,740.97	83.013	1,740.97	78.9459	1,740.97	82.1306	1,740.97	77.7317	1,740.97	80.2794	1,740.97	77.1489	1,740.97	77.5769	1,740.97	75.8604	1,740.97	77.6553	1,740.97	76.9743	1,740.97	78.7125	1,740.97	77.8121	1,740.97	78.5158	1,740.97	74.6098	1,740.97	77.4001	1,740.97	60.9533	1,740.97	73.6297	1,740.97	73.8807	1,740.97	67.6843	1,740.97	74.1879
1,802.49	89.5146	1,802.49	89.2979	1,802.49	89.655	1,802.49	88.6204	1,802.49	89.7314	1,802.49	87.5041	1,802.49	89.3489	1,802.49	86.6602	1,802.49	88.3223	1,802.49	86.0969	1,802.49	87.0393	1,802.49	84.7297	1,802.49	85.9936	1,802.49	82.8112	1,802.49	84.8747	1,802.49	81.7307	1,802.49	83.3595	1,802.49	80.1818	1,802.49	81.9716	1,802.49	77.6973	1,802.49	80.277	1,802.49	76.7802	1,802.49	77.8735	1,802.49	75.1127	1,802.49	77.3686	1,802.49	75.465	1,802.49	77.6906	1,802.49	77.1882	1,802.49	77.9154	1,802.49	74.1216	1,802.49	78.279	1,802.49	67.7193	1,802.49	74.4792	1,802.49	73.8776	1,802.49	68.5967	1,802.49	74.7284
1,866.21	89.4746	1,866.21	88.9774	1,866.21	89.4188	1,866.21	88.6184	1,866.21	88.6682	1,866.21	88.2026	1,866.21	88.1775	1,866.21	87.5149	1,866.21	88.0712	1,866.21	86.6831	1,866.21	87.3525	1,866.21	85.3824	1,866.21	85.804	1,866.21	83.4735	1,866.21	84.1362	1,866.21	82.1063	1,866.21	82.7952	1,866.21	81.0268	1,866.21	81.238	1,866.21	77.9801	1,866.21	79.6276	1,866.21	75.5277	1,866.21	77.9918	1,866.21	75.2461	1,866.21	76.694	1,866.21	74.4451	1,866.21	76.6624	1,866.21	77.3494	1,866.21	75.8791	1,866.21	75.6634	1,866.21	74.8241	1,866.21	62.0602	1,866.21	72.6548	1,866.21	74.9355	1,866.21	64.7156	1,866.21	71.8187
1,932.13	88.738	1,932.13	88.6014	1,932.13	88.6803	1,932.13	88.209	1,932.13	88.6178	1,932.13	87.74	1,932.13	88.1736	1,932.13	86.9746	1,932.13	87.2351	1,932.13	85.8637	1,932.13	86.1743	1,932.13	84.7304	1,932.13	85.3842	1,932.13	83.5203	1,932.13	84.3052	1,932.13	81.9323	1,932.13	82.4937	1,932.13	80.6024	1,932.13	81.06	1,932.13	79.0079	1,932.13	80.1099	1,932.13	75.9999	1,932.13	77.9799	1,932.13	75.6294	1,932.13	76.2733	1,932.13	76.928	1,932.13	76.4063	1,932.13	77.047	1,932.13	77.5501	1,932.13	76.4591	1,932.13	77.9264	1,932.13	70.0067	1,932.13	73.8726	1,932.13	67.6514	1,932.13	69.5622	1,932.13	72.1174
2,000.24	89.3532	2,000.24	89.1134	2,000.24	89.3401	2,000.24	88.6881	2,000.24	89.1994	2,000.24	88.0745	2,000.24	89.0832	2,000.24	87.2461	2,000.24	88.7427	2,000.24	86.1467	2,000.24	87.9337	2,000.24	84.7261	2,000.24	86.7209	2,000.24	83.1058	2,000.24	85.2844	2,000.24	81.4166	2,000.24	83.7371	2,000.24	78.9225	2,000.24	82.286	2,000.24	76.0208	2,000.24	80.2992	2,000.24	76.9114	2,000.24	77.0373	2,000.24	77.5217	2,000.24	76.4678	2,000.24	74.8687	2,000.24	77.9887	2,000.24	74.9441	2,000.24	77.5126	2,000.24	74.477	2,000.24	78.0018	2,000.24	68.5158	2,000.24	76.9319	2,000.24	74.3123	2,000.24	69.4988	2,000.24	73.6553
2,070.56	89.689	2,070.56	89.7492	2,070.56	89.5407	2,070.56	89.7177	2,070.56	89.229	2,070.56	89.0257	2,070.56	89.4205	2,070.56	87.8381	2,070.56	89.6255	2,070.56	86.8399	2,070.56	88.8487	2,070.56	85.7052	2,070.56	87.5804	2,070.56	83.8037	2,070.56	86.3037	2,070.56	81.691	2,070.56	84.4281	2,070.56	80.3364	2,070.56	82.7412	2,070.56	77.146	2,070.56	82.0999	2,070.56	72.6392	2,070.56	79.4772	2,070.56	77.5651	2,070.56	76.5071	2,070.56	75.9414	2,070.56	78.8437	2,070.56	73.3136	2,070.56	78.5468	2,070.56	76.033	2,070.56	78.8435	2,070.56	67.797	2,070.56	77.6509	2,070.56	74.2431	2,070.56	69.4207	2,070.56	75.4925
2,143.8	88.5442	2,143.8	88.8114	2,143.8	89.0988	2,143.8	89.4871	2,143.8	89.3084	2,143.8	89.1408	2,143.8	88.9865	2,143.8	87.9951	2,143.8	88.3464	2,143.8	86.7073	2,143.8	87.83	2,143.8	85.7045	2,143.8	87.3283	2,143.8	84.9332	2,143.8	86.0025	2,143.8	83.1536	2,143.8	83.688	2,143.8	81.3599	2,143.8	81.3476	2,143.8	80.0902	2,143.8	81.036	2,143.8	75.0147	2,143.8	79.8756	2,143.8	73.6954	2,143.8	75.1766	2,143.8	76.3905	2,143.8	76.0894	2,143.8	74.6159	2,143.8	76.3987	2,143.8	75.0998	2,143.8	75.757	2,143.8	70.2884	2,143.8	76.6398	2,143.8	73.3585	2,143.8	70.5644	2,143.8	74.6027
2,219.24	87.9788	2,219.24	88.4398	2,219.24	88.1294	2,219.24	89.1017	2,219.24	88.3636	2,219.24	88.7682	2,219.24	88.4854	2,219.24	87.723	2,219.24	88.0608	2,219.24	86.6847	2,219.24	87.4258	2,219.24	85.9264	2,219.24	86.0071	2,219.24	85.0843	2,219.24	84.1161	2,219.24	83.2898	2,219.24	83.2176	2,219.24	81.5655	2,219.24	81.2332	2,219.24	81.1726	2,219.24	76.9435	2,219.24	79.2292	2,219.24	76.6567	2,219.24	74.6859	2,219.24	77.2597	2,219.24	75.5867	2,219.24	74.7763	2,219.24	76.3447	2,219.24	74.8424	2,219.24	73.1709	2,219.24	73.626	2,219.24	67.4809	2,219.24	73.9938	2,219.24	70.9523	2,219.24	66.6528	2,219.24	72.3905
2,297.61	88.7825	2,297.61	89.3738	2,297.61	88.9573	2,297.61	89.6091	2,297.61	89.6153	2,297.61	89.6243	2,297.61	89.6595	2,297.61	89.0677	2,297.61	89.2937	2,297.61	86.9635	2,297.61	88.5572	2,297.61	85.1276	2,297.61	87.0525	2,297.61	83.935	2,297.61	85.8939	2,297.61	80.6781	2,297.61	84.9779	2,297.61	78.518	2,297.61	83.0887	2,297.61	79.1355	2,297.61	81.5945	2,297.61	75.0508	2,297.61	79.8161	2,297.61	72.4274	2,297.61	75.0211	2,297.61	75.5235	2,297.61	75.8456	2,297.61	76.4979	2,297.61	79.6067	2,297.61	77.0871	2,297.61	77.7941	2,297.61	70.0631	2,297.61	74.8001	2,297.61	63.6026	2,297.61	73.0543	2,297.61	57.422
2,378.17	90.1806	2,378.17	90.1697	2,378.17	90.1736	2,378.17	90.3237	2,378.17	89.8775	2,378.17	90.9992	2,378.17	89.3904	2,378.17	90.334	2,378.17	89.6488	2,378.17	87.9076	2,378.17	89.5779	2,378.17	86.2749	2,378.17	88.2783	2,378.17	85.127	2,378.17	86.4565	2,378.17	82.7361	2,378.17	85.0504	2,378.17	80.1081	2,378.17	84.3996	2,378.17	79.5643	2,378.17	82.783	2,378.17	77.762	2,378.17	79.0849	2,378.17	75.3886	2,378.17	75.0301	2,378.17	75.7614	2,378.17	74.4089	2,378.17	75.0876	2,378.17	78.3677	2,378.17	76.6484	2,378.17	78.3464	2,378.17	70.904	2,378.17	76.7045	2,378.17	67.745	2,378.17	74.247	2,378.17	71.3999
2,462.4	88.7293	2,462.4	89.5284	2,462.4	88.7637	2,462.4	90.2552	2,462.4	89.2193	2,462.4	90.2879	2,462.4	89.5802	2,462.4	89.8288	2,462.4	89.6787	2,462.4	88.8956	2,462.4	89.1306	2,462.4	87.4491	2,462.4	87.8559	2,462.4	85.9088	2,462.4	85.811	2,462.4	83.8727	2,462.4	83.7367	2,462.4	81.3843	2,462.4	82.1201	2,462.4	80.3577	2,462.4	80.3892	2,462.4	78.807	2,462.4	79.3899	2,462.4	77.0833	2,462.4	75.6949	2,462.4	78.2467	2,462.4	72.7427	2,462.4	76.1328	2,462.4	78.4961	2,462.4	75.0907	2,462.4	78.3257	2,462.4	72.2619	2,462.4	76.7754	2,462.4	72.2833	2,462.4	72.808	2,462.4	71.0385
2,548.83	88.4452	2,548.83	89.1769	2,548.83	88.2317	2,548.83	89.6096	2,548.83	89.0932	2,548.83	89.7235	2,548.83	90.0449	2,548.83	89.4014	2,548.83	90.2813	2,548.83	88.291	2,548.83	89.8353	2,548.83	86.5754	2,548.83	88.4702	2,548.83	84.7049	2,548.83	86.3762	2,548.83	82.6483	2,548.83	84.4967	2,548.83	80.3783	2,548.83	82.5867	2,548.83	79.549	2,548.83	79.9576	2,548.83	77.8158	2,548.83	78.4302	2,548.83	74.1913	2,548.83	77.073	2,548.83	78.1529	2,548.83	73.0472	2,548.83	79.6747	2,548.83	75.3342	2,548.83	78.1812	2,548.83	77.2482	2,548.83	73.2891	2,548.83	76.089	2,548.83	68.4874	2,548.83	72.8878	2,548.83	71.4305
2,638.92	89.3373	2,638.92	89.8664	2,638.92	89.4916	2,638.92	90.39	2,638.92	90.1639	2,638.92	90.4351	2,638.92	90.4707	2,638.92	89.7525	2,638.92	90.4903	2,638.92	88.5123	2,638.92	90.1311	2,638.92	86.9538	2,638.92	88.8779	2,638.92	85.1839	2,638.92	87.0238	2,638.92	83.0196	2,638.92	85.3036	2,638.92	80.6033	2,638.92	83.384	2,638.92	79.2494	2,638.92	80.6366	2,638.92	77.8536	2,638.92	79.1296	2,638.92	74.9279	2,638.92	77.8691	2,638.92	73.8578	2,638.92	75.5358	2,638.92	75.1157	2,638.92	76.1128	2,638.92	78.166	2,638.92	76.8395	2,638.92	75.6147	2,638.92	77.2705	2,638.92	75.2267	2,638.92	73.9319	2,638.92	75.0106
2,731.93	89.1663	2,731.93	89.8968	2,731.93	89.1782	2,731.93	90.4804	2,731.93	89.8582	2,731.93	90.5884	2,731.93	90.2596	2,731.93	90.0982	2,731.93	90.359	2,731.93	88.8949	2,731.93	89.8809	2,731.93	86.8836	2,731.93	88.4063	2,731.93	84.7292	2,731.93	86.357	2,731.93	82.8706	2,731.93	84.6935	2,731.93	80.5642	2,731.93	83.1003	2,731.93	78.8511	2,731.93	80.7313	2,731.93	77.1401	2,731.93	79.7931	2,731.93	75.4843	2,731.93	78.1385	2,731.93	78.9103	2,731.93	73.9535	2,731.93	78.6202	2,731.93	74.202	2,731.93	78.5742	2,731.93	74.7308	2,731.93	75.8779	2,731.93	77.5506	2,731.93	73.0132	2,731.93	74.4979	2,731.93	75.8011
2,828.61	88.6903	2,828.61	89.5031	2,828.61	88.8782	2,828.61	90.312	2,828.61	89.6574	2,828.61	90.336	2,828.61	90.2443	2,828.61	89.9514	2,828.61	90.2447	2,828.61	89.0579	2,828.61	89.7515	2,828.61	87.101	2,828.61	88.7395	2,828.61	84.5101	2,828.61	86.7333	2,828.61	82.6559	2,828.61	84.7874	2,828.61	80.9555	2,828.61	83.1277	2,828.61	78.6922	2,828.61	80.5749	2,828.61	77.3315	2,828.61	78.7937	2,828.61	75.021	2,828.61	77.4606	2,828.61	77.2657	2,828.61	75.9906	2,828.61	77.1665	2,828.61	78.8799	2,828.61	78.2432	2,828.61	77.4405	2,828.61	76.8432	2,828.61	78.8808	2,828.61	76.626	2,828.61	76.7898	2,828.61	76.2372
2,928.22	88.1698	2,928.22	89.3289	2,928.22	88.1255	2,928.22	90.4378	2,928.22	89.548	2,928.22	90.6215	2,928.22	90.6412	2,928.22	89.9982	2,928.22	90.3397	2,928.22	89.0774	2,928.22	89.3731	2,928.22	87.5943	2,928.22	88.2	2,928.22	85.2099	2,928.22	86.6625	2,928.22	83.3289	2,928.22	85.0679	2,928.22	81.7577	2,928.22	83.4904	2,928.22	79.4725	2,928.22	81.2741	2,928.22	78.4136	2,928.22	79.1757	2,928.22	76.4658	2,928.22	77.4197	2,928.22	77.747	2,928.22	73.4103	2,928.22	77.5498	2,928.22	76.3673	2,928.22	76.1132	2,928.22	76.6265	2,928.22	74.3665	2,928.22	77.5708	2,928.22	74.3115	2,928.22	74.5574	2,928.22	77.4595
3,031.49	88.5603	3,031.49	88.9739	3,031.49	88.6618	3,031.49	89.9551	3,031.49	89.3433	3,031.49	90.1562	3,031.49	90.2663	3,031.49	89.1781	3,031.49	90.2565	3,031.49	88.0814	3,031.49	89.1948	3,031.49	86.9664	3,031.49	87.8722	3,031.49	85.1582	3,031.49	86.2659	3,031.49	82.7899	3,031.49	84.2176	3,031.49	80.0653	3,031.49	82.6189	3,031.49	78.6478	3,031.49	80.4558	3,031.49	77.8627	3,031.49	77.7404	3,031.49	73.9866	3,031.49	77.533	3,031.49	72.9637	3,031.49	74.6975	3,031.49	75.3807	3,031.49	75.9776	3,031.49	77.1197	3,031.49	75.0024	3,031.49	74.3255	3,031.49	76.5171	3,031.49	76.7907	3,031.49	73.5177	3,031.49	76.3423
3,138.43	88.8435	3,138.43	89.3112	3,138.43	88.9588	3,138.43	90.0031	3,138.43	89.3904	3,138.43	89.9671	3,138.43	90.1345	3,138.43	89.3214	3,138.43	90.1485	3,138.43	88.1885	3,138.43	89.3497	3,138.43	86.81	3,138.43	88.4078	3,138.43	85.3387	3,138.43	86.9059	3,138.43	83.5022	3,138.43	85.1235	3,138.43	80.3313	3,138.43	83.342	3,138.43	78.1268	3,138.43	81.1763	3,138.43	77.9601	3,138.43	78.4893	3,138.43	75.9132	3,138.43	77.0322	3,138.43	77.1702	3,138.43	74.8537	3,138.43	76.7536	3,138.43	76.0258	3,138.43	76.9236	3,138.43	75.6549	3,138.43	74.6167	3,138.43	77.7726	3,138.43	70.6906	3,138.43	74.6715	3,138.43	73.9991
3,249.02	89.0074	3,249.02	89.3763	3,249.02	88.9219	3,249.02	89.6881	3,249.02	89.4715	3,249.02	89.6491	3,249.02	89.9759	3,249.02	89.111	3,249.02	89.7529	3,249.02	88.0545	3,249.02	89.2165	3,249.02	86.4464	3,249.02	88.3365	3,249.02	84.6913	3,249.02	87.0994	3,249.02	83.8034	3,249.02	85.0863	3,249.02	81.5543	3,249.02	82.6835	3,249.02	78.45	3,249.02	80.9229	3,249.02	78.8222	3,249.02	79.1144	3,249.02	77.8239	3,249.02	78.3797	3,249.02	77.4017	3,249.02	74.8552	3,249.02	78.3232	3,249.02	76.0187	3,249.02	77.8915	3,249.02	76.849	3,249.02	76.417	3,249.02	76.6568	3,249.02	68.3604	3,249.02	74.718	3,249.02	71.1357
3,363.28	88.7122	3,363.28	88.9762	3,363.28	88.4766	3,363.28	89.2042	3,363.28	89.012	3,363.28	89.4169	3,363.28	89.3418	3,363.28	88.7679	3,363.28	89.2589	3,363.28	88.007	3,363.28	88.8871	3,363.28	86.961	3,363.28	87.8789	3,363.28	85.0911	3,363.28	86.3027	3,363.28	82.994	3,363.28	84.4897	3,363.28	80.6504	3,363.28	82.8573	3,363.28	78.4833	3,363.28	80.7635	3,363.28	78.2094	3,363.28	78.1617	3,363.28	77.2575	3,363.28	76.8248	3,363.28	77.907	3,363.28	74.7262	3,363.28	77.6829	3,363.28	73.5613	3,363.28	78.4489	3,363.28	76.6248	3,363.28	78.1388	3,363.28	75.7183	3,363.28	68.8771	3,363.28	75.4292	3,363.28	65.589
3,481.93	88.9878	3,481.93	88.9595	3,481.93	89.1643	3,481.93	89.1842	3,481.93	88.6557	3,481.93	88.8257	3,481.93	88.6484	3,481.93	88.3717	3,481.93	89.331	3,481.93	88.451	3,481.93	89.1072	3,481.93	87.7551	3,481.93	88.6175	3,481.93	86.0281	3,481.93	87.4012	3,481.93	82.7073	3,481.93	85.8181	3,481.93	79.9479	3,481.93	83.3487	3,481.93	77.4826	3,481.93	81.3523	3,481.93	76.4215	3,481.93	78.811	3,481.93	74.0105	3,481.93	76.7335	3,481.93	70.5965	3,481.93	76.982	3,481.93	75.7992	3,481.93	75.163	3,481.93	77.8968	3,481.93	76.7086	3,481.93	78.1241	3,481.93	77.4637	3,481.93	69.6199	3,481.93	75.9169	3,481.93	68.1797
3,604.98	88.9856	3,604.98	88.7568	3,604.98	89.0014	3,604.98	88.9452	3,604.98	88.4648	3,604.98	88.8477	3,604.98	88.4875	3,604.98	88.9153	3,604.98	88.5796	3,604.98	88.6725	3,604.98	88.8331	3,604.98	88.2265	3,604.98	88.5801	3,604.98	86.7442	3,604.98	87.3181	3,604.98	84.4632	3,604.98	85.5054	3,604.98	82.4043	3,604.98	83.0023	3,604.98	79.6047	3,604.98	80.9734	3,604.98	77.2245	3,604.98	78.1253	3,604.98	76.9554	3,604.98	77.4261	3,604.98	74.9676	3,604.98	78.6491	3,604.98	74.4824	3,604.98	77.4948	3,604.98	77.1954	3,604.98	76.6557	3,604.98	76.3153	3,604.98	77.6427	3,604.98	70.9091	3,604.98	76.3379	3,604.98	68.5504
3,732.42	89.5665	3,732.42	88.372	3,732.42	89.1726	3,732.42	87.5492	3,732.42	88.5107	3,732.42	88.818	3,732.42	88.1143	3,732.42	89.3532	3,732.42	88.6524	3,732.42	88.6183	3,732.42	89.3564	3,732.42	87.2819	3,732.42	88.7341	3,732.42	85.5594	3,732.42	87.6371	3,732.42	84.141	3,732.42	85.8162	3,732.42	82.3443	3,732.42	83.0751	3,732.42	79.5331	3,732.42	80.8998	3,732.42	76.0621	3,732.42	78.6194	3,732.42	75.0842	3,732.42	76.0712	3,732.42	76.8534	3,732.42	76.3045	3,732.42	77.1624	3,732.42	77.5357	3,732.42	77.2556	3,732.42	78.7245	3,732.42	76.495	3,732.42	77.0351	3,732.42	64.1311	3,732.42	76.9852	3,732.42	57.0425
3,863.53	90.1501	3,863.53	88.9135	3,863.53	90.3514	3,863.53	87.8416	3,863.53	89.0969	3,863.53	88.6738	3,863.53	88.3667	3,863.53	89.8539	3,863.53	89.4335	3,863.53	89.748	3,863.53	89.8716	3,863.53	87.9574	3,863.53	89.704	3,863.53	85.818	3,863.53	88.6295	3,863.53	82.9737	3,863.53	86.609	3,863.53	80.4287	3,863.53	83.7256	3,863.53	78.2857	3,863.53	81.5117	3,863.53	75.9681	3,863.53	79.4142	3,863.53	75.0874	3,863.53	77.145	3,863.53	73.985	3,863.53	75.2714	3,863.53	77.2487	3,863.53	74.3966	3,863.53	76.0344	3,863.53	77.3118	3,863.53	76.1719	3,863.53	77.0477	3,863.53	61.1416	3,863.53	77.0921	3,863.53	61.1512
3,999.76	90.1766	3,999.76	89.2052	3,999.76	90.3761	3,999.76	89.0939	3,999.76	88.7621	3,999.76	89.2167	3,999.76	88.4647	3,999.76	89.8708	3,999.76	89.3119	3,999.76	90.0232	3,999.76	90.0296	3,999.76	89.0751	3,999.76	89.8225	3,999.76	86.9875	3,999.76	88.3928	3,999.76	83.4689	3,999.76	86.2966	3,999.76	80.4909	3,999.76	83.5381	3,999.76	78.5681	3,999.76	81.173	3,999.76	77.8331	3,999.76	78.1082	3,999.76	78.1782	3,999.76	77.2396	3,999.76	75.8671	3,999.76	76.5018	3,999.76	76.0313	3,999.76	73.5017	3,999.76	75.8141	3,999.76	76.5428	3,999.76	75.5893	3,999.76	76.1106	3,999.76	55.0368	3,999.76	75.0936	3,999.76	61.4375
4,141.11	90.0163	4,141.11	89.267	4,141.11	89.4251	4,141.11	88.6358	4,141.11	88.9833	4,141.11	89.9981	4,141.11	87.8353	4,141.11	90.7053	4,141.11	88.064	4,141.11	90.1704	4,141.11	89.8108	4,141.11	89.0771	4,141.11	89.5451	4,141.11	87.2509	4,141.11	88.0084	4,141.11	84.8516	4,141.11	85.4351	4,141.11	82.4989	4,141.11	83.4863	4,141.11	79.7237	4,141.11	80.9455	4,141.11	77.1911	4,141.11	77.9297	4,141.11	76.8762	4,141.11	75.5253	4,141.11	76.2086	4,141.11	76.614	4,141.11	77.3351	4,141.11	73.6383	4,141.11	77.1892	4,141.11	76.3943	4,141.11	76.6131	4,141.11	75.494	4,141.11	64.2772	4,141.11	74.7686	4,141.11	48.979
4,286.87	90.7084	4,286.87	89.0738	4,286.87	90.9155	4,286.87	87.4713	4,286.87	89.2415	4,286.87	88.8718	4,286.87	88.2128	4,286.87	90.2958	4,286.87	89.9115	4,286.87	89.5546	4,286.87	90.406	4,286.87	87.318	4,286.87	89.8359	4,286.87	85.3063	4,286.87	88.0331	4,286.87	82.8793	4,286.87	86.2512	4,286.87	81.3665	4,286.87	83.6475	4,286.87	79.5321	4,286.87	81.3265	4,286.87	76.5618	4,286.87	78.3791	4,286.87	77.5052	4,286.87	75.5868	4,286.87	76.1709	4,286.87	76.5833	4,286.87	78.1991	4,286.87	74.1248	4,286.87	76.6531	4,286.87	74.7809	4,286.87	76.9083	4,286.87	74.4441	4,286.87	66.457	4,286.87	75.3739	4,286.87	56.0387
4,438.48	90.2236	4,438.48	89.2324	4,438.48	90.4845	4,438.48	89.0411	4,438.48	88.6704	4,438.48	88.8161	4,438.48	88.768	4,438.48	89.8659	4,438.48	89.1642	4,438.48	90.3393	4,438.48	89.7235	4,438.48	89.5717	4,438.48	89.4007	4,438.48	87.2935	4,438.48	88.2061	4,438.48	84.1399	4,438.48	85.7721	4,438.48	81.3998	4,438.48	82.3628	4,438.48	79.4797	4,438.48	80.1957	4,438.48	76.9182	4,438.48	78.5213	4,438.48	75.644	4,438.48	75.6331	4,438.48	75.0216	4,438.48	75.0086	4,438.48	77.2288	4,438.48	72.7276	4,438.48	75.8139	4,438.48	76.2827	4,438.48	73.6857	4,438.48	77.0542	4,438.48	52.9603	4,438.48	74.3071	4,438.48	44.8725
4,594.48	90.2687	4,594.48	89.5529	4,594.48	89.5962	4,594.48	88.7607	4,594.48	89.7173	4,594.48	90.0383	4,594.48	88.7746	4,594.48	89.8327	4,594.48	88.7086	4,594.48	88.8494	4,594.48	89.6882	4,594.48	87.5832	4,594.48	89.1637	4,594.48	85.3509	4,594.48	88.2486	4,594.48	82.7734	4,594.48	86.2853	4,594.48	80.561	4,594.48	83.3957	4,594.48	78.8869	4,594.48	79.5855	4,594.48	75.5965	4,594.48	78.1022	4,594.48	71.8358	4,594.48	75.5047	4,594.48	72.0879	4,594.48	74.094	4,594.48	76.3837	4,594.48	73.7391	4,594.48	76.7678	4,594.48	75.7066	4,594.48	76.1443	4,594.48	76.1338	4,594.48	58.8395	4,594.48	75.1581	4,594.48	50.5247
4,757.08	90.4386	4,757.08	89.4886	4,757.08	91.216	4,757.08	88.6997	4,757.08	89.8076	4,757.08	88.1119	4,757.08	88.859	4,757.08	89.3217	4,757.08	89.5639	4,757.08	89.4304	4,757.08	89.7316	4,757.08	87.3505	4,757.08	89.2942	4,757.08	85.7201	4,757.08	87.9851	4,757.08	84.0023	4,757.08	85.2122	4,757.08	80.9266	4,757.08	82.5282	4,757.08	76.7784	4,757.08	80.9738	4,757.08	73.3612	4,757.08	77.8734	4,757.08	72.5321	4,757.08	74.49	4,757.08	66.1222	4,757.08	75.6337	4,757.08	74.837	4,757.08	74.8637	4,757.08	73.9733	4,757.08	77.4106	4,757.08	74.7986	4,757.08	76.0509	4,757.08	54.3819	4,757.08	73.4456	4,757.08	60.3552
4,924.8	89.8421	4,924.8	90.3398	4,924.8	89.4764	4,924.8	89.2417	4,924.8	89.6104	4,924.8	88.2312	4,924.8	88.8393	4,924.8	88.5344	4,924.8	87.7152	4,924.8	88.2622	4,924.8	88.3831	4,924.8	87.702	4,924.8	88.4858	4,924.8	86.288	4,924.8	87.5183	4,924.8	83.2602	4,924.8	85.7796	4,924.8	80.3346	4,924.8	84.2103	4,924.8	78.099	4,924.8	79.878	4,924.8	74.609	4,924.8	79.0253	4,924.8	75.155	4,924.8	76.2762	4,924.8	71.8893	4,924.8	73.8183	4,924.8	74.832	4,924.8	70.5689	4,924.8	75.3304	4,924.8	75.1079	4,924.8	74.3969	4,924.8	75.7011	4,924.8	57.5851	4,924.8	74.0063	4,924.8	55.9878
5,098.39	89.8188	5,098.39	89.3074	5,098.39	89.748	5,098.39	88.3772	5,098.39	89.8983	5,098.39	88.1546	5,098.39	89.1528	5,098.39	87.857	5,098.39	88.4088	5,098.39	87.946	5,098.39	88.6609	5,098.39	87.5592	5,098.39	88.6005	5,098.39	86.2938	5,098.39	87.8252	5,098.39	83.4041	5,098.39	86.9278	5,098.39	81.3871	5,098.39	83.9198	5,098.39	80.6192	5,098.39	81.3938	5,098.39	77.5279	5,098.39	79.2586	5,098.39	75.0991	5,098.39	75.8861	5,098.39	67.2886	5,098.39	73.5263	5,098.39	75.8812	5,098.39	76.0376	5,098.39	75.7989	5,098.39	74.2764	5,098.39	73.0697	5,098.39	75.2814	5,098.39	61.4293	5,098.39	71.4046	5,098.39	52.2526
5,277.83	89.0199	5,277.83	89.6638	5,277.83	89.5047	5,277.83	88.8275	5,277.83	89.5832	5,277.83	86.9079	5,277.83	88.4037	5,277.83	87.6734	5,277.83	87.0494	5,277.83	88.2562	5,277.83	87.347	5,277.83	87.3351	5,277.83	87.5369	5,277.83	85.6391	5,277.83	87.446	5,277.83	82.8521	5,277.83	84.998	5,277.83	79.4719	5,277.83	82.6845	5,277.83	76.3255	5,277.83	80.0707	5,277.83	74.0117	5,277.83	77.8471	5,277.83	74.222	5,277.83	76.1039	5,277.83	70.8708	5,277.83	71.0815	5,277.83	70.7394	5,277.83	69.6759	5,277.83	73.1688	5,277.83	75.169	5,277.83	72.2367	5,277.83	74.4949	5,277.83	57.5884	5,277.83	67.9159	5,277.83	57.4837
5,463.87	89.1174	5,463.87	90.0163	5,463.87	88.6686	5,463.87	88.3698	5,463.87	89.7076	5,463.87	86.7589	5,463.87	88.856	5,463.87	87.1731	5,463.87	87.2345	5,463.87	87.392	5,463.87	87.5215	5,463.87	86.5566	5,463.87	88.3346	5,463.87	84.3182	5,463.87	87.5857	5,463.87	81.2421	5,463.87	85.9111	5,463.87	79.3111	5,463.87	83.5485	5,463.87	77.3828	5,463.87	80.0247	5,463.87	74.4437	5,463.87	78.431	5,463.87	73.6997	5,463.87	75.7524	5,463.87	72.0314	5,463.87	71.1228	5,463.87	71.7209	5,463.87	69.9837	5,463.87	73.93	5,463.87	73.4822	5,463.87	71.836	5,463.87	74.758	5,463.87	57.9977	5,463.87	71.2151	5,463.87	65.7231
5,656.49	87.9674	5,656.49	88.3376	5,656.49	88.886	5,656.49	87.9986	5,656.49	89.2719	5,656.49	86.5335	5,656.49	88.0862	5,656.49	86.5019	5,656.49	86.9491	5,656.49	87.2486	5,656.49	87.3649	5,656.49	86.8953	5,656.49	87.5222	5,656.49	85.3933	5,656.49	86.9562	5,656.49	82.3157	5,656.49	84.3627	5,656.49	79.1818	5,656.49	80.9628	5,656.49	77.5344	5,656.49	78.2187	5,656.49	75.1483	5,656.49	75.4527	5,656.49	70.8493	5,656.49	73.9928	5,656.49	68.813	5,656.49	67.0382	5,656.49	72.4908	5,656.49	65.5197	5,656.49	73.4606	5,656.49	71.5694	5,656.49	69.5075	5,656.49	73.9129	5,656.49	63.0178	5,656.49	68.8444	5,656.49	59.437
5,856.45	88.5895	5,856.45	89.5726	5,856.45	88.2576	5,856.45	88.5573	5,856.45	88.9827	5,856.45	87.6072	5,856.45	87.9764	5,856.45	87.8183	5,856.45	87.0334	5,856.45	87.778	5,856.45	87.1299	5,856.45	86.6169	5,856.45	87.374	5,856.45	84.1553	5,856.45	86.2014	5,856.45	80.5454	5,856.45	83.436	5,856.45	77.6569	5,856.45	81.5495	5,856.45	73.3668	5,856.45	78.3268	5,856.45	71.355	5,856.45	73.2529	5,856.45	71.9705	5,856.45	72.7101	5,856.45	70.5523	5,856.45	71.6228	5,856.45	72.0082	5,856.45	69.8388	5,856.45	72.4698	5,856.45	68.2202	5,856.45	69.8903	5,856.45	73.0338	5,856.45	55.2898	5,856.45	64.2312	5,856.45	62.526
6,062.99	89.2941	6,062.99	89.1504	6,062.99	89.7019	6,062.99	88.7686	6,062.99	88.8341	6,062.99	87.9672	6,062.99	87.881	6,062.99	87.3801	6,062.99	87.1689	6,062.99	86.8539	6,062.99	86.7842	6,062.99	85.4951	6,062.99	86.8342	6,062.99	83.0283	6,062.99	85.4186	6,062.99	80.5218	6,062.99	83.4434	6,062.99	77.785	6,062.99	79.7178	6,062.99	77.0206	6,062.99	76.5782	6,062.99	75.0807	6,062.99	73.2425	6,062.99	71.4119	6,062.99	68.3076	6,062.99	67.9193	6,062.99	67.4808	6,062.99	71.8227	6,062.99	69.2793	6,062.99	73.5392	6,062.99	68.8026	6,062.99	69.9391	6,062.99	73.7686	6,062.99	57.6717	6,062.99	66.5171	6,062.99	63.9489
6,276.86	90.1814	6,276.86	89.3344	6,276.86	90.3114	6,276.86	88.647	6,276.86	89.6182	6,276.86	88.2686	6,276.86	89.0914	6,276.86	87.3825	6,276.86	88.4346	6,276.86	86.4857	6,276.86	87.8326	6,276.86	85.65	6,276.86	86.7946	6,276.86	83.8724	6,276.86	85.5928	6,276.86	81.134	6,276.86	83.1969	6,276.86	78.4465	6,276.86	81.3856	6,276.86	74.2997	6,276.86	78.8429	6,276.86	70.8862	6,276.86	72.6617	6,276.86	66.4393	6,276.86	70.9675	6,276.86	66.9701	6,276.86	66.1085	6,276.86	67.9117	6,276.86	71.7963	6,276.86	71.4012	6,276.86	61.0773	6,276.86	68.3231	6,276.86	73.7568	6,276.86	48.5553	6,276.86	62.7867	6,276.86	63.6547
6,498.05	90.4805	6,498.05	89.512	6,498.05	90.5945	6,498.05	89.1685	6,498.05	89.7102	6,498.05	88.6407	6,498.05	89.5427	6,498.05	87.4094	6,498.05	88.6282	6,498.05	86.5354	6,498.05	87.7028	6,498.05	85.4415	6,498.05	86.9833	6,498.05	83.5948	6,498.05	86.1554	6,498.05	81.4094	6,498.05	83.7341	6,498.05	77.9761	6,498.05	80.3894	6,498.05	75.0596	6,498.05	77.9257	6,498.05	72.0047	6,498.05	76.1789	6,498.05	62.0605	6,498.05	72.6925	6,498.05	65.4621	6,498.05	66.3575	6,498.05	68.3064	6,498.05	70.5072	6,498.05	71.2224	6,498.05	68.5831	6,498.05	65.8846	6,498.05	74.1061	6,498.05	56.3812	6,498.05	68.3853	6,498.05	66.0283
6,727.29	90.6028	6,727.29	90.145	6,727.29	90.7513	6,727.29	89.9109	6,727.29	90.159	6,727.29	88.414	6,727.29	89.8104	6,727.29	86.5939	6,727.29	88.2937	6,727.29	86.6656	6,727.29	87.4018	6,727.29	86.0651	6,727.29	87.1477	6,727.29	83.6389	6,727.29	86.9525	6,727.29	80.5876	6,727.29	84.1188	6,727.29	77.916	6,727.29	81.5092	6,727.29	74.509	6,727.29	77.9726	6,727.29	70.6349	6,727.29	74.8496	6,727.29	59.0138	6,727.29	72.9564	6,727.29	68.057	6,727.29	69.0486	6,727.29	66.3217	6,727.29	67.2302	6,727.29	71.2201	6,727.29	61.1587	6,727.29	65.3729	6,727.29	74.3935	6,727.29	55.4225	6,727.29	62.8935	6,727.29	63.8947
6,964.6	90.3164	6,964.6	90.3754	6,964.6	90.4277	6,964.6	89.8769	6,964.6	90.6352	6,964.6	87.6646	6,964.6	90.111	6,964.6	86.3238	6,964.6	87.9086	6,964.6	87.3647	6,964.6	87.258	6,964.6	86.389	6,964.6	88.0151	6,964.6	83.5849	6,964.6	87.2256	6,964.6	79.7716	6,964.6	84.4325	6,964.6	76.8885	6,964.6	79.2343	6,964.6	74.0708	6,964.6	76.0893	6,964.6	70.5143	6,964.6	75.7392	6,964.6	63.4793	6,964.6	71.5644	6,964.6	63.7976	6,964.6	69.1489	6,964.6	68.6833	6,964.6	67.9971	6,964.6	71.4324	6,964.6	63.6084	6,964.6	65.7143	6,964.6	73.3142	6,964.6	54.5487	6,964.6	65.5165	6,964.6	62.2747
7,209.96	89.795	7,209.96	90.0242	7,209.96	89.774	7,209.96	89.3476	7,209.96	90.1706	7,209.96	87.2227	7,209.96	89.5033	7,209.96	86.5712	7,209.96	87.5213	7,209.96	87.1188	7,209.96	87.4313	7,209.96	85.7397	7,209.96	87.4455	7,209.96	83.0415	7,209.96	86.4915	7,209.96	78.7167	7,209.96	83.3243	7,209.96	75.8809	7,209.96	79.0184	7,209.96	72.1418	7,209.96	76.9766	7,209.96	69.289	7,209.96	73.8089	7,209.96	63.8768	7,209.96	69.844	7,209.96	62.9383	7,209.96	68.4921	7,209.96	66.2999	7,209.96	67.4696	7,209.96	71.4663	7,209.96	54.728	7,209.96	65.8951	7,209.96	73.2873	7,209.96	44.6574	7,209.96	64.1729	7,209.96	62.2249
7,464.11	89.2906	7,464.11	89.2474	7,464.11	89.4009	7,464.11	88.7152	7,464.11	89.4496	7,464.11	87.1443	7,464.11	88.9304	7,464.11	86.1731	7,464.11	87.4275	7,464.11	86.1555	7,464.11	86.8929	7,464.11	84.7242	7,464.11	86.4435	7,464.11	81.8416	7,464.11	85.1295	7,464.11	78.7079	7,464.11	82.3928	7,464.11	75.1404	7,464.11	78.6809	7,464.11	72.5148	7,464.11	76.7109	7,464.11	69.8764	7,464.11	73.2306	7,464.11	64.0769	7,464.11	66.0402	7,464.11	63.2559	7,464.11	69.2665	7,464.11	67.3492	7,464.11	61.2751	7,464.11	71.8137	7,464.11	47.1551	7,464.11	64.9548	7,464.11	72.1499	7,464.11	35.4344	7,464.11	63.5033	7,464.11	63.5246
7,727.78	88.8166	7,727.78	88.3807	7,727.78	89.0633	7,727.78	88.1465	7,727.78	88.816	7,727.78	86.6914	7,727.78	88.394	7,727.78	85.5676	7,727.78	87.2581	7,727.78	84.7833	7,727.78	86.2373	7,727.78	83.8641	7,727.78	84.8972	7,727.78	81.9273	7,727.78	84.3249	7,727.78	78.5663	7,727.78	82.1039	7,727.78	74.8963	7,727.78	79.8459	7,727.78	72.7659	7,727.78	76.2273	7,727.78	68.8912	7,727.78	72.7189	7,727.78	63.5525	7,727.78	67.0271	7,727.78	62.6033	7,727.78	68.2603	7,727.78	65.042	7,727.78	65.3755	7,727.78	70.7718	7,727.78	62.2999	7,727.78	62.986	7,727.78	70.5958	7,727.78	51.2544	7,727.78	63.0813	7,727.78	63.9426
8,000.24	89.2478	8,000.24	88.5649	8,000.24	89.2768	8,000.24	88.5372	8,000.24	88.6324	8,000.24	87.2426	8,000.24	88.4157	8,000.24	85.6484	8,000.24	87.2178	8,000.24	84.7803	8,000.24	86.033	8,000.24	83.8187	8,000.24	84.8361	8,000.24	81.3851	8,000.24	83.8637	8,000.24	78.4618	8,000.24	82.3546	8,000.24	75.0476	8,000.24	78.6339	8,000.24	72.1883	8,000.24	74.4384	8,000.24	66.8288	8,000.24	73.1354	8,000.24	62.4141	8,000.24	66.1374	8,000.24	63.6623	8,000.24	66.7167	8,000.24	66.1481	8,000.24	62.8505	8,000.24	71.0799	8,000.24	64.4781	8,000.24	62.7283	8,000.24	69.4061	8,000.24	42.3856	8,000.24	60.5981	8,000.24	61.8593
8,282.23	89.9262	8,282.23	89.1325	8,282.23	90.1746	8,282.23	89.0705	8,282.23	89.5767	8,282.23	87.9777	8,282.23	89.3265	8,282.23	86.2409	8,282.23	88.2884	8,282.23	84.7283	8,282.23	86.7758	8,282.23	84.647	8,282.23	85.2723	8,282.23	81.5376	8,282.23	85.0502	8,282.23	78.5134	8,282.23	83.4136	8,282.23	74.2428	8,282.23	79.3446	8,282.23	71.4968	8,282.23	75.7553	8,282.23	67.5045	8,282.23	73.2159	8,282.23	65.4437	8,282.23	68.3321	8,282.23	65.2771	8,282.23	66.267	8,282.23	62.5134	8,282.23	55.2386	8,282.23	70.787	8,282.23	60.7421	8,282.23	59.6354	8,282.23	70.1312	8,282.23	59.135	8,282.23	62.5053	8,282.23	61.1151
8,574.46	90.5522	8,574.46	89.8365	8,574.46	90.6171	8,574.46	89.5379	8,574.46	90.2529	8,574.46	88.111	8,574.46	89.8539	8,574.46	86.4198	8,574.46	88.4223	8,574.46	85.4967	8,574.46	87.0429	8,574.46	84.9336	8,574.46	86.2532	8,574.46	82.6182	8,574.46	85.5839	8,574.46	80.2426	8,574.46	83.7669	8,574.46	75.5973	8,574.46	80.0775	8,574.46	72.035	8,574.46	77.0609	8,574.46	68.7944	8,574.46	72.0509	8,574.46	66.3429	8,574.46	69.1724	8,574.46	65.8355	8,574.46	66.6861	8,574.46	62.2164	8,574.46	56.7169	8,574.46	70.0805	8,574.46	63.9845	8,574.46	54.4699	8,574.46	69.0276	8,574.46	58.7796	8,574.46	64.2036	8,574.46	58.6558
8,876.22	90.0817	8,876.22	89.5256	8,876.22	90.1602	8,876.22	89.1418	8,876.22	89.9209	8,876.22	87.7023	8,876.22	89.381	8,876.22	85.725	8,876.22	87.9255	8,876.22	85.0755	8,876.22	86.3488	8,876.22	84.4323	8,876.22	85.7244	8,876.22	82.0076	8,876.22	84.7615	8,876.22	79.5553	8,876.22	81.9997	8,876.22	75.5121	8,876.22	79.7334	8,876.22	71.5654	8,876.22	76.5812	8,876.22	68.2411	8,876.22	71.8836	8,876.22	64.217	8,876.22	69.6948	8,876.22	66.632	8,876.22	67.2435	8,876.22	55.4474	8,876.22	49.1128	8,876.22	67.7568	8,876.22	62.1816	8,876.22	50.6776	8,876.22	68.1323	8,876.22	61.9505	8,876.22	63.8188	8,876.22	56.8585
9,189.7	89.4143	9,189.7	88.8224	9,189.7	89.5031	9,189.7	88.3402	9,189.7	89.1562	9,189.7	86.9712	9,189.7	88.5489	9,189.7	85.4003	9,189.7	87.2483	9,189.7	84.0235	9,189.7	85.9825	9,189.7	83.0796	9,189.7	84.5727	9,189.7	80.499	9,189.7	82.4768	9,189.7	78.2483	9,189.7	80.4466	9,189.7	74.3293	9,189.7	78.5938	9,189.7	69.9575	9,189.7	74.7582	9,189.7	66.9615	9,189.7	71.2925	9,189.7	62.7088	9,189.7	68.491	9,189.7	64.0082	9,189.7	66.3871	9,189.7	58.5454	9,189.7	38.145	9,189.7	67.5672	9,189.7	60.7473	9,189.7	58.772	9,189.7	67.2487	9,189.7	54.9071	9,189.7	63.8183	9,189.7	60.7988
9,513.43	89.1586	9,513.43	88.5188	9,513.43	89.3104	9,513.43	87.8176	9,513.43	88.9502	9,513.43	86.3943	9,513.43	87.9105	9,513.43	84.8691	9,513.43	86.3649	9,513.43	83.0827	9,513.43	84.7571	9,513.43	81.528	9,513.43	83.2819	9,513.43	78.3992	9,513.43	81.3386	9,513.43	76.5526	9,513.43	80.2621	9,513.43	72.5387	9,513.43	76.1701	9,513.43	68.9266	9,513.43	73.016	9,513.43	66.3938	9,513.43	69.8781	9,513.43	62.4786	9,513.43	66.7818	9,513.43	61.3046	9,513.43	65.5102	9,513.43	61.956	9,513.43	35.9129	9,513.43	65.9548	9,513.43	65.2116	9,513.43	57.7247	9,513.43	64.1472	9,513.43	58.4833	9,513.43	60.8703	9,513.43	57.4967
9,848.88	89.3317	9,848.88	88.7102	9,848.88	89.4795	9,848.88	87.7621	9,848.88	88.8601	9,848.88	86.0225	9,848.88	87.809	9,848.88	84.2807	9,848.88	86.0588	9,848.88	82.5177	9,848.88	84.5098	9,848.88	81.0341	9,848.88	83.1508	9,848.88	78.0903	9,848.88	81.521	9,848.88	76.6903	9,848.88	79.3365	9,848.88	71.3407	9,848.88	75.89	9,848.88	67.5447	9,848.88	73.0685	9,848.88	65.6487	9,848.88	67.7653	9,848.88	60.0261	9,848.88	65.1495	9,848.88	60.0846	9,848.88	64.125	9,848.88	60.675	9,848.88	43.4507	9,848.88	66.1857	9,848.88	64.9907	9,848.88	57.6123	9,848.88	63.4791	9,848.88	60.2085	9,848.88	59.5874	9,848.88	54.5916
10,196.8	89.4576	10,196.8	88.8024	10,196.8	89.5128	10,196.8	87.7036	10,196.8	88.9304	10,196.8	85.8143	10,196.8	87.9836	10,196.8	83.655	10,196.8	86.2896	10,196.8	82.4291	10,196.8	84.798	10,196.8	80.9915	10,196.8	82.8927	10,196.8	78.5074	10,196.8	80.9917	10,196.8	76.4421	10,196.8	78.3502	10,196.8	72.1505	10,196.8	76.7592	10,196.8	67.2186	10,196.8	73.0996	10,196.8	65.7151	10,196.8	66.7692	10,196.8	58.7691	10,196.8	65.741	10,196.8	56.672	10,196.8	63.3068	10,196.8	55.878	10,196.8	56.2624	10,196.8	65.7785	10,196.8	62.5387	10,196.8	54.891	10,196.8	63.1486	10,196.8	60.5132	10,196.8	61.8107	10,196.8	53.8438
10,556.4	89.4339	10,556.4	88.4355	10,556.4	89.809	10,556.4	87.4072	10,556.4	89.1914	10,556.4	85.5169	10,556.4	88.0038	10,556.4	83.7456	10,556.4	86.6106	10,556.4	82.225	10,556.4	85.0179	10,556.4	80.6778	10,556.4	83.3148	10,556.4	77.9848	10,556.4	80.9476	10,556.4	75.9094	10,556.4	79.2094	10,556.4	72.1322	10,556.4	77.6574	10,556.4	67.641	10,556.4	73.5802	10,556.4	67.0285	10,556.4	68.494	10,556.4	63.4355	10,556.4	68.3289	10,556.4	54.634	10,556.4	63.9248	10,556.4	55.2794	10,556.4	56.2124	10,556.4	64.0659	10,556.4	62.9338	10,556.4	58.6887	10,556.4	63.0486	10,556.4	61.0774	10,556.4	62.6014	10,556.4	58.873
10,928.5	89.1377	10,928.5	88.1181	10,928.5	89.7023	10,928.5	86.9786	10,928.5	89.0553	10,928.5	85.1137	10,928.5	87.8076	10,928.5	83.9245	10,928.5	86.5163	10,928.5	81.9909	10,928.5	85.0665	10,928.5	80.9259	10,928.5	83.5724	10,928.5	77.9494	10,928.5	81.8108	10,928.5	76.9331	10,928.5	80.0345	10,928.5	71.9167	10,928.5	78.109	10,928.5	68.0182	10,928.5	74.3796	10,928.5	66.6565	10,928.5	68.9915	10,928.5	62.3604	10,928.5	68.5171	10,928.5	58.5428	10,928.5	63.7551	10,928.5	58.2237	10,928.5	57.637	10,928.5	62.5065	10,928.5	64.5946	10,928.5	60.6766	10,928.5	62.007	10,928.5	57.7045	10,928.5	61.0973	10,928.5	59.9589
11,313.7	88.5494	11,313.7	87.8719	11,313.7	89.01	11,313.7	86.7498	11,313.7	88.3882	11,313.7	84.9612	11,313.7	87.4032	11,313.7	83.7181	11,313.7	85.9631	11,313.7	82.2601	11,313.7	85.0356	11,313.7	81.285	11,313.7	83.4526	11,313.7	78.7193	11,313.7	81.929	11,313.7	77.5039	11,313.7	80.3209	11,313.7	72.8003	11,313.7	78.2988	11,313.7	67.2726	11,313.7	74.3425	11,313.7	66.3465	11,313.7	68.5487	11,313.7	63.7928	11,313.7	68.4632	11,313.7	58.9011	11,313.7	63.2513	11,313.7	61.0364	11,313.7	58.9497	11,313.7	60.6784	11,313.7	65.6812	11,313.7	59.9267	11,313.7	57.2917	11,313.7	58.7217	11,313.7	59.447	11,313.7	58.9114
11,712.9	88.0684	11,712.9	87.468	11,712.9	88.5407	11,712.9	86.6668	11,712.9	87.8291	11,712.9	85.0832	11,712.9	86.9277	11,712.9	83.6642	11,712.9	85.6808	11,712.9	82.5684	11,712.9	84.6354	11,712.9	81.0561	11,712.9	83.021	11,712.9	78.5842	11,712.9	81.5779	11,712.9	77.1156	11,712.9	79.9736	11,712.9	72.7702	11,712.9	77.9478	11,712.9	66.7387	11,712.9	73.505	11,712.9	66.0047	11,712.9	66.9315	11,712.9	61.7475	11,712.9	67.3778	11,712.9	58.1619	11,712.9	61.1248	11,712.9	60.0895	11,712.9	59.7484	11,712.9	59.6767	11,712.9	64.2222	11,712.9	58.4461	11,712.9	55.6886	11,712.9	59.5977	11,712.9	55.6427	11,712.9	58.9159
12,126	88.393	12,126	87.8224	12,126	88.8208	12,126	87.1536	12,126	88.2077	12,126	85.5463	12,126	87.4207	12,126	84.3337	12,126	86.1087	12,126	82.9201	12,126	84.7087	12,126	81.0865	12,126	83.177	12,126	78.591	12,126	81.2507	12,126	76.928	12,126	79.4257	12,126	72.4283	12,126	77.1967	12,126	66.0436	12,126	72.4729	12,126	66.3626	12,126	65.0362	12,126	60.9254	12,126	67.4656	12,126	58.0131	12,126	57.9219	12,126	62.6083	12,126	60.3654	12,126	57.2383	12,126	64.7376	12,126	56.3645	12,126	54.6242	12,126	59.2813	12,126	58.9759	12,126	59.5918
12,553.7	88.9361	12,553.7	88.6482	12,553.7	89.1859	12,553.7	87.8926	12,553.7	88.6785	12,553.7	86.3259	12,553.7	88.0014	12,553.7	84.982	12,553.7	86.596	12,553.7	83.0549	12,553.7	85.2746	12,553.7	81.0866	12,553.7	83.4016	12,553.7	78.8797	12,553.7	81.3711	12,553.7	76.6175	12,553.7	79.0973	12,553.7	72.2103	12,553.7	77.4278	12,553.7	63.5898	12,553.7	72.2791	12,553.7	65.4835	12,553.7	64.413	12,553.7	60.9238	12,553.7	66.7696	12,553.7	54.3431	12,553.7	55.1889	12,553.7	61.851	12,553.7	57.9905	12,553.7	58.0619	12,553.7	64.7526	12,553.7	55.2301	12,553.7	50.1512	12,553.7	59.3676	12,553.7	57.6711	12,553.7	59.7799
12,996.1	89.2001	12,996.1	88.9474	12,996.1	89.3843	12,996.1	88.1603	12,996.1	88.8953	12,996.1	86.434	12,996.1	88.0336	12,996.1	84.6462	12,996.1	86.538	12,996.1	82.4797	12,996.1	84.9233	12,996.1	80.1133	12,996.1	82.5786	12,996.1	77.3553	12,996.1	80.391	12,996.1	74.9543	12,996.1	77.9499	12,996.1	70.6238	12,996.1	76.1879	12,996.1	61.4706	12,996.1	70.6976	12,996.1	63.4634	12,996.1	62.9282	12,996.1	60.3514	12,996.1	64.8707	12,996.1	53.1548	12,996.1	55.9187	12,996.1	59.295	12,996.1	57.6648	12,996.1	55.7607	12,996.1	63.6472	12,996.1	55.4577	12,996.1	33.293	12,996.1	58.4566	12,996.1	55.1853	12,996.1	56.1049
13,454.6	89.1308	13,454.6	88.8132	13,454.6	89.2686	13,454.6	87.8461	13,454.6	88.6356	13,454.6	85.7236	13,454.6	87.4152	13,454.6	83.4676	13,454.6	85.4778	13,454.6	80.709	13,454.6	83.1904	13,454.6	77.5889	13,454.6	80.2989	13,454.6	74.439	13,454.6	77.541	13,454.6	71.666	13,454.6	75.1613	13,454.6	67.2952	13,454.6	71.9425	13,454.6	58.7279	13,454.6	66.3737	13,454.6	61.026	13,454.6	59.0328	13,454.6	57.2136	13,454.6	60.2748	13,454.6	51.7167	13,454.6	53.1272	13,454.6	56.6131	13,454.6	54.4715	13,454.6	49.5166	13,454.6	59.7522	13,454.6	52.5438	13,454.6	43.0215	13,454.6	58.5855	13,454.6	54.1169	13,454.6	51.2033
13,928.5	88.8803	13,928.5	88.32	13,928.5	88.9454	13,928.5	87.0935	13,928.5	88.0632	13,928.5	84.5547	13,928.5	86.5965	13,928.5	81.875	13,928.5	84.1377	13,928.5	78.4838	13,928.5	81.0155	13,928.5	74.6837	13,928.5	77.1289	13,928.5	71.1149	13,928.5	73.2903	13,928.5	66.8609	13,928.5	69.5936	13,928.5	62.9523	13,928.5	64.3373	13,928.5	49.5244	13,928.5	57.8686	13,928.5	57.5751	13,928.5	55.0557	13,928.5	52.9175	13,928.5	52.7265	13,928.5	49.5745	13,928.5	48.4398	13,928.5	53.3933	13,928.5	51.3902	13,928.5	41.8915	13,928.5	53.7792	13,928.5	49.5572	13,928.5	44.6955	13,928.5	55.5157	13,928.5	52.3577	13,928.5	47.9226
14,419.9	88.9335	14,419.9	88.1662	14,419.9	89.0031	14,419.9	86.7426	14,419.9	88.0819	14,419.9	83.9558	14,419.9	86.4959	14,419.9	81.1788	14,419.9	83.8918	14,419.9	77.4115	14,419.9	80.2039	14,419.9	73.2569	14,419.9	75.8598	14,419.9	69.3194	14,419.9	71.0233	14,419.9	65.5631	14,419.9	64.3046	14,419.9	62.0048	14,419.9	58.6601	14,419.9	50.3834	14,419.9	47.4631	14,419.9	57.5601	14,419.9	49.5655	14,419.9	49.4167	14,419.9	48.0726	14,419.9	48.9999	14,419.9	40.6754	14,419.9	52.208	14,419.9	54.1245	14,419.9	46.7588	14,419.9	48.1084	14,419.9	41.6894	14,419.9	47.6234	14,419.9	55.9695	14,419.9	46.7508	14,419.9	43.7849
14,928.2	89.0498	14,928.2	88.0851	14,928.2	89.1977	14,928.2	86.2888	14,928.2	88.177	14,928.2	83.1692	14,928.2	86.3096	14,928.2	80.0268	14,928.2	83.4608	14,928.2	76.1273	14,928.2	79.724	14,928.2	71.7527	14,928.2	75.658	14,928.2	67.8042	14,928.2	70.7954	14,928.2	63.0881	14,928.2	65.3715	14,928.2	60.0878	14,928.2	61.4921	14,928.2	47.3995	14,928.2	51.1398	14,928.2	55.4796	14,928.2	49.4353	14,928.2	48.1022	14,928.2	48.6737	14,928.2	46.5866	14,928.2	40.6813	14,928.2	48.3512	14,928.2	52.0542	14,928.2	40.7693	14,928.2	49.7343	14,928.2	47.4179	14,928.2	52.368	14,928.2	57.8509	14,928.2	46.7281	14,928.2	52.0783
15,454.8	88.406	15,454.8	87.1876	15,454.8	88.4847	15,454.8	85.0083	15,454.8	87.2107	15,454.8	81.2064	15,454.8	84.9874	15,454.8	77.1045	15,454.8	81.5753	15,454.8	72.0159	15,454.8	77.2407	15,454.8	66.6494	15,454.8	72.199	15,454.8	59.478	15,454.8	65.9227	15,454.8	50.4838	15,454.8	61.6046	15,454.8	49.1051	15,454.8	58.3388	15,454.8	30.3326	15,454.8	53.6542	15,454.8	48.2914	15,454.8	52.5052	15,454.8	40.5559	15,454.8	45.4757	15,454.8	39.7067	15,454.8	43.1208	15,454.8	47.1233	15,454.8	43.7155	15,454.8	36.875	15,454.8	52.2467	15,454.8	49.6846	15,454.8	52.2049	15,454.8	54.9065	15,454.8	50.1431	15,454.8	53.3369
15,999.8	86.7048	15,999.8	85.4562	15,999.8	86.6887	15,999.8	82.8829	15,999.8	85.3947	15,999.8	78.6405	15,999.8	82.8708	15,999.8	73.4994	15,999.8	78.8987	15,999.8	66.5459	15,999.8	73.5399	15,999.8	59.5403	15,999.8	66.6569	15,999.8	47.7543	15,999.8	60.2349	15,999.8	51.6537	15,999.8	57.4272	15,999.8	37.8814	15,999.8	59.242	15,999.8	44.993	15,999.8	56.9395	15,999.8	38.3408	15,999.8	51.4941	15,999.8	43.0724	15,999.8	48.3282	15,999.8	38.0051	15,999.8	47.0166	15,999.8	49.2333	15,999.8	40.409	15,999.8	37.345	15,999.8	52.8719	15,999.8	47.1648	15,999.8	50.8163	15,999.8	50.5276	15,999.8	45.9903	15,999.8	51.3593
16,564.5	84.8338	16,564.5	83.5865	16,564.5	84.8389	16,564.5	80.8913	16,564.5	83.3602	16,564.5	75.8448	16,564.5	80.4373	16,564.5	69.4055	16,564.5	75.8156	16,564.5	61.5719	16,564.5	69.241	16,564.5	48.7569	16,564.5	60.9685	16,564.5	53.0557	16,564.5	53.5732	16,564.5	54.6371	16,564.5	58.2864	16,564.5	45.9017	16,564.5	60.945	16,564.5	48.1833	16,564.5	58.6898	16,564.5	47.245	16,564.5	54.1434	16,564.5	41.9549	16,564.5	48.5067	16,564.5	42.0614	16,564.5	48.0969	16,564.5	49.9442	16,564.5	49.89	16,564.5	42.6161	16,564.5	45.3015	16,564.5	45.0936	16,564.5	47.0775	16,564.5	48.9646	16,564.5	50.4152	16,564.5	51.1079
17,148.2	86.9286	17,148.2	85.394	17,148.2	86.7745	17,148.2	82.5317	17,148.2	84.6862	17,148.2	77.3575	17,148.2	81.295	17,148.2	71.3413	17,148.2	76.2294	17,148.2	64.9022	17,148.2	69.5217	17,148.2	58.1149	17,148.2	61.5503	17,148.2	36.7133	17,148.2	51.5058	17,148.2	33.4637	17,148.2	54.8214	17,148.2	30.7389	17,148.2	56.2297	17,148.2	43.6282	17,148.2	55.3723	17,148.2	44.6279	17,148.2	53.6415	17,148.2	36.7303	17,148.2	41.7837	17,148.2	32.4366	17,148.2	45.9651	17,148.2	51.064	17,148.2	46.4922	17,148.2	41.9485	17,148.2	47.942	17,148.2	44.2724	17,148.2	52.8058	17,148.2	54.4115	17,148.2	52.6365	17,148.2	48.5087
17,753.2	86.8901	17,753.2	85.1037	17,753.2	86.7468	17,753.2	81.8124	17,753.2	84.516	17,753.2	75.7379	17,753.2	80.512	17,753.2	68.6578	17,753.2	75.095	17,753.2	62.8325	17,753.2	67.9498	17,753.2	59.2258	17,753.2	62.8533	17,753.2	53.8712	17,753.2	57.8232	17,753.2	50.4277	17,753.2	58.7447	17,753.2	41.2748	17,753.2	56.265	17,753.2	43.5702	17,753.2	54.9507	17,753.2	32.0156	17,753.2	49.7066	17,753.2	27.2817	17,753.2	45.3875	17,753.2	35.6061	17,753.2	46.4368	17,753.2	51.1146	17,753.2	47.0835	17,753.2	31.1154	17,753.2	49.3009	17,753.2	46.1997	17,753.2	53.3568	17,753.2	52.1955	17,753.2	43.5147	17,753.2	32.2671
18,379.4	84.9257	18,379.4	83.0775	18,379.4	84.7861	18,379.4	79.4313	18,379.4	82.1873	18,379.4	71.9758	18,379.4	77.867	18,379.4	64.675	18,379.4	71.5648	18,379.4	60.8208	18,379.4	64.9455	18,379.4	57.3706	18,379.4	61.156	18,379.4	53.6439	18,379.4	57.2947	18,379.4	45.4878	18,379.4	58.8597	18,379.4	37.7276	18,379.4	55.5666	18,379.4	45.4818	18,379.4	53.2389	18,379.4	25.2784	18,379.4	48.1119	18,379.4	37.4972	18,379.4	43.199	18,379.4	30.8682	18,379.4	45.2655	18,379.4	48.4019	18,379.4	39.4622	18,379.4	23.2855	18,379.4	40.9381	18,379.4	42.646	18,379.4	51.5372	18,379.4	49.3335	18,379.4	46.0278	18,379.4	38.0531
19,027.6	83.9329	19,027.6	81.7863	19,027.6	83.7827	19,027.6	77.5697	19,027.6	80.7828	19,027.6	68.4487	19,027.6	75.7841	19,027.6	60.8868	19,027.6	68.3186	19,027.6	58.5523	19,027.6	62.7815	19,027.6	56.9396	19,027.6	60.076	19,027.6	52.0312	19,027.6	57.2137	19,027.6	40.6139	19,027.6	57.6636	19,027.6	40.2232	19,027.6	53.0617	19,027.6	42.8657	19,027.6	47.3095	19,027.6	30.1538	19,027.6	48.8377	19,027.6	41.4697	19,027.6	42.3707	19,027.6	34.8007	19,027.6	45.5746	19,027.6	46.7388	19,027.6	41.8628	19,027.6	25.0558	19,027.6	35.9918	19,027.6	40.2891	19,027.6	50.607	19,027.6	47.8748	19,027.6	47.1631	19,027.6	43.1359
19,698.5	83.2677	19,698.5	80.7464	19,698.5	83.111	19,698.5	75.8424	19,698.5	79.7292	19,698.5	65.6347	19,698.5	74.0246	19,698.5	60.8436	19,698.5	65.7469	19,698.5	58.4405	19,698.5	62.7682	19,698.5	54.067	19,698.5	61.1631	19,698.5	50.0549	19,698.5	58.1315	19,698.5	48.9548	19,698.5	58.7437	19,698.5	43.8105	19,698.5	53.1288	19,698.5	48.4665	19,698.5	47.5762	19,698.5	39.2267	19,698.5	47.4184	19,698.5	44.6765	19,698.5	43.0714	19,698.5	39.628	19,698.5	45.7205	19,698.5	51.7206	19,698.5	48.7952	19,698.5	30.1719	19,698.5	43.5493	19,698.5	42.6973	19,698.5	49.2286	19,698.5	49.6931	19,698.5	48.9662	19,698.5	47.9033
19,999.5	82.4299	19,999.5	79.8405	19,999.5	82.523	19,999.5	74.7562	19,999.5	78.9216	19,999.5	63.9999	19,999.5	73.0451	19,999.5	60.9678	19,999.5	64.4803	19,999.5	58.8031	19,999.5	62.6216	19,999.5	53.4677	19,999.5	60.8354	19,999.5	46.5091	19,999.5	58.0728	19,999.5	50.7919	19,999.5	59.0481	19,999.5	41.344	19,999.5	53.3396	19,999.5	51.1898	19,999.5	47.0267	19,999.5	39.4656	19,999.5	46.5592	19,999.5	44.3908	19,999.5	42.4809	19,999.5	43.2263	19,999.5	46.0117	19,999.5	52.5183	19,999.5	51.3844	19,999.5	35.4939	19,999.5	43.2437	19,999.5	37.0684	19,999.5	47.7453	19,999.5	50.5053	19,999.5	48.8591	19,999.5	50.6402
