"SPL Vertical"																																																																							
"On-Axis"		"10°"		"-10°"		"20°"		"-20°"		"30°"		"-30°"		"40°"		"-40°"		"50°"		"-50°"		"60°"		"-60°"		"70°"		"-70°"		"80°"		"-80°"		"90°"		"-90°"		"100°"		"-100°"		"110°"		"-110°"		"120°"		"-120°"		"130°"		"-130°"		"140°"		"-140°"		"150°"		"-150°"		"160°"		"-160°"		"170°"		"-170°"		"180°"	
"Frequency [Hz]"	"Sound Pessure Level [dB]  / [2.83V 1m] "	"Frequency [Hz]"	"Sound Pessure Level [dB]  / [2.83V 1m] "	"Frequency [Hz]"	"Sound Pessure Level [dB]  / [2.83V 1m] "	"Frequency [Hz]"	"Sound Pessure Level [dB]  / [2.83V 1m] "	"Frequency [Hz]"	"Sound Pessure Level [dB]  / [2.83V 1m] "	"Frequency [Hz]"	"Sound Pessure Level [dB]  / [2.83V 1m] "	"Frequency [Hz]"	"Sound Pessure Level [dB]  / [2.83V 1m] "	"Frequency [Hz]"	"Sound Pessure Level [dB]  / [2.83V 1m] "	"Frequency [Hz]"	"Sound Pessure Level [dB]  / [2.83V 1m] "	"Frequency [Hz]"	"Sound Pessure Level [dB]  / [2.83V 1m] "	"Frequency [Hz]"	"Sound Pessure Level [dB]  / [2.83V 1m] "	"Frequency [Hz]"	"Sound Pessure Level [dB]  / [2.83V 1m] "	"Frequency [Hz]"	"Sound Pessure Level [dB]  / [2.83V 1m] "	"Frequency [Hz]"	"Sound Pessure Level [dB]  / [2.83V 1m] "	"Frequency [Hz]"	"Sound Pessure Level [dB]  / [2.83V 1m] "	"Frequency [Hz]"	"Sound Pessure Level [dB]  / [2.83V 1m] "	"Frequency [Hz]"	"Sound Pessure Level [dB]  / [2.83V 1m] "	"Frequency [Hz]"	"Sound Pessure Level [dB]  / [2.83V 1m] "	"Frequency [Hz]"	"Sound Pessure Level [dB]  / [2.83V 1m] "	"Frequency [Hz]"	"Sound Pessure Level [dB]  / [2.83V 1m] "	"Frequency [Hz]"	"Sound Pessure Level [dB]  / [2.83V 1m] "	"Frequency [Hz]"	"Sound Pessure Level [dB]  / [2.83V 1m] "	"Frequency [Hz]"	"Sound Pessure Level [dB]  / [2.83V 1m] "	"Frequency [Hz]"	"Sound Pessure Level [dB]  / [2.83V 1m] "	"Frequency [Hz]"	"Sound Pessure Level [dB]  / [2.83V 1m] "	"Frequency [Hz]"	"Sound Pessure Level [dB]  / [2.83V 1m] "	"Frequency [Hz]"	"Sound Pessure Level [dB]  / [2.83V 1m] "	"Frequency [Hz]"	"Sound Pessure Level [dB]  / [2.83V 1m] "	"Frequency [Hz]"	"Sound Pessure Level [dB]  / [2.83V 1m] "	"Frequency [Hz]"	"Sound Pessure Level [dB]  / [2.83V 1m] "	"Frequency [Hz]"	"Sound Pessure Level [dB]  / [2.83V 1m] "	"Frequency [Hz]"	"Sound Pessure Level [dB]  / [2.83V 1m] "	"Frequency [Hz]"	"Sound Pessure Level [dB]  / [2.83V 1m] "	"Frequency [Hz]"	"Sound Pessure Level [dB]  / [2.83V 1m] "	"Frequency [Hz]"	"Sound Pessure Level [dB]  / [2.83V 1m] "	"Frequency [Hz]"	"Sound Pessure Level [dB]  / [2.83V 1m] "
20.5078	65.5107	20.5078	65.5986	20.5078	65.4979	20.5078	65.7607	20.5078	65.5626	20.5078	65.9956	20.5078	65.7086	20.5078	66.3014	20.5078	65.9405	20.5078	66.6744	20.5078	66.2625	20.5078	67.1082	20.5078	66.6762	20.5078	67.5942	20.5078	67.1774	20.5078	68.1212	20.5078	67.7549	20.5078	68.676	20.5078	68.3893	20.5078	69.2439	20.5078	69.0544	20.5078	69.809	20.5078	69.7201	20.5078	70.3547	20.5078	70.3556	20.5078	70.8637	20.5078	70.9324	20.5078	71.3189	20.5078	71.4262	20.5078	71.7033	20.5078	71.8183	20.5078	72.0013	20.5078	72.0958	20.5078	72.1989	20.5078	72.2518	20.5078	72.285
21.2402	67.2241	21.2402	67.2432	21.2402	67.2512	21.2402	67.312	21.2402	67.323	21.2402	67.4354	21.2402	67.4409	21.2402	67.6179	21.2402	67.6088	21.2402	67.863	21.2402	67.8332	21.2402	68.1714	21.2402	68.121	21.2402	68.5403	21.2402	68.4774	21.2402	68.9631	21.2402	68.9027	21.2402	69.4291	21.2402	69.3898	21.2402	69.9246	21.2402	69.9228	21.2402	70.433	21.2402	70.4779	21.2402	70.9357	21.2402	71.0266	21.2402	71.4134	21.2402	71.539	21.2402	71.8465	21.2402	71.9875	21.2402	72.216	21.2402	72.3495	21.2402	72.5047	21.2402	72.6084	21.2402	72.6975	21.2402	72.7541	21.2402	72.7831
21.9727	68.3959	21.9727	68.3666	21.9727	68.4528	21.9727	68.3701	21.9727	68.5342	21.9727	68.4133	21.9727	68.6403	21.9727	68.5038	21.9727	68.7739	21.9727	68.6489	21.9727	68.9409	21.9727	68.854	21.9727	69.1494	21.9727	69.1213	21.9727	69.4075	21.9727	69.449	21.9727	69.7214	21.9727	69.8302	21.9727	70.0918	21.9727	70.2536	21.9727	70.5111	21.9727	70.7035	21.9727	70.963	21.9727	71.1614	21.9727	71.4234	21.9727	71.6064	21.9727	71.864	21.9727	72.0176	21.9727	72.2567	21.9727	72.3741	21.9727	72.5767	21.9727	72.6574	21.9727	72.805	21.9727	72.8514	21.9727	72.9294	21.9727	72.9444
22.7051	68.7794	22.7051	68.7038	22.7051	68.8656	22.7051	68.645	22.7051	68.9585	22.7051	68.611	22.7051	69.0571	22.7051	68.6115	22.7051	69.1633	22.7051	68.6568	22.7051	69.2818	22.7051	68.7565	22.7051	69.4204	22.7051	68.9179	22.7051	69.589	22.7051	69.1447	22.7051	69.7975	22.7051	69.4352	22.7051	70.053	22.7051	69.7816	22.7051	70.3563	22.7051	70.1702	22.7051	70.6991	22.7051	70.5821	22.7051	71.0637	22.7051	70.9956	22.7051	71.4252	22.7051	71.3873	22.7051	71.7555	22.7051	71.7343	22.7051	72.0283	22.7051	72.0158	22.7051	72.2217	22.7051	72.2148	22.7051	72.321	22.7051	72.3187
23.4375	68.201	23.4375	68.0546	23.4375	68.3328	23.4375	67.9003	23.4375	68.4453	23.4375	67.7472	23.4375	68.5359	23.4375	67.6065	23.4375	68.6041	23.4375	67.4913	23.4375	68.6525	23.4375	67.4169	23.4375	68.6868	23.4375	67.3983	23.4375	68.7168	23.4375	67.449	23.4375	68.7556	23.4375	67.5775	23.4375	68.8187	23.4375	67.7848	23.4375	68.9196	23.4375	68.0625	23.4375	69.066	23.4375	68.3931	23.4375	69.2547	23.4375	68.7522	23.4375	69.4704	23.4375	69.1119	23.4375	69.6882	23.4375	69.4438	23.4375	69.879	23.4375	69.7228	23.4375	70.0153	23.4375	69.9288	23.4375	70.0759	23.4375	70.0483
24.1699	67.3268	24.1699	67.1141	24.1699	67.5005	24.1699	66.8673	24.1699	67.6308	24.1699	66.5925	24.1699	67.7142	24.1699	66.2978	24.1699	67.7478	24.1699	65.9932	24.1699	67.7301	24.1699	65.6923	24.1699	67.6616	24.1699	65.4124	24.1699	67.5461	24.1699	65.174	24.1699	67.3916	24.1699	64.9997	24.1699	67.2116	24.1699	64.9094	24.1699	67.0245	24.1699	64.9157	24.1699	66.8515	24.1699	65.0183	24.1699	66.7116	24.1699	65.2026	24.1699	66.6153	24.1699	65.4414	24.1699	66.5593	24.1699	65.7019	24.1699	66.5272	24.1699	65.9518	24.1699	66.4939	24.1699	66.1654	24.1699	66.4337	24.1699	66.3272
25.6348	55.3228	25.6348	54.4852	25.6348	55.9264	25.6348	53.4342	25.6348	56.296	25.6348	52.2643	25.6348	56.433	25.6348	51.2632	25.6348	56.3372	25.6348	50.9794	25.6348	56.0114	25.6348	51.7947	25.6348	55.4791	25.6348	53.3909	25.6348	54.8268	25.6348	55.209	25.6348	54.2807	25.6348	56.9378	25.6348	54.2338	25.6348	58.4737	25.6348	54.9829	25.6348	59.7974	25.6348	56.3672	25.6348	60.9138	25.6348	57.9691	25.6348	61.8311	25.6348	59.4874	25.6348	62.5545	25.6348	60.7904	25.6348	63.0849	25.6348	61.838	25.6348	63.4192	25.6348	62.6269	25.6348	63.5508	25.6348	63.1668	25.6348	63.4705
26.3672	53.5661	26.3672	54.4345	26.3672	52.9534	26.3672	55.5156	26.3672	52.6372	26.3672	56.7484	26.3672	52.6887	26.3672	58.0636	26.3672	53.2097	26.3672	59.3997	26.3672	54.254	26.3672	60.7114	26.3672	55.7414	26.3672	61.9689	26.3672	57.4878	26.3672	63.1543	26.3672	59.3082	26.3672	64.2567	26.3672	61.0747	26.3672	65.2687	26.3672	62.7142	26.3672	66.1843	26.3672	64.1892	26.3672	66.9971	26.3672	65.4815	26.3672	67.6999	26.3672	66.583	26.3672	68.284	26.3672	67.4908	26.3672	68.7399	26.3672	68.2057	26.3672	69.057	26.3672	68.7305	26.3672	69.2246	26.3672	69.0705	26.3672	69.2324
27.0996	62.8667	27.0996	63.0618	27.0996	62.7548	27.0996	63.3479	27.0996	62.7234	27.0996	63.7326	27.0996	62.7799	27.0996	64.2176	27.0996	62.9436	27.0996	64.7965	27.0996	63.2425	27.0996	65.4544	27.0996	63.7033	27.0996	66.1705	27.0996	64.3376	27.0996	66.9212	27.0996	65.131	27.0996	67.6828	27.0996	66.0422	27.0996	68.4328	27.0996	67.0143	27.0996	69.1509	27.0996	67.988	27.0996	69.818	27.0996	68.9113	27.0996	70.4169	27.0996	69.7438	27.0996	70.9308	27.0996	70.4565	27.0996	71.3441	27.0996	71.0306	27.0996	71.6424	27.0996	71.455	27.0996	71.8124	27.0996	71.7255	27.0996	71.8429
27.832	65.5728	27.832	65.6343	27.832	65.5566	27.832	65.7523	27.832	65.5796	27.832	65.9402	27.832	65.6438	27.832	66.21	27.832	65.76	27.832	66.5687	27.832	65.9476	27.832	67.0155	27.832	66.2307	27.832	67.5412	27.832	66.6311	27.832	68.1295	27.832	67.1587	27.832	68.7592	27.832	67.8035	27.832	69.4069	27.832	68.5348	27.832	70.0486	27.832	69.308	27.832	70.6615	27.832	70.0738	27.832	71.2237	27.832	70.7874	27.832	71.7152	27.832	71.4125	27.832	72.1173	27.832	71.9227	27.832	72.4136	27.832	72.3012	27.832	72.5896	27.832	72.539	27.832	72.6341
29.2969	67.8189	29.2969	67.7683	29.2969	67.876	29.2969	67.7357	29.2969	67.9323	29.2969	67.7364	29.2969	67.9863	29.2969	67.7871	29.2969	68.0423	29.2969	67.9045	29.2969	68.1117	29.2969	68.1015	29.2969	68.213	29.2969	68.3843	29.2969	68.3695	29.2969	68.7506	29.2969	68.6054	29.2969	69.1887	29.2969	68.9375	29.2969	69.6794	29.2969	69.367	29.2969	70.1985	29.2969	69.8755	29.2969	70.7193	29.2969	70.4277	29.2969	71.2151	29.2969	70.9801	29.2969	71.6606	29.2969	71.4899	29.2969	72.033	29.2969	71.9211	29.2969	72.3123	29.2969	72.2478	29.2969	72.4826	29.2969	72.4538	29.2969	72.5319
30.0293	67.9615	30.0293	67.8842	30.0293	68.0358	30.0293	67.8157	30.0293	68.0994	30.0293	67.7719	30.0293	68.1503	30.0293	67.7711	30.0293	68.1918	30.0293	67.8325	30.0293	68.2344	30.0293	67.9725	30.0293	68.2957	30.0293	68.2016	30.0293	68.4001	30.0293	68.5212	30.0293	68.5745	30.0293	68.9222	30.0293	68.8413	30.0293	69.3863	30.0293	69.2089	30.0293	69.8883	30.0293	69.665	30.0293	70.3999	30.0293	70.1777	30.0293	70.8921	30.0293	70.7034	30.0293	71.3377	30.0293	71.1966	30.0293	71.712	30.0293	71.6184	30.0293	71.994	30.0293	71.94	30.0293	72.167	30.0293	72.143	30.0293	72.2188
31.4941	68.9515	31.4941	68.8658	31.4941	69.0331	31.4941	68.7868	31.4941	69.1036	31.4941	68.7291	31.4941	69.1604	31.4941	68.7095	31.4941	69.206	31.4941	68.7459	31.4941	69.2489	31.4941	68.8545	31.4941	69.3038	31.4941	69.0464	31.4941	69.3914	31.4941	69.325	31.4941	69.536	31.4941	69.6838	31.4941	69.7591	31.4941	70.1073	31.4941	70.0717	31.4941	70.5724	31.4941	70.4675	31.4941	71.0522	31.4941	70.9212	31.4941	71.5183	31.4941	71.3947	31.4941	71.9432	31.4941	71.8458	31.4941	72.3023	31.4941	72.236	31.4941	72.5743	31.4941	72.5357	31.4941	72.7423	31.4941	72.7251	31.4941	72.7945
32.2266	69.6889	32.2266	69.6004	32.2266	69.7725	32.2266	69.5166	32.2266	69.8447	32.2266	69.4504	32.2266	69.9031	32.2266	69.4171	32.2266	69.9495	32.2266	69.433	32.2266	69.9908	32.2266	69.5133	32.2266	70.0393	32.2266	69.6696	32.2266	70.1129	32.2266	69.9068	32.2266	70.2328	32.2266	70.2214	32.2266	70.4191	32.2266	70.6007	32.2266	70.6841	32.2266	71.0246	32.2266	71.0254	32.2266	71.4681	32.2266	71.4237	32.2266	71.9038	32.2266	71.8464	32.2266	72.3049	32.2266	72.2547	32.2266	72.6465	32.2266	72.6116	32.2266	72.9071	32.2266	72.8873	32.2266	73.0698	32.2266	73.0614	32.2266	73.123
33.6914	70.8776	33.6914	70.7843	33.6914	70.9636	33.6914	70.6917	33.6914	71.0367	33.6914	70.6105	33.6914	71.0943	33.6914	70.5537	33.6914	71.1375	33.6914	70.5351	33.6914	71.171	33.6914	70.5689	33.6914	71.2041	33.6914	70.6668	33.6914	71.2508	33.6914	70.8359	33.6914	71.3287	33.6914	71.0765	33.6914	71.4559	33.6914	71.3811	33.6914	71.6462	33.6914	71.7342	33.6914	71.9023	33.6914	72.1145	33.6914	72.2131	33.6914	72.4972	33.6914	72.5538	33.6914	72.8564	33.6914	72.8914	33.6914	73.1675	33.6914	73.192	33.6914	73.4088	33.6914	73.4261	33.6914	73.5633	33.6914	73.5727	33.6914	73.6195
34.4238	71.2901	34.4238	71.1898	34.4238	71.3812	34.4238	71.0882	34.4238	71.4581	34.4238	70.9951	34.4238	71.5182	34.4238	70.9224	34.4238	71.562	34.4238	70.8835	34.4238	71.5931	34.4238	70.8919	34.4238	71.6197	34.4238	70.9597	34.4238	71.6539	34.4238	71.0948	34.4238	71.7115	34.4238	71.2995	34.4238	71.8098	34.4238	71.5681	34.4238	71.9625	34.4238	71.8875	34.4238	72.175	34.4238	72.238	34.4238	72.4397	34.4238	72.5958	34.4238	72.7361	34.4238	72.9357	34.4238	73.0345	34.4238	73.2332	34.4238	73.303	34.4238	73.4667	34.4238	73.5127	34.4238	73.619	34.4238	73.6423	34.4238	73.679
35.8887	71.9048	35.8887	71.8022	35.8887	71.9974	35.8887	71.6965	35.8887	72.0751	35.8887	71.5969	35.8887	72.1352	35.8887	71.5142	35.8887	72.1776	35.8887	71.4607	35.8887	72.2053	35.8887	71.449	35.8887	72.2249	35.8887	71.4908	35.8887	72.2468	35.8887	71.5947	35.8887	72.2853	35.8887	71.7639	35.8887	72.3561	35.8887	71.9951	35.8887	72.4732	35.8887	72.2774	35.8887	72.6439	35.8887	72.5934	35.8887	72.864	35.8887	72.921	35.8887	73.117	35.8887	73.2361	35.8887	73.3768	35.8887	73.5147	35.8887	73.6137	35.8887	73.7357	35.8887	73.7999	35.8887	73.882	35.8887	73.9139	35.8887	73.9427
37.3535	72.618	37.3535	72.5174	37.3535	72.7093	37.3535	72.414	37.3535	72.7869	37.3535	72.3159	37.3535	72.8482	37.3535	72.2327	37.3535	72.8929	37.3535	72.1755	37.3535	72.9231	37.3535	72.1556	37.3535	72.9445	37.3535	72.1837	37.3535	72.9659	37.3535	72.2681	37.3535	72.9994	37.3535	72.4126	37.3535	73.0591	37.3535	72.6152	37.3535	73.1577	37.3535	72.8671	37.3535	73.3023	37.3535	73.1532	37.3535	73.4907	37.3535	73.4536	37.3535	73.7093	37.3535	73.7457	37.3535	73.9358	37.3535	74.007	37.3535	74.1431	37.3535	74.2168	37.3535	74.3056	37.3535	74.3587	37.3535	74.4028	37.3535	74.4219
38.8184	73.3919	38.8184	73.2943	38.8184	73.4823	38.8184	73.1951	38.8184	73.5613	38.8184	73.1015	38.8184	73.6265	38.8184	73.0221	38.8184	73.6775	38.8184	72.9665	38.8184	73.7158	38.8184	72.9447	38.8184	73.7459	38.8184	72.9662	38.8184	73.7751	38.8184	73.0386	38.8184	73.8131	38.8184	73.1656	38.8184	73.8716	38.8184	73.3463	38.8184	73.9613	38.8184	73.5733	38.8184	74.0883	38.8184	73.8337	38.8184	74.2513	38.8184	74.1098	38.8184	74.4395	38.8184	74.3811	38.8184	74.6338	38.8184	74.6264	38.8184	74.8109	38.8184	74.8265	38.8184	74.9478	38.8184	74.9654	38.8184	75.0258	38.8184	75.033
39.5508	73.8215	39.5508	73.7276	39.5508	73.9091	39.5508	73.6325	39.5508	73.9864	39.5508	73.5431	39.5508	74.0512	39.5508	73.467	39.5508	74.1027	39.5508	73.4131	39.5508	74.1423	39.5508	73.3906	39.5508	74.1738	39.5508	73.4082	39.5508	74.2036	39.5508	73.4731	39.5508	74.2406	39.5508	73.589	39.5508	74.2952	39.5508	73.7552	39.5508	74.3773	39.5508	73.9657	39.5508	74.4929	39.5508	74.2087	39.5508	74.6411	39.5508	74.4679	39.5508	74.8126	39.5508	74.7241	39.5508	74.9901	39.5508	74.9572	39.5508	75.1521	39.5508	75.1485	39.5508	75.2769	39.5508	75.2827	39.5508	75.3467	39.5508	75.3499
41.0156	74.7356	41.0156	74.6454	41.0156	74.8215	41.0156	74.5553	41.0156	74.8996	41.0156	74.471	41.0156	74.9679	41.0156	74.399	41.0156	75.0255	41.0156	74.3467	41.0156	75.0733	41.0156	74.322	41.0156	75.114	41.0156	74.3324	41.0156	75.1524	41.0156	74.3842	41.0156	75.1951	41.0156	74.4812	41.0156	75.2503	41.0156	74.6238	41.0156	75.3256	41.0156	74.8074	41.0156	75.4258	41.0156	75.0228	41.0156	75.5505	41.0156	75.2561	41.0156	75.6923	41.0156	75.4905	41.0156	75.837	41.0156	75.7075	41.0156	75.9668	41.0156	75.89	41.0156	76.0629	41.0156	76.0233	41.0156	76.11	41.0156	76.0979
42.4805	75.4701	42.4805	75.3784	42.4805	75.5591	42.4805	75.2883	42.4805	75.6424	42.4805	75.2045	42.4805	75.7177	42.4805	75.133	42.4805	75.7838	42.4805	75.08	42.4805	75.8408	42.4805	75.0523	42.4805	75.8902	42.4805	75.0567	42.4805	75.9353	42.4805	75.0989	42.4805	75.9812	42.4805	75.1825	42.4805	76.0341	42.4805	75.3082	42.4805	76.1003	42.4805	75.4728	42.4805	76.1842	42.4805	75.6683	42.4805	76.286	42.4805	75.8828	42.4805	76.4004	42.4805	76.1009	42.4805	76.5161	42.4805	76.3059	42.4805	76.6181	42.4805	76.4815	42.4805	76.6902	42.4805	76.614	42.4805	76.7186	42.4805	76.6942
43.9453	76.3458	43.9453	76.2599	43.9453	76.4304	43.9453	76.1761	43.9453	76.5108	43.9453	76.0988	43.9453	76.5851	43.9453	76.0326	43.9453	76.6518	43.9453	75.983	43.9453	76.7107	43.9453	75.9558	43.9453	76.7627	43.9453	75.9566	43.9453	76.8101	43.9453	75.9905	43.9453	76.8566	43.9453	76.0612	43.9453	76.9072	43.9453	76.1695	43.9453	76.9669	43.9453	76.3134	43.9453	77.0395	43.9453	76.4864	43.9453	77.1253	43.9453	76.6784	43.9453	77.2201	43.9453	76.8761	43.9453	77.3147	43.9453	77.0643	43.9453	77.3963	43.9453	77.2281	43.9453	77.451	43.9453	77.3548	43.9453	77.4668	43.9453	77.4355
45.4102	76.8848	45.4102	76.8004	45.4102	76.9684	45.4102	76.7183	45.4102	77.0487	45.4102	76.6422	45.4102	77.1235	45.4102	76.5764	45.4102	77.1915	45.4102	76.5255	45.4102	77.252	45.4102	76.4947	45.4102	77.3053	45.4102	76.489	45.4102	77.3528	45.4102	76.5132	45.4102	77.3972	45.4102	76.5707	45.4102	77.4425	45.4102	76.6629	45.4102	77.4927	45.4102	76.7882	45.4102	77.5512	45.4102	76.9416	45.4102	77.6189	45.4102	77.1143	45.4102	77.6926	45.4102	77.2944	45.4102	77.7651	45.4102	77.4683	45.4102	77.8258	45.4102	77.6223	45.4102	77.8627	45.4102	77.7445	45.4102	77.8654	45.4102	77.8266
47.6074	77.7653	47.6074	77.6858	47.6074	77.8459	47.6074	77.6099	47.6074	77.9251	47.6074	77.5406	47.6074	78.0012	47.6074	77.481	47.6074	78.0723	47.6074	77.435	47.6074	78.1375	47.6074	77.4065	47.6074	78.1961	47.6074	77.3995	47.6074	78.2484	47.6074	77.4179	47.6074	78.296	47.6074	77.4645	47.6074	78.341	47.6074	77.541	47.6074	78.3865	47.6074	77.6466	47.6074	78.4347	47.6074	77.7776	47.6074	78.4866	47.6074	77.9273	47.6074	78.54	47.6074	78.0861	47.6074	78.5898	47.6074	78.2423	47.6074	78.6278	47.6074	78.384	47.6074	78.6447	47.6074	78.5006	47.6074	78.6321	47.6074	78.5845
49.0723	78.3661	49.0723	78.2889	49.0723	78.4454	49.0723	78.2162	49.0723	78.5249	49.0723	78.1503	49.0723	78.6026	49.0723	78.0941	49.0723	78.6769	49.0723	78.0507	49.0723	78.7464	49.0723	78.0233	49.0723	78.8101	49.0723	78.0156	49.0723	78.8676	49.0723	78.0309	49.0723	78.9196	49.0723	78.072	49.0723	78.9673	49.0723	78.1405	49.0723	79.0128	49.0723	78.2361	49.0723	79.0576	49.0723	78.3561	49.0723	79.1025	49.0723	78.4946	49.0723	79.1457	49.0723	78.6433	49.0723	79.1828	49.0723	78.7918	49.0723	79.2072	49.0723	78.9291	49.0723	79.2112	49.0723	79.0452	49.0723	79.1878	49.0723	79.1326
50.5371	78.8819	50.5371	78.8054	50.5371	78.9613	50.5371	78.734	50.5371	79.0419	50.5371	78.6697	50.5371	79.1218	50.5371	78.6148	50.5371	79.1991	50.5371	78.5719	50.5371	79.2722	50.5371	78.544	50.5371	79.3397	50.5371	78.534	50.5371	79.4005	50.5371	78.5451	50.5371	79.4546	50.5371	78.5797	50.5371	79.5024	50.5371	78.6396	50.5371	79.5452	50.5371	78.7249	50.5371	79.5841	50.5371	78.8334	50.5371	79.6197	50.5371	78.9605	50.5371	79.6507	50.5371	79.0988	50.5371	79.6738	50.5371	79.2393	50.5371	79.6838	50.5371	79.3717	50.5371	79.6744	50.5371	79.4868	50.5371	79.6401	50.5371	79.5776
52.7344	79.6844	52.7344	79.6109	52.7344	79.7623	52.7344	79.5434	52.7344	79.8429	52.7344	79.4836	52.7344	79.9245	52.7344	79.4332	52.7344	80.005	52.7344	79.394	52.7344	80.0823	52.7344	79.3681	52.7344	80.1546	52.7344	79.358	52.7344	80.22	52.7344	79.3659	52.7344	80.2773	52.7344	79.3941	52.7344	80.3262	52.7344	79.4443	52.7344	80.3668	52.7344	79.517	52.7344	80.3996	52.7344	79.6108	52.7344	80.4251	52.7344	79.7224	52.7344	80.4425	52.7344	79.846	52.7344	80.4497	52.7344	79.9742	52.7344	80.4433	52.7344	80.0982	52.7344	80.4188	52.7344	80.2099	52.7344	80.3726	52.7344	80.3027
54.1992	80.1511	54.1992	80.0799	54.1992	80.2277	54.1992	80.0152	54.1992	80.3079	54.1992	79.9584	54.1992	80.3901	54.1992	79.9108	54.1992	80.4721	54.1992	79.8739	54.1992	80.5517	54.1992	79.8494	54.1992	80.6267	54.1992	79.8392	54.1992	80.6948	54.1992	79.8453	54.1992	80.7542	54.1992	79.8697	54.1992	80.804	54.1992	79.9141	54.1992	80.8437	54.1992	79.9792	54.1992	80.8735	54.1992	80.0643	54.1992	80.8935	54.1992	80.1667	54.1992	80.9034	54.1992	80.2816	54.1992	80.9017	54.1992	80.4025	54.1992	80.8859	54.1992	80.5217	54.1992	80.8527	54.1992	80.6314	54.1992	80.7996	54.1992	80.7254
56.3965	80.7915	56.3965	80.7216	56.3965	80.8679	56.3965	80.6592	56.3965	80.9493	56.3965	80.6053	56.3965	81.034	56.3965	80.5607	56.3965	81.1198	56.3965	80.5264	56.3965	81.2042	56.3965	80.5035	56.3965	81.2844	56.3965	80.4936	56.3965	81.3576	56.3965	80.4981	56.3965	81.4215	56.3965	80.519	56.3965	81.4741	56.3965	80.5577	56.3965	81.5143	56.3965	80.6152	56.3965	81.5416	56.3965	80.6914	56.3965	81.556	56.3965	80.7845	56.3965	81.5572	56.3965	80.8908	56.3965	81.5445	56.3965	81.0049	56.3965	81.5165	56.3965	81.12	56.3965	81.4716	56.3965	81.2294	56.3965	81.4083	56.3965	81.3269
58.5938	81.4357	58.5938	81.3689	58.5938	81.5094	58.5938	81.3099	58.5938	81.5888	58.5938	81.2593	58.5938	81.6723	58.5938	81.2174	58.5938	81.7576	58.5938	81.1849	58.5938	81.842	58.5938	81.1623	58.5938	81.9225	58.5938	81.1507	58.5938	81.9959	58.5938	81.1513	58.5938	82.0591	58.5938	81.1655	58.5938	82.1097	58.5938	81.195	58.5938	82.146	58.5938	81.241	58.5938	82.1671	58.5938	81.304	58.5938	82.1728	58.5938	81.383	58.5938	82.1632	58.5938	81.4756	58.5938	82.1384	58.5938	81.5778	58.5938	82.0982	58.5938	81.6841	58.5938	82.0425	58.5938	81.7886	58.5938	81.9713	58.5938	81.8857
60.0586	81.854	60.0586	81.7875	60.0586	81.928	60.0586	81.7293	60.0586	82.0084	60.0586	81.6796	60.0586	82.0936	60.0586	81.6386	60.0586	82.1811	60.0586	81.6065	60.0586	82.2682	60.0586	81.5837	60.0586	82.3513	60.0586	81.5709	60.0586	82.4269	60.0586	81.5692	60.0586	82.4915	60.0586	81.5798	60.0586	82.5421	60.0586	81.6044	60.0586	82.5767	60.0586	81.6444	60.0586	82.5942	60.0586	81.7006	60.0586	82.5942	60.0586	81.7727	60.0586	82.5772	60.0586	81.859	60.0586	82.5439	60.0586	81.9561	60.0586	82.4949	60.0586	82.0593	60.0586	82.4308	60.0586	82.1632	60.0586	82.3527	60.0586	82.2624
62.2559	82.3674	62.2559	82.3009	62.2559	82.4423	62.2559	82.2434	62.2559	82.5246	62.2559	82.195	62.2559	82.6126	62.2559	82.1556	62.2559	82.7036	62.2559	82.1251	62.2559	82.7946	62.2559	82.1035	62.2559	82.8819	62.2559	82.0911	62.2559	82.9613	62.2559	82.0887	62.2559	83.0289	62.2559	82.0974	62.2559	83.0813	62.2559	82.1187	62.2559	83.116	62.2559	82.154	62.2559	83.1314	62.2559	82.2046	62.2559	83.1272	62.2559	82.2706	62.2559	83.1039	62.2559	82.3512	62.2559	83.0626	62.2559	82.4438	62.2559	83.0048	62.2559	82.5445	62.2559	82.932	62.2559	82.6485	62.2559	82.8464	62.2559	82.7507
64.4531	82.8358	64.4531	82.7708	64.4531	82.9098	64.4531	82.7151	64.4531	82.9918	64.4531	82.6688	64.4531	83.0802	64.4531	82.6314	64.4531	83.1723	64.4531	82.6025	64.4531	83.2648	64.4531	82.5819	64.4531	83.3539	64.4531	82.5694	64.4531	83.4353	64.4531	82.5657	64.4531	83.5045	64.4531	82.5716	64.4531	83.5579	64.4531	82.5886	64.4531	83.5922	64.4531	82.6181	64.4531	83.6058	64.4531	82.6618	64.4531	83.598	64.4531	82.7205	64.4531	83.5693	64.4531	82.7941	64.4531	83.5212	64.4531	82.8808	64.4531	83.4558	64.4531	82.9776	64.4531	83.3757	64.4531	83.0803	64.4531	83.2839	64.4531	83.184
66.6504	83.1902	66.6504	83.127	66.6504	83.2622	66.6504	83.0728	66.6504	83.3421	66.6504	83.0273	66.6504	83.4282	66.6504	82.9899	66.6504	83.518	66.6504	82.96	66.6504	83.6082	66.6504	82.937	66.6504	83.6947	66.6504	82.9207	66.6504	83.773	66.6504	82.9114	66.6504	83.8386	66.6504	82.9098	66.6504	83.8873	66.6504	82.9175	66.6504	83.9159	66.6504	82.9362	66.6504	83.9224	66.6504	82.968	66.6504	83.9061	66.6504	83.0146	66.6504	83.8679	66.6504	83.0765	66.6504	83.8097	66.6504	83.1532	66.6504	83.7345	66.6504	83.2426	66.6504	83.6457	66.6504	83.3412	66.6504	83.5475	66.6504	83.4444
69.5801	83.799	69.5801	83.7359	69.5801	83.8713	69.5801	83.6822	69.5801	83.9521	69.5801	83.6374	69.5801	84.0395	69.5801	83.6007	69.5801	84.1311	69.5801	83.5711	69.5801	84.2232	69.5801	83.548	69.5801	84.3116	69.5801	83.5308	69.5801	84.3915	69.5801	83.5196	69.5801	84.4581	69.5801	83.515	69.5801	84.5068	69.5801	83.5186	69.5801	84.5341	69.5801	83.5322	69.5801	84.5377	69.5801	83.5582	69.5801	84.5168	69.5801	83.5985	69.5801	84.4725	69.5801	83.6547	69.5801	84.407	69.5801	83.7267	69.5801	84.324	69.5801	83.8131	69.5801	84.2279	69.5801	83.911	69.5801	84.1235	69.5801	84.0161
71.7773	84.1038	71.7773	84.0393	71.7773	84.1778	71.7773	83.9842	71.7773	84.2603	71.7773	83.9382	71.7773	84.3496	71.7773	83.9005	71.7773	84.4428	71.7773	83.8699	71.7773	84.5365	71.7773	83.8455	71.7773	84.626	71.7773	83.8268	71.7773	84.7066	71.7773	83.8135	71.7773	84.7731	71.7773	83.8061	71.7773	84.8209	71.7773	83.8061	71.7773	84.8461	71.7773	83.8153	71.7773	84.8462	71.7773	83.8362	71.7773	84.8204	71.7773	83.8712	71.7773	84.7698	71.7773	83.9223	71.7773	84.697	71.7773	83.9903	71.7773	84.6061	71.7773	84.0743	71.7773	84.5024	71.7773	84.172	71.7773	84.3915	71.7773	84.2794
73.9746	84.507	73.9746	84.4414	73.9746	84.582	73.9746	84.3852	73.9746	84.6653	73.9746	84.3379	73.9746	84.7553	73.9746	84.2985	73.9746	84.8491	73.9746	84.266	73.9746	84.943	73.9746	84.2392	73.9746	85.0325	73.9746	84.2173	73.9746	85.1123	73.9746	84.2001	73.9746	85.1774	73.9746	84.1882	73.9746	85.2228	73.9746	84.1826	73.9746	85.2443	73.9746	84.1856	73.9746	85.2395	73.9746	84.1999	73.9746	85.2075	73.9746	84.2283	73.9746	85.1494	73.9746	84.2733	73.9746	85.0684	73.9746	84.3363	73.9746	84.9692	73.9746	84.4174	73.9746	84.8576	73.9746	84.5144	73.9746	84.7402	73.9746	84.6238
76.9043	84.9025	76.9043	84.8353	76.9043	84.9791	76.9043	84.7776	76.9043	85.0639	76.9043	84.7288	76.9043	85.1552	76.9043	84.6879	76.9043	85.25	76.9043	84.6536	76.9043	85.3444	76.9043	84.6247	76.9043	85.4336	76.9043	84.6002	76.9043	85.5123	76.9043	84.5797	76.9043	85.5752	76.9043	84.5635	76.9043	85.6172	76.9043	84.5528	76.9043	85.6342	76.9043	84.5499	76.9043	85.6235	76.9043	84.5575	76.9043	85.5844	76.9043	84.5791	76.9043	85.5184	76.9043	84.6176	76.9043	85.4289	76.9043	84.6752	76.9043	85.3214	76.9043	84.7525	76.9043	85.2023	76.9043	84.8482	76.9043	85.079	76.9043	84.9588
79.834	85.2575	79.834	85.1904	79.834	85.3343	79.834	85.1331	79.834	85.4198	79.834	85.0851	79.834	85.5122	79.834	85.0455	79.834	85.6088	79.834	85.0131	79.834	85.7058	79.834	84.9864	79.834	85.7988	79.834	84.9647	79.834	85.8825	79.834	84.9472	79.834	85.9516	79.834	84.9342	79.834	86.0006	79.834	84.9269	79.834	86.025	79.834	84.9272	79.834	86.0217	79.834	84.9381	79.834	85.989	79.834	84.963	79.834	85.9278	79.834	85.0048	79.834	85.8411	79.834	85.0661	79.834	85.7341	79.834	85.1474	79.834	85.6134	79.834	85.2475	79.834	85.4869	79.834	85.3625
82.7637	85.7505	82.7637	85.6889	82.7637	85.8186	82.7637	85.6338	82.7637	85.8925	82.7637	85.5844	82.7637	85.9706	82.7637	85.5396	82.7637	86.0504	82.7637	85.4981	82.7637	86.1286	82.7637	85.4585	82.7637	86.2008	82.7637	85.4197	82.7637	86.2622	82.7637	85.3813	82.7637	86.3076	82.7637	85.3438	82.7637	86.332	82.7637	85.3084	82.7637	86.3312	82.7637	85.2782	82.7637	86.3024	82.7637	85.2567	82.7637	86.2448	82.7637	85.2488	82.7637	86.1599	82.7637	85.2592	82.7637	86.052	82.7637	85.2922	82.7637	85.9274	82.7637	85.3501	82.7637	85.7943	82.7637	85.4333	82.7637	85.6619	82.7637	85.539
85.6934	86.1054	85.6934	86.0422	85.6934	86.173	85.6934	85.9833	85.6934	86.2442	85.6934	85.928	85.6934	86.3173	85.6934	85.8752	85.6934	86.3899	85.6934	85.8234	85.6934	86.4584	85.6934	85.7713	85.6934	86.5186	85.6934	85.7179	85.6934	86.5657	85.6934	85.6628	85.6934	86.5947	85.6934	85.6067	85.6934	86.6007	85.6934	85.5514	85.6934	86.58	85.6934	85.5004	85.6934	86.5304	85.6934	85.4582	85.6934	86.4516	85.6934	85.4302	85.6934	86.3462	85.6934	85.4223	85.6934	86.2193	85.6934	85.4397	85.6934	86.0783	85.6934	85.4859	85.6934	85.9325	85.6934	85.5619	85.6934	85.7918	85.6934	85.6656
88.623	86.2127	88.623	86.1473	88.623	86.2874	88.623	86.0913	88.623	86.3706	88.623	86.0439	88.623	86.4605	88.623	86.0039	88.623	86.5544	88.623	85.9696	88.623	86.6483	88.623	85.9396	88.623	86.7377	88.623	85.9125	88.623	86.8171	88.623	85.8875	88.623	86.8808	88.623	85.8648	88.623	86.9232	88.623	85.8456	88.623	86.9396	88.623	85.8321	88.623	86.9266	88.623	85.828	88.623	86.8827	88.623	85.8372	88.623	86.8091	88.623	85.8643	88.623	86.7093	88.623	85.9127	88.623	86.5895	88.623	85.9846	88.623	86.4577	88.623	86.0795	88.623	86.3229	88.623	86.1942
91.5527	86.2557	91.5527	86.1911	91.5527	86.3334	91.5527	86.1397	91.5527	86.4231	91.5527	86.1012	91.5527	86.5226	91.5527	86.0743	91.5527	86.629	91.5527	86.0572	91.5527	86.7385	91.5527	86.0481	91.5527	86.8463	91.5527	86.045	91.5527	86.947	91.5527	86.0465	91.5527	87.0347	91.5527	86.0517	91.5527	87.1034	91.5527	86.0611	91.5527	87.1477	91.5527	86.0759	91.5527	87.1631	91.5527	86.0986	91.5527	87.1471	91.5527	86.1325	91.5527	87.0996	91.5527	86.1811	91.5527	87.023	91.5527	86.2472	91.5527	86.9222	91.5527	86.3322	91.5527	86.8045	91.5527	86.4352	91.5527	86.6783	91.5527	86.5526
94.4824	86.7308	94.4824	86.6627	94.4824	86.8045	94.4824	86.6006	94.4824	86.8828	94.4824	86.5443	94.4824	86.9641	94.4824	86.4932	94.4824	87.0461	94.4824	86.4463	94.4824	87.1259	94.4824	86.4026	94.4824	87.1997	94.4824	86.361	94.4824	87.2633	94.4824	86.3212	94.4824	87.3117	94.4824	86.2833	94.4824	87.3399	94.4824	86.2489	94.4824	87.3435	94.4824	86.2204	94.4824	87.3187	94.4824	86.2017	94.4824	87.264	94.4824	86.1974	94.4824	87.18	94.4824	86.2125	94.4824	87.0701	94.4824	86.2514	94.4824	86.9405	94.4824	86.3168	94.4824	86.7998	94.4824	86.4089	94.4824	86.6578	94.4824	86.5247
98.1445	87.0652	98.1445	86.9924	98.1445	87.1417	98.1445	86.9237	98.1445	87.2207	98.1445	86.8588	98.1445	87.3006	98.1445	86.7971	98.1445	87.3788	98.1445	86.7375	98.1445	87.4525	98.1445	86.6789	98.1445	87.5176	98.1445	86.6204	98.1445	87.5699	98.1445	86.5616	98.1445	87.6046	98.1445	86.5032	98.1445	87.6168	98.1445	86.4471	98.1445	87.602	98.1445	86.3966	98.1445	87.5571	98.1445	86.3565	98.1445	87.4807	98.1445	86.3326	98.1445	87.3741	98.1445	86.3312	98.1445	87.2416	98.1445	86.3579	98.1445	87.0905	98.1445	86.4165	98.1445	86.9305	98.1445	86.5077	98.1445	86.7728	98.1445	86.6287
101.807	87.3024	101.807	87.2301	101.807	87.3783	101.807	87.1622	101.807	87.4567	101.807	87.0985	101.807	87.5359	101.807	87.0386	101.807	87.6136	101.807	86.9813	101.807	87.6867	101.807	86.9256	101.807	87.7518	101.807	86.8705	101.807	87.8046	101.807	86.8156	101.807	87.8407	101.807	86.7612	101.807	87.8551	101.807	86.7091	101.807	87.8434	101.807	86.6623	101.807	87.8024	101.807	86.6254	101.807	87.7304	101.807	86.6041	101.807	87.6284	101.807	86.6045	101.807	87.5004	101.807	86.6321	101.807	87.3535	101.807	86.6908	101.807	87.1971	101.807	86.7813	101.807	87.0425	101.807	86.9007
105.469	87.4416	105.469	87.3672	105.469	87.519	105.469	87.2966	105.469	87.5979	105.469	87.2299	105.469	87.6767	105.469	87.167	105.469	87.7532	105.469	87.1071	105.469	87.8247	105.469	87.0496	105.469	87.8881	105.469	86.9934	105.469	87.9397	105.469	86.9384	105.469	87.975	105.469	86.8851	105.469	87.9898	105.469	86.8351	105.469	87.9796	105.469	86.7914	105.469	87.941	105.469	86.7585	105.469	87.8722	105.469	86.7417	105.469	87.774	105.469	86.7468	105.469	87.6497	105.469	86.7791	105.469	87.506	105.469	86.8418	105.469	87.352	105.469	86.9353	105.469	87.1985	105.469	87.0564
109.131	87.6695	109.131	87.6076	109.131	87.7331	109.131	87.5482	109.131	87.7971	109.131	87.4917	109.131	87.86	109.131	87.4377	109.131	87.92	109.131	87.3857	109.131	87.9749	109.131	87.3348	109.131	88.0223	109.131	87.2841	109.131	88.0593	109.131	87.2331	109.131	88.0824	109.131	87.1821	109.131	88.0881	109.131	87.1323	109.131	88.0728	109.131	87.0865	109.131	88.0335	109.131	87.0486	109.131	87.9688	109.131	87.0238	109.131	87.879	109.131	87.0176	109.131	87.7676	109.131	87.0351	109.131	87.6403	109.131	87.0801	109.131	87.5056	109.131	87.1535	109.131	87.3733	109.131	87.2532
112.793	87.9565	112.793	87.887	112.793	88.0267	112.793	87.8195	112.793	88.0961	112.793	87.7546	112.793	88.1627	112.793	87.6922	112.793	88.2245	112.793	87.6321	112.793	88.2792	112.793	87.5733	112.793	88.3243	112.793	87.515	112.793	88.3571	112.793	87.457	112.793	88.3744	112.793	87.3994	112.793	88.3731	112.793	87.3438	112.793	88.3498	112.793	87.2932	112.793	88.302	112.793	87.2516	112.793	88.2285	112.793	87.2244	112.793	88.13	112.793	87.2173	112.793	88.01	112.793	87.2357	112.793	87.8744	112.793	87.2831	112.793	87.7318	112.793	87.3606	112.793	87.5922	112.793	87.4656
116.455	88.0816	116.455	88.0044	116.455	88.1595	116.455	87.9295	116.455	88.236	116.455	87.8583	116.455	88.3088	116.455	87.7913	116.455	88.3758	116.455	87.7283	116.455	88.4346	116.455	87.6689	116.455	88.483	116.455	87.6124	116.455	88.5185	116.455	87.5582	116.455	88.5383	116.455	87.5067	116.455	88.5396	116.455	87.459	116.455	88.5192	116.455	87.4177	116.455	88.4749	116.455	87.3865	116.455	88.4051	116.455	87.3703	116.455	88.3106	116.455	87.3741	116.455	88.1942	116.455	87.4026	116.455	88.0616	116.455	87.4587	116.455	87.9208	116.455	87.5429	116.455	87.7811	116.455	87.6524
120.85	88.2923	120.85	88.2063	120.85	88.3766	120.85	88.1209	120.85	88.4566	120.85	88.0385	120.85	88.53	120.85	87.9606	120.85	88.5946	120.85	87.8885	120.85	88.6488	120.85	87.8227	120.85	88.6909	120.85	87.7633	120.85	88.7194	120.85	87.7104	120.85	88.7324	120.85	87.6642	120.85	88.7279	120.85	87.6257	120.85	88.7038	120.85	87.5965	120.85	88.6582	120.85	87.5791	120.85	88.5901	120.85	87.5769	120.85	88.5002	120.85	87.5932	120.85	88.391	120.85	87.6312	120.85	88.2674	120.85	87.6928	120.85	88.1363	120.85	87.7779	120.85	88.0057	120.85	87.8839
125.244	88.5094	125.244	88.4164	125.244	88.5958	125.244	88.3191	125.244	88.6733	125.244	88.2198	125.244	88.74	125.244	88.1203	125.244	88.7941	125.244	88.0222	125.244	88.8342	125.244	87.927	125.244	88.8591	125.244	87.8358	125.244	88.8675	125.244	87.7501	125.244	88.8579	125.244	87.6715	125.244	88.8289	125.244	87.6024	125.244	88.7788	125.244	87.5457	125.244	88.7064	125.244	87.5051	125.244	88.6112	125.244	87.4845	125.244	88.4946	125.244	87.4878	125.244	88.3599	125.244	87.5182	125.244	88.213	125.244	87.5775	125.244	88.0613	125.244	87.6655	125.244	87.9139	125.244	87.7794
129.639	88.4908	129.639	88.4131	129.639	88.5636	129.639	88.3316	129.639	88.63	129.639	88.2473	129.639	88.6884	129.639	88.1607	129.639	88.7373	129.639	88.0718	129.639	88.775	129.639	87.9806	129.639	88.7998	129.639	87.8873	129.639	88.8095	129.639	87.7927	129.639	88.8015	129.639	87.6982	129.639	88.773	129.639	87.607	129.639	88.7209	129.639	87.5233	129.639	88.6429	129.639	87.4525	129.639	88.5381	129.639	87.4011	129.639	88.4077	129.639	87.3756	129.639	88.2562	129.639	87.382	129.639	88.0909	129.639	87.4244	129.639	87.9217	129.639	87.5038	129.639	87.7603	129.639	87.6178
134.033	88.2405	134.033	88.155	134.033	88.3252	134.033	88.071	134.033	88.4073	134.033	87.9902	134.033	88.4848	134.033	87.9141	134.033	88.5565	134.033	87.8434	134.033	88.6213	134.033	87.7784	134.033	88.6783	134.033	87.7193	134.033	88.7264	134.033	87.6664	134.033	88.7634	134.033	87.6208	134.033	88.7862	134.033	87.5842	134.033	88.791	134.033	87.5593	134.033	88.7731	134.033	87.55	134.033	88.7288	134.033	87.5601	134.033	88.6557	134.033	87.5938	134.033	88.5545	134.033	87.6539	134.033	88.4289	134.033	87.7415	134.033	88.2863	134.033	87.8548	134.033	88.1361	134.033	87.9889
138.428	88.4561	138.428	88.3491	138.428	88.5577	138.428	88.2403	138.428	88.6504	138.428	88.1335	138.428	88.7314	138.428	88.0318	138.428	88.7989	138.428	87.9377	138.428	88.8523	138.428	87.8532	138.428	88.8915	138.428	87.7794	138.428	88.917	138.428	87.7176	138.428	88.9291	138.428	87.6691	138.428	88.9275	138.428	87.6356	138.428	88.9107	138.428	87.6192	138.428	88.8764	138.428	87.6223	138.428	88.8223	138.428	87.6474	138.428	88.7462	138.428	87.6961	138.428	88.6481	138.428	87.7693	138.428	88.5302	138.428	87.8659	138.428	88.3972	138.428	87.983	138.428	88.2562	138.428	88.1155
143.555	88.6743	143.555	88.5515	143.555	88.7875	143.555	88.4234	143.555	88.8871	143.555	88.2941	143.555	88.9699	143.555	88.1674	143.555	89.0337	143.555	88.0464	143.555	89.0771	143.555	87.9333	143.555	89.0998	143.555	87.8298	143.555	89.1019	143.555	87.7376	143.555	89.0834	143.555	87.6583	143.555	89.0446	143.555	87.5943	143.555	88.9851	143.555	87.5481	143.555	88.9045	143.555	87.5229	143.555	88.8027	143.555	87.5218	143.555	88.6808	143.555	87.5473	143.555	88.5411	143.555	87.6011	143.555	88.3884	143.555	87.6832	143.555	88.2292	143.555	87.7918	143.555	88.0714	143.555	87.9231
148.682	88.6735	148.682	88.54	148.682	88.7939	148.682	88.3975	148.682	88.8983	148.682	88.2506	148.682	88.9847	148.682	88.104	148.682	89.0525	148.682	87.9622	148.682	89.1021	148.682	87.8291	148.682	89.1343	148.682	87.7082	148.682	89.1496	148.682	87.6027	148.682	89.1479	148.682	87.5153	148.682	89.1279	148.682	87.4491	148.682	89.0869	148.682	87.407	148.682	89.0218	148.682	87.392	148.682	88.9298	148.682	87.4067	148.682	88.8096	148.682	87.453	148.682	88.6628	148.682	87.5318	148.682	88.4941	148.682	87.6423	148.682	88.3116	148.682	87.7819	148.682	88.1252	148.682	87.9454
153.809	88.693	153.809	88.5746	153.809	88.7913	153.809	88.4384	153.809	88.8685	153.809	88.2876	153.809	88.9249	153.809	88.1264	153.809	88.9622	153.809	87.9593	153.809	88.9832	153.809	87.7918	153.809	88.9909	153.809	87.6297	153.809	88.9884	153.809	87.4795	153.809	88.9771	153.809	87.3484	153.809	88.9565	153.809	87.2438	153.809	88.9234	153.809	87.1726	153.809	88.8728	153.809	87.1408	153.809	88.7988	153.809	87.1525	153.809	88.6963	153.809	87.2091	153.809	88.563	153.809	87.3092	153.809	88.4005	153.809	87.4482	153.809	88.2143	153.809	87.6189	153.809	88.0141	153.809	87.8115
159.668	88.8523	159.668	88.7488	159.668	88.9346	159.668	88.6265	159.668	88.9941	159.668	88.4886	159.668	89.0302	159.668	88.3381	159.668	89.0438	159.668	88.1787	159.668	89.0374	159.668	88.0144	159.668	89.0145	159.668	87.8497	159.668	88.9794	159.668	87.6904	159.668	88.9357	159.668	87.5434	159.668	88.8856	159.668	87.4168	159.668	88.8288	159.668	87.3189	159.668	88.7623	159.668	87.2579	159.668	88.6814	159.668	87.24	159.668	88.5808	159.668	87.2683	159.668	88.4569	159.668	87.3426	159.668	88.3092	159.668	87.4582	159.668	88.1414	159.668	87.6072	159.668	87.961	159.668	87.7789
164.795	88.9151	164.795	88.8266	164.795	88.9841	164.795	88.7212	164.795	89.0316	164.795	88.6018	164.795	89.0567	164.795	88.4712	164.795	89.0602	164.795	88.3319	164.795	89.0442	164.795	88.1868	164.795	89.0121	164.795	88.0391	164.795	88.9682	164.795	87.8931	164.795	88.9164	164.795	87.7546	164.795	88.8591	164.795	87.6305	164.795	88.7967	164.795	87.5289	164.795	88.7272	164.795	87.4578	164.795	88.6466	164.795	87.424	164.795	88.5505	164.795	87.4319	164.795	88.4359	164.795	87.4822	164.795	88.3024	164.795	87.5718	164.795	88.1534	164.795	87.6938	164.795	87.9956	164.795	87.8387
170.654	88.4664	170.654	88.4063	170.654	88.5137	170.654	88.3363	170.654	88.546	170.654	88.2592	170.654	88.5626	170.654	88.1778	170.654	88.5645	170.654	88.094	170.654	88.5548	170.654	88.0095	170.654	88.538	170.654	87.9259	170.654	88.519	170.654	87.8455	170.654	88.5023	170.654	87.7712	170.654	88.4899	170.654	87.7074	170.654	88.4808	170.654	87.659	170.654	88.4706	170.654	87.631	170.654	88.4527	170.654	87.6277	170.654	88.4201	170.654	87.6515	170.654	88.3678	170.654	87.7027	170.654	88.2939	170.654	87.7786	170.654	88.2008	170.654	87.8742	170.654	88.0942	170.654	87.9823
176.514	88.4474	176.514	88.3609	176.514	88.5153	176.514	88.261	176.514	88.5602	176.514	88.1534	176.514	88.58	176.514	88.0433	176.514	88.5752	176.514	87.9349	176.514	88.5493	176.514	87.8315	176.514	88.5088	176.514	87.736	176.514	88.4618	176.514	87.651	176.514	88.4168	176.514	87.5796	176.514	88.3805	176.514	87.5255	176.514	88.3553	176.514	87.4924	176.514	88.339	176.514	87.4839	176.514	88.3244	176.514	87.5021	176.514	88.3027	176.514	87.5473	176.514	88.2654	176.514	87.6173	176.514	88.2074	176.514	87.7078	176.514	88.1281	176.514	87.8123	176.514	88.031	176.514	87.9229
183.105	88.404	183.105	88.2731	183.105	88.5094	183.105	88.1243	183.105	88.5832	183.105	87.9662	183.105	88.6218	183.105	87.8069	183.105	88.625	183.105	87.6536	183.105	88.5958	183.105	87.5125	183.105	88.5411	183.105	87.3881	183.105	88.4702	183.105	87.2846	183.105	88.3939	183.105	87.2055	183.105	88.3218	183.105	87.1538	183.105	88.2604	183.105	87.132	183.105	88.2108	183.105	87.1417	183.105	88.1688	183.105	87.1825	183.105	88.1267	183.105	87.252	183.105	88.0756	183.105	87.3457	183.105	88.0088	183.105	87.4572	183.105	87.9229	183.105	87.5788	183.105	87.8192	183.105	87.7021
189.697	88.2522	189.697	88.1351	189.697	88.3364	189.697	87.9924	189.697	88.3829	189.697	87.833	189.697	88.3904	189.697	87.6669	189.697	88.3615	189.697	87.504	189.697	88.3031	189.697	87.3538	189.697	88.2265	189.697	87.2251	189.697	88.1459	189.697	87.1258	189.697	88.0767	189.697	87.0623	189.697	88.0316	189.697	87.039	189.697	88.0173	189.697	87.0577	189.697	88.0318	189.697	87.1173	189.697	88.0647	189.697	87.2129	189.697	88.1004	189.697	87.3366	189.697	88.1226	189.697	87.4786	189.697	88.1183	189.697	87.6275	189.697	88.0802	189.697	87.7721	189.697	88.0068	189.697	87.9017
196.289	88.5182	196.289	88.3994	196.289	88.5964	196.289	88.2473	196.289	88.6287	196.289	88.0705	196.289	88.6125	196.289	87.8786	196.289	88.5488	196.289	87.6816	196.289	88.4428	196.289	87.4899	196.289	88.3047	196.289	87.3143	196.289	88.1497	196.289	87.166	196.289	87.9965	196.289	87.0552	196.289	87.865	196.289	86.9903	196.289	87.7714	196.289	86.9762	196.289	87.7236	196.289	87.0124	196.289	87.7181	196.289	87.0928	196.289	87.7413	196.289	87.2061	196.289	87.7742	196.289	87.3377	196.289	87.7975	196.289	87.4721	196.289	87.7966	196.289	87.5951	196.289	87.7631	196.289	87.6947
202.881	88.5066	202.881	88.3595	202.881	88.6106	202.881	88.1778	202.881	88.665	202.881	87.9712	202.881	88.666	202.881	87.7501	202.881	88.6134	202.881	87.5249	202.881	88.5111	202.881	87.3064	202.881	88.3681	202.881	87.1056	202.881	88.1985	202.881	86.9337	202.881	88.021	202.881	86.8014	202.881	87.8564	202.881	86.7178	202.881	87.7235	202.881	86.6883	202.881	87.6336	202.881	86.7132	202.881	87.5868	202.881	86.7863	202.881	87.5721	202.881	86.8964	202.881	87.5718	202.881	87.0284	202.881	87.5671	202.881	87.1667	202.881	87.5428	202.881	87.2968	202.881	87.4903	202.881	87.4073
210.205	88.4565	210.205	88.3089	210.205	88.5571	210.205	88.1218	210.205	88.605	210.205	87.9034	210.205	88.5965	210.205	87.6629	210.205	88.531	210.205	87.4102	210.205	88.4119	210.205	87.1562	210.205	88.2473	210.205	86.9136	210.205	88.0514	210.205	86.6967	210.205	87.8435	210.205	86.521	210.205	87.647	210.205	86.4005	210.205	87.4845	210.205	86.3454	210.205	87.3716	210.205	86.3585	210.205	87.3117	210.205	86.4339	210.205	87.2942	210.205	86.5575	210.205	87.2988	210.205	86.71	210.205	87.3022	210.205	86.8706	210.205	87.2848	210.205	87.0205	210.205	87.2337	210.205	87.1447
217.529	88.3692	217.529	88.2097	217.529	88.4825	217.529	88.0124	217.529	88.5425	217.529	87.7869	217.529	88.5445	217.529	87.5431	217.529	88.4872	217.529	87.2913	217.529	88.3733	217.529	87.0424	217.529	88.2104	217.529	86.8083	217.529	88.0116	217.529	86.6022	217.529	87.7959	217.529	86.438	217.529	87.5864	217.529	86.3285	217.529	87.4064	217.529	86.2824	217.529	87.274	217.529	86.3016	217.529	87.1958	217.529	86.3791	217.529	87.1646	217.529	86.5007	217.529	87.1623	217.529	86.6468	217.529	87.1665	217.529	86.7973	217.529	87.1565	217.529	86.9339	217.529	87.1177	217.529	87.0432
225.586	88.3908	225.586	88.237	225.586	88.4886	225.586	88.0351	225.586	88.5241	225.586	87.7944	225.586	88.4933	225.586	87.5251	225.586	88.396	225.586	87.2386	225.586	88.2364	225.586	86.9484	225.586	88.0244	225.586	86.6707	225.586	87.7772	225.586	86.4246	225.586	87.5194	225.586	86.2311	225.586	87.2814	225.586	86.1093	225.586	87.0938	225.586	86.0715	225.586	86.9787	225.586	86.1187	225.586	86.9412	225.586	86.2389	225.586	86.9672	225.586	86.4094	225.586	87.0284	225.586	86.6021	225.586	87.092	225.586	86.7895	225.586	87.13	225.586	86.9485	225.586	87.1232	225.586	87.0627
232.91	88.4854	232.91	88.3295	232.91	88.5881	232.91	88.1291	232.91	88.6295	232.91	87.8931	232.91	88.6031	232.91	87.6296	232.91	88.5052	232.91	87.3469	232.91	88.336	232.91	87.0543	232.91	88.1012	232.91	86.764	232.91	87.8135	232.91	86.4923	232.91	87.4945	232.91	86.2597	232.91	87.1756	232.91	86.0882	232.91	86.8944	232.91	85.9962	232.91	86.6864	232.91	85.9915	232.91	86.573	232.91	86.067	232.91	86.5518	232.91	86.2016	232.91	86.5973	232.91	86.365	232.91	86.6714	232.91	86.5257	232.91	86.7367	232.91	86.6566	232.91	86.7645	232.91	86.7389
241.699	88.1502	241.699	87.9424	241.699	88.3043	241.699	87.6932	241.699	88.3944	241.699	87.4155	241.699	88.4126	241.699	87.1213	241.699	88.3545	241.699	86.8223	241.699	88.2196	241.699	86.5295	241.699	88.0125	241.699	86.2548	241.699	87.7439	241.699	86.012	241.699	87.4317	241.699	85.8173	241.699	87.1023	241.699	85.6867	241.699	86.7893	241.699	85.6318	241.699	86.528	241.699	85.6549	241.699	86.3459	241.699	85.7454	241.699	86.2533	241.699	85.8814	241.699	86.2383	241.699	86.0344	241.699	86.2725	241.699	86.1758	241.699	86.3207	241.699	86.2828	241.699	86.3512	241.699	86.3419
249.756	88.43	249.756	88.1909	249.756	88.5983	249.756	87.8905	249.756	88.6882	249.756	87.54	249.756	88.6951	249.756	87.1518	249.756	88.617	249.756	86.7402	249.756	88.456	249.756	86.3217	249.756	88.2183	249.756	85.9166	249.756	87.9161	249.756	85.55	249.756	87.5688	249.756	85.2505	249.756	87.2038	249.756	85.0457	249.756	86.8549	249.756	84.9544	249.756	86.5565	249.756	84.978	249.756	86.3336	249.756	85.0982	249.756	86.1935	249.756	85.2816	249.756	86.123	249.756	85.4896	249.756	86.0948	249.756	85.6881	249.756	86.0773	249.756	85.8527	249.756	86.0426	249.756	85.9711
258.545	88.2731	258.545	88.064	258.545	88.4232	258.545	87.8064	258.545	88.5055	258.545	87.5114	258.545	88.5135	258.545	87.1897	258.545	88.4441	258.545	86.8518	258.545	88.2983	258.545	86.5084	258.545	88.0819	258.545	86.1727	258.545	87.8067	258.545	85.8619	258.545	87.4917	258.545	85.5975	258.545	87.1633	258.545	85.4032	258.545	86.8537	258.545	85.2986	258.545	86.5943	258.545	85.292	258.545	86.4075	258.545	85.3748	258.545	86.298	258.545	85.523	258.545	86.2514	258.545	85.7034	258.545	86.241	258.545	85.883	258.545	86.2361	258.545	86.0357	258.545	86.2104	258.545	86.1461
268.066	87.9403	268.066	87.6323	268.066	88.1782	268.066	87.2674	268.066	88.3363	268.066	86.8616	268.066	88.4081	268.066	86.4336	268.066	88.3906	268.066	86.0037	268.066	88.2836	268.066	85.5932	268.066	88.0902	268.066	85.2242	268.066	87.8178	268.066	84.9198	268.066	87.4799	268.066	84.7018	268.066	87.0988	268.066	84.5875	268.066	86.7071	268.066	84.5833	268.066	86.3458	268.066	84.6807	268.066	86.0556	268.066	84.8554	268.066	85.863	268.066	85.0728	268.066	85.7689	268.066	85.296	268.066	85.7481	268.066	85.4931	268.066	85.7603	268.066	85.6415	268.066	85.7649	268.066	85.7311
277.588	88.1861	277.588	87.9821	277.588	88.3042	277.588	87.6942	277.588	88.337	277.588	87.3267	277.588	88.2877	277.588	86.8875	277.588	88.1629	277.588	86.3893	277.588	87.9738	277.588	85.8533	277.588	87.7362	277.588	85.3124	277.588	87.4714	277.588	84.8139	277.588	87.2048	277.588	84.4165	277.588	86.9623	277.588	84.1775	277.588	86.765	277.588	84.1303	277.588	86.623	277.588	84.2678	277.588	86.532	277.588	84.5433	277.588	86.4766	277.588	84.8918	277.588	86.436	277.588	85.2526	277.588	86.3903	277.588	85.5819	277.588	86.3227	277.588	85.8557	277.588	86.219	277.588	86.0667
287.109	88.336	287.109	88.1638	287.109	88.4171	287.109	87.9047	287.109	88.4032	287.109	87.563	287.109	88.2921	287.109	87.1437	287.109	88.0847	287.109	86.6544	287.109	87.7872	287.109	86.1092	287.109	87.4146	287.109	85.5342	287.109	86.9943	287.109	84.9732	287.109	86.5699	287.109	84.4902	287.109	86.199	287.109	84.1598	287.109	85.9408	287.109	84.041	287.109	85.8314	287.109	84.146	287.109	85.863	287.109	84.431	287.109	85.9868	287.109	84.8185	287.109	86.1369	287.109	85.2306	287.109	86.2564	287.109	85.6093	287.109	86.3077	287.109	85.9192	287.109	86.272	287.109	86.1424
297.363	88.5054	297.363	88.3235	297.363	88.6194	297.363	88.0828	297.363	88.6532	297.363	87.7882	297.363	88.5939	297.363	87.4391	297.363	88.4301	297.363	87.031	297.363	88.1534	297.363	86.5595	297.363	87.7606	297.363	86.0263	297.363	87.2579	297.363	85.4463	297.363	86.6689	297.363	84.8564	297.363	86.0454	297.363	84.3204	297.363	85.4745	297.363	83.9224	297.363	85.065	297.363	83.7388	297.363	84.8956	297.363	83.7971	297.363	84.9582	297.363	84.0568	297.363	85.1588	297.363	84.4315	297.363	85.3776	297.363	84.8293	297.363	85.5223	297.363	85.1768	297.363	85.5429	297.363	85.4244
307.617	87.9403	307.617	87.6832	307.617	88.1293	307.617	87.3747	307.617	88.2357	307.617	87.0312	307.617	88.2482	307.617	86.6667	307.617	88.1584	307.617	86.2913	307.617	87.9611	307.617	85.9119	307.617	87.6536	307.617	85.536	307.617	87.2382	307.617	85.177	307.617	86.7268	307.617	84.8586	307.617	86.1492	307.617	84.614	307.617	85.5639	307.617	84.4788	307.617	85.0615	307.617	84.4756	307.617	84.7431	307.617	84.6	307.617	84.6667	307.617	84.8181	307.617	84.8036	307.617	85.0757	307.617	85.0545	307.617	85.3146	307.617	85.3089	307.617	85.4838	307.617	85.4864	307.617	85.547
318.604	87.8492	318.604	87.6072	318.604	88.0116	318.604	87.2945	318.604	88.087	318.604	86.9208	318.604	88.0703	318.604	86.4954	318.604	87.9584	318.604	86.0279	318.604	87.7505	318.604	85.5299	318.604	87.4477	318.604	85.0201	318.604	87.0539	318.604	84.5292	318.604	86.5782	318.604	84.1041	318.604	86.0394	318.604	83.8018	318.604	85.4737	318.604	83.6721	318.604	84.9397	318.604	83.7307	318.604	84.5152	318.604	83.9449	318.604	84.2728	318.604	84.2451	318.604	84.2404	318.604	84.5505	318.604	84.3781	318.604	84.7923	318.604	84.5975	318.604	84.9242	318.604	84.8038	318.604	84.9255
329.59	87.9442	329.59	87.6879	329.59	88.1143	329.59	87.3537	329.59	88.1913	329.59	86.9498	329.59	88.1702	329.59	86.4834	329.59	88.0489	329.59	85.9609	329.59	87.8282	329.59	85.3911	329.59	87.5123	329.59	84.7912	329.59	87.1105	329.59	84.1954	329.59	86.6398	329.59	83.6617	329.59	86.1299	329.59	83.2687	329.59	85.6254	329.59	83.09	329.59	85.1835	329.59	83.1533	329.59	84.8593	329.59	83.4163	329.59	84.6834	329.59	83.7883	329.59	84.6455	329.59	84.1726	329.59	84.7001	329.59	84.497	329.59	84.786	329.59	84.7212	329.59	84.8456	329.59	84.8338
341.309	87.423	341.309	87.175	341.309	87.5846	341.309	86.8512	341.309	87.6513	341.309	86.4618	341.309	87.6176	341.309	86.0158	341.309	87.4813	341.309	85.5204	341.309	87.2438	341.309	84.9834	341.309	86.9104	341.309	84.4194	341.309	86.492	341.309	83.8587	341.309	86.0084	341.309	83.3555	341.309	85.4931	341.309	82.9858	341.309	84.9985	341.309	82.8252	341.309	84.5922	341.309	82.9083	341.309	84.3393	341.309	83.2008	341.309	84.2703	341.309	83.6155	341.309	84.3601	341.309	84.0527	341.309	84.538	341.309	84.4319	341.309	84.7198	341.309	84.7012	341.309	84.8347	341.309	84.8358
353.76	87.7733	353.76	87.535	353.76	87.9193	353.76	87.2125	353.76	87.9643	353.76	86.812	353.76	87.9015	353.76	86.3358	353.76	87.7262	353.76	85.783	353.76	87.4368	353.76	85.1529	353.76	87.0346	353.76	84.4534	353.76	86.5263	353.76	83.7135	353.76	85.9281	353.76	82.9995	353.76	85.2741	353.76	82.4225	353.76	84.6263	353.76	82.1128	353.76	84.0762	353.76	82.1461	353.76	83.7214	353.76	82.4803	353.76	83.6142	353.76	82.9811	353.76	83.7232	353.76	83.5034	353.76	83.9511	353.76	83.9423	353.76	84.1877	353.76	84.2396	353.76	84.3466	353.76	84.3731
366.211	87.6848	366.211	87.4541	366.211	87.8129	366.211	87.1302	366.211	87.8309	366.211	86.7218	366.211	87.7346	366.211	86.235	366.211	87.5235	366.211	85.6718	366.211	87.2002	366.211	85.0323	366.211	86.7703	366.211	84.3216	366.211	86.2433	366.211	83.5607	366.211	85.6363	366.211	82.8026	366.211	84.9804	366.211	82.1447	366.211	84.3284	366.211	81.7157	366.211	83.756	366.211	81.6153	366.211	83.3459	366.211	81.8378	366.211	83.1509	366.211	82.2684	366.211	83.1602	366.211	82.7571	366.211	83.3026	366.211	83.1846	366.211	83.4813	366.211	83.4812	366.211	83.6083	366.211	83.6201
378.662	87.6774	378.662	87.4426	378.662	87.8254	378.662	87.1304	378.662	87.8763	378.662	86.7473	378.662	87.8213	378.662	86.2942	378.662	87.6534	378.662	85.7663	378.662	87.3666	378.662	85.1565	378.662	86.9564	378.662	84.4642	378.662	86.4214	378.662	83.7091	378.662	85.7701	378.662	82.9504	378.662	85.0342	378.662	82.3027	378.662	84.2898	378.662	81.9202	378.662	83.6689	378.662	81.9161	378.662	83.3242	378.662	82.2684	378.662	83.327	378.662	82.8306	378.662	83.599	378.662	83.4328	378.662	83.9736	378.662	83.9517	378.662	84.3011	378.662	84.318	378.662	84.4906	378.662	84.5003
392.578	87.0715	392.578	86.8502	392.578	87.2295	392.578	86.5755	392.578	87.3121	392.578	86.2523	392.578	87.3084	392.578	85.8777	392.578	87.2092	392.578	85.4406	392.578	87.0072	392.578	84.926	392.578	86.6953	392.578	84.3227	392.578	86.2669	392.578	83.6355	392.578	85.7182	392.578	82.9014	392.578	85.0568	392.578	82.2078	392.578	84.318	392.578	81.6949	392.578	83.5889	392.578	81.5054	392.578	83.0161	392.578	81.6851	392.578	82.7506	392.578	82.1369	392.578	82.8298	392.578	82.6915	392.578	83.1312	392.578	83.1997	392.578	83.4682	392.578	83.5645	392.578	83.695	392.578	83.7347
405.762	87.7335	405.762	87.5065	405.762	87.8698	405.762	87.1997	405.762	87.9053	405.762	86.8207	405.762	87.8336	405.762	86.3702	405.762	87.6519	405.762	85.8405	405.762	87.3602	405.762	85.2187	405.762	86.9588	405.762	84.4973	405.762	86.448	405.762	83.6905	405.762	85.8292	405.762	82.8603	405.762	85.1143	405.762	82.143	405.762	84.3445	405.762	81.7381	405.762	83.6196	405.762	81.799	405.762	83.1102	405.762	82.2913	405.762	82.9883	405.762	83.0149	405.762	83.2772	405.762	83.7535	405.762	83.8065	405.762	84.3581	405.762	84.3465	405.762	84.7446	405.762	84.73	405.762	84.8718
420.41	88.157	420.41	87.9165	420.41	88.3251	420.41	87.6242	420.41	88.4032	420.41	87.2957	420.41	88.3806	420.41	86.9333	420.41	88.2537	420.41	86.5221	420.41	88.0232	420.41	86.0343	420.41	87.6895	420.41	85.4399	420.41	87.2485	420.41	84.7225	420.41	86.6889	420.41	83.9009	420.41	85.9949	420.41	83.059	420.41	85.1575	420.41	82.3738	420.41	84.2048	420.41	82.0755	420.41	83.2565	420.41	82.2799	420.41	82.5708	420.41	82.8576	420.41	82.4333	420.41	83.5443	420.41	82.8538	420.41	84.1148	420.41	83.5223	420.41	84.4334	420.41	84.1104	420.41	84.435
435.059	87.9573	435.059	87.7404	435.059	88.0707	435.059	87.4321	435.059	88.0737	435.059	87.0453	435.059	87.9661	435.059	86.5881	435.059	87.7547	435.059	86.0607	435.059	87.4509	435.059	85.4555	435.059	87.0683	435.059	84.7651	435.059	86.6192	435.059	83.998	435.059	86.112	435.059	83.2028	435.059	85.5502	435.059	82.4938	435.059	84.9356	435.059	82.0473	435.059	84.279	435.059	82.0131	435.059	83.6243	435.059	82.3786	435.059	83.0763	435.059	82.9614	435.059	82.7901	435.059	83.5422	435.059	82.8674	435.059	83.9607	435.059	83.2363	435.059	84.1304	435.059	83.6895	435.059	84.027
450.439	87.9382	450.439	87.7418	450.439	88.0339	450.439	87.4674	450.439	88.011	450.439	87.1337	450.439	87.8608	450.439	86.745	450.439	87.5853	450.439	86.2865	450.439	87.1945	450.439	85.7279	450.439	86.7042	450.439	85.0356	450.439	86.1322	450.439	84.1914	450.439	85.4968	450.439	83.219	450.439	84.8158	450.439	82.2275	450.439	84.1079	450.439	81.4513	450.439	83.401	450.439	81.1797	450.439	82.752	450.439	81.5004	450.439	82.2691	450.439	82.1809	450.439	82.0932	450.439	82.8964	450.439	82.2899	450.439	83.4266	450.439	82.7502	450.439	83.6683	450.439	83.252	450.439	83.5967
466.553	87.6572	466.553	87.4532	466.553	87.7716	466.553	87.1775	466.553	87.7793	466.553	86.8403	466.553	87.6703	466.553	86.4359	466.553	87.4426	466.553	85.9403	466.553	87.1011	466.553	85.3177	466.553	86.6536	466.553	84.533	466.553	86.1078	466.553	83.5725	466.553	85.4713	466.553	82.4784	466.553	84.7581	466.553	81.4086	466.553	84.0024	466.553	80.6815	466.553	83.2791	466.553	80.6232	466.553	82.7126	466.553	81.2138	466.553	82.4409	466.553	82.0981	466.553	82.5243	466.553	82.9391	466.553	82.882	466.553	83.5599	466.553	83.3423	466.553	83.8969	466.553	83.7366	466.553	83.945
482.666	87.3361	482.666	87.1606	482.666	87.4506	482.666	86.9552	482.666	87.4776	482.666	86.7373	482.666	87.4046	482.666	86.4947	482.666	87.2333	482.666	86.1815	482.666	86.9739	482.666	85.7303	482.666	86.6375	482.666	85.0693	482.666	86.2282	482.666	84.1354	482.666	85.7386	482.666	82.8891	482.666	85.1495	482.666	81.3607	482.666	84.4377	482.666	79.7916	482.666	83.5997	482.666	78.8385	482.666	82.7007	482.666	79.1478	482.666	81.9413	482.666	80.35	482.666	81.6277	482.666	81.651	482.666	81.8934	482.666	82.6435	482.666	82.4952	482.666	83.2093	482.666	83.059	482.666	83.3351
500.244	87.1265	500.244	86.7928	500.244	87.3662	500.244	86.4405	500.244	87.4632	500.244	86.1426	500.244	87.3996	500.244	85.9243	500.244	87.1821	500.244	85.7373	500.244	86.8316	500.244	85.4826	500.244	86.3746	500.244	85.0547	500.244	85.8365	500.244	84.3713	500.244	85.2392	500.244	83.3861	500.244	84.6019	500.244	82.113	500.244	83.9461	500.244	80.7069	500.244	83.3076	500.244	79.6136	500.244	82.7562	500.244	79.4566	500.244	82.4065	500.244	80.2808	500.244	82.3705	500.244	81.4666	500.244	82.6452	500.244	82.5052	500.244	83.0654	500.244	83.1911	500.244	83.4033	500.244	83.4792
517.822	87.0401	517.822	86.6979	517.822	87.196	517.822	86.2231	517.822	87.1558	517.822	85.7185	517.822	86.9408	517.822	85.3075	517.822	86.5935	517.822	85.0601	517.822	86.1727	517.822	84.9327	517.822	85.7452	517.822	84.7942	517.822	85.3673	517.822	84.501	517.822	85.0547	517.822	83.9457	517.822	84.7578	517.822	83.0741	517.822	84.3653	517.822	81.9241	517.822	83.7423	517.822	80.741	517.822	82.803	517.822	80.0967	517.822	81.6588	517.822	80.4726	517.822	80.8465	517.822	81.5347	517.822	81.0464	517.822	82.6047	517.822	82.0185	517.822	83.2836	517.822	82.9555	517.822	83.4131
536.133	87.8205	536.133	87.3616	536.133	87.993	536.133	86.6407	536.133	87.8766	536.133	85.7277	536.133	87.4802	536.133	84.7681	536.133	86.8238	536.133	83.9777	536.133	85.9503	536.133	83.5246	536.133	84.9533	536.133	83.3666	536.133	84.0113	536.133	83.2758	536.133	83.3585	536.133	83.0146	536.133	83.1111	536.133	82.445	536.133	83.1095	536.133	81.575	536.133	83.0332	536.133	80.6585	536.133	82.6207	536.133	80.268	536.133	81.8122	536.133	80.8127	536.133	80.9389	536.133	81.906	536.133	80.7798	536.133	82.9022	536.133	81.6119	536.133	83.4369	536.133	82.6915	536.133	83.3695
554.443	87.7988	554.443	87.3986	554.443	87.9815	554.443	86.7975	554.443	87.9425	554.443	86.0366	554.443	87.6828	554.443	85.1933	554.443	87.2045	554.443	84.379	554.443	86.5131	554.443	83.6978	554.443	85.6275	554.443	83.172	554.443	84.6032	554.443	82.7091	554.443	83.5631	554.443	82.1563	554.443	82.699	554.443	81.3894	554.443	82.1701	554.443	80.3994	554.443	81.9371	554.443	79.4194	554.443	81.7804	554.443	79.0032	554.443	81.5243	554.443	79.5453	554.443	81.2279	554.443	80.6577	554.443	81.179	554.443	81.7021	554.443	81.5525	554.443	82.3317	554.443	82.1067	554.443	82.4464
574.219	88.5236	574.219	88.1626	574.219	88.6531	574.219	87.5776	574.219	88.5535	574.219	86.7976	574.219	88.2317	574.219	85.8875	574.219	87.6971	574.219	84.9576	574.219	86.9651	574.219	84.1396	574.219	86.0631	574.219	83.5084	574.219	85.0413	574.219	83.0051	574.219	83.9824	574.219	82.4584	574.219	82.9906	574.219	81.6798	574.219	82.1336	574.219	80.5572	574.219	81.3652	574.219	79.1992	574.219	80.5457	574.219	78.2402	574.219	79.6381	574.219	78.6074	574.219	79.0245	574.219	80.0149	574.219	79.3862	574.219	81.4087	574.219	80.5843	574.219	82.2418	574.219	81.7536	574.219	82.3587
594.727	88.1224	594.727	87.8249	594.727	88.1881	594.727	87.3049	594.727	88.0242	594.727	86.5919	594.727	87.6389	594.727	85.7446	594.727	87.0448	594.727	84.8535	594.727	86.2636	594.727	84.0225	594.727	85.3423	594.727	83.315	594.727	84.3767	594.727	82.7017	594.727	83.5166	594.727	82.0676	594.727	82.8905	594.727	81.2833	594.727	82.4584	594.727	80.3019	594.727	81.9756	594.727	79.2968	594.727	81.1505	594.727	78.7932	594.727	79.8875	594.727	79.2828	594.727	78.7197	594.727	80.4532	594.727	78.8909	594.727	81.6019	594.727	80.3083	594.727	82.2963	594.727	81.6585	594.727	82.3438
615.234	88.0667	615.234	87.7311	615.234	88.1709	615.234	87.1692	615.234	88.0503	615.234	86.4134	615.234	87.7115	615.234	85.5367	615.234	87.1568	615.234	84.6521	615.234	86.3873	615.234	83.8782	615.234	85.4157	615.234	83.2724	615.234	84.2973	615.234	82.7807	615.234	83.1856	615.234	82.2623	615.234	82.3538	615.234	81.5622	615.234	82.0057	615.234	80.5887	615.234	81.9683	615.234	79.4376	615.234	81.7892	615.234	78.6167	615.234	81.0957	615.234	78.8589	615.234	79.8585	615.234	80.0031	615.234	78.8207	615.234	81.158	615.234	79.2201	615.234	81.7451	615.234	80.553	615.234	81.5443
637.207	88.2672	637.207	87.8672	637.207	88.3866	637.207	87.188	637.207	88.2368	637.207	86.2544	637.207	87.8374	637.207	85.1339	637.207	87.2124	637.207	83.9634	637.207	86.3853	637.207	82.9461	637.207	85.377	637.207	82.2518	637.207	84.2183	637.207	81.8568	637.207	82.9922	637.207	81.5368	637.207	81.8893	637.207	81.0304	637.207	81.1539	637.207	80.1822	637.207	80.8125	637.207	79.0816	637.207	80.5473	637.207	78.3146	637.207	80.014	637.207	78.7138	637.207	79.2514	637.207	80.0301	637.207	78.9589	637.207	81.2935	637.207	79.7677	637.207	81.9619	637.207	81.0269	637.207	81.8663
659.912	88.1119	659.912	87.7617	659.912	88.1623	659.912	87.1203	659.912	87.9257	659.912	86.2282	659.912	87.4277	659.912	85.1736	659.912	86.7003	659.912	84.1028	659.912	85.7766	659.912	83.1889	659.912	84.6926	659.912	82.5297	659.912	83.5074	659.912	82.0549	659.912	82.3488	659.912	81.5648	659.912	81.4308	659.912	80.8486	659.912	80.9086	659.912	79.781	659.912	80.6396	659.912	78.4663	659.912	80.2545	659.912	77.5502	659.912	79.5109	659.912	77.9726	659.912	78.6875	659.912	79.4268	659.912	78.7325	659.912	80.8519	659.912	79.8981	659.912	81.7055	659.912	81.1619	659.912	81.8197
683.35	89.0322	683.35	88.7084	683.35	89.0641	683.35	88.0772	683.35	88.839	683.35	87.1507	683.35	88.395	683.35	85.9734	683.35	87.751	683.35	84.6299	683.35	86.8919	683.35	83.2626	683.35	85.7771	683.35	82.0764	683.35	84.3842	683.35	81.2492	683.35	82.7974	683.35	80.7446	683.35	81.3427	683.35	80.2815	683.35	80.531	683.35	79.549	683.35	80.4428	683.35	78.4553	683.35	80.4936	683.35	77.4908	683.35	80.107	683.35	77.8491	683.35	79.2044	683.35	79.5735	683.35	78.6874	683.35	81.3289	683.35	79.7371	683.35	82.3407	683.35	81.3895	683.35	82.3711
706.787	89.4433	706.787	89.0914	706.787	89.5095	706.787	88.4382	706.787	89.3064	706.787	87.4831	706.787	88.8427	706.787	86.2682	706.787	88.1181	706.787	84.9283	706.787	87.1292	706.787	83.7231	706.787	85.8817	706.787	82.8983	706.787	84.4199	706.787	82.3974	706.787	82.8916	706.787	81.885	706.787	81.6001	706.787	81.0426	706.787	80.8187	706.787	79.7056	706.787	80.3996	706.787	77.9768	706.787	79.8332	706.787	76.7839	706.787	78.6869	706.787	77.7013	706.787	77.1837	706.787	79.9227	706.787	77.2635	706.787	81.8149	706.787	79.5607	706.787	82.8302	706.787	81.725	706.787	82.8285
731.689	89.4138	731.689	89.2209	731.689	89.349	731.689	88.7573	731.689	89.0427	731.689	88.0092	731.689	88.5155	731.689	86.9687	731.689	87.7855	731.689	85.6687	731.689	86.856	731.689	84.2567	731.689	85.7103	731.689	83.0367	731.689	84.3342	731.689	82.2671	731.689	82.7936	731.689	81.8165	731.689	81.3775	731.689	81.2741	731.689	80.5845	731.689	80.2929	731.689	80.5189	731.689	78.71	731.689	80.5487	731.689	76.8336	731.689	79.9331	731.689	76.3951	731.689	78.3145	731.689	78.4034	731.689	76.8199	731.689	80.6902	731.689	78.3313	731.689	82.0198	731.689	80.8123	731.689	82.1046
758.057	89.9129	758.057	89.6576	758.057	89.9186	758.057	89.1761	758.057	89.6603	758.057	88.4848	758.057	89.1479	758.057	87.5928	758.057	88.4145	758.057	86.5204	758.057	87.4928	758.057	85.3182	758.057	86.3826	758.057	84.0756	758.057	85.0329	758.057	82.9132	758.057	83.3789	758.057	81.9543	758.057	81.5191	758.057	81.2377	758.057	80.1265	758.057	80.6014	758.057	80.1008	758.057	79.7319	758.057	80.8115	758.057	78.5372	758.057	81.0433	758.057	77.9458	758.057	80.4237	758.057	79.2531	758.057	79.6172	758.057	81.2289	758.057	80.0819	758.057	82.438	758.057	81.5337	758.057	82.517
784.424	90.1949	784.424	90.0832	784.424	90.013	784.424	89.669	784.424	89.5927	784.424	88.9771	784.424	89.0148	784.424	88.0543	784.424	88.3289	784.424	86.9909	784.424	87.5135	784.424	85.9495	784.424	86.4953	784.424	85.1006	784.424	85.1996	784.424	84.4413	784.424	83.5929	784.424	83.7408	784.424	81.77	784.424	82.6993	784.424	80.1538	784.424	81.0872	784.424	79.3567	784.424	78.8405	784.424	79.1231	784.424	76.5462	784.424	78.388	784.424	76.3495	784.424	76.4862	784.424	78.5203	784.424	74.9584	784.424	80.6879	784.424	77.3806	784.424	81.8764	784.424	80.3345	784.424	81.8228
812.256	90.0989	812.256	90.106	812.256	89.8701	812.256	89.8055	812.256	89.4934	812.256	89.13	812.256	89.0107	812.256	88.0692	812.256	88.4282	812.256	86.7368	812.256	87.712	812.256	85.4459	812.256	86.7657	812.256	84.5922	812.256	85.4221	812.256	84.2226	812.256	83.5402	812.256	83.966	812.256	81.3749	812.256	83.4584	812.256	80.1577	812.256	82.5117	812.256	80.5729	812.256	81.0071	812.256	81.0949	812.256	78.8855	812.256	80.4031	812.256	77.0141	812.256	77.7894	812.256	78.0149	812.256	74.7098	812.256	80.5891	812.256	77.7857	812.256	82.27	812.256	81.1539	812.256	82.5313
840.82	90.188	840.82	90.1682	840.82	89.9378	840.82	89.857	840.82	89.4538	840.82	89.2342	840.82	88.7981	840.82	88.2801	840.82	88.0504	840.82	87.0081	840.82	87.2697	840.82	85.5639	840.82	86.4516	840.82	84.3241	840.82	85.5061	840.82	83.6515	840.82	84.2479	840.82	83.3623	840.82	82.4081	840.82	82.9131	840.82	79.7896	840.82	81.9344	840.82	77.2568	840.82	80.334	840.82	77.3619	840.82	78.3322	840.82	78.3407	840.82	77.0827	840.82	77.3496	840.82	78.2718	840.82	73.4872	840.82	80.4927	840.82	74.2103	840.82	81.8445	840.82	79.2758	840.82	81.6227
870.85	89.9701	870.85	90.1391	870.85	89.4797	870.85	89.8857	870.85	88.7847	870.85	89.1428	870.85	88.0001	870.85	87.8882	870.85	87.2126	870.85	86.156	870.85	86.4429	870.85	84.1303	870.85	85.6191	870.85	82.4725	870.85	84.5885	870.85	82.1434	870.85	83.1863	870.85	82.7395	870.85	81.4297	870.85	83.0323	870.85	79.9613	870.85	82.4073	870.85	79.8345	870.85	80.703	870.85	80.5309	870.85	78.054	870.85	80.6365	870.85	75.8366	870.85	79.3315	870.85	76.9766	870.85	76.5134	870.85	79.5397	870.85	75.7629	870.85	81.0475	870.85	78.8954	870.85	80.912
901.611	89.7747	901.611	89.9606	901.611	89.2421	901.611	89.7719	901.611	88.4506	901.611	89.1748	901.611	87.5923	901.611	88.1233	901.611	86.8649	901.611	86.5844	901.611	86.2931	901.611	84.5672	901.611	85.7098	901.611	82.2577	901.611	84.9076	901.611	80.4925	901.611	83.734	901.611	80.466	901.611	82.0079	901.611	81.4216	901.611	79.4155	901.611	81.9151	901.611	76.5073	901.611	81.4073	901.611	77.3282	901.611	79.7904	901.611	79.6863	901.611	77.3621	901.611	79.8375	901.611	76.4449	901.611	76.9823	901.611	78.6174	901.611	73.6938	901.611	80.4662	901.611	77.7867	901.611	80.4078
933.105	90.0007	933.105	90.0144	933.105	89.6439	933.105	89.6699	933.105	88.9639	933.105	88.9453	933.105	88.0185	933.105	87.8383	933.105	86.918	933.105	86.3888	933.105	85.7853	933.105	84.6162	933.105	84.6715	933.105	82.4191	933.105	83.5468	933.105	79.7864	933.105	82.4027	933.105	77.8552	933.105	81.2615	933.105	78.3335	933.105	80.0826	933.105	79.5399	933.105	79.0166	933.105	79.7743	933.105	78.8433	933.105	78.6657	933.105	79.6754	933.105	76.8489	933.105	80.0097	933.105	77.123	933.105	78.5929	933.105	79.3347	933.105	75.977	933.105	80.5772	933.105	77.3017	933.105	79.935
966.064	90.1501	966.064	90.0796	966.064	89.7008	966.064	89.5449	966.064	88.7839	966.064	88.6191	966.064	87.602	966.064	87.3233	966.064	86.4368	966.064	85.6449	966.064	85.4477	966.064	83.6571	966.064	84.5141	966.064	81.6552	966.064	83.383	966.064	80.0871	966.064	81.9487	966.064	79.1676	966.064	80.2395	966.064	78.7277	966.064	78.0514	966.064	78.4969	966.064	75.2371	966.064	78.2098	966.064	75.0099	966.064	77.623	966.064	77.8763	966.064	76.769	966.064	79.0358	966.064	76.4093	966.064	77.6179	966.064	77.3545	966.064	75.2863	966.064	78.5503	966.064	76.7049	966.064	78.5275
999.756	90.0812	999.756	89.9334	999.756	89.7785	999.756	89.4056	999.756	89.0016	999.756	88.5239	999.756	87.8376	999.756	87.2566	999.756	86.4474	999.756	85.583	999.756	84.9896	999.756	83.5808	999.756	83.5946	999.756	81.5412	999.756	82.3352	999.756	80.0797	999.756	81.2149	999.756	79.5937	999.756	80.1558	999.756	79.4586	999.756	78.848	999.756	78.8587	999.756	76.816	999.756	77.4991	999.756	75.1983	999.756	75.572	999.756	77.1329	999.756	74.4666	999.756	78.9008	999.756	76.197	999.756	77.9259	999.756	78.7051	999.756	74.8871	999.756	79.9519	999.756	76.4406	999.756	79.306
1,034.91	89.9105	1,034.91	89.6996	1,034.91	89.7735	1,034.91	89.1879	1,034.91	89.2285	1,034.91	88.3904	1,034.91	88.2698	1,034.91	87.2885	1,034.91	87.0081	1,034.91	85.7947	1,034.91	85.6168	1,034.91	83.723	1,034.91	84.1522	1,034.91	80.8247	1,034.91	82.4589	1,034.91	77.0067	1,034.91	80.4399	1,034.91	73.9323	1,034.91	78.678	1,034.91	74.8319	1,034.91	77.9626	1,034.91	76.6552	1,034.91	77.1875	1,034.91	77.4827	1,034.91	75.1421	1,034.91	77.1495	1,034.91	75.8318	1,034.91	75.402	1,034.91	78.7641	1,034.91	73.9999	1,034.91	78.8302	1,034.91	77.1516	1,034.91	76.0376	1,034.91	79.862	1,034.91	76.9893	1,034.91	79.856
1,071.53	89.7065	1,071.53	89.6556	1,071.53	89.332	1,071.53	89.1868	1,071.53	88.6598	1,071.53	88.3382	1,071.53	87.8762	1,071.53	87.1129	1,071.53	87.0155	1,071.53	85.55	1,071.53	85.9539	1,071.53	83.7284	1,071.53	84.5158	1,071.53	81.5387	1,071.53	82.537	1,071.53	78.566	1,071.53	80.1349	1,071.53	74.7152	1,071.53	78.0534	1,071.53	72.1614	1,071.53	77.0691	1,071.53	72.2217	1,071.53	76.669	1,071.53	72.5378	1,071.53	76.1873	1,071.53	72.7153	1,071.53	76.192	1,071.53	73.1124	1,071.53	76.9289	1,071.53	74.2459	1,071.53	77.3641	1,071.53	76.5267	1,071.53	76.9341	1,071.53	78.4888	1,071.53	77.3147	1,071.53	78.6515
1,109.62	89.2465	1,109.62	89.1472	1,109.62	89.0321	1,109.62	88.6993	1,109.62	88.5031	1,109.62	87.8234	1,109.62	87.6744	1,109.62	86.4708	1,109.62	86.5979	1,109.62	84.7372	1,109.62	85.3095	1,109.62	82.8419	1,109.62	83.745	1,109.62	80.8404	1,109.62	81.7591	1,109.62	78.465	1,109.62	79.3637	1,109.62	75.7014	1,109.62	77.2795	1,109.62	73.9026	1,109.62	76.5158	1,109.62	74.0984	1,109.62	75.9161	1,109.62	74.6372	1,109.62	73.886	1,109.62	74.5775	1,109.62	72.3641	1,109.62	74.1382	1,109.62	75.0617	1,109.62	74.3976	1,109.62	76.5617	1,109.62	76.39	1,109.62	75.6575	1,109.62	78.2109	1,109.62	75.9938	1,109.62	78.0471
1,148.44	89.1338	1,148.44	89.0249	1,148.44	88.8217	1,148.44	88.4441	1,148.44	88.1263	1,148.44	87.3733	1,148.44	87.1089	1,148.44	85.8401	1,148.44	85.9732	1,148.44	83.9718	1,148.44	84.9349	1,148.44	82.0125	1,148.44	83.8732	1,148.44	80.0826	1,148.44	82.3988	1,148.44	77.9688	1,148.44	80.0787	1,148.44	75.6377	1,148.44	76.2005	1,148.44	74.037	1,148.44	71.7713	1,148.44	73.4358	1,148.44	73.8148	1,148.44	72.2713	1,148.44	76.0781	1,148.44	69.0989	1,148.44	76.4921	1,148.44	65.4247	1,148.44	76.0232	1,148.44	69.9179	1,148.44	75.4929	1,148.44	74.0848	1,148.44	74.9144	1,148.44	76.1503	1,148.44	75.2092	1,148.44	76.3097
1,189.45	88.9091	1,189.45	88.5126	1,189.45	88.833	1,189.45	87.6854	1,189.45	88.1448	1,189.45	86.4077	1,189.45	86.7104	1,189.45	84.6148	1,189.45	84.6667	1,189.45	82.2934	1,189.45	82.6078	1,189.45	79.7265	1,189.45	81.2143	1,189.45	77.464	1,189.45	80.3499	1,189.45	75.4796	1,189.45	79.138	1,189.45	73.3829	1,189.45	76.8852	1,189.45	72.7093	1,189.45	73.9765	1,189.45	74.165	1,189.45	71.9904	1,189.45	75.3492	1,189.45	70.153	1,189.45	75.0601	1,189.45	70.8034	1,189.45	73.0687	1,189.45	74.5805	1,189.45	71.6836	1,189.45	75.2592	1,189.45	74.0495	1,189.45	73.971	1,189.45	76.1424	1,189.45	74.9063	1,189.45	76.3823
1,231.2	89.0441	1,231.2	88.4623	1,231.2	88.9593	1,231.2	87.2838	1,231.2	88.1549	1,231.2	85.6415	1,231.2	86.6264	1,231.2	83.7565	1,231.2	84.4697	1,231.2	81.786	1,231.2	82.0298	1,231.2	79.6543	1,231.2	80.037	1,231.2	77.1309	1,231.2	78.7272	1,231.2	73.8641	1,231.2	77.3207	1,231.2	69.6531	1,231.2	75.0503	1,231.2	68.7484	1,231.2	71.5959	1,231.2	71.668	1,231.2	68.5542	1,231.2	73.302	1,231.2	68.4648	1,231.2	73.2873	1,231.2	71.1589	1,231.2	71.6069	1,231.2	73.5522	1,231.2	70.6949	1,231.2	73.5723	1,231.2	73.3297	1,231.2	73.7001	1,231.2	75.4717	1,231.2	75.3862	1,231.2	76.149
1,274.41	88.9157	1,274.41	88.404	1,274.41	88.7387	1,274.41	87.196	1,274.41	87.9392	1,274.41	85.4116	1,274.41	86.5728	1,274.41	83.2279	1,274.41	84.6299	1,274.41	80.7696	1,274.41	82.0803	1,274.41	78.0886	1,274.41	79.2641	1,274.41	75.2884	1,274.41	76.9924	1,274.41	72.0352	1,274.41	75.4145	1,274.41	66.1513	1,274.41	73.5113	1,274.41	44.623	1,274.41	70.3811	1,274.41	65.3602	1,274.41	68.2843	1,274.41	71.1509	1,274.41	70.572	1,274.41	73.9664	1,274.41	71.3631	1,274.41	73.6893	1,274.41	70.686	1,274.41	71.2451	1,274.41	70.5344	1,274.41	73.0641	1,274.41	71.4962	1,274.41	75.7553	1,274.41	74.2868	1,274.41	76.1337
1,319.82	89.1238	1,319.82	88.489	1,319.82	88.8829	1,319.82	86.91	1,319.82	87.969	1,319.82	84.6995	1,319.82	86.4941	1,319.82	82.4973	1,319.82	84.4067	1,319.82	80.4186	1,319.82	81.7465	1,319.82	77.7562	1,319.82	78.8615	1,319.82	74.3355	1,319.82	76.2344	1,319.82	71.5951	1,319.82	74.1032	1,319.82	69.4479	1,319.82	72.0171	1,319.82	67.207	1,319.82	68.8891	1,319.82	62.4626	1,319.82	63.0389	1,319.82	61.8458	1,319.82	52.2686	1,319.82	70.3264	1,319.82	65.9371	1,319.82	71.3846	1,319.82	71.5002	1,319.82	69.6966	1,319.82	72.8552	1,319.82	71.7695	1,319.82	72.143	1,319.82	74.9431	1,319.82	74.256	1,319.82	76.0181
1,365.97	88.9412	1,365.97	88.5762	1,365.97	88.5659	1,365.97	87.2289	1,365.97	87.6258	1,365.97	84.938	1,365.97	85.9877	1,365.97	82.1259	1,365.97	83.4111	1,365.97	79.2716	1,365.97	80.091	1,365.97	76.1084	1,365.97	76.9734	1,365.97	71.5838	1,365.97	75.1079	1,365.97	66.5454	1,365.97	74.581	1,365.97	66.3188	1,365.97	74.4751	1,365.97	67.3637	1,365.97	73.4669	1,365.97	64.7094	1,365.97	70.934	1,365.97	59.3232	1,365.97	65.9131	1,365.97	64.6019	1,365.97	56.887	1,365.97	65.6348	1,365.97	63.6551	1,365.97	62.9424	1,365.97	68.2463	1,365.97	65.9592	1,365.97	72.3586	1,365.97	73.2677	1,365.97	75.0299	1,365.97	75.8283
1,414.31	88.7058	1,414.31	88.4145	1,414.31	88.2095	1,414.31	87.0873	1,414.31	87.1965	1,414.31	84.7161	1,414.31	85.6489	1,414.31	81.7502	1,414.31	83.2581	1,414.31	78.9981	1,414.31	79.9622	1,414.31	76.4775	1,414.31	76.3459	1,414.31	72.7749	1,414.31	73.9843	1,414.31	66.4732	1,414.31	74.3345	1,414.31	59.633	1,414.31	75.2439	1,414.31	54.9154	1,414.31	74.4716	1,414.31	42.2279	1,414.31	72.2114	1,414.31	59.7332	1,414.31	70.4665	1,414.31	69.0179	1,414.31	66.3644	1,414.31	71.1523	1,414.31	51.7752	1,414.31	68.445	1,414.31	66.5296	1,414.31	66.1628	1,414.31	68.9518	1,414.31	73.0822	1,414.31	73.7613	1,414.31	75.7329
1,464.11	88.3679	1,464.11	88.082	1,464.11	87.9702	1,464.11	87.0598	1,464.11	86.8126	1,464.11	85.1832	1,464.11	84.8293	1,464.11	82.2459	1,464.11	82.0711	1,464.11	78.1914	1,464.11	78.6199	1,464.11	74.4776	1,464.11	74.465	1,464.11	70.3895	1,464.11	71.8116	1,464.11	61.4135	1,464.11	73.2495	1,464.11	43.0378	1,464.11	74.292	1,464.11	55.335	1,464.11	72.5358	1,464.11	57.0953	1,464.11	67.6462	1,464.11	59.3157	1,464.11	67.8276	1,464.11	69.3703	1,464.11	68.4724	1,464.11	72.4034	1,464.11	61.0667	1,464.11	73.0648	1,464.11	61.7132	1,464.11	72.9391	1,464.11	67.9452	1,464.11	73.8546	1,464.11	71.1821	1,464.11	73.6957
1,515.38	88.9154	1,515.38	88.1384	1,515.38	88.536	1,515.38	86.6378	1,515.38	86.8616	1,515.38	84.6168	1,515.38	84.1939	1,515.38	81.4948	1,515.38	80.8686	1,515.38	76.251	1,515.38	76.3891	1,515.38	69.7405	1,515.38	69.6176	1,515.38	65.0398	1,515.38	67.5109	1,515.38	55.7576	1,515.38	72.1016	1,515.38	51.5047	1,515.38	74.429	1,515.38	53.029	1,515.38	74.7572	1,515.38	37.5634	1,515.38	72.8748	1,515.38	61.7056	1,515.38	67.264	1,515.38	67.6498	1,515.38	66.4706	1,515.38	68.0618	1,515.38	67.6358	1,515.38	67.3013	1,515.38	52.6789	1,515.38	67.5649	1,515.38	67.072	1,515.38	71.4849	1,515.38	71.557	1,515.38	72.7584
1,568.85	89.433	1,568.85	88.622	1,568.85	88.9006	1,568.85	86.977	1,568.85	87.0199	1,568.85	84.9594	1,568.85	84.109	1,568.85	82.0619	1,568.85	80.0069	1,568.85	77.0491	1,568.85	73.5799	1,568.85	69.4448	1,568.85	62.196	1,568.85	61.9167	1,568.85	65.2205	1,568.85	59.8585	1,568.85	71.6191	1,568.85	65.1941	1,568.85	75.0655	1,568.85	67.0397	1,568.85	76.087	1,568.85	63.2615	1,568.85	75.5439	1,568.85	61.7863	1,568.85	73.7802	1,568.85	63.9049	1,568.85	68.239	1,568.85	66.9824	1,568.85	58.2954	1,568.85	69.5325	1,568.85	58.1577	1,568.85	69.7578	1,568.85	68.7254	1,568.85	72.1004	1,568.85	74.4055	1,568.85	74.6425
1,624.51	88.8567	1,624.51	88.3369	1,624.51	88.2676	1,624.51	87.0303	1,624.51	86.5996	1,624.51	85.0855	1,624.51	83.8213	1,624.51	81.8511	1,624.51	79.1194	1,624.51	75.5606	1,624.51	70.4736	1,624.51	61.6214	1,624.51	59.6191	1,624.51	49.8168	1,624.51	68.9982	1,624.51	62.0317	1,624.51	72.1329	1,624.51	69.5019	1,624.51	74.2647	1,624.51	70.1364	1,624.51	75.2718	1,624.51	66.7925	1,624.51	75.1436	1,624.51	60.9773	1,624.51	73.6681	1,624.51	66.8092	1,624.51	71.1205	1,624.51	68.9067	1,624.51	67.4007	1,624.51	69.9169	1,624.51	61.7649	1,624.51	69.5876	1,624.51	70.1336	1,624.51	72.7011	1,624.51	74.96	1,624.51	75.7503
1,681.64	88.3875	1,681.64	88.373	1,681.64	87.6972	1,681.64	87.2397	1,681.64	86.1217	1,681.64	84.6629	1,681.64	82.745	1,681.64	81.007	1,681.64	76.4354	1,681.64	76.2859	1,681.64	66.2887	1,681.64	71.9732	1,681.64	67.2924	1,681.64	67.5576	1,681.64	70.7632	1,681.64	59.5971	1,681.64	72.6742	1,681.64	61.8893	1,681.64	74.176	1,681.64	71.1227	1,681.64	75.4089	1,681.64	71.8003	1,681.64	76.6899	1,681.64	65.923	1,681.64	76.8385	1,681.64	62.6701	1,681.64	73.895	1,681.64	68.2032	1,681.64	70.2151	1,681.64	67.9217	1,681.64	68.67	1,681.64	67.9484	1,681.64	65.8439	1,681.64	72.287	1,681.64	71.1336	1,681.64	74.1452
1,740.97	88.7782	1,740.97	88.2555	1,740.97	88.1665	1,740.97	86.6669	1,740.97	86.0107	1,740.97	83.377	1,740.97	81.7203	1,740.97	78.0361	1,740.97	74.3688	1,740.97	72.3355	1,740.97	68.5865	1,740.97	65.158	1,740.97	72.8547	1,740.97	64.6544	1,740.97	73.8843	1,740.97	69.508	1,740.97	75.1785	1,740.97	66.7935	1,740.97	76.3723	1,740.97	68.4185	1,740.97	75.2582	1,740.97	73.5944	1,740.97	74.5027	1,740.97	73.7521	1,740.97	74.1781	1,740.97	70.3643	1,740.97	70.8542	1,740.97	64.8445	1,740.97	72.7527	1,740.97	62.0651	1,740.97	70.8125	1,740.97	66.418	1,740.97	51.9658	1,740.97	73.4299	1,740.97	69.2198	1,740.97	74.1879
1,802.49	89.5146	1,802.49	88.2719	1,802.49	89.0645	1,802.49	85.8401	1,802.49	86.4601	1,802.49	81.9844	1,802.49	81.6884	1,802.49	74.9467	1,802.49	75.1815	1,802.49	63.3966	1,802.49	69.0534	1,802.49	66.9149	1,802.49	74.8994	1,802.49	73.8382	1,802.49	75.8601	1,802.49	76.6685	1,802.49	73.9784	1,802.49	75.6262	1,802.49	76.251	1,802.49	74.8418	1,802.49	77.9611	1,802.49	76.0202	1,802.49	75.6268	1,802.49	74.06	1,802.49	72.347	1,802.49	68.4239	1,802.49	67.312	1,802.49	64.8286	1,802.49	67.4665	1,802.49	58.4642	1,802.49	68.0196	1,802.49	64.9224	1,802.49	65.5344	1,802.49	73.1748	1,802.49	73.2457	1,802.49	74.7284
1,866.21	89.4746	1,866.21	88.1975	1,866.21	88.7425	1,866.21	84.6308	1,866.21	86.118	1,866.21	78.6816	1,866.21	81.605	1,866.21	72.1881	1,866.21	75.8564	1,866.21	68.9558	1,866.21	75.098	1,866.21	68.4117	1,866.21	76.6962	1,866.21	74.6727	1,866.21	75.7908	1,866.21	78.5802	1,866.21	73.017	1,866.21	77.4589	1,866.21	74.6348	1,866.21	72.9741	1,866.21	78.1768	1,866.21	76.4442	1,866.21	77.269	1,866.21	78.3944	1,866.21	74.8025	1,866.21	76.3764	1,866.21	73.5961	1,866.21	69.0818	1,866.21	66.8387	1,866.21	56.8457	1,866.21	69.4979	1,866.21	58.7044	1,866.21	60.7705	1,866.21	67.0989	1,866.21	70.5231	1,866.21	71.8187
1,932.13	88.738	1,932.13	88.1476	1,932.13	87.8102	1,932.13	85.1133	1,932.13	85.5999	1,932.13	79.1882	1,932.13	81.1811	1,932.13	71.5167	1,932.13	74.3243	1,932.13	57.6609	1,932.13	76.76	1,932.13	66.1978	1,932.13	78.4625	1,932.13	69.0313	1,932.13	76.9488	1,932.13	74.5538	1,932.13	72.8428	1,932.13	77.2577	1,932.13	73.6222	1,932.13	75.912	1,932.13	78.3305	1,932.13	72.5954	1,932.13	78.7707	1,932.13	73.9883	1,932.13	75.9587	1,932.13	74.9453	1,932.13	74.3579	1,932.13	71.6494	1,932.13	72.7991	1,932.13	63.6744	1,932.13	69.064	1,932.13	49.7033	1,932.13	55.0397	1,932.13	67.104	1,932.13	71.6149	1,932.13	72.1174
2,000.24	89.3532	2,000.24	88.0281	2,000.24	88.4813	2,000.24	84.6919	2,000.24	85.6522	2,000.24	80.5392	2,000.24	80.629	2,000.24	75.3776	2,000.24	76.0361	2,000.24	76.5614	2,000.24	78.6493	2,000.24	79.1117	2,000.24	80.5714	2,000.24	78.3237	2,000.24	80.4429	2,000.24	74.4335	2,000.24	78.2886	2,000.24	72.799	2,000.24	74.3377	2,000.24	75.6099	2,000.24	78.2471	2,000.24	74.8787	2,000.24	80.3823	2,000.24	71.0378	2,000.24	77.5135	2,000.24	71.9982	2,000.24	72.6873	2,000.24	72.5802	2,000.24	72.1459	2,000.24	67.3406	2,000.24	64.6197	2,000.24	59.5188	2,000.24	62.8187	2,000.24	67.5201	2,000.24	71.6616	2,000.24	73.6553
2,070.56	89.689	2,070.56	88.2	2,070.56	89.162	2,070.56	85.378	2,070.56	86.0034	2,070.56	81.7797	2,070.56	79.852	2,070.56	77.4202	2,070.56	77.4734	2,070.56	79.5883	2,070.56	79.2251	2,070.56	79.3929	2,070.56	79.8391	2,070.56	78.2646	2,070.56	80.109	2,070.56	78.7461	2,070.56	79.4225	2,070.56	76.9414	2,070.56	75.4903	2,070.56	71.5786	2,070.56	74.689	2,070.56	76.128	2,070.56	80.2788	2,070.56	76.2375	2,070.56	80.5313	2,070.56	72.9699	2,070.56	75.2012	2,070.56	71.5003	2,070.56	70.8143	2,070.56	68.8458	2,070.56	67.1282	2,070.56	68.0044	2,070.56	68.2651	2,070.56	65.7776	2,070.56	75.3461	2,070.56	75.4925
2,143.8	88.5442	2,143.8	87.6719	2,143.8	88.2612	2,143.8	85.0439	2,143.8	85.6232	2,143.8	78.8732	2,143.8	79.662	2,143.8	75.5758	2,143.8	79.7142	2,143.8	80.0204	2,143.8	82.4022	2,143.8	79.4471	2,143.8	81.7368	2,143.8	76.8226	2,143.8	80.0892	2,143.8	77.6209	2,143.8	80.2266	2,143.8	79.0085	2,143.8	79.7527	2,143.8	77.4648	2,143.8	74.7649	2,143.8	76.2508	2,143.8	78.8237	2,143.8	74.3154	2,143.8	80.8906	2,143.8	71.9149	2,143.8	76.0082	2,143.8	74.2055	2,143.8	69.203	2,143.8	66.9653	2,143.8	71.4567	2,143.8	68.1429	2,143.8	73.4042	2,143.8	61.3182	2,143.8	78.4139	2,143.8	74.6027
2,219.24	87.9788	2,219.24	86.2283	2,219.24	88.3233	2,219.24	83.2142	2,219.24	85.8661	2,219.24	78.9006	2,219.24	80.3723	2,219.24	80.2819	2,219.24	79.2778	2,219.24	82.0727	2,219.24	82.9614	2,219.24	82.255	2,219.24	83.7339	2,219.24	81.4952	2,219.24	81.7831	2,219.24	80.665	2,219.24	79.4107	2,219.24	80.8999	2,219.24	79.8343	2,219.24	77.5106	2,219.24	78.6927	2,219.24	72.0686	2,219.24	75.7557	2,219.24	74.6137	2,219.24	78.4531	2,219.24	72.144	2,219.24	76.2239	2,219.24	61.5115	2,219.24	66.4387	2,219.24	67.8718	2,219.24	68.0249	2,219.24	65.5363	2,219.24	71.8176	2,219.24	50.5611	2,219.24	76.0564	2,219.24	72.3905
2,297.61	88.7825	2,297.61	86.6298	2,297.61	88.4838	2,297.61	82.8059	2,297.61	85.0908	2,297.61	79.3517	2,297.61	78.8427	2,297.61	81.769	2,297.61	80.1742	2,297.61	82.2888	2,297.61	83.0104	2,297.61	82.0966	2,297.61	84.3329	2,297.61	83.0869	2,297.61	83.7091	2,297.61	81.4944	2,297.61	79.6698	2,297.61	79.3689	2,297.61	75.5386	2,297.61	79.013	2,297.61	78.0448	2,297.61	77.2377	2,297.61	76.6889	2,297.61	75.2047	2,297.61	75.9329	2,297.61	75.8768	2,297.61	76.3829	2,297.61	74.982	2,297.61	70.5174	2,297.61	68.2421	2,297.61	69.4786	2,297.61	65.7799	2,297.61	74.5456	2,297.61	70.3131	2,297.61	71.6621	2,297.61	57.422
2,378.17	90.1806	2,378.17	88.0549	2,378.17	89.2718	2,378.17	83.9601	2,378.17	84.5218	2,378.17	83.3095	2,378.17	73.9225	2,378.17	81.5738	2,378.17	81.2939	2,378.17	81.6566	2,378.17	84.5766	2,378.17	84.7931	2,378.17	84.8092	2,378.17	84.594	2,378.17	83.3025	2,378.17	82.7527	2,378.17	81.4116	2,378.17	81.454	2,378.17	78.137	2,378.17	80.702	2,378.17	76.9112	2,378.17	78.8749	2,378.17	77.301	2,378.17	76.2765	2,378.17	77.0305	2,378.17	78.4976	2,378.17	78.5505	2,378.17	78.8127	2,378.17	74.5424	2,378.17	75.8726	2,378.17	73.4621	2,378.17	63.604	2,378.17	72.9009	2,378.17	70.6862	2,378.17	71.5367	2,378.17	71.3999
2,462.4	88.7293	2,462.4	87.0076	2,462.4	88.8828	2,462.4	85.3316	2,462.4	85.4017	2,462.4	81.8341	2,462.4	76.834	2,462.4	82.7628	2,462.4	80.6418	2,462.4	84.9493	2,462.4	83.9364	2,462.4	83.8542	2,462.4	83.9927	2,462.4	83.0427	2,462.4	83.4756	2,462.4	83.3481	2,462.4	81.9267	2,462.4	80.9765	2,462.4	76.2627	2,462.4	78.7134	2,462.4	73.5396	2,462.4	78.4158	2,462.4	75.7643	2,462.4	76.5463	2,462.4	76.5799	2,462.4	76.2643	2,462.4	76.2738	2,462.4	75.5919	2,462.4	73.3218	2,462.4	69.2812	2,462.4	72.2156	2,462.4	68.1663	2,462.4	73.3505	2,462.4	65.6231	2,462.4	73.0441	2,462.4	71.0385
2,548.83	88.4452	2,548.83	87.2032	2,548.83	89.095	2,548.83	84.7968	2,548.83	86.9799	2,548.83	83.3455	2,548.83	79.5775	2,548.83	85.5755	2,548.83	80.7831	2,548.83	85.121	2,548.83	85.4584	2,548.83	84.2177	2,548.83	85.8797	2,548.83	83.359	2,548.83	85.0544	2,548.83	81.8907	2,548.83	83.1884	2,548.83	81.5048	2,548.83	78.7824	2,548.83	80.306	2,548.83	77.417	2,548.83	78.9364	2,548.83	77.407	2,548.83	77.1483	2,548.83	77.2637	2,548.83	75.543	2,548.83	77.9486	2,548.83	76.8393	2,548.83	71.9083	2,548.83	73.7868	2,548.83	72.4169	2,548.83	60.6537	2,548.83	73.9207	2,548.83	66.6289	2,548.83	71.3792	2,548.83	71.4305
2,638.92	89.3373	2,638.92	87.6353	2,638.92	89.4686	2,638.92	85.4473	2,638.92	87.0323	2,638.92	86.3362	2,638.92	81.2938	2,638.92	87.2319	2,638.92	81.9298	2,638.92	86.3197	2,638.92	86.0471	2,638.92	85.7832	2,638.92	87.0862	2,638.92	85.0813	2,638.92	86.3031	2,638.92	83.9661	2,638.92	82.9173	2,638.92	82.4005	2,638.92	72.8465	2,638.92	79.7165	2,638.92	72.5175	2,638.92	77.5537	2,638.92	77.1097	2,638.92	76.1792	2,638.92	76.1459	2,638.92	76.0747	2,638.92	78.9614	2,638.92	77.155	2,638.92	76.3734	2,638.92	74.7906	2,638.92	74.1196	2,638.92	69.4124	2,638.92	76.5304	2,638.92	61.7203	2,638.92	72.8633	2,638.92	75.0106
2,731.93	89.1663	2,731.93	87.5005	2,731.93	90.2361	2,731.93	86.6638	2,731.93	87.9751	2,731.93	86.9234	2,731.93	80.6581	2,731.93	87.542	2,731.93	83.4072	2,731.93	87.1487	2,731.93	87.1035	2,731.93	85.6764	2,731.93	87.2366	2,731.93	83.1784	2,731.93	86.7469	2,731.93	81.6848	2,731.93	84.1319	2,731.93	80.1555	2,731.93	74.8867	2,731.93	78.4355	2,731.93	72.8307	2,731.93	77.4202	2,731.93	77.7652	2,731.93	76.0328	2,731.93	75.9454	2,731.93	74.4775	2,731.93	78.8279	2,731.93	75.8399	2,731.93	75.6874	2,731.93	75.3646	2,731.93	71.8678	2,731.93	72.8926	2,731.93	73.1299	2,731.93	58.4616	2,731.93	73.9699	2,731.93	75.8011
2,828.61	88.6903	2,828.61	87.7272	2,828.61	90.104	2,828.61	87.1907	2,828.61	88.9784	2,828.61	87.6488	2,828.61	83.0875	2,828.61	88.1132	2,828.61	81.8673	2,828.61	87.3884	2,828.61	87.5319	2,828.61	86.2162	2,828.61	88.2043	2,828.61	83.5945	2,828.61	86.742	2,828.61	80.3522	2,828.61	82.6712	2,828.61	80.2085	2,828.61	74.9753	2,828.61	80.3791	2,828.61	69.781	2,828.61	79.105	2,828.61	80.8914	2,828.61	76.72	2,828.61	74.2138	2,828.61	74.3715	2,828.61	76.6176	2,828.61	75.6317	2,828.61	75.5418	2,828.61	73.3687	2,828.61	65.7921	2,828.61	73.1041	2,828.61	73.0765	2,828.61	66.161	2,828.61	76.7268	2,828.61	76.2372
2,928.22	88.1698	2,928.22	87.2564	2,928.22	89.6931	2,928.22	86.2657	2,928.22	89.4043	2,928.22	87.654	2,928.22	84.8045	2,928.22	88.6027	2,928.22	82.4816	2,928.22	88.1609	2,928.22	88.1572	2,928.22	86.2426	2,928.22	88.7413	2,928.22	83.6331	2,928.22	86.3439	2,928.22	83.6161	2,928.22	82.1866	2,928.22	82.2046	2,928.22	80.9474	2,928.22	79.1713	2,928.22	77.4059	2,928.22	76.3159	2,928.22	80.6781	2,928.22	74.4101	2,928.22	77.8893	2,928.22	67.748	2,928.22	71.7526	2,928.22	71.1769	2,928.22	75.4212	2,928.22	73.0773	2,928.22	72.4799	2,928.22	70.0125	2,928.22	75.5756	2,928.22	62.4893	2,928.22	77.1776	2,928.22	77.4595
3,031.49	88.5603	3,031.49	87.5834	3,031.49	89.4726	3,031.49	86.773	3,031.49	89.5136	3,031.49	87.7881	3,031.49	86.1075	3,031.49	88.3873	3,031.49	82.024	3,031.49	87.048	3,031.49	88.3786	3,031.49	84.0625	3,031.49	89.7506	3,031.49	84.8155	3,031.49	87.107	3,031.49	82.5081	3,031.49	83.4662	3,031.49	77.2631	3,031.49	83.6732	3,031.49	77.9062	3,031.49	78.3568	3,031.49	78.2242	3,031.49	77.8313	3,031.49	77.0143	3,031.49	75.2015	3,031.49	72.7717	3,031.49	76.7597	3,031.49	73.322	3,031.49	75.8951	3,031.49	72.7956	3,031.49	72.4401	3,031.49	68.8978	3,031.49	73.5421	3,031.49	64.9898	3,031.49	76.9482	3,031.49	76.3423
3,138.43	88.8435	3,138.43	88.5706	3,138.43	88.9879	3,138.43	87.169	3,138.43	89.4166	3,138.43	87.9907	3,138.43	87.1177	3,138.43	88.1635	3,138.43	81.5167	3,138.43	86.4889	3,138.43	87.8263	3,138.43	86.1439	3,138.43	90.0163	3,138.43	83.9099	3,138.43	88.0728	3,138.43	82.1789	3,138.43	85.3929	3,138.43	84.0542	3,138.43	84.986	3,138.43	82.0967	3,138.43	81.9147	3,138.43	80.0627	3,138.43	78.8832	3,138.43	79.1591	3,138.43	71.9348	3,138.43	74.6074	3,138.43	78.4824	3,138.43	73.285	3,138.43	78.1026	3,138.43	74.51	3,138.43	74.2067	3,138.43	66.0566	3,138.43	72.0262	3,138.43	67.1796	3,138.43	76.2981	3,138.43	73.9991
3,249.02	89.0074	3,249.02	87.9772	3,249.02	89.2546	3,249.02	87.6981	3,249.02	89.8488	3,249.02	89.2192	3,249.02	88.4566	3,249.02	87.947	3,249.02	83.6187	3,249.02	87.0203	3,249.02	86.7363	3,249.02	86.2054	3,249.02	89.5921	3,249.02	85.2883	3,249.02	88.9512	3,249.02	85.8795	3,249.02	87.1516	3,249.02	84.3813	3,249.02	85.2549	3,249.02	81.2948	3,249.02	81.4346	3,249.02	79.9042	3,249.02	79.8394	3,249.02	79.028	3,249.02	74.1282	3,249.02	75.6039	3,249.02	77.3534	3,249.02	72.9863	3,249.02	79.9276	3,249.02	76.5108	3,249.02	73.4368	3,249.02	70.3895	3,249.02	69.3635	3,249.02	68.2974	3,249.02	75.3607	3,249.02	71.1357
3,363.28	88.7122	3,363.28	87.7691	3,363.28	88.8687	3,363.28	88.0951	3,363.28	90.0201	3,363.28	89.4261	3,363.28	88.7276	3,363.28	88.1331	3,363.28	84.7629	3,363.28	88.3852	3,363.28	87.3224	3,363.28	87.4546	3,363.28	89.3695	3,363.28	87.0688	3,363.28	88.5664	3,363.28	84.6372	3,363.28	86.8812	3,363.28	79.7514	3,363.28	84.5295	3,363.28	80.2515	3,363.28	81.5478	3,363.28	79.6036	3,363.28	80.8648	3,363.28	78.7913	3,363.28	76.1539	3,363.28	76.5512	3,363.28	74.883	3,363.28	72.8965	3,363.28	78.6895	3,363.28	75.7277	3,363.28	72.3705	3,363.28	71.7735	3,363.28	69.9396	3,363.28	67.724	3,363.28	75.6754	3,363.28	65.589
3,481.93	88.9878	3,481.93	87.7076	3,481.93	88.9072	3,481.93	88.6809	3,481.93	89.6576	3,481.93	88.9141	3,481.93	89.7213	3,481.93	88.5875	3,481.93	85.8481	3,481.93	88.563	3,481.93	86.6094	3,481.93	87.7281	3,481.93	89.2481	3,481.93	85.5377	3,481.93	87.7655	3,481.93	81.3601	3,481.93	85.2693	3,481.93	83.4934	3,481.93	83.0708	3,481.93	81.2469	3,481.93	77.1123	3,481.93	77.173	3,481.93	80.5877	3,481.93	76.4848	3,481.93	75.8975	3,481.93	75.8207	3,481.93	75.9831	3,481.93	74.4555	3,481.93	75.187	3,481.93	74.8384	3,481.93	74.1343	3,481.93	71.1646	3,481.93	64.7968	3,481.93	67.5816	3,481.93	74.3842	3,481.93	68.1797
3,604.98	88.9856	3,604.98	88.7245	3,604.98	88.5839	3,604.98	88.9974	3,604.98	89.3072	3,604.98	88.9947	3,604.98	89.5893	3,604.98	88.9651	3,604.98	86.7599	3,604.98	89.5128	3,604.98	85.9282	3,604.98	87.3668	3,604.98	88.3819	3,604.98	84.4756	3,604.98	87.612	3,604.98	84.3357	3,604.98	82.7991	3,604.98	80.9027	3,604.98	76.2224	3,604.98	78.6236	3,604.98	70.1492	3,604.98	79.2647	3,604.98	76.3078	3,604.98	75.4659	3,604.98	75.3446	3,604.98	73.9597	3,604.98	76.2407	3,604.98	73.6731	3,604.98	77.2363	3,604.98	75.9667	3,604.98	73.1585	3,604.98	74.8981	3,604.98	63.7336	3,604.98	67.5283	3,604.98	71.901	3,604.98	68.5504
3,732.42	89.5665	3,732.42	88.8842	3,732.42	88.7354	3,732.42	88.9902	3,732.42	89.0644	3,732.42	88.7482	3,732.42	89.6111	3,732.42	89.8794	3,732.42	87.0747	3,732.42	89.4019	3,732.42	85.6702	3,732.42	85.9574	3,732.42	87.8812	3,732.42	85.8225	3,732.42	87.4769	3,732.42	82.0725	3,732.42	83.4702	3,732.42	79.4065	3,732.42	75.9348	3,732.42	79.1568	3,732.42	71.9911	3,732.42	77.9713	3,732.42	65.0116	3,732.42	76.6043	3,732.42	67.6674	3,732.42	73.4366	3,732.42	75.3569	3,732.42	71.9	3,732.42	77.6601	3,732.42	74.5062	3,732.42	74.1603	3,732.42	74.5755	3,732.42	51.1464	3,732.42	69.978	3,732.42	72.2577	3,732.42	57.0425
3,863.53	90.1501	3,863.53	88.8487	3,863.53	89.3072	3,863.53	88.0937	3,863.53	88.2492	3,863.53	89.4636	3,863.53	89.0242	3,863.53	90.5174	3,863.53	87.4653	3,863.53	88.023	3,863.53	84.6619	3,863.53	86.9083	3,863.53	86.9369	3,863.53	83.9745	3,863.53	86.819	3,863.53	82.255	3,863.53	82.6876	3,863.53	82.769	3,863.53	78.0104	3,863.53	79.948	3,863.53	77.5675	3,863.53	78.8957	3,863.53	72.7513	3,863.53	77.0839	3,863.53	72.5202	3,863.53	74.602	3,863.53	71.0528	3,863.53	73.4356	3,863.53	68.8999	3,863.53	73.906	3,863.53	70.8559	3,863.53	74.4799	3,863.53	62.4081	3,863.53	68.9558	3,863.53	69.7925	3,863.53	61.1512
3,999.76	90.1766	3,999.76	89.0022	3,999.76	89.7174	3,999.76	88.6826	3,999.76	89.1379	3,999.76	90.1367	3,999.76	89.3242	3,999.76	89.8658	3,999.76	87.1652	3,999.76	88.3211	3,999.76	85.4381	3,999.76	86.6558	3,999.76	87.5845	3,999.76	85.7765	3,999.76	86.7286	3,999.76	85.6053	3,999.76	80.1354	3,999.76	81.0001	3,999.76	71.2028	3,999.76	78.3464	3,999.76	76.5712	3,999.76	79.2307	3,999.76	75.721	3,999.76	75.9913	3,999.76	78.4717	3,999.76	73.4212	3,999.76	60.9696	3,999.76	74.654	3,999.76	67.5342	3,999.76	76.2904	3,999.76	69.2279	3,999.76	74.5727	3,999.76	66.3973	3,999.76	69.2164	3,999.76	67.4645	3,999.76	61.4375
4,141.11	90.0163	4,141.11	88.1462	4,141.11	89.5063	4,141.11	89.5959	4,141.11	89.7816	4,141.11	91.0644	4,141.11	90.4972	4,141.11	89.8798	4,141.11	87.8681	4,141.11	88.0546	4,141.11	85.7083	4,141.11	87.558	4,141.11	88.1454	4,141.11	86.6514	4,141.11	86.6125	4,141.11	80.5926	4,141.11	80.8782	4,141.11	81.9195	4,141.11	78.8375	4,141.11	80.8915	4,141.11	77.3696	4,141.11	76.4602	4,141.11	75.777	4,141.11	76.0049	4,141.11	77.0336	4,141.11	75.0297	4,141.11	71.5401	4,141.11	73.5648	4,141.11	65.754	4,141.11	75.541	4,141.11	66.8223	4,141.11	72.7172	4,141.11	65.2856	4,141.11	70.5507	4,141.11	68.9278	4,141.11	48.979
4,286.87	90.7084	4,286.87	88.2535	4,286.87	90.215	4,286.87	89.8921	4,286.87	88.2663	4,286.87	90.7047	4,286.87	90.1333	4,286.87	89.4609	4,286.87	89.3104	4,286.87	88.4214	4,286.87	85.4269	4,286.87	87.5796	4,286.87	85.769	4,286.87	85.1685	4,286.87	85.0524	4,286.87	85.6074	4,286.87	80.634	4,286.87	82.1875	4,286.87	81.2159	4,286.87	77.6444	4,286.87	80.1361	4,286.87	78.9224	4,286.87	72.1443	4,286.87	74.3666	4,286.87	74.7064	4,286.87	73.5329	4,286.87	68.2	4,286.87	71.0551	4,286.87	71.0727	4,286.87	74.3408	4,286.87	65.8931	4,286.87	74.6766	4,286.87	49.9855	4,286.87	71.9397	4,286.87	67.0357	4,286.87	56.0387
4,438.48	90.2236	4,438.48	88.8303	4,438.48	90.2097	4,438.48	90.8305	4,438.48	88.9122	4,438.48	90.5399	4,438.48	89.1287	4,438.48	89.2215	4,438.48	88.0708	4,438.48	89.0461	4,438.48	83.2272	4,438.48	88.3641	4,438.48	82.9308	4,438.48	86.9736	4,438.48	85.1608	4,438.48	82.7968	4,438.48	83.9849	4,438.48	80.4543	4,438.48	81.3952	4,438.48	79.0217	4,438.48	73.5115	4,438.48	77.0802	4,438.48	67.4145	4,438.48	76.3622	4,438.48	71.0894	4,438.48	73.7844	4,438.48	66.7394	4,438.48	74.2258	4,438.48	72.9642	4,438.48	74.4261	4,438.48	69.4349	4,438.48	76.3798	4,438.48	53.6021	4,438.48	68.1832	4,438.48	71.5106	4,438.48	44.8725
4,594.48	90.2687	4,594.48	89.4108	4,594.48	90.9853	4,594.48	90.7517	4,594.48	89.9799	4,594.48	89.9999	4,594.48	89.8538	4,594.48	89.8293	4,594.48	88.7267	4,594.48	89.2167	4,594.48	84.1302	4,594.48	88.2864	4,594.48	85.6467	4,594.48	84.8106	4,594.48	85.3337	4,594.48	84.0796	4,594.48	86.7702	4,594.48	82.0307	4,594.48	82.8633	4,594.48	77.0141	4,594.48	69.868	4,594.48	77.2088	4,594.48	69.5774	4,594.48	75.956	4,594.48	70.9306	4,594.48	73.6584	4,594.48	71.7649	4,594.48	74.3988	4,594.48	68.9891	4,594.48	73.9686	4,594.48	63.0643	4,594.48	74.9033	4,594.48	49.0624	4,594.48	69.4941	4,594.48	71.2434	4,594.48	50.5247
4,757.08	90.4386	4,757.08	89.6623	4,757.08	90.528	4,757.08	89.8807	4,757.08	89.5086	4,757.08	89.2068	4,757.08	90.2308	4,757.08	89.8563	4,757.08	89.3258	4,757.08	89.6076	4,757.08	85.2391	4,757.08	87.5962	4,757.08	84.4722	4,757.08	85.589	4,757.08	86.3054	4,757.08	82.6801	4,757.08	88.7771	4,757.08	78.3624	4,757.08	83.8478	4,757.08	78.8283	4,757.08	76.3555	4,757.08	77.7093	4,757.08	75.016	4,757.08	75.8939	4,757.08	70.8538	4,757.08	72.3291	4,757.08	69.1294	4,757.08	70.6206	4,757.08	69.2885	4,757.08	73.2146	4,757.08	50.3055	4,757.08	74.6279	4,757.08	66.4761	4,757.08	69.0359	4,757.08	66.1027	4,757.08	60.3552
4,924.8	89.8421	4,924.8	89.0246	4,924.8	90.8484	4,924.8	90.1852	4,924.8	89.7903	4,924.8	89.7117	4,924.8	90.0656	4,924.8	90.6864	4,924.8	89.455	4,924.8	88.6948	4,924.8	85.9871	4,924.8	87.1178	4,924.8	84.4527	4,924.8	84.6307	4,924.8	86.6698	4,924.8	84.1595	4,924.8	87.874	4,924.8	81.0355	4,924.8	82.5038	4,924.8	76.9684	4,924.8	77.5357	4,924.8	76.802	4,924.8	73.8187	4,924.8	75.0777	4,924.8	52.8126	4,924.8	71.4675	4,924.8	69.1654	4,924.8	70.5331	4,924.8	60.6391	4,924.8	74.6364	4,924.8	61.8312	4,924.8	74.5366	4,924.8	69.4161	4,924.8	69.3357	4,924.8	66.1899	4,924.8	55.9878
5,098.39	89.8188	5,098.39	89.2667	5,098.39	91.0215	5,098.39	89.1448	5,098.39	89.9708	5,098.39	89.202	5,098.39	90.0063	5,098.39	90.4545	5,098.39	89.8414	5,098.39	88.1963	5,098.39	86.5225	5,098.39	86.7839	5,098.39	82.8836	5,098.39	85.2467	5,098.39	86.24	5,098.39	83.3582	5,098.39	87.2458	5,098.39	78.055	5,098.39	78.6659	5,098.39	77.1903	5,098.39	73.451	5,098.39	74.6928	5,098.39	75.6655	5,098.39	74.8742	5,098.39	61.9638	5,098.39	73.6869	5,098.39	69.4544	5,098.39	68.4587	5,098.39	70.3871	5,098.39	73.4623	5,098.39	61.6599	5,098.39	74.588	5,098.39	67.5666	5,098.39	67.1641	5,098.39	62.2413	5,098.39	52.2526
5,277.83	89.0199	5,277.83	88.4447	5,277.83	90.0387	5,277.83	88.8272	5,277.83	89.7501	5,277.83	90.1465	5,277.83	90.0821	5,277.83	90.382	5,277.83	90.06	5,277.83	87.8789	5,277.83	87.758	5,277.83	86.4167	5,277.83	83.7519	5,277.83	83.1807	5,277.83	85.8029	5,277.83	82.7942	5,277.83	84.8757	5,277.83	79.3361	5,277.83	77.4647	5,277.83	76.662	5,277.83	73.2053	5,277.83	75.1287	5,277.83	74.6051	5,277.83	73.7577	5,277.83	63.3	5,277.83	69.2895	5,277.83	68.1576	5,277.83	69.6515	5,277.83	64.9943	5,277.83	72.6933	5,277.83	51.7561	5,277.83	72.5579	5,277.83	62.9709	5,277.83	65.6954	5,277.83	59.6619	5,277.83	57.4837
5,463.87	89.1174	5,463.87	88.0296	5,463.87	90.2861	5,463.87	88.5355	5,463.87	89.6694	5,463.87	90.0918	5,463.87	89.0498	5,463.87	89.4431	5,463.87	89.1925	5,463.87	87.5449	5,463.87	87.6146	5,463.87	85.2778	5,463.87	84.6151	5,463.87	83.4947	5,463.87	84.9397	5,463.87	81.0901	5,463.87	84.0073	5,463.87	78.3281	5,463.87	78.8592	5,463.87	77.6014	5,463.87	74.4174	5,463.87	74.5285	5,463.87	73.0982	5,463.87	74.8122	5,463.87	69.7242	5,463.87	73.1564	5,463.87	70.4085	5,463.87	71.5749	5,463.87	62.1752	5,463.87	73.1624	5,463.87	49.8701	5,463.87	73.9191	5,463.87	68.3448	5,463.87	65.8548	5,463.87	49.4027	5,463.87	65.7231
5,656.49	87.9674	5,656.49	88.0039	5,656.49	89.1825	5,656.49	89.1205	5,656.49	89.4433	5,656.49	89.9514	5,656.49	88.4631	5,656.49	89.1158	5,656.49	87.9529	5,656.49	87.8788	5,656.49	87.0625	5,656.49	85.358	5,656.49	85.7741	5,656.49	84.7881	5,656.49	84.5399	5,656.49	82.9547	5,656.49	81.4962	5,656.49	80.667	5,656.49	80.2688	5,656.49	77.8752	5,656.49	78.4436	5,656.49	75.1768	5,656.49	74.6798	5,656.49	74.5319	5,656.49	66.929	5,656.49	71.4969	5,656.49	68.0414	5,656.49	72.0403	5,656.49	66.1897	5,656.49	73.0772	5,656.49	58.4741	5,656.49	73.9766	5,656.49	64.6296	5,656.49	66.8598	5,656.49	64.7113	5,656.49	59.437
5,856.45	88.5895	5,856.45	88.5276	5,856.45	89.0561	5,856.45	88.9982	5,856.45	89.2172	5,856.45	89.084	5,856.45	88.8181	5,856.45	88.8965	5,856.45	87.9208	5,856.45	87.9226	5,856.45	87.3815	5,856.45	86.7761	5,856.45	86.9397	5,856.45	84.8638	5,856.45	84.713	5,856.45	80.7527	5,856.45	80.4025	5,856.45	79.811	5,856.45	80.8371	5,856.45	77.5037	5,856.45	79.1832	5,856.45	75.6689	5,856.45	73.9332	5,856.45	73.3222	5,856.45	68.6977	5,856.45	71.7476	5,856.45	65.6126	5,856.45	69.6373	5,856.45	54.8312	5,856.45	70.5634	5,856.45	64.6294	5,856.45	73.6324	5,856.45	58.6969	5,856.45	67.4838	5,856.45	58.3665	5,856.45	62.526
6,062.99	89.2941	6,062.99	89.3024	6,062.99	89.0494	6,062.99	89.2239	6,062.99	88.3458	6,062.99	88.3641	6,062.99	87.6394	6,062.99	88.5355	6,062.99	87.7389	6,062.99	87.6968	6,062.99	87.4942	6,062.99	86.9074	6,062.99	86.5778	6,062.99	84.3493	6,062.99	85.6925	6,062.99	81.5383	6,062.99	80.73	6,062.99	78.2906	6,062.99	81.1127	6,062.99	77.0392	6,062.99	77.7825	6,062.99	74.6323	6,062.99	72.7476	6,062.99	73.1386	6,062.99	69.4044	6,062.99	71.1086	6,062.99	68.3385	6,062.99	71.0687	6,062.99	66.5648	6,062.99	71.5541	6,062.99	65.1762	6,062.99	73.5487	6,062.99	62.6099	6,062.99	65.2013	6,062.99	58.8857	6,062.99	63.9489
6,276.86	90.1814	6,276.86	90.3279	6,276.86	89.2711	6,276.86	88.6812	6,276.86	88.1075	6,276.86	87.3646	6,276.86	87.2679	6,276.86	88.2025	6,276.86	87.2987	6,276.86	87.4486	6,276.86	85.507	6,276.86	86.2409	6,276.86	86.5865	6,276.86	83.6373	6,276.86	85.0715	6,276.86	82.3039	6,276.86	81.4423	6,276.86	79.843	6,276.86	78.6956	6,276.86	77.2068	6,276.86	68.6819	6,276.86	73.6759	6,276.86	70.3788	6,276.86	73.1773	6,276.86	63.7048	6,276.86	71.5819	6,276.86	61.9008	6,276.86	69.9234	6,276.86	69.7313	6,276.86	71.8088	6,276.86	64.1507	6,276.86	73.9094	6,276.86	54.7198	6,276.86	65.817	6,276.86	47.7092	6,276.86	63.6547
6,498.05	90.4805	6,498.05	90.6204	6,498.05	89.1129	6,498.05	88.693	6,498.05	88.1449	6,498.05	87.8697	6,498.05	87.7611	6,498.05	88.2701	6,498.05	88.0219	6,498.05	86.0653	6,498.05	86.5787	6,498.05	85.698	6,498.05	85.84	6,498.05	84.4254	6,498.05	82.0672	6,498.05	81.9889	6,498.05	79.0255	6,498.05	78.4781	6,498.05	75.1112	6,498.05	77.7547	6,498.05	66.8849	6,498.05	75.2964	6,498.05	73.6042	6,498.05	73.8563	6,498.05	61.7238	6,498.05	73.3947	6,498.05	54.8711	6,498.05	68.0989	6,498.05	64.5782	6,498.05	71.4857	6,498.05	52.5954	6,498.05	72.5067	6,498.05	63.3858	6,498.05	66.7572	6,498.05	59.3358	6,498.05	66.0283
6,727.29	90.6028	6,727.29	90.8559	6,727.29	89.155	6,727.29	89.0507	6,727.29	87.711	6,727.29	88.3228	6,727.29	87.8036	6,727.29	87.6982	6,727.29	88.0485	6,727.29	86.1924	6,727.29	86.1996	6,727.29	85.6307	6,727.29	84.0818	6,727.29	83.6682	6,727.29	75.2015	6,727.29	82.2022	6,727.29	77.3592	6,727.29	78.8584	6,727.29	73.048	6,727.29	76.0269	6,727.29	67.9922	6,727.29	74.6849	6,727.29	69.3247	6,727.29	73.5053	6,727.29	64.849	6,727.29	70.7386	6,727.29	62.609	6,727.29	65.6066	6,727.29	48.2321	6,727.29	70.3065	6,727.29	55.845	6,727.29	71.2603	6,727.29	62.4657	6,727.29	68.7667	6,727.29	54.3693	6,727.29	63.8947
6,964.6	90.3164	6,964.6	90.3385	6,964.6	88.9832	6,964.6	89.4407	6,964.6	88.2083	6,964.6	88.6856	6,964.6	88.2868	6,964.6	87.5689	6,964.6	87.8527	6,964.6	86.8795	6,964.6	86.2441	6,964.6	85.5446	6,964.6	81.4677	6,964.6	83.6091	6,964.6	71.4398	6,964.6	81.7504	6,964.6	77.641	6,964.6	78.2645	6,964.6	73.8043	6,964.6	76.6063	6,964.6	67.8007	6,964.6	73.5558	6,964.6	69.1373	6,964.6	71.7398	6,964.6	59.9634	6,964.6	71.5959	6,964.6	66.8044	6,964.6	66.7158	6,964.6	55.6443	6,964.6	68.64	6,964.6	52.2888	6,964.6	69.6373	6,964.6	58.219	6,964.6	68.7916	6,964.6	60.2951	6,964.6	62.2747
7,209.96	89.795	7,209.96	89.826	7,209.96	89.1459	7,209.96	89.3424	7,209.96	88.3625	7,209.96	88.1186	7,209.96	88.1327	7,209.96	87.8559	7,209.96	87.1919	7,209.96	87.3054	7,209.96	84.1605	7,209.96	85.6417	7,209.96	78.0634	7,209.96	84.1198	7,209.96	77.6925	7,209.96	80.6439	7,209.96	79.4333	7,209.96	77.1966	7,209.96	75.4691	7,209.96	74.5658	7,209.96	69.5379	7,209.96	71.5588	7,209.96	67.0623	7,209.96	71.0811	7,209.96	66.6806	7,209.96	69.2368	7,209.96	65.6039	7,209.96	67.1529	7,209.96	51.1695	7,209.96	67.423	7,209.96	54.4375	7,209.96	70.2666	7,209.96	57.9264	7,209.96	67.2214	7,209.96	57.0541	7,209.96	62.2249
7,464.11	89.2906	7,464.11	89.4358	7,464.11	88.8173	7,464.11	88.7091	7,464.11	88.2257	7,464.11	87.9022	7,464.11	87.092	7,464.11	88.2586	7,464.11	85.1981	7,464.11	87.2417	7,464.11	81.4386	7,464.11	86.0123	7,464.11	80.3206	7,464.11	83.6529	7,464.11	81.4118	7,464.11	80.4128	7,464.11	80.6902	7,464.11	76.4743	7,464.11	76.8635	7,464.11	75.0402	7,464.11	74.4648	7,464.11	71.5895	7,464.11	65.2203	7,464.11	69.5732	7,464.11	67.7349	7,464.11	70.5514	7,464.11	59.8759	7,464.11	68.4858	7,464.11	60.0715	7,464.11	65.8362	7,464.11	50.307	7,464.11	68.4582	7,464.11	48.868	7,464.11	63.3702	7,464.11	54.4762	7,464.11	63.5246
7,727.78	88.8166	7,727.78	89.157	7,727.78	88.21	7,727.78	88.3895	7,727.78	87.7655	7,727.78	87.8193	7,727.78	86.9884	7,727.78	87.9231	7,727.78	85.4302	7,727.78	86.9494	7,727.78	83.7365	7,727.78	85.901	7,727.78	82.8808	7,727.78	83.768	7,727.78	81.0457	7,727.78	80.6875	7,727.78	79.4586	7,727.78	76.4158	7,727.78	76.5449	7,727.78	74.1713	7,727.78	74.528	7,727.78	72.4344	7,727.78	56.1445	7,727.78	68.8568	7,727.78	63.9419	7,727.78	69.0707	7,727.78	53.0735	7,727.78	68.6942	7,727.78	61.4257	7,727.78	66.3661	7,727.78	59.2998	7,727.78	67.8562	7,727.78	55.9778	7,727.78	62.1915	7,727.78	54.0871	7,727.78	63.9426
8,000.24	89.2478	8,000.24	89.532	8,000.24	88.81	8,000.24	88.716	8,000.24	87.4535	8,000.24	87.3789	8,000.24	86.2236	8,000.24	87.7507	8,000.24	85.0555	8,000.24	86.9386	8,000.24	83.9793	8,000.24	85.5846	8,000.24	81.8206	8,000.24	83.2147	8,000.24	79.365	8,000.24	79.7295	8,000.24	76.9075	8,000.24	76.5683	8,000.24	75.8078	8,000.24	72.9252	8,000.24	73.6637	8,000.24	70.1095	8,000.24	65.6947	8,000.24	69.8324	8,000.24	63.7165	8,000.24	68.0557	8,000.24	56.295	8,000.24	68.4953	8,000.24	59.5302	8,000.24	62.812	8,000.24	62.8538	8,000.24	67.7223	8,000.24	48.9474	8,000.24	60.4145	8,000.24	52.256	8,000.24	61.8593
8,282.23	89.9262	8,282.23	90.3116	8,282.23	89.0509	8,282.23	88.6694	8,282.23	87.8403	8,282.23	87.2352	8,282.23	86.242	8,282.23	87.7566	8,282.23	85.2181	8,282.23	86.534	8,282.23	83.8678	8,282.23	84.8022	8,282.23	81.8324	8,282.23	81.6595	8,282.23	77.1568	8,282.23	77.8236	8,282.23	71.9637	8,282.23	74.3819	8,282.23	75.035	8,282.23	72.6752	8,282.23	70.3785	8,282.23	70.3626	8,282.23	69.9409	8,282.23	67.0018	8,282.23	71.6143	8,282.23	65.4212	8,282.23	63.5289	8,282.23	67.587	8,282.23	62.5797	8,282.23	61.3027	8,282.23	61.9896	8,282.23	66.991	8,282.23	55.542	8,282.23	56.4239	8,282.23	56.8206	8,282.23	61.1151
8,574.46	90.5522	8,574.46	90.3848	8,574.46	89.8919	8,574.46	88.304	8,574.46	88.5702	8,574.46	87.311	8,574.46	86.7051	8,574.46	87.1306	8,574.46	84.9523	8,574.46	85.5764	8,574.46	83.485	8,574.46	83.7891	8,574.46	80.8012	8,574.46	80.6269	8,574.46	72.6665	8,574.46	76.4722	8,574.46	76.844	8,574.46	72.651	8,574.46	76.2322	8,574.46	71.5952	8,574.46	66.1954	8,574.46	68.6111	8,574.46	71.1158	8,574.46	65.5352	8,574.46	72.5975	8,574.46	65.0697	8,574.46	55.2249	8,574.46	66.2659	8,574.46	63.5331	8,574.46	52.5488	8,574.46	53.3565	8,574.46	65.5802	8,574.46	59.3711	8,574.46	49.0536	8,574.46	54.5777	8,574.46	58.6558
8,876.22	90.0817	8,876.22	89.5264	8,876.22	89.8697	8,876.22	88.4523	8,876.22	88.8694	8,876.22	87.4727	8,876.22	87.2278	8,876.22	86.2182	8,876.22	85.98	8,876.22	84.6747	8,876.22	84.6238	8,876.22	82.3241	8,876.22	80.2405	8,876.22	80.3436	8,876.22	76.1036	8,876.22	76.0245	8,876.22	79.9332	8,876.22	71.9584	8,876.22	77.1522	8,876.22	69.3691	8,876.22	69.2551	8,876.22	65.8272	8,876.22	71.2114	8,876.22	64.6372	8,876.22	72.2266	8,876.22	63.6739	8,876.22	44.1391	8,876.22	63.4965	8,876.22	56.1643	8,876.22	57.6019	8,876.22	57.6593	8,876.22	65.6233	8,876.22	35.4323	8,876.22	54.8826	8,876.22	63.9051	8,876.22	56.8585
9,189.7	89.4143	9,189.7	88.664	9,189.7	89.5036	9,189.7	88.3532	9,189.7	88.5808	9,189.7	87.2685	9,189.7	87.487	9,189.7	86.4648	9,189.7	86.9346	9,189.7	83.1586	9,189.7	84.1555	9,189.7	81.9057	9,189.7	78.2024	9,189.7	79.2229	9,189.7	78.863	9,189.7	76.1043	9,189.7	79.9834	9,189.7	72.0382	9,189.7	73.7694	9,189.7	67.6987	9,189.7	58.8736	9,189.7	66.0102	9,189.7	73.0639	9,189.7	63.5023	9,189.7	71.6055	9,189.7	62.0267	9,189.7	61.3737	9,189.7	63.7172	9,189.7	54.5345	9,189.7	55.6577	9,189.7	41.7828	9,189.7	63.1833	9,189.7	56.6809	9,189.7	49.6247	9,189.7	56.1734	9,189.7	60.7988
9,513.43	89.1586	9,513.43	88.6143	9,513.43	89.2326	9,513.43	88.322	9,513.43	88.1516	9,513.43	87.9287	9,513.43	87.1543	9,513.43	86.5197	9,513.43	86.5765	9,513.43	83.0309	9,513.43	83.1559	9,513.43	82.2453	9,513.43	80.4178	9,513.43	78.65	9,513.43	79.0808	9,513.43	76.5964	9,513.43	78.0792	9,513.43	71.8942	9,513.43	69.7163	9,513.43	67.2501	9,513.43	67.9319	9,513.43	67.2141	9,513.43	71.0118	9,513.43	65.6397	9,513.43	71.5894	9,513.43	62.0754	9,513.43	62.5585	9,513.43	66.148	9,513.43	55.8378	9,513.43	53.8289	9,513.43	55.1583	9,513.43	62.2925	9,513.43	49.3193	9,513.43	43.1843	9,513.43	56.0519	9,513.43	57.4967
9,848.88	89.3317	9,848.88	89.1846	9,848.88	89.2535	9,848.88	89.0792	9,848.88	87.6341	9,848.88	88.2432	9,848.88	86.2548	9,848.88	86.7428	9,848.88	86.0431	9,848.88	84.5958	9,848.88	83.0968	9,848.88	82.0634	9,848.88	79.7214	9,848.88	80.0832	9,848.88	78.0459	9,848.88	76.7157	9,848.88	74.2257	9,848.88	72.923	9,848.88	68.1422	9,848.88	69.3631	9,848.88	69.0569	9,848.88	66.3466	9,848.88	69.8545	9,848.88	64.8402	9,848.88	71.3375	9,848.88	64.0845	9,848.88	59.8156	9,848.88	67.2702	9,848.88	52.9899	9,848.88	60.0372	9,848.88	56.0456	9,848.88	63.9328	9,848.88	58.3167	9,848.88	38.8382	9,848.88	58.1696	9,848.88	54.5916
10,196.8	89.4576	10,196.8	89.9361	10,196.8	89.4569	10,196.8	89.4307	10,196.8	87.4377	10,196.8	87.8198	10,196.8	85.4103	10,196.8	86.9309	10,196.8	84.6035	10,196.8	84.2459	10,196.8	82.4079	10,196.8	82.546	10,196.8	80.4233	10,196.8	80.9835	10,196.8	78.7947	10,196.8	77.2426	10,196.8	70.5035	10,196.8	72.9839	10,196.8	71.9279	10,196.8	71.1022	10,196.8	64.4566	10,196.8	65.7634	10,196.8	72.6194	10,196.8	63.1882	10,196.8	72.9947	10,196.8	66.896	10,196.8	58.3811	10,196.8	65.5386	10,196.8	57.1083	10,196.8	63.1039	10,196.8	57.8317	10,196.8	64.8325	10,196.8	58.2475	10,196.8	48.7159	10,196.8	59.6787	10,196.8	53.8438
10,556.4	89.4339	10,556.4	89.9137	10,556.4	89.238	10,556.4	88.8167	10,556.4	87.5149	10,556.4	87.2491	10,556.4	85.6952	10,556.4	85.6238	10,556.4	83.5418	10,556.4	82.9621	10,556.4	82.2836	10,556.4	82.5562	10,556.4	81.4644	10,556.4	80.5602	10,556.4	78.5704	10,556.4	76.1843	10,556.4	72.988	10,556.4	71.3923	10,556.4	70.6915	10,556.4	70.4015	10,556.4	64.803	10,556.4	65.6763	10,556.4	73.027	10,556.4	60.6528	10,556.4	72.0752	10,556.4	63.8823	10,556.4	57.9677	10,556.4	60.8766	10,556.4	61.5572	10,556.4	63.0006	10,556.4	59.6157	10,556.4	62.2101	10,556.4	54.97	10,556.4	55.5372	10,556.4	59.9285	10,556.4	58.873
10,928.5	89.1377	10,928.5	88.9592	10,928.5	88.9419	10,928.5	88.124	10,928.5	87.2904	10,928.5	86.482	10,928.5	85.6062	10,928.5	84.0585	10,928.5	83.6294	10,928.5	82.2668	10,928.5	82.6634	10,928.5	81.0174	10,928.5	81.4392	10,928.5	78.7575	10,928.5	76.0305	10,928.5	73.7391	10,928.5	70.782	10,928.5	70.2804	10,928.5	66.9464	10,928.5	65.696	10,928.5	56.3025	10,928.5	62.1938	10,928.5	73.4022	10,928.5	59.873	10,928.5	72.9488	10,928.5	57.2052	10,928.5	54.8926	10,928.5	57.482	10,928.5	63.8015	10,928.5	60.1649	10,928.5	52.6884	10,928.5	60.5447	10,928.5	57.73	10,928.5	48.235	10,928.5	59.4473	10,928.5	59.9589
11,313.7	88.5494	11,313.7	88.3594	11,313.7	88.6829	11,313.7	87.7973	11,313.7	87.3584	11,313.7	85.6845	11,313.7	85.5521	11,313.7	83.6758	11,313.7	83.5283	11,313.7	80.7759	11,313.7	82.4647	11,313.7	79.3299	11,313.7	79.6857	11,313.7	76.6576	11,313.7	70.114	11,313.7	71.1203	11,313.7	70.48	11,313.7	68.2965	11,313.7	67.677	11,313.7	61.3189	11,313.7	66.2617	11,313.7	59.5495	11,313.7	71.3016	11,313.7	54.4809	11,313.7	70.0545	11,313.7	52.2903	11,313.7	55.0807	11,313.7	54.9021	11,313.7	61.0542	11,313.7	56.3212	11,313.7	48.5738	11,313.7	58.8538	11,313.7	46.7424	11,313.7	48.6889	11,313.7	58.1698	11,313.7	58.9114
11,712.9	88.0684	11,712.9	88.3671	11,712.9	88.368	11,712.9	87.5136	11,712.9	87.5301	11,712.9	85.2778	11,712.9	85.859	11,712.9	82.9914	11,712.9	83.747	11,712.9	79.7775	11,712.9	81.7885	11,712.9	77.3013	11,712.9	75.8082	11,712.9	73.8798	11,712.9	73.2513	11,712.9	66.9456	11,712.9	70.8023	11,712.9	65.4753	11,712.9	69.1673	11,712.9	56.7126	11,712.9	64.1371	11,712.9	55.7214	11,712.9	70.8425	11,712.9	52.0994	11,712.9	68.6825	11,712.9	51.121	11,712.9	56.867	11,712.9	54.03	11,712.9	61.5988	11,712.9	59.5907	11,712.9	43.6698	11,712.9	55.613	11,712.9	56.3661	11,712.9	53.2924	11,712.9	52.0292	11,712.9	58.9159
12,126	88.393	12,126	88.5639	12,126	88.3946	12,126	86.9524	12,126	87.5644	12,126	84.6134	12,126	86.2075	12,126	82.3241	12,126	84.3302	12,126	79.0685	12,126	82.5256	12,126	75.2632	12,126	76.3884	12,126	72.1248	12,126	76.0033	12,126	65.5855	12,126	65.7156	12,126	61.6475	12,126	66.3249	12,126	57.4199	12,126	62.253	12,126	52.1196	12,126	72.9851	12,126	48.7931	12,126	72.0379	12,126	55.9866	12,126	55.7497	12,126	43.0731	12,126	59.9387	12,126	62.8006	12,126	47.3269	12,126	52.0463	12,126	57.3061	12,126	56.5068	12,126	53.2246	12,126	59.5918
12,553.7	88.9361	12,553.7	88.4574	12,553.7	88.7814	12,553.7	86.0471	12,553.7	88.0175	12,553.7	83.9979	12,553.7	86.264	12,553.7	81.8444	12,553.7	84.3978	12,553.7	78.3195	12,553.7	82.3476	12,553.7	74.7682	12,553.7	76.8153	12,553.7	70.6803	12,553.7	74.7282	12,553.7	65.3937	12,553.7	66.3571	12,553.7	62.42	12,553.7	66.6811	12,553.7	56.7426	12,553.7	63.0326	12,553.7	56.0047	12,553.7	72.5918	12,553.7	47.5746	12,553.7	73.5829	12,553.7	56.7113	12,553.7	51.2193	12,553.7	47.8984	12,553.7	59.6288	12,553.7	62.8184	12,553.7	51.6588	12,553.7	53.5083	12,553.7	58.1049	12,553.7	56.5459	12,553.7	46.2139	12,553.7	59.7799
12,996.1	89.2001	12,996.1	88.133	12,996.1	89.2925	12,996.1	85.8769	12,996.1	88.3842	12,996.1	83.9187	12,996.1	86.6227	12,996.1	81.7191	12,996.1	84.9259	12,996.1	77.6021	12,996.1	81.7864	12,996.1	73.9344	12,996.1	76.6177	12,996.1	70.0795	12,996.1	72.2194	12,996.1	63.4382	12,996.1	63.8988	12,996.1	62.357	12,996.1	62.0975	12,996.1	54.541	12,996.1	63.1394	12,996.1	54.9323	12,996.1	71.8664	12,996.1	52.3417	12,996.1	72.086	12,996.1	55.6453	12,996.1	40.2448	12,996.1	49.068	12,996.1	50.3212	12,996.1	60.4538	12,996.1	47.1846	12,996.1	53.2611	12,996.1	56.552	12,996.1	52.1998	12,996.1	55.8366	12,996.1	56.1049
13,454.6	89.1308	13,454.6	88.3078	13,454.6	89.7125	13,454.6	86.3494	13,454.6	88.7622	13,454.6	83.9233	13,454.6	86.6841	13,454.6	81.0461	13,454.6	84.3014	13,454.6	76.5124	13,454.6	80.419	13,454.6	71.8424	13,454.6	74.6694	13,454.6	69.0743	13,454.6	67.0397	13,454.6	62.4672	13,454.6	62.8754	13,454.6	60.9672	13,454.6	55.9895	13,454.6	49.3855	13,454.6	63.2131	13,454.6	51.9135	13,454.6	71.5861	13,454.6	53.4334	13,454.6	70.7744	13,454.6	50.1432	13,454.6	52.4706	13,454.6	49.5758	13,454.6	53.368	13,454.6	59.0271	13,454.6	49.8481	13,454.6	51.6187	13,454.6	56.8423	13,454.6	52.7362	13,454.6	56.6934	13,454.6	51.2033
13,928.5	88.8803	13,928.5	88.3434	13,928.5	89.2473	13,928.5	86.14	13,928.5	88.4985	13,928.5	83.567	13,928.5	86.3605	13,928.5	80.106	13,928.5	83.1947	13,928.5	75.1992	13,928.5	78.4061	13,928.5	70.0447	13,928.5	70.6374	13,928.5	66.6689	13,928.5	64.2097	13,928.5	60.0568	13,928.5	54.8111	13,928.5	58.9023	13,928.5	36.8773	13,928.5	40.1694	13,928.5	60.1712	13,928.5	49.1309	13,928.5	70.9769	13,928.5	51.4537	13,928.5	71.0465	13,928.5	44.156	13,928.5	50.0482	13,928.5	48.7042	13,928.5	51.8763	13,928.5	57.1541	13,928.5	48.6247	13,928.5	52.3864	13,928.5	54.9662	13,928.5	51.8127	13,928.5	52.0845	13,928.5	47.9226
14,419.9	88.9335	14,419.9	88.0924	14,419.9	88.6917	14,419.9	85.4798	14,419.9	87.5702	14,419.9	82.5792	14,419.9	85.1196	14,419.9	78.6027	14,419.9	81.3506	14,419.9	71.906	14,419.9	75.5869	14,419.9	65.4551	14,419.9	66.7875	14,419.9	60.016	14,419.9	53.1167	14,419.9	52.4267	14,419.9	55.9108	14,419.9	56.791	14,419.9	53.7448	14,419.9	45.3957	14,419.9	53.7783	14,419.9	38.7495	14,419.9	68.4671	14,419.9	50.7468	14,419.9	68.1546	14,419.9	46.5739	14,419.9	41.9449	14,419.9	48.5015	14,419.9	41.6318	14,419.9	54.8799	14,419.9	41.2977	14,419.9	51.5365	14,419.9	51.7823	14,419.9	51.4609	14,419.9	49.157	14,419.9	43.7849
14,928.2	89.0498	14,928.2	87.712	14,928.2	88.7639	14,928.2	84.8118	14,928.2	87.1929	14,928.2	81.9555	14,928.2	84.1259	14,928.2	77.12	14,928.2	80.1714	14,928.2	70.7299	14,928.2	71.8904	14,928.2	64.4486	14,928.2	47.0981	14,928.2	65.2689	14,928.2	47.0383	14,928.2	60.6647	14,928.2	62.066	14,928.2	62.7635	14,928.2	59.9401	14,928.2	52.0238	14,928.2	53.0494	14,928.2	50.2493	14,928.2	69.8989	14,928.2	54.6059	14,928.2	69.0301	14,928.2	52.7165	14,928.2	53.1503	14,928.2	54.7018	14,928.2	54.0635	14,928.2	56.5205	14,928.2	42.4268	14,928.2	52.026	14,928.2	48.6316	14,928.2	51.9997	14,928.2	55.3619	14,928.2	52.0783
15,454.8	88.406	15,454.8	86.918	15,454.8	88.2659	15,454.8	84.036	15,454.8	86.634	15,454.8	81.2598	15,454.8	83.494	15,454.8	76.1103	15,454.8	78.6238	15,454.8	71.0018	15,454.8	67.8892	15,454.8	66.6056	15,454.8	49.5389	15,454.8	64.6382	15,454.8	55.32	15,454.8	59.7059	15,454.8	60.6426	15,454.8	62.9236	15,454.8	59.7671	15,454.8	53.796	15,454.8	52.6786	15,454.8	48.8918	15,454.8	69.1277	15,454.8	54.58	15,454.8	67.655	15,454.8	55.8625	15,454.8	54.5477	15,454.8	55.6177	15,454.8	53.1413	15,454.8	55.7881	15,454.8	31.3881	15,454.8	53.0603	15,454.8	49.4293	15,454.8	52.26	15,454.8	53.4822	15,454.8	53.3369
15,999.8	86.7048	15,999.8	85.2623	15,999.8	86.6962	15,999.8	82.6644	15,999.8	85.2211	15,999.8	79.6134	15,999.8	82.0351	15,999.8	74.0228	15,999.8	75.4372	15,999.8	69.0918	15,999.8	61.8778	15,999.8	63.604	15,999.8	58.0385	15,999.8	60.8624	15,999.8	59.4805	15,999.8	55.2863	15,999.8	59.74	15,999.8	60.8136	15,999.8	62.1716	15,999.8	53.3166	15,999.8	52.9171	15,999.8	47.9137	15,999.8	68.2888	15,999.8	50.0911	15,999.8	65.3299	15,999.8	56.0162	15,999.8	45.8868	15,999.8	54.0612	15,999.8	53.9426	15,999.8	48.7903	15,999.8	43.3546	15,999.8	51.2519	15,999.8	41.8453	15,999.8	51.0938	15,999.8	46.5328	15,999.8	51.3593
16,564.5	84.8338	16,564.5	83.0905	16,564.5	84.4743	16,564.5	81.0439	16,564.5	82.995	16,564.5	77.3878	16,564.5	79.5683	16,564.5	73.0426	16,564.5	72.6995	16,564.5	66.4948	16,564.5	66.4237	16,564.5	59.3708	16,564.5	59.8857	16,564.5	58.7141	16,564.5	58.2151	16,564.5	57.2739	16,564.5	64.3526	16,564.5	59.8683	16,564.5	60.9364	16,564.5	51.0346	16,564.5	52.08	16,564.5	48.5665	16,564.5	66.9107	16,564.5	47.714	16,564.5	64.4357	16,564.5	55.6047	16,564.5	50.6576	16,564.5	53.442	16,564.5	55.6146	16,564.5	40.8049	16,564.5	43.527	16,564.5	48.7613	16,564.5	44.6447	16,564.5	50.3437	16,564.5	50.6299	16,564.5	51.1079
17,148.2	86.9286	17,148.2	85.3803	17,148.2	86.4614	17,148.2	82.8629	17,148.2	84.0402	17,148.2	78.2101	17,148.2	79.6995	17,148.2	74.6199	17,148.2	74.1673	17,148.2	66.9724	17,148.2	66.6394	17,148.2	59.4186	17,148.2	57.1092	17,148.2	59.2909	17,148.2	49.8874	17,148.2	56.5872	17,148.2	62.4875	17,148.2	59.785	17,148.2	58.5293	17,148.2	50.9742	17,148.2	54.723	17,148.2	46.9414	17,148.2	67.5313	17,148.2	49.0878	17,148.2	65.0895	17,148.2	57.7367	17,148.2	52.7383	17,148.2	53.7255	17,148.2	55.4878	17,148.2	46.9138	17,148.2	46.2816	17,148.2	52.2672	17,148.2	45.5614	17,148.2	53.6254	17,148.2	48.7617	17,148.2	48.5087
17,753.2	86.8901	17,753.2	85.413	17,753.2	86.504	17,753.2	82.1911	17,753.2	83.6192	17,753.2	76.9176	17,753.2	78.765	17,753.2	72.3762	17,753.2	71.9715	17,753.2	62.4826	17,753.2	61.1238	17,753.2	51.4827	17,753.2	47.8471	17,753.2	53.0493	17,753.2	60.3519	17,753.2	50.3918	17,753.2	59.8458	17,753.2	56.424	17,753.2	56.7649	17,753.2	50.3094	17,753.2	44.777	17,753.2	45.8631	17,753.2	65.4445	17,753.2	45.0839	17,753.2	62.2942	17,753.2	57.2893	17,753.2	50.1351	17,753.2	50.2025	17,753.2	52.3942	17,753.2	49.1763	17,753.2	38.9446	17,753.2	51.146	17,753.2	41.246	17,753.2	52.002	17,753.2	29.8492	17,753.2	32.2671
18,379.4	84.9257	18,379.4	83.773	18,379.4	84.5729	18,379.4	80.2167	18,379.4	81.8073	18,379.4	75.1649	18,379.4	76.5122	18,379.4	68.7431	18,379.4	68.4184	18,379.4	58.3252	18,379.4	44.5319	18,379.4	25.2415	18,379.4	55.2189	18,379.4	47.8522	18,379.4	56.4084	18,379.4	47.4526	18,379.4	56.4433	18,379.4	52.7515	18,379.4	52.0897	18,379.4	48.6638	18,379.4	48.1167	18,379.4	44.5337	18,379.4	61.6475	18,379.4	39.7038	18,379.4	59.1588	18,379.4	54.8119	18,379.4	44.3297	18,379.4	46.6695	18,379.4	40.3585	18,379.4	48.644	18,379.4	35.2112	18,379.4	50.3517	18,379.4	41.8659	18,379.4	48.8026	18,379.4	45.3857	18,379.4	38.0531
19,027.6	83.9329	19,027.6	82.5636	19,027.6	83.2289	19,027.6	78.2074	19,027.6	79.8011	19,027.6	72.6905	19,027.6	73.5957	19,027.6	64.7348	19,027.6	63.8767	19,027.6	54.8181	19,027.6	49.8337	19,027.6	29.6287	19,027.6	54.7684	19,027.6	41.3771	19,027.6	48.5504	19,027.6	48.0443	19,027.6	55.106	19,027.6	49.8748	19,027.6	47.683	19,027.6	48.0745	19,027.6	40.243	19,027.6	43.5698	19,027.6	57.5301	19,027.6	40.6126	19,027.6	54.3626	19,027.6	52.7208	19,027.6	35.9947	19,027.6	41.9896	19,027.6	32.4262	19,027.6	47.8922	19,027.6	41.4445	19,027.6	49.4968	19,027.6	45.5836	19,027.6	46.7786	19,027.6	47.8745	19,027.6	43.1359
19,698.5	83.2677	19,698.5	81.2889	19,698.5	82.4509	19,698.5	76.0484	19,698.5	78.3004	19,698.5	69.404	19,698.5	70.7126	19,698.5	59.2215	19,698.5	56.916	19,698.5	53.1225	19,698.5	52.6039	19,698.5	44.9784	19,698.5	53.8735	19,698.5	30.7249	19,698.5	53.1935	19,698.5	47.1592	19,698.5	52.8426	19,698.5	44.9563	19,698.5	46.1768	19,698.5	44.9477	19,698.5	45.0568	19,698.5	42.9109	19,698.5	57.9051	19,698.5	40.6685	19,698.5	54.8151	19,698.5	50.2021	19,698.5	37.7205	19,698.5	35.3274	19,698.5	41.5443	19,698.5	48.6113	19,698.5	39.9453	19,698.5	47.8828	19,698.5	47.6569	19,698.5	47.2291	19,698.5	43.8612	19,698.5	47.9033
19,999.5	82.4299	19,999.5	80.3788	19,999.5	81.8405	19,999.5	75.1906	19,999.5	77.7913	19,999.5	68.1761	19,999.5	69.7538	19,999.5	55.5149	19,999.5	51.8486	19,999.5	53.1211	19,999.5	57.8378	19,999.5	46.3143	19,999.5	51.7444	19,999.5	38.7876	19,999.5	55.9344	19,999.5	48.85	19,999.5	48.9297	19,999.5	42.5423	19,999.5	51.3503	19,999.5	42.1218	19,999.5	50.0768	19,999.5	43.9829	19,999.5	57.9913	19,999.5	42.4991	19,999.5	54.6614	19,999.5	49.9653	19,999.5	36.3517	19,999.5	37.1103	19,999.5	45.5464	19,999.5	51.6049	19,999.5	40.9725	19,999.5	49.92	19,999.5	48.5549	19,999.5	48.4902	19,999.5	46.4866	19,999.5	50.6402
