"SPL Vertical"
"On-Axis"		"10°"		"-10°"		"20°"		"-20°"		"30°"		"-30°"		"40°"		"-40°"		"50°"		"-50°"		"60°"		"-60°"		"70°"		"-70°"		"80°"		"-80°"		"90°"		"-90°"		"100°"		"-100°"		"110°"		"-110°"		"120°"		"-120°"		"130°"		"-130°"		"140°"		"-140°"		"150°"		"-150°"		"160°"		"-160°"		"170°"		"-170°"		"180°"
"Frequency / Hz"	"Sound Pressure Level / dB (re 20 µPa/V)  [2.83  V @ 1. m]"	"Frequency / Hz"	"Sound Pressure Level / dB (re 20 µPa/V)  [2.83  V @ 1. m]"	"Frequency / Hz"	"Sound Pressure Level / dB (re 20 µPa/V)  [2.83  V @ 1. m]"	"Frequency / Hz"	"Sound Pressure Level / dB (re 20 µPa/V)  [2.83  V @ 1. m]"	"Frequency / Hz"	"Sound Pressure Level / dB (re 20 µPa/V)  [2.83  V @ 1. m]"	"Frequency / Hz"	"Sound Pressure Level / dB (re 20 µPa/V)  [2.83  V @ 1. m]"	"Frequency / Hz"	"Sound Pressure Level / dB (re 20 µPa/V)  [2.83  V @ 1. m]"	"Frequency / Hz"	"Sound Pressure Level / dB (re 20 µPa/V)  [2.83  V @ 1. m]"	"Frequency / Hz"	"Sound Pressure Level / dB (re 20 µPa/V)  [2.83  V @ 1. m]"	"Frequency / Hz"	"Sound Pressure Level / dB (re 20 µPa/V)  [2.83  V @ 1. m]"	"Frequency / Hz"	"Sound Pressure Level / dB (re 20 µPa/V)  [2.83  V @ 1. m]"	"Frequency / Hz"	"Sound Pressure Level / dB (re 20 µPa/V)  [2.83  V @ 1. m]"	"Frequency / Hz"	"Sound Pressure Level / dB (re 20 µPa/V)  [2.83  V @ 1. m]"	"Frequency / Hz"	"Sound Pressure Level / dB (re 20 µPa/V)  [2.83  V @ 1. m]"	"Frequency / Hz"	"Sound Pressure Level / dB (re 20 µPa/V)  [2.83  V @ 1. m]"	"Frequency / Hz"	"Sound Pressure Level / dB (re 20 µPa/V)  [2.83  V @ 1. m]"	"Frequency / Hz"	"Sound Pressure Level / dB (re 20 µPa/V)  [2.83  V @ 1. m]"	"Frequency / Hz"	"Sound Pressure Level / dB (re 20 µPa/V)  [2.83  V @ 1. m]"	"Frequency / Hz"	"Sound Pressure Level / dB (re 20 µPa/V)  [2.83  V @ 1. m]"	"Frequency / Hz"	"Sound Pressure Level / dB (re 20 µPa/V)  [2.83  V @ 1. m]"	"Frequency / Hz"	"Sound Pressure Level / dB (re 20 µPa/V)  [2.83  V @ 1. m]"	"Frequency / Hz"	"Sound Pressure Level / dB (re 20 µPa/V)  [2.83  V @ 1. m]"	"Frequency / Hz"	"Sound Pressure Level / dB (re 20 µPa/V)  [2.83  V @ 1. m]"	"Frequency / Hz"	"Sound Pressure Level / dB (re 20 µPa/V)  [2.83  V @ 1. m]"	"Frequency / Hz"	"Sound Pressure Level / dB (re 20 µPa/V)  [2.83  V @ 1. m]"	"Frequency / Hz"	"Sound Pressure Level / dB (re 20 µPa/V)  [2.83  V @ 1. m]"	"Frequency / Hz"	"Sound Pressure Level / dB (re 20 µPa/V)  [2.83  V @ 1. m]"	"Frequency / Hz"	"Sound Pressure Level / dB (re 20 µPa/V)  [2.83  V @ 1. m]"	"Frequency / Hz"	"Sound Pressure Level / dB (re 20 µPa/V)  [2.83  V @ 1. m]"	"Frequency / Hz"	"Sound Pressure Level / dB (re 20 µPa/V)  [2.83  V @ 1. m]"	"Frequency / Hz"	"Sound Pressure Level / dB (re 20 µPa/V)  [2.83  V @ 1. m]"	"Frequency / Hz"	"Sound Pressure Level / dB (re 20 µPa/V)  [2.83  V @ 1. m]"	"Frequency / Hz"	"Sound Pressure Level / dB (re 20 µPa/V)  [2.83  V @ 1. m]"	"Frequency / Hz"	"Sound Pressure Level / dB (re 20 µPa/V)  [2.83  V @ 1. m]"	"Frequency / Hz"	"Sound Pressure Level / dB (re 20 µPa/V)  [2.83  V @ 1. m]"	"Frequency / Hz"	"Sound Pressure Level / dB (re 20 µPa/V)  [2.83  V @ 1. m]"
20.5078	62.2501	20.5078	62.2547	20.5078	62.1778	20.5078	62.2135	20.5078	62.0451	20.5078	62.1802	20.5078	61.8925	20.5078	62.2428	20.5078	61.8032	20.5078	62.5122	20.5078	61.9055	20.5078	63.0823	20.5078	62.3395	20.5078	63.9764	20.5078	63.1782	20.5078	65.1324	20.5078	64.3706	20.5078	66.4423	20.5078	65.7797	20.5078	67.8025	20.5078	67.2634	20.5078	69.135	20.5078	68.7174	20.5078	70.3862	20.5078	70.0752	20.5078	71.5167	20.5078	71.2932	20.5078	72.4942	20.5078	72.3392	20.5078	73.2896	20.5078	73.1868	20.5078	73.8763	20.5078	73.8139	20.5078	74.2325	20.5078	74.2031	20.5078	74.3435
21.9727	65.8601	21.9727	65.8663	21.9727	65.8115	21.9727	65.8412	21.9727	65.729	21.9727	65.8158	21.9727	65.6426	21.9727	65.8434	21.9727	65.607	21.9727	65.9966	21.9727	65.7008	21.9727	66.3518	21.9727	66.0102	21.9727	66.9586	21.9727	66.5949	21.9727	67.8129	21.9727	67.4535	21.9727	68.857	21.9727	68.5231	21.9727	70.0074	21.9727	69.712	21.9727	71.1828	21.9727	70.9325	21.9727	72.3176	21.9727	72.1143	21.9727	73.3614	21.9727	73.2037	21.9727	74.2743	21.9727	74.1579	21.9727	75.0223	21.9727	74.942	21.9727	75.577	21.9727	75.5271	21.9727	75.9154	21.9727	75.8916	21.9727	76.0223
23.4375	67.6343	23.4375	67.6389	23.4375	67.6003	23.4375	67.6272	23.4375	67.543	23.4375	67.6319	23.4375	67.4892	23.4375	67.705	23.4375	67.4893	23.4375	67.9128	23.4375	67.6154	23.4375	68.3186	23.4375	67.9466	23.4375	68.9577	23.4375	68.5383	23.4375	69.8186	23.4375	69.3909	23.4375	70.8473	23.4375	70.4481	23.4375	71.9703	23.4375	71.6236	23.4375	73.1162	23.4375	72.8315	23.4375	74.2248	23.4375	74.0017	23.4375	75.2477	23.4375	75.08	23.4375	76.1446	23.4375	76.024	23.4375	76.8809	23.4375	76.799	23.4375	77.4274	23.4375	77.3772	23.4375	77.761	23.4375	77.7373	23.4375	77.8664
24.9023	71.1149	24.9023	71.1142	24.9023	71.1118	24.9023	71.1189	24.9023	71.1097	24.9023	71.1516	24.9023	71.1274	24.9023	71.2475	24.9023	71.1976	24.9023	71.4497	24.9023	71.3635	24.9023	71.7998	24.9023	71.6707	24.9023	72.3238	24.9023	72.153	24.9023	73.0203	24.9023	72.8177	24.9023	73.8597	24.9023	73.6413	24.9023	74.7934	24.9023	74.5762	24.9023	75.7671	24.9023	75.5651	24.9023	76.729	24.9023	76.552	24.9023	77.6332	24.9023	77.4863	24.9023	78.439	24.9023	78.3237	24.9023	79.1095	24.9023	79.025	24.9023	79.612	24.9023	79.5568	24.9023	79.9199	24.9023	79.8926	24.9023	80.0156
26.3672	74.4267	26.3672	74.4361	26.3672	74.4275	26.3672	74.4624	26.3672	74.4416	26.3672	74.5216	26.3672	74.4819	26.3672	74.638	26.3672	74.5705	26.3672	74.8407	26.3672	74.7364	26.3672	75.1575	26.3672	75.0106	26.3672	75.6071	26.3672	75.4179	26.3672	76.1924	26.3672	75.9685	26.3672	76.8971	26.3672	76.6527	26.3672	77.6897	26.3672	77.4413	26.3672	78.5297	26.3672	78.2929	26.3672	79.3736	26.3672	79.1608	26.3672	80.1789	26.3672	79.9982	26.3672	80.905	26.3672	80.7606	26.3672	81.5142	26.3672	81.4073	26.3672	81.9728	26.3672	81.9028	26.3672	82.2535	26.3672	82.2189	26.3672	82.3377
27.832	77.3906	27.832	77.4046	27.832	77.392	27.832	77.4387	27.832	77.4117	27.832	77.5041	27.832	77.4597	27.832	77.6186	27.832	77.5526	27.832	77.8034	27.832	77.712	27.832	78.08	27.832	77.9609	27.832	78.4649	27.832	78.3186	27.832	78.9633	27.832	78.7948	27.832	79.5671	27.832	79.3848	27.832	80.2545	27.832	80.069	27.832	80.9938	27.832	80.8159	27.832	81.7478	27.832	81.5866	27.832	82.4776	27.832	82.3393	27.832	83.1438	27.832	83.0323	27.832	83.7086	27.832	83.6254	27.832	84.1374	27.832	84.0825	27.832	84.402	27.832	84.3748	27.832	84.4834
29.2969	80.0391	29.2969	80.0496	29.2969	80.0499	29.2969	80.0853	29.2969	80.0836	29.2969	80.1548	29.2969	80.1467	29.2969	80.2709	29.2969	80.2505	29.2969	80.4491	29.2969	80.4097	29.2969	80.7045	29.2969	80.6408	29.2969	81.049	29.2969	80.9582	29.2969	81.487	29.2969	81.3707	29.2969	82.0134	29.2969	81.8774	29.2969	82.6132	29.2969	82.4665	29.2969	83.2625	29.2969	83.1156	29.2969	83.9314	29.2969	83.794	29.2969	84.586	29.2969	84.4658	29.2969	85.1903	29.2969	85.0923	29.2969	85.7077	29.2969	85.6342	29.2969	86.1038	29.2969	86.0553	29.2969	86.3498	29.2969	86.3258	29.2969	86.4261
30.7617	81.9981	30.7617	82.008	30.7617	82.0128	30.7617	82.0451	30.7617	82.0532	30.7617	82.1154	30.7617	82.1239	30.7617	82.2277	30.7617	82.2329	30.7617	82.3928	30.7617	82.3907	30.7617	82.6217	30.7617	82.6087	30.7617	82.9239	30.7617	82.8975	30.7617	83.304	30.7617	83.2639	30.7617	83.7603	30.7617	83.7083	30.7617	84.283	30.7617	84.223	30.7617	84.8545	30.7617	84.7916	30.7617	85.4502	30.7617	85.3896	30.7617	86.04	30.7617	85.9863	30.7617	86.5904	30.7617	86.5465	30.7617	87.0663	30.7617	87.0336	30.7617	87.4342	30.7617	87.4128	30.7617	87.6656	30.7617	87.6551	30.7617	87.7416
32.2266	83.2097	32.2266	83.2233	32.2266	83.2226	32.2266	83.2651	32.2266	83.2625	32.2266	83.3395	32.2266	83.3329	32.2266	83.4528	32.2266	83.4394	32.2266	83.6128	32.2266	83.5895	32.2266	83.8276	32.2266	83.7915	32.2266	84.104	32.2266	84.0533	32.2266	84.4457	32.2266	84.3805	32.2266	84.8519	32.2266	84.7741	32.2266	85.3157	32.2266	85.2292	32.2266	85.8235	32.2266	85.7335	32.2266	86.3553	32.2266	86.2674	32.2266	86.885	32.2266	86.8046	32.2266	87.3825	32.2266	87.3139	32.2266	87.8146	32.2266	87.7612	32.2266	88.1493	32.2266	88.1129	32.2266	88.3589	32.2266	88.3405	32.2266	88.4248
33.6914	83.7067	33.6914	83.725	33.6914	83.7172	33.6914	83.7736	33.6914	83.7569	33.6914	83.8554	33.6914	83.8279	33.6914	83.975	33.6914	83.9341	33.6914	84.1375	33.6914	84.0807	33.6914	84.3482	33.6914	84.2736	33.6914	84.6117	33.6914	84.5183	33.6914	84.9301	33.6914	84.8186	33.6914	85.3024	33.6914	85.1755	33.6914	85.7229	33.6914	85.5853	33.6914	86.1804	33.6914	86.0386	33.6914	86.6581	33.6914	86.5197	33.6914	87.134	33.6914	87.0065	33.6914	87.5811	33.6914	87.4714	33.6914	87.9697	33.6914	87.8833	33.6914	88.2699	33.6914	88.2105	33.6914	88.4558	33.6914	88.4256	33.6914	88.5097
35.1562	83.9718	35.1562	83.9927	35.1562	83.9801	35.1562	84.0436	35.1562	84.0179	35.1562	84.1261	35.1562	84.0865	35.1562	84.2427	35.1562	84.1883	35.1562	84.3965	35.1562	84.3267	35.1562	84.5906	35.1562	84.5053	35.1562	84.8279	35.1562	84.7278	35.1562	85.1099	35.1562	84.9972	35.1562	85.436	35.1562	85.3141	35.1562	85.8022	35.1562	85.6761	35.1562	86.2005	35.1562	86.076	35.1562	86.6181	35.1562	86.5013	35.1562	87.0367	35.1562	86.9332	35.1562	87.4335	35.1562	87.3475	35.1562	87.7816	35.1562	87.7158	35.1562	88.0531	35.1562	88.009	35.1562	88.2234	35.1562	88.2013	35.1562	88.2748
36.6211	84.0127	36.6211	84.0338	36.6211	84.0208	36.6211	84.0843	36.6211	84.0583	36.6211	84.165	36.6211	84.1261	36.6211	84.2773	36.6211	84.2257	36.6211	84.4229	36.6211	84.3591	36.6211	84.6035	36.6211	84.5286	36.6211	84.8208	36.6211	84.7367	36.6211	85.0759	36.6211	84.985	36.6211	85.3683	36.6211	85.2739	36.6211	85.6953	36.6211	85.6014	36.6211	86.0508	36.6211	85.9616	36.6211	86.4245	36.6211	86.3439	36.6211	86.8012	36.6211	86.7323	36.6211	87.1604	36.6211	87.1053	36.6211	87.478	36.6211	87.4374	36.6211	87.7281	36.6211	87.7016	36.6211	87.8869	36.6211	87.8739	36.6211	87.9376
38.0859	84.0256	38.0859	84.0457	38.0859	84.0339	38.0859	84.0943	38.0859	84.0709	38.0859	84.1714	38.0859	84.137	38.0859	84.2777	38.0859	84.2332	38.0859	84.4139	38.0859	84.3604	38.0859	84.5809	38.0859	84.5199	38.0859	84.7797	38.0859	84.7129	38.0859	85.0108	38.0859	84.9404	38.0859	85.274	38.0859	85.2023	38.0859	85.5672	38.0859	85.4967	38.0859	85.8857	38.0859	85.8191	38.0859	86.2209	38.0859	86.1608	38.0859	86.5598	38.0859	86.5083	38.0859	86.8845	38.0859	86.8429	38.0859	87.1729	38.0859	87.1419	38.0859	87.401	38.0859	87.3806	38.0859	87.5466	38.0859	87.5366	38.0859	87.5938
39.5508	84.1505	39.5508	84.1698	39.5508	84.1591	39.5508	84.2168	39.5508	84.1959	39.5508	84.2912	39.5508	84.2611	39.5508	84.3928	39.5508	84.355	39.5508	84.5216	39.5508	84.4777	39.5508	84.6776	39.5508	84.6296	39.5508	84.861	39.5508	84.811	39.5508	85.0719	39.5508	85.0219	39.5508	85.3098	39.5508	85.2616	39.5508	85.5731	39.5508	85.5283	39.5508	85.8581	39.5508	85.818	39.5508	86.1579	39.5508	86.1234	39.5508	86.4613	39.5508	86.433	39.5508	86.7528	39.5508	86.7309	39.5508	87.0126	39.5508	86.9969	39.5508	87.219	39.5508	87.2091	39.5508	87.3519	39.5508	87.3471	39.5508	87.3964
41.0156	84.2392	41.0156	84.245	41.0156	84.2605	41.0156	84.2778	41.0156	84.3085	41.0156	84.3372	41.0156	84.3828	41.0156	84.423	41.0156	84.4826	41.0156	84.5344	41.0156	84.607	41.0156	84.6711	41.0156	84.7555	41.0156	84.8328	41.0156	84.9272	41.0156	85.0191	41.0156	85.1216	41.0156	85.2294	41.0156	85.3378	41.0156	85.4623	41.0156	85.5742	41.0156	85.7147	41.0156	85.8274	41.0156	85.9812	41.0156	86.0914	41.0156	86.2529	41.0156	86.3566	41.0156	86.5169	41.0156	86.6092	41.0156	86.7564	41.0156	86.8319	41.0156	86.9519	41.0156	87.0057	41.0156	87.0846	41.0156	87.1126	41.0156	87.1401
42.4805	84.1169	42.4805	84.1142	42.4805	84.1469	42.4805	84.1388	42.4805	84.2037	42.4805	84.1906	42.4805	84.2862	42.4805	84.2688	42.4805	84.3931	42.4805	84.3726	42.4805	84.523	42.4805	84.501	42.4805	84.6743	42.4805	84.6534	42.4805	84.8451	42.4805	84.8288	42.4805	85.0337	42.4805	85.0266	42.4805	85.2382	42.4805	85.2454	42.4805	85.4565	42.4805	85.4829	42.4805	85.6856	42.4805	85.7344	42.4805	85.9209	42.4805	85.9919	42.4805	86.1552	42.4805	86.2432	42.4805	86.3778	42.4805	86.4718	42.4805	86.5744	42.4805	86.6591	42.4805	86.7279	42.4805	86.7871	42.4805	86.8215	42.4805	86.8428
43.9453	84.3135	43.9453	84.3051	43.9453	84.348	43.9453	84.323	43.9453	84.408	43.9453	84.3668	43.9453	84.4922	43.9453	84.4356	43.9453	84.5989	43.9453	84.5283	43.9453	84.7261	43.9453	84.6437	43.9453	84.8715	43.9453	84.7808	43.9453	85.0326	43.9453	84.9384	43.9453	85.2073	43.9453	85.1158	43.9453	85.3932	43.9453	85.3117	43.9453	85.5884	43.9453	85.5243	43.9453	85.7903	43.9453	85.7497	43.9453	85.9954	43.9453	85.9813	43.9453	86.1979	43.9453	86.2086	43.9453	86.389	43.9453	86.4173	43.9453	86.5562	43.9453	86.5906	43.9453	86.6847	43.9453	86.7122	43.9453	86.7596	43.9453	86.7701
45.4102	84.4828	45.4102	84.4782	45.4102	84.5137	45.4102	84.5001	45.4102	84.5703	45.4102	84.5476	45.4102	84.6511	45.4102	84.6195	45.4102	84.7541	45.4102	84.7141	45.4102	84.8769	45.4102	84.8296	45.4102	85.0166	45.4102	84.964	45.4102	85.1705	45.4102	85.1157	45.4102	85.3358	45.4102	85.2834	45.4102	85.51	45.4102	85.4656	45.4102	85.691	45.4102	85.6603	45.4102	85.8765	45.4102	85.8641	45.4102	86.0633	45.4102	86.0714	45.4102	86.2467	45.4102	86.2733	45.4102	86.4191	45.4102	86.4576	45.4102	86.5698	45.4102	86.61	45.4102	86.686	45.4102	86.7163	45.4102	86.7546	45.4102	86.7659
46.875	84.7611	46.875	84.7584	46.875	84.7886	46.875	84.7804	46.875	84.8402	46.875	84.8264	46.875	84.9144	46.875	84.8951	46.875	85.0091	46.875	84.9847	46.875	85.1219	46.875	85.093	46.875	85.2497	46.875	85.2179	46.875	85.3896	46.875	85.3575	46.875	85.5386	46.875	85.5098	46.875	85.6943	46.875	85.6733	46.875	85.8544	46.875	85.8458	46.875	86.0169	46.875	86.0245	46.875	86.1793	46.875	86.2045	46.875	86.3381	46.875	86.3786	46.875	86.4873	46.875	86.5366	46.875	86.6185	46.875	86.6662	46.875	86.7207	46.875	86.7555	46.875	86.7826	46.875	86.7954
48.3398	85.0033	48.3398	85.005	48.3398	85.025	48.3398	85.0299	48.3398	85.0697	48.3398	85.0772	48.3398	85.1358	48.3398	85.1453	48.3398	85.2215	48.3398	85.232	48.3398	85.3241	48.3398	85.335	48.3398	85.4407	48.3398	85.4519	48.3398	85.5682	48.3398	85.5804	48.3398	85.7036	48.3398	85.7185	48.3398	85.8444	48.3398	85.8645	48.3398	85.9884	48.3398	86.0165	48.3398	86.1336	48.3398	86.1721	48.3398	86.2782	48.3398	86.3276	48.3398	86.4189	48.3398	86.4771	48.3398	86.5511	48.3398	86.6121	48.3398	86.6676	48.3398	86.7223	48.3398	86.7591	48.3398	86.7974	48.3398	86.8156	48.3398	86.8294
51.2695	85.4766	51.2695	85.4727	51.2695	85.5026	51.2695	85.4908	51.2695	85.5503	51.2695	85.5299	51.2695	85.618	51.2695	85.5881	51.2695	85.7035	51.2695	85.6633	51.2695	85.8036	51.2695	85.7526	51.2695	85.9149	51.2695	85.8534	51.2695	86.0333	51.2695	85.9627	51.2695	86.1553	51.2695	86.0781	51.2695	86.2772	51.2695	86.1974	51.2695	86.3963	51.2695	86.3189	51.2695	86.5104	51.2695	86.4408	51.2695	86.6179	51.2695	86.5609	51.2695	86.7171	51.2695	86.6759	51.2695	86.8058	51.2695	86.7805	51.2695	86.8803	51.2695	86.868	51.2695	86.9353	51.2695	86.9311	51.2695	86.9649	51.2695	86.9642
52.7344	85.7889	52.7344	85.7756	52.7344	85.8219	52.7344	85.7817	52.7344	85.8739	52.7344	85.8067	52.7344	85.9433	52.7344	85.8488	52.7344	86.0277	52.7344	85.9061	52.7344	86.1241	52.7344	85.9761	52.7344	86.2288	52.7344	86.056	52.7344	86.3379	52.7344	86.1433	52.7344	86.4474	52.7344	86.2357	52.7344	86.5533	52.7344	86.3313	52.7344	86.6525	52.7344	86.4288	52.7344	86.7425	52.7344	86.5272	52.7344	86.8218	52.7344	86.6255	52.7344	86.8895	52.7344	86.7216	52.7344	86.9446	52.7344	86.812	52.7344	86.9857	52.7344	86.8917	52.7344	87.0102	52.7344	86.9548	52.7344	87.0148	52.7344	86.9966
54.1992	86.0366	54.1992	86.019	54.1992	86.0732	54.1992	86.0203	54.1992	86.128	54.1992	86.0396	54.1992	86.1994	54.1992	86.0755	54.1992	86.2851	54.1992	86.1258	54.1992	86.3817	54.1992	86.188	54.1992	86.4853	54.1992	86.2593	54.1992	86.5913	54.1992	86.3372	54.1992	86.6953	54.1992	86.4191	54.1992	86.793	54.1992	86.5035	54.1992	86.8809	54.1992	86.5892	54.1992	86.9566	54.1992	86.6757	54.1992	87.019	54.1992	86.7624	54.1992	87.0678	54.1992	86.8479	54.1992	87.1035	54.1992	86.9292	54.1992	87.1263	54.1992	87.0022	54.1992	87.1354	54.1992	87.062	54.1992	87.1289	54.1992	87.1047
55.6641	86.0831	55.6641	86.0696	55.6641	86.1147	55.6641	86.074	55.6641	86.1639	55.6641	86.0953	55.6641	86.2291	55.6641	86.1321	55.6641	86.3081	55.6641	86.1819	55.6641	86.3977	55.6641	86.2423	55.6641	86.4938	55.6641	86.3101	55.6641	86.5915	55.6641	86.3825	55.6641	86.6861	55.6641	86.4568	55.6641	86.7729	55.6641	86.5313	55.6641	86.8484	55.6641	86.6046	55.6641	86.9106	55.6641	86.6762	55.6641	86.9586	55.6641	86.7457	55.6641	86.9934	55.6641	86.812	55.6641	87.0163	55.6641	86.8735	55.6641	87.0288	55.6641	86.9278	55.6641	87.0315	55.6641	86.972	55.6641	87.0237	55.6641	87.0042
58.5938	86.8334	58.5938	86.846	58.5938	86.8372	58.5938	86.8742	58.5938	86.8575	58.5938	86.9164	58.5938	86.8933	58.5938	86.9703	58.5938	86.9431	58.5938	87.0333	58.5938	87.0041	58.5938	87.1022	58.5938	87.0727	58.5938	87.1737	58.5938	87.1451	58.5938	87.2445	58.5938	87.2169	58.5938	87.3114	58.5938	87.2839	58.5938	87.3719	58.5938	87.3427	58.5938	87.4239	58.5938	87.3913	58.5938	87.4662	58.5938	87.4289	58.5938	87.4983	58.5938	87.4569	58.5938	87.5206	58.5938	87.4776	58.5938	87.5339	58.5938	87.4939	58.5938	87.5392	58.5938	87.508	58.5938	87.5378	58.5938	87.5207	58.5938	87.5311
60.0586	87.16	60.0586	87.1874	60.0586	87.1498	60.0586	87.2307	60.0586	87.1572	60.0586	87.2878	60.0586	87.1815	60.0586	87.3558	60.0586	87.2212	60.0586	87.4312	60.0586	87.2735	60.0586	87.5104	60.0586	87.335	60.0586	87.5894	60.0586	87.4016	60.0586	87.6642	60.0586	87.4688	60.0586	87.7314	60.0586	87.5326	60.0586	87.7878	60.0586	87.5897	60.0586	87.8314	60.0586	87.6378	60.0586	87.8612	60.0586	87.6766	60.0586	87.8773	60.0586	87.7072	60.0586	87.8813	60.0586	87.7323	60.0586	87.8753	60.0586	87.7545	60.0586	87.8618	60.0586	87.7764	60.0586	87.8433	60.0586	87.799	60.0586	87.8217
62.9883	87.5782	62.9883	87.6006	62.9883	87.5709	62.9883	87.6372	62.9883	87.5792	62.9883	87.6861	62.9883	87.6026	62.9883	87.7447	62.9883	87.6394	62.9883	87.8098	62.9883	87.6873	62.9883	87.8776	62.9883	87.7427	62.9883	87.944	62.9883	87.8014	62.9883	88.0045	62.9883	87.8587	62.9883	88.0551	62.9883	87.9097	62.9883	88.0922	62.9883	87.9504	62.9883	88.1134	62.9883	87.9779	62.9883	88.1182	62.9883	87.9913	62.9883	88.1075	62.9883	87.9921	62.9883	88.0846	62.9883	87.9841	62.9883	88.0543	62.9883	87.9729	62.9883	88.0221	62.9883	87.9644	62.9883	87.9937	62.9883	87.9636	62.9883	87.9734
64.4531	87.8077	64.4531	87.8278	64.4531	87.8007	64.4531	87.86	64.4531	87.807	64.4531	87.9026	64.4531	87.8262	64.4531	87.9533	64.4531	87.8568	64.4531	88.0091	64.4531	87.8964	64.4531	88.0666	64.4531	87.9418	64.4531	88.1217	64.4531	87.9887	64.4531	88.1702	64.4531	88.0325	64.4531	88.2079	64.4531	88.0686	64.4531	88.2313	64.4531	88.093	64.4531	88.2379	64.4531	88.103	64.4531	88.2272	64.4531	88.0983	64.4531	88.2006	64.4531	88.0809	64.4531	88.1617	64.4531	88.0556	64.4531	88.1164	64.4531	88.029	64.4531	88.0714	64.4531	88.0087	64.4531	88.0339	64.4531	88.0009	64.4531	88.0093
67.3828	88.2301	67.3828	88.2699	67.3828	88.1998	67.3828	88.3177	67.3828	88.18	67.3828	88.3714	67.3828	88.1712	67.3828	88.4285	67.3828	88.1728	67.3828	88.486	67.3828	88.1836	67.3828	88.5404	67.3828	88.2012	67.3828	88.5875	67.3828	88.222	67.3828	88.6233	67.3828	88.2418	67.3828	88.6434	67.3828	88.2561	67.3828	88.6446	67.3828	88.2609	67.3828	88.6245	67.3828	88.2536	67.3828	88.5826	67.3828	88.2337	67.3828	88.521	67.3828	88.2039	67.3828	88.4444	67.3828	88.1697	67.3828	88.3603	67.3828	88.1395	67.3828	88.2776	67.3828	88.1222	67.3828	88.2061	67.3828	88.1256	67.3828	88.1537
68.8477	88.4792	68.8477	88.5283	68.8477	88.4396	68.8477	88.5854	68.8477	88.4107	68.8477	88.6483	68.8477	88.3927	68.8477	88.7143	68.8477	88.3854	68.8477	88.78	68.8477	88.3873	68.8477	88.8414	68.8477	88.3963	68.8477	88.8941	68.8477	88.409	68.8477	88.9333	68.8477	88.4216	68.8477	88.9544	68.8477	88.4298	68.8477	88.9536	68.8477	88.4301	68.8477	88.9283	68.8477	88.4199	68.8477	88.8781	68.8477	88.3991	68.8477	88.805	68.8477	88.3702	68.8477	88.7143	68.8477	88.3391	68.8477	88.6141	68.8477	88.3141	68.8477	88.5145	68.8477	88.3045	68.8477	88.4263	68.8477	88.318	68.8477	88.3589
71.7773	88.7991	71.7773	88.8463	71.7773	88.7607	71.7773	88.9012	71.7773	88.7315	71.7773	88.9623	71.7773	88.7115	71.7773	89.0271	71.7773	88.7	71.7773	89.0922	71.7773	88.6956	71.7773	89.1535	71.7773	88.696	71.7773	89.2061	71.7773	88.6982	71.7773	89.2445	71.7773	88.6986	71.7773	89.2633	71.7773	88.6935	71.7773	89.2579	71.7773	88.6794	71.7773	89.225	71.7773	88.6543	71.7773	89.1637	71.7773	88.6186	71.7773	89.0758	71.7773	88.5754	71.7773	88.9673	71.7773	88.5315	71.7773	88.8472	71.7773	88.4963	71.7773	88.7276	71.7773	88.4808	71.7773	88.6219	71.7773	88.4942	71.7773	88.5417
74.707	89.106	74.707	89.1349	74.707	89.0843	74.707	89.1706	74.707	89.0695	74.707	89.2119	74.707	89.0611	74.707	89.2571	74.707	89.0579	74.707	89.3033	74.707	89.0582	74.707	89.3469	74.707	89.0594	74.707	89.383	74.707	89.0582	74.707	89.4062	74.707	89.0509	74.707	89.411	74.707	89.0334	74.707	89.3926	74.707	89.0026	74.707	89.3475	74.707	88.9566	74.707	89.2747	74.707	88.8959	74.707	89.1767	74.707	88.8245	74.707	89.06	74.707	88.7502	74.707	88.9353	74.707	88.684	74.707	88.8162	74.707	88.6385	74.707	88.7175	74.707	88.6253	74.707	88.6516
77.6367	89.3031	77.6367	89.3152	77.6367	89.2968	77.6367	89.3328	77.6367	89.2958	77.6367	89.3556	77.6367	89.2996	77.6367	89.3823	77.6367	89.3068	77.6367	89.4107	77.6367	89.3158	77.6367	89.4379	77.6367	89.3239	77.6367	89.4595	77.6367	89.3276	77.6367	89.4706	77.6367	89.3228	77.6367	89.466	77.6367	89.3051	77.6367	89.4408	77.6367	89.2708	77.6367	89.3917	77.6367	89.2174	77.6367	89.3177	77.6367	89.1451	77.6367	89.2216	77.6367	89.0577	77.6367	89.1099	77.6367	88.9629	77.6367	88.9938	77.6367	88.8726	77.6367	88.8876	77.6367	88.8007	77.6367	88.8062	77.6367	88.7607	77.6367	88.7619
79.1016	89.4013	79.1016	89.4101	79.1016	89.3967	79.1016	89.423	79.1016	89.3961	79.1016	89.4395	79.1016	89.399	79.1016	89.4585	79.1016	89.4045	79.1016	89.4781	79.1016	89.4109	79.1016	89.4954	79.1016	89.4159	79.1016	89.5064	79.1016	89.416	79.1016	89.5066	79.1016	89.407	79.1016	89.4909	79.1016	89.3846	79.1016	89.4549	79.1016	89.3447	79.1016	89.3958	79.1016	89.2847	79.1016	89.313	79.1016	89.2045	79.1016	89.2096	79.1016	89.1077	79.1016	89.0929	79.1016	89.0023	79.1016	88.9746	79.1016	88.9002	79.1016	88.8692	79.1016	88.8161	79.1016	88.7922	79.1016	88.7645	79.1016	88.7555
82.0312	89.6191	82.0312	89.624	82.0312	89.6143	82.0312	89.6291	82.0312	89.6096	82.0312	89.6342	82.0312	89.6049	82.0312	89.6386	82.0312	89.5997	82.0312	89.6412	82.0312	89.5931	82.0312	89.6394	82.0312	89.5833	82.0312	89.6301	82.0312	89.5676	82.0312	89.6091	82.0312	89.5426	82.0312	89.5719	82.0312	89.5039	82.0312	89.5143	82.0312	89.4478	82.0312	89.434	82.0312	89.3715	82.0312	89.3308	82.0312	89.2748	82.0312	89.2087	82.0312	89.1609	82.0312	89.0759	82.0312	89.0376	82.0312	88.9455	82.0312	88.9171	82.0312	88.8336	82.0312	88.8151	82.0312	88.7565	82.0312	88.7474	82.0312	88.7263
84.9609	89.8888	84.9609	89.8812	84.9609	89.8929	84.9609	89.8701	84.9609	89.8931	84.9609	89.8555	84.9609	89.889	84.9609	89.8369	84.9609	89.88	84.9609	89.8132	84.9609	89.8647	84.9609	89.7824	84.9609	89.8413	84.9609	89.7415	84.9609	89.807	84.9609	89.687	84.9609	89.7581	84.9609	89.615	84.9609	89.6908	84.9609	89.5222	84.9609	89.6017	84.9609	89.407	84.9609	89.4886	84.9609	89.2705	84.9609	89.3521	84.9609	89.1178	84.9609	89.1966	84.9609	88.959	84.9609	89.031	84.9609	88.809	84.9609	88.8696	84.9609	88.6861	84.9609	88.7302	84.9609	88.6084	84.9609	88.6317	84.9609	88.5889
87.8906	89.7492	87.8906	89.7574	87.8906	89.7413	87.8906	89.766	87.8906	89.7341	87.8906	89.7747	87.8906	89.7274	87.8906	89.7829	87.8906	89.721	87.8906	89.7893	87.8906	89.7142	87.8906	89.7918	87.8906	89.7051	87.8906	89.7868	87.8906	89.691	87.8906	89.7702	87.8906	89.6682	87.8906	89.7372	87.8906	89.6323	87.8906	89.6833	87.8906	89.5792	87.8906	89.6055	87.8906	89.5061	87.8906	89.5038	87.8906	89.4125	87.8906	89.3816	87.8906	89.3018	87.8906	89.2473	87.8906	89.1816	87.8906	89.1143	87.8906	89.0645	87.8906	88.999	87.8906	88.9658	87.8906	88.9181	87.8906	88.9016	87.8906	88.8841
90.8203	89.996	90.8203	89.9899	90.8203	89.9957	90.8203	89.9776	90.8203	89.9891	90.8203	89.959	90.8203	89.9763	90.8203	89.9344	90.8203	89.9575	90.8203	89.9035	90.8203	89.9321	90.8203	89.8653	90.8203	89.8991	90.8203	89.8182	90.8203	89.8564	90.8203	89.7596	90.8203	89.8012	90.8203	89.6865	90.8203	89.7301	90.8203	89.5959	90.8203	89.6402	90.8203	89.4861	90.8203	89.5296	90.8203	89.3578	90.8203	89.399	90.8203	89.2151	90.8203	89.2527	90.8203	89.0668	90.8203	89.0995	90.8203	88.9263	90.8203	88.9526	90.8203	88.8098	90.8203	88.8284	90.8203	88.7337	90.8203	88.7434	90.8203	88.7102
95.2148	90.0613	95.2148	90.0559	95.2148	90.0588	95.2148	90.0427	95.2148	90.0486	95.2148	90.0216	95.2148	90.0308	95.2148	89.9925	95.2148	90.0054	95.2148	89.9545	95.2148	89.972	95.2148	89.9063	95.2148	89.9292	95.2148	89.8457	95.2148	89.8751	95.2148	89.7698	95.2148	89.8067	95.2148	89.6756	95.2148	89.7205	95.2148	89.5607	95.2148	89.6136	95.2148	89.4243	95.2148	89.4844	95.2148	89.2684	95.2148	89.334	95.2148	89.0992	95.2148	89.1672	95.2148	88.9275	95.2148	88.9936	95.2148	88.7687	95.2148	88.8271	95.2148	88.6409	95.2148	88.6851	95.2148	88.5613	95.2148	88.5852	95.2148	88.5418
98.1445	90.0134	98.1445	89.9916	98.1445	90.0257	98.1445	89.9605	98.1445	90.0285	98.1445	89.9205	98.1445	90.022	98.1445	89.8719	98.1445	90.0064	98.1445	89.8144	98.1445	89.9812	98.1445	89.7472	98.1445	89.9455	98.1445	89.6689	98.1445	89.8972	98.1445	89.5774	98.1445	89.8331	98.1445	89.4708	98.1445	89.7499	98.1445	89.3478	98.1445	89.6441	98.1445	89.2087	98.1445	89.5139	98.1445	89.0566	98.1445	89.3602	98.1445	88.898	98.1445	89.1874	98.1445	88.7441	98.1445	89.0047	98.1445	88.6094	98.1445	88.8253	98.1445	88.5104	98.1445	88.6658	98.1445	88.4618	98.1445	88.5434	98.1445	88.4726
101.074	89.9108	101.074	89.8995	101.074	89.9085	101.074	89.8745	101.074	89.8937	101.074	89.8359	101.074	89.8676	101.074	89.7842	101.074	89.8318	101.074	89.7194	101.074	89.7873	101.074	89.6411	101.074	89.7344	101.074	89.5479	101.074	89.672	101.074	89.4382	101.074	89.5979	101.074	89.3106	101.074	89.5094	101.074	89.1648	101.074	89.4035	101.074	89.0033	101.074	89.2785	101.074	88.8315	101.074	89.1346	101.074	88.6591	101.074	88.9747	101.074	88.4994	101.074	88.8053	101.074	88.3681	101.074	88.6363	101.074	88.2804	101.074	88.4813	101.074	88.2476	101.074	88.3556	101.074	88.274
105.469	90.5944	105.469	90.6095	105.469	90.5574	105.469	90.6032	105.469	90.4988	105.469	90.5767	105.469	90.4193	105.469	90.5311	105.469	90.3202	105.469	90.4676	105.469	90.2031	105.469	90.3869	105.469	90.0691	105.469	90.2884	105.469	89.9187	105.469	90.1707	105.469	89.7517	105.469	90.0317	105.469	89.5677	105.469	89.869	105.469	89.3672	105.469	89.6812	105.469	89.1531	105.469	89.4698	105.469	88.9323	105.469	89.2398	105.469	88.7168	105.469	89.0011	105.469	88.5227	105.469	88.7681	105.469	88.368	105.469	88.5584	105.469	88.2694	105.469	88.3904	105.469	88.2386	105.469	88.2801
108.398	90.6712	108.398	90.6567	108.398	90.6676	108.398	90.6249	108.398	90.6454	108.398	90.5769	108.398	90.6042	108.398	90.514	108.398	90.5441	108.398	90.4368	108.398	90.465	108.398	90.3457	108.398	90.3666	108.398	90.2402	108.398	90.2484	108.398	90.1193	108.398	90.1097	108.398	89.9814	108.398	89.9498	108.398	89.8257	108.398	89.7689	108.398	89.6525	108.398	89.5691	108.398	89.4644	108.398	89.3562	108.398	89.2675	108.398	89.1404	108.398	89.0711	108.398	88.9362	108.398	88.8878	108.398	88.7613	108.398	88.732	108.398	88.6328	108.398	88.6183	108.398	88.5635	108.398	88.5593
112.793	90.5255	112.793	90.5023	112.793	90.5314	112.793	90.4616	112.793	90.5203	112.793	90.4035	112.793	90.4926	112.793	90.3285	112.793	90.4487	112.793	90.237	112.793	90.388	112.793	90.129	112.793	90.3095	112.793	90.0045	112.793	90.2114	112.793	89.863	112.793	90.0916	112.793	89.7042	112.793	89.9485	112.793	89.5289	112.793	89.782	112.793	89.3399	112.793	89.5941	112.793	89.143	112.793	89.39	112.793	88.9476	112.793	89.1782	112.793	88.7664	112.793	88.9702	112.793	88.6136	112.793	88.7797	112.793	88.5029	112.793	88.621	112.793	88.4452	112.793	88.5066	112.793	88.4464
117.188	90.6299	117.188	90.6291	117.188	90.6075	117.188	90.6033	117.188	90.5643	117.188	90.5513	117.188	90.5028	117.188	90.4722	117.188	90.425	117.188	90.3658	117.188	90.3324	117.188	90.2321	117.188	90.2253	117.188	90.0718	117.188	90.1024	117.188	89.8862	117.188	89.9616	117.188	89.6775	117.188	89.8007	117.188	89.4499	117.188	89.6183	117.188	89.2097	117.188	89.416	117.188	88.9667	117.188	89.1987	117.188	88.7335	117.188	88.9756	117.188	88.5254	117.188	88.7586	117.188	88.3582	117.188	88.5611	117.188	88.2446	117.188	88.3957	117.188	88.1925	117.188	88.2734	117.188	88.2034
120.117	90.65	120.117	90.6789	120.117	90.5971	120.117	90.6812	120.117	90.5229	120.117	90.6552	120.117	90.4306	120.117	90.5989	120.117	90.3233	120.117	90.5109	120.117	90.2038	120.117	90.3895	120.117	90.0735	120.117	90.2336	120.117	89.9323	120.117	90.043	120.117	89.7786	120.117	89.8193	120.117	89.61	120.117	89.5669	120.117	89.4245	120.117	89.2942	120.117	89.2222	120.117	89.014	120.117	89.0072	120.117	88.7429	120.117	88.7878	120.117	88.4996	120.117	88.5767	120.117	88.3015	120.117	88.3879	120.117	88.1617	120.117	88.2348	120.117	88.0867	120.117	88.1284	120.117	88.0769
124.512	90.7558	124.512	90.8132	124.512	90.6739	124.512	90.8464	124.512	90.5677	124.512	90.856	124.512	90.4383	124.512	90.8416	124.512	90.2878	124.512	90.8015	124.512	90.1191	124.512	90.733	124.512	89.9355	124.512	90.6318	124.512	89.7406	124.512	90.4937	124.512	89.5376	124.512	90.3154	124.512	89.3297	124.512	90.0968	124.512	89.1206	124.512	89.8422	124.512	88.9154	124.512	89.5616	124.512	88.7208	124.512	89.2704	124.512	88.5456	124.512	88.9879	124.512	88.3999	124.512	88.7336	124.512	88.293	124.512	88.5233	124.512	88.2321	124.512	88.3664	124.512	88.2222	124.512	88.2662
128.906	90.7844	128.906	90.7831	128.906	90.7578	128.906	90.758	128.906	90.7005	128.906	90.7138	128.906	90.611	128.906	90.6549	128.906	90.4892	128.906	90.5846	128.906	90.3361	128.906	90.5042	128.906	90.154	128.906	90.4124	128.906	89.9457	128.906	90.3061	128.906	89.715	128.906	90.1809	128.906	89.4671	128.906	90.0327	128.906	89.2097	128.906	89.8596	128.906	88.954	128.906	89.663	128.906	88.7153	128.906	89.4482	128.906	88.5118	128.906	89.2237	128.906	88.3619	128.906	89	128.906	88.279	128.906	88.7877	128.906	88.2682	128.906	88.5971	128.906	88.325	128.906	88.4389
133.301	90.8111	133.301	90.7498	133.301	90.841	133.301	90.6599	133.301	90.8376	133.301	90.5455	133.301	90.8001	133.301	90.4116	133.301	90.7285	133.301	90.2634	133.301	90.6228	133.301	90.1056	133.301	90.4834	133.301	89.9418	133.301	90.3109	133.301	89.7745	133.301	90.1068	133.301	89.6053	133.301	89.8738	133.301	89.4358	133.301	89.6177	133.301	89.2685	133.301	89.3485	133.301	89.1072	133.301	89.0812	133.301	88.9561	133.301	88.8354	133.301	88.8187	133.301	88.6319	133.301	88.6965	133.301	88.4879	133.301	88.5897	133.301	88.4107	133.301	88.4992	133.301	88.396	133.301	88.4307
139.16	90.7028	139.16	90.6563	139.16	90.7158	139.16	90.5748	139.16	90.698	139.16	90.4574	139.16	90.652	139.16	90.3041	139.16	90.5806	139.16	90.1158	139.16	90.4861	139.16	89.8943	139.16	90.3696	139.16	89.6422	139.16	90.2311	139.16	89.364	139.16	90.0695	139.16	89.0665	139.16	89.8835	139.16	88.7612	139.16	89.6727	139.16	88.465	139.16	89.4393	139.16	88.1998	139.16	89.1892	139.16	87.9884	139.16	88.9327	139.16	87.8484	139.16	88.683	139.16	87.785	139.16	88.4533	139.16	87.7909	139.16	88.2531	139.16	87.851	139.16	88.0859	139.16	87.9517
143.555	90.5009	143.555	90.5053	143.555	90.4613	143.555	90.4741	143.555	90.388	143.555	90.4078	143.555	90.2831	143.555	90.3075	143.555	90.1502	143.555	90.1742	143.555	89.9932	143.555	90.0091	143.555	89.8168	143.555	89.8125	143.555	89.626	143.555	89.5852	143.555	89.4259	143.555	89.3288	143.555	89.2215	143.555	89.0479	143.555	89.0177	143.555	88.7526	143.555	88.8191	143.555	88.4599	143.555	88.6298	143.555	88.1927	143.555	88.453	143.555	87.9761	143.555	88.291	143.555	87.8294	143.555	88.1445	143.555	87.7595	143.555	88.0138	143.555	87.759	143.555	87.9009	143.555	87.8118
147.949	90.5904	147.949	90.5958	147.949	90.5422	147.949	90.5583	147.949	90.4522	147.949	90.4786	147.949	90.3224	147.949	90.3585	147.949	90.1553	147.949	90.2001	147.949	89.9542	147.949	90.0061	147.949	89.7231	147.949	89.7798	147.949	89.4673	147.949	89.5258	147.949	89.1943	147.949	89.2506	147.949	88.9145	147.949	88.9642	147.949	88.642	147.949	88.6801	147.949	88.3928	147.949	88.4156	147.949	88.1829	147.949	88.1888	147.949	88.0228	147.949	88.0139	147.949	87.9146	147.949	87.8964	147.949	87.8511	147.949	87.8307	147.949	87.8185	147.949	87.803	147.949	87.8033	147.949	87.7975
153.809	90.84	153.809	90.826	153.809	90.8084	153.809	90.7657	153.809	90.7324	153.809	90.6589	153.809	90.613	153.809	90.5058	153.809	90.4514	153.809	90.3068	153.809	90.2482	153.809	90.0632	153.809	90.0035	153.809	89.777	153.809	89.7181	153.809	89.4527	153.809	89.3948	153.809	89.0992	153.809	89.0414	153.809	88.7313	153.809	88.6736	153.809	88.3715	153.809	88.3161	153.809	88.0477	153.809	87.9999	153.809	87.7876	153.809	87.7543	153.809	87.6088	153.809	87.5944	153.809	87.5111	153.809	87.514	153.809	87.4763	153.809	87.488	153.809	87.4757	153.809	87.4853	153.809	87.4831
159.668	90.876	159.668	90.8694	159.668	90.8405	159.668	90.8201	159.668	90.7632	159.668	90.7273	159.668	90.6441	159.668	90.5899	159.668	90.4827	159.668	90.4063	159.668	90.2779	159.668	90.1749	159.668	90.0291	159.668	89.8946	159.668	89.7364	159.668	89.5661	159.668	89.4031	159.668	89.1953	159.668	89.0379	159.668	88.7957	159.668	88.6575	159.668	88.3918	159.668	88.2874	159.668	88.0181	159.668	87.9592	159.668	87.7122	159.668	87.7022	159.668	87.5018	159.668	87.5321	159.668	87.3913	159.668	87.443	159.668	87.3591	159.668	87.4097	159.668	87.3691	159.668	87.3996	159.668	87.388
165.527	90.729	165.527	90.6796	165.527	90.7378	165.527	90.5871	165.527	90.7083	165.527	90.4492	165.527	90.6423	165.527	90.2634	165.527	90.5406	165.527	90.0272	165.527	90.402	165.527	89.7391	165.527	90.2232	165.527	89.3993	165.527	89.999	165.527	89.0114	165.527	89.7248	165.527	88.5857	165.527	89.3996	165.527	88.1419	165.527	89.0308	165.527	87.7111	165.527	88.6376	165.527	87.3344	165.527	88.251	165.527	87.0531	165.527	87.9074	165.527	86.8937	165.527	87.6351	165.527	86.8542	165.527	87.4414	165.527	86.9043	165.527	87.309	165.527	87.0008	165.527	87.2067	165.527	87.1068
171.387	90.7863	171.387	90.8647	171.387	90.6694	171.387	90.9052	171.387	90.5131	171.387	90.9077	171.387	90.3177	171.387	90.8698	171.387	90.0846	171.387	90.786	171.387	89.8165	171.387	90.6476	171.387	89.5177	171.387	90.4435	171.387	89.1933	171.387	90.1625	171.387	88.8504	171.387	89.7979	171.387	88.4987	171.387	89.3523	171.387	88.153	171.387	88.8446	171.387	87.8345	171.387	88.3147	171.387	87.5688	171.387	87.8217	171.387	87.3772	171.387	87.4303	171.387	87.2651	171.387	87.1835	171.387	87.2151	171.387	87.0809	171.387	87.1934	171.387	87.0804	171.387	87.1676	171.387	87.1243
177.246	90.5143	177.246	90.4798	177.246	90.5105	177.246	90.4122	177.246	90.4633	177.246	90.317	177.246	90.3678	177.246	90.1991	177.246	90.219	177.246	90.0618	177.246	90.0121	177.246	89.906	177.246	89.7434	177.246	89.7294	177.246	89.4115	177.246	89.5279	177.246	89.0204	177.246	89.2981	177.246	88.5822	177.246	89.0415	177.246	88.1216	177.246	88.7685	177.246	87.6785	177.246	88.4987	177.246	87.3047	177.246	88.2561	177.246	87.0523	177.246	88.0584	177.246	86.9514	177.246	87.9064	177.246	86.9943	177.246	87.7815	177.246	87.1374	177.246	87.6549	177.246	87.323	177.246	87.5033
183.105	90.4409	183.105	90.3861	183.105	90.4512	183.105	90.2853	183.105	90.4184	183.105	90.1368	183.105	90.3425	183.105	89.9389	183.105	90.2216	183.105	89.6902	183.105	90.0522	183.105	89.3899	183.105	89.8289	183.105	89.0389	183.105	89.5476	183.105	88.6428	183.105	89.2082	183.105	88.2162	183.105	88.8194	183.105	87.7889	183.105	88.4041	183.105	87.4081	183.105	88.0014	183.105	87.1308	183.105	87.6618	183.105	87.0011	183.105	87.4319	183.105	87.0227	183.105	87.3324	183.105	87.1506	183.105	87.344	183.105	87.313	183.105	87.4155	183.105	87.4436	183.105	87.4853	183.105	87.5031
188.965	90.9044	188.965	90.9156	188.965	90.8372	188.965	90.8708	188.965	90.7136	188.965	90.7699	188.965	90.5333	188.965	90.6117	188.965	90.2953	188.965	90.3939	188.965	89.9967	188.965	90.1129	188.965	89.6329	188.965	89.7654	188.965	89.1997	188.965	89.3501	188.965	88.6979	188.965	88.8706	188.965	88.1419	188.965	88.341	188.965	87.5696	188.965	87.7916	188.965	87.047	188.965	87.2742	188.965	86.6549	188.965	86.857	188.965	86.4512	188.965	86.6003	188.965	86.4316	188.965	86.5199	188.965	86.5297	188.965	86.5705	188.965	86.656	188.965	86.6701	188.965	86.7383	188.965	86.7413
196.289	91.1782	196.289	91.119	196.289	91.1968	196.289	91.0155	196.289	91.1777	196.289	90.8632	196.289	91.1226	196.289	90.6552	196.289	91.0307	196.289	90.3812	196.289	90.8963	196.289	90.0272	196.289	90.7086	196.289	89.5777	196.289	90.4517	196.289	89.0207	196.289	90.1084	196.289	88.3587	196.289	89.6666	196.289	87.6244	196.289	89.1284	196.289	86.8981	196.289	88.5213	196.289	86.3089	196.289	87.9074	196.289	85.9851	196.289	87.3776	196.289	85.9654	196.289	87.017	196.289	86.1641	196.289	86.8519	196.289	86.4388	196.289	86.8271	196.289	86.6731	196.289	86.8429	196.289	86.8082
203.613	91.0503	203.613	91.1174	203.613	90.9339	203.613	91.1361	203.613	90.7687	203.613	91.1073	203.613	90.5574	203.613	91.0298	203.613	90.3058	203.613	90.8983	203.613	90.0205	203.613	90.7025	203.613	89.7077	203.613	90.4274	203.613	89.37	203.613	90.0566	203.613	89.0067	203.613	89.5788	203.613	88.6175	203.613	88.9975	203.613	88.2108	203.613	88.3447	203.613	87.8125	203.613	87.6908	203.613	87.4671	203.613	87.141	203.613	87.2228	203.613	86.7955	203.613	87.1032	203.613	86.6887	203.613	87.0858	203.613	86.7635	203.613	87.1108	203.613	86.914	203.613	87.1118	203.613	87.0464
210.938	90.9266	210.938	90.9546	210.938	90.8673	210.938	90.9537	210.938	90.7703	210.938	90.9219	210.938	90.6259	210.938	90.8525	210.938	90.4212	210.938	90.7336	210.938	90.1418	210.938	90.5479	210.938	89.7728	210.938	90.2726	210.938	89.3022	210.938	89.8834	210.938	88.7263	210.938	89.3606	210.938	88.0598	210.938	88.7029	210.938	87.3512	210.938	87.9486	210.938	86.6969	210.938	87.1998	210.938	86.2307	210.938	86.6202	210.938	86.0603	210.938	86.3579	210.938	86.1832	210.938	86.4226	210.938	86.4803	210.938	86.6715	210.938	86.7958	210.938	86.9238	210.938	87.0085	210.938	87.0539
218.262	90.486	218.262	90.4383	218.262	90.5058	218.262	90.3687	218.262	90.4905	218.262	90.2826	218.262	90.4312	218.262	90.1831	218.262	90.3155	218.262	90.0692	218.262	90.1275	218.262	89.9335	218.262	89.8477	218.262	89.7624	218.262	89.4559	218.262	89.5377	218.262	88.935	218.262	89.2414	218.262	88.2804	218.262	88.8616	218.262	87.5163	218.262	88.4025	218.262	86.7197	218.262	87.8955	218.262	86.0362	218.262	87.4058	218.262	85.6413	218.262	87.0195	218.262	85.6191	218.262	86.7985	218.262	85.879	218.262	86.7311	218.262	86.233	218.262	86.7304	218.262	86.5258	218.262	86.6874
225.586	91.4148	225.586	91.2706	225.586	91.5104	225.586	91.076	225.586	91.5602	225.586	90.8321	225.586	91.5649	225.586	90.5415	225.586	91.5191	225.586	90.2056	225.586	91.4097	225.586	89.8219	225.586	91.2152	225.586	89.3824	225.586	90.9079	225.586	88.8801	225.586	90.4585	225.586	88.3199	225.586	89.8428	225.586	87.7366	225.586	89.0546	225.586	87.2071	225.586	88.129	225.586	86.8362	225.586	87.1796	225.586	86.7005	225.586	86.4186	225.586	86.7861	225.586	86.0712	225.586	86.9913	225.586	86.1779	225.586	87.1889	225.586	86.5463	225.586	87.2775	225.586	86.9361	225.586	87.1975
232.91	90.9613	232.91	90.9524	232.91	90.9309	232.91	90.8889	232.91	90.878	232.91	90.7582	232.91	90.8178	232.91	90.5488	232.91	90.7579	232.91	90.2489	232.91	90.6921	232.91	89.8447	232.91	90.5993	232.91	89.32	232.91	90.4475	232.91	88.6577	232.91	90.2032	232.91	87.8479	232.91	89.8409	232.91	86.9063	232.91	89.3527	232.91	85.9086	232.91	88.7574	232.91	85.0318	232.91	88.1081	232.91	84.5296	232.91	87.493	232.91	84.5517	232.91	87.0107	232.91	84.9767	232.91	86.7169	232.91	85.5339	232.91	86.5785	232.91	86.0133	232.91	86.4889	232.91	86.3277
241.699	90.8528	241.699	90.9804	241.699	90.6982	241.699	91.0861	241.699	90.5134	241.699	91.1734	241.699	90.299	241.699	91.2382	241.699	90.0574	241.699	91.2627	241.699	89.7891	241.699	91.2124	241.699	89.4879	241.699	91.0383	241.699	89.1376	241.699	90.6826	241.699	88.7145	241.699	90.088	241.699	88.1986	241.699	89.2106	241.699	87.5939	241.699	88.0477	241.699	86.956	241.699	86.7005	241.699	86.4088	241.699	85.4745	241.699	86.1068	241.699	84.8441	241.699	86.1206	241.699	85.0035	241.699	86.3554	241.699	85.6068	241.699	86.6193	241.699	86.2195	241.699	86.7406	241.699	86.6175
250.488	90.9051	250.488	90.8904	250.488	90.8762	250.488	90.8404	250.488	90.797	250.488	90.7663	250.488	90.6605	250.488	90.6812	250.488	90.4578	250.488	90.5952	250.488	90.177	250.488	90.5068	250.488	89.8022	250.488	90.3958	250.488	89.3142	250.488	90.2224	250.488	88.6959	250.488	89.9349	250.488	87.9432	250.488	89.4852	250.488	87.088	250.488	88.8488	250.488	86.2278	250.488	88.0526	250.488	85.5364	250.488	87.2054	250.488	85.1947	250.488	86.5	250.488	85.2446	250.488	86.116	250.488	85.5442	250.488	86.0605	250.488	85.892	250.488	86.1615	250.488	86.1407	250.488	86.2249
259.277	91.9085	259.277	91.8823	259.277	91.8924	259.277	91.8184	259.277	91.8302	259.277	91.7192	259.277	91.7181	259.277	91.5801	259.277	91.5487	259.277	91.3861	259.277	91.3061	259.277	91.1109	259.277	90.9623	259.277	90.7203	259.277	90.4781	259.277	90.1801	259.277	89.8083	259.277	89.4666	259.277	88.9152	259.277	88.5812	259.277	87.7972	259.277	87.5738	259.277	86.5487	259.277	86.572	259.277	85.4472	259.277	85.7873	259.277	84.9062	259.277	85.4269	259.277	85.0788	259.277	85.5204	259.277	85.6412	259.277	85.8839	259.277	86.1848	259.277	86.2746	259.277	86.4936	259.277	86.512
268.066	90.8244	268.066	90.7281	268.066	90.9318	268.066	90.6503	268.066	91.0428	268.066	90.5991	268.066	91.1465	268.066	90.5798	268.066	91.2247	268.066	90.5854	268.066	91.2484	268.066	90.5874	268.066	91.177	268.066	90.5339	268.066	90.9595	268.066	90.3587	268.066	90.5392	268.066	89.9995	268.066	89.8593	268.066	89.4193	268.066	88.8753	268.066	88.6342	268.066	87.5846	268.066	87.7494	268.066	86.1065	268.066	86.9738	268.066	84.8206	268.066	86.5302	268.066	84.302	268.066	86.4618	268.066	84.6793	268.066	86.5859	268.066	85.444	268.066	86.6652	268.066	86.1249	268.066	86.5369
276.855	90.0577	276.855	90.0465	276.855	90.0415	276.855	89.9969	276.855	90.0224	276.855	89.9134	276.855	90.0297	276.855	89.8125	276.855	90.0829	276.855	89.7142	276.855	90.1744	276.855	89.6259	276.855	90.2598	276.855	89.5281	276.855	90.2666	276.855	89.3705	276.855	90.1118	276.855	89.087	276.855	89.7225	276.855	88.6229	276.855	89.0545	276.855	87.9738	276.855	88.1191	276.855	87.2341	276.855	87.0343	276.855	86.6223	276.855	86.0809	276.855	86.3762	276.855	85.6218	276.855	86.5207	276.855	85.772	276.855	86.8311	276.855	86.2635	276.855	87.0522	276.855	86.7529	276.855	87.0379
287.109	90.5409	287.109	90.4931	287.109	90.5477	287.109	90.3941	287.109	90.5283	287.109	90.243	287.109	90.4974	287.109	90.0487	287.109	90.4627	287.109	89.8257	287.109	90.4186	287.109	89.5825	287.109	90.3416	287.109	89.3074	287.109	90.1894	287.109	88.9611	287.109	89.9051	287.109	88.4837	287.109	89.4259	287.109	87.8178	287.109	88.6974	287.109	86.9455	287.109	87.6978	287.109	85.9456	287.109	86.4904	287.109	85.0554	287.109	85.3169	287.109	84.6106	287.109	84.613	287.109	84.7386	287.109	84.6421	287.109	85.1905	287.109	85.1236	287.109	85.6115	287.109	85.5895	287.109	85.7724
297.363	90.7713	297.363	90.8675	297.363	90.6163	297.363	90.9035	297.363	90.4123	297.363	90.8752	297.363	90.1847	297.363	90.7688	297.363	89.9712	297.363	90.5583	297.363	89.8031	297.363	90.2087	297.363	89.6785	297.363	89.6802	297.363	89.5487	297.363	88.9312	297.363	89.3342	297.363	87.9237	297.363	88.9604	297.363	86.6394	297.363	88.3929	297.363	85.1371	297.363	87.6651	297.363	83.6881	297.363	86.8926	297.363	82.874	297.363	86.2482	297.363	83.0946	297.363	85.8707	297.363	83.9547	297.363	85.7683	297.363	84.8456	297.363	85.8248	297.363	85.4779	297.363	85.8838	297.363	85.8043
307.617	90.6973	307.617	90.7416	307.617	90.6303	307.617	90.7883	307.617	90.5229	307.617	90.8606	307.617	90.3674	307.617	90.9631	307.617	90.1642	307.617	91.0673	307.617	89.9146	307.617	91.1094	307.617	89.6094	307.617	91.0024	307.617	89.2163	307.617	90.6529	307.617	88.6755	307.617	89.9743	307.617	87.9116	307.617	88.8972	307.617	86.8692	307.617	87.3915	307.617	85.5869	307.617	85.5385	307.617	84.3308	307.617	83.7192	307.617	83.6414	307.617	82.73	307.617	83.8312	307.617	82.9929	307.617	84.5069	307.617	83.8887	307.617	85.1201	307.617	84.7397	307.617	85.3987	307.617	85.2691
319.336	89.6637	319.336	89.4979	319.336	89.7635	319.336	89.2783	319.336	89.8112	319.336	89.0526	319.336	89.8335	319.336	88.9017	319.336	89.8504	319.336	88.9095	319.336	89.8533	319.336	89.103	319.336	89.7939	319.336	89.4107	319.336	89.5912	319.336	89.688	319.336	89.1492	319.336	89.7778	319.336	88.3714	319.336	89.5519	319.336	87.1727	319.336	88.9294	319.336	85.5161	319.336	87.9036	319.336	83.5699	319.336	86.6128	319.336	82.1017	319.336	85.4398	319.336	82.1871	319.336	84.8844	319.336	83.397	319.336	85.0165	319.336	84.6009	319.336	85.3903	319.336	85.3429	319.336	85.5747
329.59	89.5952	329.59	89.5574	329.59	89.615	329.59	89.4867	329.59	89.653	329.59	89.3923	329.59	89.7564	329.59	89.3001	329.59	89.9602	329.59	89.2308	329.59	90.2571	329.59	89.1691	329.59	90.5804	329.59	89.0449	329.59	90.8172	329.59	88.7462	329.59	90.8377	329.59	88.1543	329.59	90.5191	329.59	87.1849	329.59	89.7561	329.59	85.856	329.59	88.4793	329.59	84.4431	329.59	86.7298	329.59	83.6295	329.59	84.9051	329.59	83.9412	329.59	83.9916	329.59	84.9299	329.59	84.4848	329.59	85.8941	329.59	85.5149	329.59	86.5015	329.59	86.3137	329.59	86.651
341.309	89.834	341.309	89.8936	341.309	89.6389	341.309	89.8233	341.309	89.3347	341.309	89.6539	341.309	88.9965	341.309	89.4436	341.309	88.7587	341.309	89.273	341.309	88.7701	341.309	89.2107	341.309	89.0765	341.309	89.2546	341.309	89.5471	341.309	89.3002	341.309	89.9526	341.309	89.1778	341.309	90.0815	341.309	88.7171	341.309	89.7877	341.309	87.7979	341.309	88.9949	341.309	86.4216	341.309	87.7279	341.309	84.9234	341.309	86.2446	341.309	84.2062	341.309	85.2214	341.309	84.8158	341.309	85.2939	341.309	85.9567	341.309	86.0873	341.309	86.8135	341.309	86.827	341.309	87.1106
353.027	90.1335	353.027	90.119	353.027	90.0223	353.027	89.9855	353.027	89.8017	353.027	89.7676	353.027	89.5139	353.027	89.5368	353.027	89.2297	353.027	89.3902	353.027	89.0335	353.027	89.394	353.027	88.9738	353.027	89.5104	353.027	89.0063	353.027	89.5892	353.027	88.9924	353.027	89.4316	353.027	88.7619	353.027	88.8493	353.027	88.1817	353.027	87.6855	353.027	87.2158	353.027	85.859	353.027	86.0274	353.027	83.6292	353.027	85.1177	353.027	82.3204	353.027	85.0653	353.027	83.1802	353.027	85.7365	353.027	84.8432	353.027	86.4881	353.027	86.1221	353.027	86.8957	353.027	86.7967
366.211	90.7747	366.211	90.76	366.211	90.6243	366.211	90.6136	366.211	90.2861	366.211	90.3771	366.211	89.7541	366.211	90.1019	366.211	89.0552	366.211	89.8495	366.211	88.2735	366.211	89.6789	366.211	87.5525	366.211	89.6065	366.211	87.0151	366.211	89.565	366.211	86.6274	366.211	89.4068	366.211	86.1825	366.211	88.9513	366.211	85.4348	366.211	88.031	366.211	84.2223	366.211	86.5388	366.211	82.6084	366.211	84.585	366.211	81.2862	366.211	82.9558	366.211	81.516	366.211	82.9283	366.211	83.0211	366.211	84.0786	366.211	84.4969	366.211	85.1324	366.211	85.388	366.211	85.5981
379.395	90.2125	379.395	90.2031	379.395	90.1184	379.395	90.0746	379.395	89.941	379.395	89.8262	379.395	89.706	379.395	89.4879	379.395	89.4575	379.395	89.1316	379.395	89.2632	379.395	88.8573	379.395	89.1853	379.395	88.732	379.395	89.2174	379.395	88.7127	379.395	89.2454	379.395	88.6402	379.395	89.0804	379.395	88.3133	379.395	88.5219	379.395	87.5616	379.395	87.4004	379.395	86.2947	379.395	85.6208	379.395	84.6026	379.395	83.34	379.395	83.0002	379.395	81.5063	379.395	82.3838	379.395	81.4773	379.395	82.8323	379.395	82.5569	379.395	83.4845	379.395	83.4468	379.395	83.7546
392.578	89.8639	392.578	89.7513	392.578	89.8087	392.578	89.4827	392.578	89.604	392.578	89.1034	392.578	89.3128	392.578	88.712	392.578	89.0583	392.578	88.4599	392.578	88.9936	392.578	88.4738	392.578	89.189	392.578	88.7254	392.578	89.5317	392.578	89.0133	392.578	89.774	392.578	89.0803	392.578	89.6575	392.578	88.7117	392.578	88.9757	392.578	87.7609	392.578	87.5851	392.578	86.1796	392.578	85.4772	392.578	84.1956	392.578	83.1725	392.578	82.7481	392.578	82.2721	392.578	82.9304	392.578	83.2555	392.578	84.0694	392.578	84.5417	392.578	85.0523	392.578	85.3279	392.578	85.4948
405.762	91.0724	405.762	91.0142	405.762	90.9341	405.762	90.7666	405.762	90.5897	405.762	90.315	405.762	90.0666	405.762	89.6335	405.762	89.4827	405.762	88.7363	405.762	89.0759	405.762	87.7812	405.762	89.0898	405.762	87.1436	405.762	89.504	405.762	87.1255	405.762	89.9944	405.762	87.4655	405.762	90.1976	405.762	87.5977	405.762	89.8668	405.762	87.1451	405.762	88.8472	405.762	86.0326	405.762	87.0227	405.762	84.6391	405.762	84.3917	405.762	84.0132	405.762	81.7935	405.762	84.701	405.762	81.7476	405.762	85.7648	405.762	83.7235	405.762	86.3868	405.762	85.4174	405.762	86.3001
420.41	91.3893	420.41	91.4505	420.41	91.1056	420.41	91.3062	420.41	90.5942	420.41	91.0038	420.41	89.859	420.41	90.638	420.41	88.9539	420.41	90.3391	420.41	88.0912	420.41	90.2001	420.41	87.6954	420.41	90.1812	420.41	88.0183	420.41	90.1116	420.41	88.7016	420.41	89.7807	420.41	89.1797	420.41	88.9993	420.41	89.0947	420.41	87.5888	420.41	88.2674	420.41	85.3416	420.41	86.6562	420.41	82.0771	420.41	84.6442	420.41	78.8516	420.41	83.6648	420.41	79.8859	420.41	84.5403	420.41	82.8973	420.41	85.7776	420.41	85.0214	420.41	86.3771	420.41	86.1417
435.059	92.1022	435.059	91.9275	435.059	92.0357	435.059	91.5056	435.059	91.7292	435.059	90.8534	435.059	91.1691	435.059	90.0652	435.059	90.337	435.059	89.396	435.059	89.2509	435.059	89.2421	435.059	88.0498	435.059	89.7658	435.059	87.0682	435.059	90.6003	435.059	86.6485	435.059	91.2107	435.059	86.6854	435.059	91.2166	435.059	86.6772	435.059	90.3663	435.059	86.177	435.059	88.4302	435.059	84.9434	435.059	85.1674	435.059	83.0211	435.059	81.0765	435.059	81.3909	435.059	80.6596	435.059	81.9611	435.059	83.3446	435.059	83.8406	435.059	85.1264	435.059	85.2506	435.059	85.7135
451.172	91.7866	451.172	91.6265	451.172	91.7281	451.172	91.2405	451.172	91.4163	451.172	90.5711	451.172	90.8092	451.172	89.5379	451.172	89.9324	451.172	88.1273	451.172	89.0095	451.172	86.6569	451.172	88.5339	451.172	86.1098	451.172	88.8468	451.172	87.0803	451.172	89.5854	451.172	88.5813	451.172	90.1119	451.172	89.6655	451.172	90.0048	451.172	89.9978	451.172	89.0278	451.172	89.4784	451.172	87.0324	451.172	88.0651	451.172	84.2044	451.172	85.8281	451.172	82.4633	451.172	83.517	451.172	83.7283	451.172	83.1259	451.172	85.3924	451.172	84.5146	451.172	86.0806	451.172	85.7332
465.82	92.5537	465.82	92.6311	465.82	92.3166	465.82	92.5021	465.82	91.9032	465.82	92.0825	465.82	91.2207	465.82	91.2735	465.82	90.1159	465.82	89.9919	465.82	88.4662	465.82	88.2777	465.82	86.5752	465.82	86.6147	465.82	85.9722	465.82	86.0415	465.82	87.382	465.82	86.6124	465.82	88.9619	465.82	87.1268	465.82	89.68	465.82	86.7884	465.82	89.3702	465.82	85.3012	465.82	88.0255	465.82	82.9396	465.82	85.7035	465.82	82.114	465.82	83.1473	465.82	84.2248	465.82	82.8855	465.82	86.3227	465.82	84.8585	465.82	87.3996	465.82	86.6129	465.82	87.4778
483.398	91.6753	483.398	91.4744	483.398	91.8234	483.398	91.2462	483.398	91.8775	483.398	90.99	483.398	91.7711	483.398	90.6664	483.398	91.3971	483.398	90.2076	483.398	90.606	483.398	89.5563	483.398	89.226	483.398	88.734	483.398	87.1275	483.398	87.9384	483.398	84.5174	483.398	87.5208	483.398	82.7203	483.398	87.5832	483.398	82.7654	483.398	87.677	483.398	82.8715	483.398	87.1841	483.398	81.7131	483.398	85.6261	483.398	79.5156	483.398	82.6069	483.398	78.813	483.398	78.0505	483.398	80.5398	483.398	76.2798	483.398	82.0154	483.398	79.4069	483.398	82.4001	483.398	81.6037
499.512	91.334	499.512	91.3098	499.512	91.1865	499.512	91.0795	499.512	90.9212	499.512	90.6247	499.512	90.5825	499.512	89.9132	499.512	90.1768	499.512	88.8887	499.512	89.6919	499.512	87.5481	499.512	89.1572	499.512	86.1835	499.512	88.6795	499.512	85.5797	499.512	88.3735	499.512	86.1187	499.512	88.2035	499.512	86.9766	499.512	87.9412	499.512	87.3136	499.512	87.2946	499.512	86.7825	499.512	86.0049	499.512	85.341	499.512	83.8783	499.512	83.3891	499.512	81.1262	499.512	82.3233	499.512	79.8422	499.512	83.0118	499.512	81.5151	499.512	83.999	499.512	83.3717	499.512	84.2121
517.09	92.0286	517.09	92.0025	517.09	91.9182	517.09	91.8315	517.09	91.6302	517.09	91.4639	517.09	91.0934	517.09	90.8297	517.09	90.2268	517.09	89.8613	517.09	88.969	517.09	88.521	517.09	87.4087	517.09	86.9295	517.09	86.1639	517.09	85.684	517.09	86.2412	517.09	85.5794	517.09	87.2722	517.09	86.1101	517.09	88.004	517.09	86.1007	517.09	87.7804	517.09	85.0025	517.09	86.341	517.09	83.002	517.09	83.6068	517.09	81.5664	517.09	80.624	517.09	82.2439	517.09	81.0098	517.09	83.7153	517.09	83.2961	517.09	84.8033	517.09	84.7772	517.09	85.218
536.133	91.9164	536.133	91.9298	536.133	91.8095	536.133	91.802	536.133	91.628	536.133	91.4946	536.133	91.3239	536.133	90.9774	536.133	90.7749	536.133	90.2026	536.133	89.8042	536.133	89.1211	536.133	88.2393	536.133	87.8113	536.133	86.167	536.133	86.6651	536.133	84.7109	536.133	86.1716	536.133	85.2744	536.133	86.18	536.133	86.4868	536.133	86.0323	536.133	86.867	536.133	85.1671	536.133	86.0114	536.133	83.1373	536.133	83.944	536.133	79.7797	536.133	81.7224	536.133	78.3486	536.133	82.0943	536.133	81.5916	536.133	84.0725	536.133	84.2694	536.133	85.3562	536.133	85.4614
555.176	90.8071	555.176	90.5597	555.176	90.957	555.176	90.2897	555.176	90.9769	555.176	90.0349	555.176	90.8657	555.176	89.7165	555.176	90.5897	555.176	89.1629	555.176	90.0579	555.176	88.2169	555.176	89.1598	555.176	86.9047	555.176	87.8269	555.176	85.7624	555.176	86.1544	555.176	85.7642	555.176	84.7083	555.176	86.6858	555.176	84.3339	555.176	87.2836	555.176	84.5684	555.176	86.8462	555.176	84.1114	555.176	85.1454	555.176	82.2176	555.176	82.4637	555.176	79.1592	555.176	81.1927	555.176	79.3109	555.176	83.2047	555.176	82.8618	555.176	85.2952	555.176	85.2853	555.176	86.0601
574.219	91.3454	574.219	91.5886	574.219	91.0828	574.219	91.7365	574.219	90.8536	574.219	91.7116	574.219	90.6603	574.219	91.4582	574.219	90.4107	574.219	90.9216	574.219	89.9124	574.219	89.9839	574.219	88.9531	574.219	88.4556	574.219	87.4979	574.219	86.2668	574.219	86.1762	574.219	84.21	574.219	86.1995	574.219	84.0993	574.219	87.0473	574.219	85.0145	574.219	87.1955	574.219	84.9552	574.219	85.9039	574.219	83.2164	574.219	82.8672	574.219	79.7348	574.219	79.4408	574.219	78.0836	574.219	81.0308	574.219	81.4326	574.219	83.8248	574.219	84.1016	574.219	85.1931	574.219	85.2748
594.727	90.8054	594.727	90.7114	594.727	90.8806	594.727	90.6163	594.727	90.9419	594.727	90.5384	594.727	90.9688	594.727	90.4114	594.727	90.8596	594.727	90.0629	594.727	90.4035	594.727	89.2902	594.727	89.2971	594.727	87.9521	594.727	87.2219	594.727	86.1928	594.727	84.2258	594.727	84.9455	594.727	82.3729	594.727	85.0977	594.727	83.5226	594.727	85.4947	594.727	84.5833	594.727	84.7265	594.727	84.0912	594.727	82.1044	594.727	81.9456	594.727	78.2146	594.727	79.2169	594.727	79.0112	594.727	79.7126	594.727	82.305	594.727	82.3106	594.727	84.1858	594.727	84.0982	594.727	84.7252
615.234	90.7007	615.234	90.6457	615.234	90.535	615.234	90.3934	615.234	90.1871	615.234	90.0171	615.234	89.7607	615.234	89.5769	615.234	89.3989	615.234	89.0331	615.234	89.1593	615.234	88.253	615.234	88.8987	615.234	87.0916	615.234	88.3492	615.234	85.4613	615.234	87.3066	615.234	83.7217	615.234	85.9716	615.234	83.392	615.234	85.3178	615.234	84.6193	615.234	85.6563	615.234	85.2923	615.234	85.597	615.234	84.3288	615.234	83.9205	615.234	81.6913	615.234	79.7556	615.234	79.6113	615.234	75.4163	615.234	80.6606	615.234	78.9707	615.234	81.9335	615.234	81.5277	615.234	82.2796
637.207	90.6172	637.207	90.6719	637.207	90.536	637.207	90.6497	637.207	90.5065	637.207	90.5466	637.207	90.5814	637.207	90.3923	637.207	90.684	637.207	90.1456	637.207	90.5574	637.207	89.5811	637.207	89.8344	637.207	88.3629	637.207	88.17	637.207	86.3381	637.207	85.6313	637.207	84.2635	637.207	83.9444	637.207	83.9666	637.207	84.499	637.207	84.7978	637.207	84.9596	637.207	84.9102	637.207	84.0625	637.207	83.6057	637.207	81.6258	637.207	80.3707	637.207	78.7629	637.207	75.3132	637.207	80.4736	637.207	78.362	637.207	83.8663	637.207	83.1456	637.207	85.5655	637.207	85.3718
659.18	90.0199	659.18	90.0739	659.18	89.8722	659.18	90.0092	659.18	89.6359	659.18	89.8381	659.18	89.2923	659.18	89.6879	659.18	88.8455	659.18	89.6652	659.18	88.4139	659.18	89.6015	659.18	88.0654	659.18	89.13	659.18	87.4709	659.18	87.9333	659.18	86.0848	659.18	85.87	659.18	83.8378	659.18	83.3807	659.18	82.7436	659.18	82.0546	659.18	83.9612	659.18	81.6989	659.18	84.2023	659.18	79.7246	659.18	82.0787	659.18	74.0869	659.18	78.5971	659.18	74.5261	659.18	78.7515	659.18	80.0765	659.18	80.9467	659.18	82.4407	659.18	82.4357	659.18	83.0216
682.617	91.2223	682.617	91.2065	682.617	90.9047	682.617	90.8551	682.617	90.3245	682.617	90.2297	682.617	89.6734	682.617	89.4902	682.617	89.2832	682.617	88.8917	682.617	89.2471	682.617	88.4941	682.617	89.1121	682.617	87.9101	682.617	88.4256	682.617	86.7505	682.617	87.1778	682.617	85.4675	682.617	85.7561	682.617	85.1868	682.617	84.7432	682.617	85.4263	682.617	84.2536	682.617	85.0537	682.617	83.4303	682.617	83.6778	682.617	81.2766	682.617	80.9195	682.617	77.0439	682.617	76.8009	682.617	75.8196	682.617	79.2496	682.617	81.2756	682.617	83.639	682.617	84.501	682.617	85.2884
707.52	91.288	707.52	91.2169	707.52	90.9852	707.52	90.7414	707.52	90.4729	707.52	89.9976	707.52	89.9246	707.52	89.3452	707.52	89.2728	707.52	89.0623	707.52	88.4231	707.52	88.8248	707.52	87.5737	707.52	88.0588	707.52	86.6364	707.52	86.5192	707.52	84.8464	707.52	84.5361	707.52	82.1432	707.52	83.3502	707.52	82.195	707.52	83.623	707.52	84.4865	707.52	83.9153	707.52	85.1725	707.52	83.074	707.52	83.5335	707.52	80.3308	707.52	78.3913	707.52	74.3416	707.52	69.3773	707.52	73.7399	707.52	78.6841	707.52	79.4286	707.52	81.917	707.52	81.9177
732.422	90.3338	732.422	90.2051	732.422	90.2661	732.422	89.9532	732.422	89.8986	732.422	89.6143	732.422	89.2661	732.422	89.2022	732.422	88.6869	732.422	88.6522	732.422	88.4729	732.422	87.967	732.422	88.4371	732.422	87.3561	732.422	88.2154	732.422	86.6323	732.422	87.5704	732.422	85.0081	732.422	86.1704	732.422	82.7498	732.422	83.8077	732.422	83.0067	732.422	81.8156	732.422	84.1311	732.422	81.5527	732.422	82.8068	732.422	80.3976	732.422	77.8771	732.422	76.3031	732.422	73.4002	732.422	70.822	732.422	77.5334	732.422	74.6287	732.422	79.2479	732.422	77.728	732.422	79.0956
757.324	91.8388	757.324	91.9764	757.324	91.4325	757.324	91.654	757.324	90.8774	757.324	90.7828	757.324	90.0836	757.324	89.4473	757.324	88.8983	757.324	87.9745	757.324	87.5543	757.324	86.9734	757.324	86.8589	757.324	86.7689	757.324	86.799	757.324	86.7321	757.324	86.1371	757.324	85.9886	757.324	84.4761	757.324	84.4206	757.324	83.5136	757.324	83.6724	757.324	84.2357	757.324	84.2279	757.324	84.2348	757.324	83.6101	757.324	81.9039	757.324	80.2514	757.324	75.405	757.324	71.1642	757.324	66.7302	757.324	73.23	757.324	77.0872	757.324	78.7911	757.324	79.9445	757.324	80.3503
785.156	91.4414	785.156	91.3621	785.156	91.2082	785.156	90.9306	785.156	90.7947	785.156	90.2586	785.156	90.1735	785.156	89.4706	785.156	89.134	785.156	88.6005	785.156	87.8433	785.156	87.8004	785.156	87.2294	785.156	87.3681	785.156	87.4052	785.156	87.2572	785.156	87.1249	785.156	87.0951	785.156	85.5769	785.156	86.2581	785.156	83.5515	785.156	84.4253	785.156	83.6517	785.156	83.2127	785.156	84.2902	785.156	82.94	785.156	83.3342	785.156	80.8623	785.156	80.2464	785.156	75.1413	785.156	76.5688	785.156	74.6311	785.156	81.3154	785.156	81.4692	785.156	84.6059	785.156	84.5301
811.523	91.7517	811.523	91.7363	811.523	91.3571	811.523	91.3336	811.523	90.6908	811.523	90.5707	811.523	90.0479	811.523	89.5522	811.523	89.455	811.523	88.6415	811.523	88.4366	811.523	87.9001	811.523	86.548	811.523	86.7409	811.523	84.445	811.523	84.7938	811.523	83.5791	811.523	82.3478	811.523	82.9603	811.523	81.6772	811.523	82.1444	811.523	83.373	811.523	83.12	811.523	83.9504	811.523	84.5339	811.523	83.04	811.523	83.9807	811.523	81.3727	811.523	80.6238	811.523	77.677	811.523	74.2519	811.523	75.08	811.523	73.0937	811.523	79.154	811.523	77.4485	811.523	79.7846
840.82	90.8271	840.82	90.7567	840.82	90.8935	840.82	90.542	840.82	90.7635	840.82	89.9538	840.82	90.1315	840.82	89.0319	840.82	88.7605	840.82	87.9426	840.82	86.8342	840.82	86.9388	840.82	85.7092	840.82	86.5094	840.82	86.0904	840.82	86.2509	840.82	86.1833	840.82	84.9204	840.82	84.6283	840.82	82.5753	840.82	81.5196	840.82	81.5339	840.82	80.0652	840.82	81.7899	840.82	81.2785	840.82	81.3218	840.82	81.0817	840.82	79.5069	840.82	78.7996	840.82	76.7594	840.82	75.7343	840.82	75.3985	840.82	73.9232	840.82	75.0683	840.82	74.0089	840.82	74.2154
870.117	90.7844	870.117	90.6516	870.117	91.0023	870.117	90.6732	870.117	90.906	870.117	90.5717	870.117	90.1565	870.117	89.9103	870.117	88.9805	870.117	88.547	870.117	87.9512	870.117	86.8118	870.117	86.7817	870.117	85.2758	870.117	85.0439	870.117	84.5201	870.117	84.4638	870.117	84.9074	870.117	84.7174	870.117	85.1384	870.117	83.4963	870.117	83.7203	870.117	81.6937	870.117	82.0261	870.117	81.6443	870.117	82.8338	870.117	81.4688	870.117	82.0407	870.117	79.0804	870.117	78.0229	870.117	71.682	870.117	72.2687	870.117	76.0173	870.117	77.1471	870.117	81.1126	870.117	81.0394
900.879	91.0849	900.879	91.4387	900.879	90.3043	900.879	90.9366	900.879	89.6291	900.879	89.7849	900.879	89.2363	900.879	88.599	900.879	88.9587	900.879	87.9358	900.879	88.238	900.879	87.7767	900.879	86.8186	900.879	86.9868	900.879	85.4498	900.879	84.6929	900.879	84.43	900.879	82.4742	900.879	82.8215	900.879	81.9416	900.879	81.1093	900.879	81.0437	900.879	81.8764	900.879	82.0335	900.879	83.413	900.879	82.904	900.879	83.0729	900.879	81.9559	900.879	80.4976	900.879	79.1537	900.879	74.7805	900.879	75.645	900.879	73.6216	900.879	78.0497	900.879	77.8474	900.879	79.1675
933.105	91.0559	933.105	90.4567	933.105	91.3666	933.105	90.2965	933.105	90.9974	933.105	90.3953	933.105	90.2618	933.105	90.0206	933.105	89.5832	933.105	88.5852	933.105	88.8557	933.105	86.1989	933.105	87.6225	933.105	84.9728	933.105	86.0617	933.105	85.3866	933.105	85.1657	933.105	84.8145	933.105	84.2087	933.105	82.6841	933.105	80.7699	933.105	81.49	933.105	77.6048	933.105	81.6734	933.105	82.0777	933.105	82.4303	933.105	83.4474	933.105	81.7018	933.105	81.1188	933.105	77.6836	933.105	76.1115	933.105	71.5835	933.105	72.492	933.105	69.9023	933.105	72.5731	933.105	71.859
965.332	90.8846	965.332	91.0045	965.332	90.657	965.332	90.6487	965.332	90.37	965.332	89.922	965.332	89.6067	965.332	88.8821	965.332	88.4318	965.332	87.3287	965.332	87.455	965.332	86.1531	965.332	86.5006	965.332	85.6105	965.332	85.3822	965.332	84.7918	965.332	84.7512	965.332	83.9762	965.332	83.8961	965.332	81.4124	965.332	81.0049	965.332	78.2952	965.332	79.5603	965.332	83.2028	965.332	82.1969	965.332	84.6618	965.332	82.717	965.332	81.6073	965.332	80.8506	965.332	75.7012	965.332	76.2976	965.332	72.1374	965.332	75.7887	965.332	77.0866	965.332	80.9109	965.332	81.2996
1,000.49	90.0469	1,000.49	89.8718	1,000.49	89.8374	1,000.49	89.4679	1,000.49	89.3223	1,000.49	88.8102	1,000.49	88.8386	1,000.49	87.9666	1,000.49	88.2573	1,000.49	87.1894	1,000.49	87.091	1,000.49	86.0509	1,000.49	85.4501	1,000.49	84.3138	1,000.49	83.2255	1,000.49	83.1493	1,000.49	81.6	1,000.49	82.1362	1,000.49	83.5799	1,000.49	81.5421	1,000.49	83.6298	1,000.49	79.9997	1,000.49	80.5961	1,000.49	77.5779	1,000.49	81.174	1,000.49	80.4851	1,000.49	81.1499	1,000.49	80.6263	1,000.49	78.1749	1,000.49	75.8403	1,000.49	74.0279	1,000.49	72.5597	1,000.49	72.5036	1,000.49	77.0489	1,000.49	77.4765	1,000.49	78.5853
1,035.64	88.3264	1,035.64	88.3642	1,035.64	88.3233	1,035.64	88.0142	1,035.64	88.3073	1,035.64	87.4466	1,035.64	87.6092	1,035.64	86.828	1,035.64	86.6074	1,035.64	86.2254	1,035.64	86.1017	1,035.64	85.426	1,035.64	85.2228	1,035.64	83.6877	1,035.64	83.7457	1,035.64	81.7041	1,035.64	83.409	1,035.64	80.5317	1,035.64	81.6847	1,035.64	78.3502	1,035.64	76.4315	1,035.64	76.7411	1,035.64	75.8272	1,035.64	78.0441	1,035.64	78.4551	1,035.64	80.4905	1,035.64	81.5243	1,035.64	81.411	1,035.64	80.5714	1,035.64	79.4031	1,035.64	74.5544	1,035.64	74.4924	1,035.64	69.0272	1,035.64	74.1711	1,035.64	70.495	1,035.64	73.3941
1,072.27	89.0245	1,072.27	88.256	1,072.27	88.8845	1,072.27	87.6169	1,072.27	87.8641	1,072.27	87.4123	1,072.27	87.1021	1,072.27	87.1846	1,072.27	86.5693	1,072.27	86.104	1,072.27	85.7013	1,072.27	84.3767	1,072.27	84.3509	1,072.27	82.9626	1,072.27	82.7443	1,072.27	81.8353	1,072.27	80.7516	1,072.27	81.0957	1,072.27	80.0497	1,072.27	80.431	1,072.27	80.5749	1,072.27	77.6635	1,072.27	75.5538	1,072.27	72.538	1,072.27	76.5922	1,072.27	77.0835	1,072.27	80.3734	1,072.27	78.0332	1,072.27	78.9258	1,072.27	73.414	1,072.27	71.9435	1,072.27	69.7879	1,072.27	74.0679	1,072.27	72.1714	1,072.27	77.3793	1,072.27	76.0458
1,108.89	89.0908	1,108.89	89.1694	1,108.89	88.6623	1,108.89	88.763	1,108.89	87.9376	1,108.89	87.6192	1,108.89	87.0559	1,108.89	86.0355	1,108.89	86.2432	1,108.89	85.0546	1,108.89	85.158	1,108.89	84.172	1,108.89	84.04	1,108.89	82.7331	1,108.89	82.4665	1,108.89	80.8807	1,108.89	80.2498	1,108.89	79.5852	1,108.89	81.1659	1,108.89	80.815	1,108.89	81.0289	1,108.89	79.0614	1,108.89	76.6314	1,108.89	76.8385	1,108.89	75.2284	1,108.89	77.8747	1,108.89	79.4042	1,108.89	78.1065	1,108.89	78.8738	1,108.89	76.0261	1,108.89	77.3404	1,108.89	72.6601	1,108.89	74.9775	1,108.89	75.2112	1,108.89	75.5065	1,108.89	76.5603
1,148.44	88.7136	1,148.44	88.509	1,148.44	88.3272	1,148.44	87.9139	1,148.44	87.5645	1,148.44	87.2993	1,148.44	86.6771	1,148.44	86.3641	1,148.44	85.6738	1,148.44	84.6216	1,148.44	84.416	1,148.44	83.317	1,148.44	83.0292	1,148.44	82.6288	1,148.44	81.7303	1,148.44	80.9772	1,148.44	80.5381	1,148.44	79.6705	1,148.44	80.7391	1,148.44	77.3259	1,148.44	80.3386	1,148.44	77.0895	1,148.44	77.1471	1,148.44	74.0852	1,148.44	74.6166	1,148.44	75.7763	1,148.44	76.6736	1,148.44	77.3535	1,148.44	78.6714	1,148.44	75.7872	1,148.44	72.6476	1,148.44	75.7728	1,148.44	70.6562	1,148.44	76.7923	1,148.44	76.832	1,148.44	78.0266
1,189.45	89.372	1,189.45	89.8015	1,189.45	88.3019	1,189.45	89.1055	1,189.45	87.8824	1,189.45	87.9412	1,189.45	87.7279	1,189.45	87.0026	1,189.45	86.3355	1,189.45	86.2685	1,189.45	84.4451	1,189.45	85.0888	1,189.45	83.8638	1,189.45	83.6161	1,189.45	83.1895	1,189.45	82.0984	1,189.45	82.181	1,189.45	80.628	1,189.45	80.5322	1,189.45	79.8218	1,189.45	77.7146	1,189.45	77.0821	1,189.45	77.2377	1,189.45	76.9096	1,189.45	74.5522	1,189.45	75.8415	1,189.45	76.1834	1,189.45	76.1825	1,189.45	72.1189	1,189.45	74.8721	1,189.45	70.571	1,189.45	64.8317	1,189.45	72.5093	1,189.45	63.1433	1,189.45	76.9669	1,189.45	75.229
1,230.47	89.0262	1,230.47	89.0381	1,230.47	89.2183	1,230.47	89.0475	1,230.47	88.8184	1,230.47	88.5109	1,230.47	87.8263	1,230.47	87.358	1,230.47	86.4426	1,230.47	86.0444	1,230.47	85.4418	1,230.47	85.2032	1,230.47	84.6926	1,230.47	84.138	1,230.47	82.642	1,230.47	82.3843	1,230.47	80.1833	1,230.47	80.2414	1,230.47	76.2479	1,230.47	78.4548	1,230.47	78.9582	1,230.47	79.8948	1,230.47	77.4705	1,230.47	74.883	1,230.47	69.8839	1,230.47	75.8703	1,230.47	71.1498	1,230.47	75.5929	1,230.47	79.475	1,230.47	76.5945	1,230.47	76.8155	1,230.47	75.1908	1,230.47	69.0681	1,230.47	79.0312	1,230.47	78.0726	1,230.47	81.0627
1,274.41	90.3724	1,274.41	90.5834	1,274.41	89.9809	1,274.41	89.933	1,274.41	89.7521	1,274.41	89.1044	1,274.41	88.8739	1,274.41	88.1081	1,274.41	87.6386	1,274.41	87.0228	1,274.41	86.4604	1,274.41	85.4564	1,274.41	85.1502	1,274.41	83.5544	1,274.41	83.7519	1,274.41	83.7664	1,274.41	80.5377	1,274.41	81.8544	1,274.41	78.3467	1,274.41	80.5995	1,274.41	79.838	1,274.41	79.7966	1,274.41	80.6037	1,274.41	77.9118	1,274.41	74.3352	1,274.41	73.7217	1,274.41	77.489	1,274.41	77.8568	1,274.41	76.4302	1,274.41	77.5376	1,274.41	70.7639	1,274.41	72.2122	1,274.41	64.5114	1,274.41	71.517	1,274.41	71.7533	1,274.41	72.2936
1,319.82	91.1329	1,319.82	91.2453	1,319.82	90.9812	1,319.82	90.5969	1,319.82	90.8137	1,319.82	89.7232	1,319.82	89.7445	1,319.82	88.8727	1,319.82	88.8155	1,319.82	87.7449	1,319.82	87.5265	1,319.82	86.8078	1,319.82	85.3372	1,319.82	85.4335	1,319.82	84.4039	1,319.82	83.9406	1,319.82	83.0071	1,319.82	82.2831	1,319.82	81.8092	1,319.82	82.1561	1,319.82	80.9949	1,319.82	79.8295	1,319.82	80.5497	1,319.82	76.3454	1,319.82	73.7778	1,319.82	75.0051	1,319.82	72.088	1,319.82	76.3579	1,319.82	78.5344	1,319.82	74.5918	1,319.82	78.1699	1,319.82	72.9184	1,319.82	70.9583	1,319.82	74.0087	1,319.82	78.2334	1,319.82	79.4552
1,366.7	91.8813	1,366.7	91.7235	1,366.7	91.9473	1,366.7	91.3707	1,366.7	91.3997	1,366.7	90.4277	1,366.7	90.1237	1,366.7	89.2534	1,366.7	88.92	1,366.7	87.9833	1,366.7	87.4899	1,366.7	86.5399	1,366.7	85.6382	1,366.7	83.8171	1,366.7	84.3251	1,366.7	83.6411	1,366.7	83.2002	1,366.7	81.9076	1,366.7	82.1934	1,366.7	79.8315	1,366.7	79.749	1,366.7	79.4286	1,366.7	81.0592	1,366.7	76.7931	1,366.7	77.487	1,366.7	74.1233	1,366.7	74.5284	1,366.7	74.7	1,366.7	77.4802	1,366.7	75.5489	1,366.7	73.3226	1,366.7	71.2524	1,366.7	64.7409	1,366.7	73.4322	1,366.7	67.9739	1,366.7	69.1463
1,413.57	91.9513	1,413.57	91.3869	1,413.57	92.1045	1,413.57	90.5298	1,413.57	91.4482	1,413.57	90.0736	1,413.57	90.5511	1,413.57	89.4915	1,413.57	89.6647	1,413.57	87.9948	1,413.57	88.227	1,413.57	86.5491	1,413.57	86.3882	1,413.57	85.2999	1,413.57	84.9654	1,413.57	83.8791	1,413.57	83.7064	1,413.57	81.514	1,413.57	80.1027	1,413.57	81.0602	1,413.57	78.8938	1,413.57	78.73	1,413.57	79.8884	1,413.57	78.9245	1,413.57	78.4832	1,413.57	75.1568	1,413.57	76.3957	1,413.57	74.914	1,413.57	78.0506	1,413.57	75.8081	1,413.57	75.9639	1,413.57	69.3328	1,413.57	71.6493	1,413.57	70.5594	1,413.57	75.4495	1,413.57	77.601
1,463.38	92.0034	1,463.38	91.9186	1,463.38	91.7797	1,463.38	91.4608	1,463.38	91.1636	1,463.38	90.4059	1,463.38	90.2996	1,463.38	88.9644	1,463.38	89.1601	1,463.38	87.914	1,463.38	88.355	1,463.38	86.5893	1,463.38	85.8409	1,463.38	84.8748	1,463.38	84.3745	1,463.38	82.9553	1,463.38	82.3013	1,463.38	81.5952	1,463.38	81.7348	1,463.38	79.9414	1,463.38	80.3841	1,463.38	80.3117	1,463.38	77.887	1,463.38	75.9852	1,463.38	80.3772	1,463.38	77.8891	1,463.38	74.441	1,463.38	74.2175	1,463.38	78.3646	1,463.38	77.3047	1,463.38	78.0656	1,463.38	72.0877	1,463.38	69.5347	1,463.38	66.0224	1,463.38	63.8512	1,463.38	71.2517
1,516.11	91.9869	1,516.11	92.1361	1,516.11	91.2278	1,516.11	91.0445	1,516.11	90.6991	1,516.11	89.9327	1,516.11	89.6887	1,516.11	88.4939	1,516.11	88.4025	1,516.11	87.2041	1,516.11	87.2048	1,516.11	86.2305	1,516.11	85.9361	1,516.11	84.317	1,516.11	83.4038	1,516.11	82.9336	1,516.11	83.0135	1,516.11	80.8819	1,516.11	81.5097	1,516.11	79.4575	1,516.11	79.1734	1,516.11	77.3604	1,516.11	78.4419	1,516.11	78.4267	1,516.11	79.2	1,516.11	75.4241	1,516.11	76.6382	1,516.11	75.5092	1,516.11	78.2749	1,516.11	79.3849	1,516.11	74.6904	1,516.11	73.0102	1,516.11	67.0567	1,516.11	70.6015	1,516.11	76.2001	1,516.11	65.4659
1,568.85	91.5794	1,568.85	91.8168	1,568.85	90.968	1,568.85	90.6678	1,568.85	90.8143	1,568.85	89.8541	1,568.85	88.8897	1,568.85	88.4548	1,568.85	87.8436	1,568.85	86.7804	1,568.85	86.4327	1,568.85	85.311	1,568.85	84.5406	1,568.85	83.7829	1,568.85	84.3808	1,568.85	83.6089	1,568.85	81.4191	1,568.85	80.132	1,568.85	80.4026	1,568.85	80.4201	1,568.85	78.8077	1,568.85	81.1394	1,568.85	79.255	1,568.85	78.2587	1,568.85	78.5101	1,568.85	77.9603	1,568.85	73.3541	1,568.85	73.5248	1,568.85	75.1774	1,568.85	77.5069	1,568.85	78.9094	1,568.85	77.3302	1,568.85	65.4732	1,568.85	78.0599	1,568.85	68.6952	1,568.85	74.1205
1,624.51	92.2425	1,624.51	92.1557	1,624.51	91.9856	1,624.51	90.9715	1,624.51	90.3727	1,624.51	89.9034	1,624.51	88.6257	1,624.51	89.2408	1,624.51	88.4534	1,624.51	87.8042	1,624.51	85.3192	1,624.51	85.39	1,624.51	84.2902	1,624.51	84.6214	1,624.51	83.1488	1,624.51	83.4449	1,624.51	77.9808	1,624.51	83.8311	1,624.51	80.4986	1,624.51	80.9673	1,624.51	76.9267	1,624.51	76.3919	1,624.51	79.2315	1,624.51	79.6038	1,624.51	77.3568	1,624.51	75.0415	1,624.51	77.0007	1,624.51	73.8478	1,624.51	75.2263	1,624.51	79.9519	1,624.51	76.1843	1,624.51	68.8566	1,624.51	73.4599	1,624.51	64.5353	1,624.51	72.2249	1,624.51	69.8791
1,681.64	92.0896	1,681.64	92.0973	1,681.64	91.3111	1,681.64	91.7785	1,681.64	89.9154	1,681.64	90.5219	1,681.64	89.0952	1,681.64	88.9434	1,681.64	86.7209	1,681.64	86.1114	1,681.64	84.0151	1,681.64	85.0154	1,681.64	84.7465	1,681.64	84.3648	1,681.64	83.6015	1,681.64	83.1681	1,681.64	79.99	1,681.64	80.9812	1,681.64	77.4738	1,681.64	79.4531	1,681.64	79.7314	1,681.64	80.6432	1,681.64	67.9346	1,681.64	76.7435	1,681.64	75.1003	1,681.64	77.1986	1,681.64	73.1435	1,681.64	79.3182	1,681.64	75.8732	1,681.64	75.6106	1,681.64	74.4978	1,681.64	75.819	1,681.64	69.7467	1,681.64	73.1699	1,681.64	71.9844	1,681.64	76.9344
1,741.7	91.5842	1,741.7	91.0234	1,741.7	91.2726	1,741.7	89.9572	1,741.7	90.0813	1,741.7	89.5528	1,741.7	89.2705	1,741.7	88.7163	1,741.7	88.1026	1,741.7	87.389	1,741.7	86.4632	1,741.7	85.655	1,741.7	85.1993	1,741.7	84.0495	1,741.7	80.8663	1,741.7	80.2648	1,741.7	80.7733	1,741.7	79.331	1,741.7	78.3018	1,741.7	79.086	1,741.7	77.1332	1,741.7	77.0415	1,741.7	77.6654	1,741.7	78.7229	1,741.7	76.6096	1,741.7	74.1711	1,741.7	70.9171	1,741.7	68.5346	1,741.7	72.4483	1,741.7	77.7582	1,741.7	77.3914	1,741.7	74.5974	1,741.7	74.7425	1,741.7	72.74	1,741.7	80.4338	1,741.7	76.1461
1,803.22	90.3064	1,803.22	90.1978	1,803.22	90.3678	1,803.22	89.0436	1,803.22	89.6277	1,803.22	89.4474	1,803.22	89.283	1,803.22	88.8994	1,803.22	86.8091	1,803.22	86.218	1,803.22	86.3914	1,803.22	85.9313	1,803.22	84.6017	1,803.22	82.4275	1,803.22	82.2934	1,803.22	80.0302	1,803.22	82.1856	1,803.22	78.7131	1,803.22	79.5304	1,803.22	75.4734	1,803.22	81.266	1,803.22	73.1025	1,803.22	72.7468	1,803.22	73.7728	1,803.22	71.8485	1,803.22	75.9805	1,803.22	78.4132	1,803.22	67.7658	1,803.22	73.3774	1,803.22	72.4284	1,803.22	76.3645	1,803.22	73.8673	1,803.22	65.2082	1,803.22	73.6168	1,803.22	73.5342	1,803.22	71.4794
1,866.21	90.1392	1,866.21	90.335	1,866.21	88.943	1,866.21	89.0541	1,866.21	89.3389	1,866.21	86.7563	1,866.21	88.3285	1,866.21	86.0707	1,866.21	86.092	1,866.21	85.788	1,866.21	86.0466	1,866.21	80.7135	1,866.21	83.5662	1,866.21	82.6324	1,866.21	84.1502	1,866.21	79.9976	1,866.21	80.7845	1,866.21	75.9179	1,866.21	77.8296	1,866.21	73.786	1,866.21	77.3793	1,866.21	76.5878	1,866.21	73.4892	1,866.21	79.9806	1,866.21	75.1333	1,866.21	76.5045	1,866.21	71.4058	1,866.21	75.2775	1,866.21	76.0151	1,866.21	73.3852	1,866.21	71.905	1,866.21	69.5691	1,866.21	75.2103	1,866.21	70.6961	1,866.21	76.6411	1,866.21	77.3032
1,932.13	90.1247	1,932.13	90.1377	1,932.13	89.5364	1,932.13	89.2105	1,932.13	88.6108	1,932.13	87.9712	1,932.13	86.4236	1,932.13	86.8447	1,932.13	85.3185	1,932.13	85.8892	1,932.13	84.8226	1,932.13	83.3577	1,932.13	83.057	1,932.13	81.2274	1,932.13	81.7846	1,932.13	82.0815	1,932.13	80.1434	1,932.13	79.2232	1,932.13	77.8671	1,932.13	76.6523	1,932.13	76.6015	1,932.13	76.1782	1,932.13	76.1545	1,932.13	74.9382	1,932.13	76.3995	1,932.13	74.6905	1,932.13	74.0632	1,932.13	74.7182	1,932.13	72.6239	1,932.13	73.2602	1,932.13	74.8043	1,932.13	73.4389	1,932.13	69.4507	1,932.13	64.5435	1,932.13	64.8096	1,932.13	63.1277
1,999.51	90.6405	1,999.51	90.5979	1,999.51	90.441	1,999.51	90.3208	1,999.51	89.4249	1,999.51	89.5143	1,999.51	88.1216	1,999.51	87.9251	1,999.51	85.9897	1,999.51	86.0339	1,999.51	84.7385	1,999.51	85.7485	1,999.51	83.2782	1,999.51	83.9711	1,999.51	80.7536	1,999.51	82.0135	1,999.51	79.9907	1,999.51	80.7299	1,999.51	78.337	1,999.51	79.1662	1,999.51	76.3437	1,999.51	77.3429	1,999.51	74.9902	1,999.51	76.6762	1,999.51	71.9422	1,999.51	75.8944	1,999.51	72.9122	1,999.51	73.8375	1,999.51	70.599	1,999.51	74.2127	1,999.51	71.6896	1,999.51	71.161	1,999.51	68.7691	1,999.51	64.3053	1,999.51	73.0987	1,999.51	72.9274
2,069.82	90.9455	2,069.82	90.825	2,069.82	90.4712	2,069.82	90.5578	2,069.82	89.5597	2,069.82	89.6403	2,069.82	88.405	2,069.82	88.5076	2,069.82	86.9869	2,069.82	87.1013	2,069.82	85.0153	2,069.82	85.2803	2,069.82	83.9285	2,069.82	83.183	2,069.82	81.6246	2,069.82	82.2917	2,069.82	79.8876	2,069.82	79.9158	2,069.82	76.7777	2,069.82	78.1825	2,069.82	75.919	2,069.82	76.8104	2,069.82	73.8087	2,069.82	74.6009	2,069.82	74.9183	2,069.82	73.5601	2,069.82	73.1553	2,069.82	76.083	2,069.82	72.2816	2,069.82	73.8269	2,069.82	70.5331	2,069.82	73.0815	2,069.82	66.179	2,069.82	56.7922	2,069.82	67.2124	2,069.82	67.758
2,143.07	90.3898	2,143.07	90.3305	2,143.07	90.0945	2,143.07	89.8664	2,143.07	89.5334	2,143.07	89.3792	2,143.07	89.2242	2,143.07	88.1889	2,143.07	87.8161	2,143.07	86.3135	2,143.07	86.2681	2,143.07	84.5084	2,143.07	84.4885	2,143.07	83.3203	2,143.07	81.856	2,143.07	80.9307	2,143.07	81.1182	2,143.07	79.7655	2,143.07	79.0748	2,143.07	77.9816	2,143.07	77.6537	2,143.07	76.3933	2,143.07	75.5453	2,143.07	75.9104	2,143.07	73.8536	2,143.07	73.1926	2,143.07	73.1344	2,143.07	74.466	2,143.07	74.3525	2,143.07	72.37	2,143.07	73.4434	2,143.07	70.5585	2,143.07	67.6318	2,143.07	65.1574	2,143.07	57.2936	2,143.07	64.2424
2,219.24	89.7271	2,219.24	89.4683	2,219.24	89.231	2,219.24	88.7928	2,219.24	88.6209	2,219.24	87.6775	2,219.24	87.6636	2,219.24	86.9177	2,219.24	87.0822	2,219.24	85.7325	2,219.24	85.4084	2,219.24	83.9295	2,219.24	84.1584	2,219.24	82.1559	2,219.24	82.938	2,219.24	79.9047	2,219.24	80.9928	2,219.24	77.5546	2,219.24	77.5523	2,219.24	76.8284	2,219.24	76.4843	2,219.24	73.5489	2,219.24	73.6231	2,219.24	72.6833	2,219.24	75.5238	2,219.24	67.051	2,219.24	72.0911	2,219.24	72.1837	2,219.24	73.2155	2,219.24	71.8886	2,219.24	72.7802	2,219.24	72.6933	2,219.24	70.5692	2,219.24	66.012	2,219.24	62.1879	2,219.24	70.1742
2,296.88	89.2409	2,296.88	89.2336	2,296.88	89.2818	2,296.88	88.9815	2,296.88	88.6034	2,296.88	88.2901	2,296.88	87.7167	2,296.88	87.0749	2,296.88	86.4451	2,296.88	85.9892	2,296.88	85.547	2,296.88	83.9144	2,296.88	82.9697	2,296.88	81.9504	2,296.88	81.4003	2,296.88	80.3165	2,296.88	79.4191	2,296.88	79.5463	2,296.88	78.8853	2,296.88	75.9529	2,296.88	77.8646	2,296.88	76.2529	2,296.88	74.717	2,296.88	74.705	2,296.88	75.7967	2,296.88	73.8268	2,296.88	71.0282	2,296.88	71.6886	2,296.88	73.8456	2,296.88	71.7674	2,296.88	74.1093	2,296.88	73.7686	2,296.88	73.1358	2,296.88	61.8144	2,296.88	69.866	2,296.88	68.214
2,378.91	90.082	2,378.91	90.2093	2,378.91	89.5555	2,378.91	89.9177	2,378.91	88.973	2,378.91	89.3822	2,378.91	87.3127	2,378.91	88.4286	2,378.91	86.453	2,378.91	87.2427	2,378.91	84.597	2,378.91	85.8148	2,378.91	82.2152	2,378.91	83.8165	2,378.91	81.1016	2,378.91	81.6144	2,378.91	78.1108	2,378.91	80.2385	2,378.91	77.9305	2,378.91	77.46	2,378.91	74.1939	2,378.91	76.3441	2,378.91	70.3394	2,378.91	74.3065	2,378.91	72.0765	2,378.91	74.6575	2,378.91	70.3434	2,378.91	72.0996	2,378.91	71.4413	2,378.91	71.1746	2,378.91	72.225	2,378.91	74.412	2,378.91	65.6508	2,378.91	65.4067	2,378.91	63.1265	2,378.91	68.7679
2,462.4	91.1298	2,462.4	91.213	2,462.4	91.0297	2,462.4	90.9955	2,462.4	90.6659	2,462.4	90.3327	2,462.4	89.887	2,462.4	89.269	2,462.4	87.9898	2,462.4	87.3491	2,462.4	86.2027	2,462.4	85.5475	2,462.4	84.2156	2,462.4	83.2262	2,462.4	81.6136	2,462.4	81.0372	2,462.4	78.8601	2,462.4	79.7913	2,462.4	76.2936	2,462.4	76.9165	2,462.4	75.332	2,462.4	76.6876	2,462.4	75.5115	2,462.4	73.2708	2,462.4	72.7727	2,462.4	74.1442	2,462.4	68.8732	2,462.4	72.6677	2,462.4	70.2778	2,462.4	72.9627	2,462.4	70.1491	2,462.4	73.8842	2,462.4	72.3789	2,462.4	67.6973	2,462.4	62.6185	2,462.4	69.3204
2,548.83	90.6808	2,548.83	90.5591	2,548.83	90.4605	2,548.83	90.1879	2,548.83	89.9834	2,548.83	89.6139	2,548.83	89.4737	2,548.83	88.1743	2,548.83	88.1805	2,548.83	86.8304	2,548.83	86.3887	2,548.83	84.7421	2,548.83	84.4114	2,548.83	82.2514	2,548.83	81.9691	2,548.83	79.9543	2,548.83	79.6977	2,548.83	77.7671	2,548.83	77.7847	2,548.83	75.002	2,548.83	75.4843	2,548.83	73.1697	2,548.83	73.9921	2,548.83	71.5235	2,548.83	72.3677	2,548.83	72.1422	2,548.83	69.2207	2,548.83	69.7314	2,548.83	69.6003	2,548.83	69.8649	2,548.83	68.668	2,548.83	69.993	2,548.83	69.4337	2,548.83	63.5435	2,548.83	65.2555	2,548.83	69.4491
2,639.65	89.8129	2,639.65	89.4222	2,639.65	89.7	2,639.65	89.4687	2,639.65	88.9808	2,639.65	88.7231	2,639.65	88.2904	2,639.65	87.724	2,639.65	87.1181	2,639.65	85.94	2,639.65	85.3575	2,639.65	84.171	2,639.65	83.0808	2,639.65	81.1538	2,639.65	81.1091	2,639.65	79.3218	2,639.65	79.0592	2,639.65	77.0382	2,639.65	77.6596	2,639.65	75.8876	2,639.65	75.5768	2,639.65	74.0688	2,639.65	75.2461	2,639.65	70.769	2,639.65	71.5722	2,639.65	70.3169	2,639.65	71.7513	2,639.65	66.3976	2,639.65	72.6777	2,639.65	67.3326	2,639.65	69.4211	2,639.65	70.7477	2,639.65	71.639	2,639.65	58.9702	2,639.65	55.5215	2,639.65	60.624
2,731.93	89.3708	2,731.93	89.8107	2,731.93	89.4879	2,731.93	89.5869	2,731.93	89.4395	2,731.93	88.7965	2,731.93	88.4745	2,731.93	87.6741	2,731.93	87.2905	2,731.93	86.2813	2,731.93	84.9303	2,731.93	83.9377	2,731.93	82.6332	2,731.93	81.6992	2,731.93	80.0527	2,731.93	79.3142	2,731.93	77.8486	2,731.93	76.1643	2,731.93	73.6413	2,731.93	74.3226	2,731.93	73.834	2,731.93	72.0049	2,731.93	72.7966	2,731.93	69.9212	2,731.93	70.4785	2,731.93	71.8513	2,731.93	68.976	2,731.93	69.425	2,731.93	69.5823	2,731.93	69.7624	2,731.93	67.2486	2,731.93	70.7055	2,731.93	69.7283	2,731.93	65.0927	2,731.93	56.4642	2,731.93	64.8374
2,828.61	90.4693	2,828.61	90.5147	2,828.61	90.1994	2,828.61	90.3521	2,828.61	89.6383	2,828.61	90.0268	2,828.61	88.6818	2,828.61	88.646	2,828.61	86.9269	2,828.61	86.6604	2,828.61	84.8828	2,828.61	84.0053	2,828.61	82.2468	2,828.61	81.9214	2,828.61	79.512	2,828.61	78.592	2,828.61	75.7452	2,828.61	76.4561	2,828.61	73.624	2,828.61	74.6422	2,828.61	73.2506	2,828.61	72.7796	2,828.61	70.0496	2,828.61	71.5678	2,828.61	68.681	2,828.61	69.3449	2,828.61	70.1406	2,828.61	67.5374	2,828.61	70.1749	2,828.61	65.7007	2,828.61	70.2487	2,828.61	69.7049	2,828.61	66.4057	2,828.61	64.6437	2,828.61	59.6218	2,828.61	63.6688
2,928.22	91.0546	2,928.22	90.9591	2,928.22	90.882	2,928.22	90.6415	2,928.22	90.4879	2,928.22	89.8643	2,928.22	89.1997	2,928.22	88.5647	2,928.22	87.4171	2,928.22	86.2756	2,928.22	85.4141	2,928.22	83.9248	2,928.22	82.1017	2,928.22	80.4545	2,928.22	79.5627	2,928.22	78.6826	2,928.22	77.4462	2,928.22	77.2075	2,928.22	75.1063	2,928.22	73.7861	2,928.22	70.6534	2,928.22	73.6959	2,928.22	69.771	2,928.22	70.347	2,928.22	67.8419	2,928.22	68.5777	2,928.22	69.7339	2,928.22	69.008	2,928.22	67.8602	2,928.22	67.4048	2,928.22	70.2594	2,928.22	69.6121	2,928.22	68.1877	2,928.22	65.7482	2,928.22	56.4587	2,928.22	57.3727
3,030.76	91.0085	3,030.76	90.9236	3,030.76	90.98	3,030.76	90.6382	3,030.76	90.2877	3,030.76	89.4706	3,030.76	89.2593	3,030.76	87.8383	3,030.76	87.2871	3,030.76	85.679	3,030.76	84.2337	3,030.76	83.0418	3,030.76	81.4173	3,030.76	79.433	3,030.76	78.6839	3,030.76	77.6095	3,030.76	75.6613	3,030.76	74.3337	3,030.76	74.2749	3,030.76	72.1457	3,030.76	71.4531	3,030.76	69.5926	3,030.76	70.6918	3,030.76	68.3588	3,030.76	68.0837	3,030.76	69.5925	3,030.76	66.8205	3,030.76	67.9151	3,030.76	63.2535	3,030.76	68.3872	3,030.76	65.4581	3,030.76	68.5525	3,030.76	67.7101	3,030.76	66.0503	3,030.76	61.1459	3,030.76	62.9765
3,137.7	90.892	3,137.7	90.8913	3,137.7	90.8087	3,137.7	90.2259	3,137.7	89.9663	3,137.7	89.2727	3,137.7	88.4019	3,137.7	87.2801	3,137.7	86.5683	3,137.7	85.1097	3,137.7	83.7348	3,137.7	81.6548	3,137.7	81.0373	3,137.7	78.8375	3,137.7	77.4955	3,137.7	74.945	3,137.7	75.4167	3,137.7	71.8566	3,137.7	72.0958	3,137.7	72.4341	3,137.7	71.2111	3,137.7	67.019	3,137.7	69.0703	3,137.7	68.1327	3,137.7	67.7745	3,137.7	65.6527	3,137.7	67.7015	3,137.7	63.0413	3,137.7	63.6926	3,137.7	68.7087	3,137.7	63.6906	3,137.7	67.968	3,137.7	68.0994	3,137.7	66.0329	3,137.7	63.3414	3,137.7	63.7039
3,249.02	91.4269	3,249.02	91.216	3,249.02	90.9331	3,249.02	90.7342	3,249.02	90.1071	3,249.02	89.606	3,249.02	88.2627	3,249.02	87.4121	3,249.02	86.1103	3,249.02	84.9891	3,249.02	83.2441	3,249.02	81.5929	3,249.02	79.9606	3,249.02	79.0751	3,249.02	77.1477	3,249.02	75.3051	3,249.02	74.02	3,249.02	72.878	3,249.02	72.3723	3,249.02	71.3852	3,249.02	70.61	3,249.02	70.6151	3,249.02	69.7052	3,249.02	68.4889	3,249.02	67.2226	3,249.02	63.3887	3,249.02	65.9999	3,249.02	66.5123	3,249.02	63.7965	3,249.02	67.5862	3,249.02	68.5994	3,249.02	67.4042	3,249.02	66.6867	3,249.02	62.0755	3,249.02	55.015	3,249.02	59.7842
3,363.28	92.164	3,363.28	91.8485	3,363.28	91.8032	3,363.28	91.3761	3,363.28	90.8509	3,363.28	89.7951	3,363.28	89.2135	3,363.28	87.672	3,363.28	86.9032	3,363.28	84.6785	3,363.28	83.7761	3,363.28	81.5522	3,363.28	80.6112	3,363.28	78.4872	3,363.28	77.2304	3,363.28	75.5753	3,363.28	74.2307	3,363.28	73.3772	3,363.28	73.296	3,363.28	70.6767	3,363.28	70.1238	3,363.28	70.5189	3,363.28	68.927	3,363.28	68.0316	3,363.28	68.7667	3,363.28	63.7447	3,363.28	66.517	3,363.28	67.2895	3,363.28	64.2615	3,363.28	65.5144	3,363.28	69.4911	3,363.28	64.6134	3,363.28	65.0519	3,363.28	60.007	3,363.28	56.8567	3,363.28	62.5358
3,481.93	92.2508	3,481.93	91.9871	3,481.93	92.1522	3,481.93	91.3588	3,481.93	91.4519	3,481.93	89.9714	3,481.93	89.88	3,481.93	87.8008	3,481.93	87.675	3,481.93	84.8027	3,481.93	84.808	3,481.93	81.9077	3,481.93	81.8579	3,481.93	78.5276	3,481.93	79.0283	3,481.93	76.3311	3,481.93	77.1861	3,481.93	74.0207	3,481.93	74.2847	3,481.93	72.4465	3,481.93	71.7523	3,481.93	70.4113	3,481.93	70.8613	3,481.93	66.7544	3,481.93	69.7755	3,481.93	67.7134	3,481.93	67.229	3,481.93	66.9404	3,481.93	66.1919	3,481.93	66.0248	3,481.93	68.7165	3,481.93	64.4679	3,481.93	67.9023	3,481.93	64.6358	3,481.93	57.0665	3,481.93	59.1437
3,604.98	92.5214	3,604.98	92.3846	3,604.98	92.3185	3,604.98	91.9286	3,604.98	91.532	3,604.98	90.5102	3,604.98	89.843	3,604.98	88.6767	3,604.98	87.2625	3,604.98	86.1087	3,604.98	84.6261	3,604.98	83.0235	3,604.98	81.8126	3,604.98	80.5688	3,604.98	79.7952	3,604.98	77.6364	3,604.98	77.3544	3,604.98	75.2537	3,604.98	74.9804	3,604.98	74.4361	3,604.98	73.6025	3,604.98	71.3063	3,604.98	72.1042	3,604.98	69.4882	3,604.98	69.4727	3,604.98	68.9566	3,604.98	66.5431	3,604.98	65.843	3,604.98	66.6679	3,604.98	67.7178	3,604.98	66.5457	3,604.98	67.0712	3,604.98	70.0954	3,604.98	68.6236	3,604.98	59.4384	3,604.98	63.9376
3,732.42	92.73	3,732.42	92.6082	3,732.42	92.6116	3,732.42	92.2354	3,732.42	91.9169	3,732.42	90.8177	3,732.42	90.2844	3,732.42	88.5762	3,732.42	88.1338	3,732.42	85.9497	3,732.42	85.3581	3,732.42	83.4341	3,732.42	82.8015	3,732.42	80.5251	3,732.42	79.5376	3,732.42	77.8627	3,732.42	77.7106	3,732.42	75.7216	3,732.42	75.068	3,732.42	72.6586	3,732.42	73.2245	3,732.42	69.4652	3,732.42	72.565	3,732.42	69.6877	3,732.42	70.475	3,732.42	66.1766	3,732.42	66.8296	3,732.42	67.3223	3,732.42	68.1224	3,732.42	67.8454	3,732.42	67.5748	3,732.42	68.3102	3,732.42	68.6955	3,732.42	67.3122	3,732.42	61.0944	3,732.42	67.034
3,864.26	91.7146	3,864.26	91.6496	3,864.26	91.571	3,864.26	90.7897	3,864.26	90.7472	3,864.26	89.4738	3,864.26	89.0603	3,864.26	87.5653	3,864.26	86.8969	3,864.26	85.0593	3,864.26	84.7471	3,864.26	82.0984	3,864.26	81.4326	3,864.26	79.1931	3,864.26	79.5866	3,864.26	76.1379	3,864.26	76.8161	3,864.26	73.9118	3,864.26	74.0125	3,864.26	72.0624	3,864.26	72.9497	3,864.26	70.9067	3,864.26	70.3304	3,864.26	67.382	3,864.26	69.0494	3,864.26	67.0749	3,864.26	66.9579	3,864.26	65.0368	3,864.26	67.5645	3,864.26	63.6367	3,864.26	67.5681	3,864.26	65.8458	3,864.26	65.6638	3,864.26	62.5867	3,864.26	54.1693	3,864.26	65.093
4,000.49	91.8428	4,000.49	91.4064	4,000.49	91.5385	4,000.49	90.8207	4,000.49	90.4403	4,000.49	89.371	4,000.49	88.9948	4,000.49	87.1784	4,000.49	86.9522	4,000.49	84.8371	4,000.49	83.8374	4,000.49	82.2962	4,000.49	81.1293	4,000.49	79.2378	4,000.49	77.8531	4,000.49	76.5134	4,000.49	74.6296	4,000.49	74.0703	4,000.49	74.1386	4,000.49	71.7841	4,000.49	71.4707	4,000.49	70.1959	4,000.49	70.2579	4,000.49	68.3925	4,000.49	67.7286	4,000.49	66.7697	4,000.49	68.3529	4,000.49	66.102	4,000.49	65.2456	4,000.49	62.8286	4,000.49	66.5172	4,000.49	64.8615	4,000.49	65.352	4,000.49	62.6203	4,000.49	58.4961	4,000.49	60.6535
4,141.11	92.1716	4,141.11	92.1986	4,141.11	91.953	4,141.11	91.1529	4,141.11	91.0148	4,141.11	89.6516	4,141.11	88.9458	4,141.11	87.7003	4,141.11	86.5474	4,141.11	85.2394	4,141.11	84.559	4,141.11	82.5797	4,141.11	81.9666	4,141.11	79.4508	4,141.11	79.0342	4,141.11	76.3054	4,141.11	77.1019	4,141.11	73.4292	4,141.11	73.0621	4,141.11	71.6826	4,141.11	71.0735	4,141.11	69.6034	4,141.11	69.6114	4,141.11	67.1618	4,141.11	69.7734	4,141.11	66.2334	4,141.11	68.5647	4,141.11	65.5245	4,141.11	66.6088	4,141.11	61.024	4,141.11	64.8015	4,141.11	66.4576	4,141.11	67.6255	4,141.11	66.3846	4,141.11	61.5428	4,141.11	61.9867
4,287.6	92.0061	4,287.6	91.5473	4,287.6	91.7581	4,287.6	91.0014	4,287.6	90.8489	4,287.6	89.4467	4,287.6	89.4297	4,287.6	87.531	4,287.6	87.5312	4,287.6	85.0482	4,287.6	84.8399	4,287.6	82.5992	4,287.6	82.4269	4,287.6	79.23	4,287.6	79.4172	4,287.6	76.8242	4,287.6	75.7863	4,287.6	74.0974	4,287.6	74.0208	4,287.6	70.3	4,287.6	71.7194	4,287.6	67.2286	4,287.6	69.4955	4,287.6	67.2963	4,287.6	68.1136	4,287.6	64.799	4,287.6	67.2643	4,287.6	65.67	4,287.6	69.1138	4,287.6	64.2014	4,287.6	66.5306	4,287.6	66.5717	4,287.6	64.9634	4,287.6	64.4058	4,287.6	60.9003	4,287.6	60.591
4,438.48	91.7982	4,438.48	91.3958	4,438.48	91.4614	4,438.48	90.1605	4,438.48	90.247	4,438.48	88.6431	4,438.48	88.8401	4,438.48	86.9314	4,438.48	87.0482	4,438.48	84.7578	4,438.48	84.8846	4,438.48	81.8168	4,438.48	81.6775	4,438.48	78.2257	4,438.48	78.6119	4,438.48	74.9298	4,438.48	75.9389	4,438.48	72.2402	4,438.48	73.3055	4,438.48	69.1614	4,438.48	70.2512	4,438.48	68.3853	4,438.48	68.0359	4,438.48	65.695	4,438.48	66.8796	4,438.48	65.8717	4,438.48	65.5326	4,438.48	63.7556	4,438.48	65.7576	4,438.48	59.6494	4,438.48	64.4572	4,438.48	64.9869	4,438.48	64.2699	4,438.48	63.0759	4,438.48	55.3804	4,438.48	63.9652
4,595.21	91.5527	4,595.21	91.0652	4,595.21	91.0685	4,595.21	90.2047	4,595.21	89.8866	4,595.21	88.5239	4,595.21	88.3921	4,595.21	86.8511	4,595.21	86.6418	4,595.21	84.6025	4,595.21	84.1264	4,595.21	81.6521	4,595.21	81.1186	4,595.21	78.1198	4,595.21	77.6126	4,595.21	74.546	4,595.21	74.3465	4,595.21	71.4381	4,595.21	71.9473	4,595.21	68.3528	4,595.21	69.7184	4,595.21	66.6504	4,595.21	68.103	4,595.21	64.0795	4,595.21	65.8045	4,595.21	63.7004	4,595.21	65.0148	4,595.21	64.0802	4,595.21	65.5998	4,595.21	61.6032	4,595.21	62.7974	4,595.21	64.4569	4,595.21	64.0973	4,595.21	63.2102	4,595.21	61.4836	4,595.21	56.0084
4,756.35	92.2133	4,756.35	91.7832	4,756.35	91.8477	4,756.35	90.3255	4,756.35	90.5279	4,756.35	88.7828	4,756.35	88.7342	4,756.35	86.8675	4,756.35	86.5636	4,756.35	84.2481	4,756.35	83.5972	4,756.35	80.3479	4,756.35	79.6143	4,756.35	75.9543	4,756.35	75.2124	4,756.35	71.7665	4,756.35	72.4802	4,756.35	68.7328	4,756.35	69.2367	4,756.35	66.9728	4,756.35	67.078	4,756.35	65.4833	4,756.35	65.6332	4,756.35	61.1451	4,756.35	64.5281	4,756.35	60.2302	4,756.35	64.0641	4,756.35	57.8794	4,756.35	63.5097	4,756.35	61.6792	4,756.35	61.5447	4,756.35	62.2079	4,756.35	62.4001	4,756.35	59.9745	4,756.35	55.4477	4,756.35	57.0385
4,924.8	91.9168	4,924.8	91.4069	4,924.8	91.5329	4,924.8	90.2193	4,924.8	90.4521	4,924.8	88.4638	4,924.8	88.873	4,924.8	86.0733	4,924.8	86.5874	4,924.8	82.4422	4,924.8	83.3534	4,924.8	78.1427	4,924.8	79.5581	4,924.8	73.5799	4,924.8	75.443	4,924.8	68.9552	4,924.8	72.4115	4,924.8	65.8876	4,924.8	70.1231	4,924.8	64.5977	4,924.8	67.0837	4,924.8	61.6103	4,924.8	64.5311	4,924.8	62.2233	4,924.8	64.8282	4,924.8	60.3602	4,924.8	64.1097	4,924.8	55.8994	4,924.8	61.8082	4,924.8	53.0195	4,924.8	61.0636	4,924.8	60.3252	4,924.8	60.626	4,924.8	58.4316	4,924.8	53.8982	4,924.8	60.4922
5,097.66	91.5759	5,097.66	91.1488	5,097.66	91.004	5,097.66	89.9128	5,097.66	89.6741	5,097.66	88.2667	5,097.66	87.9838	5,097.66	85.916	5,097.66	85.0434	5,097.66	82.0311	5,097.66	80.8537	5,097.66	76.885	5,097.66	76.5581	5,097.66	72.0397	5,097.66	72.9784	5,097.66	69.559	5,097.66	69.9429	5,097.66	66.8628	5,097.66	67.9046	5,097.66	65.1687	5,097.66	67.1781	5,097.66	64.4238	5,097.66	65.7417	5,097.66	61.5294	5,097.66	63.4586	5,097.66	62.2411	5,097.66	63.3567	5,097.66	60.7442	5,097.66	63.3655	5,097.66	56.4656	5,097.66	60.4262	5,097.66	60.2417	5,097.66	61.2064	5,097.66	57.8592	5,097.66	58.8812	5,097.66	58.0935
5,277.83	91.8657	5,277.83	91.3406	5,277.83	91.5145	5,277.83	90.1877	5,277.83	90.3451	5,277.83	88.6831	5,277.83	88.6798	5,277.83	86.1817	5,277.83	86.0836	5,277.83	82.2244	5,277.83	82.0374	5,277.83	77.3491	5,277.83	78.1879	5,277.83	73.6991	5,277.83	74.7795	5,277.83	71.6376	5,277.83	72.6076	5,277.83	69.2704	5,277.83	69.5957	5,277.83	66.4392	5,277.83	68.1665	5,277.83	64.6778	5,277.83	66.5234	5,277.83	62.5399	5,277.83	61.452	5,277.83	61.3428	5,277.83	63.7851	5,277.83	64.2943	5,277.83	61.649	5,277.83	58.5741	5,277.83	60.458	5,277.83	61.1214	5,277.83	62.3123	5,277.83	58.3366	5,277.83	56.7178	5,277.83	55.4879
5,463.87	92.1062	5,463.87	91.6171	5,463.87	91.5154	5,463.87	90.4989	5,463.87	90.3195	5,463.87	88.9068	5,463.87	88.4826	5,463.87	86.1471	5,463.87	85.5673	5,463.87	81.724	5,463.87	81.6053	5,463.87	76.9575	5,463.87	77.6297	5,463.87	73.9568	5,463.87	76.0429	5,463.87	72.3778	5,463.87	73.5674	5,463.87	69.2315	5,463.87	71.1656	5,463.87	67.2724	5,463.87	69.6113	5,463.87	64.8805	5,463.87	67.1743	5,463.87	63.342	5,463.87	66.0427	5,463.87	62.2265	5,463.87	65.3341	5,463.87	61.212	5,463.87	61.8928	5,463.87	59.5156	5,463.87	61.5234	5,463.87	61.0855	5,463.87	62.7697	5,463.87	58.3	5,463.87	57.5081	5,463.87	55.9595
5,657.23	92.0657	5,657.23	91.5837	5,657.23	91.5532	5,657.23	90.4314	5,657.23	90.3998	5,657.23	88.5486	5,657.23	88.7545	5,657.23	85.4751	5,657.23	85.6986	5,657.23	80.8477	5,657.23	82.0203	5,657.23	76.7082	5,657.23	79.0981	5,657.23	74.8159	5,657.23	76.0875	5,657.23	72.0129	5,657.23	74.0947	5,657.23	70.0013	5,657.23	71.6185	5,657.23	67.5866	5,657.23	69.0371	5,657.23	66.4775	5,657.23	67.5356	5,657.23	63.8605	5,657.23	65.9987	5,657.23	62.0085	5,657.23	64.3001	5,657.23	62.3586	5,657.23	62.0927	5,657.23	60.5138	5,657.23	59.6407	5,657.23	61.5669	5,657.23	62.5812	5,657.23	61.1031	5,657.23	55.3693	5,657.23	57.784
5,856.45	92.1091	5,856.45	91.7522	5,856.45	91.4071	5,856.45	90.4309	5,856.45	90.1092	5,856.45	88.6033	5,856.45	88.1014	5,856.45	84.9101	5,856.45	85.1059	5,856.45	80.8218	5,856.45	81.6133	5,856.45	78.3615	5,856.45	79.2331	5,856.45	76.1111	5,856.45	77.5034	5,856.45	73.7434	5,856.45	75.029	5,856.45	71.071	5,856.45	72.1033	5,856.45	68.4302	5,856.45	69.9852	5,856.45	66.5432	5,856.45	67.9865	5,856.45	64.2934	5,856.45	66.569	5,856.45	60.78	5,856.45	65.4372	5,856.45	64.228	5,856.45	63.5675	5,856.45	63.4225	5,856.45	61.6506	5,856.45	61.7655	5,856.45	65.5421	5,856.45	62.0856	5,856.45	59.7281	5,856.45	57.3468
6,062.99	92.1229	6,062.99	91.65	6,062.99	91.7466	6,062.99	90.3228	6,062.99	90.6289	6,062.99	88.2011	6,062.99	88.6424	6,062.99	84.8284	6,062.99	85.6901	6,062.99	81.5536	6,062.99	83.2546	6,062.99	79.585	6,062.99	80.8248	6,062.99	77.0384	6,062.99	78.1145	6,062.99	74.0846	6,062.99	75.0244	6,062.99	71.3516	6,062.99	71.9245	6,062.99	69.5697	6,062.99	69.1177	6,062.99	67.7185	6,062.99	67.0192	6,062.99	65.1204	6,062.99	66.7711	6,062.99	64.4517	6,062.99	66.0524	6,062.99	62.642	6,062.99	61.4974	6,062.99	63.81	6,062.99	64.2553	6,062.99	62.3393	6,062.99	64.6144	6,062.99	60.7701	6,062.99	59.4254	6,062.99	57.5624
6,276.86	91.8948	6,276.86	91.4595	6,276.86	91.3952	6,276.86	90.1006	6,276.86	90.2673	6,276.86	87.9294	6,276.86	88.1384	6,276.86	84.7311	6,276.86	85.1473	6,276.86	82.348	6,276.86	83.2774	6,276.86	80.189	6,276.86	81.3512	6,276.86	77.3353	6,276.86	78.5322	6,276.86	74.7656	6,276.86	76.1477	6,276.86	72.3154	6,276.86	72.1835	6,276.86	69.2255	6,276.86	70.7863	6,276.86	67.3082	6,276.86	68.609	6,276.86	66.3124	6,276.86	67.0674	6,276.86	64.2735	6,276.86	65.317	6,276.86	63.796	6,276.86	65.9352	6,276.86	63.1768	6,276.86	63.3648	6,276.86	62.9387	6,276.86	64.7177	6,276.86	62.664	6,276.86	61.4234	6,276.86	58.8154
6,498.05	91.6455	6,498.05	91.5043	6,498.05	91.288	6,498.05	90.2655	6,498.05	90.227	6,498.05	87.9315	6,498.05	87.9648	6,498.05	85.218	6,498.05	85.8649	6,498.05	83.7511	6,498.05	84.2981	6,498.05	81.7016	6,498.05	82.08	6,498.05	78.6195	6,498.05	78.6554	6,498.05	76.1879	6,498.05	75.0877	6,498.05	73.7551	6,498.05	72.4132	6,498.05	71.3875	6,498.05	70.5584	6,498.05	68.4787	6,498.05	68.2052	6,498.05	67.1409	6,498.05	66.8925	6,498.05	67.0738	6,498.05	65.3078	6,498.05	64.0943	6,498.05	64.1925	6,498.05	62.7541	6,498.05	60.5595	6,498.05	64.1404	6,498.05	65.1049	6,498.05	63.4776	6,498.05	58.8973	6,498.05	59.91
6,726.56	91.1298	6,726.56	91.0064	6,726.56	90.989	6,726.56	89.8758	6,726.56	89.9726	6,726.56	87.2829	6,726.56	87.8277	6,726.56	85.1997	6,726.56	86.3816	6,726.56	83.9247	6,726.56	85.0265	6,726.56	81.277	6,726.56	82.0045	6,726.56	78.8156	6,726.56	78.5145	6,726.56	76.0774	6,726.56	76.0587	6,726.56	73.8851	6,726.56	73.0381	6,726.56	71.003	6,726.56	70.297	6,726.56	68.5771	6,726.56	68.7162	6,726.56	66.9093	6,726.56	67.3537	6,726.56	66.5295	6,726.56	66.2993	6,726.56	65.2586	6,726.56	64.288	6,726.56	64.6621	6,726.56	65.4555	6,726.56	62.1657	6,726.56	65.1625	6,726.56	63.8105	6,726.56	61.7697	6,726.56	58.9839
6,963.87	90.4694	6,963.87	90.5812	6,963.87	90.6861	6,963.87	89.4356	6,963.87	89.5188	6,963.87	86.9441	6,963.87	87.5342	6,963.87	85.7667	6,963.87	86.6169	6,963.87	84.2412	6,963.87	84.7136	6,963.87	81.9183	6,963.87	81.2562	6,963.87	79.4401	6,963.87	78.9939	6,963.87	76.6088	6,963.87	76.1213	6,963.87	73.9122	6,963.87	73.7318	6,963.87	70.6465	6,963.87	70.6969	6,963.87	69.2926	6,963.87	69.1442	6,963.87	68.2774	6,963.87	67.2432	6,963.87	66.6376	6,963.87	65.4966	6,963.87	65.3945	6,963.87	66.4681	6,963.87	63.8011	6,963.87	61.0063	6,963.87	64.4796	6,963.87	64.2347	6,963.87	62.8716	6,963.87	60.7782	6,963.87	61.4026
7,209.96	90.0017	7,209.96	90.2347	7,209.96	90.501	7,209.96	89.1937	7,209.96	89.0243	7,209.96	86.9084	7,209.96	87.3667	7,209.96	86.04	7,209.96	86.6682	7,209.96	84.5266	7,209.96	84.4062	7,209.96	82.3834	7,209.96	81.9732	7,209.96	80.1051	7,209.96	79.7853	7,209.96	78.0814	7,209.96	77.4878	7,209.96	74.2134	7,209.96	74.3342	7,209.96	72.067	7,209.96	71.1901	7,209.96	69.7827	7,209.96	69.1135	7,209.96	68.1877	7,209.96	67.2515	7,209.96	66.7238	7,209.96	67.1151	7,209.96	63.6622	7,209.96	65.3222	7,209.96	65.0673	7,209.96	65.1892	7,209.96	65.8622	7,209.96	67.481	7,209.96	64.8425	7,209.96	62.5602	7,209.96	60.9117
7,464.84	89.7102	7,464.84	89.5542	7,464.84	89.9607	7,464.84	88.3543	7,464.84	88.5661	7,464.84	86.3782	7,464.84	87.2678	7,464.84	84.9988	7,464.84	86.3559	7,464.84	82.9614	7,464.84	84.068	7,464.84	81.3908	7,464.84	82.6175	7,464.84	79.4128	7,464.84	79.9644	7,464.84	76.4233	7,464.84	76.5432	7,464.84	73.3689	7,464.84	72.7984	7,464.84	70.1417	7,464.84	70.5853	7,464.84	67.7658	7,464.84	67.8341	7,464.84	65.9792	7,464.84	66.4042	7,464.84	64.8805	7,464.84	64.9736	7,464.84	62.6391	7,464.84	63.981	7,464.84	62.211	7,464.84	63.4778	7,464.84	61.8904	7,464.84	64.5844	7,464.84	62.5102	7,464.84	60.0037	7,464.84	56.2989
7,727.05	90.0903	7,727.05	89.945	7,727.05	89.6895	7,727.05	88.4973	7,727.05	88.0464	7,727.05	86.7993	7,727.05	86.8845	7,727.05	85.0951	7,727.05	85.0604	7,727.05	83.4178	7,727.05	83.7302	7,727.05	82.1339	7,727.05	82.0294	7,727.05	80.0637	7,727.05	79.5446	7,727.05	76.3919	7,727.05	75.8452	7,727.05	73.0577	7,727.05	72.1235	7,727.05	70.1222	7,727.05	69.5392	7,727.05	67.8562	7,727.05	68.0436	7,727.05	65.0829	7,727.05	66.6531	7,727.05	63.8014	7,727.05	64.0214	7,727.05	62.4778	7,727.05	63.3085	7,727.05	62.8962	7,727.05	62.6661	7,727.05	63.3035	7,727.05	64.6325	7,727.05	59.1906	7,727.05	62.344	7,727.05	59.1395
7,999.51	90.24	7,999.51	89.7579	7,999.51	89.4036	7,999.51	87.8904	7,999.51	87.8454	7,999.51	85.9904	7,999.51	86.3374	7,999.51	84.0583	7,999.51	84.3894	7,999.51	82.9615	7,999.51	83.7878	7,999.51	81.8091	7,999.51	82.1546	7,999.51	78.7766	7,999.51	79.0028	7,999.51	74.8383	7,999.51	74.9851	7,999.51	71.2609	7,999.51	70.853	7,999.51	67.7679	7,999.51	68.2705	7,999.51	65.1605	7,999.51	65.6687	7,999.51	64.4915	7,999.51	63.1575	7,999.51	62.3263	7,999.51	62.918	7,999.51	60.6129	7,999.51	61.4236	7,999.51	59.0816	7,999.51	63.7447	7,999.51	57.5511	7,999.51	63.8518	7,999.51	61.0064	7,999.51	59.8903	7,999.51	53.3546
8,282.23	90.8878	8,282.23	90.3331	8,282.23	89.7386	8,282.23	88.2216	8,282.23	88.1167	8,282.23	86.0952	8,282.23	85.8025	8,282.23	83.9221	8,282.23	84.206	8,282.23	83.53	8,282.23	83.878	8,282.23	81.8824	8,282.23	81.5085	8,282.23	78.0941	8,282.23	77.3981	8,282.23	74.4738	8,282.23	73.6355	8,282.23	70.1984	8,282.23	70.4179	8,282.23	67.713	8,282.23	66.9429	8,282.23	65.1023	8,282.23	65.7242	8,282.23	62.2977	8,282.23	63.8838	8,282.23	60.2175	8,282.23	61.0266	8,282.23	59.627	8,282.23	61.1017	8,282.23	58.9169	8,282.23	61.5352	8,282.23	58.2828	8,282.23	61.1626	8,282.23	56.87	8,282.23	57.2173	8,282.23	54.563
8,573.73	91.0185	8,573.73	90.3261	8,573.73	89.8167	8,573.73	87.9798	8,573.73	87.9468	8,573.73	85.4859	8,573.73	85.3939	8,573.73	83.6065	8,573.73	84.4388	8,573.73	83.3771	8,573.73	83.8928	8,573.73	80.9684	8,573.73	80.9105	8,573.73	77.2547	8,573.73	77.0873	8,573.73	73.3915	8,573.73	73.3036	8,573.73	70.0061	8,573.73	69.6582	8,573.73	66.6415	8,573.73	66.6361	8,573.73	63.3543	8,573.73	64.4327	8,573.73	62.1002	8,573.73	62.2158	8,573.73	61.1592	8,573.73	61.3139	8,573.73	59.3117	8,573.73	60.9418	8,573.73	57.6247	8,573.73	61.1197	8,573.73	55.3138	8,573.73	63.0593	8,573.73	53.4037	8,573.73	56.694	8,573.73	52.1027
8,876.95	91.4229	8,876.95	90.5701	8,876.95	89.9312	8,876.95	88.0994	8,876.95	87.6336	8,876.95	85.122	8,876.95	84.7843	8,876.95	83.5516	8,876.95	83.9562	8,876.95	83.0311	8,876.95	82.7603	8,876.95	80.1133	8,876.95	79.6649	8,876.95	76.1411	8,876.95	75.7831	8,876.95	72.0835	8,876.95	71.7129	8,876.95	68.4051	8,876.95	67.6931	8,876.95	65.3083	8,876.95	64.7094	8,876.95	62.364	8,876.95	62.7513	8,876.95	59.5216	8,876.95	60.2825	8,876.95	57.9019	8,876.95	58.7619	8,876.95	56.0915	8,876.95	58.4779	8,876.95	55.3931	8,876.95	58.4618	8,876.95	55.6661	8,876.95	56.7075	8,876.95	56.2751	8,876.95	54.4087	8,876.95	51.7107
9,188.96	91.4049	9,188.96	90.5013	9,188.96	90.0271	9,188.96	87.9768	9,188.96	87.6029	9,188.96	85.0764	9,188.96	85.0507	9,188.96	83.6004	9,188.96	83.8904	9,188.96	82.0555	9,188.96	81.7472	9,188.96	78.147	9,188.96	77.8839	9,188.96	73.6465	9,188.96	73.2014	9,188.96	69.0833	9,188.96	68.9348	9,188.96	65.0848	9,188.96	65.1277	9,188.96	61.4614	9,188.96	61.3967	9,188.96	58.5047	9,188.96	59.4955	9,188.96	56.8594	9,188.96	57.8556	9,188.96	57.2867	9,188.96	56.5852	9,188.96	54.0394	9,188.96	55.4129	9,188.96	51.6635	9,188.96	55.5362	9,188.96	51.7353	9,188.96	58.0419	9,188.96	52.6169	9,188.96	49.4944	9,188.96	49.5676
9,514.16	91.4529	9,514.16	90.5262	9,514.16	90.1491	9,514.16	88.1644	9,514.16	88.0444	9,514.16	85.7392	9,514.16	85.9019	9,514.16	84.3814	9,514.16	84.4703	9,514.16	81.8534	9,514.16	81.3335	9,514.16	77.3788	9,514.16	77.1275	9,514.16	73.8463	9,514.16	72.7324	9,514.16	70.1271	9,514.16	68.9771	9,514.16	66.2714	9,514.16	65.1306	9,514.16	63.474	9,514.16	62.5397	9,514.16	60.9131	9,514.16	60.9554	9,514.16	58.55	9,514.16	58.0005	9,514.16	58.1389	9,514.16	57.0972	9,514.16	56.2037	9,514.16	56.6063	9,514.16	56.659	9,514.16	56.6338	9,514.16	53.4678	9,514.16	52.6415	9,514.16	56.7241	9,514.16	55.249	9,514.16	47.9328
9,849.61	90.8429	9,849.61	89.7662	9,849.61	89.611	9,849.61	87.8412	9,849.61	88.1087	9,849.61	85.9576	9,849.61	86.4794	9,849.61	84.8438	9,849.61	84.7923	9,849.61	81.8383	9,849.61	81.7018	9,849.61	78.9022	9,849.61	78.3439	9,849.61	75.6962	9,849.61	74.9294	9,849.61	71.829	9,849.61	70.964	9,849.61	68.5512	9,849.61	68.0529	9,849.61	65.8953	9,849.61	64.8302	9,849.61	62.9129	9,849.61	62.5856	9,849.61	60.1157	9,849.61	60.5229	9,849.61	59.8312	9,849.61	59.5311	9,849.61	56.7899	9,849.61	57.5492	9,849.61	55.0371	9,849.61	58.0151	9,849.61	55.2519	9,849.61	59.1499	9,849.61	56.3045	9,849.61	53.7582	9,849.61	47.301
10,196.8	90.0481	10,196.8	88.9952	10,196.8	89.1586	10,196.8	87.8039	10,196.8	87.9904	10,196.8	86.4702	10,196.8	86.6323	10,196.8	84.9723	10,196.8	84.3898	10,196.8	82.2928	10,196.8	81.7284	10,196.8	80.4738	10,196.8	79.4769	10,196.8	76.9912	10,196.8	75.7195	10,196.8	73.4225	10,196.8	72.5502	10,196.8	69.5682	10,196.8	68.4802	10,196.8	65.928	10,196.8	65.434	10,196.8	63.4476	10,196.8	62.4077	10,196.8	61.0682	10,196.8	59.285	10,196.8	61.2908	10,196.8	58.5306	10,196.8	58.8825	10,196.8	58.8765	10,196.8	58.2984	10,196.8	57.4099	10,196.8	55.8958	10,196.8	54.8913	10,196.8	57.9938	10,196.8	57.3793	10,196.8	53.6275
10,555.7	88.9676	10,555.7	88.3066	10,555.7	88.6448	10,555.7	87.6819	10,555.7	87.9011	10,555.7	86.6405	10,555.7	86.5697	10,555.7	84.6244	10,555.7	84.1187	10,555.7	83.0006	10,555.7	82.4105	10,555.7	80.6565	10,555.7	79.6071	10,555.7	77.0943	10,555.7	76.3397	10,555.7	73.3837	10,555.7	72.4268	10,555.7	69.5208	10,555.7	68.8158	10,555.7	65.8112	10,555.7	65.1225	10,555.7	63.1435	10,555.7	63.1961	10,555.7	61.221	10,555.7	60.3834	10,555.7	60.315	10,555.7	60.2033	10,555.7	59.6716	10,555.7	57.9675	10,555.7	56.7384	10,555.7	57.8008	10,555.7	57.7884	10,555.7	54.7367	10,555.7	57.6924	10,555.7	51.48	10,555.7	51.2767
10,927.7	87.9256	10,927.7	88.0122	10,927.7	88.3876	10,927.7	87.6038	10,927.7	87.9764	10,927.7	86.5927	10,927.7	86.6742	10,927.7	84.5284	10,927.7	84.4437	10,927.7	83.4244	10,927.7	83.0049	10,927.7	80.6234	10,927.7	79.9238	10,927.7	76.9635	10,927.7	76.5961	10,927.7	72.8871	10,927.7	72.2661	10,927.7	68.7563	10,927.7	68.1223	10,927.7	65.5231	10,927.7	64.8524	10,927.7	62.8015	10,927.7	62.4879	10,927.7	60.2328	10,927.7	61.6034	10,927.7	60.1104	10,927.7	60.0002	10,927.7	59.4986	10,927.7	57.6941	10,927.7	55.8527	10,927.7	55.0697	10,927.7	51.2753	10,927.7	54.2288	10,927.7	57.0261	10,927.7	55.5596	10,927.7	53.642
11,313	88.5741	11,313	88.8378	11,313	89.1074	11,313	87.7358	11,313	88.0745	11,313	86.2136	11,313	86.2788	11,313	84.1431	11,313	84.3188	11,313	83.0065	11,313	82.3151	11,313	79.5982	11,313	78.9024	11,313	75.9045	11,313	74.9265	11,313	71.4591	11,313	70.392	11,313	67.3618	11,313	66.2912	11,313	63.9036	11,313	63.7586	11,313	60.3031	11,313	60.9655	11,313	59.4452	11,313	60.0449	11,313	58.6773	11,313	59.1263	11,313	56.7298	11,313	57.8984	11,313	56.3972	11,313	52.6544	11,313	51.72	11,313	46.92	11,313	53.9456	11,313	53.6799	11,313	50.3531
11,712.9	89.0379	11,712.9	89.2344	11,712.9	89.4081	11,712.9	87.7406	11,712.9	88.1093	11,712.9	86.1052	11,712.9	86.1422	11,712.9	84.4865	11,712.9	84.5942	11,712.9	82.4358	11,712.9	81.8899	11,712.9	78.645	11,712.9	78.198	11,712.9	74.6703	11,712.9	74.0168	11,712.9	70.2437	11,712.9	69.9585	11,712.9	66.3	11,712.9	66.0081	11,712.9	63.5265	11,712.9	63.2143	11,712.9	60.4908	11,712.9	59.6385	11,712.9	59.2881	11,712.9	58.8299	11,712.9	58.1938	11,712.9	56.8723	11,712.9	56.3063	11,712.9	57.1457	11,712.9	56.4453	11,712.9	51.8351	11,712.9	52.453	11,712.9	47.7936	11,712.9	50.871	11,712.9	49.5618	11,712.9	47.802
12,126	88.8378	12,126	88.8636	12,126	89.0526	12,126	87.2603	12,126	87.8815	12,126	86.0712	12,126	86.4276	12,126	84.7307	12,126	84.8371	12,126	81.8768	12,126	81.3761	12,126	78.2097	12,126	77.1581	12,126	74.1979	12,126	73.0451	12,126	69.8918	12,126	70.2317	12,126	66.0245	12,126	66.4458	12,126	63.4284	12,126	62.6769	12,126	59.7797	12,126	58.4065	12,126	58.0463	12,126	57.9901	12,126	58.2709	12,126	56.2092	12,126	56.6774	12,126	57.0428	12,126	55.8429	12,126	53.2835	12,126	49.8831	12,126	34.5791	12,126	49.156	12,126	51.5501	12,126	50.8565
12,553.7	87.4679	12,553.7	87.4559	12,553.7	88.0917	12,553.7	86.1856	12,553.7	87.6148	12,553.7	85.7745	12,553.7	86.8376	12,553.7	84.7336	12,553.7	84.4703	12,553.7	80.888	12,553.7	80.4659	12,553.7	76.7859	12,553.7	76.8868	12,553.7	73.1158	12,553.7	74.4292	12,553.7	70.134	12,553.7	71.4272	12,553.7	65.9567	12,553.7	67.1701	12,553.7	63.4259	12,553.7	62.6965	12,553.7	58.7768	12,553.7	59.2895	12,553.7	57.98	12,553.7	57.9302	12,553.7	56.4921	12,553.7	57.7424	12,553.7	57.0198	12,553.7	56.9864	12,553.7	55.5863	12,553.7	51.9453	12,553.7	50.7301	12,553.7	40.4563	12,553.7	51.3036	12,553.7	49.3548	12,553.7	49.3175
12,996.1	86.4077	12,996.1	86.6399	12,996.1	86.7526	12,996.1	86.2322	12,996.1	86.9174	12,996.1	86.0178	12,996.1	86.2618	12,996.1	83.9481	12,996.1	83.5502	12,996.1	79.8705	12,996.1	80.57	12,996.1	76.2558	12,996.1	78.5244	12,996.1	74.5688	12,996.1	76.1023	12,996.1	71.2683	12,996.1	72.421	12,996.1	67.1597	12,996.1	68.077	12,996.1	63.9235	12,996.1	63.7197	12,996.1	60.6164	12,996.1	61.2515	12,996.1	58.2998	12,996.1	58.2297	12,996.1	56.6821	12,996.1	57.2653	12,996.1	55.9151	12,996.1	57.2542	12,996.1	57.7412	12,996.1	52.5105	12,996.1	51.8459	12,996.1	42.1158	12,996.1	53.5797	12,996.1	52.0163	12,996.1	47.0753
13,454.6	87.9332	13,454.6	87.7091	13,454.6	86.6208	13,454.6	87.3072	13,454.6	86.2203	13,454.6	86.6297	13,454.6	85.5258	13,454.6	83.9252	13,454.6	82.4947	13,454.6	81.4551	13,454.6	80.8436	13,454.6	79.8706	13,454.6	79.3998	13,454.6	77.2903	13,454.6	76.2357	13,454.6	73.7399	13,454.6	71.9487	13,454.6	69.3845	13,454.6	67.5231	13,454.6	65.9621	13,454.6	63.2294	13,454.6	62.1175	13,454.6	61.5903	13,454.6	59.9865	13,454.6	57.2024	13,454.6	58.2366	13,454.6	54.1662	13,454.6	57.8262	13,454.6	56.7977	13,454.6	56.7492	13,454.6	52.1472	13,454.6	52.1911	13,454.6	48.8464	13,454.6	54.8652	13,454.6	51.9681	13,454.6	51.5855
13,929.2	89.1589	13,929.2	88.4753	13,929.2	87.7089	13,929.2	87.5838	13,929.2	86.8282	13,929.2	86.6056	13,929.2	85.3228	13,929.2	83.6781	13,929.2	82.7956	13,929.2	82.1462	13,929.2	81.4646	13,929.2	80.6497	13,929.2	79.3628	13,929.2	77.4606	13,929.2	75.3773	13,929.2	73.8275	13,929.2	71.1954	13,929.2	69.3555	13,929.2	67.3677	13,929.2	65.543	13,929.2	63.3971	13,929.2	61.5835	13,929.2	61.7539	13,929.2	59.2854	13,929.2	58.1019	13,929.2	57.2902	13,929.2	54.0282	13,929.2	57.4813	13,929.2	55.3915	13,929.2	56.1732	13,929.2	51.7787	13,929.2	51.7995	13,929.2	51.9029	13,929.2	54.4534	13,929.2	45.7022	13,929.2	53.4519
14,419.9	88.9946	14,419.9	88.284	14,419.9	88.2804	14,419.9	87.5236	14,419.9	87.4337	14,419.9	86.0264	14,419.9	85.2654	14,419.9	82.9997	14,419.9	83.2938	14,419.9	81.5244	14,419.9	81.9593	14,419.9	79.8759	14,419.9	78.8728	14,419.9	76.3746	14,419.9	74.8217	14,419.9	72.1617	14,419.9	71.04	14,419.9	67.7725	14,419.9	67.3299	14,419.9	64.0924	14,419.9	63.1619	14,419.9	60.2849	14,419.9	61.4532	14,419.9	58.1709	14,419.9	56.8737	14,419.9	54.9526	14,419.9	50.5755	14,419.9	55.3019	14,419.9	55.4707	14,419.9	54.7773	14,419.9	49.1687	14,419.9	45.0686	14,419.9	53.5879	14,419.9	51.9381	14,419.9	45.3654	14,419.9	51.129
14,928.2	88.0201	14,928.2	87.7326	14,928.2	88.2571	14,928.2	87.3674	14,928.2	87.3179	14,928.2	85.4494	14,928.2	85.0161	14,928.2	83.0895	14,928.2	82.9994	14,928.2	81.4803	14,928.2	81.678	14,928.2	79.2323	14,928.2	78.6094	14,928.2	75.7937	14,928.2	74.4962	14,928.2	71.5439	14,928.2	70.1846	14,928.2	67.3739	14,928.2	66.8561	14,928.2	63.7775	14,928.2	62.7995	14,928.2	60.3692	14,928.2	61.4469	14,928.2	58.0242	14,928.2	57.4244	14,928.2	54.7984	14,928.2	51.2291	14,928.2	53.2105	14,928.2	52.9102	14,928.2	50.8635	14,928.2	46.3435	14,928.2	36.6928	14,928.2	50.872	14,928.2	50.5869	14,928.2	43.6263	14,928.2	49.8917
15,455.6	86.9459	15,455.6	87.1212	15,455.6	88.1574	15,455.6	87.066	15,455.6	86.9205	15,455.6	85.2272	15,455.6	84.8078	15,455.6	83.3237	15,455.6	82.6368	15,455.6	81.8394	15,455.6	81.6132	15,455.6	79.8512	15,455.6	79.0101	15,455.6	76.0915	15,455.6	74.7513	15,455.6	72.2414	15,455.6	70.6959	15,455.6	67.8212	15,455.6	66.8792	15,455.6	64.4606	15,455.6	63.1977	15,455.6	60.9152	15,455.6	60.581	15,455.6	58.9872	15,455.6	55.8689	15,455.6	55.741	15,455.6	48.9008	15,455.6	52.7548	15,455.6	50.6328	15,455.6	46.9444	15,455.6	39.3626	15,455.6	37.9511	15,455.6	52.6839	15,455.6	50.8477	15,455.6	44.7801	15,455.6	48.6108
16,000.5	87.6488	16,000.5	87.6777	16,000.5	88.3805	16,000.5	86.6049	16,000.5	86.6022	16,000.5	84.6273	16,000.5	84.2746	16,000.5	82.8161	16,000.5	82.2501	16,000.5	82.0393	16,000.5	81.2877	16,000.5	79.9508	16,000.5	78.1078	16,000.5	75.6534	16,000.5	74.4319	16,000.5	71.6236	16,000.5	70.3329	16,000.5	67.2749	16,000.5	65.7715	16,000.5	63.6297	16,000.5	62.9127	16,000.5	60.2972	16,000.5	59.9539	16,000.5	58.5169	16,000.5	54.4251	16,000.5	53.7601	16,000.5	47.5182	16,000.5	50.0693	16,000.5	49.4964	16,000.5	39.0667	16,000.5	37.7796	16,000.5	40.937	16,000.5	51.7321	16,000.5	48.999	16,000.5	45.9532	16,000.5	42.3346
16,564.5	89.2118	16,564.5	88.8738	16,564.5	88.6469	16,564.5	86.5791	16,564.5	86.5919	16,564.5	84.5116	16,564.5	83.883	16,564.5	82.9972	16,564.5	82.6147	16,564.5	82.0474	16,564.5	80.4913	16,564.5	78.7031	16,564.5	77.155	16,564.5	73.9923	16,564.5	73.2641	16,564.5	70.0212	16,564.5	68.9682	16,564.5	65.9043	16,564.5	64.2824	16,564.5	62.2383	16,564.5	61.0809	16,564.5	58.7514	16,564.5	57.2214	16,564.5	56.5501	16,564.5	51.8938	16,564.5	49.7587	16,564.5	45.7306	16,564.5	47.2613	16,564.5	47.5727	16,564.5	38.3158	16,564.5	36.5553	16,564.5	42.7829	16,564.5	49.8435	16,564.5	45.7945	16,564.5	45.9068	16,564.5	35.9911
17,148.9	88.8063	17,148.9	88.4143	17,148.9	87.7013	17,148.9	86.0524	17,148.9	86.3196	17,148.9	84.7903	17,148.9	84.0438	17,148.9	83.7478	17,148.9	82.7947	17,148.9	81.8061	17,148.9	79.9155	17,148.9	77.8041	17,148.9	76.9893	17,148.9	73.5025	17,148.9	71.7108	17,148.9	69.6359	17,148.9	67.1397	17,148.9	64.9499	17,148.9	62.772	17,148.9	61.2323	17,148.9	59.7339	17,148.9	57.7639	17,148.9	56.3583	17,148.9	55.4627	17,148.9	51.1432	17,148.9	48.3057	17,148.9	46.287	17,148.9	41.7727	17,148.9	46.2925	17,148.9	36.1967	17,148.9	40.4193	17,148.9	42.5706	17,148.9	48.2427	17,148.9	35.7212	17,148.9	47.3355	17,148.9	29.8743
17,752.4	87.7892	17,752.4	87.2238	17,752.4	86.5541	17,752.4	85.0851	17,752.4	85.8824	17,752.4	84.7398	17,752.4	84.4025	17,752.4	83.9276	17,752.4	82.9417	17,752.4	81.4503	17,752.4	79.6682	17,752.4	77.7407	17,752.4	76.3559	17,752.4	73.9738	17,752.4	71.0275	17,752.4	69.0099	17,752.4	66.1645	17,752.4	64.0458	17,752.4	62.1253	17,752.4	60.6797	17,752.4	59.4944	17,752.4	56.9385	17,752.4	55.7962	17,752.4	54.1296	17,752.4	51.0129	17,752.4	49.3282	17,752.4	45.4487	17,752.4	40.6161	17,752.4	44.2094	17,752.4	40.5843	17,752.4	42.1004	17,752.4	39.4023	17,752.4	44.289	17,752.4	37.6731	17,752.4	47.1975	17,752.4	29.2612
18,379.4	87.0488	18,379.4	86.0937	18,379.4	85.7666	18,379.4	84.7111	18,379.4	85.4774	18,379.4	84.0255	18,379.4	84.2616	18,379.4	83.8013	18,379.4	82.4244	18,379.4	80.5491	18,379.4	79.6127	18,379.4	77.8365	18,379.4	75.7571	18,379.4	71.8933	18,379.4	70.1972	18,379.4	66.2883	18,379.4	66.0857	18,379.4	63.29	18,379.4	62.3338	18,379.4	59.4934	18,379.4	59.9298	18,379.4	56.5502	18,379.4	54.9282	18,379.4	53.3365	18,379.4	50.7605	18,379.4	45.749	18,379.4	46.4139	18,379.4	37.044	18,379.4	43.5243	18,379.4	43.3748	18,379.4	43.8855	18,379.4	40.3489	18,379.4	42.1255	18,379.4	40.5909	18,379.4	42.746	18,379.4	25.1524
19,026.9	86.6686	19,026.9	85.4725	19,026.9	85.3988	19,026.9	84.1953	19,026.9	84.5227	19,026.9	83.1994	19,026.9	84.1519	19,026.9	83.2506	19,026.9	81.9568	19,026.9	79.9814	19,026.9	79.2589	19,026.9	76.5186	19,026.9	74.3502	19,026.9	70.0708	19,026.9	71.3452	19,026.9	67.8788	19,026.9	67.5174	19,026.9	64.2395	19,026.9	63.1046	19,026.9	60.1891	19,026.9	60.4285	19,026.9	56.8394	19,026.9	55.9151	19,026.9	53.3591	19,026.9	50.8207	19,026.9	47.0359	19,026.9	47.1819	19,026.9	39.8449	19,026.9	43.0875	19,026.9	44.9334	19,026.9	43.64	19,026.9	44.5545	19,026.9	30.0955	19,026.9	40.9942	19,026.9	42.9055	19,026.9	33.7002
19,697.8	86.0351	19,697.8	85.1693	19,697.8	84.7149	19,697.8	83.4373	19,697.8	83.9735	19,697.8	83.1368	19,697.8	83.9839	19,697.8	82.4661	19,697.8	81.8429	19,697.8	79.6547	19,697.8	78.3957	19,697.8	75.6273	19,697.8	74.9666	19,697.8	72.4021	19,697.8	72.0895	19,697.8	68.4288	19,697.8	66.2216	19,697.8	63.5774	19,697.8	61.8177	19,697.8	60.2387	19,697.8	59.11	19,697.8	56.6234	19,697.8	54.4182	19,697.8	52.8944	19,697.8	50.5534	19,697.8	46.9644	19,697.8	47.4028	19,697.8	38.7047	19,697.8	43.1548	19,697.8	44.7124	19,697.8	41.5892	19,697.8	44.5745	19,697.8	39.9403	19,697.8	45.0993	19,697.8	38.8722	19,697.8	30.3446
19,999.5	85.7847	19,999.5	84.9094	19,999.5	84.4708	19,999.5	82.9105	19,999.5	83.8126	19,999.5	82.6465	19,999.5	83.529	19,999.5	82.1276	19,999.5	81.9105	19,999.5	79.9806	19,999.5	78.0524	19,999.5	75.5295	19,999.5	75.8391	19,999.5	71.8612	19,999.5	71.4034	19,999.5	67.8422	19,999.5	65.1375	19,999.5	61.8013	19,999.5	61.0291	19,999.5	61.3182	19,999.5	59.1557	19,999.5	55.9074	19,999.5	51.0667	19,999.5	49.8405	19,999.5	46.3461	19,999.5	47.055	19,999.5	43.1326	19,999.5	35.5218	19,999.5	45.8472	19,999.5	41.4524	19,999.5	53.6592	19,999.5	51.9929	19,999.5	48.0829	19,999.5	35.2765	19,999.5	51.579	19,999.5	42.0487
