"SPL Horizontal"
"On-Axis"		"10°"		"-10°"		"20°"		"-20°"		"30°"		"-30°"		"40°"		"-40°"		"50°"		"-50°"		"60°"		"-60°"		"70°"		"-70°"		"80°"		"-80°"		"90°"		"-90°"		"100°"		"-100°"		"110°"		"-110°"		"120°"		"-120°"		"130°"		"-130°"		"140°"		"-140°"		"150°"		"-150°"		"160°"		"-160°"		"170°"		"-170°"		"180°"
"Frequency / Hz"	"Sound Pressure Level / dB (re 20 µPa/V)  [2.83  V @ 1. m]"	"Frequency / Hz"	"Sound Pressure Level / dB (re 20 µPa/V)  [2.83  V @ 1. m]"	"Frequency / Hz"	"Sound Pressure Level / dB (re 20 µPa/V)  [2.83  V @ 1. m]"	"Frequency / Hz"	"Sound Pressure Level / dB (re 20 µPa/V)  [2.83  V @ 1. m]"	"Frequency / Hz"	"Sound Pressure Level / dB (re 20 µPa/V)  [2.83  V @ 1. m]"	"Frequency / Hz"	"Sound Pressure Level / dB (re 20 µPa/V)  [2.83  V @ 1. m]"	"Frequency / Hz"	"Sound Pressure Level / dB (re 20 µPa/V)  [2.83  V @ 1. m]"	"Frequency / Hz"	"Sound Pressure Level / dB (re 20 µPa/V)  [2.83  V @ 1. m]"	"Frequency / Hz"	"Sound Pressure Level / dB (re 20 µPa/V)  [2.83  V @ 1. m]"	"Frequency / Hz"	"Sound Pressure Level / dB (re 20 µPa/V)  [2.83  V @ 1. m]"	"Frequency / Hz"	"Sound Pressure Level / dB (re 20 µPa/V)  [2.83  V @ 1. m]"	"Frequency / Hz"	"Sound Pressure Level / dB (re 20 µPa/V)  [2.83  V @ 1. m]"	"Frequency / Hz"	"Sound Pressure Level / dB (re 20 µPa/V)  [2.83  V @ 1. m]"	"Frequency / Hz"	"Sound Pressure Level / dB (re 20 µPa/V)  [2.83  V @ 1. m]"	"Frequency / Hz"	"Sound Pressure Level / dB (re 20 µPa/V)  [2.83  V @ 1. m]"	"Frequency / Hz"	"Sound Pressure Level / dB (re 20 µPa/V)  [2.83  V @ 1. m]"	"Frequency / Hz"	"Sound Pressure Level / dB (re 20 µPa/V)  [2.83  V @ 1. m]"	"Frequency / Hz"	"Sound Pressure Level / dB (re 20 µPa/V)  [2.83  V @ 1. m]"	"Frequency / Hz"	"Sound Pressure Level / dB (re 20 µPa/V)  [2.83  V @ 1. m]"	"Frequency / Hz"	"Sound Pressure Level / dB (re 20 µPa/V)  [2.83  V @ 1. m]"	"Frequency / Hz"	"Sound Pressure Level / dB (re 20 µPa/V)  [2.83  V @ 1. m]"	"Frequency / Hz"	"Sound Pressure Level / dB (re 20 µPa/V)  [2.83  V @ 1. m]"	"Frequency / Hz"	"Sound Pressure Level / dB (re 20 µPa/V)  [2.83  V @ 1. m]"	"Frequency / Hz"	"Sound Pressure Level / dB (re 20 µPa/V)  [2.83  V @ 1. m]"	"Frequency / Hz"	"Sound Pressure Level / dB (re 20 µPa/V)  [2.83  V @ 1. m]"	"Frequency / Hz"	"Sound Pressure Level / dB (re 20 µPa/V)  [2.83  V @ 1. m]"	"Frequency / Hz"	"Sound Pressure Level / dB (re 20 µPa/V)  [2.83  V @ 1. m]"	"Frequency / Hz"	"Sound Pressure Level / dB (re 20 µPa/V)  [2.83  V @ 1. m]"	"Frequency / Hz"	"Sound Pressure Level / dB (re 20 µPa/V)  [2.83  V @ 1. m]"	"Frequency / Hz"	"Sound Pressure Level / dB (re 20 µPa/V)  [2.83  V @ 1. m]"	"Frequency / Hz"	"Sound Pressure Level / dB (re 20 µPa/V)  [2.83  V @ 1. m]"	"Frequency / Hz"	"Sound Pressure Level / dB (re 20 µPa/V)  [2.83  V @ 1. m]"	"Frequency / Hz"	"Sound Pressure Level / dB (re 20 µPa/V)  [2.83  V @ 1. m]"	"Frequency / Hz"	"Sound Pressure Level / dB (re 20 µPa/V)  [2.83  V @ 1. m]"	"Frequency / Hz"	"Sound Pressure Level / dB (re 20 µPa/V)  [2.83  V @ 1. m]"	"Frequency / Hz"	"Sound Pressure Level / dB (re 20 µPa/V)  [2.83  V @ 1. m]"
20.5078	62.2501	20.5078	62.2126	20.5078	62.2461	20.5078	62.1387	20.5078	62.2112	20.5078	62.0521	20.5078	62.1748	20.5078	62.0061	20.5078	62.1938	20.5078	62.0949	20.5078	62.3599	20.5078	62.4498	20.5078	62.7912	20.5078	63.1893	20.5078	63.5849	20.5078	64.3337	20.5078	64.7473	20.5078	65.774	20.5078	66.1738	20.5078	67.3395	20.5078	67.7085	20.5078	68.8794	20.5078	69.2117	20.5078	70.2927	20.5078	70.5867	20.5078	71.5204	20.5078	71.7744	20.5078	72.5319	20.5078	72.7426	20.5078	73.3157	20.5078	73.4789	20.5078	73.873	20.5078	73.9845	20.5078	74.2126	20.5078	74.2692	20.5078	74.3435
21.9727	65.8601	21.9727	65.7848	21.9727	65.9122	21.9727	65.6913	21.9727	65.9451	21.9727	65.5976	21.9727	65.9738	21.9727	65.541	21.9727	66.0272	21.9727	65.5866	21.9727	66.1549	21.9727	65.8264	21.9727	66.4287	21.9727	66.3537	21.9727	66.9299	21.9727	67.2108	21.9727	67.7108	21.9727	68.3501	21.9727	68.7542	21.9727	69.654	21.9727	69.9711	21.9727	70.9922	21.9727	71.2423	21.9727	72.2598	21.9727	72.4605	21.9727	73.3862	21.9727	73.548	21.9727	74.3289	21.9727	74.4562	21.9727	75.066	21.9727	75.1603	21.9727	75.5911	21.9727	75.6532	21.9727	75.9076	21.9727	75.9384	21.9727	76.0223
23.4375	67.6343	23.4375	67.605	23.4375	67.6468	23.4375	67.5664	23.4375	67.6452	23.4375	67.5387	23.4375	67.6444	23.4375	67.559	23.4375	67.6757	23.4375	67.6851	23.4375	67.7925	23.4375	67.9927	23.4375	68.0704	23.4375	68.5538	23.4375	68.5907	23.4375	69.3982	23.4375	69.3999	23.4375	70.4868	23.4375	70.4724	23.4375	71.724	23.4375	71.7142	23.4375	72.9982	23.4375	73.006	23.4375	74.2137	23.4375	74.2422	23.4375	75.3014	23.4375	75.3459	23.4375	76.2167	23.4375	76.2683	23.4375	76.9352	23.4375	76.9842	23.4375	77.4483	23.4375	77.4859	23.4375	77.7571	23.4375	77.7774	23.4375	77.8664
24.9023	71.1149	24.9023	71.0956	24.9023	71.1413	24.9023	71.0895	24.9023	71.1765	24.9023	71.1111	24.9023	71.2302	24.9023	71.1855	24.9023	71.3222	24.9023	71.3494	24.9023	71.4844	24.9023	71.6486	24.9023	71.7605	24.9023	72.1272	24.9023	72.1989	24.9023	72.8086	24.9023	72.8339	24.9023	73.6782	24.9023	73.6647	24.9023	74.6821	24.9023	74.6456	24.9023	75.7431	24.9023	75.7002	24.9023	76.7823	24.9023	76.7445	24.9023	77.7328	24.9023	77.7056	24.9023	78.5455	24.9023	78.5293	24.9023	79.1894	24.9023	79.1816	24.9023	79.65	24.9023	79.6473	24.9023	79.9246	24.9023	79.9241	24.9023	80.0156
26.3672	74.4267	26.3672	74.415	26.3672	74.4548	26.3672	74.4233	26.3672	74.5014	26.3672	74.462	26.3672	74.5745	26.3672	74.5488	26.3672	74.6892	26.3672	74.7098	26.3672	74.8681	26.3672	74.9777	26.3672	75.1411	26.3672	75.385	26.3672	75.5406	26.3672	75.9529	26.3672	76.091	26.3672	76.6777	26.3672	76.7945	26.3672	77.526	26.3672	77.623	26.3672	78.4412	26.3672	78.5225	26.3672	79.3575	26.3672	79.4265	26.3672	80.2126	26.3672	80.2708	26.3672	80.9563	26.3672	81.0034	26.3672	81.5538	26.3672	81.589	26.3672	81.9863	26.3672	82.0092	26.3672	82.2474	26.3672	82.2586	26.3672	82.3377
27.832	77.3906	27.832	77.3805	27.832	77.4224	27.832	77.3966	27.832	77.4762	27.832	77.4473	27.832	77.5562	27.832	77.5464	27.832	77.6724	27.832	77.7123	27.832	77.8408	27.832	77.9676	27.832	78.0838	27.832	78.3346	27.832	78.4276	27.832	78.8287	27.832	78.8943	27.832	79.4498	27.832	79.4918	27.832	80.177	27.832	80.2043	27.832	80.9694	27.832	80.9919	27.832	81.7744	27.832	81.7986	27.832	82.5374	27.832	82.565	27.832	83.2103	27.832	83.239	27.832	83.7572	27.832	83.7829	27.832	84.1565	27.832	84.1755	27.832	84.3992	27.832	84.4091	27.832	84.4834
29.2969	80.0391	29.2969	80.0364	29.2969	80.069	29.2969	80.0638	29.2969	80.1262	29.2969	80.1274	29.2969	80.2137	29.2969	80.2365	29.2969	80.338	29.2969	80.4041	29.2969	80.5098	29.2969	80.6456	29.2969	80.7438	29.2969	80.9771	29.2969	81.0582	29.2969	81.4104	29.2969	81.4695	29.2969	81.9476	29.2969	81.9858	29.2969	82.5755	29.2969	82.5992	29.2969	83.2646	29.2969	83.2819	29.2969	83.9731	29.2969	83.9902	29.2969	84.6538	29.2969	84.6727	29.2969	85.2616	29.2969	85.2809	29.2969	85.7603	29.2969	85.7773	29.2969	86.1267	29.2969	86.1389	29.2969	86.3496	29.2969	86.3559	29.2969	86.4261
30.7617	81.9981	30.7617	82.014	30.7617	82.0118	30.7617	82.0613	30.7617	82.0557	30.7617	82.1438	30.7617	82.1323	30.7617	82.2673	30.7617	82.247	30.7617	82.4397	30.7617	82.4083	30.7617	82.6705	30.7617	82.6276	30.7617	82.9703	30.7617	82.9183	30.7617	83.3478	30.7617	83.2923	30.7617	83.8064	30.7617	83.7551	30.7617	84.3394	30.7617	84.3007	30.7617	84.9279	30.7617	84.9073	30.7617	85.5404	30.7617	85.5395	30.7617	86.1374	30.7617	86.1527	30.7617	86.6782	30.7617	86.7028	30.7617	87.1279	30.7617	87.154	30.7617	87.4622	30.7617	87.4832	30.7617	87.6685	30.7617	87.68	30.7617	87.7416
32.2266	83.2097	32.2266	83.222	32.2266	83.2293	32.2266	83.2672	32.2266	83.281	32.2266	83.3474	32.2266	83.3666	32.2266	83.4663	32.2266	83.4895	32.2266	83.6292	32.2266	83.6549	32.2266	83.8429	32.2266	83.8697	32.2266	84.1151	32.2266	84.1426	32.2266	84.4529	32.2266	84.4819	32.2266	84.8596	32.2266	84.8921	32.2266	85.3313	32.2266	85.3698	32.2266	85.8537	32.2266	85.9	32.2266	86.4015	32.2266	86.4551	32.2266	86.9406	32.2266	86.9982	32.2266	87.434	32.2266	87.4898	32.2266	87.8483	32.2266	87.8961	32.2266	88.1594	32.2266	88.1939	32.2266	88.3535	32.2266	88.3715	32.2266	88.4248
33.6914	83.7067	33.6914	83.7179	33.6914	83.7283	33.6914	83.7629	33.6914	83.7828	33.6914	83.8436	33.6914	83.871	33.6914	83.9629	33.6914	83.9951	33.6914	84.1244	33.6914	84.1587	33.6914	84.333	33.6914	84.3665	33.6914	84.5936	33.6914	84.6244	33.6914	84.9105	33.6914	84.938	33.6914	85.2852	33.6914	85.3107	33.6914	85.7141	33.6914	85.7397	33.6914	86.1855	33.6914	86.2138	33.6914	86.6787	33.6914	86.7107	33.6914	87.1648	33.6914	87.1995	33.6914	87.6113	33.6914	87.6454	33.6914	87.9875	33.6914	88.0171	33.6914	88.2706	33.6914	88.292	33.6914	88.4467	33.6914	88.4579	33.6914	88.5097
35.1562	83.9718	35.1562	83.9832	35.1562	83.9931	35.1562	84.028	35.1562	84.0472	35.1562	84.1071	35.1562	84.1346	35.1562	84.2221	35.1562	84.2561	35.1562	84.3751	35.1562	84.4135	35.1562	84.5688	35.1562	84.6092	35.1562	84.806	35.1562	84.8464	35.1562	85.0895	35.1562	85.1286	35.1562	85.4203	35.1562	85.4578	35.1562	85.7959	35.1562	85.8326	35.1562	86.2079	35.1562	86.245	35.1562	86.6402	35.1562	86.6782	35.1562	87.0689	35.1562	87.1068	35.1562	87.4657	35.1562	87.501	35.1562	87.8028	35.1562	87.8322	35.1562	88.058	35.1562	88.0788	35.1562	88.2175	35.1562	88.2282	35.1562	88.2748
36.6211	84.0127	36.6211	84.026	36.6211	84.0318	36.6211	84.0715	36.6211	84.0831	36.6211	84.1499	36.6211	84.1672	36.6211	84.2617	36.6211	84.2845	36.6211	84.408	36.6211	84.4361	36.6211	84.5901	36.6211	84.6231	36.6211	84.8098	36.6211	84.8469	36.6211	85.0685	36.6211	85.1089	36.6211	85.3669	36.6211	85.4101	36.6211	85.7031	36.6211	85.7489	36.6211	86.0706	36.6211	86.1189	36.6211	86.4564	36.6211	86.5065	36.6211	86.8403	36.6211	86.8904	36.6211	87.1975	36.6211	87.2443	36.6211	87.5029	36.6211	87.5422	36.6211	87.7358	36.6211	87.7641	36.6211	87.8829	36.6211	87.8976	36.6211	87.9376
38.0859	84.0256	38.0859	84.0388	38.0859	84.0437	38.0859	84.0834	38.0859	84.0932	38.0859	84.1594	38.0859	84.174	38.0859	84.2671	38.0859	84.2862	38.0859	84.4067	38.0859	84.4298	38.0859	84.5784	38.0859	84.605	38.0859	84.7829	38.0859	84.8119	38.0859	85.0206	38.0859	85.0511	38.0859	85.2914	38.0859	85.3227	38.0859	85.5936	38.0859	85.6256	38.0859	85.9216	38.0859	85.955	38.0859	86.2649	38.0859	86.3004	38.0859	86.6068	38.0859	86.6438	38.0859	86.9261	38.0859	86.9623	38.0859	87.2004	38.0859	87.2323	38.0859	87.4108	38.0859	87.4345	38.0859	87.5442	38.0859	87.5569	38.0859	87.5938
39.5508	84.1505	39.5508	84.1699	39.5508	84.1612	39.5508	84.2195	39.5508	84.202	39.5508	84.2991	39.5508	84.2727	39.5508	84.4086	39.5508	84.3731	39.5508	84.5475	39.5508	84.503	39.5508	84.7155	39.5508	84.6618	39.5508	84.912	39.5508	84.8494	39.5508	85.1365	39.5508	85.0654	39.5508	85.3878	39.5508	85.3094	39.5508	85.6636	39.5508	85.5801	39.5508	85.9588	39.5508	85.874	39.5508	86.2643	39.5508	86.1828	39.5508	86.5657	39.5508	86.4921	39.5508	86.8444	39.5508	86.7827	39.5508	87.0809	39.5508	87.0334	39.5508	87.2583	39.5508	87.2263	39.5508	87.3654	39.5508	87.3494	39.5508	87.3964
41.0156	84.2392	41.0156	84.2521	41.0156	84.2559	41.0156	84.2941	41.0156	84.3024	41.0156	84.3647	41.0156	84.3784	41.0156	84.4627	41.0156	84.4833	41.0156	84.587	41.0156	84.616	41.0156	84.7366	41.0156	84.7745	41.0156	84.9108	41.0156	84.9563	41.0156	85.1088	41.0156	85.1589	41.0156	85.3298	41.0156	85.3804	41.0156	85.5717	41.0156	85.619	41.0156	85.8306	41.0156	85.8721	41.0156	86.0993	41.0156	86.1344	41.0156	86.3664	41.0156	86.3955	41.0156	86.6163	41.0156	86.6399	41.0156	86.832	41.0156	86.8499	41.0156	86.9978	41.0156	87.0099	41.0156	87.1026	41.0156	87.1086	41.0156	87.1401
42.4805	84.1169	42.4805	84.1256	42.4805	84.1355	42.4805	84.1615	42.4805	84.1812	42.4805	84.2244	42.4805	84.2538	42.4805	84.314	42.4805	84.3528	42.4805	84.4298	42.4805	84.477	42.4805	84.5713	42.4805	84.6248	42.4805	84.7372	42.4805	84.7941	42.4805	84.9261	42.4805	84.9825	42.4805	85.1362	42.4805	85.1883	42.4805	85.365	42.4805	85.4097	42.4805	85.609	42.4805	85.6444	42.4805	85.8622	42.4805	85.8879	42.4805	86.1142	42.4805	86.1312	42.4805	86.3507	42.4805	86.3607	42.4805	86.5549	42.4805	86.5599	42.4805	86.7115	42.4805	86.7134	42.4805	86.8095	42.4805	86.81	42.4805	86.8428
43.9453	84.3135	43.9453	84.3227	43.9453	84.3298	43.9453	84.3572	43.9453	84.3716	43.9453	84.4168	43.9453	84.4387	43.9453	84.5012	43.9453	84.5304	43.9453	84.6097	43.9453	84.6456	43.9453	84.7413	43.9453	84.7826	43.9453	84.8945	43.9453	84.9387	43.9453	85.0674	43.9453	85.1113	43.9453	85.2577	43.9453	85.2978	43.9453	85.4632	43.9453	85.4962	43.9453	85.6808	43.9453	85.7046	43.9453	85.9054	43.9453	85.9193	43.9453	86.1283	43.9453	86.1336	43.9453	86.3372	43.9453	86.3364	43.9453	86.5176	43.9453	86.5136	43.9453	86.6558	43.9453	86.6514	43.9453	86.7419	43.9453	86.7391	43.9453	86.7701
45.4102	84.4828	45.4102	84.4946	45.4102	84.4961	45.4102	84.5314	45.4102	84.5345	45.4102	84.593	45.4102	84.5979	45.4102	84.6787	45.4102	84.6856	45.4102	84.7877	45.4102	84.7963	45.4102	84.9184	45.4102	84.9278	45.4102	85.0685	45.4102	85.0772	45.4102	85.2355	45.4102	85.2411	45.4102	85.4163	45.4102	85.4164	45.4102	85.6081	45.4102	85.6006	45.4102	85.8075	45.4102	85.7916	45.4102	86.0101	45.4102	85.9868	45.4102	86.2085	45.4102	86.1806	45.4102	86.3927	45.4102	86.3642	45.4102	86.5506	45.4102	86.5255	45.4102	86.6708	45.4102	86.6522	45.4102	86.7442	45.4102	86.7344	45.4102	86.7659
46.875	84.7611	46.875	84.774	46.875	84.7711	46.875	84.8095	46.875	84.8041	46.875	84.8674	46.875	84.8602	46.875	84.9469	46.875	84.9387	46.875	85.0471	46.875	85.0388	46.875	85.1663	46.875	85.1584	46.875	85.3023	46.875	85.2946	46.875	85.4526	46.875	85.444	46.875	85.614	46.875	85.603	46.875	85.7837	46.875	85.7686	46.875	85.9587	46.875	85.9388	46.875	86.135	46.875	86.111	46.875	86.3071	46.875	86.2812	46.875	86.4671	46.875	86.4422	46.875	86.6049	46.875	86.584	46.875	86.7106	46.875	86.6956	46.875	86.7757	46.875	86.768	46.875	86.7954
48.3398	85.0033	48.3398	85.0151	48.3398	85.0122	48.3398	85.0476	48.3398	85.042	48.3398	85.1004	48.3398	85.0929	48.3398	85.1731	48.3398	85.1645	48.3398	85.2649	48.3398	85.2558	48.3398	85.3745	48.3398	85.365	48.3398	85.4997	48.3398	85.4892	48.3398	85.6379	48.3398	85.625	48.3398	85.7857	48.3398	85.7687	48.3398	85.9398	48.3398	85.9171	48.3398	86.097	48.3398	86.0682	48.3398	86.2537	48.3398	86.22	48.3398	86.4054	48.3398	86.3695	48.3398	86.5457	48.3398	86.5112	48.3398	86.6661	48.3398	86.6369	48.3398	86.758	48.3398	86.737	48.3398	86.814	48.3398	86.803	48.3398	86.8294
51.2695	85.4766	51.2695	85.4901	51.2695	85.4802	51.2695	85.5205	51.2695	85.5013	51.2695	85.5679	51.2695	85.5405	51.2695	85.6323	51.2695	85.5979	51.2695	85.7132	51.2695	85.6734	51.2695	85.8097	51.2695	85.7657	51.2695	85.9197	51.2695	85.8721	51.2695	86.0401	51.2695	85.9889	51.2695	86.1671	51.2695	86.1115	51.2695	86.2964	51.2695	86.2356	51.2695	86.4245	51.2695	86.3581	51.2695	86.5483	51.2695	86.4774	51.2695	86.6646	51.2695	86.5925	51.2695	86.7694	51.2695	86.7014	51.2695	86.8575	51.2695	86.7995	51.2695	86.9225	51.2695	86.8803	51.2695	86.9592	51.2695	86.937	51.2695	86.9642
52.7344	85.7889	52.7344	85.8091	52.7344	85.7821	52.7344	85.8422	52.7344	85.7895	52.7344	85.8883	52.7344	85.812	52.7344	85.9473	52.7344	85.8506	52.7344	86.0193	52.7344	85.9058	52.7344	86.1035	52.7344	85.9769	52.7344	86.1984	52.7344	86.0618	52.7344	86.3013	52.7344	86.1568	52.7344	86.4083	52.7344	86.2574	52.7344	86.5155	52.7344	86.3592	52.7344	86.6191	52.7344	86.4594	52.7344	86.7163	52.7344	86.5569	52.7344	86.8046	52.7344	86.6521	52.7344	86.8815	52.7344	86.7444	52.7344	86.9433	52.7344	86.8307	52.7344	86.9856	52.7344	86.9057	52.7344	87.0042	52.7344	86.9627	52.7344	86.9966
54.1992	86.0366	54.1992	86.0639	54.1992	86.02	54.1992	86.1012	54.1992	86.0153	54.1992	86.1483	54.1992	86.024	54.1992	86.2055	54.1992	86.0478	54.1992	86.2729	54.1992	86.0876	54.1992	86.3505	54.1992	86.1435	54.1992	86.4372	54.1992	86.2139	54.1992	86.5306	54.1992	86.2956	54.1992	86.6274	54.1992	86.3844	54.1992	86.7238	54.1992	86.4761	54.1992	86.816	54.1992	86.5678	54.1992	86.901	54.1992	86.6588	54.1992	86.9763	54.1992	86.7495	54.1992	87.0393	54.1992	86.8392	54.1992	87.0869	54.1992	86.9252	54.1992	87.1157	54.1992	87.0021	54.1992	87.1222	54.1992	87.0636	54.1992	87.1047
55.6641	86.0831	55.6641	86.1066	55.6641	86.0689	55.6641	86.1389	55.6641	86.0648	55.6641	86.1802	55.6641	86.0722	55.6641	86.2309	55.6641	86.0925	55.6641	86.2916	55.6641	86.1268	55.6641	86.3622	55.6641	86.1752	55.6641	86.4417	55.6641	86.2364	55.6641	86.5276	55.6641	86.3076	55.6641	86.616	55.6641	86.3851	55.6641	86.7028	55.6641	86.4652	55.6641	86.7837	55.6641	86.5455	55.6641	86.8556	55.6641	86.6251	55.6641	86.9162	55.6641	86.704	55.6641	86.9641	55.6641	86.7813	55.6641	86.9982	55.6641	86.8544	55.6641	87.0174	55.6641	86.9188	55.6641	87.0199	55.6641	86.9699	55.6641	87.0042
58.5938	86.8334	58.5938	86.839	58.5938	86.834	58.5938	86.8514	58.5938	86.841	58.5938	86.8719	58.5938	86.8557	58.5938	86.9023	58.5938	86.8796	58.5938	86.9439	58.5938	86.9143	58.5938	86.997	58.5938	86.9606	58.5938	87.0604	58.5938	87.0177	58.5938	87.1312	58.5938	87.083	58.5938	87.2044	58.5938	87.1519	58.5938	87.2745	58.5938	87.2197	58.5938	87.3371	58.5938	87.2821	58.5938	87.3896	58.5938	87.3372	58.5938	87.4323	58.5938	87.3854	58.5938	87.467	58.5938	87.4282	58.5938	87.4951	58.5938	87.4661	58.5938	87.5166	58.5938	87.4978	58.5938	87.5294	58.5938	87.5203	58.5938	87.5311
60.0586	87.16	60.0586	87.168	60.0586	87.1564	60.0586	87.1812	60.0586	87.1577	60.0586	87.2015	60.0586	87.1653	60.0586	87.231	60.0586	87.1817	60.0586	87.2718	60.0586	87.2092	60.0586	87.3248	60.0586	87.249	60.0586	87.3895	60.0586	87.301	60.0586	87.4629	60.0586	87.3622	60.0586	87.54	60.0586	87.4281	60.0586	87.6148	60.0586	87.4929	60.0586	87.6817	60.0586	87.5521	60.0586	87.737	60.0586	87.6038	60.0586	87.7793	60.0586	87.6488	60.0586	87.8093	60.0586	87.69	60.0586	87.8283	60.0586	87.7292	60.0586	87.8369	60.0586	87.7661	60.0586	87.8348	60.0586	87.798	60.0586	87.8217
62.9883	87.5782	62.9883	87.5794	62.9883	87.5776	62.9883	87.5824	62.9883	87.5781	62.9883	87.5892	62.9883	87.5814	62.9883	87.6029	62.9883	87.5902	62.9883	87.6261	62.9883	87.6075	62.9883	87.6608	62.9883	87.6353	62.9883	87.7069	62.9883	87.674	62.9883	87.7619	62.9883	87.7211	62.9883	87.8207	62.9883	87.7719	62.9883	87.8769	62.9883	87.82	62.9883	87.9242	62.9883	87.8599	62.9883	87.9585	62.9883	87.889	62.9883	87.9794	62.9883	87.9084	62.9883	87.9892	62.9883	87.9221	62.9883	87.9915	62.9883	87.9343	62.9883	87.9889	62.9883	87.9475	62.9883	87.9828	62.9883	87.9611	62.9883	87.9734
64.4531	87.8077	64.4531	87.8059	64.4531	87.8066	64.4531	87.8023	64.4531	87.8035	64.4531	87.799	64.4531	87.8004	64.4531	87.7994	64.4531	87.8007	64.4531	87.8069	64.4531	87.8077	64.4531	87.8243	64.4531	87.8243	64.4531	87.8526	64.4531	87.8512	64.4531	87.8901	64.4531	87.8864	64.4531	87.9325	64.4531	87.925	64.4531	87.9735	64.4531	87.9605	64.4531	88.0067	64.4531	87.9869	64.4531	88.0282	64.4531	88.0014	64.4531	88.0374	64.4531	88.0052	64.4531	88.0369	64.4531	88.0031	64.4531	88.0311	64.4531	88.0003	64.4531	88.0235	64.4531	88.0003	64.4531	88.0161	64.4531	88.0036	64.4531	88.0093
67.3828	88.2301	67.3828	88.2189	67.3828	88.2335	67.3828	88.2009	67.3828	88.2299	67.3828	88.1791	67.3828	88.2219	67.3828	88.1575	67.3828	88.2133	67.3828	88.1408	67.3828	88.2084	67.3828	88.1331	67.3828	88.2106	67.3828	88.1367	67.3828	88.2214	67.3828	88.151	67.3828	88.2395	67.3828	88.1722	67.3828	88.26	67.3828	88.1938	67.3828	88.2764	67.3828	88.2092	67.3828	88.2821	67.3828	88.2139	67.3828	88.2737	67.3828	88.2076	67.3828	88.2528	67.3828	88.1935	67.3828	88.2248	67.3828	88.1771	67.3828	88.1968	67.3828	88.1634	67.3828	88.1743	67.3828	88.1551	67.3828	88.1599	67.3828	88.1537
68.8477	88.4792	68.8477	88.4679	68.8477	88.4814	68.8477	88.449	68.8477	88.4754	68.8477	88.4255	68.8477	88.4639	68.8477	88.4021	68.8477	88.4509	68.8477	88.3839	68.8477	88.4413	68.8477	88.3754	68.8477	88.4388	68.8477	88.3791	68.8477	88.4454	68.8477	88.3943	68.8477	88.46	68.8477	88.4167	68.8477	88.4777	68.8477	88.4396	68.8477	88.4913	68.8477	88.4554	68.8477	88.4938	68.8477	88.459	68.8477	88.4814	68.8477	88.4495	68.8477	88.4559	68.8477	88.4302	68.8477	88.4237	68.8477	88.4068	68.8477	88.393	68.8477	88.3848	68.8477	88.3706	68.8477	88.368	68.8477	88.3593	68.8477	88.3589
71.7773	88.7991	71.7773	88.7954	71.7773	88.7887	71.7773	88.7785	71.7773	88.7662	71.7773	88.7514	71.7773	88.736	71.7773	88.7195	71.7773	88.7041	71.7773	88.6892	71.7773	88.677	71.7773	88.6664	71.7773	88.6604	71.7773	88.6555	71.7773	88.6575	71.7773	88.6571	71.7773	88.667	71.7773	88.668	71.7773	88.6833	71.7773	88.6813	71.7773	88.6974	71.7773	88.6891	71.7773	88.7003	71.7773	88.6856	71.7773	88.6866	71.7773	88.6688	71.7773	88.6572	71.7773	88.6415	71.7773	88.6191	71.7773	88.6095	71.7773	88.5821	71.7773	88.5791	71.7773	88.5546	71.7773	88.5553	71.7773	88.5409	71.7773	88.5417
74.707	89.106	74.707	89.1055	74.707	89.0877	74.707	89.0872	74.707	89.0527	74.707	89.0549	74.707	89.0058	74.707	89.0147	74.707	88.9542	74.707	88.9739	74.707	88.9059	74.707	88.9395	74.707	88.8684	74.707	88.9164	74.707	88.8464	74.707	88.9058	74.707	88.8402	74.707	88.9042	74.707	88.8446	74.707	88.9042	74.707	88.8501	74.707	88.8975	74.707	88.8466	74.707	88.8776	74.707	88.8272	74.707	88.843	74.707	88.7917	74.707	88.7976	74.707	88.7467	74.707	88.7485	74.707	88.7024	74.707	88.7039	74.707	88.6684	74.707	88.6702	74.707	88.6507	74.707	88.6516
77.6367	89.3031	77.6367	89.2952	77.6367	89.2873	77.6367	89.2652	77.6367	89.2496	77.6367	89.2183	77.6367	89.1951	77.6367	89.1621	77.6367	89.1318	77.6367	89.1059	77.6367	89.0692	77.6367	89.0584	77.6367	89.0166	77.6367	89.0262	77.6367	88.9806	77.6367	89.0111	77.6367	88.963	77.6367	89.0094	77.6367	88.9595	77.6367	89.0128	77.6367	88.9604	77.6367	89.011	77.6367	88.9547	77.6367	88.996	77.6367	88.9345	77.6367	88.9648	77.6367	88.8987	77.6367	88.9203	77.6367	88.8533	77.6367	88.8698	77.6367	88.8086	77.6367	88.8219	77.6367	88.7748	77.6367	88.7842	77.6367	88.7585	77.6367	88.7619
79.1016	89.4013	79.1016	89.3895	79.1016	89.3864	79.1016	89.353	79.1016	89.3464	79.1016	89.2974	79.1016	89.2868	79.1016	89.2311	79.1016	89.216	79.1016	89.1642	79.1016	89.1439	79.1016	89.1065	79.1016	89.0807	79.1016	89.0651	79.1016	89.034	79.1016	89.0426	79.1016	89.0063	79.1016	89.0355	79.1016	88.9937	79.1016	89.0351	79.1016	88.9867	79.1016	89.0306	79.1016	88.9741	79.1016	89.0132	79.1016	88.9475	79.1016	88.979	79.1016	88.9057	79.1016	88.9308	79.1016	88.8549	79.1016	88.8757	79.1016	88.8056	79.1016	88.8229	79.1016	88.7686	79.1016	88.7807	79.1016	88.7511	79.1016	88.7555
82.0312	89.6191	82.0312	89.5957	82.0312	89.6097	82.0312	89.542	82.0312	89.5692	82.0312	89.4644	82.0312	89.5031	82.0312	89.3725	82.0312	89.42	82.0312	89.2776	82.0312	89.3308	82.0312	89.1913	82.0312	89.2468	82.0312	89.1228	82.0312	89.177	82.0312	89.0762	82.0312	89.1255	82.0312	89.0493	82.0312	89.0898	82.0312	89.0337	82.0312	89.0615	82.0312	89.0182	82.0312	89.0299	82.0312	88.9927	82.0312	88.9865	82.0312	88.9526	82.0312	88.9298	82.0312	88.8999	82.0312	88.8655	82.0312	88.8417	82.0312	88.8039	82.0312	88.7878	82.0312	88.7559	82.0312	88.7471	82.0312	88.729	82.0312	88.7263
84.9609	89.8888	84.9609	89.8723	84.9609	89.8656	84.9609	89.8178	84.9609	89.8054	84.9609	89.7312	84.9609	89.7153	84.9609	89.6219	84.9609	89.6056	84.9609	89.5017	84.9609	89.4891	84.9609	89.3831	84.9609	89.3788	84.9609	89.2766	84.9609	89.285	84.9609	89.188	84.9609	89.2122	84.9609	89.117	84.9609	89.1577	84.9609	89.0569	84.9609	89.1119	84.9609	88.998	84.9609	89.0625	84.9609	88.9319	84.9609	88.9997	84.9609	88.8559	84.9609	88.9208	84.9609	88.7741	84.9609	88.8315	84.9609	88.6964	84.9609	88.7426	84.9609	88.6339	84.9609	88.6665	84.9609	88.5963	84.9609	88.6132	84.9609	88.5889
87.8906	89.7492	87.8906	89.7366	87.8906	89.7194	87.8906	89.6833	87.8906	89.6513	87.8906	89.5963	87.8906	89.5542	87.8906	89.4871	87.8906	89.4421	87.8906	89.3705	87.8906	89.3317	87.8906	89.2619	87.8906	89.2393	87.8906	89.1743	87.8906	89.1775	87.8906	89.1149	87.8906	89.151	87.8906	89.0821	87.8906	89.1542	87.8906	89.0669	87.8906	89.1731	87.8906	89.0557	87.8906	89.1896	87.8906	89.0369	87.8906	89.1881	87.8906	89.0049	87.8906	89.161	87.8906	88.9624	87.8906	89.1101	87.8906	88.9186	87.8906	89.0448	87.8906	88.8853	87.8906	88.9776	87.8906	88.8721	87.8906	88.9209	87.8906	88.8841
90.8203	89.996	90.8203	89.947	90.8203	89.993	90.8203	89.8505	90.8203	89.9397	90.8203	89.7162	90.8203	89.8435	90.8203	89.559	90.8203	89.7171	90.8203	89.3966	90.8203	89.577	90.8203	89.2474	90.8203	89.4408	90.8203	89.1267	90.8203	89.3237	90.8203	89.0434	90.8203	89.2342	90.8203	88.9968	90.8203	89.1713	90.8203	88.9773	90.8203	89.1249	90.8203	88.9693	90.8203	89.0804	90.8203	88.9576	90.8203	89.0257	90.8203	88.9318	90.8203	88.9567	90.8203	88.8895	90.8203	88.8787	90.8203	88.8357	90.8203	88.8038	90.8203	88.7804	90.8203	88.7453	90.8203	88.7351	90.8203	88.7128	90.8203	88.7102
95.2148	90.0613	95.2148	90.0313	95.2148	90.0312	95.2148	89.9436	95.2148	89.945	95.2148	89.8071	95.2148	89.8133	95.2148	89.6363	95.2148	89.6525	95.2148	89.4496	95.2148	89.4832	95.2148	89.2674	95.2148	89.3273	95.2148	89.1082	95.2148	89.2029	95.2148	88.9841	95.2148	89.119	95.2148	88.8974	95.2148	89.0721	95.2148	88.8404	95.2148	89.0472	95.2148	88.7989	95.2148	89.0236	95.2148	88.7586	95.2148	88.9833	95.2148	88.7109	95.2148	88.9183	95.2148	88.6556	95.2148	88.8322	95.2148	88.6003	95.2148	88.7374	95.2148	88.5561	95.2148	88.6493	95.2148	88.5342	95.2148	88.5812	95.2148	88.5418
98.1445	90.0134	98.1445	89.9761	98.1445	89.9823	98.1445	89.8734	98.1445	89.8874	98.1445	89.7154	98.1445	89.7404	98.1445	89.5189	98.1445	89.5598	98.1445	89.3057	98.1445	89.3691	98.1445	89.0998	98.1445	89.1935	98.1445	88.9237	98.1445	89.0541	98.1445	88.7924	98.1445	88.9626	98.1445	88.7092	98.1445	88.9164	98.1445	88.6652	98.1445	88.8996	98.1445	88.643	98.1445	88.889	98.1445	88.6246	98.1445	88.8641	98.1445	88.5978	98.1445	88.8144	98.1445	88.56	98.1445	88.7416	98.1445	88.5174	98.1445	88.6569	98.1445	88.4814	98.1445	88.5755	98.1445	88.4637	98.1445	88.511	98.1445	88.4726
101.074	89.9108	101.074	89.8565	101.074	89.8859	101.074	89.7262	101.074	89.7872	101.074	89.5306	101.074	89.6279	101.074	89.2886	101.074	89.4284	101.074	89.0256	101.074	89.2148	101.074	88.7709	101.074	89.0152	101.074	88.5531	101.074	88.8542	101.074	88.3936	101.074	88.7456	101.074	88.3002	101.074	88.6881	101.074	88.2647	101.074	88.6656	101.074	88.2675	101.074	88.6537	101.074	88.2847	101.074	88.6308	101.074	88.2976	101.074	88.5852	101.074	88.2972	101.074	88.5184	101.074	88.2848	101.074	88.4409	101.074	88.2694	101.074	88.3671	101.074	88.2625	101.074	88.3092	101.074	88.274
105.469	90.5944	105.469	90.5588	105.469	90.531	105.469	90.4265	105.469	90.3744	105.469	90.2079	105.469	90.1386	105.469	89.9214	105.469	89.846	105.469	89.5929	105.469	89.526	105.469	89.2535	105.469	89.2126	105.469	88.9366	105.469	88.9392	105.469	88.6712	105.469	88.73	105.469	88.4756	105.469	88.5932	105.469	88.353	105.469	88.5182	105.469	88.2924	105.469	88.4816	105.469	88.274	105.469	88.458	105.469	88.2767	105.469	88.4302	105.469	88.2842	105.469	88.3934	105.469	88.2875	105.469	88.3524	105.469	88.2848	105.469	88.3159	105.469	88.2802	105.469	88.2911	105.469	88.2801
108.398	90.6712	108.398	90.6443	108.398	90.6003	108.398	90.5232	108.398	90.4365	108.398	90.3195	108.398	90.1928	108.398	90.0525	108.398	89.8909	108.398	89.7483	108.398	89.5602	108.398	89.4378	108.398	89.2352	108.398	89.1522	108.398	88.9503	108.398	88.9174	108.398	88.7325	108.398	88.7482	108.398	88.5929	108.398	88.6447	108.398	88.5246	108.398	88.5948	108.398	88.5064	108.398	88.5797	108.398	88.5133	108.398	88.5813	108.398	88.5259	108.398	88.5861	108.398	88.535	108.398	88.5868	108.398	88.5396	108.398	88.5813	108.398	88.5434	108.398	88.571	108.398	88.5496	108.398	88.5593
112.793	90.5255	112.793	90.4894	112.793	90.4563	112.793	90.3515	112.793	90.2872	112.793	90.1246	112.793	90.0328	112.793	89.8297	112.793	89.7169	112.793	89.496	112.793	89.3718	112.793	89.1583	112.793	89.0349	112.793	88.8522	112.793	88.7435	112.793	88.6076	112.793	88.5258	112.793	88.4414	112.793	88.3931	112.793	88.3533	112.793	88.3369	112.793	88.3282	112.793	88.3341	112.793	88.3431	112.793	88.3579	112.793	88.375	112.793	88.3873	112.793	88.4072	112.793	88.4113	112.793	88.4308	112.793	88.427	112.793	88.4436	112.793	88.4365	112.793	88.4476	112.793	88.4424	112.793	88.4464
117.188	90.6299	117.188	90.583	117.188	90.5555	117.188	90.419	117.188	90.3654	117.188	90.1518	117.188	90.0751	117.188	89.805	117.188	89.7103	117.188	89.4118	117.188	89.3063	117.188	89.0127	117.188	88.9047	117.188	88.6509	117.188	88.5484	117.188	88.3641	117.188	88.2712	117.188	88.1752	117.188	88.089	117.188	88.0856	117.188	87.9956	117.188	88.0764	117.188	87.9684	117.188	88.1164	117.188	87.9799	117.188	88.1735	117.188	88.0089	117.188	88.2229	117.188	88.0442	117.188	88.2509	117.188	88.0822	117.188	88.2539	117.188	88.1224	117.188	88.2357	117.188	88.1638	117.188	88.2034
120.117	90.65	120.117	90.6029	120.117	90.5689	120.117	90.4315	120.117	90.3653	120.117	90.1497	120.117	90.055	120.117	89.7814	120.117	89.6639	120.117	89.3604	120.117	89.2277	120.117	88.9288	120.117	88.7898	120.117	88.5324	120.117	88.3948	120.117	88.2129	120.117	88.0799	120.117	87.9983	120.117	87.8644	120.117	87.8954	120.117	87.7451	120.117	87.8887	120.117	87.7008	120.117	87.9468	120.117	87.7049	120.117	88.032	120.117	87.7365	120.117	88.1106	120.117	87.785	120.117	88.1593	120.117	87.8469	120.117	88.1677	120.117	87.9204	120.117	88.1371	120.117	88.0003	120.117	88.0769
124.512	90.7558	124.512	90.6949	124.512	90.6867	124.512	90.5092	124.512	90.4923	124.512	90.2142	124.512	90.1881	124.512	89.8357	124.512	89.7999	124.512	89.409	124.512	89.364	124.512	88.9768	124.512	88.925	124.512	88.5838	124.512	88.5295	124.512	88.2689	124.512	88.217	124.512	88.0568	124.512	88.0091	124.512	87.9525	124.512	87.9039	124.512	87.9423	124.512	87.8798	124.512	87.999	124.512	87.9074	124.512	88.0899	124.512	87.9606	124.512	88.1839	124.512	88.0234	124.512	88.257	124.512	88.0886	124.512	88.2954	124.512	88.1536	124.512	88.2965	124.512	88.2151	124.512	88.2662
128.906	90.7844	128.906	90.7186	128.906	90.7111	128.906	90.5195	128.906	90.5035	128.906	90.2039	128.906	90.1775	128.906	89.7993	128.906	89.7605	128.906	89.3439	128.906	89.2913	128.906	88.8842	128.906	88.8182	128.906	88.4687	128.906	88.3934	128.906	88.14	128.906	88.0627	128.906	87.9252	128.906	87.8535	128.906	87.83	128.906	87.7672	128.906	87.8402	128.906	87.7821	128.906	87.9275	128.906	87.8643	128.906	88.0576	128.906	87.9801	128.906	88.1974	128.906	88.1041	128.906	88.3192	128.906	88.2204	128.906	88.4042	128.906	88.3196	128.906	88.444	128.906	88.3948	128.906	88.4389
133.301	90.8111	133.301	90.7296	133.301	90.7481	133.301	90.5098	133.301	90.5452	133.301	90.1696	133.301	90.2188	133.301	89.7384	133.301	89.7972	133.301	89.2565	133.301	89.3206	133.301	88.7728	133.301	88.8392	133.301	88.3383	133.301	88.4065	133.301	87.9963	133.301	88.0697	133.301	87.7735	133.301	87.8573	133.301	87.6742	133.301	87.772	133.301	87.6827	133.301	87.793	133.301	87.7715	133.301	87.8862	133.301	87.9085	133.301	88.0155	133.301	88.063	133.301	88.1505	133.301	88.2086	133.301	88.2699	133.301	88.3252	133.301	88.361	133.301	88.4007	133.301	88.4162	133.301	88.4307
139.16	90.7028	139.16	90.6222	139.16	90.6252	139.16	90.3895	139.16	90.3959	139.16	90.0236	139.16	90.0343	139.16	89.5564	139.16	89.5727	139.16	89.0326	139.16	89.0563	139.16	88.5065	139.16	88.5394	139.16	88.035	139.16	88.0785	139.16	87.6657	139.16	87.7204	139.16	87.4254	139.16	87.4911	139.16	87.3141	139.16	87.3905	139.16	87.3094	139.16	87.3971	139.16	87.3783	139.16	87.4781	139.16	87.4884	139.16	87.5984	139.16	87.6133	139.16	87.7264	139.16	87.7338	139.16	87.8374	139.16	87.8363	139.16	87.9156	139.16	87.911	139.16	87.954	139.16	87.9517
143.555	90.5009	143.555	90.4106	143.555	90.4222	143.555	90.1572	143.555	90.1822	143.555	89.761	143.555	89.8026	143.555	89.2575	143.555	89.3196	143.555	88.6973	143.555	88.7834	143.555	88.1432	143.555	88.2541	143.555	87.6613	143.555	87.793	143.555	87.3062	143.555	87.4486	143.555	87.1044	143.555	87.2441	143.555	87.0473	143.555	87.1736	143.555	87.0989	143.555	87.2099	143.555	87.2124	143.555	87.3166	143.555	87.3476	143.555	87.4572	143.555	87.4788	143.555	87.5995	143.555	87.5943	143.555	87.7173	143.555	87.6904	143.555	87.7941	143.555	87.7645	143.555	87.8244	143.555	87.8118
147.949	90.5904	147.949	90.4746	147.949	90.5185	147.949	90.1779	147.949	90.2668	147.949	89.7223	147.949	89.8585	147.949	89.1462	147.949	89.3337	147.949	88.5053	147.949	88.7495	147.949	87.871	147.949	88.1756	147.949	87.3216	147.949	87.6832	147.949	86.9251	147.949	87.3274	147.949	86.7182	147.949	87.1305	147.949	86.6929	147.949	87.0795	147.949	86.804	147.949	87.1378	147.949	86.9898	147.949	87.2626	147.949	87.195	147.949	87.4159	147.949	87.3832	147.949	87.5669	147.949	87.5386	147.949	87.6919	147.949	87.6587	147.949	87.775	147.949	87.7454	147.949	87.8095	147.949	87.7975
153.809	90.84	153.809	90.7474	153.809	90.7122	153.809	90.4406	153.809	90.3719	153.809	89.9405	153.809	89.8434	153.809	89.284	153.809	89.1704	153.809	88.5258	153.809	88.418	153.809	87.7398	153.809	87.6719	153.809	87.0156	153.809	87.0268	153.809	86.4454	153.809	86.5629	153.809	86.1001	153.809	86.3176	153.809	86.0026	153.809	86.2751	153.809	86.1177	153.809	86.3813	153.809	86.3696	153.809	86.5736	153.809	86.6737	153.809	86.7996	153.809	86.9625	153.809	87.0219	153.809	87.1961	153.809	87.2147	153.809	87.3597	153.809	87.3611	153.809	87.4537	153.809	87.4517	153.809	87.4831
159.668	90.876	159.668	90.7936	159.668	90.7273	159.668	90.4878	159.668	90.355	159.668	89.9807	159.668	89.7823	159.668	89.3108	159.668	89.0518	159.668	88.5344	159.668	88.2284	159.668	87.7266	159.668	87.3997	159.668	86.977	159.668	86.668	159.668	86.3777	159.668	86.1277	159.668	86.0004	159.668	85.8349	159.668	85.8721	159.668	85.7856	159.668	85.9645	159.668	85.9254	159.668	86.2082	159.668	86.1785	159.668	86.5202	159.668	86.4757	159.668	86.8289	159.668	86.7657	159.668	87.0863	159.668	87.016	159.668	87.2681	159.668	87.2082	159.668	87.3678	159.668	87.3336	159.668	87.388
165.527	90.729	165.527	90.6775	165.527	90.5447	165.527	90.3953	165.527	90.1338	165.527	89.9012	165.527	89.5205	165.527	89.2299	165.527	88.747	165.527	88.4342	165.527	87.8765	165.527	87.5866	165.527	86.9937	165.527	86.7781	165.527	86.1984	165.527	86.1074	165.527	85.5876	165.527	85.6594	165.527	85.2268	165.527	85.4773	165.527	85.1273	165.527	85.545	165.527	85.2472	165.527	85.7951	165.527	85.5159	165.527	86.1371	165.527	85.8605	165.527	86.4873	165.527	86.2206	165.527	86.785	165.527	86.5509	165.527	86.9953	165.527	86.8207	165.527	87.1033	165.527	87.0101	165.527	87.1068
171.387	90.7863	171.387	90.6773	171.387	90.6653	171.387	90.3429	171.387	90.3234	171.387	89.8022	171.387	89.7853	171.387	89.0898	171.387	89.093	171.387	88.2579	171.387	88.3086	171.387	87.377	171.387	87.5135	171.387	86.5335	171.387	86.8007	171.387	85.8223	171.387	86.2554	171.387	85.3326	171.387	85.9296	171.387	85.1238	171.387	85.8252	171.387	85.1989	171.387	85.8989	171.387	85.4945	171.387	86.086	171.387	85.905	171.387	86.3242	171.387	86.3253	171.387	86.5674	171.387	86.6812	171.387	86.7862	171.387	86.9358	171.387	86.9619	171.387	87.081	171.387	87.0795	171.387	87.1243
177.246	90.5143	177.246	90.4156	177.246	90.3684	177.246	90.081	177.246	89.9851	177.246	89.5354	177.246	89.3895	177.246	88.8211	177.246	88.6276	177.246	87.9991	177.246	87.7697	177.246	87.1475	177.246	86.9107	177.246	86.3554	177.246	86.1596	177.246	85.7095	177.246	85.6175	177.246	85.2783	177.246	85.3468	177.246	85.0981	177.246	85.3524	177.246	85.1651	177.246	85.5859	177.246	85.4364	177.246	85.9672	177.246	85.8404	177.246	86.4083	177.246	86.2957	177.246	86.8308	177.246	86.7308	177.246	87.177	177.246	87.095	177.246	87.4127	177.246	87.358	177.246	87.5226	177.246	87.5033
183.105	90.4409	183.105	90.3084	183.105	90.3058	183.105	89.9194	183.105	89.9095	183.105	89.3022	183.105	89.2778	183.105	88.5047	183.105	88.4602	183.105	87.5965	183.105	87.5348	183.105	86.6687	183.105	86.6087	183.105	85.8262	183.105	85.8053	183.105	85.1703	183.105	85.236	183.105	84.7739	183.105	84.9639	183.105	84.6616	183.105	84.9874	183.105	84.8067	183.105	85.2543	183.105	85.1462	183.105	85.6867	183.105	85.6024	183.105	86.1973	183.105	86.1015	183.105	86.7003	183.105	86.5825	183.105	87.1217	183.105	86.9992	183.105	87.41	183.105	87.3158	183.105	87.5386	183.105	87.5031
188.965	90.9044	188.965	90.7213	188.965	90.7923	188.965	90.2515	188.965	90.3928	188.965	89.5197	188.965	89.7327	188.965	88.5696	188.965	88.8623	188.965	87.4693	188.965	87.8604	188.965	86.3189	188.965	86.8342	188.965	85.2535	188.965	85.9074	188.965	84.43	188.965	85.1909	188.965	83.9784	188.965	84.7493	188.965	83.9351	188.965	84.5898	188.965	84.2184	188.965	84.6826	188.965	84.6804	188.965	84.9821	188.965	85.1841	188.965	85.4217	188.965	85.6459	188.965	85.9073	188.965	86.0354	188.965	86.3365	188.965	86.3511	188.965	86.6332	188.965	86.5922	188.965	86.7653	188.965	86.7413
196.289	91.1782	196.289	91.0628	196.289	90.9987	196.289	90.6605	196.289	90.5315	196.289	89.9948	196.289	89.8028	196.289	89.1049	196.289	88.8633	196.289	88.0487	196.289	87.7961	196.289	86.9046	196.289	86.7219	196.289	85.7735	196.289	85.7896	196.289	84.7781	196.289	85.1356	196.289	84.0566	196.289	84.8211	196.289	83.7331	196.289	84.803	196.289	83.8557	196.289	84.9749	196.289	84.3421	196.289	85.2365	196.289	85.0131	196.289	85.5316	196.289	85.6851	196.289	85.8425	196.289	86.2343	196.289	86.1586	196.289	86.6054	196.289	86.4533	196.289	86.791	196.289	86.6841	196.289	86.8082
203.613	91.0503	203.613	90.8669	203.613	90.9356	203.613	90.4019	203.613	90.5203	203.613	89.687	203.613	89.8175	203.613	88.7707	203.613	88.8613	203.613	87.721	203.613	87.7161	203.613	86.6242	203.613	86.4906	203.613	85.5797	203.613	85.3485	203.613	84.6913	203.613	84.4898	203.613	84.059	203.613	84.07	203.613	83.7693	203.613	84.101	203.613	83.8678	203.613	84.4542	203.613	84.3127	203.613	84.9632	203.613	84.9685	203.613	85.5042	203.613	85.6658	203.613	86.0068	203.613	86.2707	203.613	86.4333	203.613	86.7112	203.613	86.7607	203.613	86.9667	203.613	86.971	203.613	87.0464
210.938	90.9266	210.938	90.7487	210.938	90.7944	210.938	90.2723	210.938	90.3569	210.938	89.5262	210.938	89.6354	210.938	88.5598	210.938	88.6697	210.938	87.4456	210.938	87.5202	210.938	86.2803	210.938	86.2708	210.938	85.1789	210.938	85.0332	210.938	84.2626	210.938	83.9489	210.938	83.6403	210.938	83.178	210.938	83.3878	210.938	82.8516	210.938	83.5246	210.938	82.9969	210.938	83.9958	210.938	83.5157	210.938	84.6802	210.938	84.2501	210.938	85.4313	210.938	85.0551	210.938	86.1203	210.938	85.8172	210.938	86.6551	210.938	86.4461	210.938	86.9775	210.938	86.8724	210.938	87.0539
218.262	90.486	218.262	90.3134	218.262	90.3347	218.262	89.8274	218.262	89.8686	218.262	89.0587	218.262	89.1204	218.262	88.0591	218.262	88.1522	218.262	86.9054	218.262	87.0617	218.262	85.7023	218.262	85.9795	218.262	84.5816	218.262	85.0469	218.262	83.6933	218.262	84.3717	218.262	83.1796	218.262	83.9913	218.262	83.124	218.262	83.8762	218.262	83.4986	218.262	83.9663	218.262	84.165	218.262	84.2064	218.262	84.94	218.262	84.5603	218.262	85.6667	218.262	85.0027	218.262	86.2426	218.262	85.5001	218.262	86.6144	218.262	85.996	218.262	86.7618	218.262	86.4156	218.262	86.6874
225.586	91.4148	225.586	91.1868	225.586	91.2776	225.586	90.6151	225.586	90.7709	225.586	89.7391	225.586	89.9115	225.586	88.6182	225.586	88.7465	225.586	87.3337	225.586	87.3699	225.586	85.9887	225.586	85.9451	225.586	84.7034	225.586	84.7107	225.586	83.6114	225.586	83.9171	225.586	82.8578	225.586	83.683	225.586	82.5852	225.586	83.9176	225.586	82.8636	225.586	84.4187	225.586	83.5988	225.586	85.0058	225.586	84.5569	225.586	85.5721	225.586	85.4987	225.586	86.0748	225.586	86.2711	225.586	86.5051	225.586	86.811	225.586	86.855	225.586	87.1125	225.586	87.0986	225.586	87.1975
232.91	90.9613	232.91	90.7714	232.91	90.7781	232.91	90.2264	232.91	90.2223	232.91	89.365	232.91	89.3141	232.91	88.2511	232.91	88.0973	232.91	86.9779	232.91	86.6487	232.91	85.6671	232.91	85.0933	232.91	84.4577	232.91	83.6247	232.91	83.4825	232.91	82.504	232.91	82.8447	232.91	81.9736	232.91	82.6062	232.91	82.0961	232.91	82.7785	232.91	82.7067	232.91	83.3023	232.91	83.5484	232.91	84.0392	232.91	84.4037	232.91	84.814	232.91	85.1365	232.91	85.4806	232.91	85.6884	232.91	85.9597	232.91	86.0571	232.91	86.235	232.91	86.2653	232.91	86.3277
241.699	90.8528	241.699	90.5775	241.699	90.751	241.699	89.9392	241.699	90.2757	241.699	88.9738	241.699	89.4481	241.699	87.7432	241.699	88.3105	241.699	86.3403	241.699	86.937	241.699	84.8889	241.699	85.4547	241.699	83.5351	241.699	84.0732	241.699	82.4334	241.699	83.0774	241.699	81.7357	241.699	82.6956	241.699	81.5686	241.699	82.9052	241.699	81.9694	241.699	83.454	241.699	82.8166	241.699	84.0775	241.699	83.8673	241.699	84.6374	241.699	84.8832	241.699	85.1275	241.699	85.7106	241.699	85.5967	241.699	86.2816	241.699	86.0505	241.699	86.5808	241.699	86.4204	241.699	86.6175
250.488	90.9051	250.488	90.6593	250.488	90.7303	250.488	90.0015	250.488	90.1413	250.488	88.9605	250.488	89.1581	250.488	87.5947	250.488	87.8171	250.488	86.0062	250.488	86.1791	250.488	84.3528	250.488	84.3485	250.488	82.8441	250.488	82.5183	250.488	81.7009	250.488	81.0406	250.488	81.0836	250.488	80.3938	250.488	81.04	250.488	80.8117	250.488	81.5033	250.488	81.9782	250.488	82.3228	250.488	83.366	250.488	83.3055	250.488	84.6017	250.488	84.2655	250.488	85.5091	250.488	85.0664	250.488	86.0533	250.488	85.6457	250.488	86.2915	250.488	86.014	250.488	86.3223	250.488	86.2249
259.277	91.9085	259.277	91.6285	259.277	91.734	259.277	90.8993	259.277	91.118	259.277	89.7457	259.277	90.0916	259.277	88.2164	259.277	88.7078	259.277	86.3927	259.277	87.0476	259.277	84.4059	259.277	85.2336	259.277	82.4706	259.277	83.4526	259.277	80.9174	259.277	81.9753	259.277	80.1289	259.277	81.109	259.277	80.2769	259.277	81.0173	259.277	81.1449	259.277	81.5769	259.277	82.3439	259.277	82.5015	259.277	83.5661	259.277	83.5406	259.277	84.6363	259.277	84.533	259.277	85.4759	259.277	85.3755	259.277	86.0637	259.277	86.0015	259.277	86.4059	259.277	86.3805	259.277	86.512
268.066	90.8244	268.066	90.6536	268.066	90.574	268.066	90.0666	268.066	89.914	268.066	89.0856	268.066	88.8729	268.066	87.7513	268.066	87.4954	268.066	86.1251	268.066	85.8421	268.066	84.295	268.066	83.9946	268.066	82.3879	268.066	82.084	268.066	80.605	268.066	80.3682	268.066	79.2878	268.066	79.308	268.066	78.8945	268.066	79.336	268.066	79.6238	268.066	80.3295	268.066	81.1006	268.066	81.745	268.066	82.7608	268.066	83.1519	268.066	84.2342	268.066	84.3505	268.066	85.3573	268.066	85.2793	268.066	86.0914	268.066	85.9402	268.066	86.4656	268.066	86.3553	268.066	86.5369
276.855	90.0577	276.855	89.7896	276.855	89.9211	276.855	89.1356	276.855	89.3865	276.855	88.1393	276.855	88.4837	276.855	86.8663	276.855	87.2601	276.855	85.395	276.855	85.7721	276.855	83.8063	276.855	84.079	276.855	82.1848	276.855	82.2556	276.855	80.6501	276.855	80.4546	276.855	79.416	276.855	79.0302	276.855	78.8111	276.855	78.5405	276.855	79.1084	276.855	79.2451	276.855	80.2424	276.855	80.7242	276.855	81.8433	276.855	82.4072	276.855	83.5185	276.855	83.9669	276.855	84.9937	276.855	85.2646	276.855	86.1117	276.855	86.2368	276.855	86.7994	276.855	86.8404	276.855	87.0379
287.109	90.5409	287.109	90.3934	287.109	90.1836	287.109	89.7528	287.109	89.3444	287.109	88.6639	287.109	88.0863	287.109	87.2042	287.109	86.5181	287.109	85.483	287.109	84.7896	287.109	83.6335	287.109	83.0625	287.109	81.7981	287.109	81.4683	287.109	80.1288	287.109	80.1105	287.109	78.8373	287.109	79.1487	287.109	78.2462	287.109	78.8563	287.109	78.6308	287.109	79.4159	287.109	79.868	287.109	80.609	287.109	81.487	287.109	81.9813	287.109	83.0576	287.109	83.2142	287.109	84.3384	287.109	84.2059	287.109	85.227	287.109	84.9673	287.109	85.6981	287.109	85.505	287.109	85.7724
297.363	90.7713	297.363	90.5108	297.363	90.5317	297.363	89.7664	297.363	89.7996	297.363	88.5773	297.363	88.6122	297.363	87.0086	297.363	87.046	297.363	85.1567	297.363	85.2261	297.363	83.1588	297.363	83.3219	297.363	81.2045	297.363	81.5188	297.363	79.544	297.363	79.9825	297.363	78.4571	297.363	78.8697	297.363	78.1403	297.363	78.3714	297.363	78.5874	297.363	78.6626	297.363	79.6069	297.363	79.7186	297.363	80.9401	297.363	81.2479	297.363	82.3479	297.363	82.8634	297.363	83.6428	297.363	84.2551	297.363	84.6974	297.363	85.2416	297.363	85.4351	297.363	85.7548	297.363	85.8043
307.617	90.6973	307.617	90.585	307.617	90.2382	307.617	89.913	307.617	89.2358	307.617	88.7313	307.617	87.7661	307.617	87.1282	307.617	85.9681	307.617	85.2236	307.617	84.0613	307.617	83.1483	307.617	82.3307	307.617	81.0165	307.617	81.0284	307.617	78.9445	307.617	80.2427	307.617	77.1932	307.617	79.9203	307.617	76.3663	307.617	80.0069	307.617	77.0069	307.617	80.4881	307.617	78.6933	307.617	81.3152	307.617	80.5933	307.617	82.35	307.617	82.2532	307.617	83.4002	307.617	83.5352	307.617	84.295	307.617	84.4362	307.617	84.9261	307.617	85.0006	307.617	85.2497	307.617	85.2691
319.336	89.6637	319.336	89.3048	319.336	89.4887	319.336	88.4538	319.336	88.7693	319.336	87.1864	319.336	87.5255	319.336	85.6135	319.336	85.8112	319.336	83.8763	319.336	83.7283	319.336	82.1246	319.336	81.4598	319.336	80.4735	319.336	79.3389	319.336	78.9643	319.336	77.9081	319.336	77.6182	319.336	77.6733	319.336	76.655	319.336	78.5599	319.336	76.6963	319.336	80.0357	319.336	78.1087	319.336	81.633	319.336	80.2175	319.336	83.0723	319.336	82.2106	319.336	84.2075	319.336	83.7348	319.336	84.9907	319.336	84.7379	319.336	85.4432	319.336	85.3079	319.336	85.6203	319.336	85.5747
329.59	89.5952	329.59	89.2649	329.59	89.3892	329.59	88.4365	329.59	88.6401	329.59	87.1792	329.59	87.3773	329.59	85.5977	329.59	85.6757	329.59	83.8279	329.59	83.6665	329.59	82.0117	329.59	81.5503	329.59	80.2502	329.59	79.6209	329.59	78.5807	329.59	78.2825	329.59	77.039	329.59	77.91	329.59	75.8593	329.59	78.4959	329.59	75.7218	329.59	79.6608	329.59	77.2304	329.59	81.0501	329.59	79.7948	329.59	82.4641	329.59	82.3963	329.59	83.7757	329.59	84.4818	329.59	84.885	329.59	85.8644	329.59	85.7414	329.59	86.5479	329.59	86.3411	329.59	86.651
341.309	89.834	341.309	89.4409	341.309	89.6881	341.309	88.5027	341.309	89.0381	341.309	87.0548	341.309	87.9336	341.309	85.1954	341.309	86.4214	341.309	83.1148	341.309	84.5351	341.309	81.0999	341.309	82.3266	341.309	79.4386	341.309	80.0076	341.309	78.2443	341.309	78.2179	341.309	77.4092	341.309	77.7802	341.309	76.7401	341.309	78.5796	341.309	76.156	341.309	79.931	341.309	76.0769	341.309	81.4748	341.309	77.5998	341.309	83.0358	341.309	80.5602	341.309	84.4464	341.309	83.4535	341.309	85.5874	341.309	85.5307	341.309	86.4275	341.309	86.7025	341.309	86.9611	341.309	87.1106
353.027	90.1335	353.027	89.8584	353.027	89.7509	353.027	88.9452	353.027	88.7575	353.027	87.4659	353.027	87.2867	353.027	85.5407	353.027	85.5557	353.027	83.3384	353.027	83.7732	353.027	81.0867	353.027	81.9862	353.027	79.101	353.027	80.0884	353.027	77.7444	353.027	78.0968	353.027	77.1707	353.027	76.4921	353.027	77.1565	353.027	75.9687	353.027	77.3946	353.027	76.4963	353.027	77.8011	353.027	77.6555	353.027	78.6612	353.027	79.3368	353.027	80.4135	353.027	81.4299	353.027	82.769	353.027	83.5518	353.027	84.8973	353.027	85.3032	353.027	86.2897	353.027	86.4357	353.027	86.7967
366.211	90.7747	366.211	90.5853	366.211	90.1705	366.211	89.6546	366.211	88.7556	366.211	88.0742	366.211	86.5685	366.211	85.9918	366.211	83.7723	366.211	83.6174	366.211	80.7766	366.211	81.1782	366.211	78.1682	366.211	78.8581	366.211	76.1473	366.211	76.9211	366.211	74.5257	366.211	75.9014	366.211	73.6383	366.211	76.0446	366.211	73.9978	366.211	76.7888	366.211	75.1738	366.211	77.5536	366.211	76.6108	366.211	78.2279	366.211	78.1923	366.211	79.2751	366.211	79.9641	366.211	81.226	366.211	81.8951	366.211	83.4743	366.211	83.7348	366.211	85.062	366.211	85.0864	366.211	85.5981
379.395	90.2125	379.395	89.9196	379.395	89.7639	379.395	88.9082	379.395	88.5684	379.395	87.2444	379.395	86.6485	379.395	85.0926	379.395	84.1269	379.395	82.7671	379.395	81.3943	379.395	80.6338	379.395	79.139	379.395	78.8036	379.395	77.6301	379.395	77.1147	379.395	76.3157	379.395	75.6442	379.395	74.7545	379.395	75.0811	379.395	73.3127	379.395	75.9942	379.395	73.1806	379.395	77.8638	379.395	74.7237	379.395	79.8924	379.395	76.8929	379.395	81.6325	379.395	78.9312	379.395	82.9013	379.395	80.6351	379.395	83.6668	379.395	82.0199	379.395	83.9507	379.395	83.087	379.395	83.7546
392.578	89.8639	392.578	89.6906	392.578	89.19	392.578	88.7027	392.578	87.6839	392.578	86.9927	392.578	85.4301	392.578	84.7539	392.578	82.6643	392.578	82.3391	392.578	79.9006	392.578	80.2111	392.578	77.7747	392.578	78.6143	392.578	76.4122	392.578	77.3658	392.578	75.6171	392.578	76.2402	392.578	75.6021	392.578	75.4004	392.578	76.5269	392.578	75.3355	392.578	77.9613	392.578	76.2667	392.578	79.4206	392.578	77.9548	392.578	80.6804	392.578	80.0719	392.578	81.7672	392.578	82.2376	392.578	82.8788	392.578	84.034	392.578	84.0707	392.578	85.1624	392.578	85.0624	392.578	85.4948
405.762	91.0724	405.762	90.6776	405.762	90.6694	405.762	89.4989	405.762	89.4484	405.762	87.5659	405.762	87.3719	405.762	84.9908	405.762	84.3957	405.762	82.1533	405.762	80.6341	405.762	79.8751	405.762	77.2259	405.762	78.7289	405.762	76.3459	405.762	78.2601	405.762	76.7424	405.762	77.9687	405.762	76.7212	405.762	77.7909	405.762	76.6722	405.762	77.7273	405.762	77.7448	405.762	77.7626	405.762	79.9355	405.762	78.2346	405.762	82.3394	405.762	79.7726	405.762	84.3609	405.762	82.0769	405.762	85.7382	405.762	84.1588	405.762	86.4349	405.762	85.5532	405.762	86.5786	405.762	86.3001
420.41	91.3893	420.41	90.7465	420.41	91.2302	420.41	89.3238	420.41	90.2949	420.41	87.203	420.41	88.6548	420.41	84.5559	420.41	86.4401	420.41	81.7048	420.41	83.8541	420.41	79.1833	420.41	81.1409	420.41	77.553	420.41	78.5039	420.41	76.8737	420.41	76.2128	420.41	76.7877	420.41	74.9565	420.41	77.1137	420.41	75.3359	420.41	77.7441	420.41	76.8905	420.41	78.404	420.41	78.8982	420.41	78.9484	420.41	80.9531	420.41	79.7395	420.41	82.8378	420.41	81.3632	420.41	84.4126	420.41	83.4902	420.41	85.5702	420.41	85.2328	420.41	86.2001	420.41	86.1417
435.059	92.1022	435.059	91.6441	435.059	91.6706	435.059	90.3106	435.059	90.348	435.059	88.1388	435.059	88.1582	435.059	85.2398	435.059	85.2091	435.059	81.9289	435.059	81.9316	435.059	78.8626	435.059	79.5112	435.059	76.7601	435.059	78.8469	435.059	75.9058	435.059	78.9438	435.059	76.2402	435.059	78.7803	435.059	77.258	435.059	77.9368	435.059	78.2979	435.059	76.0905	435.059	79.0549	435.059	73.8457	435.059	79.6103	435.059	75.4121	435.059	80.3214	435.059	79.2255	435.059	81.5942	435.059	82.2084	435.059	83.3379	435.059	84.3106	435.059	84.9017	435.059	85.5209	435.059	85.7135
451.172	91.7866	451.172	91.601	451.172	90.9378	451.172	90.3758	451.172	89.0886	451.172	88.1577	451.172	86.3385	451.172	85.1476	451.172	83.0001	451.172	81.9029	451.172	79.8221	451.172	79.2228	451.172	77.524	451.172	77.164	451.172	75.7348	451.172	75.1233	451.172	74.1673	451.172	73.4697	451.172	74.201	451.172	73.706	451.172	75.8128	451.172	75.1011	451.172	77.1089	451.172	76.1635	451.172	77.6411	451.172	76.8277	451.172	77.8253	451.172	77.8557	451.172	78.2987	451.172	80.108	451.172	80.0189	451.172	82.9528	451.172	82.7385	451.172	85.0377	451.172	84.9105	451.172	85.7332
465.82	92.5537	465.82	92.2069	465.82	91.9042	465.82	90.8369	465.82	90.2873	465.82	88.4432	465.82	87.7212	465.82	85.1357	465.82	84.202	465.82	81.4251	465.82	79.8151	465.82	78.5038	465.82	75.796	465.82	76.8003	465.82	74.9972	465.82	75.2287	465.82	75.6313	465.82	73.5473	465.82	75.8377	465.82	73.0136	465.82	76.1915	465.82	74.1166	465.82	77.2105	465.82	75.8064	465.82	78.5015	465.82	77.6123	465.82	79.6839	465.82	79.7189	465.82	80.7953	465.82	82.3397	465.82	82.3639	465.82	85.0288	465.82	84.5963	465.82	86.9219	465.82	86.5951	465.82	87.4778
483.398	91.6753	483.398	91.275	483.398	91.2809	483.398	90.0202	483.398	90.1714	483.398	87.923	483.398	88.3929	483.398	85.1105	483.398	85.93	483.398	81.8876	483.398	82.7585	483.398	78.9343	483.398	79.1516	483.398	77.3117	483.398	76.3502	483.398	76.936	483.398	75.4089	483.398	76.5633	483.398	75.529	483.398	75.968	483.398	76.6742	483.398	76.1457	483.398	78.5911	483.398	77.3437	483.398	80.0988	483.398	78.5158	483.398	80.6707	483.398	78.9142	483.398	80.6361	483.398	78.7167	483.398	80.7664	483.398	79.1622	483.398	81.3435	483.398	80.5314	483.398	81.8181	483.398	81.6037
499.512	91.334	499.512	91.042	499.512	90.7887	499.512	89.9195	499.512	89.4272	499.512	87.9766	499.512	87.3599	499.512	85.2467	499.512	84.8205	499.512	81.8791	499.512	82.0533	499.512	78.3394	499.512	79.1797	499.512	75.3939	499.512	76.7006	499.512	73.5213	499.512	75.9412	499.512	73.2688	499.512	76.4546	499.512	74.8196	499.512	76.6493	499.512	76.7015	499.512	76.5262	499.512	77.7648	499.512	77.2899	499.512	77.9251	499.512	79.1344	499.512	78.1201	499.512	80.9718	499.512	79.8127	499.512	82.2813	499.512	82.2734	499.512	83.1428	499.512	83.8577	499.512	83.7989	499.512	84.2121
517.09	92.0286	517.09	91.313	517.09	91.6838	517.09	89.602	517.09	90.2864	517.09	87.055	517.09	87.9489	517.09	83.9766	517.09	84.9765	517.09	80.8861	517.09	81.8961	517.09	78.5351	517.09	79.045	517.09	77.2565	517.09	75.9742	517.09	76.1647	517.09	72.6807	517.09	74.1327	517.09	72.9104	517.09	71.8731	517.09	75.1211	517.09	74.0785	517.09	75.876	517.09	77.4003	517.09	75.0242	517.09	78.9344	517.09	74.0057	517.09	78.8507	517.09	76.8544	517.09	78.142	517.09	81.2333	517.09	79.3441	517.09	84.4503	517.09	82.6446	517.09	85.8698	517.09	85.218
536.133	91.9164	536.133	91.6753	536.133	91.0713	536.133	90.3751	536.133	89.2356	536.133	88.1689	536.133	86.6349	536.133	85.3235	536.133	83.605	536.133	82.1609	536.133	80.5215	536.133	79.1035	536.133	77.9515	536.133	76.9645	536.133	76.7804	536.133	76.2649	536.133	76.9208	536.133	76.3315	536.133	77.5469	536.133	77.1106	536.133	78.4407	536.133	78.8381	536.133	79.4111	536.133	80.3132	536.133	79.9438	536.133	80.6246	536.133	79.4311	536.133	80.1611	536.133	77.5341	536.133	80.6594	536.133	77.1521	536.133	82.788	536.133	81.141	536.133	84.8053	536.133	84.2968	536.133	85.4614
555.176	90.8071	555.176	90.4931	555.176	90.4862	555.176	89.4792	555.176	89.6166	555.176	87.785	555.176	88.3064	555.176	85.585	555.176	86.7071	555.176	83.2622	555.176	84.9149	555.176	81.3773	555.176	82.775	555.176	80.1195	555.176	79.8667	555.176	78.6996	555.176	75.9689	555.176	75.8532	555.176	74.0049	555.176	70.9564	555.176	77.1275	555.176	73.2929	555.176	80.4436	555.176	78.004	555.176	82.6303	555.176	80.1342	555.176	83.4918	555.176	80.6406	555.176	82.9341	555.176	80.5658	555.176	81.8022	555.176	81.9681	555.176	82.5725	555.176	84.8035	555.176	84.9484	555.176	86.0601
574.219	91.3454	574.219	91.0134	574.219	91.0494	574.219	90.0583	574.219	90.1216	574.219	88.4616	574.219	88.585	574.219	86.2222	574.219	86.5481	574.219	83.4312	574.219	84.3562	574.219	80.7832	574.219	82.4118	574.219	80.0223	574.219	80.416	574.219	80.4768	574.219	77.9586	574.219	79.8023	574.219	77.3464	574.219	76.562	574.219	79.1087	574.219	68.2208	574.219	79.8413	574.219	72.375	574.219	79.5526	574.219	78.6486	574.219	80.5844	574.219	81.3368	574.219	82.396	574.219	82.044	574.219	83.2289	574.219	82.5979	574.219	83.6378	574.219	84.5485	574.219	84.4218	574.219	85.2748
594.727	90.8054	594.727	90.464	594.727	89.9297	594.727	89.1383	594.727	87.909	594.727	87.3291	594.727	85.0474	594.727	85.5054	594.727	81.752	594.727	83.6294	594.727	79.0546	594.727	81.2474	594.727	78.8339	594.727	78.6191	594.727	79.2112	594.727	78.2929	594.727	77.2479	594.727	79.7337	594.727	68.9116	594.727	80.1319	594.727	69.5868	594.727	78.8468	594.727	77.0965	594.727	76.4406	594.727	77.5679	594.727	77.203	594.727	72.7041	594.727	79.8519	594.727	62.4413	594.727	80.6486	594.727	66.2433	594.727	80.8162	594.727	79.7059	594.727	82.6511	594.727	84.3728	594.727	84.7252
615.234	90.7007	615.234	90.3366	615.234	90.13	615.234	89.0802	615.234	88.8864	615.234	87.2629	615.234	87.3913	615.234	85.3678	615.234	85.8286	615.234	83.7798	615.234	83.903	615.234	82.5952	615.234	81.3542	615.234	81.5827	615.234	79.2113	615.234	80.382	615.234	78.4944	615.234	78.9635	615.234	76.9333	615.234	77.7484	615.234	72.9222	615.234	77.0916	615.234	74.6937	615.234	77.0696	615.234	79.7387	615.234	78.0322	615.234	81.4436	615.234	79.0453	615.234	80.3162	615.234	78.4805	615.234	79.0994	615.234	77.1797	615.234	81.7767	615.234	78.8662	615.234	83.5746	615.234	82.2796
637.207	90.6172	637.207	90.1896	637.207	90.0571	637.207	88.7536	637.207	88.782	637.207	86.781	637.207	87.173	637.207	84.9918	637.207	85.6072	637.207	83.5523	637.207	84.0409	637.207	82.0498	637.207	82.2913	637.207	80.4409	637.207	80.9666	637.207	79.1797	637.207	81.229	637.207	78.0245	637.207	81.5456	637.207	76.8009	637.207	79.7891	637.207	77.3192	637.207	75.4899	637.207	78.5894	637.207	77.9503	637.207	78.2322	637.207	82.4401	637.207	77.1937	637.207	83.5401	637.207	78.2279	637.207	81.795	637.207	81.3256	637.207	80.8076	637.207	84.2288	637.207	83.9377	637.207	85.3718
659.18	90.0199	659.18	89.2538	659.18	89.8635	659.18	88.1549	659.18	88.7214	659.18	87.2731	659.18	87.0802	659.18	86.3544	659.18	85.6033	659.18	84.7136	659.18	84.4565	659.18	82.5036	659.18	83.1003	659.18	81.5713	659.18	81.5073	659.18	81.8988	659.18	81.4801	659.18	81.3971	659.18	82.3897	659.18	79.3937	659.18	82.2533	659.18	75.9821	659.18	81.0255	659.18	74.4192	659.18	80.1485	659.18	77.872	659.18	80.9247	659.18	79.8034	659.18	81.8579	659.18	79.6797	659.18	81.4584	659.18	79.0306	659.18	81.1893	659.18	81.0899	659.18	82.4898	659.18	83.0216
682.617	91.2223	682.617	90.7406	682.617	90.178	682.617	89.1988	682.617	87.9013	682.617	87.6188	682.617	85.4411	682.617	86.4438	682.617	83.7974	682.617	84.8793	682.617	83.0001	682.617	82.1986	682.617	82.8808	682.617	79.5268	682.617	81.7419	682.617	79.7788	682.617	77.4565	682.617	80.9157	682.617	75.8831	682.617	81.1563	682.617	80.5966	682.617	80.1954	682.617	82.3533	682.617	77.4165	682.617	81.5098	682.617	76.246	682.617	77.062	682.617	79.0461	682.617	64.4017	682.617	79.7153	682.617	74.4622	682.617	79.1919	682.617	80.2047	682.617	82.4607	682.617	84.5757	682.617	85.2884
707.52	91.288	707.52	90.15	707.52	91.1556	707.52	88.5633	707.52	89.8083	707.52	87.4209	707.52	88.3577	707.52	86.578	707.52	87.6288	707.52	85.4042	707.52	86.6097	707.52	83.7413	707.52	84.1374	707.52	81.8582	707.52	81.0304	707.52	79.9277	707.52	79.8564	707.52	79.0871	707.52	77.3914	707.52	80.5437	707.52	70.8224	707.52	81.6859	707.52	78.7764	707.52	81.4291	707.52	83.4305	707.52	79.8334	707.52	84.8235	707.52	79.3091	707.52	84.1659	707.52	80.0937	707.52	81.6652	707.52	79.4913	707.52	78.0904	707.52	78.979	707.52	82.0282	707.52	81.9177
732.422	90.3338	732.422	89.9075	732.422	89.4424	732.422	88.5153	732.422	87.6971	732.422	87.3246	732.422	86.0878	732.422	86.927	732.422	85.6018	732.422	86.2826	732.422	85.8877	732.422	84.4787	732.422	85.5719	732.422	81.8527	732.422	83.9269	732.422	80.4415	732.422	81.8857	732.422	79.879	732.422	81.1793	732.422	78.7289	732.422	79.5296	732.422	79.3406	732.422	76.6271	732.422	79.9427	732.422	81.5049	732.422	79.1606	732.422	84.265	732.422	79.9847	732.422	83.515	732.422	80.8435	732.422	79.5324	732.422	80.4203	732.422	77.7362	732.422	79.9773	732.422	77.7159	732.422	79.0956
757.324	91.8388	757.324	90.7014	757.324	91.0265	757.324	88.4428	757.324	88.634	757.324	86.7162	757.324	86.2735	757.324	86.0576	757.324	85.5195	757.324	85.741	757.324	85.5472	757.324	85.3634	757.324	84.7898	757.324	84.3175	757.324	83.0076	757.324	82.1948	757.324	81.4987	757.324	80.7509	757.324	81.4208	757.324	80.5029	757.324	81.0992	757.324	80.1297	757.324	78.4042	757.324	80.5642	757.324	77.676	757.324	79.0352	757.324	78.2523	757.324	78.438	757.324	74.1933	757.324	79.8612	757.324	78.4	757.324	78.6705	757.324	83.6137	757.324	76.5635	757.324	84.1958	757.324	80.3503
785.156	91.4414	785.156	91.2027	785.156	90.252	785.156	89.2043	785.156	88.5358	785.156	86.1971	785.156	87.2288	785.156	85.0294	785.156	86.9128	785.156	86.3504	785.156	87.1167	785.156	86.8668	785.156	86.7407	785.156	84.7706	785.156	85.0297	785.156	81.2983	785.156	82.1025	785.156	80.8744	785.156	78.8492	785.156	81.7974	785.156	80.2563	785.156	82.3749	785.156	82.355	785.156	82.3908	785.156	81.5512	785.156	81.3958	785.156	82.5724	785.156	77.4098	785.156	82.3787	785.156	77.2751	785.156	77.766	785.156	80.5252	785.156	71.603	785.156	83.0326	785.156	83.0143	785.156	84.5301
811.523	91.7517	811.523	90.7751	811.523	90.6334	811.523	88.4239	811.523	87.8516	811.523	86.7149	811.523	85.3197	811.523	86.8102	811.523	85.0108	811.523	87.2077	811.523	86.0512	811.523	86.8097	811.523	86.448	811.523	85.2276	811.523	85.1949	811.523	82.106	811.523	82.7725	811.523	79.8693	811.523	79.2617	811.523	80.5352	811.523	73.0484	811.523	80.7366	811.523	79.5944	811.523	81.4936	811.523	82.4849	811.523	81.3888	811.523	82.1616	811.523	78.7082	811.523	83.5537	811.523	77.2246	811.523	81.2163	811.523	80.3549	811.523	79.486	811.523	81.5942	811.523	72.3472	811.523	79.7846
840.82	90.8271	840.82	90.0578	840.82	89.8268	840.82	88.0144	840.82	88.1457	840.82	86.3651	840.82	87.3164	840.82	86.3792	840.82	87.3703	840.82	86.8753	840.82	87.0782	840.82	86.2276	840.82	85.4641	840.82	84.1736	840.82	82.2933	840.82	81.7842	840.82	82.1951	840.82	79.7196	840.82	83.6621	840.82	78.687	840.82	80.8809	840.82	79.4151	840.82	76.4464	840.82	80.009	840.82	79.0831	840.82	79.7531	840.82	74.9143	840.82	75.2387	840.82	69.2241	840.82	74.3508	840.82	67.2581	840.82	77.2605	840.82	80.3223	840.82	75.3333	840.82	80.5771	840.82	74.2154
870.117	90.7844	870.117	90.4697	870.117	89.0468	870.117	87.9966	870.117	86.7023	870.117	85.4038	870.117	85.8532	870.117	85.9514	870.117	86.2662	870.117	87.2	870.117	87.0889	870.117	86.6278	870.117	87.696	870.117	85.3773	870.117	86.3157	870.117	83.9455	870.117	80.9223	870.117	79.7533	870.117	81.2459	870.117	74.0852	870.117	84.5844	870.117	79.0159	870.117	84.1676	870.117	81.9213	870.117	83.287	870.117	81.2554	870.117	85.4187	870.117	74.7006	870.117	84.6425	870.117	71.2583	870.117	76.3746	870.117	74.9719	870.117	68.2561	870.117	79.8531	870.117	79.0187	870.117	81.0394
900.879	91.0849	900.879	89.5846	900.879	89.9464	900.879	87.1173	900.879	86.4882	900.879	86.1461	900.879	85.0359	900.879	86.8068	900.879	86.6444	900.879	86.8893	900.879	86.4215	900.879	85.8322	900.879	84.6674	900.879	83.8462	900.879	83.796	900.879	82.2906	900.879	80.1161	900.879	82.6783	900.879	73.5047	900.879	82.4212	900.879	80.7154	900.879	77.5303	900.879	83.7316	900.879	75.9339	900.879	83.0645	900.879	82.4479	900.879	81.6042	900.879	77.1683	900.879	80.8309	900.879	55.9431	900.879	78.1819	900.879	74.7424	900.879	79.1027	900.879	81.4916	900.879	73.5392	900.879	79.1675
933.105	91.0559	933.105	91.1075	933.105	89.7223	933.105	88.6927	933.105	88.9722	933.105	86.0998	933.105	87.9926	933.105	87.3045	933.105	87.9243	933.105	88.1663	933.105	89.2145	933.105	87.427	933.105	88.8572	933.105	85.9567	933.105	84.6444	933.105	82.5752	933.105	80.9079	933.105	81.6832	933.105	79.2106	933.105	82.6597	933.105	61.3514	933.105	81.9577	933.105	80.2381	933.105	79.3726	933.105	82.5065	933.105	82.96	933.105	80.4129	933.105	81.2183	933.105	77.8486	933.105	72.072	933.105	71.4899	933.105	78.9583	933.105	79.623	933.105	82.0236	933.105	80.3222	933.105	71.859
965.332	90.8846	965.332	89.9688	965.332	90.1448	965.332	88.4043	965.332	88.229	965.332	87.2191	965.332	86.6661	965.332	87.4828	965.332	87.1611	965.332	87.8789	965.332	86.9698	965.332	87.0153	965.332	85.7931	965.332	84.7685	965.332	84.3847	965.332	81.9109	965.332	82.3396	965.332	78.5158	965.332	82.9422	965.332	80.1411	965.332	80.9119	965.332	82.2038	965.332	76.1542	965.332	75.2419	965.332	84.0848	965.332	79.9464	965.332	85.317	965.332	82.3139	965.332	84.0617	965.332	71.5999	965.332	80.5515	965.332	59.699	965.332	78.3967	965.332	80.5002	965.332	77.1647	965.332	81.2996
1,000.49	90.0469	1,000.49	89.3514	1,000.49	89.7502	1,000.49	87.9321	1,000.49	88.4485	1,000.49	87.0571	1,000.49	87.3821	1,000.49	87.7972	1,000.49	88.2311	1,000.49	88.4921	1,000.49	88.3745	1,000.49	86.991	1,000.49	86.9892	1,000.49	84.7327	1,000.49	84.0623	1,000.49	83.9503	1,000.49	80.2643	1,000.49	82.8172	1,000.49	79.655	1,000.49	80.5345	1,000.49	80.6566	1,000.49	79.7206	1,000.49	79.3971	1,000.49	78.8108	1,000.49	70.2542	1,000.49	76.2774	1,000.49	74.1839	1,000.49	79.5422	1,000.49	67.862	1,000.49	75.4894	1,000.49	72.9204	1,000.49	71.5052	1,000.49	80.943	1,000.49	81.1286	1,000.49	77.9148	1,000.49	78.5853
1,035.64	88.3264	1,035.64	88.3875	1,035.64	89.39	1,035.64	88.5957	1,035.64	89.115	1,035.64	88.1495	1,035.64	87.6486	1,035.64	87.8034	1,035.64	87.875	1,035.64	87.9952	1,035.64	87.658	1,035.64	86.7408	1,035.64	85.5906	1,035.64	83.7868	1,035.64	83.925	1,035.64	80.5772	1,035.64	78.9184	1,035.64	76.1501	1,035.64	67.1304	1,035.64	71.2718	1,035.64	70.7789	1,035.64	77.5638	1,035.64	81.5318	1,035.64	77.8371	1,035.64	84.2583	1,035.64	77.6605	1,035.64	84.2305	1,035.64	80.724	1,035.64	83.4185	1,035.64	78.674	1,035.64	79.0568	1,035.64	74.6228	1,035.64	61.4552	1,035.64	79.6014	1,035.64	77.3671	1,035.64	73.3941
1,072.27	89.0245	1,072.27	88.7011	1,072.27	88.1119	1,072.27	87.6015	1,072.27	88.047	1,072.27	87.6682	1,072.27	88.0064	1,072.27	87.7912	1,072.27	87.8819	1,072.27	87.0912	1,072.27	88.3792	1,072.27	86.081	1,072.27	86.355	1,072.27	82.8613	1,072.27	82.8225	1,072.27	80.0234	1,072.27	80.9855	1,072.27	79.057	1,072.27	81.1517	1,072.27	76.5431	1,072.27	78.8386	1,072.27	80.521	1,072.27	73.135	1,072.27	80.6009	1,072.27	78.3131	1,072.27	72.5379	1,072.27	76.364	1,072.27	75.7004	1,072.27	70.9438	1,072.27	77.4582	1,072.27	75.1936	1,072.27	72.7559	1,072.27	81.3725	1,072.27	75.2992	1,072.27	75.248	1,072.27	76.0458
1,108.89	89.0908	1,108.89	89.0189	1,108.89	88.0702	1,108.89	88.565	1,108.89	86.6814	1,108.89	87.907	1,108.89	86.838	1,108.89	87.9005	1,108.89	87.7004	1,108.89	87.9003	1,108.89	87.4984	1,108.89	86.5606	1,108.89	86.4839	1,108.89	84.0386	1,108.89	83.5124	1,108.89	81.2174	1,108.89	79.4459	1,108.89	79.3585	1,108.89	78.7138	1,108.89	77.6544	1,108.89	73.9714	1,108.89	75.3825	1,108.89	78.208	1,108.89	82.5581	1,108.89	82.1973	1,108.89	78.0314	1,108.89	82.8838	1,108.89	78.3522	1,108.89	81.7728	1,108.89	79.0601	1,108.89	75.2734	1,108.89	76.1477	1,108.89	74.3528	1,108.89	75.3654	1,108.89	79.4063	1,108.89	76.5603
1,148.44	88.7136	1,148.44	88.2368	1,148.44	88.603	1,148.44	88.0663	1,148.44	87.6075	1,148.44	87.5368	1,148.44	86.6632	1,148.44	87.1681	1,148.44	86.9217	1,148.44	87.9117	1,148.44	88.0186	1,148.44	86.7383	1,148.44	87.0291	1,148.44	83.3448	1,148.44	82.4497	1,148.44	81.5039	1,148.44	78.5401	1,148.44	80.4162	1,148.44	74.4221	1,148.44	78.2036	1,148.44	69.1976	1,148.44	74.4183	1,148.44	80.3576	1,148.44	78.0012	1,148.44	79.368	1,148.44	80.9362	1,148.44	80.5197	1,148.44	64.1928	1,148.44	77.4799	1,148.44	72.5808	1,148.44	76.8758	1,148.44	77.4337	1,148.44	80.1712	1,148.44	67.5043	1,148.44	69.9281	1,148.44	78.0266
1,189.45	89.372	1,189.45	88.6346	1,189.45	89.3741	1,189.45	88.2105	1,189.45	87.6289	1,189.45	86.7587	1,189.45	86.7392	1,189.45	86.965	1,189.45	87.8427	1,189.45	87.5219	1,189.45	88.2633	1,189.45	86.2397	1,189.45	85.5002	1,189.45	84.1656	1,189.45	82.8278	1,189.45	80.9326	1,189.45	80.5951	1,189.45	78.4507	1,189.45	80.9047	1,189.45	75.4133	1,189.45	78.5211	1,189.45	77.1579	1,189.45	54.4392	1,189.45	76.4771	1,189.45	80.402	1,189.45	79.4569	1,189.45	80.6554	1,189.45	64.2893	1,189.45	79.6186	1,189.45	73.719	1,189.45	78.188	1,189.45	78.2163	1,189.45	72.5457	1,189.45	65.902	1,189.45	79.201	1,189.45	75.229
1,230.47	89.0262	1,230.47	89.6222	1,230.47	89.9146	1,230.47	88.8357	1,230.47	89.1108	1,230.47	87	1,230.47	86.8095	1,230.47	87.8948	1,230.47	86.9307	1,230.47	87.9417	1,230.47	87.2596	1,230.47	86.6561	1,230.47	86.6367	1,230.47	83.9392	1,230.47	83.5231	1,230.47	80.7527	1,230.47	79.2908	1,230.47	80.006	1,230.47	74.7582	1,230.47	74.9382	1,230.47	79.9239	1,230.47	72.2218	1,230.47	70.1452	1,230.47	71.2361	1,230.47	78.6414	1,230.47	79.1704	1,230.47	78.0189	1,230.47	76.6473	1,230.47	74.9726	1,230.47	58.5645	1,230.47	79.3625	1,230.47	75.8619	1,230.47	77.9678	1,230.47	73.1682	1,230.47	53.1032	1,230.47	81.0627
1,274.41	90.3724	1,274.41	89.7118	1,274.41	90.1219	1,274.41	88.0088	1,274.41	88.8358	1,274.41	86.6506	1,274.41	87.1096	1,274.41	86.4481	1,274.41	87.8404	1,274.41	87.3137	1,274.41	88.0539	1,274.41	87.4679	1,274.41	86.5861	1,274.41	83.9935	1,274.41	82.0112	1,274.41	78.7281	1,274.41	78.4109	1,274.41	77.4984	1,274.41	75.1199	1,274.41	79.6446	1,274.41	71.345	1,274.41	75.924	1,274.41	77.8495	1,274.41	77.8695	1,274.41	80.7306	1,274.41	75.5812	1,274.41	82.2978	1,274.41	71.6907	1,274.41	73.6735	1,274.41	66.3729	1,274.41	78.5156	1,274.41	79.4919	1,274.41	57.5822	1,274.41	69.7076	1,274.41	79.2671	1,274.41	72.2936
1,319.82	91.1329	1,319.82	90.9618	1,319.82	90.7417	1,319.82	89.4392	1,319.82	89.4648	1,319.82	88.3586	1,319.82	87.5976	1,319.82	87.2309	1,319.82	86.4376	1,319.82	87.3237	1,319.82	85.1541	1,319.82	86.5043	1,319.82	84.6942	1,319.82	83.1187	1,319.82	84.2479	1,319.82	79.8352	1,319.82	81.8758	1,319.82	76.0323	1,319.82	77.4309	1,319.82	72.4864	1,319.82	78.1504	1,319.82	78.2417	1,319.82	63.8396	1,319.82	75.8158	1,319.82	73.4707	1,319.82	74.7591	1,319.82	69.924	1,319.82	66.4937	1,319.82	66.6119	1,319.82	69.2791	1,319.82	77.3591	1,319.82	73.3091	1,319.82	78.4364	1,319.82	73.4658	1,319.82	61.5847	1,319.82	79.4552
1,366.7	91.8813	1,366.7	90.669	1,366.7	90.3861	1,366.7	88.8999	1,366.7	90.4438	1,366.7	88.1312	1,366.7	89.0636	1,366.7	87.2204	1,366.7	88.2096	1,366.7	87.3148	1,366.7	88.1231	1,366.7	86.0634	1,366.7	87.3927	1,366.7	83.8109	1,366.7	85.222	1,366.7	81.3235	1,366.7	78.284	1,366.7	81.185	1,366.7	74.2341	1,366.7	78.0982	1,366.7	76.1722	1,366.7	75.1545	1,366.7	74.2215	1,366.7	76.9521	1,366.7	81.1588	1,366.7	68.5843	1,366.7	81.8673	1,366.7	79.075	1,366.7	72.3029	1,366.7	68.3193	1,366.7	81.3623	1,366.7	73.5503	1,366.7	66.7564	1,366.7	78.2288	1,366.7	78.0555	1,366.7	69.1463
1,413.57	91.9513	1,413.57	90.9715	1,413.57	90.6421	1,413.57	89.4116	1,413.57	89.7988	1,413.57	88.808	1,413.57	88.6496	1,413.57	88.1473	1,413.57	87.93	1,413.57	87.2449	1,413.57	87.729	1,413.57	86.4421	1,413.57	86.3967	1,413.57	84.6499	1,413.57	84.5096	1,413.57	82.6296	1,413.57	82.2115	1,413.57	76.7625	1,413.57	79.8295	1,413.57	77.6933	1,413.57	82.5553	1,413.57	76.9836	1,413.57	71.3659	1,413.57	76.3209	1,413.57	75.3766	1,413.57	76.5606	1,413.57	73.9182	1,413.57	53.0803	1,413.57	73.3653	1,413.57	78.4265	1,413.57	58.012	1,413.57	75.8915	1,413.57	81.2742	1,413.57	73.8701	1,413.57	69.5705	1,413.57	77.601
1,463.38	92.0034	1,463.38	90.397	1,463.38	90.7117	1,463.38	89.0121	1,463.38	90.3376	1,463.38	89.8035	1,463.38	89.6777	1,463.38	87.87	1,463.38	86.9885	1,463.38	86.7436	1,463.38	86.2243	1,463.38	87.9358	1,463.38	86.6858	1,463.38	85.6764	1,463.38	86.0473	1,463.38	79.8654	1,463.38	80.0046	1,463.38	80.3978	1,463.38	74.9432	1,463.38	76.8529	1,463.38	79.4802	1,463.38	79.766	1,463.38	82.1984	1,463.38	83.7536	1,463.38	79.5782	1,463.38	61.3201	1,463.38	78.3167	1,463.38	71.6436	1,463.38	68.8545	1,463.38	76.0393	1,463.38	80.5583	1,463.38	66.8874	1,463.38	72.7415	1,463.38	77.7029	1,463.38	76.3093	1,463.38	71.2517
1,516.11	91.9869	1,516.11	90.6295	1,516.11	90.5731	1,516.11	88.6467	1,516.11	89.1746	1,516.11	89.2777	1,516.11	89.8068	1,516.11	88.5256	1,516.11	88.4022	1,516.11	87.5364	1,516.11	87.2918	1,516.11	87.8313	1,516.11	88.0093	1,516.11	85.9288	1,516.11	84.6536	1,516.11	84.4312	1,516.11	83.0243	1,516.11	79.7547	1,516.11	80.7187	1,516.11	79.553	1,516.11	77.139	1,516.11	74.9275	1,516.11	78.975	1,516.11	77.684	1,516.11	82.0658	1,516.11	77.3585	1,516.11	79.0677	1,516.11	65.7216	1,516.11	75.1213	1,516.11	75.7623	1,516.11	78.1013	1,516.11	69.1092	1,516.11	74.9519	1,516.11	75.3252	1,516.11	79.0878	1,516.11	65.4659
1,568.85	91.5794	1,568.85	90.2526	1,568.85	90.6123	1,568.85	88.3145	1,568.85	88.3859	1,568.85	89.1897	1,568.85	89.5072	1,568.85	88.4594	1,568.85	88.4008	1,568.85	88.3236	1,568.85	88.3044	1,568.85	86.864	1,568.85	86.3807	1,568.85	87.6661	1,568.85	86.8532	1,568.85	82.5502	1,568.85	83.5294	1,568.85	82.6985	1,568.85	67.7861	1,568.85	78.486	1,568.85	76.337	1,568.85	77.3931	1,568.85	77.659	1,568.85	73.8833	1,568.85	81.6741	1,568.85	71.9623	1,568.85	75.4171	1,568.85	72.7396	1,568.85	70.7551	1,568.85	74.3758	1,568.85	69.3929	1,568.85	71.1158	1,568.85	77.5445	1,568.85	75.182	1,568.85	67.4424	1,568.85	74.1205
1,624.51	92.2425	1,624.51	91.7412	1,624.51	90.3025	1,624.51	87.5736	1,624.51	86.6252	1,624.51	88.5889	1,624.51	88.6624	1,624.51	89.3086	1,624.51	88.078	1,624.51	87.2103	1,624.51	87.345	1,624.51	87.5821	1,624.51	87.2107	1,624.51	85.7863	1,624.51	84.552	1,624.51	85.3129	1,624.51	82.6166	1,624.51	78.1348	1,624.51	79.7993	1,624.51	79.9885	1,624.51	75.3648	1,624.51	79.3615	1,624.51	71.5998	1,624.51	74.7526	1,624.51	77.318	1,624.51	80.5742	1,624.51	80.7902	1,624.51	70.3694	1,624.51	74.5851	1,624.51	75.8214	1,624.51	82.8359	1,624.51	75.5594	1,624.51	56.6478	1,624.51	78.8511	1,624.51	80.5224	1,624.51	69.8791
1,681.64	92.0896	1,681.64	90.9848	1,681.64	91.7496	1,681.64	88.9124	1,681.64	87.3972	1,681.64	87.0279	1,681.64	87.1604	1,681.64	88.7495	1,681.64	88.9279	1,681.64	86.8826	1,681.64	87.2219	1,681.64	88.1708	1,681.64	87.3824	1,681.64	85.9687	1,681.64	87.3591	1,681.64	81.2415	1,681.64	81.121	1,681.64	81.3998	1,681.64	75.8432	1,681.64	70.3366	1,681.64	78.0507	1,681.64	73.6329	1,681.64	78.2443	1,681.64	78.0013	1,681.64	84.6113	1,681.64	71.6951	1,681.64	79.4931	1,681.64	71.9743	1,681.64	78.6319	1,681.64	77.7874	1,681.64	76.7508	1,681.64	70.354	1,681.64	61.3812	1,681.64	78.283	1,681.64	73.4989	1,681.64	76.9344
1,741.7	91.5842	1,741.7	90.7826	1,741.7	91.1019	1,741.7	89.7792	1,741.7	88.3062	1,741.7	87.2523	1,741.7	88.28	1,741.7	88.7623	1,741.7	88.4143	1,741.7	87.9372	1,741.7	88.4234	1,741.7	86.8519	1,741.7	87.4651	1,741.7	83.6332	1,741.7	84.0605	1,741.7	82.7585	1,741.7	81.7139	1,741.7	79.6493	1,741.7	82.5077	1,741.7	73.8796	1,741.7	72.3986	1,741.7	62.906	1,741.7	76.4655	1,741.7	79.0673	1,741.7	72.6392	1,741.7	74.8366	1,741.7	67.9928	1,741.7	69.9581	1,741.7	76.0138	1,741.7	67.3234	1,741.7	70.5325	1,741.7	78.3855	1,741.7	78.9246	1,741.7	72.3888	1,741.7	70.4617	1,741.7	76.1461
1,803.22	90.3064	1,803.22	91.4488	1,803.22	91.78	1,803.22	90.4508	1,803.22	89.5984	1,803.22	87.1557	1,803.22	85.8705	1,803.22	86.4951	1,803.22	86.7693	1,803.22	86.2999	1,803.22	88.2832	1,803.22	85.4813	1,803.22	86.2303	1,803.22	86.6663	1,803.22	85.084	1,803.22	82.5247	1,803.22	80.3318	1,803.22	75.5613	1,803.22	77.0194	1,803.22	78.9279	1,803.22	78.003	1,803.22	81.39	1,803.22	69.3969	1,803.22	68.8639	1,803.22	77.019	1,803.22	73.4116	1,803.22	67.0101	1,803.22	72.8751	1,803.22	71.0162	1,803.22	75.1014	1,803.22	77.1898	1,803.22	75.1138	1,803.22	81.2537	1,803.22	73.7768	1,803.22	71.7673	1,803.22	71.4794
1,866.21	90.1392	1,866.21	91.0483	1,866.21	90.7644	1,866.21	90.1549	1,866.21	90.0578	1,866.21	88.8658	1,866.21	88.0646	1,866.21	87.4419	1,866.21	87.2041	1,866.21	86.3496	1,866.21	85.6606	1,866.21	86.269	1,866.21	86.3722	1,866.21	83.2958	1,866.21	83.283	1,866.21	80.4457	1,866.21	81.8429	1,866.21	79.3842	1,866.21	80.4486	1,866.21	75.2776	1,866.21	80.1499	1,866.21	68.4546	1,866.21	69.9744	1,866.21	78.3219	1,866.21	72.721	1,866.21	72.3122	1,866.21	74.1389	1,866.21	65.9169	1,866.21	74.0166	1,866.21	77.8862	1,866.21	80.2967	1,866.21	76.8111	1,866.21	66.2859	1,866.21	71.4343	1,866.21	74.0541	1,866.21	77.3032
1,932.13	90.1247	1,932.13	90.5456	1,932.13	90.1381	1,932.13	90.239	1,932.13	89.6007	1,932.13	89.9971	1,932.13	89.0404	1,932.13	88.1113	1,932.13	87.0022	1,932.13	86.1382	1,932.13	86.2231	1,932.13	86.2212	1,932.13	87.3557	1,932.13	83.5819	1,932.13	85.1661	1,932.13	80.8531	1,932.13	81.0475	1,932.13	77.772	1,932.13	78.0478	1,932.13	76.2096	1,932.13	76.216	1,932.13	76.1133	1,932.13	73.3688	1,932.13	68.673	1,932.13	76.5595	1,932.13	69.6871	1,932.13	68.5083	1,932.13	70.8852	1,932.13	76.1246	1,932.13	73.0045	1,932.13	63.6771	1,932.13	65.1256	1,932.13	75.0943	1,932.13	75.5022	1,932.13	70.0722	1,932.13	63.1277
1,999.51	90.6405	1,999.51	90.0253	1,999.51	90.8104	1,999.51	90.8077	1,999.51	89.6518	1,999.51	88.8317	1,999.51	89.1832	1,999.51	89.6259	1,999.51	89.1419	1,999.51	86.1599	1,999.51	85.4146	1,999.51	87.335	1,999.51	88.3639	1,999.51	86.4163	1,999.51	85.2361	1,999.51	82.9428	1,999.51	82.5406	1,999.51	80.0809	1,999.51	75.0888	1,999.51	76.0083	1,999.51	80.4179	1,999.51	76.9311	1,999.51	74.9943	1,999.51	71.6232	1,999.51	74.2202	1,999.51	68.2865	1,999.51	69.6522	1,999.51	68.0323	1,999.51	77.3151	1,999.51	72.3371	1,999.51	65.8232	1,999.51	73.4949	1,999.51	71.5598	1,999.51	68.8465	1,999.51	68.0304	1,999.51	72.9274
2,069.82	90.9455	2,069.82	90.626	2,069.82	91.1088	2,069.82	90.1019	2,069.82	90.9749	2,069.82	87.5779	2,069.82	86.7964	2,069.82	89.0113	2,069.82	89.508	2,069.82	84.6272	2,069.82	86.2176	2,069.82	86.8364	2,069.82	88.5001	2,069.82	84.8673	2,069.82	86.0416	2,069.82	83.552	2,069.82	82.4662	2,069.82	77.2423	2,069.82	73.5487	2,069.82	77.5465	2,069.82	71.4392	2,069.82	72.0179	2,069.82	80.1718	2,069.82	74.8839	2,069.82	77.7372	2,069.82	69.0754	2,069.82	67.1428	2,069.82	72.6958	2,069.82	73.8428	2,069.82	74.3772	2,069.82	63.528	2,069.82	60.2159	2,069.82	74.5575	2,069.82	72.8821	2,069.82	72.1309	2,069.82	67.758
2,143.07	90.3898	2,143.07	91.4147	2,143.07	91.8662	2,143.07	91.0137	2,143.07	91.6311	2,143.07	87.1583	2,143.07	86.9645	2,143.07	89.3095	2,143.07	89.7372	2,143.07	87.4848	2,143.07	86.5852	2,143.07	86.9945	2,143.07	88.5011	2,143.07	86.6949	2,143.07	85.8804	2,143.07	80.995	2,143.07	82.7563	2,143.07	76.8841	2,143.07	76.3099	2,143.07	76.5521	2,143.07	75.1192	2,143.07	73.7076	2,143.07	72.8565	2,143.07	73.8956	2,143.07	79.1179	2,143.07	72.5337	2,143.07	71.1655	2,143.07	65.2802	2,143.07	72.4008	2,143.07	60.5216	2,143.07	63.9296	2,143.07	68.847	2,143.07	71.7443	2,143.07	73.7221	2,143.07	69.1583	2,143.07	64.2424
2,219.24	89.7271	2,219.24	90.7273	2,219.24	90.8882	2,219.24	91.3308	2,219.24	91.7018	2,219.24	87.6541	2,219.24	89.0574	2,219.24	87.7894	2,219.24	88.6525	2,219.24	87.425	2,219.24	87.4657	2,219.24	86.0174	2,219.24	87.1553	2,219.24	84.876	2,219.24	84.6178	2,219.24	80.8663	2,219.24	81.3014	2,219.24	79.3311	2,219.24	72.8993	2,219.24	73.884	2,219.24	71.5392	2,219.24	73.9094	2,219.24	67.8579	2,219.24	60.9462	2,219.24	77.2614	2,219.24	67.3012	2,219.24	71.881	2,219.24	74.676	2,219.24	68.0491	2,219.24	68.3664	2,219.24	66.6071	2,219.24	74.4439	2,219.24	69.0562	2,219.24	66.1271	2,219.24	72.1858	2,219.24	70.1742
2,296.88	89.2409	2,296.88	90.2789	2,296.88	90.1057	2,296.88	91.224	2,296.88	90.7373	2,296.88	90.4993	2,296.88	90.5787	2,296.88	87.1848	2,296.88	88.3492	2,296.88	88.684	2,296.88	88.2496	2,296.88	85.3087	2,296.88	86.3707	2,296.88	85.7939	2,296.88	85.4749	2,296.88	82.5137	2,296.88	82.0255	2,296.88	75.9656	2,296.88	76.4377	2,296.88	76.0283	2,296.88	60.2762	2,296.88	74.5036	2,296.88	76.6809	2,296.88	67.9016	2,296.88	75.7285	2,296.88	61.8047	2,296.88	66.235	2,296.88	63.192	2,296.88	68.7714	2,296.88	67.926	2,296.88	71.4215	2,296.88	69.3988	2,296.88	69.9938	2,296.88	69.8937	2,296.88	67.1176	2,296.88	68.214
2,378.91	90.082	2,378.91	89.7849	2,378.91	89.1795	2,378.91	89.5006	2,378.91	88.5789	2,378.91	89.2344	2,378.91	89.4311	2,378.91	86.969	2,378.91	88.6862	2,378.91	86.3995	2,378.91	87.4159	2,378.91	86.2046	2,378.91	86.3616	2,378.91	85.583	2,378.91	86.7196	2,378.91	82.4733	2,378.91	80.591	2,378.91	76.103	2,378.91	75.8213	2,378.91	70.8531	2,378.91	71.8648	2,378.91	72.6759	2,378.91	52.5276	2,378.91	66.8908	2,378.91	73.4564	2,378.91	66.1028	2,378.91	68.7738	2,378.91	57.5338	2,378.91	66.6338	2,378.91	68.4342	2,378.91	69.1556	2,378.91	71.9645	2,378.91	68.7038	2,378.91	66.5111	2,378.91	69.3725	2,378.91	68.7679
2,462.4	91.1298	2,462.4	90.5095	2,462.4	90.3808	2,462.4	89.4841	2,462.4	89.4498	2,462.4	90.3037	2,462.4	87.5473	2,462.4	87.6436	2,462.4	88.0418	2,462.4	85.8603	2,462.4	86.799	2,462.4	83.8672	2,462.4	86.4955	2,462.4	83.0519	2,462.4	84.6661	2,462.4	82.2729	2,462.4	80.3537	2,462.4	73.2005	2,462.4	76.9386	2,462.4	76.8355	2,462.4	72.2613	2,462.4	63.9352	2,462.4	75.4845	2,462.4	71.9955	2,462.4	67.4928	2,462.4	65.5963	2,462.4	61.5785	2,462.4	56.7257	2,462.4	69.131	2,462.4	70.0467	2,462.4	65.8954	2,462.4	57.2188	2,462.4	69.2924	2,462.4	68.0928	2,462.4	64.1897	2,462.4	69.3204
2,548.83	90.6808	2,548.83	90.4982	2,548.83	90.4092	2,548.83	90.1947	2,548.83	90.2759	2,548.83	88.213	2,548.83	87.903	2,548.83	87.4568	2,548.83	86.6245	2,548.83	84.5691	2,548.83	85.8787	2,548.83	83.4945	2,548.83	84.7436	2,548.83	82.9089	2,548.83	82.767	2,548.83	77.7554	2,548.83	79.9062	2,548.83	75.1267	2,548.83	78.1159	2,548.83	70.5689	2,548.83	68.1035	2,548.83	72.8384	2,548.83	73.2155	2,548.83	70.9892	2,548.83	72.1969	2,548.83	65.3409	2,548.83	60.8746	2,548.83	54.0458	2,548.83	67.5266	2,548.83	61.7632	2,548.83	63.6916	2,548.83	64.6253	2,548.83	69.0419	2,548.83	69.5986	2,548.83	69.0985	2,548.83	69.4491
2,639.65	89.8129	2,639.65	88.9876	2,639.65	89.6763	2,639.65	89.7549	2,639.65	90.635	2,639.65	89.2455	2,639.65	89.5857	2,639.65	87.6175	2,639.65	85.5399	2,639.65	86.4272	2,639.65	85.9571	2,639.65	82.9663	2,639.65	84.6927	2,639.65	82.6542	2,639.65	83.1158	2,639.65	81.135	2,639.65	78.9356	2,639.65	78.2808	2,639.65	78.3632	2,639.65	76.8819	2,639.65	63.0871	2,639.65	66.6137	2,639.65	67.1878	2,639.65	59.7982	2,639.65	74.3805	2,639.65	68.2397	2,639.65	67.8214	2,639.65	67.0156	2,639.65	56.3311	2,639.65	59.5934	2,639.65	69.0103	2,639.65	66.6235	2,639.65	67.9268	2,639.65	69.5449	2,639.65	69.3277	2,639.65	60.624
2,731.93	89.3708	2,731.93	88.5744	2,731.93	89.079	2,731.93	89.3723	2,731.93	89.5541	2,731.93	89.5593	2,731.93	90.4984	2,731.93	85.1368	2,731.93	85.2012	2,731.93	85.5146	2,731.93	86.4662	2,731.93	83.253	2,731.93	84.7077	2,731.93	84.1587	2,731.93	83.9774	2,731.93	77.4458	2,731.93	79.1691	2,731.93	76.8412	2,731.93	75.2765	2,731.93	67.3827	2,731.93	54.0596	2,731.93	72.591	2,731.93	69.0081	2,731.93	67.1112	2,731.93	69.0628	2,731.93	58.7249	2,731.93	64.08	2,731.93	69.7452	2,731.93	64.4419	2,731.93	66.1928	2,731.93	69.4239	2,731.93	68.6022	2,731.93	67.1499	2,731.93	66.1485	2,731.93	68.3863	2,731.93	64.8374
2,828.61	90.4693	2,828.61	90.0639	2,828.61	89.7733	2,828.61	88.8321	2,828.61	89.2584	2,828.61	89.6576	2,828.61	90.1391	2,828.61	85.4531	2,828.61	85.2922	2,828.61	87.5724	2,828.61	86.1859	2,828.61	81.6622	2,828.61	83.6176	2,828.61	82.7235	2,828.61	83.1254	2,828.61	79.4122	2,828.61	80.7417	2,828.61	76.6705	2,828.61	59.266	2,828.61	75.338	2,828.61	65.0161	2,828.61	66.9434	2,828.61	69.3896	2,828.61	69.1102	2,828.61	71.2949	2,828.61	61.375	2,828.61	65.8949	2,828.61	62.3826	2,828.61	55.1423	2,828.61	63.5608	2,828.61	65.2833	2,828.61	69.9033	2,828.61	65.504	2,828.61	66.8385	2,828.61	67.5856	2,828.61	63.6688
2,928.22	91.0546	2,928.22	91.2433	2,928.22	90.8286	2,928.22	90.5607	2,928.22	89.8173	2,928.22	89.9165	2,928.22	90.1857	2,928.22	86.7477	2,928.22	86.7782	2,928.22	85.4713	2,928.22	86.7128	2,928.22	81.4057	2,928.22	83.2358	2,928.22	84.3652	2,928.22	82.1974	2,928.22	75.9446	2,928.22	80.9027	2,928.22	74.0228	2,928.22	71.9805	2,928.22	67.4688	2,928.22	72.8032	2,928.22	74.3999	2,928.22	74.1363	2,928.22	71.6921	2,928.22	70.0678	2,928.22	68.1336	2,928.22	57.0454	2,928.22	60.3321	2,928.22	67.3276	2,928.22	61.3712	2,928.22	67.5688	2,928.22	61.4141	2,928.22	65.7696	2,928.22	65.5932	2,928.22	66.0136	2,928.22	57.3727
3,030.76	91.0085	3,030.76	91.5839	3,030.76	91.4868	3,030.76	90.8531	3,030.76	90.409	3,030.76	88.8579	3,030.76	88.3531	3,030.76	87.902	3,030.76	87.9221	3,030.76	84.7315	3,030.76	85.5408	3,030.76	81.6344	3,030.76	83.2513	3,030.76	81.3591	3,030.76	82.3922	3,030.76	79.4704	3,030.76	79.0583	3,030.76	76.3235	3,030.76	77.0304	3,030.76	71.4702	3,030.76	72.4934	3,030.76	69.86	3,030.76	72.7301	3,030.76	63.6378	3,030.76	65.2575	3,030.76	59.8257	3,030.76	62.8953	3,030.76	59.3445	3,030.76	60.0983	3,030.76	64.9804	3,030.76	68.2113	3,030.76	62.4754	3,030.76	64.5242	3,030.76	67.0205	3,030.76	64.989	3,030.76	62.9765
3,137.7	90.892	3,137.7	91.258	3,137.7	91.4526	3,137.7	90.4477	3,137.7	90.4819	3,137.7	89.8016	3,137.7	89.1026	3,137.7	87.623	3,137.7	86.2274	3,137.7	83.8709	3,137.7	85.4785	3,137.7	83.0683	3,137.7	81.4681	3,137.7	82.9132	3,137.7	82.2658	3,137.7	76.7473	3,137.7	79.2757	3,137.7	75.5493	3,137.7	76.016	3,137.7	61.4176	3,137.7	66.7395	3,137.7	64.9711	3,137.7	69.9052	3,137.7	70.2374	3,137.7	61.8	3,137.7	62.1965	3,137.7	55.3721	3,137.7	47.3134	3,137.7	63.9909	3,137.7	66.3964	3,137.7	68.2878	3,137.7	65.6903	3,137.7	62.6814	3,137.7	68.6838	3,137.7	66.115	3,137.7	63.7039
3,249.02	91.4269	3,249.02	90.6641	3,249.02	91.0037	3,249.02	89.831	3,249.02	90.2682	3,249.02	90.2279	3,249.02	90.6999	3,249.02	86.7008	3,249.02	85.5086	3,249.02	85.598	3,249.02	85.3879	3,249.02	81.3441	3,249.02	81.5546	3,249.02	82.5635	3,249.02	84.5102	3,249.02	80.7078	3,249.02	80.0751	3,249.02	75.2223	3,249.02	75.9242	3,249.02	73.7603	3,249.02	65.3346	3,249.02	57.8315	3,249.02	68.2612	3,249.02	67.8595	3,249.02	58.7802	3,249.02	61.2327	3,249.02	64.2361	3,249.02	63.0795	3,249.02	60.3358	3,249.02	65.3102	3,249.02	68.257	3,249.02	65.0151	3,249.02	63.9082	3,249.02	68.6564	3,249.02	66.8249	3,249.02	59.7842
3,363.28	92.164	3,363.28	90.9635	3,363.28	91.1873	3,363.28	90.0039	3,363.28	89.8626	3,363.28	88.7778	3,363.28	89.8182	3,363.28	87.4687	3,363.28	86.0716	3,363.28	83.6332	3,363.28	84.8104	3,363.28	82.1756	3,363.28	82.6866	3,363.28	81.884	3,363.28	84.5926	3,363.28	78.5472	3,363.28	79.0752	3,363.28	75.6837	3,363.28	75.9256	3,363.28	73.4391	3,363.28	65.1105	3,363.28	63.339	3,363.28	63.1004	3,363.28	68.7558	3,363.28	64.8184	3,363.28	68.1747	3,363.28	59.9582	3,363.28	59.5025	3,363.28	61.4915	3,363.28	51.6785	3,363.28	66.5274	3,363.28	68.5971	3,363.28	62.0671	3,363.28	64.1079	3,363.28	65.0353	3,363.28	62.5358
3,481.93	92.2508	3,481.93	91.8354	3,481.93	91.1779	3,481.93	91.0167	3,481.93	90.7877	3,481.93	88.7489	3,481.93	88.8995	3,481.93	87.9009	3,481.93	87.4478	3,481.93	84.0267	3,481.93	83.0417	3,481.93	83.2074	3,481.93	83.4866	3,481.93	83.1158	3,481.93	82.5262	3,481.93	74.2861	3,481.93	77.8422	3,481.93	74.6849	3,481.93	74.9377	3,481.93	73.159	3,481.93	64.4357	3,481.93	62.1558	3,481.93	67.4416	3,481.93	64.9893	3,481.93	58.9052	3,481.93	65.5802	3,481.93	60.1754	3,481.93	67.6476	3,481.93	64.0082	3,481.93	66.3122	3,481.93	65.6931	3,481.93	65.4279	3,481.93	64.5955	3,481.93	60.5271	3,481.93	64.7684	3,481.93	59.1437
3,604.98	92.5214	3,604.98	91.5316	3,604.98	90.8298	3,604.98	90.9415	3,604.98	90.3483	3,604.98	88.6967	3,604.98	88.707	3,604.98	88.0736	3,604.98	87.2708	3,604.98	84.1056	3,604.98	84.1456	3,604.98	82.538	3,604.98	83.4097	3,604.98	81.2504	3,604.98	81.5252	3,604.98	79.2335	3,604.98	76.5924	3,604.98	74.7202	3,604.98	72.6848	3,604.98	67.4553	3,604.98	68.1178	3,604.98	72.5421	3,604.98	58.9459	3,604.98	66.4582	3,604.98	61.7231	3,604.98	68.5577	3,604.98	64.3486	3,604.98	66.2151	3,604.98	61.133	3,604.98	67.4222	3,604.98	62.3461	3,604.98	61.4282	3,604.98	66.4418	3,604.98	65.2671	3,604.98	62.7757	3,604.98	63.9376
3,732.42	92.73	3,732.42	92.2997	3,732.42	92.6381	3,732.42	90.0619	3,732.42	89.9334	3,732.42	88.9294	3,732.42	88.8153	3,732.42	88.2773	3,732.42	87.6941	3,732.42	83.313	3,732.42	82.2995	3,732.42	81.2249	3,732.42	83.0312	3,732.42	80.8828	3,732.42	80.3884	3,732.42	77.9541	3,732.42	75.1146	3,732.42	73.9067	3,732.42	69.7941	3,732.42	64.6791	3,732.42	67.0061	3,732.42	67.4001	3,732.42	67.3599	3,732.42	66.1068	3,732.42	57.3607	3,732.42	69.4633	3,732.42	63.7322	3,732.42	59.1676	3,732.42	60.3734	3,732.42	63.5427	3,732.42	64.4337	3,732.42	68.762	3,732.42	64.9661	3,732.42	63.379	3,732.42	65.1303	3,732.42	67.034
3,864.26	91.7146	3,864.26	91.9869	3,864.26	92.0917	3,864.26	89.7682	3,864.26	90.7363	3,864.26	88.2232	3,864.26	88.3257	3,864.26	88.376	3,864.26	88.2017	3,864.26	83.0104	3,864.26	82.6949	3,864.26	82.802	3,864.26	82.8692	3,864.26	80.9053	3,864.26	79.1805	3,864.26	78.2791	3,864.26	74.4932	3,864.26	71.2048	3,864.26	70.0567	3,864.26	71.1457	3,864.26	65.0067	3,864.26	70.9311	3,864.26	68.933	3,864.26	65.3337	3,864.26	62.0692	3,864.26	67.5529	3,864.26	64.4722	3,864.26	65.6865	3,864.26	63.3961	3,864.26	61.6079	3,864.26	65.8438	3,864.26	66.2845	3,864.26	64.4254	3,864.26	62.642	3,864.26	66.2257	3,864.26	65.093
4,000.49	91.8428	4,000.49	91.3159	4,000.49	90.8819	4,000.49	90.3384	4,000.49	89.9592	4,000.49	87.6952	4,000.49	88.578	4,000.49	87.8876	4,000.49	87.121	4,000.49	84.1702	4,000.49	84.4458	4,000.49	81.7004	4,000.49	82.0786	4,000.49	79.8647	4,000.49	77.9887	4,000.49	79.4299	4,000.49	76.7303	4,000.49	71.0657	4,000.49	60.5566	4,000.49	64.2476	4,000.49	64.9731	4,000.49	72.4535	4,000.49	61.6885	4,000.49	69.1809	4,000.49	66.9496	4,000.49	69.7401	4,000.49	65.0223	4,000.49	63.596	4,000.49	61.5452	4,000.49	68.6012	4,000.49	62.6978	4,000.49	26.1759	4,000.49	62.4165	4,000.49	63.8547	4,000.49	65.6944	4,000.49	60.6535
4,141.11	92.1716	4,141.11	91.7661	4,141.11	91.7877	4,141.11	89.8684	4,141.11	90.1251	4,141.11	88.3608	4,141.11	89.0014	4,141.11	86.5595	4,141.11	87.5116	4,141.11	84.7677	4,141.11	84.7831	4,141.11	81.7038	4,141.11	81.2713	4,141.11	78.7605	4,141.11	74.513	4,141.11	78.0451	4,141.11	72.926	4,141.11	73.5215	4,141.11	72.7572	4,141.11	63.21	4,141.11	67.2068	4,141.11	66.625	4,141.11	58.9756	4,141.11	68.2869	4,141.11	67.6907	4,141.11	61.7679	4,141.11	64.7359	4,141.11	67.217	4,141.11	56.7282	4,141.11	62.1682	4,141.11	64.3051	4,141.11	67.3192	4,141.11	62.0072	4,141.11	60.2109	4,141.11	64.9717	4,141.11	61.9867
4,287.6	92.0061	4,287.6	91.5393	4,287.6	91.6629	4,287.6	90.4533	4,287.6	90.3508	4,287.6	87.9286	4,287.6	87.6492	4,287.6	86.7403	4,287.6	87.8716	4,287.6	84.8644	4,287.6	83.377	4,287.6	79.8401	4,287.6	78.4851	4,287.6	80.9366	4,287.6	79.4762	4,287.6	75.3686	4,287.6	78.5669	4,287.6	67.2653	4,287.6	76.7512	4,287.6	65.4017	4,287.6	67.0825	4,287.6	71.2302	4,287.6	35.1666	4,287.6	60.1234	4,287.6	52.3876	4,287.6	67.1749	4,287.6	56.9378	4,287.6	67.4039	4,287.6	56.1812	4,287.6	62.8295	4,287.6	65.1531	4,287.6	63.784	4,287.6	57.7958	4,287.6	63.5678	4,287.6	60.3056	4,287.6	60.591
4,438.48	91.7982	4,438.48	90.9158	4,438.48	91.6577	4,438.48	89.7935	4,438.48	90.5105	4,438.48	88.5438	4,438.48	88.1177	4,438.48	86.6321	4,438.48	86.3949	4,438.48	83.8038	4,438.48	84.2784	4,438.48	81.2807	4,438.48	79.318	4,438.48	79.6413	4,438.48	81.9357	4,438.48	76.1017	4,438.48	78.8458	4,438.48	66.1898	4,438.48	74.4874	4,438.48	65.5986	4,438.48	66.0203	4,438.48	68.1246	4,438.48	54.3723	4,438.48	61.6893	4,438.48	62.2119	4,438.48	65.5902	4,438.48	59.1749	4,438.48	57.9189	4,438.48	56.9908	4,438.48	46.3345	4,438.48	58.7579	4,438.48	61.9017	4,438.48	60.5886	4,438.48	49.6385	4,438.48	60.0511	4,438.48	63.9652
4,595.21	91.5527	4,595.21	91.4438	4,595.21	91.1477	4,595.21	90.1137	4,595.21	90.4893	4,595.21	87.9066	4,595.21	88.5737	4,595.21	85.5586	4,595.21	85.7905	4,595.21	83.4413	4,595.21	84.2013	4,595.21	79.3962	4,595.21	78.8683	4,595.21	76.6116	4,595.21	81.3846	4,595.21	76.1377	4,595.21	72.6664	4,595.21	67.0885	4,595.21	68.1759	4,595.21	58.384	4,595.21	59.976	4,595.21	68.3152	4,595.21	55.4288	4,595.21	59.4524	4,595.21	62.0418	4,595.21	61.9339	4,595.21	46.6821	4,595.21	67.5032	4,595.21	58.4349	4,595.21	67.4073	4,595.21	58.4542	4,595.21	55.8669	4,595.21	60.073	4,595.21	62.0992	4,595.21	60.1348	4,595.21	56.0084
4,756.35	92.2133	4,756.35	91.4557	4,756.35	91.187	4,756.35	90.8772	4,756.35	90.1519	4,756.35	88.6192	4,756.35	88.4231	4,756.35	85.98	4,756.35	85.6463	4,756.35	83.873	4,756.35	82.5713	4,756.35	79.2495	4,756.35	78.3068	4,756.35	78.4319	4,756.35	76.9256	4,756.35	74.2246	4,756.35	67.9549	4,756.35	57.0423	4,756.35	58.9777	4,756.35	66.3015	4,756.35	56.8449	4,756.35	67.1239	4,756.35	57.4038	4,756.35	62.0977	4,756.35	56.1842	4,756.35	65.1768	4,756.35	55.0586	4,756.35	67.1961	4,756.35	55.441	4,756.35	55.9738	4,756.35	60.4754	4,756.35	58.5018	4,756.35	55.2492	4,756.35	59.5745	4,756.35	60.7934	4,756.35	57.0385
4,924.8	91.9168	4,924.8	91.7597	4,924.8	91.9077	4,924.8	90.138	4,924.8	89.8799	4,924.8	88.1453	4,924.8	87.3894	4,924.8	85.7763	4,924.8	84.7786	4,924.8	81.5002	4,924.8	80.2259	4,924.8	77.836	4,924.8	78.9646	4,924.8	73.9604	4,924.8	74.2598	4,924.8	71.8303	4,924.8	70.545	4,924.8	64.1074	4,924.8	68.5462	4,924.8	60.3309	4,924.8	47.5158	4,924.8	67.7817	4,924.8	36.1154	4,924.8	62.7632	4,924.8	60.4775	4,924.8	60.1868	4,924.8	54.2911	4,924.8	58.133	4,924.8	56.1812	4,924.8	56.4792	4,924.8	57.4651	4,924.8	56.6729	4,924.8	55.5117	4,924.8	55.9909	4,924.8	59.2007	4,924.8	60.4922
5,097.66	91.5759	5,097.66	91.2081	5,097.66	91.2628	5,097.66	90.5336	5,097.66	90.632	5,097.66	88.1885	5,097.66	87.1566	5,097.66	84.8021	5,097.66	84.5339	5,097.66	80.6004	5,097.66	79.8892	5,097.66	73.0831	5,097.66	76.8519	5,097.66	73.6965	5,097.66	73.1058	5,097.66	72.6575	5,097.66	73.7863	5,097.66	64.3195	5,097.66	67.5261	5,097.66	51.4085	5,097.66	43.6514	5,097.66	62.1767	5,097.66	53.1825	5,097.66	55.8657	5,097.66	60.0974	5,097.66	55.378	5,097.66	48.2911	5,097.66	62.713	5,097.66	54.9375	5,097.66	58.5196	5,097.66	53.6237	5,097.66	58.9624	5,097.66	58.3796	5,097.66	58.2395	5,097.66	57.3755	5,097.66	58.0935
5,277.83	91.8657	5,277.83	92.1726	5,277.83	91.7846	5,277.83	90.8447	5,277.83	90.46	5,277.83	88.7218	5,277.83	88.1498	5,277.83	85.6144	5,277.83	83.6052	5,277.83	79.9345	5,277.83	79.5228	5,277.83	76.1141	5,277.83	74.0504	5,277.83	74.7286	5,277.83	72.0085	5,277.83	73.5	5,277.83	69.5964	5,277.83	67.0961	5,277.83	63.197	5,277.83	66.2314	5,277.83	55.9241	5,277.83	67.157	5,277.83	58.3305	5,277.83	64.18	5,277.83	59.9197	5,277.83	63.2836	5,277.83	51.3672	5,277.83	66.576	5,277.83	55.7969	5,277.83	56.8102	5,277.83	45.8453	5,277.83	55.4205	5,277.83	59.7684	5,277.83	58.4685	5,277.83	48.5921	5,277.83	55.4879
5,463.87	92.1062	5,463.87	91.8202	5,463.87	91.7953	5,463.87	91.0442	5,463.87	90.2934	5,463.87	88.7326	5,463.87	87.7422	5,463.87	85.0527	5,463.87	84.1146	5,463.87	80.6515	5,463.87	78.6608	5,463.87	74.2984	5,463.87	72.0369	5,463.87	76.6605	5,463.87	75.1261	5,463.87	75.2549	5,463.87	68.6972	5,463.87	63.8478	5,463.87	69.295	5,463.87	62.9223	5,463.87	58.0117	5,463.87	64.7239	5,463.87	57.6555	5,463.87	62.068	5,463.87	61.3764	5,463.87	59.7041	5,463.87	55.834	5,463.87	56.8851	5,463.87	53.5851	5,463.87	47.9357	5,463.87	53.2907	5,463.87	56.2534	5,463.87	57.6294	5,463.87	59.6739	5,463.87	59.3054	5,463.87	55.9595
5,657.23	92.0657	5,657.23	91.8933	5,657.23	92.1334	5,657.23	90.8083	5,657.23	90.8234	5,657.23	88.8274	5,657.23	87.6451	5,657.23	85.5286	5,657.23	83.7474	5,657.23	81.4758	5,657.23	79.8306	5,657.23	77.2252	5,657.23	71.7712	5,657.23	76.238	5,657.23	74.7493	5,657.23	76.7449	5,657.23	73.4315	5,657.23	65.7568	5,657.23	65.4536	5,657.23	63.5174	5,657.23	58.7096	5,657.23	56.4582	5,657.23	60.8612	5,657.23	60.5252	5,657.23	43.9782	5,657.23	54.5181	5,657.23	55.2518	5,657.23	61.7554	5,657.23	57.0445	5,657.23	55.066	5,657.23	55.1695	5,657.23	57.6318	5,657.23	59.8404	5,657.23	56.3347	5,657.23	57.4809	5,657.23	57.784
5,856.45	92.1091	5,856.45	91.9807	5,856.45	91.3684	5,856.45	91.4222	5,856.45	90.8342	5,856.45	88.7339	5,856.45	87.9316	5,856.45	84.8318	5,856.45	83.3017	5,856.45	82.4415	5,856.45	81.998	5,856.45	77.0235	5,856.45	74.2981	5,856.45	76.5595	5,856.45	75.8988	5,856.45	76.2327	5,856.45	75.7142	5,856.45	64.1241	5,856.45	67.7402	5,856.45	59.5808	5,856.45	56.9988	5,856.45	60.5808	5,856.45	59.996	5,856.45	64.7427	5,856.45	55.637	5,856.45	56.5809	5,856.45	50.4461	5,856.45	63.054	5,856.45	54.8774	5,856.45	50.251	5,856.45	54.1299	5,856.45	60.4267	5,856.45	60.615	5,856.45	59.2684	5,856.45	55.4624	5,856.45	57.3468
6,062.99	92.1229	6,062.99	92.0267	6,062.99	91.98	6,062.99	90.8567	6,062.99	89.9551	6,062.99	89.1075	6,062.99	88.3204	6,062.99	84.3822	6,062.99	84.1649	6,062.99	82.1828	6,062.99	81.0527	6,062.99	75.3506	6,062.99	76.775	6,062.99	76.6212	6,062.99	77.3384	6,062.99	76.4093	6,062.99	76.4378	6,062.99	63.0241	6,062.99	67.4403	6,062.99	60.9546	6,062.99	50.181	6,062.99	61.9657	6,062.99	57.7616	6,062.99	66.9326	6,062.99	56.2646	6,062.99	54.9257	6,062.99	53.2338	6,062.99	60.5458	6,062.99	57.6801	6,062.99	52.5893	6,062.99	51.4846	6,062.99	59.8952	6,062.99	59.1155	6,062.99	59.1867	6,062.99	55.3566	6,062.99	57.5624
6,276.86	91.8948	6,276.86	91.4158	6,276.86	91.3653	6,276.86	90.8719	6,276.86	90.6844	6,276.86	88.4175	6,276.86	87.5989	6,276.86	85.238	6,276.86	84.2762	6,276.86	83.3202	6,276.86	81.7005	6,276.86	77.5229	6,276.86	76.0366	6,276.86	76.6147	6,276.86	78.1323	6,276.86	76.4117	6,276.86	78.5931	6,276.86	69.5605	6,276.86	70.3038	6,276.86	67.3827	6,276.86	63.5396	6,276.86	63.7638	6,276.86	49.8978	6,276.86	66.2909	6,276.86	55.5823	6,276.86	60.4986	6,276.86	50.5284	6,276.86	62.086	6,276.86	57.183	6,276.86	61.634	6,276.86	56.7922	6,276.86	57.3127	6,276.86	59.4579	6,276.86	60.8151	6,276.86	55.1453	6,276.86	58.8154
6,498.05	91.6455	6,498.05	91.6649	6,498.05	90.9467	6,498.05	90.646	6,498.05	90.0516	6,498.05	88.4609	6,498.05	87.8842	6,498.05	85.1312	6,498.05	84.8342	6,498.05	83.926	6,498.05	82.7708	6,498.05	75.3027	6,498.05	73.9667	6,498.05	78.4938	6,498.05	80.5883	6,498.05	77.4975	6,498.05	76.2026	6,498.05	71.2585	6,498.05	63.8393	6,498.05	66.2976	6,498.05	63.0838	6,498.05	66.6295	6,498.05	47.5308	6,498.05	66.2036	6,498.05	55.3609	6,498.05	56.3051	6,498.05	54.8905	6,498.05	65.6831	6,498.05	59.4951	6,498.05	61.7353	6,498.05	57.132	6,498.05	56.5332	6,498.05	55.7824	6,498.05	57.2459	6,498.05	56.12	6,498.05	59.91
6,726.56	91.1298	6,726.56	90.8588	6,726.56	90.8846	6,726.56	90.0115	6,726.56	89.0508	6,726.56	88.3515	6,726.56	87.6721	6,726.56	85.3857	6,726.56	85.0118	6,726.56	84.298	6,726.56	84.1046	6,726.56	79.027	6,726.56	77.2939	6,726.56	77.731	6,726.56	77.2171	6,726.56	77.1046	6,726.56	72.506	6,726.56	72.2485	6,726.56	68.4412	6,726.56	57.6355	6,726.56	51.645	6,726.56	63.1371	6,726.56	59.3088	6,726.56	66.507	6,726.56	53.273	6,726.56	60.3551	6,726.56	43.6292	6,726.56	64.1668	6,726.56	56.9141	6,726.56	44.4045	6,726.56	57.6855	6,726.56	63.6698	6,726.56	59.0361	6,726.56	62.4832	6,726.56	55.6858	6,726.56	58.9839
6,963.87	90.4694	6,963.87	90.3249	6,963.87	89.8103	6,963.87	89.1612	6,963.87	89.2777	6,963.87	88.1439	6,963.87	87.3843	6,963.87	86.3632	6,963.87	84.3858	6,963.87	84.7802	6,963.87	83.9572	6,963.87	78.7093	6,963.87	78.8578	6,963.87	77.9054	6,963.87	71.3142	6,963.87	78.8034	6,963.87	79.8033	6,963.87	71.838	6,963.87	70.7293	6,963.87	64.9588	6,963.87	63.7112	6,963.87	69.3699	6,963.87	62.0058	6,963.87	67.6804	6,963.87	58.93	6,963.87	59.1881	6,963.87	46.7314	6,963.87	68.3701	6,963.87	59.6698	6,963.87	53.1381	6,963.87	56.8454	6,963.87	56.8817	6,963.87	59.3562	6,963.87	58.1265	6,963.87	58.2735	6,963.87	61.4026
7,209.96	90.0017	7,209.96	89.7852	7,209.96	89.5022	7,209.96	89.0281	7,209.96	88.212	7,209.96	87.5946	7,209.96	87.627	7,209.96	86.1262	7,209.96	85.1244	7,209.96	84.2778	7,209.96	84.1325	7,209.96	80.0574	7,209.96	79.1979	7,209.96	77.3175	7,209.96	75.84	7,209.96	77.4485	7,209.96	80.585	7,209.96	70.9747	7,209.96	73.2257	7,209.96	58.74	7,209.96	61.7296	7,209.96	61.0186	7,209.96	57.5119	7,209.96	56.5237	7,209.96	51.5659	7,209.96	59.4446	7,209.96	54.682	7,209.96	62.2132	7,209.96	60.3458	7,209.96	61.0793	7,209.96	56.1494	7,209.96	60.7568	7,209.96	55.6355	7,209.96	61.7257	7,209.96	57.7145	7,209.96	60.9117
7,464.84	89.7102	7,464.84	89.6379	7,464.84	89.1764	7,464.84	87.9733	7,464.84	88.3342	7,464.84	87.4179	7,464.84	86.7611	7,464.84	85.484	7,464.84	84.7692	7,464.84	84.4442	7,464.84	83.3703	7,464.84	80.7665	7,464.84	77.9096	7,464.84	74.4264	7,464.84	78.9796	7,464.84	77.0488	7,464.84	78.5172	7,464.84	73.0887	7,464.84	70.4619	7,464.84	62.8143	7,464.84	64.9331	7,464.84	67.6709	7,464.84	49.1156	7,464.84	54.2093	7,464.84	56.0906	7,464.84	57.9962	7,464.84	54.5811	7,464.84	66.4173	7,464.84	63.1182	7,464.84	58.1703	7,464.84	57.615	7,464.84	60.9188	7,464.84	57.2752	7,464.84	60.4855	7,464.84	55.1673	7,464.84	56.2989
7,727.05	90.0903	7,727.05	89.4789	7,727.05	89.2686	7,727.05	88.0736	7,727.05	87.5379	7,727.05	86.6919	7,727.05	86.544	7,727.05	84.7467	7,727.05	83.7891	7,727.05	83.3406	7,727.05	83.798	7,727.05	81.0002	7,727.05	80.0588	7,727.05	75.7846	7,727.05	78.0479	7,727.05	76.6777	7,727.05	74.1988	7,727.05	69.3318	7,727.05	61.9971	7,727.05	62.8622	7,727.05	54.7084	7,727.05	66.1753	7,727.05	57.9385	7,727.05	52.7202	7,727.05	57.5203	7,727.05	55.1399	7,727.05	53.6358	7,727.05	63.3606	7,727.05	61.0033	7,727.05	48.3935	7,727.05	54.7707	7,727.05	57.4859	7,727.05	57.9015	7,727.05	60.681	7,727.05	55.9979	7,727.05	59.1395
7,999.51	90.24	7,999.51	89.3481	7,999.51	89.1878	7,999.51	87.7411	7,999.51	87.3563	7,999.51	85.4081	7,999.51	85.2987	7,999.51	84.4346	7,999.51	83.8964	7,999.51	83.8025	7,999.51	82.6815	7,999.51	80.9777	7,999.51	81.4094	7,999.51	73.0391	7,999.51	69.9713	7,999.51	75.9296	7,999.51	75.4214	7,999.51	70.3461	7,999.51	66.3761	7,999.51	56.9956	7,999.51	60.466	7,999.51	61.4632	7,999.51	59.2308	7,999.51	63.8053	7,999.51	50.6083	7,999.51	38.0044	7,999.51	50.9928	7,999.51	62.252	7,999.51	58.6368	7,999.51	58.5336	7,999.51	57.713	7,999.51	56.4065	7,999.51	47.7017	7,999.51	56.1792	7,999.51	55.8866	7,999.51	53.3546
8,282.23	90.8878	8,282.23	90.1201	8,282.23	89.2659	8,282.23	87.6442	8,282.23	87.4565	8,282.23	85.4566	8,282.23	84.9812	8,282.23	83.0707	8,282.23	82.8759	8,282.23	82.2129	8,282.23	81.8085	8,282.23	80.5384	8,282.23	81.0149	8,282.23	74.3547	8,282.23	70.8615	8,282.23	74.9651	8,282.23	76.2902	8,282.23	67.89	8,282.23	63.1474	8,282.23	50.2707	8,282.23	61.0243	8,282.23	55.312	8,282.23	55.2739	8,282.23	65.1341	8,282.23	50.3464	8,282.23	49.9545	8,282.23	52.1498	8,282.23	61.0631	8,282.23	59.4647	8,282.23	60.1308	8,282.23	55.0465	8,282.23	56.9859	8,282.23	52.5791	8,282.23	56.9251	8,282.23	52.7189	8,282.23	54.563
8,573.73	91.0185	8,573.73	89.986	8,573.73	90.0256	8,573.73	87.7688	8,573.73	87.1201	8,573.73	84.4804	8,573.73	84.1038	8,573.73	82.468	8,573.73	82.9425	8,573.73	82.1189	8,573.73	83.4288	8,573.73	80.4808	8,573.73	78.5815	8,573.73	73.389	8,573.73	75.3902	8,573.73	74.4676	8,573.73	75.0017	8,573.73	69.4005	8,573.73	59.9808	8,573.73	60.8943	8,573.73	58.6753	8,573.73	58.1017	8,573.73	51.5028	8,573.73	64.0943	8,573.73	52.4611	8,573.73	54.7633	8,573.73	47.904	8,573.73	49.2659	8,573.73	59.0422	8,573.73	56.52	8,573.73	54.8433	8,573.73	50.0623	8,573.73	49.8123	8,573.73	53.5579	8,573.73	54.6546	8,573.73	52.1027
8,876.95	91.4229	8,876.95	90.1597	8,876.95	89.7987	8,876.95	87.8298	8,876.95	87.5335	8,876.95	84.45	8,876.95	84.2941	8,876.95	82.3177	8,876.95	82.5771	8,876.95	82.5837	8,876.95	82.478	8,876.95	79.3069	8,876.95	77.1613	8,876.95	73.4112	8,876.95	74.0796	8,876.95	73.4614	8,876.95	73.7644	8,876.95	65.8787	8,876.95	61.3156	8,876.95	58.4078	8,876.95	51.8884	8,876.95	54.9111	8,876.95	55.9927	8,876.95	62.3102	8,876.95	43.3426	8,876.95	55.8936	8,876.95	49.9447	8,876.95	52.8684	8,876.95	59.7202	8,876.95	53.3172	8,876.95	53.4079	8,876.95	51.9075	8,876.95	50.1704	8,876.95	51.37	8,876.95	50.9023	8,876.95	51.7107
9,188.96	91.4049	9,188.96	90.3013	9,188.96	90.1934	9,188.96	87.8586	9,188.96	87.6228	9,188.96	84.6596	9,188.96	84.909	9,188.96	82.6176	9,188.96	82.7991	9,188.96	80.5268	9,188.96	81.2354	9,188.96	77.3825	9,188.96	75.7806	9,188.96	70.5852	9,188.96	68.4791	9,188.96	69.5599	9,188.96	71.0355	9,188.96	62.7671	9,188.96	61.0321	9,188.96	54.6593	9,188.96	54.5893	9,188.96	48.1452	9,188.96	49.3038	9,188.96	52.5368	9,188.96	42.8222	9,188.96	62.849	9,188.96	49.4324	9,188.96	55.7395	9,188.96	51.4755	9,188.96	43.047	9,188.96	48.8569	9,188.96	44.256	9,188.96	54.0422	9,188.96	48.4847	9,188.96	45.4066	9,188.96	49.5676
9,514.16	91.4529	9,514.16	90.3169	9,514.16	90.0294	9,514.16	87.8567	9,514.16	87.9339	9,514.16	85.2146	9,514.16	85.7096	9,514.16	82.7682	9,514.16	83.0983	9,514.16	80.7523	9,514.16	79.8505	9,514.16	75.7319	9,514.16	75.2377	9,514.16	68.6984	9,514.16	65.1341	9,514.16	68.5408	9,514.16	70.4346	9,514.16	63.5674	9,514.16	58.2822	9,514.16	49.4713	9,514.16	54.7295	9,514.16	47.7742	9,514.16	55.6582	9,514.16	45.9446	9,514.16	46.4073	9,514.16	62.9413	9,514.16	51.369	9,514.16	58.4425	9,514.16	54.5669	9,514.16	49.0904	9,514.16	54.6501	9,514.16	54.1665	9,514.16	52.235	9,514.16	52.5725	9,514.16	43.6158	9,514.16	47.9328
9,849.61	90.8429	9,849.61	89.6254	9,849.61	89.5429	9,849.61	87.8642	9,849.61	87.6456	9,849.61	85.6977	9,849.61	86.226	9,849.61	83.6747	9,849.61	83.5735	9,849.61	80.5768	9,849.61	81.5179	9,849.61	75.6114	9,849.61	76.6877	9,849.61	68.422	9,849.61	69.9039	9,849.61	71.0011	9,849.61	72.6376	9,849.61	65.875	9,849.61	60.3262	9,849.61	55.2347	9,849.61	55.4702	9,849.61	55.1787	9,849.61	47.0508	9,849.61	55.6231	9,849.61	41.6996	9,849.61	59.6825	9,849.61	50.1286	9,849.61	54.1358	9,849.61	54.9337	9,849.61	56.7394	9,849.61	56.3815	9,849.61	55.6422	9,849.61	55.2467	9,849.61	49.6749	9,849.61	53.0962	9,849.61	47.301
10,196.8	90.0481	10,196.8	89.1807	10,196.8	89.0679	10,196.8	87.8886	10,196.8	87.6022	10,196.8	86.0932	10,196.8	86.256	10,196.8	83.4681	10,196.8	83.1252	10,196.8	79.8325	10,196.8	81.4809	10,196.8	76.9492	10,196.8	77.3835	10,196.8	69.2881	10,196.8	72.0124	10,196.8	71.9417	10,196.8	73.887	10,196.8	68.1632	10,196.8	66.5728	10,196.8	38.8478	10,196.8	51.3074	10,196.8	59.3616	10,196.8	53.8382	10,196.8	52.9508	10,196.8	47.266	10,196.8	62.7754	10,196.8	54.461	10,196.8	42.5146	10,196.8	58.5155	10,196.8	50.7945	10,196.8	59.1605	10,196.8	52.5709	10,196.8	57.1794	10,196.8	51.8655	10,196.8	50.5266	10,196.8	53.6275
10,555.7	88.9676	10,555.7	88.7149	10,555.7	88.6458	10,555.7	87.9145	10,555.7	87.5274	10,555.7	86.2839	10,555.7	86.253	10,555.7	83.3688	10,555.7	83.4417	10,555.7	80.0753	10,555.7	81.3287	10,555.7	77.3901	10,555.7	76.5006	10,555.7	69.6918	10,555.7	72.3938	10,555.7	71.0296	10,555.7	71.9135	10,555.7	65.9844	10,555.7	59.7058	10,555.7	54.6163	10,555.7	53.8606	10,555.7	63.6554	10,555.7	51.6348	10,555.7	60.8388	10,555.7	50.7808	10,555.7	51.0325	10,555.7	52.755	10,555.7	52.3442	10,555.7	53.151	10,555.7	48.6945	10,555.7	56.6196	10,555.7	53.6183	10,555.7	56.7979	10,555.7	49.0414	10,555.7	55.7861	10,555.7	51.2767
10,927.7	87.9256	10,927.7	88.3447	10,927.7	88.2694	10,927.7	87.6502	10,927.7	87.4051	10,927.7	86.0871	10,927.7	86.0385	10,927.7	83.6416	10,927.7	83.4351	10,927.7	80.5324	10,927.7	80.9821	10,927.7	77.9905	10,927.7	76.0772	10,927.7	70.2288	10,927.7	72.1194	10,927.7	70.9257	10,927.7	70.4605	10,927.7	66.9538	10,927.7	63.0907	10,927.7	60.1996	10,927.7	56.2619	10,927.7	66.3463	10,927.7	58.3096	10,927.7	62.3951	10,927.7	54.1584	10,927.7	58.376	10,927.7	45.8609	10,927.7	54.7258	10,927.7	52.5237	10,927.7	55.5749	10,927.7	57.2255	10,927.7	55.1564	10,927.7	57.1116	10,927.7	53.4999	10,927.7	53.6639	10,927.7	53.642
11,313	88.5741	11,313	88.9977	11,313	88.6143	11,313	87.5699	11,313	87.1874	11,313	85.7676	11,313	85.3297	11,313	83.3429	11,313	83.1065	11,313	79.9466	11,313	80.8784	11,313	76.5534	11,313	74.8295	11,313	71.0089	11,313	70.9476	11,313	68.0089	11,313	70.2388	11,313	66.6107	11,313	59.9577	11,313	54.658	11,313	57.5378	11,313	63.5938	11,313	53.0968	11,313	57.6404	11,313	50.5224	11,313	62.4151	11,313	40.3872	11,313	60.1729	11,313	47.237	11,313	48.4928	11,313	53.3448	11,313	54.0521	11,313	55.1519	11,313	53.585	11,313	56.8741	11,313	50.3531
11,712.9	89.0379	11,712.9	89.4271	11,712.9	89.0221	11,712.9	87.7895	11,712.9	87.1062	11,712.9	85.9325	11,712.9	85.1252	11,712.9	83.3981	11,712.9	83.1123	11,712.9	79.6974	11,712.9	81.023	11,712.9	76.3706	11,712.9	74.6035	11,712.9	70.7927	11,712.9	70.0873	11,712.9	66.9079	11,712.9	66.7143	11,712.9	63.7819	11,712.9	62.248	11,712.9	45.3578	11,712.9	45.979	11,712.9	57.7189	11,712.9	50.4899	11,712.9	44.1664	11,712.9	47.9636	11,712.9	62.9283	11,712.9	41.3804	11,712.9	60.4182	11,712.9	44.275	11,712.9	42.9905	11,712.9	49.5755	11,712.9	52.7535	11,712.9	52.2155	11,712.9	47.9566	11,712.9	53.1028	11,712.9	47.802
12,126	88.8378	12,126	89.1167	12,126	88.7468	12,126	87.8518	12,126	87.267	12,126	85.9313	12,126	85.53	12,126	83.6397	12,126	83.3293	12,126	79.7522	12,126	79.6836	12,126	75.5944	12,126	69.1887	12,126	69.706	12,126	67.6471	12,126	65.6957	12,126	62.7029	12,126	65.2923	12,126	60.2484	12,126	44.3198	12,126	49.7662	12,126	44.8286	12,126	46.4454	12,126	50.8785	12,126	37.4778	12,126	61.3173	12,126	41.2972	12,126	57.2562	12,126	44.4083	12,126	53.3557	12,126	43.0918	12,126	42.0138	12,126	54.0469	12,126	48.8543	12,126	56.1446	12,126	50.8565
12,553.7	87.4679	12,553.7	87.4046	12,553.7	88.019	12,553.7	86.2929	12,553.7	87.7716	12,553.7	84.8575	12,553.7	86.5499	12,553.7	83.3717	12,553.7	83.5989	12,553.7	78.4571	12,553.7	77.9656	12,553.7	74.6857	12,553.7	72.2712	12,553.7	69.8208	12,553.7	65.7239	12,553.7	64.1896	12,553.7	64.8718	12,553.7	59.9723	12,553.7	59.7134	12,553.7	42.8918	12,553.7	49.6643	12,553.7	52.8631	12,553.7	46.9333	12,553.7	41.3298	12,553.7	32.2259	12,553.7	52.857	12,553.7	43.6774	12,553.7	55.3799	12,553.7	48.9112	12,553.7	48.0356	12,553.7	39.1268	12,553.7	54.2737	12,553.7	50.1267	12,553.7	51.9867	12,553.7	54.1717	12,553.7	49.3175
12,996.1	86.4077	12,996.1	85.7883	12,996.1	86.897	12,996.1	84.9264	12,996.1	86.9788	12,996.1	83.7851	12,996.1	85.8195	12,996.1	81.7776	12,996.1	82.3409	12,996.1	76.4601	12,996.1	76.7351	12,996.1	74.3695	12,996.1	75.7663	12,996.1	70.3928	12,996.1	68.871	12,996.1	64.6675	12,996.1	66.1396	12,996.1	64.8259	12,996.1	59.1468	12,996.1	48.1041	12,996.1	56.7715	12,996.1	55.4535	12,996.1	46.684	12,996.1	48.0807	12,996.1	48.6459	12,996.1	45.5198	12,996.1	46.2362	12,996.1	56.989	12,996.1	50.6747	12,996.1	45.4761	12,996.1	44.4606	12,996.1	54.1466	12,996.1	42.6432	12,996.1	52.894	12,996.1	55.9832	12,996.1	47.0753
13,454.6	87.9332	13,454.6	86.9734	13,454.6	86.5796	13,454.6	85.7949	13,454.6	85.5479	13,454.6	84.0857	13,454.6	84.3678	13,454.6	80.9635	13,454.6	81.4692	13,454.6	77.4571	13,454.6	78.407	13,454.6	75.3802	13,454.6	75.8944	13,454.6	71.6848	13,454.6	69.8701	13,454.6	66.5483	13,454.6	67.3621	13,454.6	61.1843	13,454.6	58.7118	13,454.6	52.0605	13,454.6	63.2304	13,454.6	60.3024	13,454.6	52.6457	13,454.6	49.0133	13,454.6	52.746	13,454.6	53.6334	13,454.6	49.0058	13,454.6	50.8085	13,454.6	49.7761	13,454.6	54.5138	13,454.6	45.2275	13,454.6	55.1969	13,454.6	37.4341	13,454.6	52.7186	13,454.6	56.7411	13,454.6	51.5855
13,929.2	89.1589	13,929.2	88.0416	13,929.2	87.452	13,929.2	86.9083	13,929.2	86.0469	13,929.2	84.9461	13,929.2	84.3026	13,929.2	81.5058	13,929.2	81.8915	13,929.2	78.871	13,929.2	80.5719	13,929.2	76.0094	13,929.2	76.6612	13,929.2	71.7441	13,929.2	67.7148	13,929.2	64.4177	13,929.2	56.5893	13,929.2	62.8231	13,929.2	59.39	13,929.2	56.8243	13,929.2	60.7514	13,929.2	63.897	13,929.2	53.8662	13,929.2	58.279	13,929.2	50.8537	13,929.2	47.4226	13,929.2	51.9911	13,929.2	51.5622	13,929.2	50.6773	13,929.2	36.3812	13,929.2	46.0546	13,929.2	50.3	13,929.2	39.8211	13,929.2	52.5752	13,929.2	54.1711	13,929.2	53.4519
14,419.9	88.9946	14,419.9	88.1207	14,419.9	87.9261	14,419.9	87.3703	14,419.9	86.8146	14,419.9	85.2397	14,419.9	84.3554	14,419.9	81.9858	14,419.9	81.7099	14,419.9	78.7625	14,419.9	79.4433	14,419.9	76.2149	14,419.9	75.0262	14,419.9	72.1272	14,419.9	69.5036	14,419.9	63.6646	14,419.9	61.7888	14,419.9	63.5082	14,419.9	59.6208	14,419.9	50.6858	14,419.9	59.8598	14,419.9	64.4239	14,419.9	52.0749	14,419.9	59.9515	14,419.9	43.7833	14,419.9	54.6635	14,419.9	48.7181	14,419.9	51.977	14,419.9	52.3503	14,419.9	48.4844	14,419.9	43.4297	14,419.9	48.8234	14,419.9	43.5412	14,419.9	52.0674	14,419.9	51.4735	14,419.9	51.129
14,928.2	88.0201	14,928.2	87.7957	14,928.2	87.6299	14,928.2	87.2043	14,928.2	86.7234	14,928.2	84.8203	14,928.2	84.1308	14,928.2	81.4357	14,928.2	81.7167	14,928.2	77.8894	14,928.2	79.3458	14,928.2	75.9824	14,928.2	74.9838	14,928.2	71.6002	14,928.2	69.7899	14,928.2	62.7285	14,928.2	55.7701	14,928.2	60.9769	14,928.2	57.6713	14,928.2	51.703	14,928.2	60.364	14,928.2	60.7819	14,928.2	32.2131	14,928.2	56.7282	14,928.2	51.0588	14,928.2	59.8871	14,928.2	49.1512	14,928.2	53.5187	14,928.2	48.8273	14,928.2	48.5341	14,928.2	36.038	14,928.2	50.5114	14,928.2	41.0387	14,928.2	48.7606	14,928.2	49.2199	14,928.2	49.8917
15,455.6	86.9459	15,455.6	87.5815	15,455.6	87.2415	15,455.6	86.8655	15,455.6	86.3936	15,455.6	84.4209	15,455.6	83.9652	15,455.6	81.0413	15,455.6	81.3212	15,455.6	77.5026	15,455.6	79.2047	15,455.6	75.5906	15,455.6	73.591	15,455.6	70.2853	15,455.6	69.6409	15,455.6	62.7245	15,455.6	58.2199	15,455.6	61.9413	15,455.6	57.6303	15,455.6	55.5746	15,455.6	64.2085	15,455.6	48.1485	15,455.6	51.7554	15,455.6	48.3198	15,455.6	48.6108	15,455.6	60.3865	15,455.6	38.4092	15,455.6	55.4026	15,455.6	42.8082	15,455.6	50.4816	15,455.6	33.6244	15,455.6	46.9119	15,455.6	40.068	15,455.6	49.5766	15,455.6	51.5085	15,455.6	48.6108
16,000.5	87.6488	16,000.5	87.9943	16,000.5	87.7834	16,000.5	86.5989	16,000.5	86.3296	16,000.5	83.8208	16,000.5	83.9335	16,000.5	80.6012	16,000.5	80.6982	16,000.5	77.8206	16,000.5	78.4722	16,000.5	75.2299	16,000.5	74.4623	16,000.5	68.7615	16,000.5	68.1432	16,000.5	61.4805	16,000.5	60.0313	16,000.5	55.535	16,000.5	56.8238	16,000.5	54.344	16,000.5	64.638	16,000.5	58.8632	16,000.5	45.8868	16,000.5	57.2881	16,000.5	40.181	16,000.5	57.86	16,000.5	43.1679	16,000.5	54.8159	16,000.5	45.6325	16,000.5	34.2969	16,000.5	40.4937	16,000.5	42.8243	16,000.5	41.5865	16,000.5	44.0075	16,000.5	53.3386	16,000.5	42.3346
16,564.5	89.2118	16,564.5	88.5794	16,564.5	88.9167	16,564.5	86.2613	16,564.5	86.4674	16,564.5	83.1909	16,564.5	83.8375	16,564.5	80.0738	16,564.5	80.1037	16,564.5	77.8758	16,564.5	77.6923	16,564.5	73.6931	16,564.5	71.642	16,564.5	67.1201	16,564.5	64.6719	16,564.5	62.9572	16,564.5	58.1027	16,564.5	54.39	16,564.5	53.3463	16,564.5	46.0896	16,564.5	64.798	16,564.5	51.4322	16,564.5	38.4682	16,564.5	54.3209	16,564.5	40.8308	16,564.5	58.5298	16,564.5	26.8587	16,564.5	53.8889	16,564.5	41.2814	16,564.5	42.8894	16,564.5	37.1436	16,564.5	34.6291	16,564.5	38.8796	16,564.5	35.1128	16,564.5	48.9561	16,564.5	35.9911
17,148.9	88.8063	17,148.9	87.9186	17,148.9	87.9893	17,148.9	85.978	17,148.9	85.7168	17,148.9	83.2514	17,148.9	83.7057	17,148.9	80.4795	17,148.9	80.6156	17,148.9	77.3484	17,148.9	77.0093	17,148.9	72.4373	17,148.9	70.2678	17,148.9	69.0547	17,148.9	61.5902	17,148.9	61.0789	17,148.9	60.6172	17,148.9	54.2165	17,148.9	57.5546	17,148.9	48.5736	17,148.9	66.385	17,148.9	59.6415	17,148.9	46.7836	17,148.9	52.218	17,148.9	44.8974	17,148.9	57.0312	17,148.9	39.3676	17,148.9	42.723	17,148.9	39.9446	17,148.9	43.2421	17,148.9	31.4615	17,148.9	40.7664	17,148.9	36.4399	17,148.9	39.5977	17,148.9	45.6028	17,148.9	29.8743
17,752.4	87.7892	17,752.4	86.4099	17,752.4	86.7098	17,752.4	85.2258	17,752.4	85.1759	17,752.4	83.0256	17,752.4	83.1504	17,752.4	80.8819	17,752.4	80.7234	17,752.4	77.0688	17,752.4	76.2235	17,752.4	71.621	17,752.4	69.1834	17,752.4	69.0115	17,752.4	62.3986	17,752.4	59.2246	17,752.4	57.5522	17,752.4	52.4912	17,752.4	56.7033	17,752.4	35.4695	17,752.4	66.5867	17,752.4	64.3674	17,752.4	49.3517	17,752.4	56.312	17,752.4	42.097	17,752.4	60.8161	17,752.4	35.9941	17,752.4	44.6718	17,752.4	35.3229	17,752.4	45.0066	17,752.4	33.3183	17,752.4	42.7353	17,752.4	37.9745	17,752.4	42.1047	17,752.4	43.3016	17,752.4	29.2612
18,379.4	87.0488	18,379.4	85.5763	18,379.4	85.9435	18,379.4	84.6575	18,379.4	84.883	18,379.4	82.7345	18,379.4	82.6877	18,379.4	80.7436	18,379.4	80.7837	18,379.4	76.8553	18,379.4	75.6478	18,379.4	72.0205	18,379.4	70.4696	18,379.4	68.2081	18,379.4	63.2644	18,379.4	58.8256	18,379.4	57.2648	18,379.4	47.4259	18,379.4	59.8724	18,379.4	53.4137	18,379.4	67.8197	18,379.4	60.7953	18,379.4	50.7033	18,379.4	53.9662	18,379.4	47.4769	18,379.4	59.8086	18,379.4	31.5185	18,379.4	52.1553	18,379.4	39.7961	18,379.4	42.9281	18,379.4	36.2436	18,379.4	28.9003	18,379.4	33.0174	18,379.4	37.019	18,379.4	35.6863	18,379.4	25.1524
19,026.9	86.6686	19,026.9	85.36	19,026.9	85.7129	19,026.9	83.9624	19,026.9	84.3456	19,026.9	82.0998	19,026.9	82.0567	19,026.9	80.3717	19,026.9	80.2619	19,026.9	76.1575	19,026.9	75.9593	19,026.9	71.5976	19,026.9	69.1092	19,026.9	67.8836	19,026.9	64.4469	19,026.9	58.0792	19,026.9	58.6628	19,026.9	45.5143	19,026.9	58.3501	19,026.9	46.9285	19,026.9	67.6492	19,026.9	54.0437	19,026.9	51.6236	19,026.9	40.737	19,026.9	45.1246	19,026.9	56.7319	19,026.9	37.7447	19,026.9	54.0546	19,026.9	43.341	19,026.9	29.2788	19,026.9	31.2299	19,026.9	28.5245	19,026.9	39.1975	19,026.9	12.952	19,026.9	40.4821	19,026.9	33.7002
19,697.8	86.0351	19,697.8	84.4214	19,697.8	84.1699	19,697.8	83.328	19,697.8	83.4509	19,697.8	81.4618	19,697.8	81.8131	19,697.8	79.831	19,697.8	79.3875	19,697.8	75.341	19,697.8	74.7781	19,697.8	71.3553	19,697.8	68.4387	19,697.8	66.9421	19,697.8	66.5436	19,697.8	57.4143	19,697.8	58.2398	19,697.8	47.5821	19,697.8	58.0681	19,697.8	36.155	19,697.8	67.8348	19,697.8	45.0262	19,697.8	53.7289	19,697.8	51.7964	19,697.8	48.854	19,697.8	59.6523	19,697.8	26.6776	19,697.8	59.1461	19,697.8	47.1493	19,697.8	43.589	19,697.8	28.9384	19,697.8	34.5117	19,697.8	33.5528	19,697.8	30.3746	19,697.8	45.2923	19,697.8	30.3446
19,999.5	85.7847	19,999.5	84.0219	19,999.5	83.5474	19,999.5	82.869	19,999.5	83.7555	19,999.5	81.4493	19,999.5	81.6365	19,999.5	78.6113	19,999.5	79.2203	19,999.5	75.9841	19,999.5	73.6085	19,999.5	71.7561	19,999.5	68.3419	19,999.5	63.7813	19,999.5	67.6746	19,999.5	64.9626	19,999.5	59.5639	19,999.5	60.3598	19,999.5	53.5224	19,999.5	45.5862	19,999.5	67.6774	19,999.5	38.9502	19,999.5	55.2748	19,999.5	56.5569	19,999.5	48.1307	19,999.5	57.6332	19,999.5	47.6695	19,999.5	61.8318	19,999.5	48.1268	19,999.5	51.7889	19,999.5	49.3792	19,999.5	47.2181	19,999.5	49.6559	19,999.5	41.6853	19,999.5	46.2938	19,999.5	42.0487
