"SPL Horizontal"																																																																							
"On-Axis"		"10°"		"-10°"		"20°"		"-20°"		"30°"		"-30°"		"40°"		"-40°"		"50°"		"-50°"		"60°"		"-60°"		"70°"		"-70°"		"80°"		"-80°"		"90°"		"-90°"		"100°"		"-100°"		"110°"		"-110°"		"120°"		"-120°"		"130°"		"-130°"		"140°"		"-140°"		"150°"		"-150°"		"160°"		"-160°"		"170°"		"-170°"		"180°"	
"Frequency / Hz"	"Sound Pressure Level / dB (re 20 µPa/V)  [2.83  V @ 1. m]"	"Frequency / Hz"	"Sound Pressure Level / dB (re 20 µPa/V)  [2.83  V @ 1. m]"	"Frequency / Hz"	"Sound Pressure Level / dB (re 20 µPa/V)  [2.83  V @ 1. m]"	"Frequency / Hz"	"Sound Pressure Level / dB (re 20 µPa/V)  [2.83  V @ 1. m]"	"Frequency / Hz"	"Sound Pressure Level / dB (re 20 µPa/V)  [2.83  V @ 1. m]"	"Frequency / Hz"	"Sound Pressure Level / dB (re 20 µPa/V)  [2.83  V @ 1. m]"	"Frequency / Hz"	"Sound Pressure Level / dB (re 20 µPa/V)  [2.83  V @ 1. m]"	"Frequency / Hz"	"Sound Pressure Level / dB (re 20 µPa/V)  [2.83  V @ 1. m]"	"Frequency / Hz"	"Sound Pressure Level / dB (re 20 µPa/V)  [2.83  V @ 1. m]"	"Frequency / Hz"	"Sound Pressure Level / dB (re 20 µPa/V)  [2.83  V @ 1. m]"	"Frequency / Hz"	"Sound Pressure Level / dB (re 20 µPa/V)  [2.83  V @ 1. m]"	"Frequency / Hz"	"Sound Pressure Level / dB (re 20 µPa/V)  [2.83  V @ 1. m]"	"Frequency / Hz"	"Sound Pressure Level / dB (re 20 µPa/V)  [2.83  V @ 1. m]"	"Frequency / Hz"	"Sound Pressure Level / dB (re 20 µPa/V)  [2.83  V @ 1. m]"	"Frequency / Hz"	"Sound Pressure Level / dB (re 20 µPa/V)  [2.83  V @ 1. m]"	"Frequency / Hz"	"Sound Pressure Level / dB (re 20 µPa/V)  [2.83  V @ 1. m]"	"Frequency / Hz"	"Sound Pressure Level / dB (re 20 µPa/V)  [2.83  V @ 1. m]"	"Frequency / Hz"	"Sound Pressure Level / dB (re 20 µPa/V)  [2.83  V @ 1. m]"	"Frequency / Hz"	"Sound Pressure Level / dB (re 20 µPa/V)  [2.83  V @ 1. m]"	"Frequency / Hz"	"Sound Pressure Level / dB (re 20 µPa/V)  [2.83  V @ 1. m]"	"Frequency / Hz"	"Sound Pressure Level / dB (re 20 µPa/V)  [2.83  V @ 1. m]"	"Frequency / Hz"	"Sound Pressure Level / dB (re 20 µPa/V)  [2.83  V @ 1. m]"	"Frequency / Hz"	"Sound Pressure Level / dB (re 20 µPa/V)  [2.83  V @ 1. m]"	"Frequency / Hz"	"Sound Pressure Level / dB (re 20 µPa/V)  [2.83  V @ 1. m]"	"Frequency / Hz"	"Sound Pressure Level / dB (re 20 µPa/V)  [2.83  V @ 1. m]"	"Frequency / Hz"	"Sound Pressure Level / dB (re 20 µPa/V)  [2.83  V @ 1. m]"	"Frequency / Hz"	"Sound Pressure Level / dB (re 20 µPa/V)  [2.83  V @ 1. m]"	"Frequency / Hz"	"Sound Pressure Level / dB (re 20 µPa/V)  [2.83  V @ 1. m]"	"Frequency / Hz"	"Sound Pressure Level / dB (re 20 µPa/V)  [2.83  V @ 1. m]"	"Frequency / Hz"	"Sound Pressure Level / dB (re 20 µPa/V)  [2.83  V @ 1. m]"	"Frequency / Hz"	"Sound Pressure Level / dB (re 20 µPa/V)  [2.83  V @ 1. m]"	"Frequency / Hz"	"Sound Pressure Level / dB (re 20 µPa/V)  [2.83  V @ 1. m]"	"Frequency / Hz"	"Sound Pressure Level / dB (re 20 µPa/V)  [2.83  V @ 1. m]"	"Frequency / Hz"	"Sound Pressure Level / dB (re 20 µPa/V)  [2.83  V @ 1. m]"	"Frequency / Hz"	"Sound Pressure Level / dB (re 20 µPa/V)  [2.83  V @ 1. m]"	"Frequency / Hz"	"Sound Pressure Level / dB (re 20 µPa/V)  [2.83  V @ 1. m]"
20.5078	43.8161	20.5078	43.5224	20.5078	43.7767	20.5078	42.8751	20.5078	43.3969	20.5078	41.8275	20.5078	42.6387	20.5078	40.3261	20.5078	41.4264	20.5078	38.4397	20.5078	39.6536	20.5078	36.9506	20.5078	37.3314	20.5078	37.7209	20.5078	35.5765	20.5078	40.4476	20.5078	37.1085	20.5078	43.3319	20.5078	40.5204	20.5078	45.7985	20.5078	43.6366	20.5078	47.8272	20.5078	46.1584	20.5078	49.4803	20.5078	48.1818	20.5078	50.8111	20.5078	49.8049	20.5078	51.8552	20.5078	51.0925	20.5078	52.6343	20.5078	52.0841	20.5078	53.1607	20.5078	52.8035	20.5078	53.4405	20.5078	53.2646	20.5078	53.4755
21.9727	49.4707	21.9727	49.293	21.9727	49.4406	21.9727	48.9028	21.9727	49.197	21.9727	48.2877	21.9727	48.723	21.9727	47.4316	21.9727	47.9869	21.9727	46.3302	21.9727	46.9397	21.9727	45.042	21.9727	45.5153	21.9727	43.8259	21.9727	43.666	21.9727	43.3025	21.9727	41.5825	21.9727	44.0313	21.9727	40.4306	21.9727	45.6728	21.9727	41.7536	21.9727	47.519	21.9727	44.3742	21.9727	49.1954	21.9727	46.8547	21.9727	50.5915	21.9727	48.8743	21.9727	51.6925	21.9727	50.4515	21.9727	52.5074	21.9727	51.645	21.9727	53.0472	21.9727	52.5018	21.9727	53.3185	21.9727	53.0542	21.9727	53.3225
23.4375	49.1481	23.4375	49.0164	23.4375	49.0349	23.4375	48.6354	23.4375	48.667	23.4375	47.9872	23.4375	48.018	23.4375	47.0442	23.4375	47.0429	23.4375	45.7865	23.4375	45.6811	23.4375	44.2761	23.4375	43.8976	23.4375	42.9047	23.4375	41.9275	23.4375	42.6763	23.4375	41.0127	23.4375	44.1425	23.4375	42.5548	23.4375	46.3872	23.4375	45.2678	23.4375	48.5733	23.4375	47.8192	23.4375	50.4463	23.4375	49.9278	23.4375	51.9787	23.4375	51.6152	23.4375	53.1922	23.4375	52.9371	23.4375	54.1102	23.4375	53.9363	23.4375	54.7495	23.4375	54.6408	23.4375	55.1198	23.4375	55.0675	23.4375	55.2258
24.9023	49.784	24.9023	49.6494	24.9023	49.6952	24.9023	49.2927	24.9023	49.3794	24.9023	48.719	24.9023	48.8324	24.9023	47.9555	24.9023	48.0617	24.9023	47.0983	24.9023	47.1232	24.9023	46.4001	24.9023	46.2103	24.9023	46.2978	24.9023	45.7645	24.9023	47.0975	24.9023	46.2832	24.9023	48.5856	24.9023	47.7146	24.9023	50.3082	24.9023	49.5299	24.9023	51.9648	24.9023	51.3192	24.9023	53.4311	24.9023	52.9121	24.9023	54.669	24.9023	54.2606	24.9023	55.6712	24.9023	55.3591	24.9023	56.4392	24.9023	56.2129	24.9023	56.9758	24.9023	56.8284	24.9023	57.2829	24.9023	57.2101	24.9023	57.3611
26.3672	52.3427	26.3672	52.2156	26.3672	52.2781	26.3672	51.8972	26.3672	52.0188	26.3672	51.388	26.3672	51.5597	26.3672	50.6984	26.3672	50.8994	26.3672	49.8724	26.3672	50.0576	26.3672	49.0385	26.3672	49.1186	26.3672	48.4762	26.3672	48.316	26.3672	48.5608	26.3672	48.075	26.3672	49.4345	26.3672	48.7272	26.3672	50.826	26.3672	50.0948	26.3672	52.3601	26.3672	51.7213	26.3672	53.8047	26.3672	53.2879	26.3672	55.0598	26.3672	54.6585	26.3672	56.0902	26.3672	55.7896	26.3672	56.8859	26.3672	56.6722	26.3672	57.4451	26.3672	57.3081	26.3672	57.7676	26.3672	57.7007	26.3672	57.8531
27.832	53.4955	27.832	53.3624	27.832	53.441	27.832	53.0425	27.832	53.196	27.832	52.538	27.832	52.7561	27.832	51.8621	27.832	52.1208	27.832	51.0637	27.832	51.3102	27.832	50.2761	27.832	50.4054	27.832	49.7732	27.832	49.6262	27.832	49.9016	27.832	49.3707	27.832	50.7745	27.832	49.9648	27.832	52.1315	27.832	51.2686	27.832	53.6234	27.832	52.8529	27.832	55.031	27.832	54.3983	27.832	56.2568	27.832	55.7605	27.832	57.2646	27.832	56.8903	27.832	58.0428	27.832	57.7756	27.832	58.5881	27.832	58.4164	27.832	58.8995	27.832	58.8155	27.832	58.9758
29.2969	54.5232	29.2969	54.4188	29.2969	54.4457	29.2969	54.1347	29.2969	54.1835	29.2969	53.6754	29.2969	53.7345	29.2969	53.0579	29.2969	53.1037	29.2969	52.3334	29.2969	52.3224	29.2969	51.6294	29.2969	51.4902	29.2969	51.1912	29.2969	50.842	29.2969	51.3191	29.2969	50.7439	29.2969	52.1199	29.2969	51.4287	29.2969	53.3828	29.2969	52.7172	29.2969	54.798	29.2969	54.2309	29.2969	56.1536	29.2969	55.6982	29.2969	57.3468	29.2969	56.993	29.2969	58.3351	29.2969	58.0692	29.2969	59.1032	29.2969	58.9132	29.2969	59.6454	29.2969	59.523	29.2969	59.9596	29.2969	59.8997	29.2969	60.0448
30.7617	55.9296	30.7617	55.8262	30.7617	55.8784	30.7617	55.5721	30.7617	55.6721	30.7617	55.178	30.7617	55.3153	30.7617	54.6707	30.7617	54.824	30.7617	54.1114	30.7617	54.2411	30.7617	53.6207	30.7617	53.664	30.7617	53.3884	30.7617	53.2708	30.7617	53.6055	30.7617	53.2904	30.7617	54.3215	30.7617	53.8559	30.7617	55.394	30.7617	54.8749	30.7617	56.6094	30.7617	56.116	30.7617	57.8011	30.7617	57.3727	30.7617	58.8722	30.7617	58.5211	30.7617	59.7737	30.7617	59.5	30.7617	60.4818	30.7617	60.2816	30.7617	60.9845	30.7617	60.8537	30.7617	61.2756	30.7617	61.2109	30.7617	61.3516
32.2266	57.052	32.2266	56.956	32.2266	57.0024	32.2266	56.719	32.2266	56.8075	32.2266	56.3534	32.2266	56.4732	32.2266	55.8881	32.2266	56.018	32.2266	55.3845	32.2266	55.4871	32.2266	54.9571	32.2266	54.9755	32.2266	54.7762	32.2266	54.646	32.2266	55.0062	32.2266	54.6972	32.2266	55.6879	32.2266	55.2402	32.2266	56.6991	32.2266	56.197	32.2266	57.8517	32.2266	57.3678	32.2266	58.9912	32.2266	58.5654	32.2266	60.0231	32.2266	59.6704	32.2266	60.8964	32.2266	60.6194	32.2266	61.5848	32.2266	61.3813	32.2266	62.0746	32.2266	61.9412	32.2266	62.3581	32.2266	62.2921	32.2266	62.4312
33.6914	58.5835	33.6914	58.498	33.6914	58.5408	33.6914	58.2887	33.6914	58.3705	33.6914	57.9676	33.6914	58.0795	33.6914	57.5608	33.6914	57.6865	33.6914	57.1202	33.6914	57.2322	33.6914	56.7371	33.6914	56.7954	33.6914	56.5444	33.6914	56.5042	33.6914	56.6775	33.6914	56.5127	33.6914	57.1937	33.6914	56.921	33.6914	58.025	33.6914	57.6964	33.6914	59.0265	33.6914	58.6957	33.6914	60.0565	33.6914	59.7584	33.6914	61.0151	33.6914	60.7656	33.6914	61.8421	33.6914	61.6457	33.6914	62.5034	33.6914	62.3593	33.6914	62.9797	33.6914	62.8855	33.6914	63.2602	33.6914	63.2137	33.6914	63.339
35.1562	59.705	35.1562	59.6201	35.1562	59.6725	35.1562	59.4228	35.1562	59.5239	35.1562	59.1265	35.1562	59.2682	35.1562	58.7592	35.1562	58.9261	35.1562	58.3737	35.1562	58.5399	35.1562	58.057	35.1562	58.185	35.1562	57.9279	35.1562	57.9746	35.1562	58.0991	35.1562	58.0353	35.1562	58.6123	35.1562	58.4438	35.1562	59.4054	35.1562	59.1698	35.1562	60.3525	35.1562	60.0953	35.1562	61.3285	35.1562	61.0839	35.1562	62.2414	35.1562	62.0286	35.1562	63.0329	35.1562	62.8606	35.1562	63.6683	35.1562	63.5393	35.1562	64.1276	35.1562	64.0421	35.1562	64.3988	35.1562	64.3563	35.1562	64.4758
36.6211	60.8368	36.6211	60.7689	36.6211	60.8022	36.6211	60.6045	36.6211	60.6663	36.6211	60.3586	36.6211	60.4381	36.6211	60.0604	36.6211	60.1393	36.6211	59.7598	36.6211	59.8108	36.6211	59.5334	36.6211	59.5219	36.6211	59.4774	36.6211	59.3707	36.6211	59.6774	36.6211	59.462	36.6211	60.1628	36.6211	59.8569	36.6211	60.885	36.6211	60.5313	36.6211	61.7451	36.6211	61.3886	36.6211	62.6383	36.6211	62.3116	36.6211	63.482	36.6211	63.2028	36.6211	64.2196	36.6211	63.9955	36.6211	64.815	36.6211	64.6479	36.6211	65.2458	36.6211	65.1353	36.6211	65.4983	36.6211	65.4434	36.6211	65.565
38.0859	62.3181	38.0859	62.2484	38.0859	62.2991	38.0859	62.0951	38.0859	62.1929	38.0859	61.8717	38.0859	62.0088	38.0859	61.604	38.0859	61.7663	38.0859	61.3348	38.0859	61.501	38.0859	61.1282	38.0859	61.2688	38.0859	61.0638	38.0859	61.1464	38.0859	61.215	38.0859	61.215	38.0859	61.6141	38.0859	61.5277	38.0859	62.2319	38.0859	62.0783	38.0859	62.9908	38.0859	62.8013	38.0859	63.7995	38.0859	63.6037	38.0859	64.5787	38.0859	64.3982	38.0859	65.2704	38.0859	65.1181	38.0859	65.8354	38.0859	65.7182	38.0859	66.2484	38.0859	66.1693	38.0859	66.4938	38.0859	66.4541	38.0859	66.5633
39.5508	63.4831	39.5508	63.4239	39.5508	63.4633	39.5508	63.2909	39.5508	63.3662	39.5508	63.0976	39.5508	63.201	39.5508	62.8687	39.5508	62.9871	39.5508	62.6441	39.5508	62.758	39.5508	62.4807	39.5508	62.5651	39.5508	62.4468	39.5508	62.4761	39.5508	62.604	39.5508	62.5606	39.5508	62.9795	39.5508	62.8634	39.5508	63.5499	39.5508	63.3793	39.5508	64.2506	39.5508	64.0526	39.5508	65.0017	39.5508	64.8024	39.5508	65.7309	39.5508	65.5492	39.5508	66.3826	39.5508	66.23	39.5508	66.9175	39.5508	66.8003	39.5508	67.3099	39.5508	67.2308	39.5508	67.5433	39.5508	67.5036	39.5508	67.6088
41.0156	64.6943	41.0156	64.6494	41.0156	64.673	41.0156	64.544	41.0156	64.587	41.0156	64.3922	41.0156	64.4449	41.0156	64.2177	41.0156	64.2653	41.0156	64.0572	41.0156	64.0788	41.0156	63.9598	41.0156	63.9308	41.0156	63.9807	41.0156	63.8785	41.0156	64.1666	41.0156	63.979	41.0156	64.5358	41.0156	64.2689	41.0156	65.0677	41.0156	64.7452	41.0156	65.7097	41.0156	65.3639	41.0156	66.3957	41.0156	66.0576	41.0156	67.063	41.0156	66.7565	41.0156	67.6606	41.0156	67.4021	41.0156	68.1509	41.0156	67.9505	41.0156	68.5077	41.0156	68.3715	41.0156	68.7141	41.0156	68.6453	41.0156	68.7609
42.4805	66.1409	42.4805	66.1047	42.4805	66.1249	42.4805	66.0212	42.4805	66.0585	42.4805	65.9026	42.4805	65.9507	42.4805	65.7695	42.4805	65.819	42.4805	65.6525	42.4805	65.691	42.4805	65.5913	42.4805	65.6047	42.4805	65.6295	42.4805	65.6053	42.4805	65.8039	42.4805	65.735	42.4805	66.1307	42.4805	66.019	42.4805	66.5969	42.4805	66.4529	42.4805	67.1631	42.4805	67.0023	42.4805	67.7759	42.4805	67.6142	42.4805	68.3809	42.4805	68.2316	42.4805	68.9312	42.4805	68.8036	42.4805	69.3899	42.4805	69.2902	42.4805	69.7302	42.4805	69.6622	42.4805	69.9343	42.4805	69.8998	42.4805	69.9919
43.9453	67.2786	43.9453	67.2419	43.9453	67.2687	43.9453	67.163	43.9453	67.2138	43.9453	67.0531	43.9453	67.122	43.9453	66.9308	43.9453	67.0089	43.9453	66.8235	43.9453	66.8985	43.9453	66.7661	43.9453	66.8239	43.9453	66.7972	43.9453	66.8237	43.9453	66.9498	43.9453	66.935	43.9453	67.2399	43.9453	67.1812	43.9453	67.6589	43.9453	67.5621	43.9453	68.1741	43.9453	68.0517	43.9453	68.7383	43.9453	68.6052	43.9453	69.3012	43.9453	69.1715	43.9453	69.8176	43.9453	69.7025	43.9453	70.2509	43.9453	70.1585	43.9453	70.5738	43.9453	70.5095	43.9453	70.7679	43.9453	70.735	43.9453	70.8226
45.4102	68.4972	45.4102	68.4661	45.4102	68.4895	45.4102	68.4003	45.4102	68.4442	45.4102	68.3096	45.4102	68.3683	45.4102	68.2102	45.4102	68.275	45.4102	68.1253	45.4102	68.1848	45.4102	68.0839	45.4102	68.1252	45.4102	68.1177	45.4102	68.1286	45.4102	68.2543	45.4102	68.2263	45.4102	68.5083	45.4102	68.4397	45.4102	68.8749	45.4102	68.7718	45.4102	69.3295	45.4102	69.2036	45.4102	69.833	45.4102	69.6987	45.4102	70.3417	45.4102	70.2122	45.4102	70.8134	45.4102	70.6994	45.4102	71.2129	45.4102	71.122	45.4102	71.5126	45.4102	71.4496	45.4102	71.6933	45.4102	71.6612	45.4102	71.7439
46.875	69.6554	46.875	69.6231	46.875	69.6486	46.875	69.5553	46.875	69.6043	46.875	69.4608	46.875	69.5289	46.875	69.3544	46.875	69.4348	46.875	69.2571	46.875	69.3411	46.875	69.1963	46.875	69.2735	46.875	69.2025	46.875	69.2624	46.875	69.3039	46.875	69.3382	46.875	69.5178	46.875	69.5224	46.875	69.8436	46.875	69.8201	46.875	70.2609	46.875	70.2158	46.875	70.7338	46.875	70.6761	46.875	71.2196	46.875	71.1584	46.875	71.6761	46.875	71.6192	46.875	72.067	46.875	72.02	46.875	72.3636	46.875	72.3304	46.875	72.5459	46.875	72.5287	46.875	72.6021
48.3398	70.5751	48.3398	70.5453	48.3398	70.5713	48.3398	70.4856	48.3398	70.5352	48.3398	70.4046	48.3398	70.473	48.3398	70.3164	48.3398	70.3961	48.3398	70.2406	48.3398	70.322	48.3398	70.2024	48.3398	70.2741	48.3398	70.2289	48.3398	70.2795	48.3398	70.3443	48.3398	70.3649	48.3398	70.5629	48.3398	70.5491	48.3398	70.8828	48.3398	70.8367	48.3398	71.2849	48.3398	71.2139	48.3398	71.7364	48.3398	71.6512	48.3398	72.198	48.3398	72.1099	48.3398	72.6309	48.3398	72.5496	48.3398	73.0006	48.3398	72.9337	48.3398	73.2803	48.3398	73.233	48.3398	73.4506	48.3398	73.4262	48.3398	73.5003
51.2695	72.5173	51.2695	72.4974	51.2695	72.5143	51.2695	72.4576	51.2695	72.4895	51.2695	72.4051	51.2695	72.4479	51.2695	72.3512	51.2695	72.3989	51.2695	72.3113	51.2695	72.3565	51.2695	72.3044	51.2695	72.3389	51.2695	72.3504	51.2695	72.3666	51.2695	72.4671	51.2695	72.4593	51.2695	72.665	51.2695	72.6312	51.2695	72.9431	51.2695	72.8857	51.2695	73.288	51.2695	73.2131	51.2695	73.6749	51.2695	73.5909	51.2695	74.0727	51.2695	73.9884	51.2695	74.4485	51.2695	74.372	51.2695	74.7721	51.2695	74.7096	51.2695	75.0183	51.2695	74.9743	51.2695	75.1688	51.2695	75.1461	51.2695	75.2125
52.7344	73.5083	52.7344	73.4928	52.7344	73.5054	52.7344	73.4614	52.7344	73.4852	52.7344	73.4205	52.7344	73.4522	52.7344	73.3796	52.7344	73.4149	52.7344	73.3522	52.7344	73.3856	52.7344	73.3545	52.7344	73.3798	52.7344	73.4035	52.7344	73.4152	52.7344	73.5146	52.7344	73.5082	52.7344	73.697	52.7344	73.6708	52.7344	73.9507	52.7344	73.9061	52.7344	74.2647	52.7344	74.2059	52.7344	74.618	52.7344	74.5512	52.7344	74.9831	52.7344	74.9151	52.7344	75.33	52.7344	75.2675	52.7344	75.6304	52.7344	75.5788	52.7344	75.8602	52.7344	75.8236	52.7344	76.0014	52.7344	75.9825	52.7344	76.0433
54.1992	74.4587	54.1992	74.4443	54.1992	74.4577	54.1992	74.4165	54.1992	74.4421	54.1992	74.3807	54.1992	74.4159	54.1992	74.3454	54.1992	74.3865	54.1992	74.3222	54.1992	74.3644	54.1992	74.3252	54.1992	74.363	54.1992	74.3694	54.1992	74.3975	54.1992	74.4684	54.1992	74.4822	54.1992	74.6311	54.1992	74.6278	54.1992	74.8584	54.1992	74.8378	54.1992	75.1417	54.1992	75.1062	54.1992	75.463	54.1992	75.4171	54.1992	75.7976	54.1992	75.7473	54.1992	76.118	54.1992	76.0693	54.1992	76.3971	54.1992	76.3555	54.1992	76.6118	54.1992	76.5816	54.1992	76.7445	54.1992	76.7287	54.1992	76.7845
55.6641	75.2793	55.6641	75.2661	55.6641	75.2798	55.6641	75.2422	55.6641	75.2684	55.6641	75.2124	55.6641	75.2489	55.6641	75.1843	55.6641	75.2277	55.6641	75.1683	55.6641	75.2143	55.6641	75.1766	55.6641	75.2205	55.6641	75.2227	55.6641	75.2595	55.6641	75.3185	55.6641	75.3438	55.6641	75.4719	55.6641	75.4831	55.6641	75.6841	55.6641	75.6803	55.6641	75.9476	55.6641	75.9303	55.6641	76.2465	55.6641	76.2193	55.6641	76.5588	55.6641	76.5262	55.6641	76.8589	55.6641	76.8258	55.6641	77.1216	55.6641	77.0925	55.6641	77.3247	55.6641	77.3033	55.6641	77.4512	55.6641	77.4399	55.6641	77.4907
58.5938	76.8383	58.5938	76.8237	58.5938	76.844	58.5938	76.8018	58.5938	76.8412	58.5938	76.7764	58.5938	76.8328	58.5938	76.7536	58.5938	76.8235	58.5938	76.7415	58.5938	76.8204	58.5938	76.7502	58.5938	76.8325	58.5938	76.7901	58.5938	76.87	58.5938	76.8712	58.5938	76.9428	58.5938	77.0005	58.5938	77.0591	58.5938	77.1797	58.5938	77.2222	58.5938	77.4038	58.5938	77.4296	58.5938	77.6604	58.5938	77.6713	58.5938	77.9314	58.5938	77.9307	58.5938	78.1946	58.5938	78.1868	58.5938	78.4274	58.5938	78.4169	58.5938	78.6092	58.5938	78.5998	58.5938	78.7237	58.5938	78.7183	58.5938	78.7611
60.0586	77.5498	60.0586	77.5367	60.0586	77.5559	60.0586	77.518	60.0586	77.5552	60.0586	77.4973	60.0586	77.5501	60.0586	77.48	60.0586	77.5449	60.0586	77.4733	60.0586	77.5458	60.0586	77.486	60.0586	77.5608	60.0586	77.5275	60.0586	77.5989	60.0586	77.6064	60.0586	77.6693	60.0586	77.729	60.0586	77.7793	60.0586	77.8969	60.0586	77.9324	60.0586	78.1057	60.0586	78.1262	60.0586	78.3447	60.0586	78.3521	60.0586	78.5973	60.0586	78.595	60.0586	78.8433	60.0586	78.8352	60.0586	79.0615	60.0586	79.0516	60.0586	79.2324	60.0586	79.2239	60.0586	79.3405	60.0586	79.3356	60.0586	79.3759
62.9883	78.6998	62.9883	78.6879	62.9883	78.7113	62.9883	78.6769	62.9883	78.7227	62.9883	78.6695	62.9883	78.7356	62.9883	78.6699	62.9883	78.7533	62.9883	78.6836	62.9883	78.7802	62.9883	78.717	62.9883	78.822	62.9883	78.7768	62.9883	78.885	62.9883	78.8691	62.9883	78.9752	62.9883	78.998	62.9883	79.097	62.9883	79.164	62.9883	79.2521	62.9883	79.3631	62.9883	79.4378	62.9883	79.5861	62.9883	79.6463	62.9883	79.8193	62.9883	79.8653	62.9883	80.0454	62.9883	80.0788	62.9883	80.2463	62.9883	80.2689	62.9883	80.4049	62.9883	80.4186	62.9883	80.5071	62.9883	80.5135	62.9883	80.5442
64.4531	79.3067	64.4531	79.3001	64.4531	79.3162	64.4531	79.2974	64.4531	79.3286	64.4531	79.3006	64.4531	79.3451	64.4531	79.3128	64.4531	79.3679	64.4531	79.3379	64.4531	79.4003	64.4531	79.3806	64.4531	79.4463	64.4531	79.4458	64.4531	79.5107	64.4531	79.5378	64.4531	79.5978	64.4531	79.6598	64.4531	79.7113	64.4531	79.8119	64.4531	79.8526	64.4531	79.9909	64.4531	80.0197	64.4531	80.1894	64.4531	80.2068	64.4531	80.3957	64.4531	80.4035	64.4531	80.5954	64.4531	80.5962	64.4531	80.7722	64.4531	80.7692	64.4531	80.911	64.4531	80.9071	64.4531	80.999	64.4531	80.9965	64.4531	81.0284
67.3828	80.2425	67.3828	80.2373	67.3828	80.2515	67.3828	80.2364	67.3828	80.2643	67.3828	80.2413	67.3828	80.2817	67.3828	80.2538	67.3828	80.3052	67.3828	80.2768	67.3828	80.3368	67.3828	80.3134	67.3828	80.3795	67.3828	80.3673	67.3828	80.4364	67.3828	80.442	67.3828	80.5109	67.3828	80.5402	67.3828	80.6055	67.3828	80.6626	67.3828	80.7215	67.3828	80.8074	67.3828	80.8579	67.3828	80.9695	67.3828	81.0105	67.3828	81.14	67.3828	81.1713	67.3828	81.307	67.3828	81.3295	67.3828	81.4569	67.3828	81.472	67.3828	81.5764	67.3828	81.5853	67.3828	81.6538	67.3828	81.658	67.3828	81.6818
68.8477	80.569	68.8477	80.563	68.8477	80.5803	68.8477	80.5629	68.8477	80.5968	68.8477	80.5696	68.8477	80.619	68.8477	80.5847	68.8477	80.6479	68.8477	80.6104	68.8477	80.6849	68.8477	80.6492	68.8477	80.7321	68.8477	80.704	68.8477	80.7919	68.8477	80.7776	68.8477	80.8666	68.8477	80.8719	68.8477	80.9583	68.8477	80.9875	68.8477	81.0679	68.8477	81.1229	68.8477	81.1944	68.8477	81.2733	68.8477	81.334	68.8477	81.4311	68.8477	81.4802	68.8477	81.5857	68.8477	81.6232	68.8477	81.7248	68.8477	81.7516	68.8477	81.8362	68.8477	81.8533	68.8477	81.9093	68.8477	81.9176	68.8477	81.9372
71.7773	81.2427	71.7773	81.2405	71.7773	81.253	71.7773	81.2467	71.7773	81.2713	71.7773	81.2616	71.7773	81.2975	71.7773	81.2859	71.7773	81.3317	71.7773	81.3205	71.7773	81.3744	71.7773	81.3664	71.7773	81.4261	71.7773	81.425	71.7773	81.4877	71.7773	81.4974	71.7773	81.5602	71.7773	81.5847	71.7773	81.6446	71.7773	81.687	71.7773	81.7413	71.7773	81.803	71.7773	81.8497	71.7773	81.9294	71.7773	81.9671	71.7773	82.0602	71.7773	82.089	71.7773	82.1875	71.7773	82.2079	71.7773	82.3017	71.7773	82.315	71.7773	82.3926	71.7773	82.4005	71.7773	82.4518	71.7773	82.4553	71.7773	82.4733
74.707	81.771	74.707	81.7733	74.707	81.7789	74.707	81.786	74.707	81.797	74.707	81.8089	74.707	81.8249	74.707	81.8415	74.707	81.8619	74.707	81.8837	74.707	81.9077	74.707	81.9353	74.707	81.9616	74.707	81.9961	74.707	82.0233	74.707	82.0664	74.707	82.093	74.707	82.1462	74.707	82.1705	74.707	82.2353	74.707	82.256	74.707	82.3328	74.707	82.3488	74.707	82.4364	74.707	82.4475	74.707	82.5421	74.707	82.5486	74.707	82.6443	74.707	82.6469	74.707	82.7354	74.707	82.7355	74.707	82.8077	74.707	82.8068	74.707	82.8541	74.707	82.8533	74.707	82.8698
77.6367	82.0741	77.6367	82.0787	77.6367	82.0817	77.6367	82.0951	77.6367	82.1012	77.6367	82.1228	77.6367	82.132	77.6367	82.1605	77.6367	82.1729	77.6367	82.2072	77.6367	82.2227	77.6367	82.2615	77.6367	82.28	77.6367	82.3224	77.6367	82.3435	77.6367	82.389	77.6367	82.412	77.6367	82.4608	77.6367	82.4848	77.6367	82.5374	77.6367	82.5614	77.6367	82.6182	77.6367	82.6409	77.6367	82.7019	77.6367	82.7223	77.6367	82.786	77.6367	82.8034	77.6367	82.8668	77.6367	82.8806	77.6367	82.9391	77.6367	82.9492	77.6367	82.997	77.6367	83.0034	77.6367	83.035	77.6367	83.0381	77.6367	83.0491
79.1016	82.2096	79.1016	82.2143	79.1016	82.2178	79.1016	82.2317	79.1016	82.2388	79.1016	82.2608	79.1016	82.2718	79.1016	82.3002	79.1016	82.3152	79.1016	82.3483	79.1016	82.3675	79.1016	82.4034	79.1016	82.4267	79.1016	82.464	79.1016	82.491	79.1016	82.5287	79.1016	82.5588	79.1016	82.5968	79.1016	82.6289	79.1016	82.6677	79.1016	82.7005	79.1016	82.7409	79.1016	82.773	79.1016	82.8154	79.1016	82.8453	79.1016	82.8896	79.1016	82.916	79.1016	82.9606	79.1016	82.9823	79.1016	83.0241	79.1016	83.0406	79.1016	83.0752	79.1016	83.0863	79.1016	83.1093	79.1016	83.1148	79.1016	83.1229
82.0312	82.5404	82.0312	82.5447	82.0312	82.5506	82.0312	82.5631	82.0312	82.575	82.0312	82.5944	82.0312	82.6124	82.0312	82.6367	82.0312	82.6608	82.0312	82.6877	82.0312	82.7178	82.0312	82.745	82.0312	82.7807	82.0312	82.8061	82.0312	82.8468	82.0312	82.8692	82.0312	82.9137	82.0312	82.9327	82.0312	82.9796	82.0312	82.9957	82.0312	83.0432	82.0312	83.0576	82.0312	83.1037	82.0312	83.1181	82.0312	83.1609	82.0312	83.1765	82.0312	83.2141	82.0312	83.2312	82.0312	83.2623	82.0312	83.2797	82.0312	83.3034	82.0312	83.3189	82.0312	83.3349	82.0312	83.3457	82.0312	83.3537	82.0312	83.3575
84.9609	82.8006	84.9609	82.8099	84.9609	82.807	84.9609	82.8342	84.9609	82.8288	84.9609	82.8718	84.9609	82.8645	84.9609	82.9202	84.9609	82.9118	84.9609	82.9764	84.9609	82.9678	84.9609	83.0369	84.9609	83.029	84.9609	83.0985	84.9609	83.092	84.9609	83.1585	84.9609	83.1537	84.9609	83.2145	84.9609	83.2117	84.9609	83.2654	84.9609	83.2644	84.9609	83.3107	84.9609	83.311	84.9609	83.3505	84.9609	83.3517	84.9609	83.3856	84.9609	83.387	84.9609	83.416	84.9609	83.4172	84.9609	83.4415	84.9609	83.4424	84.9609	83.4613	84.9609	83.4618	84.9609	83.4739	84.9609	83.4741	84.9609	83.4783
87.8906	82.8583	87.8906	82.8692	87.8906	82.8642	87.8906	82.8961	87.8906	82.8868	87.8906	82.937	87.8906	82.9245	87.8906	82.9891	87.8906	82.9748	87.8906	83.0488	87.8906	83.0345	87.8906	83.1124	87.8906	83.0998	87.8906	83.1762	87.8906	83.1669	87.8906	83.2369	87.8906	83.2323	87.8906	83.2924	87.8906	83.2931	87.8906	83.3411	87.8906	83.3472	87.8906	83.3828	87.8906	83.3938	87.8906	83.418	87.8906	83.4327	87.8906	83.4478	87.8906	83.4644	87.8906	83.4731	87.8906	83.4897	87.8906	83.4944	87.8906	83.5089	87.8906	83.5114	87.8906	83.5221	87.8906	83.5234	87.8906	83.5291	87.8906	83.5295
90.8203	83.0933	90.8203	83.104	90.8203	83.1006	90.8203	83.1318	90.8203	83.1256	90.8203	83.1745	90.8203	83.1663	90.8203	83.2287	90.8203	83.2199	90.8203	83.2905	90.8203	83.2824	90.8203	83.3552	90.8203	83.3493	90.8203	83.4184	90.8203	83.4158	90.8203	83.4759	90.8203	83.4775	90.8203	83.5244	90.8203	83.5307	90.8203	83.5619	90.8203	83.5727	90.8203	83.5877	90.8203	83.6022	90.8203	83.6027	90.8203	83.6198	90.8203	83.6089	90.8203	83.6269	90.8203	83.6091	90.8203	83.6264	90.8203	83.6065	90.8203	83.6213	90.8203	83.6036	90.8203	83.6144	90.8203	83.6025	90.8203	83.6081	90.8203	83.6039
95.2148	83.3368	95.2148	83.3432	95.2148	83.3493	95.2148	83.3677	95.2148	83.3803	95.2148	83.4077	95.2148	83.4276	95.2148	83.4596	95.2148	83.4877	95.2148	83.5189	95.2148	83.5561	95.2148	83.5805	95.2148	83.6275	95.2148	83.6394	95.2148	83.6964	95.2148	83.6913	95.2148	83.7577	95.2148	83.7326	95.2148	83.8073	95.2148	83.7615	95.2148	83.8423	95.2148	83.7775	95.2148	83.8615	95.2148	83.7822	95.2148	83.8656	95.2148	83.7784	95.2148	83.8571	95.2148	83.77	95.2148	83.8396	95.2148	83.761	95.2148	83.8175	95.2148	83.7552	95.2148	83.795	95.2148	83.755	95.2148	83.7756	95.2148	83.7618
98.1445	83.4013	98.1445	83.4095	98.1445	83.4149	98.1445	83.4384	98.1445	83.45	98.1445	83.485	98.1445	83.5042	98.1445	83.5452	98.1445	83.5738	98.1445	83.6137	98.1445	83.6534	98.1445	83.6849	98.1445	83.7372	98.1445	83.7532	98.1445	83.8188	98.1445	83.8136	98.1445	83.8923	98.1445	83.862	98.1445	83.9523	98.1445	83.8961	98.1445	83.9954	98.1445	83.9153	98.1445	84.0198	98.1445	83.9209	98.1445	84.0258	98.1445	83.9161	98.1445	84.016	98.1445	83.9054	98.1445	83.9944	98.1445	83.8938	98.1445	83.9664	98.1445	83.8859	98.1445	83.9373	98.1445	83.8853	98.1445	83.912	98.1445	83.894
101.074	83.5122	101.074	83.523	101.074	83.5239	101.074	83.555	101.074	83.5577	101.074	83.6051	101.074	83.6112	101.074	83.6689	101.074	83.6807	101.074	83.7409	101.074	83.7609	101.074	83.8152	101.074	83.8457	101.074	83.8856	101.074	83.9286	101.074	83.9468	101.074	84.0031	101.074	83.9943	101.074	84.0637	101.074	84.0253	101.074	84.1063	101.074	84.039	101.074	84.1287	101.074	84.037	101.074	84.1309	101.074	84.0229	101.074	84.1156	101.074	84.0019	101.074	84.0871	101.074	83.9803	101.074	84.0515	101.074	83.9642	101.074	84.0155	101.074	83.9583	101.074	83.9851	101.074	83.9652
105.469	83.6737	105.469	83.6807	105.469	83.6886	105.469	83.7083	105.469	83.7243	105.469	83.7538	105.469	83.7784	105.469	83.8128	105.469	83.8466	105.469	83.8797	105.469	83.9235	105.469	83.9481	105.469	84.0026	105.469	84.0114	105.469	84.0772	105.469	84.0637	105.469	84.141	105.469	84.1001	105.469	84.1884	105.469	84.1174	105.469	84.2152	105.469	84.1148	105.469	84.2193	105.469	84.0942	105.469	84.2013	105.469	84.0601	105.469	84.1642	105.469	84.019	105.469	84.1137	105.469	83.9789	105.469	84.0576	105.469	83.9479	105.469	84.0044	105.469	83.9327	105.469	83.9622	105.469	83.9373
108.398	83.8603	108.398	83.8662	108.398	83.8762	108.398	83.8927	108.398	83.9129	108.398	83.937	108.398	83.9679	108.398	83.9946	108.398	84.0369	108.398	84.0599	108.398	84.1145	108.398	84.1263	108.398	84.194	108.398	84.1873	108.398	84.2685	108.398	84.2366	108.398	84.3313	108.398	84.2692	108.398	84.3765	108.398	84.2816	108.398	84.3996	108.398	84.273	108.398	84.3984	108.398	84.2454	108.398	84.3733	108.398	84.2035	108.398	84.3275	108.398	84.1546	108.398	84.2674	108.398	84.1077	108.398	84.2014	108.398	84.0717	108.398	84.1391	108.398	84.0544	108.398	84.0896	108.398	84.0602
112.793	84.1268	112.793	84.1262	112.793	84.1488	112.793	84.1462	112.793	84.1913	112.793	84.1839	112.793	84.2513	112.793	84.2352	112.793	84.3246	112.793	84.2944	112.793	84.4052	112.793	84.3551	112.793	84.4863	112.793	84.4104	112.793	84.5608	112.793	84.4541	112.793	84.6214	112.793	84.4806	112.793	84.6619	112.793	84.4865	112.793	84.6776	112.793	84.4708	112.793	84.6659	112.793	84.4352	112.793	84.6274	112.793	84.385	112.793	84.566	112.793	84.328	112.793	84.4885	112.793	84.2742	112.793	84.405	112.793	84.2339	112.793	84.3266	112.793	84.216	112.793	84.2641	112.793	84.2258
117.188	84.232	117.188	84.2387	117.188	84.2466	117.188	84.2653	117.188	84.2817	117.188	84.3089	117.188	84.3351	117.188	84.365	117.188	84.4024	117.188	84.4277	117.188	84.4781	117.188	84.4904	117.188	84.5554	117.188	84.5461	117.188	84.6267	117.188	84.5881	117.188	84.6845	117.188	84.6108	117.188	84.7221	117.188	84.6105	117.188	84.7343	117.188	84.5857	117.188	84.7183	117.188	84.5386	117.188	84.6745	117.188	84.4747	117.188	84.6068	117.188	84.4027	117.188	84.5231	117.188	84.3338	117.188	84.434	117.188	84.2797	117.188	84.3519	117.188	84.2508	117.188	84.2886	117.188	84.2534
120.117	84.3212	120.117	84.3259	120.117	84.3384	120.117	84.3513	120.117	84.377	120.117	84.3944	120.117	84.4344	120.117	84.4506	120.117	84.5064	120.117	84.5141	120.117	84.5873	120.117	84.5782	120.117	84.6699	120.117	84.6355	120.117	84.7465	120.117	84.6793	120.117	84.8093	120.117	84.7037	120.117	84.851	120.117	84.7047	120.117	84.8662	120.117	84.6809	120.117	84.8516	120.117	84.6342	120.117	84.8076	120.117	84.5704	120.117	84.7381	120.117	84.4986	120.117	84.6508	120.117	84.4303	120.117	84.5568	120.117	84.378	120.117	84.4689	120.117	84.3521	120.117	84.3997	120.117	84.3591
124.512	84.6083	124.512	84.6134	124.512	84.6217	124.512	84.6357	124.512	84.6532	124.512	84.6724	124.512	84.7008	124.512	84.7195	124.512	84.7608	124.512	84.7714	124.512	84.828	124.512	84.8221	124.512	84.8958	124.512	84.8649	124.512	84.9569	124.512	84.8934	124.512	85.0036	124.512	84.9021	124.512	85.0288	124.512	84.8872	124.512	85.027	124.512	84.8472	124.512	84.995	124.512	84.7842	124.512	84.9332	124.512	84.7037	124.512	84.8461	124.512	84.615	124.512	84.7424	124.512	84.5304	124.512	84.6346	124.512	84.463	124.512	84.537	124.512	84.4251	124.512	84.4635	124.512	84.4246
128.906	84.8398	128.906	84.8507	128.906	84.8468	128.906	84.8781	128.906	84.8712	128.906	84.9187	128.906	84.9105	128.906	84.968	128.906	84.9607	128.906	85.0197	128.906	85.016	128.906	85.067	128.906	85.0695	128.906	85.1026	128.906	85.1135	128.906	85.1198	128.906	85.1406	128.906	85.1128	128.906	85.1441	128.906	85.078	128.906	85.1191	128.906	85.0146	128.906	85.0636	128.906	84.9252	128.906	84.9793	128.906	84.8167	128.906	84.8719	128.906	84.6997	128.906	84.7516	128.906	84.5881	128.906	84.6321	128.906	84.4966	128.906	84.5287	128.906	84.4391	128.906	84.4559	128.906	84.4245
133.301	84.9101	133.301	84.93	133.301	84.9099	133.301	84.9682	133.301	84.929	133.301	85.0211	133.301	84.9651	133.301	85.0836	133.301	85.0138	133.301	85.1491	133.301	85.0691	133.301	85.21	133.301	85.1239	133.301	85.2582	133.301	85.1701	133.301	85.286	133.301	85.2	133.301	85.287	133.301	85.2065	133.301	85.257	133.301	85.1848	133.301	85.1946	133.301	85.1328	133.301	85.1027	133.301	85.0523	133.301	84.9883	133.301	84.9492	133.301	84.8624	133.301	84.834	133.301	84.7397	133.301	84.7206	133.301	84.6362	133.301	84.6246	133.301	84.5662	133.301	84.5608	133.301	84.5399
139.16	85.1352	139.16	85.1484	139.16	85.1404	139.16	85.1793	139.16	85.1631	139.16	85.2253	139.16	85.2005	139.16	85.2821	139.16	85.2485	139.16	85.3438	139.16	85.3012	139.16	85.4029	139.16	85.3517	139.16	85.4514	139.16	85.3925	139.16	85.4814	139.16	85.4159	139.16	85.4858	139.16	85.4155	139.16	85.4595	139.16	85.3867	139.16	85.4007	139.16	85.3281	139.16	85.3111	139.16	85.2417	139.16	85.1973	139.16	85.1342	139.16	85.0703	139.16	85.0162	139.16	84.9445	139.16	84.9019	139.16	84.8364	139.16	84.807	139.16	84.7611	139.16	84.7462	139.16	84.7297
143.555	85.1795	143.555	85.1775	143.555	85.2014	143.555	85.1948	143.555	85.2419	143.555	85.2292	143.555	85.2984	143.555	85.2768	143.555	85.3664	143.555	85.3319	143.555	85.4401	143.555	85.3877	143.555	85.5121	143.555	85.4364	143.555	85.5745	143.555	85.4703	143.555	85.6189	143.555	85.4826	143.555	85.6381	143.555	85.4688	143.555	85.6266	143.555	85.427	143.555	85.5821	143.555	85.3593	143.555	85.5061	143.555	85.2718	143.555	85.4046	143.555	85.1746	143.555	85.2879	143.555	85.0807	143.555	85.1699	143.555	85.0045	143.555	85.066	143.555	84.959	143.555	84.9904	143.555	84.9533
147.949	85.3469	147.949	85.3485	147.949	85.3625	147.949	85.3664	147.949	85.3948	147.949	85.3985	147.949	85.4418	147.949	85.441	147.949	85.5003	147.949	85.489	147.949	85.5652	147.949	85.536	147.949	85.6301	147.949	85.5746	147.949	85.6873	147.949	85.5976	147.949	85.7285	147.949	85.5984	147.949	85.7462	147.949	85.5727	147.949	85.7342	147.949	85.5191	147.949	85.6892	147.949	85.4402	147.949	85.6121	147.949	85.3429	147.949	85.508	147.949	85.2383	147.949	85.3869	147.949	85.1403	147.949	85.2625	147.949	85.0635	147.949	85.1506	147.949	85.0211	147.949	85.0664	147.949	85.0214
153.809	85.5486	153.809	85.5673	153.809	85.5444	153.809	85.5992	153.809	85.555	153.809	85.6416	153.809	85.5792	153.809	85.6906	153.809	85.6143	153.809	85.7406	153.809	85.656	153.809	85.785	153.809	85.6983	153.809	85.8162	153.809	85.7337	153.809	85.8268	153.809	85.7543	153.809	85.8102	153.809	85.7522	153.809	85.7622	153.809	85.7214	153.809	85.6817	153.809	85.6587	153.809	85.5718	153.809	85.565	153.809	85.4405	153.809	85.4461	153.809	85.3	153.809	85.3132	153.809	85.166	153.809	85.1815	153.809	85.0554	153.809	85.0686	153.809	84.9835	153.809	84.991	153.809	84.961
159.668	85.5187	159.668	85.5149	159.668	85.5429	159.668	85.5313	159.668	85.5862	159.668	85.5661	159.668	85.646	159.668	85.616	159.668	85.7184	159.668	85.6754	159.668	85.7978	159.668	85.737	159.668	85.8772	159.668	85.7921	159.668	85.9483	159.668	85.8319	159.668	86.0023	159.668	85.8482	159.668	86.0313	159.668	85.8355	159.668	86.0289	159.668	85.7917	159.668	85.9916	159.668	85.7194	159.668	85.9203	159.668	85.6263	159.668	85.8202	159.668	85.5246	159.668	85.7012	159.668	85.4293	159.668	85.5768	159.668	85.3562	159.668	85.4628	159.668	85.3186	159.668	85.3747	159.668	85.3245
165.527	85.7686	165.527	85.7626	165.527	85.7896	165.527	85.7721	165.527	85.8242	165.527	85.7962	165.527	85.8702	165.527	85.8326	165.527	85.9244	165.527	85.8767	165.527	85.9821	165.527	85.9222	165.527	86.0376	165.527	85.961	165.527	86.0836	165.527	85.9846	165.527	86.1124	165.527	85.9848	165.527	86.1167	165.527	85.9559	165.527	86.0905	165.527	85.8955	165.527	86.0311	165.527	85.8058	165.527	85.9396	165.527	85.6943	165.527	85.822	165.527	85.5734	165.527	85.6891	165.527	85.4588	165.527	85.5553	165.527	85.3674	165.527	85.4372	165.527	85.3138	165.527	85.3506	165.527	85.3076
171.387	86.0177	171.387	86.0031	171.387	86.0416	171.387	85.9971	171.387	86.0747	171.387	85.9986	171.387	86.1162	171.387	86.0057	171.387	86.164	171.387	86.0154	171.387	86.2141	171.387	86.0235	171.387	86.2609	171.387	86.0245	171.387	86.2967	171.387	86.0124	171.387	86.3129	171.387	85.9814	171.387	86.3012	171.387	85.9268	171.387	86.2551	171.387	85.8469	171.387	86.1715	171.387	85.7439	171.387	86.0521	171.387	85.6246	171.387	85.9041	171.387	85.5006	171.387	85.7401	171.387	85.3872	171.387	85.5765	171.387	85.3008	171.387	85.4319	171.387	85.256	171.387	85.3231	171.387	85.2626
177.246	85.8866	177.246	85.8999	177.246	85.8867	177.246	85.9257	177.246	85.9005	177.246	85.9621	177.246	85.9272	177.246	86.006	177.246	85.9649	177.246	86.0526	177.246	86.0099	177.246	86.0955	177.246	86.0565	177.246	86.1269	177.246	86.097	177.246	86.1387	177.246	86.1227	177.246	86.1237	177.246	86.1247	177.246	86.0767	177.246	86.0955	177.246	85.9964	177.246	86.0309	177.246	85.8859	177.246	85.9312	177.246	85.7531	177.246	85.8028	177.246	85.6106	177.246	85.6579	177.246	85.4746	177.246	85.5138	177.246	85.3625	177.246	85.3899	177.246	85.2903	177.246	85.3043	177.246	85.2696
183.105	85.9003	183.105	85.9023	183.105	85.9072	183.105	85.9138	183.105	85.9226	183.105	85.9353	183.105	85.9467	183.105	85.9665	183.105	85.9793	183.105	86.0054	183.105	86.0196	183.105	86.0484	183.105	86.065	183.105	86.0896	183.105	86.1106	183.105	86.1222	183.105	86.15	183.105	86.1393	183.105	86.1757	183.105	86.1354	183.105	86.181	183.105	86.1074	183.105	86.1611	183.105	86.0563	183.105	86.1151	183.105	85.9868	183.105	86.0462	183.105	85.9076	183.105	85.9626	183.105	85.83	183.105	85.8755	183.105	85.7659	183.105	85.7982	183.105	85.7259	183.105	85.7426	183.105	85.7174
188.965	86.4063	188.965	86.4016	188.965	86.4088	188.965	86.3955	188.965	86.4091	188.965	86.3886	188.965	86.4074	188.965	86.381	188.965	86.4041	188.965	86.3716	188.965	86.3991	188.965	86.3576	188.965	86.3915	188.965	86.3348	188.965	86.3789	188.965	86.2988	188.965	86.3577	188.965	86.2456	188.965	86.3237	188.965	86.1733	188.965	86.2731	188.965	86.0834	188.965	86.2039	188.965	85.9806	188.965	86.1165	188.965	85.873	188.965	86.0147	188.965	85.7705	188.965	85.9057	188.965	85.6837	188.965	85.799	188.965	85.6216	188.965	85.7055	188.965	85.5911	188.965	85.6352	188.965	85.5957
196.289	86.4053	196.289	86.4015	196.289	86.4095	196.289	86.3989	196.289	86.4134	196.289	86.3982	196.289	86.4167	196.289	86.3991	196.289	86.4184	196.289	86.3997	196.289	86.4169	196.289	86.3956	196.289	86.4092	196.289	86.3801	196.289	86.3908	196.289	86.3454	196.289	86.3562	196.289	86.284	196.289	86.2999	196.289	86.1915	196.289	86.2174	196.289	86.0677	196.289	86.1073	196.289	85.9184	196.289	85.9721	196.289	85.755	196.289	85.8192	196.289	85.5927	196.289	85.6603	196.289	85.4485	196.289	85.5104	196.289	85.3378	196.289	85.3851	196.289	85.2724	196.289	85.2979	196.289	85.2588
203.613	86.4912	203.613	86.4949	203.613	86.4843	203.613	86.4947	203.613	86.475	203.613	86.4905	203.613	86.4643	203.613	86.4818	203.613	86.453	203.613	86.4678	203.613	86.4405	203.613	86.4463	203.613	86.4249	203.613	86.4135	203.613	86.4023	203.613	86.3639	203.613	86.3675	203.613	86.292	203.613	86.3146	203.613	86.1932	203.613	86.2388	203.613	86.0665	203.613	86.1372	203.613	85.916	203.613	86.0108	203.613	85.7519	203.613	85.8648	203.613	85.5892	203.613	85.7091	203.613	85.4456	203.613	85.5571	203.613	85.338	203.613	85.4244	203.613	85.2792	203.613	85.3264	203.613	85.2756
210.938	86.3271	210.938	86.3185	210.938	86.34	210.938	86.3151	210.938	86.3564	210.938	86.3179	210.938	86.3763	210.938	86.3267	210.938	86.3994	210.938	86.3392	210.938	86.424	210.938	86.3504	210.938	86.4463	210.938	86.3532	210.938	86.4599	210.938	86.3392	210.938	86.4567	210.938	86.3005	210.938	86.4283	210.938	86.232	210.938	86.3677	210.938	86.1328	210.938	86.2719	210.938	86.0071	210.938	86.1431	210.938	85.865	210.938	85.9901	210.938	85.7204	210.938	85.8272	210.938	85.5892	210.938	85.672	210.938	85.4868	210.938	85.5425	210.938	85.4254	210.938	85.4532	210.938	85.4133
218.262	86.384	218.262	86.3749	218.262	86.386	218.262	86.3598	218.262	86.3815	218.262	86.3409	218.262	86.3727	218.262	86.3206	218.262	86.3632	218.262	86.3004	218.262	86.3559	218.262	86.2798	218.262	86.3516	218.262	86.2565	218.262	86.348	218.262	86.2259	218.262	86.3391	218.262	86.1823	218.262	86.3168	218.262	86.1208	218.262	86.2736	218.262	86.0395	218.262	86.2045	218.262	85.9408	218.262	86.1096	218.262	85.8321	218.262	85.9943	218.262	85.7245	218.262	85.8691	218.262	85.6305	218.262	85.7475	218.262	85.5613	218.262	85.643	218.262	85.5252	218.262	85.567	218.262	85.5267
225.586	86.5151	225.586	86.516	225.586	86.5043	225.586	86.509	225.586	86.4829	225.586	86.4961	225.586	86.4513	225.586	86.4784	225.586	86.4113	225.586	86.4555	225.586	86.3655	225.586	86.4249	225.586	86.3156	225.586	86.3828	225.586	86.2623	225.586	86.3246	225.586	86.2039	225.586	86.2469	225.586	86.1376	225.586	86.1479	225.586	86.0602	225.586	86.0293	225.586	85.9699	225.586	85.897	225.586	85.8685	225.586	85.7606	225.586	85.761	225.586	85.6325	225.586	85.6552	225.586	85.5253	225.586	85.5597	225.586	85.4487	225.586	85.4819	225.586	85.4074	225.586	85.4275	225.586	85.4013
232.91	86.4561	232.91	86.4268	232.91	86.4756	232.91	86.392	232.91	86.4823	232.91	86.3563	232.91	86.4748	232.91	86.3232	232.91	86.4524	232.91	86.2933	232.91	86.4151	232.91	86.2638	232.91	86.3622	232.91	86.2287	232.91	86.2932	232.91	86.1807	232.91	86.2069	232.91	86.1134	232.91	86.103	232.91	86.0238	232.91	85.9826	232.91	85.913	232.91	85.849	232.91	85.7868	232.91	85.7086	232.91	85.6541	232.91	85.5699	232.91	85.5253	232.91	85.4434	232.91	85.4105	232.91	85.3391	232.91	85.318	232.91	85.2649	232.91	85.2538	232.91	85.2255	232.91	85.2221
241.699	86.4401	241.699	86.4002	241.699	86.4619	241.699	86.3439	241.699	86.466	241.699	86.2753	241.699	86.4545	241.699	86.1997	241.699	86.43	241.699	86.1224	241.699	86.3939	241.699	86.0464	241.699	86.3455	241.699	85.9718	241.699	86.2815	241.699	85.8952	241.699	86.1965	241.699	85.812	241.699	86.0847	241.699	85.7184	241.699	85.943	241.699	85.6131	241.699	85.7737	241.699	85.4988	241.699	85.5861	241.699	85.3809	241.699	85.3967	241.699	85.2667	241.699	85.2253	241.699	85.1629	241.699	85.0903	241.699	85.0754	241.699	85.0029	241.699	85.009	241.699	84.9645	241.699	84.9695
250.488	86.8221	250.488	86.8104	250.488	86.8097	250.488	86.7739	250.488	86.7755	250.488	86.7138	250.488	86.7233	250.488	86.6328	250.488	86.6571	250.488	86.5342	250.488	86.5803	250.488	86.4201	250.488	86.4946	250.488	86.2907	250.488	86.3998	250.488	86.144	250.488	86.2945	250.488	85.9775	250.488	86.1766	250.488	85.7914	250.488	86.0448	250.488	85.5913	250.488	85.8993	250.488	85.3896	250.488	85.7426	250.488	85.2037	250.488	85.5792	250.488	85.0515	250.488	85.4159	250.488	84.9459	250.488	85.261	250.488	84.8923	250.488	85.1232	250.488	84.8889	250.488	85.0107	250.488	84.9305
259.277	86.5301	259.277	86.4959	259.277	86.5413	259.277	86.4417	259.277	86.5287	259.277	86.3726	259.277	86.4942	259.277	86.2939	259.277	86.441	259.277	86.21	259.277	86.3725	259.277	86.1234	259.277	86.2903	259.277	86.0344	259.277	86.1937	259.277	85.9416	259.277	86.0799	259.277	85.8423	259.277	85.9466	259.277	85.7343	259.277	85.7947	259.277	85.6177	259.277	85.631	259.277	85.4957	259.277	85.4679	259.277	85.3755	259.277	85.3208	259.277	85.2664	259.277	85.2029	259.277	85.1772	259.277	85.1207	259.277	85.1125	259.277	85.0725	259.277	85.072	259.277	85.0519	259.277	85.0525
268.066	86.6058	268.066	86.5692	268.066	86.62	268.066	86.5106	268.066	86.6121	268.066	86.4321	268.066	86.5827	268.066	86.3378	268.066	86.5318	268.066	86.2321	268.066	86.4595	268.066	86.1176	268.066	86.3671	268.066	85.9933	268.066	86.2571	268.066	85.855	268.066	86.1332	268.066	85.6986	268.066	85.9992	268.066	85.5244	268.066	85.8582	268.066	85.3409	268.066	85.7128	268.066	85.1649	268.066	85.5658	268.066	85.0166	268.066	85.4217	268.066	84.9123	268.066	85.2866	268.066	84.8579	268.066	85.1666	268.066	84.8481	268.066	85.0654	268.066	84.872	268.066	84.9834	268.066	84.9188
276.855	86.6278	276.855	86.6447	276.855	86.5864	276.855	86.6323	276.855	86.5277	276.855	86.5887	276.855	86.46	276.855	86.5145	276.855	86.3892	276.855	86.4127	276.855	86.3165	276.855	86.2889	276.855	86.2362	276.855	86.1508	276.855	86.1391	276.855	86.0061	276.855	86.0163	276.855	85.8602	276.855	85.8649	276.855	85.7141	276.855	85.6902	276.855	85.5661	276.855	85.5056	276.855	85.4148	276.855	85.3288	276.855	85.2646	276.855	85.1758	276.855	85.1259	276.855	85.0561	276.855	85.0125	276.855	84.9713	276.855	84.9336	276.855	84.917	276.855	84.8904	276.855	84.8866	276.855	84.877
287.109	86.5908	287.109	86.5752	287.109	86.5605	287.109	86.5166	287.109	86.4876	287.109	86.4228	287.109	86.3821	287.109	86.3037	287.109	86.2594	287.109	86.1692	287.109	86.136	287.109	86.0273	287.109	86.0247	287.109	85.8842	287.109	85.9294	287.109	85.7441	287.109	85.8434	287.109	85.6105	287.109	85.7533	287.109	85.4854	287.109	85.6463	287.109	85.3699	287.109	85.5183	287.109	85.2645	287.109	85.3772	287.109	85.1704	287.109	85.2403	287.109	85.0905	287.109	85.1254	287.109	85.0285	287.109	85.0426	287.109	84.9865	287.109	84.9917	287.109	84.9636	287.109	84.9656	287.109	84.9572
297.363	86.7929	297.363	86.7612	297.363	86.7851	297.363	86.6994	297.363	86.7309	297.363	86.618	297.363	86.6274	297.363	86.5251	297.363	86.4751	297.363	86.4226	297.363	86.2788	297.363	86.3043	297.363	86.0473	297.363	86.1578	297.363	85.7941	297.363	85.9712	297.363	85.5365	297.363	85.7431	297.363	85.2938	297.363	85.4895	297.363	85.0836	297.363	85.2442	297.363	84.9185	297.363	85.0483	297.363	84.8046	297.363	84.9307	297.363	84.7435	297.363	84.8923	297.363	84.7327	297.363	84.907	297.363	84.7641	297.363	84.9374	297.363	84.8227	297.363	84.9521	297.363	84.8869	297.363	84.9349
307.617	86.6649	307.617	86.5849	307.617	86.7018	307.617	86.4627	307.617	86.6982	307.617	86.3032	307.617	86.6583	307.617	86.116	307.617	86.5864	307.617	85.9142	307.617	86.485	307.617	85.7109	307.617	86.3529	307.617	85.5149	307.617	86.1858	307.617	85.3268	307.617	85.978	307.617	85.1405	307.617	85.7266	307.617	84.9495	307.617	85.4366	307.617	84.7561	307.617	85.1246	307.617	84.5751	307.617	84.8189	307.617	84.4289	307.617	84.5533	307.617	84.3337	307.617	84.3568	307.617	84.2876	307.617	84.2423	307.617	84.2705	307.617	84.2015	307.617	84.2578	307.617	84.2094	307.617	84.2356
319.336	86.7273	319.336	86.6828	319.336	86.7277	319.336	86.5942	319.336	86.6855	319.336	86.4629	319.336	86.6029	319.336	86.2928	319.336	86.4824	319.336	86.09	319.336	86.3254	319.336	85.8631	319.336	86.1328	319.336	85.6219	319.336	85.9057	319.336	85.375	319.336	85.6486	319.336	85.1276	319.336	85.3729	319.336	84.8834	319.336	85.0977	319.336	84.6489	319.336	84.8475	319.336	84.4399	319.336	84.6451	319.336	84.2797	319.336	84.5033	319.336	84.1893	319.336	84.4208	319.336	84.1725	319.336	84.3831	319.336	84.2101	319.336	84.3683	319.336	84.2697	319.336	84.3536	319.336	84.3221
329.59	86.4914	329.59	86.4549	329.59	86.4859	329.59	86.3792	329.59	86.4391	329.59	86.269	329.59	86.3562	329.59	86.1278	329.59	86.2446	329.59	85.9562	329.59	86.1099	329.59	85.7533	329.59	85.9517	329.59	85.5197	329.59	85.7628	329.59	85.2621	329.59	85.5328	329.59	84.9952	329.59	85.2567	329.59	84.7399	329.59	84.9438	329.59	84.5174	329.59	84.623	329.59	84.3439	329.59	84.3389	329.59	84.2273	329.59	84.1362	329.59	84.1668	329.59	84.0383	329.59	84.1532	329.59	84.0339	329.59	84.1675	329.59	84.084	329.59	84.1843	329.59	84.1434	329.59	84.18
341.309	86.5532	341.309	86.5167	341.309	86.535	341.309	86.4307	341.309	86.4583	341.309	86.3015	341.309	86.3232	341.309	86.1352	341.309	86.1363	341.309	85.9358	341.309	85.9119	341.309	85.7029	341.309	85.6702	341.309	85.4305	341.309	85.4305	341.309	85.1106	341.309	85.2037	341.309	84.744	341.309	84.9891	341.309	84.3517	341.309	84.7791	341.309	83.9812	341.309	84.5704	341.309	83.6962	341.309	84.3737	341.309	83.5477	341.309	84.2133	341.309	83.5443	341.309	84.1137	341.309	83.6482	341.309	84.0787	341.309	83.799	341.309	84.0823	341.309	83.9414	341.309	84.0814	341.309	84.0393
353.027	86.4673	353.027	86.4303	353.027	86.4774	353.027	86.3645	353.027	86.4604	353.027	86.2686	353.027	86.4104	353.027	86.1438	353.027	86.3161	353.027	85.9929	353.027	86.1641	353.027	85.8182	353.027	85.9438	353.027	85.6199	353.027	85.6524	353.027	85.3949	353.027	85.2975	353.027	85.1399	353.027	84.8984	353.027	84.8575	353.027	84.487	353.027	84.5633	353.027	84.1086	353.027	84.2889	353.027	83.8156	353.027	84.0754	353.027	83.6502	353.027	83.9543	353.027	83.6221	353.027	83.927	353.027	83.7	353.027	83.9594	353.027	83.8254	353.027	83.9991	353.027	83.9386	353.027	83.9996
366.211	86.9078	366.211	86.8396	366.211	86.9107	366.211	86.7115	366.211	86.851	366.211	86.5338	366.211	86.7394	366.211	86.3169	366.211	86.5898	366.211	86.0672	366.211	86.4116	366.211	85.7858	366.211	86.2048	366.211	85.4696	366.211	85.9615	366.211	85.1161	366.211	85.673	366.211	84.7321	366.211	85.3367	366.211	84.341	366.211	84.9602	366.211	83.9841	366.211	84.5607	366.211	83.7081	366.211	84.1648	366.211	83.5424	366.211	83.8094	366.211	83.4807	366.211	83.5377	366.211	83.4843	366.211	83.3823	366.211	83.503	366.211	83.344	366.211	83.497	366.211	83.3858	366.211	83.4521
379.395	86.6537	379.395	86.6252	379.395	86.6241	379.395	86.5417	379.395	86.539	379.395	86.4092	379.395	86.408	379.395	86.2344	379.395	86.2454	379.395	86.0223	379.395	86.0658	379.395	85.7737	379.395	85.8755	379.395	85.4842	379.395	85.6677	379.395	85.1449	379.395	85.4239	379.395	84.7491	379.395	85.1263	379.395	84.3073	379.395	84.7757	379.395	83.8647	379.395	84.4066	379.395	83.5038	379.395	84.0861	379.395	83.3127	379.395	83.8849	379.395	83.3261	379.395	83.832	379.395	83.4959	379.395	83.893	379.395	83.7258	379.395	83.9936	379.395	83.9264	379.395	84.06	379.395	84.0434
392.578	86.3999	392.578	86.3275	392.578	86.4184	392.578	86.2081	392.578	86.3806	392.578	86.0525	392.578	86.2876	392.578	85.8725	392.578	86.1422	392.578	85.6764	392.578	85.9478	392.578	85.4648	392.578	85.7081	392.578	85.2303	392.578	85.4245	392.578	84.961	392.578	85.0957	392.578	84.6471	392.578	84.7187	392.578	84.291	392.578	84.2972	392.578	83.9162	392.578	83.8555	392.578	83.5737	392.578	83.4505	392.578	83.3317	392.578	83.1635	392.578	83.2413	392.578	83.0589	392.578	83.2959	392.578	83.1331	392.578	83.4265	392.578	83.3081	392.578	83.5403	392.578	83.479	392.578	83.5661
405.762	86.5326	405.762	86.4953	405.762	86.4954	405.762	86.3817	405.762	86.394	405.762	86.1987	405.762	86.2451	405.762	85.958	405.762	86.0653	405.762	85.672	405.762	85.8633	405.762	85.3487	405.762	85.6356	405.762	84.9909	405.762	85.3705	405.762	84.5998	405.762	85.056	405.762	84.1831	405.762	84.6879	405.762	83.7626	405.762	84.2716	405.762	83.3765	405.762	83.8243	405.762	83.0705	405.762	83.3798	405.762	82.8804	405.762	82.9951	405.762	82.8132	405.762	82.738	405.762	82.8393	405.762	82.6478	405.762	82.9013	405.762	82.6991	405.762	82.9377	405.762	82.8133	405.762	82.9085
420.41	86.2784	420.41	86.2364	420.41	86.2864	420.41	86.1634	420.41	86.2595	420.41	86.0616	420.41	86.2009	420.41	85.9309	420.41	86.1187	420.41	85.7672	420.41	86.02	420.41	85.5604	420.41	85.8997	420.41	85.2955	420.41	85.7333	420.41	84.9558	420.41	85.4805	420.41	84.5328	420.41	85.103	420.41	84.0378	420.41	84.5895	420.41	83.515	420.41	83.9775	420.41	83.0435	420.41	83.3642	420.41	82.716	420.41	82.8845	420.41	82.5878	420.41	82.6415	420.41	82.6361	420.41	82.633	420.41	82.774	420.41	82.758	420.41	82.9021	420.41	82.8921	420.41	82.9497
435.059	86.2072	435.059	86.1928	435.059	86.1646	435.059	86.1244	435.059	86.0692	435.059	86.0091	435.059	85.9362	435.059	85.8537	435.059	85.7888	435.059	85.6595	435.059	85.6456	435.059	85.4147	435.059	85.5034	435.059	85.0909	435.059	85.3298	435.059	84.6519	435.059	85.0767	435.059	84.0757	435.059	84.7082	435.059	83.387	435.059	84.2247	435.059	82.6888	435.059	83.6754	435.059	82.1593	435.059	83.1558	435.059	81.9637	435.059	82.7833	435.059	82.1213	435.059	82.6459	435.059	82.4916	435.059	82.7432	435.059	82.8898	435.059	82.9743	435.059	83.1772	435.059	83.1936	435.059	83.281
451.172	86.4042	451.172	86.3449	451.172	86.3671	451.172	86.2033	451.172	86.237	451.172	86.0105	451.172	86.0338	451.172	85.8111	451.172	85.7922	451.172	85.6501	451.172	85.5557	451.172	85.5489	451.172	85.3622	451.172	85.4825	451.172	85.2211	451.172	85.378	451.172	85.0952	451.172	85.1391	451.172	84.9068	451.172	84.6784	451.172	84.5682	451.172	83.9467	451.172	84.0193	451.172	82.967	451.172	83.2657	451.172	81.8911	451.172	82.4169	451.172	81.0315	451.172	81.6887	451.172	80.6879	451.172	81.2878	451.172	80.8182	451.172	81.2194	451.172	81.1012	451.172	81.2868	451.172	81.2796
465.82	85.3406	465.82	85.3423	465.82	85.2497	465.82	85.2786	465.82	85.0665	465.82	85.185	465.82	84.8175	465.82	85.1002	465.82	84.5649	465.82	85.0564	465.82	84.3959	465.82	85.0689	465.82	84.3818	465.82	85.1231	465.82	84.5216	465.82	85.1675	465.82	84.728	465.82	85.1224	465.82	84.871	465.82	84.9033	465.82	84.8305	465.82	84.4427	465.82	84.5207	465.82	83.7066	465.82	83.8973	465.82	82.7079	465.82	82.9654	465.82	81.5283	465.82	81.8035	465.82	80.3424	465.82	80.5904	465.82	79.3909	465.82	79.578	465.82	78.8468	465.82	78.9482	465.82	78.7141
483.398	88.1082	483.398	87.8419	483.398	88.1572	483.398	87.3535	483.398	87.9857	483.398	86.6368	483.398	87.5803	483.398	85.702	483.398	86.9217	483.398	84.6151	483.398	85.9977	483.398	83.5709	483.398	84.8395	483.398	82.9323	483.398	83.6072	483.398	83.0052	483.398	82.7019	483.398	83.6669	483.398	82.6045	483.398	84.5095	483.398	83.2866	483.398	85.2257	483.398	84.2315	483.398	85.6928	483.398	85.0303	483.398	85.9041	483.398	85.5374	483.398	85.9123	483.398	85.76	483.398	85.7985	483.398	85.7741	483.398	85.6501	483.398	85.6789	483.398	85.5401	483.398	85.5685	483.398	85.5112
499.512	88.0964	499.512	88.0225	499.512	88.0667	499.512	87.8286	499.512	87.9407	499.512	87.4919	499.512	87.7161	499.512	86.9878	499.512	87.3814	499.512	86.2958	499.512	86.9154	499.512	85.4082	499.512	86.2882	499.512	84.3473	499.512	85.4704	499.512	83.2114	499.512	84.4656	499.512	82.2515	499.512	83.3843	499.512	81.8572	499.512	82.5382	499.512	82.2189	499.512	82.344	499.512	83.0625	499.512	82.8737	499.512	83.9794	499.512	83.7499	499.512	84.7405	499.512	84.5974	499.512	85.2883	499.512	85.2482	499.512	85.6473	499.512	85.6712	499.512	85.8582	499.512	85.89	499.512	85.9421
517.09	86.8278	517.09	86.7996	517.09	86.8041	517.09	86.7167	517.09	86.7207	517.09	86.5633	517.09	86.5644	517.09	86.3126	517.09	86.3218	517.09	85.933	517.09	85.9834	517.09	85.3976	517.09	85.5409	517.09	84.6934	517.09	84.9796	517.09	83.8352	517.09	84.2758	517.09	82.8991	517.09	83.4222	517.09	82.0831	517.09	82.494	517.09	81.703	517.09	81.7316	517.09	81.9448	517.09	81.4821	517.09	82.6171	517.09	81.8658	517.09	83.3689	517.09	82.62	517.09	83.9829	517.09	83.4083	517.09	84.396	517.09	84.0402	517.09	84.6116	517.09	84.4501	517.09	84.6343
536.133	86.8908	536.133	86.7956	536.133	86.9074	536.133	86.6274	536.133	86.8392	536.133	86.3832	536.133	86.6807	536.133	86.0452	536.133	86.423	536.133	85.5799	536.133	86.0515	536.133	84.9466	536.133	85.5517	536.133	84.1127	536.133	84.9149	536.133	83.0783	536.133	84.1378	536.133	81.9052	536.133	83.2184	536.133	80.7541	536.133	82.183	536.133	79.9296	536.133	81.1802	536.133	79.8184	536.133	80.5697	536.133	80.5234	536.133	80.6917	536.133	81.6534	536.133	81.4064	536.133	82.7252	536.133	82.2792	536.133	83.4758	536.133	83.0288	536.133	83.8388	536.133	83.5625	536.133	83.8476
555.176	86.6308	555.176	86.563	555.176	86.6198	555.176	86.4357	555.176	86.5247	555.176	86.2726	555.176	86.3559	555.176	86.0858	555.176	86.134	555.176	85.8597	555.176	85.8727	555.176	85.5459	555.176	85.5587	555.176	85.068	555.176	85.1426	555.176	84.3387	555.176	84.5555	555.176	83.29	555.176	83.7463	555.176	81.9413	555.176	82.7345	555.176	80.5436	555.176	81.6816	555.176	79.6916	555.176	80.9386	555.176	79.8491	555.176	80.8486	555.176	80.6929	555.176	81.3474	555.176	81.6493	555.176	82.0499	555.176	82.4234	555.176	82.6518	555.176	82.9206	555.176	83.0227	555.176	83.1187
574.219	86.4425	574.219	86.3341	574.219	86.4615	574.219	86.1291	574.219	86.4026	574.219	85.8335	574.219	86.2741	574.219	85.4689	574.219	86.0735	574.219	85.061	574.219	85.7819	574.219	84.6188	574.219	85.3662	574.219	84.1198	574.219	84.7956	574.219	83.5146	574.219	84.0612	574.219	82.7507	574.219	83.1797	574.219	81.8108	574.219	82.1909	574.219	80.7789	574.219	81.1944	574.219	79.94	574.219	80.4613	574.219	79.7492	574.219	80.3991	574.219	80.3653	574.219	81.0656	574.219	81.3816	574.219	82.0062	574.219	82.3251	574.219	82.7845	574.219	82.9739	574.219	83.217	574.219	83.2751
594.727	86.5172	594.727	86.4236	594.727	86.5474	594.727	86.282	594.727	86.5038	594.727	86.1102	594.727	86.3755	594.727	85.9103	594.727	86.152	594.727	85.6455	594.727	85.8307	594.727	85.2435	594.727	85.4138	594.727	84.6329	594.727	84.8865	594.727	83.7812	594.727	84.1945	594.727	82.7066	594.727	83.2493	594.727	81.4755	594.727	81.9836	594.727	80.2656	594.727	80.4649	594.727	79.5016	594.727	79.0664	594.727	79.6518	594.727	78.4982	594.727	80.5754	594.727	79.1732	594.727	81.7003	594.727	80.6038	594.727	82.6415	594.727	82.0287	594.727	83.2374	594.727	83.0005	594.727	83.389
615.234	85.8772	615.234	85.8752	615.234	85.8358	615.234	85.8252	615.234	85.7591	615.234	85.7234	615.234	85.6686	615.234	85.5789	615.234	85.5931	615.234	85.4071	615.234	85.5378	615.234	85.1847	615.234	85.454	615.234	84.8163	615.234	85.2399	615.234	84.1613	615.234	84.7696	615.234	83.0926	615.234	83.9226	615.234	81.559	615.234	82.6055	615.234	79.7207	615.234	80.8424	615.234	78.298	615.234	79.1278	615.234	78.3875	615.234	78.6666	615.234	79.6871	615.234	79.6359	615.234	81.0321	615.234	80.8377	615.234	81.9265	615.234	81.6902	615.234	82.349	615.234	82.1865	615.234	82.4067
637.207	86.1976	637.207	86.0222	637.207	86.2151	637.207	85.7431	637.207	86.0802	637.207	85.4532	637.207	85.8469	637.207	85.2333	637.207	85.5903	637.207	85.1103	637.207	85.3694	637.207	85.0479	637.207	85.1876	637.207	84.9456	637.207	84.9821	637.207	84.6424	637.207	84.6546	637.207	83.9533	637.207	84.0981	637.207	82.7267	637.207	83.1821	637.207	80.9109	637.207	81.7416	637.207	78.7426	637.207	79.7309	637.207	77.2778	637.207	77.9082	637.207	77.8514	637.207	78.0678	637.207	79.5866	637.207	79.6951	637.207	81.1227	637.207	81.1511	637.207	82.0435	637.207	82.0259	637.207	82.3274
659.18	85.7729	659.18	85.645	659.18	85.7408	659.18	85.3672	659.18	85.5709	659.18	84.9916	659.18	85.312	659.18	84.6058	659.18	85.0306	659.18	84.2907	659.18	84.7877	659.18	84.0648	659.18	84.6134	659.18	83.8663	659.18	84.4858	659.18	83.5711	659.18	84.3083	659.18	83.0106	659.18	83.9118	659.18	82.0023	659.18	83.106	659.18	80.4448	659.18	81.762	659.18	78.6133	659.18	79.9583	659.18	77.6878	659.18	78.3814	659.18	78.6077	659.18	78.4081	659.18	80.271	659.18	79.9222	659.18	81.6604	659.18	81.4922	659.18	82.5157	659.18	82.4755	659.18	82.7991
682.617	86.0587	682.617	85.8735	682.617	86.0735	682.617	85.5507	682.617	85.8996	682.617	85.1339	682.617	85.55	682.617	84.6877	682.617	85.0814	682.617	84.2954	682.617	84.5922	682.617	84.0076	682.617	84.1884	682.617	83.777	682.617	83.9003	682.617	83.4625	682.617	83.6141	682.617	82.8842	682.617	83.1203	682.617	81.8574	682.617	82.2344	682.617	80.2388	682.617	80.8986	682.617	78.2007	682.617	79.3153	682.617	77.0299	682.617	78.1933	682.617	78.0945	682.617	78.4403	682.617	79.9906	682.617	79.7842	682.617	81.464	682.617	81.2127	682.617	82.3051	682.617	82.1775	682.617	82.5414
707.52	86.295	707.52	86.1285	707.52	86.2789	707.52	85.7984	707.52	86.0777	707.52	85.3231	707.52	85.7313	707.52	84.7459	707.52	85.326	707.52	84.1853	707.52	84.9562	707.52	83.7978	707.52	84.6683	707.52	83.6135	707.52	84.4506	707.52	83.4581	707.52	84.2568	707.52	83.0694	707.52	83.9656	707.52	82.2068	707.52	83.3421	707.52	80.6905	707.52	82.0948	707.52	78.5081	707.52	79.9659	707.52	76.2531	707.52	77.0813	707.52	75.649	707.52	75.5136	707.52	77.1214	707.52	77.1428	707.52	78.9725	707.52	79.2299	707.52	80.2976	707.52	80.4985	707.52	80.8412
732.422	86.2765	732.422	86.0007	732.422	86.2615	732.422	85.4402	732.422	85.9977	732.422	84.6997	732.422	85.5442	732.422	83.988	732.422	84.9879	732.422	83.5174	732.422	84.4657	732.422	83.3643	732.422	84.1229	732.422	83.4383	732.422	83.9883	732.422	83.524	732.422	83.9226	732.422	83.343	732.422	83.7158	732.422	82.6525	732.422	83.1559	732.422	81.2929	732.422	81.9972	732.422	79.2235	732.422	79.9406	732.422	77.0824	732.422	76.9405	732.422	77.1087	732.422	75.1427	732.422	79.0803	732.422	77.029	732.422	80.7007	732.422	79.2868	732.422	81.4213	732.422	80.6838	732.422	81.3716
757.324	86.58	757.324	86.5637	757.324	86.4428	757.324	86.3924	757.324	86.1335	757.324	86.0722	757.324	85.6324	757.324	85.6492	757.324	84.9854	757.324	85.2073	757.324	84.3526	757.324	84.8224	757.324	83.944	757.324	84.5256	757.324	83.8445	757.324	84.2875	757.324	83.918	757.324	83.9613	757.324	83.8977	757.324	83.2587	757.324	83.512	757.324	81.8437	757.324	82.5641	757.324	79.5184	757.324	80.9657	757.324	76.9701	757.324	78.784	757.324	76.8647	757.324	76.8454	757.324	78.9327	757.324	77.2942	757.324	80.711	757.324	79.3785	757.324	81.6295	757.324	80.9947	757.324	81.7228
785.156	86.6661	785.156	86.387	785.156	86.6702	785.156	85.8979	785.156	86.3512	785.156	85.2234	785.156	85.7188	785.156	84.3702	785.156	84.8345	785.156	83.442	785.156	83.8258	785.156	82.6876	785.156	82.9681	785.156	82.3111	785.156	82.6022	785.156	82.2977	785.156	82.7076	785.156	82.4209	785.156	82.8726	785.156	82.2155	785.156	82.7242	785.156	81.1094	785.156	81.9889	785.156	78.5895	785.156	80.3524	785.156	74.4572	785.156	77.6022	785.156	72.6341	785.156	75.0209	785.156	76.1217	785.156	76.0356	785.156	78.8457	785.156	78.4387	785.156	80.2252	785.156	80.0111	785.156	80.5848
811.523	87.6277	811.523	87.6367	811.523	87.4714	811.523	87.3934	811.523	87.2243	811.523	86.8364	811.523	86.8431	811.523	86.0138	811.523	86.238	811.523	85.1208	811.523	85.3926	811.523	84.4829	811.523	84.4732	811.523	84.298	811.523	83.8594	811.523	84.338	811.523	83.8644	811.523	84.223	811.523	84.2732	811.523	83.7575	811.523	84.5229	811.523	82.8523	811.523	84.1344	811.523	81.3953	811.523	82.7455	811.523	79.41	811.523	80.0537	811.523	77.8288	811.523	76.4133	811.523	78.3121	811.523	75.2937	811.523	79.7444	811.523	77.3863	811.523	80.5073	811.523	79.2449	811.523	80.3064
840.82	88.1932	840.82	88.021	840.82	88.1252	840.82	87.6213	840.82	87.8282	840.82	87.0179	840.82	87.3166	840.82	86.2503	840.82	86.6054	840.82	85.4341	840.82	85.7747	840.82	84.7397	840.82	84.996	840.82	84.2383	840.82	84.3731	840.82	83.9176	840.82	83.8873	840.82	83.7762	840.82	83.7174	840.82	83.6347	840.82	84.081	840.82	83.0555	840.82	84.4958	840.82	81.611	840.82	84.2189	840.82	79.2252	840.82	82.8968	840.82	77.171	840.82	80.8364	840.82	78.2334	840.82	80.0189	840.82	80.761	840.82	81.4212	840.82	82.5288	840.82	82.7826	840.82	83.1869
870.117	88.2502	870.117	88.0683	870.117	88.2126	870.117	87.7444	870.117	87.9036	870.117	87.3208	870.117	87.3218	870.117	86.7437	870.117	86.4992	870.117	85.9336	870.117	85.4559	870.117	84.9339	870.117	84.2793	870.117	84.0326	870.117	83.3481	870.117	83.7108	870.117	83.0532	870.117	83.9282	870.117	83.0279	870.117	83.845	870.117	82.6874	870.117	82.7351	870.117	81.9208	870.117	80.4977	870.117	80.7837	870.117	78.3632	870.117	79.2188	870.117	78.5232	870.117	77.7887	870.117	80.0293	870.117	78.2792	870.117	81.5071	870.117	80.3465	870.117	82.5733	870.117	82.1094	870.117	82.8656
900.879	88.4378	900.879	88.4089	900.879	88.2716	900.879	88.1031	900.879	87.9473	900.879	87.4784	900.879	87.4349	900.879	86.6086	900.879	86.679	900.879	85.6589	900.879	85.6868	900.879	84.7771	900.879	84.6593	900.879	84.0423	900.879	83.9582	900.879	83.4951	900.879	83.6005	900.879	83.1247	900.879	83.2316	900.879	82.7466	900.879	82.7675	900.879	81.9441	900.879	82.1726	900.879	80.195	900.879	80.9221	900.879	77.1476	900.879	78.5027	900.879	74.8641	900.879	75.7152	900.879	77.752	900.879	75.8575	900.879	80.988	900.879	78.3759	900.879	82.5237	900.879	80.8263	900.879	82.3764
933.105	87.6303	933.105	87.6403	933.105	87.4539	933.105	87.3609	933.105	87.1857	933.105	86.7661	933.105	86.7833	933.105	85.9791	933.105	86.138	933.105	85.1562	933.105	85.157	933.105	84.3155	933.105	83.9197	933.105	83.3776	933.105	82.8715	933.105	82.5121	933.105	82.5007	933.105	82.147	933.105	82.5763	933.105	82.0989	933.105	82.5914	933.105	81.4688	933.105	82.4268	933.105	79.4314	933.105	81.9459	933.105	75.7818	933.105	80.6228	933.105	73.8308	933.105	78.53	933.105	76.0134	933.105	78.3754	933.105	78.3139	933.105	80.276	933.105	80.1288	933.105	81.4014	933.105	81.2718
965.332	87.8218	965.332	87.6205	965.332	87.8179	965.332	87.2707	965.332	87.5725	965.332	86.7575	965.332	87.0918	965.332	85.9478	965.332	86.3981	965.332	84.7567	965.332	85.5027	965.332	83.514	965.332	84.4088	965.332	82.8931	965.332	83.2288	965.332	82.7959	965.332	82.3178	965.332	82.6796	965.332	81.9432	965.332	82.5532	965.332	81.8333	965.332	82.2041	965.332	81.4255	965.332	80.8025	965.332	80.1686	965.332	77.6737	965.332	77.665	965.332	74.2227	965.332	74.7701	965.332	76.3008	965.332	75.4832	965.332	79.7681	965.332	78.076	965.332	81.4882	965.332	80.113	965.332	81.4262
1,000.49	86.9552	1,000.49	86.8816	1,000.49	86.874	1,000.49	86.5167	1,000.49	86.7664	1,000.49	85.8828	1,000.49	86.5638	1,000.49	85.0555	1,000.49	86.0541	1,000.49	84.006	1,000.49	85.0016	1,000.49	82.6572	1,000.49	83.31	1,000.49	81.0486	1,000.49	81.6082	1,000.49	79.6901	1,000.49	81.3602	1,000.49	79.6837	1,000.49	82.1588	1,000.49	80.631	1,000.49	82.6534	1,000.49	80.9615	1,000.49	82.5421	1,000.49	79.8657	1,000.49	81.6424	1,000.49	76.9248	1,000.49	79.3838	1,000.49	73.0894	1,000.49	75.6572	1,000.49	74.607	1,000.49	75.0336	1,000.49	77.9019	1,000.49	78.0292	1,000.49	79.847	1,000.49	79.9273	1,000.49	80.491
1,035.64	86.37	1,035.64	86.3154	1,035.64	86.3041	1,035.64	86.1601	1,035.64	85.9751	1,035.64	85.7695	1,035.64	85.3457	1,035.64	85.0669	1,035.64	84.5376	1,035.64	84.152	1,035.64	83.6584	1,035.64	83.2663	1,035.64	82.5875	1,035.64	82.5728	1,035.64	81.1401	1,035.64	81.9976	1,035.64	79.676	1,035.64	81.6632	1,035.64	78.8337	1,035.64	81.7962	1,035.64	78.4811	1,035.64	81.7156	1,035.64	78.5097	1,035.64	80.3775	1,035.64	78.5419	1,035.64	77.3913	1,035.64	77.4434	1,035.64	74.2511	1,035.64	74.6172	1,035.64	75.1164	1,035.64	74.1178	1,035.64	78.071	1,035.64	77.6288	1,035.64	80.1386	1,035.64	79.9692	1,035.64	80.7678
1,072.27	86.1044	1,072.27	85.9697	1,072.27	85.8974	1,072.27	85.3951	1,072.27	85.6165	1,072.27	84.7284	1,072.27	85.3014	1,072.27	84.2265	1,072.27	84.8277	1,072.27	83.4879	1,072.27	84.028	1,072.27	82.0297	1,072.27	82.6842	1,072.27	80.0438	1,072.27	80.9506	1,072.27	78.2879	1,072.27	79.8319	1,072.27	77.2779	1,072.27	80.0726	1,072.27	77.7766	1,072.27	80.7472	1,072.27	78.7577	1,072.27	80.6354	1,072.27	78.2308	1,072.27	79.3061	1,072.27	75.1833	1,072.27	76.7243	1,072.27	71.1658	1,072.27	72.8145	1,072.27	73.9801	1,072.27	73.131	1,072.27	76.9405	1,072.27	76.7761	1,072.27	78.5331	1,072.27	78.5694	1,072.27	79.0685
1,108.89	85.6294	1,108.89	85.5742	1,108.89	85.6805	1,108.89	85.3918	1,108.89	85.5353	1,108.89	84.8672	1,108.89	84.9881	1,108.89	84.0752	1,108.89	84.1527	1,108.89	83.188	1,108.89	83.3773	1,108.89	82.152	1,108.89	82.482	1,108.89	81.0788	1,108.89	80.7316	1,108.89	80.0006	1,108.89	78.258	1,108.89	78.4848	1,108.89	76.877	1,108.89	77.2618	1,108.89	76.9445	1,108.89	77.5736	1,108.89	77.6481	1,108.89	77.535	1,108.89	78.1678	1,108.89	75.3267	1,108.89	77.0747	1,108.89	70.4794	1,108.89	73.0864	1,108.89	71.1574	1,108.89	67.7172	1,108.89	75.6785	1,108.89	73.0149	1,108.89	77.8243	1,108.89	76.5787	1,108.89	78.0245
1,148.44	86.0473	1,148.44	85.7748	1,148.44	86.0884	1,148.44	85.203	1,148.44	85.9843	1,148.44	84.3392	1,148.44	85.6866	1,148.44	83.3679	1,148.44	85.0008	1,148.44	82.5425	1,148.44	83.9523	1,148.44	81.7715	1,148.44	82.8122	1,148.44	80.7071	1,148.44	81.3887	1,148.44	79.361	1,148.44	79.5914	1,148.44	78.4714	1,148.44	78.7151	1,148.44	78.3975	1,148.44	79.1848	1,148.44	78.5594	1,148.44	79.5449	1,148.44	78.2661	1,148.44	79.0348	1,148.44	76.3623	1,148.44	77.4285	1,148.44	72.313	1,148.44	74.0788	1,148.44	72.0533	1,148.44	69.5418	1,148.44	75.0402	1,148.44	73.3352	1,148.44	76.5033	1,148.44	76.4669	1,148.44	77.0915
1,189.45	86.492	1,189.45	86.2361	1,189.45	86.4744	1,189.45	85.7575	1,189.45	86.0433	1,189.45	84.9444	1,189.45	85.2029	1,189.45	83.8578	1,189.45	84.1506	1,189.45	82.7093	1,189.45	83.094	1,189.45	81.2203	1,189.45	81.965	1,189.45	79.6827	1,189.45	80.5977	1,189.45	79.4207	1,189.45	79.14	1,189.45	79.0169	1,189.45	77.8703	1,189.45	77.5397	1,189.45	77.6339	1,189.45	77.6152	1,189.45	78.3307	1,189.45	78.6434	1,189.45	78.3223	1,189.45	77.778	1,189.45	77.1834	1,189.45	75.1211	1,189.45	74.9745	1,189.45	73.754	1,189.45	73.6853	1,189.45	75.9686	1,189.45	75.3308	1,189.45	77.6688	1,189.45	76.5805	1,189.45	77.5391
1,230.47	85.7217	1,230.47	85.6093	1,230.47	85.7766	1,230.47	85.2995	1,230.47	85.7654	1,230.47	84.631	1,230.47	85.625	1,230.47	83.6638	1,230.47	85.0751	1,230.47	82.5726	1,230.47	83.9119	1,230.47	81.4639	1,230.47	82.6523	1,230.47	80.0968	1,230.47	81.4686	1,230.47	78.3796	1,230.47	79.6777	1,230.47	77.99	1,230.47	78.0907	1,230.47	78.4537	1,230.47	77.239	1,230.47	77.439	1,230.47	75.8653	1,230.47	75.615	1,230.47	75.0674	1,230.47	73.0088	1,230.47	74.4396	1,230.47	68.1731	1,230.47	72.2192	1,230.47	72.403	1,230.47	69.9449	1,230.47	75.8404	1,230.47	73.9722	1,230.47	77.2524	1,230.47	77.5037	1,230.47	78.1409
1,274.41	85.7788	1,274.41	85.5245	1,274.41	85.5869	1,274.41	84.8988	1,274.41	85.2	1,274.41	84.1293	1,274.41	84.7022	1,274.41	83.1348	1,274.41	83.8752	1,274.41	81.9172	1,274.41	82.7632	1,274.41	80.6792	1,274.41	81.58	1,274.41	79.2089	1,274.41	80.0664	1,274.41	77.9249	1,274.41	78.5729	1,274.41	77.3744	1,274.41	77.9657	1,274.41	77.0462	1,274.41	77.3205	1,274.41	77.1772	1,274.41	77.0984	1,274.41	76.8577	1,274.41	77.0123	1,274.41	75.1924	1,274.41	75.3013	1,274.41	73.2839	1,274.41	71.9066	1,274.41	73.2522	1,274.41	70.2766	1,274.41	75.2064	1,274.41	74.7389	1,274.41	77.1365	1,274.41	77.4415	1,274.41	77.8558
1,319.82	84.3473	1,319.82	84.37	1,319.82	84.5747	1,319.82	84.431	1,319.82	84.6534	1,319.82	83.844	1,319.82	84.3322	1,319.82	82.5313	1,319.82	83.5653	1,319.82	81.179	1,319.82	82.3622	1,319.82	79.9082	1,319.82	80.8987	1,319.82	78.2522	1,319.82	79.2941	1,319.82	77.218	1,319.82	77.4046	1,319.82	77.4417	1,319.82	75.8551	1,319.82	77.4816	1,319.82	75.8827	1,319.82	76.1985	1,319.82	75.8923	1,319.82	73.2077	1,319.82	74.2413	1,319.82	69.9005	1,319.82	71.5472	1,319.82	68.3981	1,319.82	69.6299	1,319.82	71.8399	1,319.82	71.8255	1,319.82	75.6617	1,319.82	75.2201	1,319.82	77.1177	1,319.82	76.7499	1,319.82	77.2277
1,366.7	85.1964	1,366.7	84.6709	1,366.7	84.9957	1,366.7	83.6604	1,366.7	84.2626	1,366.7	82.8218	1,366.7	83.2825	1,366.7	82.0619	1,366.7	82.298	1,366.7	80.782	1,366.7	81.1594	1,366.7	79.236	1,366.7	79.7015	1,366.7	77.4814	1,366.7	77.7987	1,366.7	75.3214	1,366.7	74.4774	1,366.7	74.3596	1,366.7	72.1871	1,366.7	74.6913	1,366.7	75.0264	1,366.7	74.8725	1,366.7	76.502	1,366.7	73.2802	1,366.7	75.7607	1,366.7	67.0959	1,366.7	72.5328	1,366.7	63.6169	1,366.7	65.6354	1,366.7	70.3982	1,366.7	64.5425	1,366.7	73.9124	1,366.7	72.9272	1,366.7	76.3627	1,366.7	77.0189	1,366.7	77.6944
1,413.57	83.1166	1,413.57	82.8919	1,413.57	83.157	1,413.57	82.533	1,413.57	82.7454	1,413.57	81.6185	1,413.57	82.0999	1,413.57	80.5075	1,413.57	81.3624	1,413.57	79.6282	1,413.57	80.4375	1,413.57	78.2136	1,413.57	79.2692	1,413.57	75.735	1,413.57	77.761	1,413.57	73.6879	1,413.57	75.7588	1,413.57	73.5957	1,413.57	73.1769	1,413.57	74.3873	1,413.57	72.8446	1,413.57	75.4509	1,413.57	75.4011	1,413.57	75.176	1,413.57	76.2552	1,413.57	72.2314	1,413.57	74.0131	1,413.57	62.1919	1,413.57	66.9569	1,413.57	67.5255	1,413.57	64.9891	1,413.57	74.6617	1,413.57	72.673	1,413.57	76.237	1,413.57	75.7538	1,413.57	76.3794
1,463.38	84.3016	1,463.38	83.9293	1,463.38	84.0659	1,463.38	82.8936	1,463.38	83.3966	1,463.38	81.5563	1,463.38	82.5356	1,463.38	80.5505	1,463.38	81.7988	1,463.38	79.7688	1,463.38	81.1753	1,463.38	78.7724	1,463.38	80.5173	1,463.38	76.8853	1,463.38	79.7674	1,463.38	73.4048	1,463.38	77.7542	1,463.38	69.3952	1,463.38	73.4571	1,463.38	71.8983	1,463.38	72.1139	1,463.38	75.2162	1,463.38	74.7359	1,463.38	75.8085	1,463.38	75.8724	1,463.38	72.6558	1,463.38	74.2298	1,463.38	63.4708	1,463.38	67.4825	1,463.38	66.5707	1,463.38	67.1042	1,463.38	74.4855	1,463.38	75.0637	1,463.38	77.6503	1,463.38	77.7265	1,463.38	78.255
1,516.11	84.1613	1,516.11	83.6801	1,516.11	84.2943	1,516.11	83.2275	1,516.11	83.7	1,516.11	82.2605	1,516.11	82.3716	1,516.11	80.1906	1,516.11	81.1612	1,516.11	78.5881	1,516.11	80.3767	1,516.11	78.22	1,516.11	80.1438	1,516.11	77.7051	1,516.11	80.3279	1,516.11	75.8093	1,516.11	79.0291	1,516.11	69.8628	1,516.11	75.3295	1,516.11	69.5099	1,516.11	71.6853	1,516.11	74.7163	1,516.11	74.8746	1,516.11	76.0185	1,516.11	76.9479	1,516.11	74.6058	1,516.11	75.4996	1,516.11	68.3275	1,516.11	69.5012	1,516.11	67.3553	1,516.11	67.3113	1,516.11	75.5134	1,516.11	74.9729	1,516.11	78.362	1,516.11	77.7103	1,516.11	78.5733
1,568.85	84.8558	1,568.85	84.737	1,568.85	84.502	1,568.85	83.9795	1,568.85	84.1641	1,568.85	82.9556	1,568.85	83.5133	1,568.85	81.5973	1,568.85	81.9916	1,568.85	79.4693	1,568.85	80.1154	1,568.85	77.7439	1,568.85	78.4497	1,568.85	78.0811	1,568.85	78.0106	1,568.85	78.4828	1,568.85	78.6461	1,568.85	76.7272	1,568.85	76.8364	1,568.85	69.8622	1,568.85	71.2852	1,568.85	70.7829	1,568.85	73.0132	1,568.85	76.1033	1,568.85	76.7636	1,568.85	76.8103	1,568.85	77.4439	1,568.85	73.5455	1,568.85	75.4514	1,568.85	61.9129	1,568.85	69.878	1,568.85	71.1041	1,568.85	71.7779	1,568.85	76.0219	1,568.85	75.4629	1,568.85	76.6686
1,624.51	83.8606	1,624.51	83.4775	1,624.51	83.4882	1,624.51	82.7639	1,624.51	83.054	1,624.51	82.0089	1,624.51	82.8266	1,624.51	80.7663	1,624.51	81.8612	1,624.51	79.0271	1,624.51	80.1605	1,624.51	77.4843	1,624.51	78.056	1,624.51	76.9034	1,624.51	76.1505	1,624.51	76.6928	1,624.51	76.0278	1,624.51	75.2706	1,624.51	75.0821	1,624.51	72.458	1,624.51	71.6988	1,624.51	72.1688	1,624.51	69.4125	1,624.51	74.6917	1,624.51	72.6959	1,624.51	75.5839	1,624.51	74.9759	1,624.51	73.6825	1,624.51	73.9647	1,624.51	67.8956	1,624.51	69.0341	1,624.51	62.0754	1,624.51	63.0875	1,624.51	69.446	1,624.51	67.0994	1,624.51	69.7862
1,681.64	82.873	1,681.64	82.6779	1,681.64	83.0019	1,681.64	82.1426	1,681.64	82.5682	1,681.64	80.9477	1,681.64	81.738	1,681.64	79.5347	1,681.64	80.8224	1,681.64	77.9028	1,681.64	79.2859	1,681.64	75.7185	1,681.64	77.4352	1,681.64	74.3008	1,681.64	75.5892	1,681.64	74.8231	1,681.64	74.439	1,681.64	74.5176	1,681.64	74.1748	1,681.64	71.6374	1,681.64	71.5808	1,681.64	68.5525	1,681.64	64.7988	1,681.64	73.5641	1,681.64	68.8966	1,681.64	74.5388	1,681.64	72.8005	1,681.64	71.5263	1,681.64	72.552	1,681.64	64.9894	1,681.64	69.0618	1,681.64	65.9127	1,681.64	59.1048	1,681.64	70.2082	1,681.64	66.9549	1,681.64	70.3748
1,741.7	83.156	1,741.7	82.8588	1,741.7	83.1628	1,741.7	82.1399	1,741.7	82.6383	1,741.7	81.2084	1,741.7	81.6204	1,741.7	80.0002	1,741.7	80.7918	1,741.7	78.1063	1,741.7	79.8629	1,741.7	75.9162	1,741.7	78.0233	1,741.7	74.3315	1,741.7	76.0265	1,741.7	73.9953	1,741.7	75.1748	1,741.7	73.238	1,741.7	74.7993	1,741.7	68.6627	1,741.7	73.915	1,741.7	63.9516	1,741.7	71.1522	1,741.7	68.4711	1,741.7	69.79	1,741.7	70.6535	1,741.7	71.9357	1,741.7	68.7109	1,741.7	71.9548	1,741.7	52.7667	1,741.7	67.8509	1,741.7	65.4291	1,741.7	60.5168	1,741.7	70.179	1,741.7	66.7656	1,741.7	71.1508
1,803.22	83.1408	1,803.22	82.8442	1,803.22	83.1447	1,803.22	82.2093	1,803.22	82.7261	1,803.22	81.2148	1,803.22	81.9147	1,803.22	80.0736	1,803.22	81.1021	1,803.22	78.7384	1,803.22	80.2344	1,803.22	77.1473	1,803.22	78.5869	1,803.22	75.647	1,803.22	76.4846	1,803.22	74.1372	1,803.22	75.1934	1,803.22	73.2609	1,803.22	74.6008	1,803.22	71.9046	1,803.22	74.1223	1,803.22	69.8728	1,803.22	71.8386	1,803.22	68.8356	1,803.22	70.1942	1,803.22	71.096	1,803.22	72.5005	1,803.22	71.2883	1,803.22	73.206	1,803.22	67.092	1,803.22	70.4054	1,803.22	38.9278	1,803.22	63.3853	1,803.22	66.3179	1,803.22	65.6437	1,803.22	68.9131
1,866.21	82.6342	1,866.21	82.5154	1,866.21	82.7129	1,866.21	81.849	1,866.21	82.3421	1,866.21	80.8958	1,866.21	81.602	1,866.21	80.2387	1,866.21	80.7361	1,866.21	79.1452	1,866.21	79.5886	1,866.21	77.0712	1,866.21	78.2188	1,866.21	75.2774	1,866.21	76.0221	1,866.21	74.7057	1,866.21	73.7173	1,866.21	73.9371	1,866.21	72.3173	1,866.21	73.1345	1,866.21	71.6029	1,866.21	71.7783	1,866.21	70.6296	1,866.21	70.9265	1,866.21	69.1972	1,866.21	71.3327	1,866.21	70.0131	1,866.21	71.3908	1,866.21	70.9113	1,866.21	69.3959	1,866.21	68.0415	1,866.21	63.5868	1,866.21	64.3558	1,866.21	67.9656	1,866.21	66.6354	1,866.21	69.0734
1,932.13	82.6499	1,932.13	82.0837	1,932.13	82.8259	1,932.13	81.3083	1,932.13	82.3901	1,932.13	80.4445	1,932.13	81.1748	1,932.13	79.402	1,932.13	80.1016	1,932.13	78.521	1,932.13	79.1479	1,932.13	77.108	1,932.13	77.8963	1,932.13	75.3051	1,932.13	76.5551	1,932.13	73.9792	1,932.13	74.7997	1,932.13	73.0424	1,932.13	73.3972	1,932.13	71.7641	1,932.13	72.1548	1,932.13	71.009	1,932.13	71.2497	1,932.13	72.2987	1,932.13	70.5936	1,932.13	71.931	1,932.13	70.6725	1,932.13	70.2104	1,932.13	70.6375	1,932.13	67.4493	1,932.13	68.3774	1,932.13	65.4548	1,932.13	63.2336	1,932.13	67.0952	1,932.13	65.9573	1,932.13	68.9633
1,999.51	83.5938	1,999.51	83.1009	1,999.51	83.6099	1,999.51	82.0553	1,999.51	83.0914	1,999.51	80.6018	1,999.51	82.0792	1,999.51	79.2111	1,999.51	80.5302	1,999.51	78.1435	1,999.51	78.913	1,999.51	77.1496	1,999.51	77.5658	1,999.51	75.7221	1,999.51	76.6891	1,999.51	74.3462	1,999.51	75.885	1,999.51	73.2731	1,999.51	74.6607	1,999.51	72.3698	1,999.51	73.3586	1,999.51	71.0802	1,999.51	72.6583	1,999.51	70.6669	1,999.51	72.2492	1,999.51	71.4637	1,999.51	71.9428	1,999.51	70.5368	1,999.51	71.4259	1,999.51	66.776	1,999.51	69.5492	1,999.51	63.4627	1,999.51	64.8804	1,999.51	68.0862	1,999.51	66.3904	1,999.51	68.6403
2,069.82	84.1231	2,069.82	83.789	2,069.82	84.0273	2,069.82	83.213	2,069.82	83.5678	2,069.82	82.2052	2,069.82	82.7908	2,069.82	80.8707	2,069.82	81.3482	2,069.82	79.2215	2,069.82	79.1694	2,069.82	77.6717	2,069.82	77.0846	2,069.82	76.5425	2,069.82	76.0206	2,069.82	75.5613	2,069.82	75.5686	2,069.82	74.5689	2,069.82	74.3849	2,069.82	73.406	2,069.82	72.739	2,069.82	71.6207	2,069.82	73.0739	2,069.82	73.1323	2,069.82	73.2747	2,069.82	73.7056	2,069.82	73.1365	2,069.82	71.7286	2,069.82	72.8063	2,069.82	67.8046	2,069.82	69.9809	2,069.82	66.2332	2,069.82	65.6163	2,069.82	69.8801	2,069.82	67.1705	2,069.82	70.8884
2,143.07	83.9875	2,143.07	83.7858	2,143.07	83.6574	2,143.07	83.3214	2,143.07	83.1422	2,143.07	82.4361	2,143.07	82.4681	2,143.07	81.5051	2,143.07	81.506	2,143.07	80.4432	2,143.07	80.243	2,143.07	78.6962	2,143.07	78.1234	2,143.07	76.81	2,143.07	75.3509	2,143.07	75.5095	2,143.07	73.91	2,143.07	74.9072	2,143.07	73.9081	2,143.07	73.876	2,143.07	71.6494	2,143.07	72.9443	2,143.07	70.145	2,143.07	73.0995	2,143.07	71.8706	2,143.07	74.3667	2,143.07	72.3347	2,143.07	73.1688	2,143.07	72.7947	2,143.07	69.757	2,143.07	70.6256	2,143.07	69.1818	2,143.07	65.806	2,143.07	71.6124	2,143.07	68.5212	2,143.07	70.9891
2,219.24	84.6326	2,219.24	84.3292	2,219.24	84.4676	2,219.24	83.532	2,219.24	83.8435	2,219.24	82.2195	2,219.24	82.7936	2,219.24	80.9273	2,219.24	81.478	2,219.24	79.6752	2,219.24	80.3267	2,219.24	78.6427	2,219.24	78.9956	2,219.24	76.7734	2,219.24	77.1415	2,219.24	74.4865	2,219.24	74.8878	2,219.24	74.0049	2,219.24	74.3637	2,219.24	73.2306	2,219.24	73.8293	2,219.24	72.1872	2,219.24	70.8611	2,219.24	72.7471	2,219.24	71.3579	2,219.24	74.6166	2,219.24	72.9392	2,219.24	73.6541	2,219.24	73.454	2,219.24	68.5104	2,219.24	71.4008	2,219.24	68.0768	2,219.24	66.6466	2,219.24	71.3057	2,219.24	69.5855	2,219.24	72.3136
2,296.88	85.7637	2,296.88	85.5668	2,296.88	85.6431	2,296.88	84.7421	2,296.88	85.0272	2,296.88	83.714	2,296.88	84.0837	2,296.88	82.4048	2,296.88	82.9551	2,296.88	80.4919	2,296.88	81.949	2,296.88	79.4143	2,296.88	80.5616	2,296.88	78.0694	2,296.88	78.573	2,296.88	75.7528	2,296.88	76.7262	2,296.88	74.096	2,296.88	75.9223	2,296.88	73.7684	2,296.88	74.4795	2,296.88	71.4877	2,296.88	72.5899	2,296.88	72.117	2,296.88	71.687	2,296.88	74.7859	2,296.88	73.302	2,296.88	75.0248	2,296.88	74.9722	2,296.88	70.1349	2,296.88	73.6243	2,296.88	60.676	2,296.88	68.3896	2,296.88	70.3048	2,296.88	68.7087	2,296.88	72.7648
2,378.91	85.4741	2,378.91	85.2305	2,378.91	85.3178	2,378.91	84.7198	2,378.91	84.7909	2,378.91	84.0015	2,378.91	83.8693	2,378.91	82.9444	2,378.91	82.7245	2,378.91	81.9052	2,378.91	81.5025	2,378.91	80.2602	2,378.91	80.2784	2,378.91	79.159	2,378.91	78.313	2,378.91	77.7587	2,378.91	76.2646	2,378.91	75.6481	2,378.91	74.9726	2,378.91	75.2071	2,378.91	75.1497	2,378.91	74.0119	2,378.91	72.1787	2,378.91	71.651	2,378.91	72.2104	2,378.91	74.3325	2,378.91	72.2867	2,378.91	75.2855	2,378.91	73.8618	2,378.91	72.1903	2,378.91	73.088	2,378.91	68.0002	2,378.91	67.5153	2,378.91	71.1206	2,378.91	67.5624	2,378.91	71.151
2,462.4	84.5958	2,462.4	84.1313	2,462.4	84.6523	2,462.4	83.42	2,462.4	84.2518	2,462.4	82.77	2,462.4	83.2556	2,462.4	81.9709	2,462.4	81.9301	2,462.4	80.2878	2,462.4	80.6091	2,462.4	79.5241	2,462.4	79.538	2,462.4	78.7289	2,462.4	77.9546	2,462.4	77.1861	2,462.4	75.7496	2,462.4	76.0565	2,462.4	74.5145	2,462.4	74.5999	2,462.4	73.3509	2,462.4	72.2494	2,462.4	71.9521	2,462.4	71.4992	2,462.4	70.8775	2,462.4	72.7555	2,462.4	70.4426	2,462.4	74.968	2,462.4	69.1682	2,462.4	72.234	2,462.4	72.9656	2,462.4	66.2306	2,462.4	68.9112	2,462.4	67.402	2,462.4	63.7835	2,462.4	69.6964
2,548.83	85.873	2,548.83	85.6465	2,548.83	85.8935	2,548.83	84.8903	2,548.83	85.3851	2,548.83	84.1393	2,548.83	84.5807	2,548.83	82.8718	2,548.83	83.5485	2,548.83	81.6287	2,548.83	82.0451	2,548.83	79.7929	2,548.83	80.956	2,548.83	78.2198	2,548.83	79.6885	2,548.83	76.1883	2,548.83	77.3796	2,548.83	75.8476	2,548.83	75.929	2,548.83	74.797	2,548.83	75.5381	2,548.83	73.4603	2,548.83	73.6695	2,548.83	71.4205	2,548.83	72.2469	2,548.83	71.357	2,548.83	74.1193	2,548.83	74.6103	2,548.83	73.7523	2,548.83	74.1023	2,548.83	73.6896	2,548.83	66.646	2,548.83	71.7474	2,548.83	72.5454	2,548.83	68.2285	2,548.83	72.7357
2,639.65	86.2789	2,639.65	86.1211	2,639.65	86.0683	2,639.65	85.5219	2,639.65	85.6891	2,639.65	84.7579	2,639.65	84.8564	2,639.65	84.0058	2,639.65	83.8916	2,639.65	82.3673	2,639.65	82.7948	2,639.65	80.9652	2,639.65	80.9884	2,639.65	79.3689	2,639.65	79.3381	2,639.65	77.8382	2,639.65	77.3993	2,639.65	76.1857	2,639.65	75.7427	2,639.65	75.216	2,639.65	75.3646	2,639.65	73.8077	2,639.65	73.4653	2,639.65	72.7148	2,639.65	72.8646	2,639.65	72.6001	2,639.65	72.1538	2,639.65	74.3284	2,639.65	73.5933	2,639.65	74.7774	2,639.65	75.4616	2,639.65	69.8754	2,639.65	71.314	2,639.65	69.7908	2,639.65	68.5094	2,639.65	71.8809
2,731.93	85.3219	2,731.93	84.8684	2,731.93	85.0147	2,731.93	84.217	2,731.93	84.4841	2,731.93	83.4215	2,731.93	83.7661	2,731.93	82.5725	2,731.93	83.3205	2,731.93	81.9146	2,731.93	82.6589	2,731.93	79.6921	2,731.93	80.572	2,731.93	78.209	2,731.93	78.824	2,731.93	77.5307	2,731.93	77.4489	2,731.93	75.4603	2,731.93	74.3753	2,731.93	74.933	2,731.93	74.152	2,731.93	73.1018	2,731.93	73.003	2,731.93	72.335	2,731.93	71.7679	2,731.93	70.8761	2,731.93	73.3161	2,731.93	73.314	2,731.93	72.3832	2,731.93	74.0474	2,731.93	72.2913	2,731.93	68.6319	2,731.93	71.5441	2,731.93	70.0536	2,731.93	66.0938	2,731.93	70.9072
2,828.61	85.9023	2,828.61	85.499	2,828.61	85.6479	2,828.61	85.0425	2,828.61	85.2746	2,828.61	83.8354	2,828.61	84.6308	2,828.61	82.8093	2,828.61	83.7073	2,828.61	82.1378	2,828.61	82.6372	2,828.61	80.7151	2,828.61	81.6489	2,828.61	78.8597	2,828.61	80.3996	2,828.61	77.4518	2,828.61	78.5153	2,828.61	75.1081	2,828.61	75.7849	2,828.61	74.0859	2,828.61	73.656	2,828.61	73.6028	2,828.61	73.0301	2,828.61	73.0141	2,828.61	69.1488	2,828.61	71.7904	2,828.61	72.4893	2,828.61	69.8286	2,828.61	71.5021	2,828.61	70.0595	2,828.61	71.881	2,828.61	66.8198	2,828.61	70.8644	2,828.61	65.1851	2,828.61	66.1466	2,828.61	66.1099
2,928.22	86.0495	2,928.22	85.9526	2,928.22	86.0285	2,928.22	85.8008	2,928.22	85.7209	2,928.22	85.0318	2,928.22	85.3631	2,928.22	84.0604	2,928.22	84.4464	2,928.22	82.6641	2,928.22	82.5478	2,928.22	81.3577	2,928.22	81.438	2,928.22	79.7902	2,928.22	80.5824	2,928.22	78.6417	2,928.22	78.5172	2,928.22	76.7778	2,928.22	76.295	2,928.22	74.4916	2,928.22	74.1978	2,928.22	74.7846	2,928.22	73.9663	2,928.22	74.3083	2,928.22	72.9022	2,928.22	73.0348	2,928.22	71.5259	2,928.22	72.6086	2,928.22	70.9862	2,928.22	73.2416	2,928.22	73.9218	2,928.22	67.4386	2,928.22	70.74	2,928.22	63.4574	2,928.22	59.8769	2,928.22	64.1623
3,030.76	84.9823	3,030.76	85.1283	3,030.76	84.8417	3,030.76	84.9733	3,030.76	84.6593	3,030.76	84.7924	3,030.76	84.5279	3,030.76	84.0809	3,030.76	83.7752	3,030.76	83.0021	3,030.76	82.3846	3,030.76	81.3426	3,030.76	81.0973	3,030.76	79.6998	3,030.76	79.4374	3,030.76	78.0509	3,030.76	78.2939	3,030.76	76.8002	3,030.76	76.7363	3,030.76	75.4479	3,030.76	74.2882	3,030.76	73.7113	3,030.76	73.2409	3,030.76	73.7474	3,030.76	72.0285	3,030.76	73.1463	3,030.76	72.7673	3,030.76	71.5279	3,030.76	71.6952	3,030.76	73.4813	3,030.76	73.0289	3,030.76	71.2588	3,030.76	72.5774	3,030.76	64.5854	3,030.76	62.8384	3,030.76	65.4094
3,137.7	84.243	3,137.7	84.5241	3,137.7	84.1565	3,137.7	84.6355	3,137.7	84.001	3,137.7	84.3635	3,137.7	84.1574	3,137.7	83.9187	3,137.7	83.8619	3,137.7	82.9113	3,137.7	83.0851	3,137.7	81.6479	3,137.7	81.6809	3,137.7	79.6841	3,137.7	79.1548	3,137.7	77.3376	3,137.7	77.2441	3,137.7	76.3389	3,137.7	76.4331	3,137.7	74.8136	3,137.7	74.4341	3,137.7	74.0863	3,137.7	74.062	3,137.7	72.9882	3,137.7	72.7385	3,137.7	72.7229	3,137.7	70.4877	3,137.7	72.2632	3,137.7	70.4087	3,137.7	73.2958	3,137.7	72.1791	3,137.7	71.4626	3,137.7	72.1987	3,137.7	66.0298	3,137.7	66.6715	3,137.7	63.3273
3,249.02	83.355	3,249.02	84.282	3,249.02	83.4676	3,249.02	84.3847	3,249.02	83.8918	3,249.02	85.163	3,249.02	84.0536	3,249.02	84.4699	3,249.02	83.9368	3,249.02	83.3059	3,249.02	83.7956	3,249.02	82.1277	3,249.02	82.0693	3,249.02	80.3271	3,249.02	79.8867	3,249.02	76.9347	3,249.02	77.9967	3,249.02	76.5495	3,249.02	76.644	3,249.02	74.0864	3,249.02	74.5258	3,249.02	72.0314	3,249.02	72.7834	3,249.02	72.8479	3,249.02	73.1414	3,249.02	72.8717	3,249.02	71.2793	3,249.02	71.1227	3,249.02	70.1194	3,249.02	72.904	3,249.02	71.9841	3,249.02	71.7835	3,249.02	72.975	3,249.02	61.8018	3,249.02	66.6454	3,249.02	60.2196
3,363.28	82.8532	3,363.28	83.5492	3,363.28	83.0653	3,363.28	84.1899	3,363.28	83.528	3,363.28	84.9771	3,363.28	83.3778	3,363.28	84.9663	3,363.28	83.6035	3,363.28	83.7458	3,363.28	83.2286	3,363.28	82.0045	3,363.28	81.9568	3,363.28	80.4278	3,363.28	79.8885	3,363.28	78.5501	3,363.28	77.8157	3,363.28	76.5106	3,363.28	75.4173	3,363.28	74.8109	3,363.28	74.439	3,363.28	73.6928	3,363.28	72.8447	3,363.28	73.8773	3,363.28	73.2896	3,363.28	73.7628	3,363.28	72.4946	3,363.28	72.5147	3,363.28	69.0537	3,363.28	72.2959	3,363.28	70.164	3,363.28	70.8239	3,363.28	71.9902	3,363.28	62.3345	3,363.28	67.4399	3,363.28	59.5434
3,481.93	83.2228	3,481.93	83.7002	3,481.93	83.3966	3,481.93	84.7791	3,481.93	83.9198	3,481.93	85.1341	3,481.93	84.0992	3,481.93	85.3684	3,481.93	84.4365	3,481.93	83.9076	3,481.93	83.3666	3,481.93	81.8219	3,481.93	82.0598	3,481.93	80.4602	3,481.93	79.9953	3,481.93	78.7617	3,481.93	78.3133	3,481.93	76.3034	3,481.93	75.9693	3,481.93	75.2686	3,481.93	73.6656	3,481.93	73.3167	3,481.93	72.4297	3,481.93	74.0185	3,481.93	71.9295	3,481.93	74.0008	3,481.93	73.5338	3,481.93	72.8997	3,481.93	72.0951	3,481.93	73.0662	3,481.93	70.6413	3,481.93	71.9087	3,481.93	70.9126	3,481.93	67.1512	3,481.93	65.6001	3,481.93	57.9538
3,604.98	82.2639	3,604.98	83.6065	3,604.98	82.0102	3,604.98	85.1139	3,604.98	82.5588	3,604.98	85.4148	3,604.98	84.3875	3,604.98	85.0386	3,604.98	84.3782	3,604.98	84.9535	3,604.98	83.9132	3,604.98	83.1119	3,604.98	82.409	3,604.98	80.5578	3,604.98	80.1661	3,604.98	79.5454	3,604.98	78.2836	3,604.98	78.138	3,604.98	76.2088	3,604.98	76.9671	3,604.98	74.5071	3,604.98	74.6933	3,604.98	71.6197	3,604.98	74.6166	3,604.98	72.2361	3,604.98	74.2534	3,604.98	74.0414	3,604.98	73.5929	3,604.98	73.1809	3,604.98	73.905	3,604.98	71.7188	3,604.98	74.1186	3,604.98	72.5422	3,604.98	69.347	3,604.98	67.8996	3,604.98	62.8144
3,732.42	84.2689	3,732.42	85.3515	3,732.42	83.9662	3,732.42	86.031	3,732.42	84.7744	3,732.42	86.1905	3,732.42	85.3925	3,732.42	85.1854	3,732.42	85.2658	3,732.42	84.7764	3,732.42	84.0486	3,732.42	83.3425	3,732.42	82.5161	3,732.42	80.5948	3,732.42	81.2121	3,732.42	78.7822	3,732.42	78.2859	3,732.42	77.0556	3,732.42	76.092	3,732.42	76.4064	3,732.42	75.0572	3,732.42	74.5872	3,732.42	73.4036	3,732.42	73.6359	3,732.42	72.1718	3,732.42	74.4354	3,732.42	70.6924	3,732.42	75.013	3,732.42	74.1412	3,732.42	73.1072	3,732.42	73.0011	3,732.42	74.5902	3,732.42	73.6587	3,732.42	67.1841	3,732.42	67.5945	3,732.42	60.8733
3,864.26	85.4305	3,864.26	86.147	3,864.26	85.3732	3,864.26	86.3199	3,864.26	86.1307	3,864.26	86.7457	3,864.26	85.6889	3,864.26	85.6946	3,864.26	85.1362	3,864.26	84.3837	3,864.26	82.8769	3,864.26	82.8426	3,864.26	81.2231	3,864.26	80.8971	3,864.26	78.6411	3,864.26	78.4412	3,864.26	77.0366	3,864.26	76.7087	3,864.26	74.8691	3,864.26	75.3325	3,864.26	72.9758	3,864.26	73.4794	3,864.26	71.6157	3,864.26	73.6302	3,864.26	71.3946	3,864.26	73.6664	3,864.26	70.428	3,864.26	74.8554	3,864.26	72.2718	3,864.26	74.2313	3,864.26	70.9724	3,864.26	74.4527	3,864.26	73.2956	3,864.26	66.245	3,864.26	68.6501	3,864.26	60.7647
4,000.49	86.7881	4,000.49	86.5339	4,000.49	86.8967	4,000.49	87.4035	4,000.49	87.1308	4,000.49	87.524	4,000.49	86.7349	4,000.49	87.0619	4,000.49	85.885	4,000.49	84.6358	4,000.49	83.9587	4,000.49	83.3897	4,000.49	82.2497	4,000.49	81.184	4,000.49	79.2119	4,000.49	78.7251	4,000.49	76.8296	4,000.49	76.6077	4,000.49	75.3759	4,000.49	74.1791	4,000.49	72.4358	4,000.49	74.2857	4,000.49	72.7463	4,000.49	73.5736	4,000.49	71.3923	4,000.49	72.797	4,000.49	70.551	4,000.49	74.8592	4,000.49	72.554	4,000.49	74.4182	4,000.49	70.9689	4,000.49	73.6698	4,000.49	72.4984	4,000.49	67.9329	4,000.49	69.2062	4,000.49	58.5018
4,141.11	86.3492	4,141.11	86.5374	4,141.11	86.7276	4,141.11	87.3811	4,141.11	85.9338	4,141.11	86.7534	4,141.11	86.1966	4,141.11	86.098	4,141.11	84.8426	4,141.11	84.5954	4,141.11	84.6095	4,141.11	83.3808	4,141.11	81.4126	4,141.11	81.6291	4,141.11	79.4475	4,141.11	80.9883	4,141.11	77.9662	4,141.11	78.5279	4,141.11	74.2659	4,141.11	76.5447	4,141.11	73.9674	4,141.11	75.0046	4,141.11	70.4542	4,141.11	74.3866	4,141.11	70.6644	4,141.11	72.9586	4,141.11	69.8354	4,141.11	76.4151	4,141.11	71.2331	4,141.11	73.3009	4,141.11	71.2598	4,141.11	73.6611	4,141.11	72.9522	4,141.11	66.3676	4,141.11	67.3034	4,141.11	42.0695
4,287.6	86.3079	4,287.6	87.8767	4,287.6	85.776	4,287.6	87.6241	4,287.6	86.247	4,287.6	87.4758	4,287.6	85.9512	4,287.6	85.9697	4,287.6	85.5573	4,287.6	85.9668	4,287.6	83.0141	4,287.6	83.3948	4,287.6	81.7694	4,287.6	82.1842	4,287.6	80.388	4,287.6	80.9163	4,287.6	76.527	4,287.6	78.1152	4,287.6	76.1121	4,287.6	76.9438	4,287.6	72.4568	4,287.6	73.8693	4,287.6	70.9552	4,287.6	72.9422	4,287.6	72.5549	4,287.6	71.6166	4,287.6	70.0672	4,287.6	74.5218	4,287.6	70.7199	4,287.6	72.7855	4,287.6	70.5322	4,287.6	75.0131	4,287.6	73.5003	4,287.6	67.9369	4,287.6	65.8777	4,287.6	59.7718
4,438.48	85.2225	4,438.48	86.5615	4,438.48	84.6392	4,438.48	87.5188	4,438.48	85.9851	4,438.48	88.3289	4,438.48	86.2788	4,438.48	88.1172	4,438.48	85.6583	4,438.48	86.5325	4,438.48	83.386	4,438.48	85.2542	4,438.48	82.7322	4,438.48	83.5766	4,438.48	80.5043	4,438.48	79.7581	4,438.48	78.9035	4,438.48	79.041	4,438.48	78.4733	4,438.48	78.0217	4,438.48	74.6961	4,438.48	76.2648	4,438.48	72.5344	4,438.48	74.4953	4,438.48	69.2423	4,438.48	75.5925	4,438.48	71.7086	4,438.48	75.5127	4,438.48	70.7372	4,438.48	74.8709	4,438.48	72.6172	4,438.48	75.3315	4,438.48	71.9905	4,438.48	68.212	4,438.48	69.2846	4,438.48	63.4809
4,595.21	85.6949	4,595.21	85.29	4,595.21	86.4256	4,595.21	87.6771	4,595.21	85.4572	4,595.21	88.0934	4,595.21	86.4936	4,595.21	88.6315	4,595.21	85.6935	4,595.21	87.7209	4,595.21	86.2685	4,595.21	86.5136	4,595.21	83.4445	4,595.21	82.666	4,595.21	82.1486	4,595.21	81.0639	4,595.21	79.9691	4,595.21	79.6594	4,595.21	77.4537	4,595.21	75.6632	4,595.21	75.7337	4,595.21	74.6013	4,595.21	74.1975	4,595.21	74.7133	4,595.21	73.3222	4,595.21	74.3088	4,595.21	73.3534	4,595.21	75.3082	4,595.21	71.2766	4,595.21	75.2318	4,595.21	72.248	4,595.21	73.4147	4,595.21	71.7229	4,595.21	63.7752	4,595.21	68.2997	4,595.21	60.9627
4,756.35	85.8091	4,756.35	86.888	4,756.35	85.8916	4,756.35	87.6028	4,756.35	86.7929	4,756.35	88.3134	4,756.35	87.3403	4,756.35	87.3428	4,756.35	87.46	4,756.35	87.3006	4,756.35	86.529	4,756.35	85.4585	4,756.35	85.0554	4,756.35	83.0249	4,756.35	83.2593	4,756.35	83.3741	4,756.35	80.2971	4,756.35	80.4281	4,756.35	78.5087	4,756.35	77.4749	4,756.35	77.1069	4,756.35	76.7799	4,756.35	74.9479	4,756.35	76.2961	4,756.35	71.9578	4,756.35	75.0823	4,756.35	74.4548	4,756.35	75.6887	4,756.35	73.2325	4,756.35	75.7164	4,756.35	73.0026	4,756.35	74.7486	4,756.35	72.5099	4,756.35	62.9197	4,756.35	67.9838	4,756.35	54.6831
4,924.8	86.1693	4,924.8	87.1357	4,924.8	85.182	4,924.8	87.6291	4,924.8	86.7062	4,924.8	88.7776	4,924.8	86.247	4,924.8	88.132	4,924.8	86.6738	4,924.8	87.0306	4,924.8	84.8808	4,924.8	85.6328	4,924.8	85.0378	4,924.8	84.6649	4,924.8	82.4278	4,924.8	82.2198	4,924.8	80.4212	4,924.8	79.9364	4,924.8	79.0975	4,924.8	77.2801	4,924.8	76.6349	4,924.8	77.1851	4,924.8	74.7491	4,924.8	75.635	4,924.8	73.3485	4,924.8	75.451	4,924.8	73.9796	4,924.8	75.5298	4,924.8	73.3066	4,924.8	76.2248	4,924.8	73.6964	4,924.8	74.1785	4,924.8	70.2289	4,924.8	63.3877	4,924.8	69.7919	4,924.8	63.1914
5,097.66	87.8708	5,097.66	86.3899	5,097.66	88.4158	5,097.66	88.0732	5,097.66	86.0977	5,097.66	88.0607	5,097.66	86.7168	5,097.66	88.5595	5,097.66	86.4233	5,097.66	87.1417	5,097.66	86.5457	5,097.66	86.2232	5,097.66	84.6468	5,097.66	83.979	5,097.66	83.0402	5,097.66	79.4729	5,097.66	81.4269	5,097.66	78.706	5,097.66	78.7366	5,097.66	76.5069	5,097.66	74.8939	5,097.66	75.2395	5,097.66	73.7245	5,097.66	74.0193	5,097.66	71.7723	5,097.66	75.6368	5,097.66	74.1471	5,097.66	75.2983	5,097.66	71.5192	5,097.66	74.1844	5,097.66	72.8954	5,097.66	72.402	5,097.66	71.9044	5,097.66	62.0446	5,097.66	69.5097	5,097.66	65.823
5,277.83	87.3894	5,277.83	86.3657	5,277.83	86.9459	5,277.83	85.6696	5,277.83	85.901	5,277.83	86.4281	5,277.83	85.7973	5,277.83	86.5587	5,277.83	85.906	5,277.83	87.2397	5,277.83	85.6574	5,277.83	86.361	5,277.83	83.9861	5,277.83	83.2732	5,277.83	82.3606	5,277.83	81.7457	5,277.83	79.3004	5,277.83	79.5207	5,277.83	76.8397	5,277.83	78.5442	5,277.83	75.822	5,277.83	74.7229	5,277.83	74.7099	5,277.83	75.5558	5,277.83	72.9125	5,277.83	75.4451	5,277.83	73.699	5,277.83	74.1817	5,277.83	72.2454	5,277.83	75.825	5,277.83	71.5676	5,277.83	73.1465	5,277.83	68.9754	5,277.83	59.5638	5,277.83	66.7881	5,277.83	63.3068
5,463.87	87.805	5,463.87	87.442	5,463.87	86.5474	5,463.87	86.0954	5,463.87	86.0831	5,463.87	86.6401	5,463.87	84.641	5,463.87	87.2473	5,463.87	84.5997	5,463.87	87.2702	5,463.87	83.8343	5,463.87	85.1185	5,463.87	83.3749	5,463.87	83.2897	5,463.87	81.5221	5,463.87	81.8132	5,463.87	78.9491	5,463.87	79.9516	5,463.87	76.4303	5,463.87	76.7455	5,463.87	74.6082	5,463.87	73.8519	5,463.87	71.641	5,463.87	74.3883	5,463.87	70.9738	5,463.87	72.2895	5,463.87	72.5118	5,463.87	72.2859	5,463.87	69.4995	5,463.87	74.9975	5,463.87	72.8365	5,463.87	72.2908	5,463.87	69.9409	5,463.87	66.0059	5,463.87	68.7712	5,463.87	61.6523
5,657.23	87.5451	5,657.23	85.6954	5,657.23	87.7057	5,657.23	85.8708	5,657.23	85.0947	5,657.23	85.7355	5,657.23	84.5778	5,657.23	86.9025	5,657.23	84.3018	5,657.23	85.3122	5,657.23	84.6379	5,657.23	84.3365	5,657.23	83.1588	5,657.23	81.7531	5,657.23	81.3805	5,657.23	79.6765	5,657.23	78.2918	5,657.23	78.6486	5,657.23	76.0138	5,657.23	75.4037	5,657.23	74.5619	5,657.23	74.9015	5,657.23	72.4773	5,657.23	73.644	5,657.23	71.1392	5,657.23	72.3838	5,657.23	69.4129	5,657.23	72.5409	5,657.23	69.5438	5,657.23	73.3113	5,657.23	72.8505	5,657.23	70.6726	5,657.23	69.0196	5,657.23	62.1363	5,657.23	67.5477	5,657.23	66.6463
5,856.45	87.7431	5,856.45	86.6678	5,856.45	86.3791	5,856.45	85.149	5,856.45	85.2059	5,856.45	85.978	5,856.45	84.5354	5,856.45	86.1918	5,856.45	85.5927	5,856.45	86.9002	5,856.45	84.8496	5,856.45	85.41	5,856.45	83.5226	5,856.45	83.3271	5,856.45	81.7759	5,856.45	82.0264	5,856.45	78.6184	5,856.45	77.3967	5,856.45	75.5734	5,856.45	75.2893	5,856.45	73.9032	5,856.45	74.2682	5,856.45	68.5191	5,856.45	74.4932	5,856.45	70.2146	5,856.45	73.4955	5,856.45	69.7601	5,856.45	73.3385	5,856.45	70.2859	5,856.45	74.6005	5,856.45	72.1665	5,856.45	71.7039	5,856.45	67.4062	5,856.45	61.1752	5,856.45	68.3402	5,856.45	66.0384
6,062.99	87.8816	6,062.99	86.5615	6,062.99	86.8855	6,062.99	85.5993	6,062.99	84.8566	6,062.99	86.0111	6,062.99	84.6928	6,062.99	87.1036	6,062.99	84.7784	6,062.99	86.5341	6,062.99	84.477	6,062.99	84.9548	6,062.99	83.1047	6,062.99	83.5865	6,062.99	79.8065	6,062.99	79.9355	6,062.99	77.7214	6,062.99	77.5643	6,062.99	75.9783	6,062.99	75.7363	6,062.99	73.025	6,062.99	73.1285	6,062.99	72.0701	6,062.99	71.5895	6,062.99	69.3776	6,062.99	72.6441	6,062.99	68.5613	6,062.99	73.104	6,062.99	70.2357	6,062.99	74.1978	6,062.99	72.265	6,062.99	69.9406	6,062.99	68.0404	6,062.99	52.7557	6,062.99	66.7989	6,062.99	62.8533
6,276.86	87.6624	6,276.86	86.4707	6,276.86	87.0524	6,276.86	86.5819	6,276.86	85.3188	6,276.86	86.989	6,276.86	85.2741	6,276.86	87.2848	6,276.86	85.7696	6,276.86	86.6335	6,276.86	85.5582	6,276.86	85.4652	6,276.86	83.4918	6,276.86	82.612	6,276.86	81.3303	6,276.86	79.954	6,276.86	79.4071	6,276.86	76.4097	6,276.86	74.946	6,276.86	76.0176	6,276.86	73.5886	6,276.86	72.5697	6,276.86	70.7519	6,276.86	73.3297	6,276.86	70.4697	6,276.86	74.0402	6,276.86	69.2979	6,276.86	74.1508	6,276.86	71.1203	6,276.86	73.488	6,276.86	69.9791	6,276.86	69.802	6,276.86	67.5359	6,276.86	57.2117	6,276.86	64.92	6,276.86	66.5436
6,498.05	88.1283	6,498.05	87.5529	6,498.05	87.1928	6,498.05	86.246	6,498.05	86.27	6,498.05	86.8245	6,498.05	86.2996	6,498.05	87.468	6,498.05	85.9677	6,498.05	86.9037	6,498.05	85.0545	6,498.05	85.5563	6,498.05	83.198	6,498.05	82.6846	6,498.05	80.7727	6,498.05	80.136	6,498.05	77.4126	6,498.05	78.38	6,498.05	75.3679	6,498.05	75.7034	6,498.05	72.8251	6,498.05	72.5275	6,498.05	71.4138	6,498.05	70.8983	6,498.05	68.7542	6,498.05	70.6018	6,498.05	70.672	6,498.05	71.7549	6,498.05	67.835	6,498.05	72.8481	6,498.05	70.9397	6,498.05	68.3211	6,498.05	65.8844	6,498.05	56.5797	6,498.05	65.377	6,498.05	65.462
6,726.56	87.036	6,726.56	86.5304	6,726.56	86.6752	6,726.56	86.7845	6,726.56	85.9672	6,726.56	86.9317	6,726.56	86.3016	6,726.56	87.3865	6,726.56	86.2607	6,726.56	86.8603	6,726.56	85.5057	6,726.56	84.8131	6,726.56	83.7668	6,726.56	81.8415	6,726.56	81.4321	6,726.56	80.9815	6,726.56	79.0828	6,726.56	78.4524	6,726.56	76.223	6,726.56	75.2329	6,726.56	74.2154	6,726.56	71.7896	6,726.56	70.1307	6,726.56	73.707	6,726.56	69.7361	6,726.56	73.0514	6,726.56	71.926	6,726.56	71.5348	6,726.56	71.0681	6,726.56	71.9138	6,726.56	71.1299	6,726.56	67.814	6,726.56	68.525	6,726.56	51.5702	6,726.56	64.6191	6,726.56	64.8288
6,963.87	87.5072	6,963.87	87.0673	6,963.87	86.8083	6,963.87	86.5215	6,963.87	86.2516	6,963.87	86.5627	6,963.87	86.1202	6,963.87	87.2083	6,963.87	85.9214	6,963.87	86.4454	6,963.87	85.2318	6,963.87	85.0775	6,963.87	83.7353	6,963.87	83.22	6,963.87	82.3517	6,963.87	81.4566	6,963.87	79.123	6,963.87	77.6069	6,963.87	77.278	6,963.87	74.7651	6,963.87	74.9918	6,963.87	72.6347	6,963.87	72.7453	6,963.87	71.1186	6,963.87	69.8398	6,963.87	70.6563	6,963.87	71.5132	6,963.87	71.9129	6,963.87	69.9368	6,963.87	73.9227	6,963.87	69.4269	6,963.87	67.5379	6,963.87	67.2761	6,963.87	50.5364	6,963.87	60.5203	6,963.87	69.2208
7,209.96	86.3776	7,209.96	86.5706	7,209.96	86.0851	7,209.96	86.2295	7,209.96	85.963	7,209.96	85.6797	7,209.96	85.2022	7,209.96	86.0995	7,209.96	84.9825	7,209.96	85.9933	7,209.96	84.8915	7,209.96	84.9509	7,209.96	84.2783	7,209.96	83.1777	7,209.96	82.3585	7,209.96	79.9624	7,209.96	79.4471	7,209.96	76.1444	7,209.96	76.7888	7,209.96	74.645	7,209.96	73.6477	7,209.96	71.5857	7,209.96	71.3729	7,209.96	72.5886	7,209.96	69.4952	7,209.96	70.4546	7,209.96	70.2096	7,209.96	72.3549	7,209.96	71.9118	7,209.96	72.6046	7,209.96	73.0986	7,209.96	67.033	7,209.96	70.4905	7,209.96	46.6364	7,209.96	53.4769	7,209.96	69.5614
7,464.84	85.513	7,464.84	85.8712	7,464.84	85.4551	7,464.84	85.1639	7,464.84	84.9354	7,464.84	84.2925	7,464.84	83.7193	7,464.84	84.9311	7,464.84	84.0205	7,464.84	85.7451	7,464.84	84.3367	7,464.84	84.6159	7,464.84	83.6872	7,464.84	82.1926	7,464.84	82.1604	7,464.84	79.4601	7,464.84	79.419	7,464.84	76.9528	7,464.84	76.9685	7,464.84	75.5581	7,464.84	74.1423	7,464.84	72.056	7,464.84	71.3994	7,464.84	71.0365	7,464.84	68.573	7,464.84	71.1024	7,464.84	70.8832	7,464.84	72.7943	7,464.84	70.9862	7,464.84	72.5626	7,464.84	71.07	7,464.84	68.8705	7,464.84	70.2314	7,464.84	54.5048	7,464.84	50.8676	7,464.84	69.9753
7,727.05	84.7429	7,727.05	85.6657	7,727.05	84.9542	7,727.05	84.7967	7,727.05	84.9745	7,727.05	82.7762	7,727.05	82.8663	7,727.05	84.2936	7,727.05	81.9449	7,727.05	85.5432	7,727.05	83.6346	7,727.05	84.5883	7,727.05	83.9197	7,727.05	83.0414	7,727.05	81.8277	7,727.05	79.6155	7,727.05	78.9494	7,727.05	76.9894	7,727.05	75.9176	7,727.05	73.5544	7,727.05	73.0553	7,727.05	71.1841	7,727.05	71.0366	7,727.05	70.9232	7,727.05	69.6889	7,727.05	71.0826	7,727.05	67.3531	7,727.05	73.0112	7,727.05	71.6262	7,727.05	72.7007	7,727.05	71.4429	7,727.05	68.2719	7,727.05	70.5196	7,727.05	55.4904	7,727.05	49.9184	7,727.05	70.7455
7,999.51	84.9652	7,999.51	86.0979	7,999.51	85.2168	7,999.51	85.1668	7,999.51	84.8534	7,999.51	82.9587	7,999.51	82.4333	7,999.51	83.8739	7,999.51	82.199	7,999.51	85.3424	7,999.51	83.5307	7,999.51	84.8097	7,999.51	83.0124	7,999.51	82.3716	7,999.51	81.4624	7,999.51	80.0442	7,999.51	77.7572	7,999.51	77.1418	7,999.51	75.4582	7,999.51	73.787	7,999.51	72.8407	7,999.51	71.0611	7,999.51	68.2518	7,999.51	70.7958	7,999.51	69.0533	7,999.51	68.659	7,999.51	68.4876	7,999.51	72.3833	7,999.51	69.2372	7,999.51	72.7164	7,999.51	69.0757	7,999.51	68.3831	7,999.51	69.6953	7,999.51	57.6234	7,999.51	52.3444	7,999.51	69.3122
8,282.23	87.0109	8,282.23	87.2437	8,282.23	86.9547	8,282.23	86.6992	8,282.23	86.5708	8,282.23	84.4049	8,282.23	83.8455	8,282.23	84.1127	8,282.23	82.3881	8,282.23	84.607	8,282.23	82.6758	8,282.23	83.6234	8,282.23	82.0934	8,282.23	81.6482	8,282.23	79.5502	8,282.23	79.164	8,282.23	76.077	8,282.23	75.4398	8,282.23	73.9301	8,282.23	72.5879	8,282.23	69.8164	8,282.23	69.2312	8,282.23	66.9967	8,282.23	67.2829	8,282.23	66.4957	8,282.23	67.1731	8,282.23	65.4291	8,282.23	69.8005	8,282.23	67.8611	8,282.23	70.9301	8,282.23	65.7996	8,282.23	66.733	8,282.23	69.0122	8,282.23	52.7791	8,282.23	43.0272	8,282.23	65.1561
8,573.73	88.4613	8,573.73	88.4931	8,573.73	88.4768	8,573.73	88.0143	8,573.73	87.4969	8,573.73	86.2973	8,573.73	85.7271	8,573.73	85.1111	8,573.73	84.0541	8,573.73	84.7879	8,573.73	82.556	8,573.73	82.9834	8,573.73	80.5587	8,573.73	81.1068	8,573.73	77.9232	8,573.73	78.4721	8,573.73	75.3542	8,573.73	73.9549	8,573.73	72.7129	8,573.73	71.7838	8,573.73	69.2231	8,573.73	67.6504	8,573.73	64.1221	8,573.73	65.6614	8,573.73	62.1087	8,573.73	65.9661	8,573.73	63.5057	8,573.73	68.5817	8,573.73	64.6414	8,573.73	67.6861	8,573.73	63.416	8,573.73	67.409	8,573.73	65.2855	8,573.73	51.8304	8,573.73	56.8524	8,573.73	65.6925
8,876.95	89.13	8,876.95	88.9912	8,876.95	88.8933	8,876.95	88.4808	8,876.95	87.9167	8,876.95	86.7733	8,876.95	86.2946	8,876.95	85.4346	8,876.95	84.5453	8,876.95	84.9529	8,876.95	83.207	8,876.95	83.5545	8,876.95	81.2189	8,876.95	80.883	8,876.95	78.5564	8,876.95	77.3711	8,876.95	75.9454	8,876.95	74.0817	8,876.95	72.3121	8,876.95	71.2584	8,876.95	69.1604	8,876.95	67.8871	8,876.95	64.9102	8,876.95	66.6306	8,876.95	64.4577	8,876.95	64.5581	8,876.95	63.4004	8,876.95	65.8581	8,876.95	65.106	8,876.95	66.5433	8,876.95	62.0508	8,876.95	64.3841	8,876.95	62.8168	8,876.95	52.9713	8,876.95	58.1799	8,876.95	57.5438
9,188.96	88.9383	9,188.96	88.639	9,188.96	88.5231	9,188.96	88.2632	9,188.96	87.5296	9,188.96	86.6698	9,188.96	86.1709	9,188.96	85.2082	9,188.96	84.2962	9,188.96	84.5849	9,188.96	82.8719	9,188.96	82.8497	9,188.96	81.3809	9,188.96	80.7479	9,188.96	79.0962	9,188.96	77.5246	9,188.96	75.9715	9,188.96	74.4187	9,188.96	72.6791	9,188.96	70.9746	9,188.96	69.6847	9,188.96	67.7227	9,188.96	65.3199	9,188.96	67.4223	9,188.96	65.6037	9,188.96	65.86	9,188.96	64.7785	9,188.96	66.7613	9,188.96	65.8666	9,188.96	63.6925	9,188.96	63.288	9,188.96	63.3754	9,188.96	60.9122	9,188.96	59.411	9,188.96	60.5296	9,188.96	53.5141
9,514.16	88.727	9,514.16	88.0843	9,514.16	88.1047	9,514.16	87.881	9,514.16	87.0344	9,514.16	86.3592	9,514.16	85.849	9,514.16	84.4535	9,514.16	83.5999	9,514.16	84.0582	9,514.16	82.2116	9,514.16	82.7357	9,514.16	81.1551	9,514.16	80.2037	9,514.16	78.7795	9,514.16	76.6593	9,514.16	75.223	9,514.16	73.3281	9,514.16	71.9167	9,514.16	70.3535	9,514.16	68.6216	9,514.16	66.928	9,514.16	64.3589	9,514.16	65.6049	9,514.16	63.4857	9,514.16	66.1709	9,514.16	64.6714	9,514.16	66.9311	9,514.16	66.4249	9,514.16	62.5405	9,514.16	63.9503	9,514.16	59.2814	9,514.16	57.3421	9,514.16	60.4562	9,514.16	60.7465	9,514.16	50.0805
9,849.61	88.6166	9,849.61	87.7736	9,849.61	87.9178	9,849.61	87.4175	9,849.61	86.943	9,849.61	85.721	9,849.61	85.6808	9,849.61	83.3912	9,849.61	83.0735	9,849.61	82.6967	9,849.61	81.6439	9,849.61	81.194	9,849.61	80.5511	9,849.61	78.5539	9,849.61	77.8558	9,849.61	74.9514	9,849.61	73.9732	9,849.61	70.6633	9,849.61	70.4154	9,849.61	67.2578	9,849.61	66.603	9,849.61	64.2573	9,849.61	62.2908	9,849.61	62.6228	9,849.61	62.439	9,849.61	64.9431	9,849.61	64.241	9,849.61	65.7046	9,849.61	65.5508	9,849.61	59.536	9,849.61	64.1473	9,849.61	56.3457	9,849.61	53.4417	9,849.61	59.7944	9,849.61	60.3502	9,849.61	50.6309
10,196.8	88.4869	10,196.8	87.5519	10,196.8	87.7968	10,196.8	86.908	10,196.8	86.7904	10,196.8	84.7975	10,196.8	85.3461	10,196.8	82.1105	10,196.8	82.5724	10,196.8	81.0761	10,196.8	80.9525	10,196.8	79.0776	10,196.8	79.4358	10,196.8	76.1131	10,196.8	76.0292	10,196.8	71.9202	10,196.8	72.0246	10,196.8	67.6768	10,196.8	68.2739	10,196.8	64.2606	10,196.8	64.9482	10,196.8	61.2119	10,196.8	59.1076	10,196.8	59.5517	10,196.8	60.2937	10,196.8	62.0616	10,196.8	62.2102	10,196.8	63.8169	10,196.8	64.123	10,196.8	58.4709	10,196.8	63.5712	10,196.8	49.6982	10,196.8	56.0702	10,196.8	58.7852	10,196.8	59.0069	10,196.8	53.6511
10,555.7	88.3561	10,555.7	87.4187	10,555.7	87.7084	10,555.7	86.5711	10,555.7	86.7019	10,555.7	84.0924	10,555.7	85.0045	10,555.7	81.3341	10,555.7	82.1863	10,555.7	79.804	10,555.7	80.3699	10,555.7	77.3387	10,555.7	78.5046	10,555.7	74.1191	10,555.7	75.0285	10,555.7	69.4357	10,555.7	71.7175	10,555.7	65.4796	10,555.7	67.6985	10,555.7	61.673	10,555.7	64.8755	10,555.7	57.7844	10,555.7	58.7259	10,555.7	56.8355	10,555.7	59.3378	10,555.7	59.4862	10,555.7	61.8754	10,555.7	62.871	10,555.7	63.9432	10,555.7	59.7048	10,555.7	62.4421	10,555.7	42.0581	10,555.7	57.0866	10,555.7	56.8264	10,555.7	58.3958	10,555.7	53.2801
10,927.7	88.3562	10,927.7	87.2609	10,927.7	87.8416	10,927.7	86.317	10,927.7	86.6558	10,927.7	83.5744	10,927.7	84.8459	10,927.7	80.6046	10,927.7	82.1534	10,927.7	79.2509	10,927.7	80.2106	10,927.7	76.3783	10,927.7	78.6641	10,927.7	73.5127	10,927.7	75.3895	10,927.7	69.2155	10,927.7	72.2601	10,927.7	66.2398	10,927.7	68.7862	10,927.7	62.4225	10,927.7	65.6401	10,927.7	57.4687	10,927.7	60.2542	10,927.7	55.3153	10,927.7	60.5142	10,927.7	58.7051	10,927.7	61.9224	10,927.7	62.1465	10,927.7	63.3367	10,927.7	60.15	10,927.7	62.2261	10,927.7	40.301	10,927.7	55.8552	10,927.7	55.6341	10,927.7	58.987	10,927.7	52.3409
11,313	88.2938	11,313	87.311	11,313	87.879	11,313	86.1049	11,313	86.7092	11,313	83.7144	11,313	84.8763	11,313	80.8178	11,313	82.2831	11,313	79.3197	11,313	79.9448	11,313	76.6938	11,313	78.0264	11,313	73.67	11,313	74.7965	11,313	70.3366	11,313	71.488	11,313	66.831	11,313	67.5722	11,313	62.0865	11,313	64.008	11,313	58.4618	11,313	59.6543	11,313	56.4416	11,313	58.7101	11,313	57.475	11,313	59.5339	11,313	61.8817	11,313	61.5312	11,313	59.9758	11,313	60.799	11,313	47.0682	11,313	51.986	11,313	57.1411	11,313	58.2614	11,313	49.3094
11,712.9	88.0736	11,712.9	87.3261	11,712.9	87.7882	11,712.9	85.8257	11,712.9	86.4134	11,712.9	83.5799	11,712.9	84.4733	11,712.9	80.2996	11,712.9	81.4861	11,712.9	78.0555	11,712.9	78.53	11,712.9	75.8201	11,712.9	76.5923	11,712.9	73.0471	11,712.9	73.7582	11,712.9	69.4749	11,712.9	69.6267	11,712.9	65.674	11,712.9	65.7927	11,712.9	62.1539	11,712.9	62.0745	11,712.9	57.8533	11,712.9	58.9006	11,712.9	55.6535	11,712.9	57.5825	11,712.9	53.3132	11,712.9	58.6934	11,712.9	59.892	11,712.9	60.9392	11,712.9	57.9207	11,712.9	59.8878	11,712.9	50.1421	11,712.9	48.6202	11,712.9	54.1282	11,712.9	57.3053	11,712.9	52.1163
12,126	87.7348	12,126	86.9782	12,126	87.6841	12,126	85.3208	12,126	86.1609	12,126	83.0177	12,126	84.199	12,126	79.0273	12,126	80.9028	12,126	77.251	12,126	77.6702	12,126	75.4025	12,126	76.6534	12,126	72.8586	12,126	74.0338	12,126	68.5859	12,126	71.1764	12,126	64.8847	12,126	67.3513	12,126	62.6076	12,126	63.7169	12,126	57.1428	12,126	59.0188	12,126	55.5939	12,126	57.8711	12,126	55.8159	12,126	58.0063	12,126	59.8428	12,126	60.5111	12,126	54.4795	12,126	59.8164	12,126	47.0002	12,126	48.6402	12,126	55.4649	12,126	57.1731	12,126	54.5755
12,553.7	87.5318	12,553.7	86.5856	12,553.7	87.4811	12,553.7	84.8115	12,553.7	85.8167	12,553.7	82.762	12,553.7	84.039	12,553.7	78.9484	12,553.7	81.0303	12,553.7	77.4004	12,553.7	77.6477	12,553.7	74.8388	12,553.7	76.1703	12,553.7	72.3518	12,553.7	73.6702	12,553.7	68.8793	12,553.7	70.7176	12,553.7	64.6397	12,553.7	67.2452	12,553.7	60.6518	12,553.7	62.7431	12,553.7	56.0896	12,553.7	58.9773	12,553.7	55.2487	12,553.7	56.6222	12,553.7	52.2676	12,553.7	56.1378	12,553.7	60.4431	12,553.7	60.0981	12,553.7	53.6683	12,553.7	58.7605	12,553.7	51.33	12,553.7	47.0345	12,553.7	57.0596	12,553.7	57.9538	12,553.7	51.8421
12,996.1	87.0196	12,996.1	86.4928	12,996.1	86.9477	12,996.1	84.6272	12,996.1	85.7242	12,996.1	82.727	12,996.1	84.0799	12,996.1	78.8135	12,996.1	80.8673	12,996.1	76.6759	12,996.1	77.2283	12,996.1	74.3058	12,996.1	75.278	12,996.1	71.4446	12,996.1	72.1595	12,996.1	67.5812	12,996.1	66.6986	12,996.1	63.5057	12,996.1	64.1088	12,996.1	56.4739	12,996.1	59.9569	12,996.1	55.6854	12,996.1	56.0563	12,996.1	54.8333	12,996.1	53.871	12,996.1	53.3149	12,996.1	54.9471	12,996.1	59.7851	12,996.1	59.0283	12,996.1	52.4744	12,996.1	56.9192	12,996.1	50.412	12,996.1	38.5519	12,996.1	57.1641	12,996.1	58.039	12,996.1	52.5083
13,454.6	86.8658	13,454.6	86.252	13,454.6	87.0147	13,454.6	84.5424	13,454.6	85.7593	13,454.6	82.257	13,454.6	84.112	13,454.6	78.4433	13,454.6	80.8583	13,454.6	74.8458	13,454.6	76.7677	13,454.6	71.1719	13,454.6	73.4532	13,454.6	67.1981	13,454.6	69.1305	13,454.6	61.7667	13,454.6	63.1828	13,454.6	58.1758	13,454.6	57.3114	13,454.6	54.3624	13,454.6	54.8651	13,454.6	49.0056	13,454.6	52.4427	13,454.6	48.8795	13,454.6	48.997	13,454.6	49.8439	13,454.6	54.6103	13,454.6	56.7875	13,454.6	57.3885	13,454.6	53.4783	13,454.6	55.0257	13,454.6	47.4578	13,454.6	49.0062	13,454.6	55.8404	13,454.6	57.0881	13,454.6	53.2721
13,929.2	86.6536	13,929.2	85.6362	13,929.2	86.8268	13,929.2	84.0253	13,929.2	85.4896	13,929.2	81.6764	13,929.2	83.6956	13,929.2	77.8307	13,929.2	80.3731	13,929.2	73.9152	13,929.2	75.6906	13,929.2	68.6367	13,929.2	71.0565	13,929.2	65.6264	13,929.2	66.3019	13,929.2	58.9248	13,929.2	63.9286	13,929.2	56.8892	13,929.2	56.2542	13,929.2	52.4479	13,929.2	55.767	13,929.2	50.4608	13,929.2	51.8356	13,929.2	42.3701	13,929.2	40.6348	13,929.2	44.4879	13,929.2	50.8536	13,929.2	53.4456	13,929.2	54.1553	13,929.2	46.9358	13,929.2	54.2442	13,929.2	48.1345	13,929.2	51.1154	13,929.2	52.3929	13,929.2	56.3654	13,929.2	53.6435
14,419.9	86.0563	14,419.9	85.3228	14,419.9	86.2346	14,419.9	83.6649	14,419.9	84.9975	14,419.9	81.2409	14,419.9	82.7761	14,419.9	77.5985	14,419.9	79.3733	14,419.9	73.8335	14,419.9	74.2764	14,419.9	69.7503	14,419.9	70.0748	14,419.9	66.0727	14,419.9	66.6361	14,419.9	59.2448	14,419.9	58.8033	14,419.9	55.3272	14,419.9	56.0618	14,419.9	52.5725	14,419.9	56.0138	14,419.9	49.0861	14,419.9	52.5683	14,419.9	40.6413	14,419.9	36.5419	14,419.9	49.5682	14,419.9	46.5214	14,419.9	50.1909	14,419.9	50.6191	14,419.9	44.5578	14,419.9	54.3615	14,419.9	45.2599	14,419.9	51.3618	14,419.9	51.1304	14,419.9	53.4079	14,419.9	54.0192
14,928.2	86.5874	14,928.2	85.6864	14,928.2	86.6073	14,928.2	84.0226	14,928.2	85.2241	14,928.2	81.5676	14,928.2	82.9632	14,928.2	77.562	14,928.2	79.5213	14,928.2	72.9361	14,928.2	74.8887	14,928.2	67.879	14,928.2	70.5559	14,928.2	62.2484	14,928.2	65.2248	14,928.2	52.4606	14,928.2	59.9708	14,928.2	49.3646	14,928.2	53.5496	14,928.2	47.7899	14,928.2	53.3028	14,928.2	40.3363	14,928.2	51.3664	14,928.2	37.7182	14,928.2	41.9012	14,928.2	51.4267	14,928.2	46.5032	14,928.2	49.2825	14,928.2	49.9246	14,928.2	31.1227	14,928.2	51.1429	14,928.2	42.757	14,928.2	50.2353	14,928.2	44.0993	14,928.2	52.4076	14,928.2	52.3187
15,455.6	87.1558	15,455.6	86.1806	15,455.6	87.1868	15,455.6	84.4385	15,455.6	85.8799	15,455.6	81.6188	15,455.6	83.7388	15,455.6	77.0579	15,455.6	80.1084	15,455.6	71.4558	15,455.6	75.1486	15,455.6	63.5362	15,455.6	69.0439	15,455.6	53.3918	15,455.6	59.7011	15,455.6	49.2896	15,455.6	57.1245	15,455.6	48.9229	15,455.6	49.873	15,455.6	37.6564	15,455.6	51.5463	15,455.6	41.4779	15,455.6	46.6918	15,455.6	44.2043	15,455.6	29.2491	15,455.6	49.1512	15,455.6	45.3688	15,455.6	42.0494	15,455.6	48.1266	15,455.6	38.976	15,455.6	49.4947	15,455.6	38.6856	15,455.6	50.1149	15,455.6	40.5674	15,455.6	49.7159	15,455.6	49.847
16,000.5	87.3818	16,000.5	86.3911	16,000.5	87.3261	16,000.5	84.3338	16,000.5	85.7654	16,000.5	80.8884	16,000.5	83.2129	16,000.5	75.1373	16,000.5	79.0658	16,000.5	68.0226	16,000.5	72.4469	16,000.5	55.0749	16,000.5	61.8329	16,000.5	62.6304	16,000.5	52.4246	16,000.5	61.5098	16,000.5	56.2208	16,000.5	58.627	16,000.5	54.4053	16,000.5	51.7818	16,000.5	48.3148	16,000.5	52.6889	16,000.5	46.0845	16,000.5	51.2733	16,000.5	48.5445	16,000.5	48.1561	16,000.5	50.7624	16,000.5	33.2302	16,000.5	43.896	16,000.5	46.7045	16,000.5	51.5044	16,000.5	36.5945	16,000.5	45.6769	16,000.5	47.9882	16,000.5	50.9725	16,000.5	46.9723
16,564.5	87.0201	16,564.5	86.2078	16,564.5	86.6958	16,564.5	83.7263	16,564.5	85.1048	16,564.5	79.6245	16,564.5	82.1623	16,564.5	71.9216	16,564.5	77.024	16,564.5	60.7869	16,564.5	68.0074	16,564.5	62.8648	16,564.5	52.456	16,564.5	67.4186	16,564.5	61.1094	16,564.5	64.3828	16,564.5	63.2146	16,564.5	61.5013	16,564.5	58.6583	16,564.5	57.3525	16,564.5	55.8697	16,564.5	54.5616	16,564.5	49.4585	16,564.5	52.3785	16,564.5	53.2872	16,564.5	48.8169	16,564.5	51.8797	16,564.5	45.3293	16,564.5	38.5038	16,564.5	49.3597	16,564.5	52.4907	16,564.5	46.6967	16,564.5	46.1187	16,564.5	51.2313	16,564.5	50.4165	16,564.5	47.527
17,148.9	86.0783	17,148.9	85.403	17,148.9	85.5164	17,148.9	82.7143	17,148.9	83.4084	17,148.9	78.1286	17,148.9	79.7915	17,148.9	68.2958	17,148.9	73.0575	17,148.9	48.409	17,148.9	60.9952	17,148.9	65.9058	17,148.9	60.7872	17,148.9	68.876	17,148.9	64.5497	17,148.9	65.7042	17,148.9	64.6438	17,148.9	62.6645	17,148.9	59.6296	17,148.9	58.0575	17,148.9	56.783	17,148.9	54.8263	17,148.9	50.8257	17,148.9	50.4116	17,148.9	54.7423	17,148.9	49.1613	17,148.9	52.433	17,148.9	49.4434	17,148.9	31.8361	17,148.9	49.3739	17,148.9	51.8826	17,148.9	46.467	17,148.9	44.5071	17,148.9	50.0474	17,148.9	48.6962	17,148.9	47.4896
17,752.4	84.778	17,752.4	84.2339	17,752.4	83.8959	17,752.4	81.5575	17,752.4	80.8504	17,752.4	76.2008	17,752.4	75.818	17,752.4	65.0626	17,752.4	65.7979	17,752.4	57.8713	17,752.4	56.9073	17,752.4	66.1688	17,752.4	64.1042	17,752.4	68.8333	17,752.4	66.2242	17,752.4	65.0194	17,752.4	65.4027	17,752.4	61.6034	17,752.4	60.5774	17,752.4	57.6284	17,752.4	57.6733	17,752.4	53.212	17,752.4	51.3672	17,752.4	47.6814	17,752.4	54.232	17,752.4	48.2841	17,752.4	52.6701	17,752.4	48.6523	17,752.4	41.4638	17,752.4	46.9612	17,752.4	49.7339	17,752.4	46.3732	17,752.4	44.7039	17,752.4	47.888	17,752.4	45.7429	17,752.4	45.1472
18,379.4	83.6642	18,379.4	83.1899	18,379.4	82.5596	18,379.4	80.2696	18,379.4	79.1614	18,379.4	74.1639	18,379.4	72.5769	18,379.4	60.5254	18,379.4	54.3813	18,379.4	59.7961	18,379.4	60.9253	18,379.4	65.2532	18,379.4	63.6002	18,379.4	67.1706	18,379.4	65.3317	18,379.4	62.9791	18,379.4	63.9387	18,379.4	59.6516	18,379.4	59.2555	18,379.4	55.2025	18,379.4	55.8477	18,379.4	50.6997	18,379.4	49.819	18,379.4	41.808	18,379.4	51.4902	18,379.4	44.7935	18,379.4	49.9387	18,379.4	48.0055	18,379.4	43.3046	18,379.4	45.1851	18,379.4	44.4786	18,379.4	44.067	18,379.4	41.3905	18,379.4	47.6587	18,379.4	42.8149	18,379.4	40.3049
19,026.9	82.3386	19,026.9	81.706	19,026.9	81.3476	19,026.9	78.6158	19,026.9	77.7853	19,026.9	71.7219	19,026.9	70.5393	19,026.9	51.5812	19,026.9	55.587	19,026.9	62.3899	19,026.9	57.376	19,026.9	63.8063	19,026.9	61.2057	19,026.9	65.1674	19,026.9	62.3681	19,026.9	60.8418	19,026.9	61.0131	19,026.9	56.9708	19,026.9	56.2756	19,026.9	52.5799	19,026.9	51.9188	19,026.9	47.4424	19,026.9	45.3276	19,026.9	42.3019	19,026.9	48.7342	19,026.9	38.3867	19,026.9	44.2685	19,026.9	47.0122	19,026.9	41.0794	19,026.9	40.6359	19,026.9	36.7808	19,026.9	37.5769	19,026.9	39.0107	19,026.9	39.2355	19,026.9	39.9847	19,026.9	39.1697
19,697.8	81.0982	19,697.8	80.0021	19,697.8	79.938	19,697.8	76.3087	19,697.8	75.8364	19,697.8	67.649	19,697.8	67.3883	19,697.8	56.0793	19,697.8	51.9841	19,697.8	63.9149	19,697.8	60.3076	19,697.8	63.5916	19,697.8	61.6611	19,697.8	63.9634	19,697.8	60.9762	19,697.8	58.9	19,697.8	58.134	19,697.8	53.7746	19,697.8	52.5075	19,697.8	49.3716	19,697.8	47.8331	19,697.8	46.1456	19,697.8	39.6589	19,697.8	46.0685	19,697.8	42.6392	19,697.8	31.3662	19,697.8	41.6661	19,697.8	43.962	19,697.8	37.6749	19,697.8	34.9636	19,697.8	35.901	19,697.8	32.1827	19,697.8	37.4311	19,697.8	32.1186	19,697.8	38.0825	19,697.8	36.9525
19,999.5	80.8419	19,999.5	79.5631	19,999.5	79.8135	19,999.5	75.4585	19,999.5	75.3103	19,999.5	65.4352	19,999.5	66.29	19,999.5	58.492	19,999.5	56.4632	19,999.5	64.9037	19,999.5	62.4274	19,999.5	64.3516	19,999.5	62.0355	19,999.5	63.8845	19,999.5	60.8638	19,999.5	58.2021	19,999.5	58.3569	19,999.5	53.6192	19,999.5	52.5165	19,999.5	48.8003	19,999.5	47.3403	19,999.5	44.5287	19,999.5	42.7294	19,999.5	40.3009	19,999.5	47.8294	19,999.5	25.6045	19,999.5	38.4711	19,999.5	44.6671	19,999.5	36.7109	19,999.5	41.0291	19,999.5	39.1882	19,999.5	40.4373	19,999.5	38.0794	19,999.5	38.1147	19,999.5	29.6448	19,999.5	35.8043
