"SPL Vertical"
"On-Axis"		"10°"		"-10°"		"20°"		"-20°"		"30°"		"-30°"		"40°"		"-40°"		"50°"		"-50°"		"60°"		"-60°"		"70°"		"-70°"		"80°"		"-80°"		"90°"		"-90°"		"100°"		"-100°"		"110°"		"-110°"		"120°"		"-120°"		"130°"		"-130°"		"140°"		"-140°"		"150°"		"-150°"		"160°"		"-160°"		"170°"		"-170°"		"180°"
"Frequency / Hz"	"Sound Pressure Level / dB (re 20 µPa/V)  [2.83  V @ 1. m]"	"Frequency / Hz"	"Sound Pressure Level / dB (re 20 µPa/V)  [2.83  V @ 1. m]"	"Frequency / Hz"	"Sound Pressure Level / dB (re 20 µPa/V)  [2.83  V @ 1. m]"	"Frequency / Hz"	"Sound Pressure Level / dB (re 20 µPa/V)  [2.83  V @ 1. m]"	"Frequency / Hz"	"Sound Pressure Level / dB (re 20 µPa/V)  [2.83  V @ 1. m]"	"Frequency / Hz"	"Sound Pressure Level / dB (re 20 µPa/V)  [2.83  V @ 1. m]"	"Frequency / Hz"	"Sound Pressure Level / dB (re 20 µPa/V)  [2.83  V @ 1. m]"	"Frequency / Hz"	"Sound Pressure Level / dB (re 20 µPa/V)  [2.83  V @ 1. m]"	"Frequency / Hz"	"Sound Pressure Level / dB (re 20 µPa/V)  [2.83  V @ 1. m]"	"Frequency / Hz"	"Sound Pressure Level / dB (re 20 µPa/V)  [2.83  V @ 1. m]"	"Frequency / Hz"	"Sound Pressure Level / dB (re 20 µPa/V)  [2.83  V @ 1. m]"	"Frequency / Hz"	"Sound Pressure Level / dB (re 20 µPa/V)  [2.83  V @ 1. m]"	"Frequency / Hz"	"Sound Pressure Level / dB (re 20 µPa/V)  [2.83  V @ 1. m]"	"Frequency / Hz"	"Sound Pressure Level / dB (re 20 µPa/V)  [2.83  V @ 1. m]"	"Frequency / Hz"	"Sound Pressure Level / dB (re 20 µPa/V)  [2.83  V @ 1. m]"	"Frequency / Hz"	"Sound Pressure Level / dB (re 20 µPa/V)  [2.83  V @ 1. m]"	"Frequency / Hz"	"Sound Pressure Level / dB (re 20 µPa/V)  [2.83  V @ 1. m]"	"Frequency / Hz"	"Sound Pressure Level / dB (re 20 µPa/V)  [2.83  V @ 1. m]"	"Frequency / Hz"	"Sound Pressure Level / dB (re 20 µPa/V)  [2.83  V @ 1. m]"	"Frequency / Hz"	"Sound Pressure Level / dB (re 20 µPa/V)  [2.83  V @ 1. m]"	"Frequency / Hz"	"Sound Pressure Level / dB (re 20 µPa/V)  [2.83  V @ 1. m]"	"Frequency / Hz"	"Sound Pressure Level / dB (re 20 µPa/V)  [2.83  V @ 1. m]"	"Frequency / Hz"	"Sound Pressure Level / dB (re 20 µPa/V)  [2.83  V @ 1. m]"	"Frequency / Hz"	"Sound Pressure Level / dB (re 20 µPa/V)  [2.83  V @ 1. m]"	"Frequency / Hz"	"Sound Pressure Level / dB (re 20 µPa/V)  [2.83  V @ 1. m]"	"Frequency / Hz"	"Sound Pressure Level / dB (re 20 µPa/V)  [2.83  V @ 1. m]"	"Frequency / Hz"	"Sound Pressure Level / dB (re 20 µPa/V)  [2.83  V @ 1. m]"	"Frequency / Hz"	"Sound Pressure Level / dB (re 20 µPa/V)  [2.83  V @ 1. m]"	"Frequency / Hz"	"Sound Pressure Level / dB (re 20 µPa/V)  [2.83  V @ 1. m]"	"Frequency / Hz"	"Sound Pressure Level / dB (re 20 µPa/V)  [2.83  V @ 1. m]"	"Frequency / Hz"	"Sound Pressure Level / dB (re 20 µPa/V)  [2.83  V @ 1. m]"	"Frequency / Hz"	"Sound Pressure Level / dB (re 20 µPa/V)  [2.83  V @ 1. m]"	"Frequency / Hz"	"Sound Pressure Level / dB (re 20 µPa/V)  [2.83  V @ 1. m]"	"Frequency / Hz"	"Sound Pressure Level / dB (re 20 µPa/V)  [2.83  V @ 1. m]"	"Frequency / Hz"	"Sound Pressure Level / dB (re 20 µPa/V)  [2.83  V @ 1. m]"	"Frequency / Hz"	"Sound Pressure Level / dB (re 20 µPa/V)  [2.83  V @ 1. m]"
20.5078	43.8161	20.5078	42.6246	20.5078	44.5942	20.5078	40.9247	20.5078	45.0099	20.5078	38.5997	20.5078	45.0788	20.5078	35.8604	20.5078	44.7861	20.5078	34.9163	20.5078	44.0877	20.5078	37.6355	20.5078	42.9138	20.5078	41.0232	20.5078	41.2207	20.5078	43.8385	20.5078	39.3226	20.5078	46.0988	20.5078	38.8569	20.5078	47.9357	20.5078	41.0771	20.5078	49.444	20.5078	44.0892	20.5078	50.6826	20.5078	46.7088	20.5078	51.6859	20.5078	48.7966	20.5078	52.4721	20.5078	50.4198	20.5078	53.048	20.5078	51.6517	20.5078	53.4127	20.5078	52.5471	20.5078	53.5591	20.5078	53.1454	20.5078	53.4755
21.9727	49.4707	21.9727	48.7593	21.9727	49.9533	21.9727	47.8006	21.9727	50.2154	21.9727	46.5703	21.9727	50.2542	21.9727	45.0616	21.9727	50.0556	21.9727	43.374	21.9727	49.5925	21.9727	41.9693	21.9727	48.8237	21.9727	41.8131	21.9727	47.6956	21.9727	43.2108	21.9727	46.1653	21.9727	45.2529	21.9727	44.3273	21.9727	47.2329	21.9727	42.8693	21.9727	48.9396	21.9727	43.2296	21.9727	50.3496	21.9727	45.2866	21.9727	51.4807	21.9727	47.5958	21.9727	52.3515	21.9727	49.5417	21.9727	52.9727	21.9727	51.0452	21.9727	53.3465	21.9727	52.1455	21.9727	53.4674	21.9727	52.8915	21.9727	53.3225
23.4375	49.1481	23.4375	48.4043	23.4375	49.6268	23.4375	47.3698	23.4375	49.8524	23.4375	46.0134	23.4375	49.8218	23.4375	44.3434	23.4375	49.5157	23.4375	42.5922	23.4375	48.8963	23.4375	41.6476	23.4375	47.9048	23.4375	42.5755	23.4375	46.4677	23.4375	44.7522	23.4375	44.5738	23.4375	47.0534	23.4375	42.6948	23.4375	49.0764	23.4375	42.5758	23.4375	50.7706	23.4375	44.8363	23.4375	52.1628	23.4375	47.591	23.4375	53.2842	23.4375	49.9323	23.4375	54.1558	23.4375	51.7679	23.4375	54.7877	23.4375	53.1589	23.4375	55.1815	23.4375	54.1692	23.4375	55.3315	23.4375	54.8467	23.4375	55.2258
24.9023	49.784	24.9023	49.1416	24.9023	50.205	24.9023	48.2977	24.9023	50.3959	24.9023	47.3168	24.9023	50.3467	24.9023	46.3789	24.9023	50.042	24.9023	45.8565	24.9023	49.4638	24.9023	46.1682	24.9023	48.6083	24.9023	47.3262	24.9023	47.5445	24.9023	48.9221	24.9023	46.5701	24.9023	50.5801	24.9023	46.3648	24.9023	52.118	24.9023	47.4359	24.9023	53.4733	24.9023	49.3203	24.9023	54.6315	24.9023	51.3084	24.9023	55.5919	24.9023	53.0685	24.9023	56.3557	24.9023	54.5158	24.9023	56.9212	24.9023	55.6488	24.9023	57.2834	24.9023	56.4867	24.9023	57.4339	24.9023	57.051	24.9023	57.3611
26.3672	52.3427	26.3672	51.7769	26.3672	52.7153	26.3672	51.0261	26.3672	52.8902	26.3672	50.1181	26.3672	52.8599	26.3672	49.1371	26.3672	52.6126	26.3672	48.2888	26.3672	52.1336	26.3672	47.9305	26.3672	51.4144	26.3672	48.3644	26.3672	50.4812	26.3672	49.5005	26.3672	49.4723	26.3672	50.9682	26.3672	48.7723	26.3672	52.463	26.3672	48.9507	26.3672	53.8352	26.3672	50.1356	26.3672	55.0282	26.3672	51.8116	26.3672	56.0241	26.3672	53.4813	26.3672	56.8173	26.3672	54.9244	26.3672	57.4038	26.3672	56.0795	26.3672	57.7781	26.3672	56.9433	26.3672	57.9316	26.3672	57.5289	26.3672	57.8531
27.832	53.4955	27.832	52.9713	27.832	53.8336	27.832	52.271	27.832	53.9792	27.832	51.4226	27.832	53.9239	27.832	50.505	27.832	53.6553	27.832	49.7029	27.832	53.159	27.832	49.3338	27.832	52.4291	27.832	49.685	27.832	51.4986	27.832	50.7164	27.832	50.52	27.832	52.1071	27.832	49.8918	27.832	53.56	27.832	50.1561	27.832	54.9141	27.832	51.3807	27.832	56.1026	27.832	53.0488	27.832	57.1012	27.832	54.6938	27.832	57.9009	27.832	56.1118	27.832	58.4958	27.832	57.2459	27.832	58.8795	27.832	58.0924	27.832	59.0432	27.832	58.6638	27.832	58.9758
29.2969	54.5232	29.2969	53.9979	29.2969	54.8673	29.2969	53.3041	29.2969	55.0231	29.2969	52.4763	29.2969	54.9827	29.2969	51.603	29.2969	54.7359	29.2969	50.8776	29.2969	54.2727	29.2969	50.6047	29.2969	53.594	29.2969	51.0247	29.2969	52.7418	29.2969	52.0648	29.2969	51.8709	29.2969	53.4219	29.2969	51.3441	29.2969	54.8277	29.2969	51.6189	29.2969	56.1364	29.2969	52.7509	29.2969	57.2857	29.2969	54.3073	29.2969	58.2519	29.2969	55.8693	29.2969	59.025	29.2969	57.2349	29.2969	59.5988	29.2969	58.3379	29.2969	59.9663	29.2969	59.1678	29.2969	60.1186	29.2969	59.7324	29.2969	60.0448
30.7617	55.9296	30.7617	55.4838	30.7617	56.2273	30.7617	54.9122	30.7617	56.3646	30.7617	54.2598	30.7617	56.3325	30.7617	53.616	30.7617	56.1242	30.7617	53.1362	30.7617	55.7386	30.7617	53.0206	30.7617	55.192	30.7617	53.4057	30.7617	54.5451	30.7617	54.2478	30.7617	53.9504	30.7617	55.3627	30.7617	53.6815	30.7617	56.5603	30.7617	54.0156	30.7617	57.7133	30.7617	54.9657	30.7617	58.7529	30.7617	56.2578	30.7617	59.6438	30.7617	57.5943	30.7617	60.3671	30.7617	58.798	30.7617	60.9103	30.7617	59.7912	30.7617	61.2626	30.7617	60.5484	30.7617	61.4133	30.7617	61.0665	30.7617	61.3516
32.2266	57.052	32.2266	56.6392	32.2266	57.3281	32.2266	56.1143	32.2266	57.4538	32.2266	55.5237	32.2266	57.4195	32.2266	54.9539	32.2266	57.2195	32.2266	54.5454	32.2266	56.855	32.2266	54.4698	32.2266	56.3465	32.2266	54.8404	32.2266	55.7585	32.2266	55.6225	32.2266	55.2399	32.2266	56.6624	32.2266	55.0394	32.2266	57.7924	32.2266	55.392	32.2266	58.8931	32.2266	56.3007	32.2266	59.8946	32.2266	57.5251	32.2266	60.7588	32.2266	58.7989	32.2266	61.4641	32.2266	59.9548	32.2266	61.9957	32.2266	60.9147	32.2266	62.3415	32.2266	61.6497	32.2266	62.4904	32.2266	62.1538	32.2266	62.4312
33.6914	58.5835	33.6914	58.2089	33.6914	58.8379	33.6914	57.7367	33.6914	58.959	33.6914	57.2074	33.6914	58.9386	33.6914	56.6922	33.6914	58.7727	33.6914	56.3027	33.6914	58.4651	33.6914	56.1768	33.6914	58.037	33.6914	56.4198	33.6914	57.5451	33.6914	57.0337	33.6914	57.1081	33.6914	57.914	33.6914	56.9141	33.6914	58.9195	33.6914	57.1492	33.6914	59.9324	33.6914	57.8511	33.6914	60.8752	33.6914	58.8664	33.6914	61.7013	33.6914	59.9789	33.6914	62.3826	33.6914	61.0247	33.6914	62.9004	33.6914	61.9131	33.6914	63.2402	33.6914	62.6026	33.6914	63.39	33.6914	63.0783	33.6914	63.339
35.1562	59.705	35.1562	59.3654	35.1562	59.937	35.1562	58.9428	35.1562	60.0469	35.1562	58.4791	35.1562	60.0263	35.1562	58.0434	35.1562	59.8725	35.1562	57.7364	35.1562	59.5917	35.1562	57.6736	35.1562	59.2085	35.1562	57.9368	35.1562	58.782	35.1562	58.5226	35.1562	58.4257	35.1562	59.3437	35.1562	58.3065	35.1562	60.2811	35.1562	58.5765	35.1562	61.2313	35.1562	59.2578	35.1562	62.1223	35.1562	60.2167	35.1562	62.9081	35.1562	61.2656	35.1562	63.5593	35.1562	62.257	35.1562	64.0559	35.1562	63.1045	35.1562	64.3823	35.1562	63.7657	35.1562	64.5259	35.1562	64.2238	35.1562	64.4758
36.6211	60.8368	36.6211	60.5369	36.6211	61.0443	36.6211	60.1701	36.6211	61.1442	36.6211	59.7774	36.6211	61.1283	36.6211	59.4221	36.6211	60.9953	36.6211	59.1904	36.6211	60.754	36.6211	59.1751	36.6211	60.4316	36.6211	59.4389	36.6211	60.0873	36.6211	59.9788	36.6211	59.8246	36.6211	60.7266	36.6211	59.7831	36.6211	61.5856	36.6211	60.0796	36.6211	62.4662	36.6211	60.7245	36.6211	63.3014	36.6211	61.6074	36.6211	64.0455	36.6211	62.5727	36.6211	64.6676	36.6211	63.4912	36.6211	65.1457	36.6211	64.2819	36.6211	65.4633	36.6211	64.9014	36.6211	65.6066	36.6211	65.3309	36.6211	65.565
38.0859	62.3181	38.0859	62.0452	38.0859	62.5116	38.0859	61.7161	38.0859	62.6119	38.0859	61.3666	38.0859	62.6114	38.0859	61.05	38.0859	62.5096	38.0859	60.8367	38.0859	62.3153	38.0859	60.8026	38.0859	62.0532	38.0859	61.0031	38.0859	61.773	38.0859	61.4454	38.0859	61.5577	38.0859	62.0838	38.0859	61.5163	38.0859	62.8409	38.0859	61.7438	38.0859	63.6375	38.0859	62.2627	38.0859	64.4081	38.0859	63.0015	38.0859	65.105	38.0859	63.8382	38.0859	65.6942	38.0859	64.6572	38.0859	66.151	38.0859	65.3766	38.0859	66.457	38.0859	65.948	38.0859	66.598	38.0859	66.3467	38.0859	66.5633
39.5508	63.4831	39.5508	63.2405	39.5508	63.6567	39.5508	62.9511	39.5508	63.7476	39.5508	62.6488	39.5508	63.7488	39.5508	62.3815	39.5508	63.6604	39.5508	62.2102	39.5508	63.4922	39.5508	62.1988	39.5508	63.2688	39.5508	62.3932	39.5508	63.0375	39.5508	62.8007	39.5508	62.8727	39.5508	63.3851	39.5508	62.8678	39.5508	64.0823	39.5508	63.1011	39.5508	64.8227	39.5508	63.5899	39.5508	65.5459	39.5508	64.2743	39.5508	66.2055	39.5508	65.05	39.5508	66.7672	39.5508	65.8138	39.5508	67.2054	39.5508	66.4892	39.5508	67.5009	39.5508	67.0281	39.5508	67.6389	39.5508	67.4049	39.5508	67.6088
41.0156	64.6943	41.0156	64.4754	41.0156	64.8568	41.0156	64.2227	41.0156	64.9488	41.0156	63.9689	41.0156	64.9632	41.0156	63.7581	41.0156	64.8998	41.0156	63.6429	41.0156	64.7684	41.0156	63.6751	41.0156	64.5919	41.0156	63.8889	41.0156	64.4128	41.0156	64.2867	41.0156	64.2955	41.0156	64.8367	41.0156	64.3177	41.0156	65.4852	41.0156	64.5447	41.0156	66.1727	41.0156	64.9931	41.0156	66.8461	41.0156	65.6171	41.0156	67.4623	41.0156	66.3304	41.0156	67.9882	41.0156	67.0418	41.0156	68.3983	41.0156	67.6792	41.0156	68.673	41.0156	68.1941	41.0156	68.7973	41.0156	68.559	41.0156	68.7609
42.4805	66.1409	42.4805	65.9545	42.4805	66.2843	42.4805	65.7456	42.4805	66.3714	42.4805	65.5428	42.4805	66.3957	42.4805	65.3829	42.4805	66.3576	42.4805	65.3077	42.4805	66.2664	42.4805	65.3572	42.4805	66.1434	42.4805	65.5573	42.4805	66.0254	42.4805	65.911	42.4805	65.9649	42.4805	66.3954	42.4805	66.0224	42.4805	66.9695	42.4805	66.2468	42.4805	67.5847	42.4805	66.6505	42.4805	68.1948	42.4805	67.1994	42.4805	68.76	42.4805	67.8263	42.4805	69.2479	42.4805	68.456	42.4805	69.6327	42.4805	69.0246	42.4805	69.8943	42.4805	69.4866	42.4805	70.0174	42.4805	69.8137	42.4805	69.9919
43.9453	67.2786	43.9453	67.1034	43.9453	67.4154	43.9453	66.9084	43.9453	67.5017	43.9453	66.7193	43.9453	67.5314	43.9453	66.5688	43.9453	67.5048	43.9453	66.494	43.9453	67.4305	43.9453	66.5302	43.9453	67.3275	43.9453	66.7017	43.9453	67.2278	43.9453	67.0136	43.9453	67.1768	43.9453	67.4484	43.9453	67.2268	43.9453	67.9715	43.9453	67.4209	43.9453	68.5395	43.9453	67.7736	43.9453	69.109	43.9453	68.2598	43.9453	69.6414	43.9453	68.8236	43.9453	70.1045	43.9453	69.3978	43.9453	70.472	43.9453	69.9223	43.9453	70.7235	43.9453	70.3517	43.9453	70.8436	43.9453	70.657	43.9453	70.8226
45.4102	68.4972	45.4102	68.3438	45.4102	68.6197	45.4102	68.1762	45.4102	68.6998	45.4102	68.017	45.4102	68.7315	45.4102	67.8937	45.4102	68.7149	45.4102	67.8369	45.4102	68.6568	45.4102	67.8752	45.4102	68.5735	45.4102	68.0289	45.4102	68.4924	45.4102	68.3031	45.4102	68.4518	45.4102	68.6855	45.4102	68.4961	45.4102	69.1489	45.4102	68.6635	45.4102	69.6572	45.4102	68.9692	45.4102	70.1722	45.4102	69.3964	45.4102	70.6582	45.4102	69.8994	45.4102	71.084	45.4102	70.4198	45.4102	71.4236	45.4102	70.9015	45.4102	71.6561	45.4102	71.3004	45.4102	71.7661	45.4102	71.5868	45.4102	71.7439
46.875	69.6554	46.875	69.5118	46.875	69.7666	46.875	69.3507	46.875	69.8357	46.875	69.1921	46.875	69.8577	46.875	69.0608	46.875	69.833	46.875	68.9852	46.875	69.7687	46.875	68.9933	46.875	69.6803	46.875	69.1069	46.875	69.5938	46.875	69.3352	46.875	69.5452	46.875	69.6711	46.875	69.5762	46.875	70.0921	46.875	69.7229	46.875	70.5654	46.875	70.0009	46.875	71.0538	46.875	70.3957	46.875	71.5212	46.875	70.8656	46.875	71.9356	46.875	71.3552	46.875	72.2697	46.875	71.8104	46.875	72.5019	46.875	72.1878	46.875	72.616	46.875	72.4573	46.875	72.6021
48.3398	70.5751	48.3398	70.4372	48.3398	70.6855	48.3398	70.2861	48.3398	70.7593	48.3398	70.1405	48.3398	70.7919	48.3398	70.0236	48.3398	70.7837	48.3398	69.9616	48.3398	70.7416	48.3398	69.9797	48.3398	70.6801	48.3398	70.0974	48.3398	70.6226	48.3398	70.3227	48.3398	70.6012	48.3398	70.6488	48.3398	70.6519	48.3398	71.0549	48.3398	70.8053	48.3398	71.5107	48.3398	71.0745	48.3398	71.9816	48.3398	71.4469	48.3398	72.4335	48.3398	71.886	48.3398	72.8357	48.3398	72.3425	48.3398	73.1618	48.3398	72.7671	48.3398	73.3908	48.3398	73.1188	48.3398	73.5068	48.3398	73.3688	48.3398	73.5003
51.2695	72.5173	51.2695	72.3985	51.2695	72.6183	51.2695	72.274	51.2695	72.6937	51.2695	72.1593	51.2695	72.7391	51.2695	72.0729	51.2695	72.755	51.2695	72.0351	51.2695	72.7468	51.2695	72.0651	51.2695	72.7257	51.2695	72.1774	51.2695	72.7098	51.2695	72.3782	51.2695	72.7229	51.2695	72.6628	51.2695	72.7913	51.2695	73.0158	51.2695	72.9373	51.2695	73.4136	51.2695	73.1712	51.2695	73.8279	51.2695	73.4848	51.2695	74.2295	51.2695	73.8522	51.2695	74.5907	51.2695	74.2356	51.2695	74.8871	51.2695	74.5945	51.2695	75.0985	51.2695	74.8931	51.2695	75.2099	51.2695	75.1046	51.2695	75.2125
52.7344	73.5083	52.7344	73.4007	52.7344	73.6024	52.7344	73.2906	52.7344	73.6756	52.7344	73.1916	52.7344	73.7241	52.7344	73.12	52.7344	73.7476	52.7344	73.093	52.7344	73.7509	52.7344	73.127	52.7344	73.7436	52.7344	73.2341	52.7344	73.7412	52.7344	73.4198	52.7344	73.764	52.7344	73.6804	52.7344	73.8345	52.7344	74.003	52.7344	73.9719	52.7344	74.3674	52.7344	74.1855	52.7344	74.7488	52.7344	74.4695	52.7344	75.1204	52.7344	74.8019	52.7344	75.4564	52.7344	75.1501	52.7344	75.7336	52.7344	75.4776	52.7344	75.9325	52.7344	75.7511	52.7344	76.0386	52.7344	75.9451	52.7344	76.0433
54.1992	74.4587	54.1992	74.3616	54.1992	74.5448	54.1992	74.2629	54.1992	74.6131	54.1992	74.1744	54.1992	74.6601	54.1992	74.1101	54.1992	74.6856	54.1992	74.085	54.1992	74.6936	54.1992	74.1133	54.1992	74.6923	54.1992	74.206	54.1992	74.6951	54.1992	74.3688	54.1992	74.7196	54.1992	74.5996	54.1992	74.7854	54.1992	74.8886	54.1992	74.9095	54.1992	75.2187	54.1992	75.1008	54.1992	75.5677	54.1992	75.3553	54.1992	75.9111	54.1992	75.6548	54.1992	76.2245	54.1992	75.9704	54.1992	76.4853	54.1992	76.2689	54.1992	76.6742	54.1992	76.5191	54.1992	76.7767	54.1992	76.6963	54.1992	76.7845
55.6641	75.2793	55.6641	75.1895	55.6641	75.3604	55.6641	75.0994	55.6641	75.427	55.6641	75.0196	55.6641	75.4758	55.6641	74.9625	55.6641	75.5067	55.6641	74.9412	55.6641	75.5231	55.6641	74.9684	55.6641	75.5323	55.6641	75.0542	55.6641	75.546	55.6641	75.2041	55.6641	75.5795	55.6641	75.417	55.6641	75.6494	55.6641	75.6846	55.6641	75.7706	55.6641	75.9919	55.6641	75.9508	55.6641	76.3191	55.6641	76.1865	55.6641	76.6434	55.6641	76.4618	55.6641	76.9414	55.6641	76.7513	55.6641	77.1915	55.6641	77.0247	55.6641	77.3748	55.6641	77.2533	55.6641	77.4773	55.6641	77.4137	55.6641	77.4907
58.5938	76.8383	58.5938	76.7536	58.5938	76.917	58.5938	76.67	58.5938	76.9847	58.5938	76.5962	58.5938	77.0383	58.5938	76.5423	58.5938	77.0772	58.5938	76.5194	58.5938	77.1039	58.5938	76.5378	58.5938	77.1235	58.5938	76.6063	58.5938	77.1449	58.5938	76.73	58.5938	77.1799	58.5938	76.9091	58.5938	77.2418	58.5938	77.1374	58.5938	77.3427	58.5938	77.4034	58.5938	77.4898	58.5938	77.6901	58.5938	77.682	58.5938	77.9779	58.5938	77.9081	58.5938	78.2457	58.5938	78.1479	58.5938	78.4732	58.5938	78.3762	58.5938	78.643	58.5938	78.5677	58.5938	78.7415	58.5938	78.7009	58.5938	78.7611
60.0586	77.5498	60.0586	77.4692	60.0586	77.6262	60.0586	77.3908	60.0586	77.6937	60.0586	77.3226	60.0586	77.7495	60.0586	77.2735	60.0586	77.7928	60.0586	77.2533	60.0586	77.8255	60.0586	77.2714	60.0586	77.8523	60.0586	77.3356	60.0586	77.8806	60.0586	77.4506	60.0586	77.9208	60.0586	77.6167	60.0586	77.9842	60.0586	77.8291	60.0586	78.0817	60.0586	78.0772	60.0586	78.2195	60.0586	78.3461	60.0586	78.3969	60.0586	78.6175	60.0586	78.6042	60.0586	78.8717	60.0586	78.8234	60.0586	79.0895	60.0586	79.0316	60.0586	79.254	60.0586	79.2055	60.0586	79.3519	60.0586	79.3249	60.0586	79.3759
62.9883	78.6998	62.9883	78.6292	62.9883	78.7721	62.9883	78.5655	62.9883	78.8422	62.9883	78.5152	62.9883	78.9077	62.9883	78.4853	62.9883	78.9678	62.9883	78.4834	62.9883	79.0236	62.9883	78.5164	62.9883	79.0784	62.9883	78.5902	62.9883	79.1371	62.9883	78.7079	62.9883	79.2068	62.9883	78.8693	62.9883	79.2948	62.9883	79.0702	62.9883	79.4078	62.9883	79.3018	62.9883	79.5494	62.9883	79.5517	62.9883	79.7178	62.9883	79.8042	62.9883	79.9049	62.9883	80.0422	62.9883	80.0963	62.9883	80.2488	62.9883	80.2737	62.9883	80.4085	62.9883	80.4178	62.9883	80.5094	62.9883	80.5119	62.9883	80.5442
64.4531	79.3067	64.4531	79.2456	64.4531	79.3728	64.4531	79.1932	64.4531	79.4406	64.4531	79.1545	64.4531	79.5081	64.4531	79.1349	64.4531	79.5743	64.4531	79.1398	64.4531	79.6394	64.4531	79.1749	64.4531	79.705	64.4531	79.2447	64.4531	79.7741	64.4531	79.352	64.4531	79.8512	64.4531	79.4971	64.4531	79.9413	64.4531	79.6767	64.4531	80.0493	64.4531	79.8841	64.4531	80.1779	64.4531	80.1089	64.4531	80.3264	64.4531	80.3376	64.4531	80.4885	64.4531	80.5549	64.4531	80.653	64.4531	80.7454	64.4531	80.8048	64.4531	80.8945	64.4531	80.9272	64.4531	80.9911	64.4531	81.0053	64.4531	81.0284
67.3828	80.2425	67.3828	80.1845	67.3828	80.3057	67.3828	80.135	67.3828	80.3718	67.3828	80.0974	67.3828	80.4388	67.3828	80.0757	67.3828	80.5054	67.3828	80.0744	67.3828	80.5713	67.3828	80.0977	67.3828	80.6369	67.3828	80.1494	67.3828	80.7038	67.3828	80.2324	67.3828	80.7746	67.3828	80.3476	67.3828	80.8528	67.3828	80.4934	67.3828	80.9419	67.3828	80.6649	67.3828	81.0444	67.3828	80.8542	67.3828	81.1602	67.3828	81.0503	67.3828	81.2854	67.3828	81.2401	67.3828	81.4118	67.3828	81.4097	67.3828	81.5276	67.3828	81.5462	67.3828	81.6191	67.3828	81.639	67.3828	81.6737	67.3828	81.6818
68.8477	80.569	68.8477	80.5139	68.8477	80.6307	68.8477	80.4679	68.8477	80.6967	68.8477	80.434	68.8477	80.7653	68.8477	80.4156	68.8477	80.8352	68.8477	80.4162	68.8477	80.9054	68.8477	80.4395	68.8477	80.976	68.8477	80.4889	68.8477	81.0477	68.8477	80.5667	68.8477	81.122	68.8477	80.6739	68.8477	81.2013	68.8477	80.8091	68.8477	81.2883	68.8477	80.9685	68.8477	81.3847	68.8477	81.1448	68.8477	81.4906	68.8477	81.3283	68.8477	81.6028	68.8477	81.5071	68.8477	81.7143	68.8477	81.6683	68.8477	81.8149	68.8477	81.7996	68.8477	81.8927	68.8477	81.8913	68.8477	81.9363	68.8477	81.9372
71.7773	81.2427	71.7773	81.1964	71.7773	81.298	71.7773	81.1607	71.7773	81.3605	71.7773	81.1373	71.7773	81.4289	71.7773	81.1283	71.7773	81.5015	71.7773	81.1359	71.7773	81.5769	71.7773	81.1622	71.7773	81.6538	71.7773	81.2095	71.7773	81.7316	71.7773	81.2793	71.7773	81.8102	71.7773	81.3726	71.7773	81.8899	71.7773	81.4883	71.7773	81.972	71.7773	81.6238	71.7773	82.0572	71.7773	81.7738	71.7773	82.1457	71.7773	81.9307	71.7773	82.2355	71.7773	82.0847	71.7773	82.3219	71.7773	82.2254	71.7773	82.3976	71.7773	82.3422	71.7773	82.4537	71.7773	82.4266	71.7773	82.4812	71.7773	82.4733
74.707	81.771	74.707	81.7316	74.707	81.8214	74.707	81.7041	74.707	81.8817	74.707	81.6892	74.707	81.9506	74.707	81.6876	74.707	82.0263	74.707	81.7002	74.707	82.1068	74.707	81.7281	74.707	82.1898	74.707	81.7723	74.707	82.2733	74.707	81.8339	74.707	82.3556	74.707	81.9133	74.707	82.4357	74.707	82.0104	74.707	82.5133	74.707	82.1233	74.707	82.5884	74.707	82.2486	74.707	82.6609	74.707	82.3807	74.707	82.7299	74.707	82.5124	74.707	82.7926	74.707	82.635	74.707	82.8442	74.707	82.74	74.707	82.8783	74.707	82.8198	74.707	82.8886	74.707	82.8698
77.6367	82.0741	77.6367	82.0381	77.6367	82.1227	77.6367	82.0151	77.6367	82.1834	77.6367	82.0047	77.6367	82.2549	77.6367	82.0068	77.6367	82.3352	77.6367	82.0213	77.6367	82.4216	77.6367	82.0481	77.6367	82.5112	77.6367	82.0876	77.6367	82.6007	77.6367	82.1403	77.6367	82.6871	77.6367	82.2065	77.6367	82.7679	77.6367	82.2864	77.6367	82.8415	77.6367	82.3794	77.6367	82.9072	77.6367	82.4832	77.6367	82.9647	77.6367	82.5944	77.6367	83.0136	77.6367	82.7077	77.6367	83.0528	77.6367	82.8164	77.6367	83.0798	77.6367	82.9134	77.6367	83.0907	77.6367	82.9925	77.6367	83.0815	77.6367	83.0491
79.1016	82.2096	79.1016	82.1756	79.1016	82.2569	79.1016	82.155	79.1016	82.3173	79.1016	82.1471	79.1016	82.3894	79.1016	82.1512	79.1016	82.4712	79.1016	82.1666	79.1016	82.5599	79.1016	82.193	79.1016	82.652	79.1016	82.2303	79.1016	82.7437	79.1016	82.2786	79.1016	82.8314	79.1016	82.3385	79.1016	82.912	79.1016	82.4101	79.1016	82.9835	79.1016	82.4932	79.1016	83.0446	79.1016	82.5866	79.1016	83.0951	79.1016	82.6874	79.1016	83.1348	79.1016	82.7914	79.1016	83.1632	79.1016	82.8929	79.1016	83.1788	79.1016	82.9856	79.1016	83.1792	79.1016	83.0637	79.1016	83.1613	79.1016	83.1229
82.0312	82.5404	82.0312	82.509	82.0312	82.5864	82.0312	82.4917	82.0312	82.647	82.0312	82.4872	82.0312	82.7211	82.0312	82.494	82.0312	82.8065	82.0312	82.5108	82.0312	82.8999	82.0312	82.5363	82.0312	82.9973	82.0312	82.5699	82.0312	83.094	82.0312	82.6115	82.0312	83.1852	82.0312	82.6613	82.0312	83.267	82.0312	82.7199	82.0312	83.336	82.0312	82.7877	82.0312	83.3904	82.0312	82.8645	82.0312	83.4297	82.0312	82.9489	82.0312	83.454	82.0312	83.0383	82.0312	83.464	82.0312	83.1286	82.0312	83.4599	82.0312	83.215	82.0312	83.4413	82.0312	83.2926	82.0312	83.4073	82.0312	83.3575
84.9609	82.8006	84.9609	82.7724	84.9609	82.8448	84.9609	82.7589	84.9609	82.905	84.9609	82.7583	84.9609	82.9801	84.9609	82.7683	84.9609	83.0675	84.9609	82.7866	84.9609	83.1636	84.9609	82.8111	84.9609	83.2633	84.9609	82.8404	84.9609	83.3612	84.9609	82.8737	84.9609	83.4517	84.9609	82.911	84.9609	83.5298	84.9609	82.9532	84.9609	83.5915	84.9609	83.0013	84.9609	83.6345	84.9609	83.0564	84.9609	83.6582	84.9609	83.1188	84.9609	83.6636	84.9609	83.1878	84.9609	83.6523	84.9609	83.2616	84.9609	83.6266	84.9609	83.3369	84.9609	83.588	84.9609	83.4103	84.9609	83.5382	84.9609	83.4783
87.8906	82.8583	87.8906	82.8332	87.8906	82.8995	87.8906	82.8228	87.8906	82.9575	87.8906	82.8246	87.8906	83.0316	87.8906	82.8361	87.8906	83.1197	87.8906	82.8546	87.8906	83.2183	87.8906	82.8781	87.8906	83.3223	87.8906	82.9051	87.8906	83.4263	87.8906	82.9349	87.8906	83.5239	87.8906	82.9678	87.8906	83.6094	87.8906	83.0049	87.8906	83.6778	87.8906	83.0478	87.8906	83.7257	87.8906	83.098	87.8906	83.7517	87.8906	83.1564	87.8906	83.7561	87.8906	83.2232	87.8906	83.7403	87.8906	83.2969	87.8906	83.7071	87.8906	83.3748	87.8906	83.6591	87.8906	83.4536	87.8906	83.599	87.8906	83.5295
90.8203	83.0933	90.8203	83.0724	90.8203	83.1318	90.8203	83.0669	90.8203	83.1888	90.8203	83.0736	90.8203	83.2639	90.8203	83.089	90.8203	83.3547	90.8203	83.1096	90.8203	83.4569	90.8203	83.1323	90.8203	83.565	90.8203	83.1547	90.8203	83.672	90.8203	83.1757	90.8203	83.7705	90.8203	83.195	90.8203	83.8536	90.8203	83.2139	90.8203	83.915	90.8203	83.2344	90.8203	83.9509	90.8203	83.2594	90.8203	83.9593	90.8203	83.2917	90.8203	83.9412	90.8203	83.3337	90.8203	83.8997	90.8203	83.3868	90.8203	83.8397	90.8203	83.4508	90.8203	83.7666	90.8203	83.5242	90.8203	83.6863	90.8203	83.6039
95.2148	83.3368	95.2148	83.3158	95.2148	83.3756	95.2148	83.31	95.2148	83.4334	95.2148	83.3162	95.2148	83.5096	95.2148	83.3304	95.2148	83.6019	95.2148	83.3489	95.2148	83.7059	95.2148	83.3683	95.2148	83.8157	95.2148	83.3861	95.2148	83.9238	95.2148	83.4008	95.2148	84.0224	95.2148	83.4125	95.2148	84.1037	95.2148	83.4221	95.2148	84.1613	95.2148	83.4323	95.2148	84.1906	95.2148	83.4462	95.2148	84.1897	95.2148	83.4677	95.2148	84.1599	95.2148	83.5	95.2148	84.1048	95.2148	83.5455	95.2148	84.0305	95.2148	83.6052	95.2148	83.944	95.2148	83.6781	95.2148	83.8523	95.2148	83.7618
98.1445	83.4013	98.1445	83.3823	98.1445	83.4404	98.1445	83.381	98.1445	83.5009	98.1445	83.3935	98.1445	83.5823	98.1445	83.4157	98.1445	83.6819	98.1445	83.4432	98.1445	83.7951	98.1445	83.472	98.1445	83.9155	98.1445	83.4988	98.1445	84.0353	98.1445	83.5214	98.1445	84.1458	98.1445	83.5392	98.1445	84.2386	98.1445	83.5529	98.1445	84.3062	98.1445	83.5648	98.1445	84.3433	98.1445	83.5784	98.1445	84.3474	98.1445	83.598	98.1445	84.319	98.1445	83.6279	98.1445	84.2621	98.1445	83.6715	98.1445	84.183	98.1445	83.7309	98.1445	84.0898	98.1445	83.8059	98.1445	83.9908	98.1445	83.894
101.074	83.5122	101.074	83.493	101.074	83.5526	101.074	83.492	101.074	83.6156	101.074	83.5052	101.074	83.7004	101.074	83.528	101.074	83.8046	101.074	83.5557	101.074	83.9233	101.074	83.5837	101.074	84.0496	101.074	83.6086	101.074	84.1754	101.074	83.6278	101.074	84.2913	101.074	83.6406	101.074	84.3881	101.074	83.6477	101.074	84.4577	101.074	83.6518	101.074	84.494	101.074	83.6569	101.074	84.4938	101.074	83.6681	101.074	84.4577	101.074	83.691	101.074	84.3895	101.074	83.7304	101.074	84.2966	101.074	83.7893	101.074	84.1882	101.074	83.8684	101.074	84.0745	101.074	83.9652
105.469	83.6737	105.469	83.6662	105.469	83.7018	105.469	83.6755	105.469	83.7521	105.469	83.6971	105.469	83.8249	105.469	83.7258	105.469	83.9176	105.469	83.7561	105.469	84.0258	105.469	83.783	105.469	84.1426	105.469	83.8027	105.469	84.2595	105.469	83.8121	105.469	84.3667	105.469	83.8104	105.469	84.4546	105.469	83.7983	105.469	84.5144	105.469	83.7788	105.469	84.5394	105.469	83.757	105.469	84.5265	105.469	83.7395	105.469	84.4762	105.469	83.7337	105.469	84.3933	105.469	83.7467	105.469	84.2864	105.469	83.784	105.469	84.1667	105.469	83.8479	105.469	84.0466	105.469	83.9373
108.398	83.8603	108.398	83.8534	108.398	83.8868	108.398	83.8623	108.398	83.9347	108.398	83.8824	108.398	84.0042	108.398	83.9086	108.398	84.0932	108.398	83.9355	108.398	84.1974	108.398	83.9581	108.398	84.3104	108.398	83.9725	108.398	84.4238	108.398	83.9758	108.398	84.5282	108.398	83.9672	108.398	84.6138	108.398	83.9477	108.398	84.6716	108.398	83.9206	108.398	84.6949	108.398	83.8914	108.398	84.6797	108.398	83.8671	108.398	84.6263	108.398	83.8559	108.398	84.5393	108.398	83.8654	108.398	84.4271	108.398	83.9016	108.398	84.3013	108.398	83.9671	108.398	84.1749	108.398	84.0602
112.793	84.1268	112.793	84.1152	112.793	84.1578	112.793	84.1193	112.793	84.2098	112.793	84.1346	112.793	84.283	112.793	84.1557	112.793	84.375	112.793	84.1772	112.793	84.4815	112.793	84.1938	112.793	84.5959	112.793	84.2013	112.793	84.7096	112.793	84.1969	112.793	84.8129	112.793	84.1792	112.793	84.8957	112.793	84.1497	112.793	84.9487	112.793	84.1116	112.793	84.9645	112.793	84.0712	112.793	84.939	112.793	84.0363	112.793	84.8725	112.793	84.0163	112.793	84.7697	112.793	84.0201	112.793	84.6402	112.793	84.0548	112.793	84.4966	112.793	84.1238	112.793	84.3538	112.793	84.2258
117.188	84.232	117.188	84.2247	117.188	84.2577	117.188	84.2321	117.188	84.3039	117.188	84.2491	117.188	84.3711	117.188	84.2705	117.188	84.4575	117.188	84.2906	117.188	84.559	117.188	84.3042	117.188	84.6692	117.188	84.3071	117.188	84.7798	117.188	84.2962	117.188	84.8811	117.188	84.2708	117.188	84.9624	117.188	84.232	117.188	85.014	117.188	84.1838	117.188	85.0281	117.188	84.1327	117.188	85	117.188	84.0872	117.188	84.9294	117.188	84.0575	117.188	84.8212	117.188	84.0534	117.188	84.6851	117.188	84.0829	117.188	84.5347	117.188	84.15	117.188	84.3857	117.188	84.2534
120.117	84.3212	120.117	84.3208	120.117	84.3423	120.117	84.3376	120.117	84.3862	120.117	84.3664	120.117	84.4526	120.117	84.4013	120.117	84.5393	120.117	84.4358	120.117	84.6416	120.117	84.464	120.117	84.7528	120.117	84.4805	120.117	84.864	120.117	84.4813	120.117	84.9654	120.117	84.4646	120.117	85.0462	120.117	84.4307	120.117	85.0969	120.117	84.3829	120.117	85.1096	120.117	84.3272	120.117	85.0799	120.117	84.2724	120.117	85.0083	120.117	84.2293	120.117	84.9001	120.117	84.2089	120.117	84.766	120.117	84.2208	120.117	84.6203	120.117	84.2708	120.117	84.4795	120.117	84.3591
124.512	84.6083	124.512	84.5926	124.512	84.642	124.512	84.5918	124.512	84.6949	124.512	84.6017	124.512	84.7666	124.512	84.6169	124.512	84.8547	124.512	84.6315	124.512	84.9546	124.512	84.6397	124.512	85.0599	124.512	84.6362	124.512	85.1622	124.512	84.6174	124.512	85.2518	124.512	84.5813	124.512	85.3184	124.512	84.5286	124.512	85.3523	124.512	84.463	124.512	85.3457	124.512	84.3915	124.512	85.2944	124.512	84.3237	124.512	85.1988	124.512	84.2715	124.512	85.0647	124.512	84.2473	124.512	84.9037	124.512	84.2617	124.512	84.7314	124.512	84.3208	124.512	84.5659	124.512	84.4246
128.906	84.8398	128.906	84.8206	128.906	84.8762	128.906	84.8153	128.906	84.931	128.906	84.8194	128.906	85.0037	128.906	84.8271	128.906	85.0917	128.906	84.8322	128.906	85.1901	128.906	84.8286	128.906	85.292	128.906	84.8109	128.906	85.3884	128.906	84.7752	128.906	85.4691	128.906	84.7197	128.906	85.5233	128.906	84.6454	128.906	85.5409	128.906	84.5565	128.906	85.5141	128.906	84.4608	128.906	85.439	128.906	84.3694	128.906	85.3166	128.906	84.296	128.906	85.1542	128.906	84.2548	128.906	84.9649	128.906	84.2584	128.906	84.7668	128.906	84.3148	128.906	84.5802	128.906	84.4245
133.301	84.9101	133.301	84.8935	133.301	84.945	133.301	84.892	133.301	84.9998	133.301	84.9006	133.301	85.0743	133.301	84.9134	133.301	85.1658	133.301	84.9237	133.301	85.2694	133.301	84.9253	133.301	85.3781	133.301	84.9123	133.301	85.4824	133.301	84.8806	133.301	85.5717	133.301	84.8282	133.301	85.6343	133.301	84.756	133.301	85.6595	133.301	84.6682	133.301	85.6388	133.301	84.5726	133.301	85.5678	133.301	84.4807	133.301	85.4471	133.301	84.4066	133.301	85.2842	133.301	84.365	133.301	85.0924	133.301	84.3691	133.301	84.8904	133.301	84.4272	133.301	84.6995	133.301	84.5399
139.16	85.1352	139.16	85.1159	139.16	85.1722	139.16	85.1114	139.16	85.2283	139.16	85.1171	139.16	85.3031	139.16	85.1272	139.16	85.3941	139.16	85.1351	139.16	85.497	139.16	85.1344	139.16	85.6051	139.16	85.119	139.16	85.7096	139.16	85.0845	139.16	85.7997	139.16	85.0288	139.16	85.8638	139.16	84.9526	139.16	85.8906	139.16	84.8604	139.16	85.8708	139.16	84.7602	139.16	85.799	139.16	84.664	139.16	85.6757	139.16	84.5866	139.16	85.5076	139.16	84.5435	139.16	85.3085	139.16	84.5486	139.16	85.0978	139.16	84.6105	139.16	84.8976	139.16	84.7297
143.555	85.1795	143.555	85.1537	143.555	85.2236	143.555	85.1437	143.555	85.287	143.555	85.1456	143.555	85.3696	143.555	85.1542	143.555	85.4694	143.555	85.1637	143.555	85.5829	143.555	85.1677	143.555	85.704	143.555	85.1603	143.555	85.8241	143.555	85.1369	143.555	85.9322	143.555	85.095	143.555	86.0161	143.555	85.0348	143.555	86.0631	143.555	84.9603	143.555	86.0628	143.555	84.879	143.555	86.0084	143.555	84.8023	143.555	85.8991	143.555	84.7444	143.555	85.7407	143.555	84.7205	143.555	85.5465	143.555	84.7434	143.555	85.3357	143.555	84.8211	143.555	85.1306	143.555	84.9533
147.949	85.3469	147.949	85.3206	147.949	85.3887	147.949	85.307	147.949	85.4475	147.949	85.3022	147.949	85.5238	147.949	85.3012	147.949	85.6166	147.949	85.2985	147.949	85.7231	147.949	85.2882	147.949	85.8378	147.949	85.2651	147.949	85.9527	147.949	85.2252	147.949	86.057	147.949	85.1669	147.949	86.1382	147.949	85.0916	147.949	86.1835	147.949	85.0042	147.949	86.1817	147.949	84.9134	147.949	86.1254	147.949	84.8317	147.949	86.013	147.949	84.7737	147.949	85.8499	147.949	84.7545	147.949	85.6487	147.949	84.7864	147.949	85.4284	147.949	84.876	147.949	85.2118	147.949	85.0214
153.809	85.5486	153.809	85.5255	153.809	85.5832	153.809	85.5106	153.809	85.6319	153.809	85.4996	153.809	85.6958	153.809	85.4873	153.809	85.7748	153.809	85.4682	153.809	85.8666	153.809	85.4367	153.809	85.9665	153.809	85.3882	153.809	86.067	153.809	85.3197	153.809	86.1574	153.809	85.2306	153.809	86.2252	153.809	85.1237	153.809	86.2572	153.809	85.0056	153.809	86.2416	153.809	84.887	153.809	86.1707	153.809	84.7819	153.809	86.0424	153.809	84.7069	153.809	85.8619	153.809	84.6781	153.809	85.6421	153.809	84.7083	153.809	85.4026	153.809	84.8037	153.809	85.1674	153.809	84.961
159.668	85.5187	159.668	85.5124	159.668	85.5422	159.668	85.5199	159.668	85.5851	159.668	85.5365	159.668	85.6481	159.668	85.5563	159.668	85.7309	159.668	85.573	159.668	85.8311	159.668	85.5799	159.668	85.944	159.668	85.5712	159.668	86.0622	159.668	85.5426	159.668	86.1753	159.668	85.4924	159.668	86.2705	159.668	85.4219	159.668	86.3342	159.668	85.3364	159.668	86.3538	159.668	85.2453	159.668	86.3207	159.668	85.1615	159.668	86.2316	159.668	85.1003	159.668	86.0906	159.668	85.077	159.668	85.9094	159.668	85.1041	159.668	85.7064	159.668	85.1874	159.668	85.5038	159.668	85.3245
165.527	85.7686	165.527	85.7416	165.527	85.8125	165.527	85.7301	165.527	85.8732	165.527	85.7304	165.527	85.9492	165.527	85.7371	165.527	86.038	165.527	85.7431	165.527	86.1361	165.527	85.7408	165.527	86.2383	165.527	85.7229	165.527	86.3376	165.527	85.684	165.527	86.4244	165.527	85.6213	165.527	86.4877	165.527	85.5357	165.527	86.5155	165.527	85.4326	165.527	86.4975	165.527	85.3218	165.527	86.4267	165.527	85.2172	165.527	86.3021	165.527	85.1353	165.527	86.1298	165.527	85.0929	165.527	85.9231	165.527	85.1038	165.527	85.7018	165.527	85.1757	165.527	85.489	165.527	85.3076
171.387	86.0177	171.387	85.9723	171.387	86.0747	171.387	85.9383	171.387	86.1424	171.387	85.9138	171.387	86.2192	171.387	85.895	171.387	86.303	171.387	85.8763	171.387	86.3911	171.387	85.8509	171.387	86.479	171.387	85.8122	171.387	86.5601	171.387	85.7547	171.387	86.6254	171.387	85.6753	171.387	86.6638	171.387	85.5745	171.387	86.6638	171.387	85.4571	171.387	86.6153	171.387	85.3326	171.387	86.5125	171.387	85.2145	171.387	86.3556	171.387	85.1197	171.387	86.1525	171.387	85.0652	171.387	85.919	171.387	85.0662	171.387	85.6766	171.387	85.1317	171.387	85.4501	171.387	85.2626
177.246	85.8866	177.246	85.8515	177.246	85.9318	177.246	85.8254	177.246	85.9878	177.246	85.8061	177.246	86.0551	177.246	85.7899	177.246	86.134	177.246	85.7715	177.246	86.2238	177.246	85.7452	177.246	86.3216	177.246	85.7049	177.246	86.4212	177.246	85.6459	177.246	86.5125	177.246	85.5659	177.246	86.5822	177.246	85.4662	177.246	86.6155	177.246	85.3523	177.246	86.5991	177.246	85.2343	177.246	86.5238	177.246	85.1263	177.246	86.3873	177.246	85.0452	177.246	86.196	177.246	85.0082	177.246	85.9649	177.246	85.0295	177.246	85.7162	177.246	85.117	177.246	85.476	177.246	85.2696
183.105	85.9003	183.105	85.8573	183.105	85.9511	183.105	85.8229	183.105	86.0092	183.105	85.7973	183.105	86.075	183.105	85.7791	183.105	86.1504	183.105	85.765	183.105	86.2371	183.105	85.7502	183.105	86.3359	183.105	85.7294	183.105	86.4436	183.105	85.698	183.105	86.5528	183.105	85.6534	183.105	86.6511	183.105	85.5961	183.105	86.7233	183.105	85.5305	183.105	86.7541	183.105	85.465	183.105	86.7318	183.105	85.4112	183.105	86.6508	183.105	85.3827	183.105	86.514	183.105	85.3923	183.105	86.3324	183.105	85.4499	183.105	86.1243	183.105	85.5595	183.105	85.9119	183.105	85.7174
188.965	86.4063	188.965	86.3755	188.965	86.4307	188.965	86.338	188.965	86.4505	188.965	86.2938	188.965	86.4689	188.965	86.2426	188.965	86.4901	188.965	86.1833	188.965	86.5185	188.965	86.1143	188.965	86.557	188.965	86.0337	188.965	86.6047	188.965	85.9401	188.965	86.6556	188.965	85.8343	188.965	86.6992	188.965	85.7195	188.965	86.7213	188.965	85.6023	188.965	86.708	188.965	85.4926	188.965	86.6485	188.965	85.4022	188.965	86.5383	188.965	85.344	188.965	86.3813	188.965	85.3292	188.965	86.1894	188.965	85.3655	188.965	85.9807	188.965	85.4555	188.965	85.7761	188.965	85.5957
196.289	86.4053	196.289	86.3918	196.289	86.4185	196.289	86.3766	196.289	86.4325	196.289	86.357	196.289	86.4489	196.289	86.3291	196.289	86.47	196.289	86.2873	196.289	86.4981	196.289	86.2256	196.289	86.5346	196.289	86.1384	196.289	86.5778	196.289	86.0224	196.289	86.6213	196.289	85.8774	196.289	86.6538	196.289	85.7086	196.289	86.6606	196.289	85.5261	196.289	86.6266	196.289	85.3457	196.289	86.54	196.289	85.1864	196.289	86.3962	196.289	85.0684	196.289	86.1996	196.289	85.0089	196.289	85.9642	196.289	85.0198	196.289	85.7117	196.289	85.1048	196.289	85.4681	196.289	85.2588
203.613	86.4912	203.613	86.4717	203.613	86.5081	203.613	86.449	203.613	86.5226	203.613	86.421	203.613	86.5355	203.613	86.384	203.613	86.5484	203.613	86.3323	203.613	86.5637	203.613	86.2596	203.613	86.5833	203.613	86.1603	203.613	86.6068	203.613	86.0309	203.613	86.6301	203.613	85.8722	203.613	86.6444	203.613	85.6899	203.613	86.6377	203.613	85.4961	203.613	86.5968	203.613	85.308	203.613	86.5108	203.613	85.1465	203.613	86.3745	203.613	85.033	203.613	86.1902	203.613	84.9845	203.613	85.9686	203.613	85.0105	203.613	85.7272	203.613	85.1107	203.613	85.4883	203.613	85.2756
210.938	86.3271	210.938	86.3192	210.938	86.3378	210.938	86.3141	210.938	86.351	210.938	86.3108	210.938	86.3679	210.938	86.306	210.938	86.391	210.938	86.2939	210.938	86.4237	210.938	86.267	210.938	86.4682	210.938	86.2175	210.938	86.5235	210.938	86.1392	210.938	86.583	210.938	86.0294	210.938	86.6344	210.938	85.8902	210.938	86.6612	210.938	85.7301	210.938	86.647	210.938	85.5633	210.938	86.5789	210.938	85.4089	210.938	86.4524	210.938	85.2877	210.938	86.2728	210.938	85.2185	210.938	86.0553	210.938	85.2144	210.938	85.8225	210.938	85.2806	210.938	85.6004	210.938	85.4133
218.262	86.384	218.262	86.3435	218.262	86.4216	218.262	86.3045	218.262	86.4529	218.262	86.27	218.262	86.4765	218.262	86.2398	218.262	86.4944	218.262	86.2107	218.262	86.5116	218.262	86.1759	218.262	86.5337	218.262	86.1276	218.262	86.5642	218.262	86.0586	218.262	86.6016	218.262	85.9646	218.262	86.6377	218.262	85.8464	218.262	86.6582	218.262	85.7109	218.262	86.647	218.262	85.5708	218.262	86.5904	218.262	85.4436	218.262	86.4817	218.262	85.3484	218.262	86.3236	218.262	85.3019	218.262	86.1283	218.262	85.3153	218.262	85.9152	218.262	85.3919	218.262	85.7073	218.262	85.5267
225.586	86.5151	225.586	86.4706	225.586	86.5462	225.586	86.4173	225.586	86.5606	225.586	86.3594	225.586	86.5578	225.586	86.2986	225.586	86.5412	225.586	86.2337	225.586	86.5175	225.586	86.1607	225.586	86.4949	225.586	86.0745	225.586	86.4804	225.586	85.9701	225.586	86.4763	225.586	85.846	225.586	86.4777	225.586	85.7049	225.586	86.4728	225.586	85.5552	225.586	86.4464	225.586	85.4106	225.586	86.3844	225.586	85.2877	225.586	86.2791	225.586	85.203	225.586	86.1318	225.586	85.1691	225.586	85.9527	225.586	85.1924	225.586	85.7586	225.586	85.272	225.586	85.5687	225.586	85.4013
232.91	86.4561	232.91	86.4172	232.91	86.4807	232.91	86.3684	232.91	86.4875	232.91	86.3132	232.91	86.4753	232.91	86.2528	232.91	86.446	232.91	86.1854	232.91	86.4049	232.91	86.1068	232.91	86.3592	232.91	86.0116	232.91	86.316	232.91	85.8961	232.91	86.2794	232.91	85.7595	232.91	86.2479	232.91	85.6061	232.91	86.2143	232.91	85.446	232.91	86.1669	232.91	85.2933	232.91	86.0944	232.91	85.1649	232.91	85.9899	232.91	85.0757	232.91	85.8538	232.91	85.0362	232.91	85.6946	232.91	85.0499	232.91	85.5259	232.91	85.1143	232.91	85.3635	232.91	85.2221
241.699	86.4401	241.699	86.3367	241.699	86.5306	241.699	86.2275	241.699	86.6018	241.699	86.1192	241.699	86.6502	241.699	86.016	241.699	86.6757	241.699	85.918	241.699	86.6809	241.699	85.822	241.699	86.67	241.699	85.7223	241.699	86.6463	241.699	85.613	241.699	86.6093	241.699	85.4908	241.699	86.5539	241.699	85.3565	241.699	86.4708	241.699	85.2165	241.699	86.3501	241.699	85.0815	241.699	86.1862	241.699	84.9648	241.699	85.9824	241.699	84.8789	241.699	85.7518	241.699	84.8329	241.699	85.5151	241.699	84.8316	241.699	85.2951	241.699	84.8768	241.699	85.1099	241.699	84.9695
250.488	86.8221	250.488	86.7328	250.488	86.8872	250.488	86.6254	250.488	86.9232	250.488	86.5056	250.488	86.9283	250.488	86.3759	250.488	86.9053	250.488	86.2355	250.488	86.861	250.488	86.0803	250.488	86.8046	250.488	85.9052	250.488	86.7448	250.488	85.7066	250.488	86.6861	250.488	85.4858	250.488	86.6259	250.488	85.2513	250.488	86.5544	250.488	85.0192	250.488	86.4575	250.488	84.8119	250.488	86.3223	250.488	84.6536	250.488	86.1421	250.488	84.5636	250.488	85.9203	250.488	84.5514	250.488	85.6693	250.488	84.6153	250.488	85.408	250.488	84.7459	250.488	85.156	250.488	84.9305
259.277	86.5301	259.277	86.4174	259.277	86.6216	259.277	86.2922	259.277	86.6856	259.277	86.1637	259.277	86.7197	259.277	86.0395	259.277	86.7258	259.277	85.9232	259.277	86.7092	259.277	85.8139	259.277	86.6769	259.277	85.7071	259.277	86.6347	259.277	85.5967	259.277	86.5846	259.277	85.4783	259.277	86.5224	259.277	85.3515	259.277	86.439	259.277	85.2217	259.277	86.3238	259.277	85.0993	259.277	86.1704	259.277	84.9976	259.277	85.9808	259.277	84.9283	259.277	85.7674	259.277	84.8987	259.277	85.5503	259.277	84.9105	259.277	85.3501	259.277	84.9621	259.277	85.182	259.277	85.0525
268.066	86.6058	268.066	86.499	268.066	86.6823	268.066	86.3678	268.066	86.7246	268.066	86.2182	268.066	86.7334	268.066	86.0547	268.066	86.7146	268.066	85.879	268.066	86.6793	268.066	85.6906	268.066	86.6413	268.066	85.4885	268.066	86.6125	268.066	85.2736	268.066	86.5969	268.066	85.0512	268.066	86.5873	268.066	84.8335	268.066	86.5657	268.066	84.6389	268.066	86.509	268.066	84.4886	268.066	86.3975	268.066	84.401	268.066	86.2222	268.066	84.385	268.066	85.9888	268.066	84.4386	268.066	85.7166	268.066	84.5519	268.066	85.4323	268.066	84.7144	268.066	85.1608	268.066	84.9188
276.855	86.6278	276.855	86.5432	276.855	86.6788	276.855	86.4351	276.855	86.6892	276.855	86.3142	276.855	86.6586	276.855	86.1879	276.855	86.5935	276.855	86.0585	276.855	86.5075	276.855	85.9225	276.855	86.4188	276.855	85.7726	276.855	86.3454	276.855	85.6009	276.855	86.2983	276.855	85.4035	276.855	86.2761	276.855	85.1842	276.855	86.2635	276.855	84.9567	276.855	86.2358	276.855	84.7445	276.855	86.1682	276.855	84.5765	276.855	86.0442	276.855	84.4781	276.855	85.8613	276.855	84.4641	276.855	85.631	276.855	84.5343	276.855	85.3744	276.855	84.6774	276.855	85.1157	276.855	84.877
287.109	86.5908	287.109	86.4577	287.109	86.6839	287.109	86.2945	287.109	86.7305	287.109	86.1126	287.109	86.7287	287.109	85.9221	287.109	86.6826	287.109	85.7308	287.109	86.6026	287.109	85.5428	287.109	86.5042	287.109	85.359	287.109	86.4047	287.109	85.179	287.109	86.3181	287.109	85.004	287.109	86.2491	287.109	84.8391	287.109	86.1907	287.109	84.694	287.109	86.1266	287.109	84.582	287.109	86.0386	287.109	84.5163	287.109	85.9142	287.109	84.5058	287.109	85.7519	287.109	84.5519	287.109	85.5603	287.109	84.649	287.109	85.3543	287.109	84.7874	287.109	85.1492	287.109	84.9572
297.363	86.7929	297.363	86.7332	297.363	86.8046	297.363	86.6335	297.363	86.762	297.363	86.5008	297.363	86.6632	297.363	86.3389	297.363	86.512	297.363	86.1474	297.363	86.3191	297.363	85.9228	297.363	86.102	297.363	85.6621	297.363	85.8838	297.363	85.3679	297.363	85.6888	297.363	85.0531	297.363	85.5371	297.363	84.7441	297.363	85.4381	297.363	84.4781	297.363	85.3867	297.363	84.2943	297.363	85.3665	297.363	84.2197	297.363	85.3555	297.363	84.2565	297.363	85.3336	297.363	84.3822	297.363	85.2864	297.363	84.5601	297.363	85.2056	297.363	84.7535	297.363	85.088	297.363	84.9349
307.617	86.6649	307.617	86.4883	307.617	86.8009	307.617	86.2846	307.617	86.8859	307.617	86.0676	307.617	86.9144	307.617	85.8478	307.617	86.8871	307.617	85.6304	307.617	86.8102	307.617	85.4134	307.617	86.6935	307.617	85.1902	307.617	86.5474	307.617	84.9537	307.617	86.3783	307.617	84.7022	307.617	86.1864	307.617	84.4444	307.617	85.9664	307.617	84.2016	307.617	85.7139	307.617	84.0046	307.617	85.4333	307.617	83.8828	307.617	85.1431	307.617	83.8506	307.617	84.8724	307.617	83.899	307.617	84.6478	307.617	83.9995	307.617	84.478	307.617	84.1189	307.617	84.3491	307.617	84.2356
319.336	86.7273	319.336	86.6378	319.336	86.7647	319.336	86.5054	319.336	86.7432	319.336	86.3387	319.336	86.6605	319.336	86.1431	319.336	86.5211	319.336	85.9196	319.336	86.3368	319.336	85.6657	319.336	86.1265	319.336	85.3784	319.336	85.9138	319.336	85.0585	319.336	85.7216	319.336	84.7154	319.336	85.5645	319.336	84.3706	319.336	85.4431	319.336	84.0582	319.336	85.3437	319.336	83.8185	319.336	85.246	319.336	83.6857	319.336	85.1337	319.336	83.673	319.336	85.0002	319.336	83.7657	319.336	84.8486	319.336	83.929	319.336	84.6844	319.336	84.1241	319.336	84.5094	319.336	84.3221
329.59	86.4914	329.59	86.3801	329.59	86.56	329.59	86.2359	329.59	86.5783	329.59	86.0685	329.59	86.543	329.59	85.8839	329.59	86.4556	329.59	85.6822	329.59	86.3221	329.59	85.4577	329.59	86.1526	329.59	85.2026	329.59	85.9598	329.59	84.9125	329.59	85.7562	329.59	84.5937	329.59	85.5512	329.59	84.2682	329.59	85.3491	329.59	83.9735	329.59	85.1505	329.59	83.7547	329.59	84.9561	329.59	83.6469	329.59	84.7714	329.59	83.657	329.59	84.6073	329.59	83.7589	329.59	84.4733	329.59	83.9064	329.59	84.3689	329.59	84.0553	329.59	84.2788	329.59	84.18
341.309	86.5532	341.309	86.3869	341.309	86.6568	341.309	86.1725	341.309	86.6888	341.309	85.9273	341.309	86.6489	341.309	85.6674	341.309	86.5468	341.309	85.4034	341.309	86.402	341.309	85.1384	341.309	86.2402	341.309	84.8677	341.309	86.085	341.309	84.5842	341.309	85.9485	341.309	84.2855	341.309	85.8241	341.309	83.9823	341.309	85.6898	341.309	83.7037	341.309	85.521	341.309	83.4923	341.309	85.3051	341.309	83.3879	341.309	85.051	341.309	83.4051	341.309	84.7875	341.309	83.5226	341.309	84.5482	341.309	83.6944	341.309	84.3517	341.309	83.8749	341.309	84.1905	341.309	84.0393
353.027	86.4673	353.027	86.3524	353.027	86.5217	353.027	86.1905	353.027	86.5064	353.027	85.9958	353.027	86.4189	353.027	85.7793	353.027	86.2656	353.027	85.5462	353.027	86.0627	353.027	85.2948	353.027	85.8361	353.027	85.0186	353.027	85.6164	353.027	84.7118	353.027	85.4303	353.027	84.3762	353.027	85.2882	353.027	84.0288	353.027	85.179	353.027	83.7052	353.027	85.0755	353.027	83.4551	353.027	84.9517	353.027	83.3242	353.027	84.7975	353.027	83.3299	353.027	84.6235	353.027	83.4493	353.027	84.4511	353.027	83.6316	353.027	84.2949	353.027	83.8254	353.027	84.1507	353.027	83.9996
366.211	86.9078	366.211	86.7713	366.211	86.9748	366.211	86.5819	366.211	86.9567	366.211	86.3539	366.211	86.8422	366.211	86.095	366.211	86.6269	366.211	85.8043	366.211	86.3164	366.211	85.4734	366.211	85.9303	366.211	85.091	366.211	85.5067	366.211	84.6501	366.211	85.0998	366.211	84.1571	366.211	84.7668	366.211	83.64	366.211	84.5415	366.211	83.1531	366.211	84.4142	366.211	82.77	366.211	84.3395	366.211	82.5582	366.211	84.2662	366.211	82.5433	366.211	84.1631	366.211	82.6922	366.211	84.025	366.211	82.935	366.211	83.8592	366.211	83.2026	366.211	83.6697	366.211	83.4521
379.395	86.6537	379.395	86.4805	379.395	86.773	379.395	86.2735	379.395	86.8222	379.395	86.0518	379.395	86.7923	379.395	85.8275	379.395	86.6821	379.395	85.6006	379.395	86.497	379.395	85.3589	379.395	86.2466	379.395	85.0838	379.395	85.9414	379.395	84.7595	379.395	85.5911	379.395	84.3852	379.395	85.2068	379.395	83.9842	379.395	84.8075	379.395	83.6084	379.395	84.4276	379.395	83.3286	379.395	84.1179	379.395	83.2065	379.395	83.9287	379.395	83.2589	379.395	83.879	379.395	83.4446	379.395	83.9357	379.395	83.6861	379.395	84.0275	379.395	83.9044	379.395	84.0799	379.395	84.0434
392.578	86.3999	392.578	86.2303	392.578	86.5009	392.578	86.0152	392.578	86.5184	392.578	85.7793	392.578	86.4478	392.578	85.5414	392.578	86.2962	392.578	85.3064	392.578	86.0805	392.578	85.0632	392.578	85.8238	392.578	84.7891	392.578	85.5489	392.578	84.4613	392.578	85.2709	392.578	84.0709	392.578	84.9903	392.578	83.6371	392.578	84.6955	392.578	83.2162	392.578	84.375	392.578	82.895	392.578	84.0381	392.578	82.7553	392.578	83.728	392.578	82.8203	392.578	83.5108	392.578	83.0315	392.578	83.4314	392.578	83.2836	392.578	83.4692	392.578	83.4797	392.578	83.5442	392.578	83.5661
405.762	86.5326	405.762	86.3889	405.762	86.5936	405.762	86.1748	405.762	86.5663	405.762	85.9072	405.762	86.4534	405.762	85.6027	405.762	86.265	405.762	85.2726	405.762	86.0187	405.762	84.9187	405.762	85.7393	405.762	84.5337	405.762	85.4568	405.762	84.107	405.762	85.1981	405.762	83.6348	405.762	84.9732	405.762	83.1333	405.762	84.7651	405.762	82.6502	405.762	84.5369	405.762	82.2638	405.762	84.256	405.762	82.0571	405.762	83.9227	405.762	82.0663	405.762	83.5818	405.762	82.2487	405.762	83.3012	405.762	82.5064	405.762	83.1205	405.762	82.7431	405.762	83.0136	405.762	82.9085
420.41	86.2784	420.41	86.1192	420.41	86.3929	420.41	85.9337	420.41	86.4502	420.41	85.7424	420.41	86.4444	420.41	85.5595	420.41	86.3754	420.41	85.3845	420.41	86.2473	420.41	85.1977	420.41	86.0674	420.41	84.9659	420.41	85.8423	420.41	84.6541	420.41	85.573	420.41	84.2411	420.41	85.2521	420.41	83.7336	420.41	84.8672	420.41	83.1796	420.41	84.4134	420.41	82.6739	420.41	83.9126	420.41	82.3355	420.41	83.4303	420.41	82.2441	420.41	83.0645	420.41	82.3766	420.41	82.8885	420.41	82.6184	420.41	82.8834	420.41	82.8376	420.41	82.9432	420.41	82.9497
435.059	86.2072	435.059	85.9918	435.059	86.3412	435.059	85.7215	435.059	86.3777	435.059	85.4283	435.059	86.3143	435.059	85.1404	435.059	86.1637	435.059	84.8713	435.059	85.9535	435.059	84.6131	435.059	85.7206	435.059	84.3408	435.059	85.4981	435.059	84.0269	435.059	85.2979	435.059	83.6601	435.059	85.1016	435.059	83.2602	435.059	84.8696	435.059	82.8841	435.059	84.5664	435.059	82.6134	435.059	84.1894	435.059	82.5162	435.059	83.7867	435.059	82.602	435.059	83.4479	435.059	82.8095	435.059	83.2548	435.059	83.0416	435.059	83.2163	435.059	83.213	435.059	83.2589	435.059	83.281
451.172	86.4042	451.172	86.1879	451.172	86.5234	451.172	85.9079	451.172	86.5238	451.172	85.6039	451.172	86.3983	451.172	85.3118	451.172	86.1567	451.172	85.0486	451.172	85.8274	451.172	84.8003	451.172	85.4566	451.172	84.5213	451.172	85.0991	451.172	84.1489	451.172	84.7944	451.172	83.6239	451.172	84.5379	451.172	82.9159	451.172	84.2703	451.172	82.0541	451.172	83.9028	451.172	81.1696	451.172	83.3658	451.172	80.5076	451.172	82.6635	451.172	80.2958	451.172	81.9198	451.172	80.5119	451.172	81.3612	451.172	80.8959	451.172	81.1502	451.172	81.1908	451.172	81.2036	451.172	81.2796
465.82	85.3406	465.82	85.1459	465.82	85.4065	465.82	84.8755	465.82	85.3188	465.82	84.6026	465.82	85.0853	465.82	84.3988	465.82	84.7517	465.82	84.3015	465.82	84.405	465.82	84.2896	465.82	84.1624	465.82	84.2903	465.82	84.1221	465.82	84.2097	465.82	84.2906	465.82	83.9621	465.82	84.5588	465.82	83.4862	465.82	84.7588	465.82	82.7547	465.82	84.7362	465.82	81.7898	465.82	84.3852	465.82	80.6899	465.82	83.6583	465.82	79.6522	465.82	82.5814	465.82	78.9132	465.82	81.2907	465.82	78.5749	465.82	80.0567	465.82	78.5409	465.82	79.1726	465.82	78.7141
483.398	88.1082	483.398	87.6679	483.398	88.3465	483.398	87.0239	483.398	88.3794	483.398	86.1784	483.398	88.1931	483.398	85.1562	483.398	87.7622	483.398	84.0418	483.398	87.0521	483.398	83.0314	483.398	86.0382	483.398	82.4234	483.398	84.7663	483.398	82.4183	483.398	83.4997	483.398	82.8981	483.398	82.8433	483.398	83.5596	483.398	83.238	483.398	84.1684	483.398	84.2654	483.398	84.6222	483.398	85.2726	483.398	84.9084	483.398	85.9546	483.398	85.0619	483.398	86.2631	483.398	85.1403	483.398	86.2614	483.398	85.2077	483.398	86.0588	483.398	85.3202	483.398	85.7757	483.398	85.5112
499.512	88.0964	499.512	87.8351	499.512	88.259	499.512	87.4841	499.512	88.3102	499.512	87.0439	499.512	88.2358	499.512	86.5026	499.512	88.0184	499.512	85.8392	499.512	87.6351	499.512	85.0357	499.512	87.0581	499.512	84.1021	499.512	86.2668	499.512	83.1142	499.512	85.2787	499.512	82.2546	499.512	84.2152	499.512	81.7897	499.512	83.373	499.512	81.8934	499.512	83.1249	499.512	82.4745	499.512	83.5359	499.512	83.2802	499.512	84.2735	499.512	84.0961	499.512	84.9913	499.512	84.8045	499.512	85.5276	499.512	85.3554	499.512	85.8519	499.512	85.7341	499.512	85.9833	499.512	85.9421
517.09	86.8278	517.09	86.6204	517.09	86.9478	517.09	86.3429	517.09	86.9729	517.09	86.0182	517.09	86.9042	517.09	85.6642	517.09	86.7467	517.09	85.2802	517.09	86.5026	517.09	84.8406	517.09	86.1676	517.09	84.3011	517.09	85.7277	517.09	83.6213	517.09	85.161	517.09	82.802	517.09	84.4484	517.09	81.9428	517.09	83.6044	517.09	81.2928	517.09	82.7392	517.09	81.166	517.09	82.1198	517.09	81.6444	517.09	82.0613	517.09	82.4728	517.09	82.5836	517.09	83.3322	517.09	83.3581	517.09	84.0277	517.09	84.0511	517.09	84.4735	517.09	84.4933	517.09	84.6343
536.133	86.8908	536.133	86.6054	536.133	87.0343	536.133	86.2119	536.133	87.0158	536.133	85.7576	536.133	86.8245	536.133	85.2926	536.133	86.4563	536.133	84.8488	536.133	85.9186	536.133	84.4169	536.133	85.2513	536.133	83.9441	536.133	84.5551	536.133	83.3591	536.133	83.9874	536.133	82.6166	536.133	83.6635	536.133	81.7565	536.133	83.5239	536.133	80.9757	536.133	83.3632	536.133	80.6271	536.133	83.0113	536.133	80.9493	536.133	82.4995	536.133	81.7641	536.133	82.1312	536.133	82.6817	536.133	82.2666	536.133	83.4167	536.133	82.8523	536.133	83.8258	536.133	83.4842	536.133	83.8476
555.176	86.6308	555.176	86.2534	555.176	86.9036	555.176	85.8033	555.176	87.0525	555.176	85.3251	555.176	87.0639	555.176	84.8644	555.176	86.921	555.176	84.4491	555.176	86.5987	555.176	84.0735	555.176	86.0695	555.176	83.6949	555.176	85.3186	555.176	83.2469	555.176	84.3733	555.176	82.6643	555.176	83.3477	555.176	81.9203	555.176	82.474	555.176	81.0835	555.176	82.0126	555.176	80.3832	555.176	82.0209	555.176	80.1619	555.176	82.3048	555.176	80.5666	555.176	82.6451	555.176	81.3518	555.176	82.9356	555.176	82.1586	555.176	83.1408	555.176	82.7703	555.176	83.2224	555.176	83.1187
574.219	86.4425	574.219	86.0655	574.219	86.6689	574.219	85.5649	574.219	86.7377	574.219	84.9858	574.219	86.6612	574.219	84.3881	574.219	86.4657	574.219	83.8371	574.219	86.1788	574.219	83.3832	574.219	85.8113	574.219	83.0308	574.219	85.3426	574.219	82.724	574.219	84.7209	574.219	82.3728	574.219	83.8872	574.219	81.9124	574.219	82.8291	574.219	81.3656	574.219	81.679	574.219	80.8886	574.219	80.8153	574.219	80.7374	574.219	80.6784	574.219	81.0664	574.219	81.2386	574.219	81.7433	574.219	82.0489	574.219	82.4754	574.219	82.7499	574.219	83.027	574.219	83.1791	574.219	83.2751
594.727	86.5172	594.727	86.2347	594.727	86.6478	594.727	85.8127	594.727	86.6249	594.727	85.2783	594.727	86.4466	594.727	84.6663	594.727	86.1045	594.727	84.0024	594.727	85.597	594.727	83.2873	594.727	84.9704	594.727	82.5008	594.727	84.3589	594.727	81.6287	594.727	83.934	594.727	80.7077	594.727	83.7145	594.727	79.8772	594.727	83.4644	594.727	79.4013	594.727	82.8519	594.727	79.5402	594.727	81.6636	594.727	80.2792	594.727	80.0803	594.727	81.3128	594.727	79.2002	594.727	82.3112	594.727	80.0601	594.727	83.0632	594.727	81.611	594.727	83.4505	594.727	82.7937	594.727	83.389
615.234	85.8772	615.234	85.4976	615.234	86.1246	615.234	85.0122	615.234	86.2394	615.234	84.4746	615.234	86.2308	615.234	83.948	615.234	86.0963	615.234	83.4696	615.234	85.8066	615.234	83.021	615.234	85.3117	615.234	82.5295	615.234	84.5727	615.234	81.8985	615.234	83.6218	615.234	81.0469	615.234	82.6422	615.234	79.9578	615.234	81.9636	615.234	78.7847	615.234	81.7782	615.234	78.0183	615.234	81.8742	615.234	78.2764	615.234	81.9133	615.234	79.4281	615.234	81.7981	615.234	80.7476	615.234	81.7082	615.234	81.7572	615.234	81.854	615.234	82.3063	615.234	82.1772	615.234	82.4067
637.207	86.1976	637.207	85.7383	637.207	86.4331	637.207	85.0911	637.207	86.4487	637.207	84.347	637.207	86.2696	637.207	83.6426	637.207	85.9336	637.207	83.1	637.207	85.4847	637.207	82.739	637.207	84.9587	637.207	82.4518	637.207	84.356	637.207	82.0681	637.207	83.6313	637.207	81.4309	637.207	82.7262	637.207	80.4362	637.207	81.6364	637.207	79.0912	637.207	80.4792	637.207	77.716	637.207	79.5098	637.207	77.1957	637.207	79.04	637.207	78.1153	637.207	79.2869	637.207	79.703	637.207	80.1659	637.207	81.109	637.207	81.2392	637.207	82.0126	637.207	82.0438	637.207	82.3274
659.18	85.7729	659.18	85.4588	659.18	85.9129	659.18	84.9879	659.18	85.8664	659.18	84.3908	659.18	85.6333	659.18	83.7319	659.18	85.2334	659.18	83.112	659.18	84.7085	659.18	82.6171	659.18	84.13	659.18	82.2354	659.18	83.611	659.18	81.8391	659.18	83.2664	659.18	81.2593	659.18	83.0813	659.18	80.3733	659.18	82.8334	659.18	79.1832	659.18	82.2056	659.18	77.987	659.18	80.9856	659.18	77.5777	659.18	79.3873	659.18	78.5242	659.18	78.6025	659.18	80.1632	659.18	79.5991	659.18	81.631	659.18	81.1956	659.18	82.5486	659.18	82.3446	659.18	82.7991
682.617	86.0587	682.617	85.5502	682.617	86.3061	682.617	84.7977	682.617	86.3148	682.617	83.8751	682.617	86.1222	682.617	82.9139	682.617	85.7524	682.617	82.0717	682.617	85.2068	682.617	81.4639	682.617	84.4932	682.617	81.0985	682.617	83.6935	682.617	80.8661	682.617	83.0273	682.617	80.5921	682.617	82.7556	682.617	80.1148	682.617	82.8528	682.617	79.3624	682.617	82.9231	682.617	78.4693	682.617	82.5341	682.617	77.9832	682.617	81.4926	682.617	78.6036	682.617	80.1518	682.617	80.0679	682.617	79.7394	682.617	81.4944	682.617	80.7464	682.617	82.3763	682.617	81.947	682.617	82.5414
707.52	86.295	707.52	85.7399	707.52	86.5223	707.52	84.8926	707.52	86.4239	707.52	83.8426	707.52	86.0233	707.52	82.7572	707.52	85.3451	707.52	81.883	707.52	84.4077	707.52	81.4206	707.52	83.2548	707.52	81.3062	707.52	82.0148	707.52	81.227	707.52	80.9135	707.52	80.8612	707.52	80.1303	707.52	80.0075	707.52	79.607	707.52	78.6204	707.52	79.1174	707.52	77.0279	707.52	78.4838	707.52	76.3433	707.52	77.7586	707.52	77.2901	707.52	77.4651	707.52	78.7958	707.52	78.2008	707.52	79.9736	707.52	79.4837	707.52	80.6556	707.52	80.4638	707.52	80.8412
732.422	86.2765	732.422	85.9383	732.422	86.4287	732.422	85.3635	732.422	86.4207	732.422	84.5379	732.422	86.2223	732.422	83.5307	732.422	85.7766	732.422	82.502	732.422	85.0598	732.422	81.6542	732.422	84.1187	732.422	81.129	732.422	83.0748	732.422	80.8932	732.422	82.1202	732.422	80.7106	732.422	81.4852	732.422	80.2556	732.422	81.274	732.422	79.2771	732.422	81.2396	732.422	77.7678	732.422	80.8496	732.422	76.3282	732.422	79.6192	732.422	76.2954	732.422	77.7046	732.422	77.8222	732.422	77.2424	732.422	79.6201	732.422	79.1328	732.422	80.9072	732.422	80.8057	732.422	81.3716
757.324	86.58	757.324	85.4196	757.324	87.1863	757.324	83.951	757.324	87.1787	757.324	82.666	757.324	86.6251	757.324	82.0358	757.324	85.7015	757.324	81.9579	757.324	84.6369	757.324	81.9621	757.324	83.5754	757.324	81.8239	757.324	82.4877	757.324	81.649	757.324	81.3021	757.324	81.4937	757.324	80.19	757.324	81.0115	757.324	79.6578	757.324	79.6522	757.324	79.8229	757.324	77.0757	757.324	79.9442	757.324	74.0514	757.324	79.3409	757.324	73.9104	757.324	78.224	757.324	76.4518	757.324	78.2664	757.324	79.0438	757.324	79.9377	757.324	80.9013	757.324	81.3752	757.324	81.7228
785.156	86.6661	785.156	86.8094	785.156	86.3486	785.156	86.5521	785.156	86.1752	785.156	85.8038	785.156	86.2314	785.156	84.5544	785.156	86.192	785.156	82.8937	785.156	85.6531	785.156	81.1366	785.156	84.4265	785.156	79.827	785.156	82.6154	785.156	79.2768	785.156	80.6732	785.156	79.2833	785.156	79.3503	785.156	79.4842	785.156	79.0731	785.156	79.5104	785.156	79.356	785.156	79.0464	785.156	79.3239	785.156	78.2014	785.156	78.3048	785.156	77.9812	785.156	76.3111	785.156	78.9849	785.156	75.6654	785.156	80.1412	785.156	77.7473	785.156	80.7077	785.156	79.6634	785.156	80.5848
811.523	87.6277	811.523	87.3109	811.523	87.7226	811.523	86.7824	811.523	87.6348	811.523	86.0681	811.523	87.422	811.523	85.1767	811.523	87.0982	811.523	84.1516	811.523	86.6234	811.523	83.1951	811.523	85.9383	811.523	82.6673	811.523	84.9646	811.523	82.6999	811.523	83.5919	811.523	82.8958	811.523	81.8309	811.523	82.6839	811.523	80.3163	811.523	81.6502	811.523	80.1037	811.523	79.6097	811.523	80.4639	811.523	76.9537	811.523	79.8862	811.523	75.4772	811.523	78.1087	811.523	76.1307	811.523	77.3287	811.523	77.5243	811.523	79.0541	811.523	79.1043	811.523	80.393	811.523	80.3064
840.82	88.1932	840.82	88.0754	840.82	88.0233	840.82	87.5908	840.82	87.659	840.82	86.7569	840.82	87.1602	840.82	85.7275	840.82	86.5807	840.82	84.7116	840.82	86.0037	840.82	83.7984	840.82	85.5058	840.82	82.9829	840.82	85.0734	840.82	82.4063	840.82	84.5602	840.82	82.1499	840.82	83.7671	840.82	81.7966	840.82	82.7019	840.82	80.7777	840.82	81.8299	840.82	78.8686	840.82	81.4554	840.82	76.4778	840.82	80.8205	840.82	75.1565	840.82	79.1738	840.82	76.6864	840.82	78.0113	840.82	79.7658	840.82	80.1322	840.82	82.2109	840.82	82.4648	840.82	83.1869
870.117	88.2502	870.117	88.2296	870.117	88.2465	870.117	88.057	870.117	88.2088	870.117	87.5212	870.117	88.0245	870.117	86.4565	870.117	87.5359	870.117	84.8809	870.117	86.6286	870.117	83.1024	870.117	85.3393	870.117	81.6395	870.117	83.8696	870.117	80.899	870.117	82.4648	870.117	80.9038	870.117	81.4281	870.117	81.1592	870.117	81.2699	870.117	80.9754	870.117	81.9467	870.117	79.8731	870.117	82.2791	870.117	78.0004	870.117	81.1335	870.117	77.0608	870.117	78.6754	870.117	78.2741	870.117	79.0878	870.117	80.0847	870.117	81.781	870.117	81.7096	870.117	83.0661	870.117	82.8656
900.879	88.4378	900.879	88.0071	900.879	88.3725	900.879	87.248	900.879	87.8016	900.879	86.3563	900.879	86.8666	900.879	85.4325	900.879	85.7382	900.879	84.5222	900.879	84.527	900.879	83.6374	900.879	83.3626	900.879	82.6371	900.879	82.4479	900.879	81.4014	900.879	81.7723	900.879	80.333	900.879	80.7264	900.879	79.9225	900.879	78.5152	900.879	79.5065	900.879	76.9478	900.879	78.1525	900.879	79.5063	900.879	75.7897	900.879	81.2551	900.879	74.2716	900.879	80.2179	900.879	76.5191	900.879	76.5005	900.879	79.8175	900.879	76.926	900.879	81.9268	900.879	80.7978	900.879	82.3764
933.105	87.6303	933.105	87.0316	933.105	87.7692	933.105	86.2307	933.105	87.3976	933.105	85.5796	933.105	86.6447	933.105	85.1952	933.105	85.7233	933.105	84.7879	933.105	84.7386	933.105	83.9544	933.105	83.5489	933.105	82.5404	933.105	81.9966	933.105	80.9356	933.105	80.4349	933.105	80.1183	933.105	79.7408	933.105	80.3662	933.105	80.026	933.105	80.6125	933.105	80.4472	933.105	79.8693	933.105	80.2029	933.105	77.8129	933.105	78.7167	933.105	75.408	933.105	76.1012	933.105	75.5549	933.105	75.6578	933.105	78.0146	933.105	78.5325	933.105	80.2752	933.105	80.7031	933.105	81.2718
965.332	87.8218	965.332	87.8052	965.332	87.4798	965.332	87.3289	965.332	87.0349	965.332	86.3975	965.332	86.6091	965.332	84.9873	965.332	85.9995	965.332	83.1613	965.332	84.9697	965.332	81.411	965.332	83.4626	965.332	80.2509	965.332	81.587	965.332	79.2039	965.332	79.5896	965.332	77.9674	965.332	77.631	965.332	77.5853	965.332	75.3349	965.332	78.3289	965.332	73.9813	965.332	78.646	965.332	76.9253	965.332	77.6905	965.332	79.1629	965.332	76.603	965.332	78.6619	965.332	78.0395	965.332	75.8649	965.332	80.3724	965.332	75.9804	965.332	81.6406	965.332	79.4715	965.332	81.4262
1,000.49	86.9552	1,000.49	87.2407	1,000.49	86.3567	1,000.49	86.943	1,000.49	85.9772	1,000.49	86.0781	1,000.49	85.9554	1,000.49	84.7775	1,000.49	85.7421	1,000.49	83.166	1,000.49	84.8832	1,000.49	81.3902	1,000.49	83.4587	1,000.49	79.8787	1,000.49	81.9601	1,000.49	79.2672	1,000.49	80.8648	1,000.49	79.488	1,000.49	80.3105	1,000.49	79.9001	1,000.49	80.001	1,000.49	79.9991	1,000.49	79.4212	1,000.49	79.4344	1,000.49	78.2514	1,000.49	77.9181	1,000.49	76.1145	1,000.49	75.691	1,000.49	72.6167	1,000.49	75.0904	1,000.49	72.6238	1,000.49	77.2244	1,000.49	77.0579	1,000.49	79.4967	1,000.49	79.7637	1,000.49	80.491
1,035.64	86.37	1,035.64	86.6243	1,035.64	85.9413	1,035.64	86.4936	1,035.64	85.5117	1,035.64	85.892	1,035.64	85.0301	1,035.64	84.8351	1,035.64	84.3761	1,035.64	83.3988	1,035.64	83.6005	1,035.64	81.7676	1,035.64	82.7492	1,035.64	80.1067	1,035.64	81.5769	1,035.64	78.2365	1,035.64	79.8167	1,035.64	76.172	1,035.64	77.7175	1,035.64	75.4926	1,035.64	76.1498	1,035.64	76.7453	1,035.64	75.9332	1,035.64	77.1214	1,035.64	77.1785	1,035.64	75.7591	1,035.64	78.4836	1,035.64	74.2443	1,035.64	77.8902	1,035.64	75.2289	1,035.64	73.3869	1,035.64	78.1469	1,035.64	70.9876	1,035.64	80.4403	1,035.64	78.205	1,035.64	80.7678
1,072.27	86.1044	1,072.27	86.0384	1,072.27	85.9005	1,072.27	85.8554	1,072.27	85.4058	1,072.27	85.6854	1,072.27	84.6339	1,072.27	85.3368	1,072.27	83.6507	1,072.27	84.3621	1,072.27	82.7098	1,072.27	82.3725	1,072.27	82.0556	1,072.27	79.3187	1,072.27	81.5068	1,072.27	76.1125	1,072.27	80.7761	1,072.27	75.2322	1,072.27	79.7809	1,072.27	76.3328	1,072.27	78.5181	1,072.27	76.5972	1,072.27	77.757	1,072.27	75.304	1,072.27	77.8922	1,072.27	73.4111	1,072.27	76.9564	1,072.27	72.9371	1,072.27	74.1504	1,072.27	75.0216	1,072.27	73.3315	1,072.27	77.9548	1,072.27	74.8595	1,072.27	79.568	1,072.27	76.9012	1,072.27	79.0685
1,108.89	85.6294	1,108.89	85.5419	1,108.89	85.3096	1,108.89	85.1776	1,108.89	84.7926	1,108.89	84.8533	1,108.89	84.3301	1,108.89	84.5816	1,108.89	83.8735	1,108.89	83.9339	1,108.89	83.2686	1,108.89	82.597	1,108.89	82.4175	1,108.89	80.7442	1,108.89	81.087	1,108.89	78.6612	1,108.89	79.0684	1,108.89	76.2473	1,108.89	76.8588	1,108.89	74.2372	1,108.89	75.3897	1,108.89	74.2535	1,108.89	74.0919	1,108.89	74.2366	1,108.89	73.6224	1,108.89	73.3278	1,108.89	75.8033	1,108.89	73.5069	1,108.89	76.6524	1,108.89	76.1791	1,108.89	74.2749	1,108.89	78.4867	1,108.89	70.1921	1,108.89	79.1601	1,108.89	74.4825	1,108.89	78.0245
1,148.44	86.0473	1,148.44	86.3594	1,148.44	85.5885	1,148.44	86.0534	1,148.44	85.2345	1,148.44	85.065	1,148.44	84.6189	1,148.44	83.8018	1,148.44	83.5596	1,148.44	82.7896	1,148.44	82.3425	1,148.44	81.894	1,148.44	81.1044	1,148.44	80.7879	1,148.44	79.5177	1,148.44	79.6608	1,148.44	77.6746	1,148.44	78.7577	1,148.44	76.6441	1,148.44	78.1599	1,148.44	76.6478	1,148.44	77.8447	1,148.44	77.1294	1,148.44	77.0445	1,148.44	78.302	1,148.44	74.64	1,148.44	78.3966	1,148.44	70.6048	1,148.44	75.7497	1,148.44	70.3703	1,148.44	72.5227	1,148.44	74.1759	1,148.44	74.7468	1,148.44	76.5172	1,148.44	76.5354	1,148.44	77.0915
1,189.45	86.492	1,189.45	86.7036	1,189.45	85.693	1,189.45	85.9851	1,189.45	84.9777	1,189.45	84.4789	1,189.45	84.4967	1,189.45	82.9465	1,189.45	83.6731	1,189.45	82.0573	1,189.45	82.2582	1,189.45	81.3594	1,189.45	80.498	1,189.45	80.4665	1,189.45	78.5132	1,189.45	79.5526	1,189.45	76.3588	1,189.45	78.7232	1,189.45	75.1126	1,189.45	77.8534	1,189.45	75.4177	1,189.45	77.2667	1,189.45	75.3185	1,189.45	77.156	1,189.45	73.6319	1,189.45	76.2192	1,189.45	71.5907	1,189.45	73.4526	1,189.45	72.0337	1,189.45	72.4048	1,189.45	73.161	1,189.45	74.9471	1,189.45	74.3905	1,189.45	76.8929	1,189.45	76.4462	1,189.45	77.5391
1,230.47	85.7217	1,230.47	85.6383	1,230.47	85.7731	1,230.47	85.4381	1,230.47	85.3309	1,230.47	84.7383	1,230.47	83.9666	1,230.47	83.3532	1,230.47	81.9656	1,230.47	81.4796	1,230.47	80.3451	1,230.47	79.5957	1,230.47	79.1197	1,230.47	78.0275	1,230.47	77.8262	1,230.47	76.8041	1,230.47	76.7228	1,230.47	76.2317	1,230.47	75.2238	1,230.47	76.5049	1,230.47	72.2725	1,230.47	76.5413	1,230.47	69.5774	1,230.47	75.292	1,230.47	71.3219	1,230.47	72.4771	1,230.47	74.4316	1,230.47	69.2754	1,230.47	75.5891	1,230.47	68.2163	1,230.47	73.823	1,230.47	72.8705	1,230.47	71.7352	1,230.47	77.1851	1,230.47	75.7484	1,230.47	78.1409
1,274.41	85.7788	1,274.41	86.1743	1,274.41	85.2054	1,274.41	85.9436	1,274.41	84.5692	1,274.41	84.7873	1,274.41	83.4564	1,274.41	82.6989	1,274.41	81.6737	1,274.41	80.3546	1,274.41	79.7283	1,274.41	79.2439	1,274.41	78.1884	1,274.41	79.0901	1,274.41	76.8347	1,274.41	78.0609	1,274.41	75.1294	1,274.41	75.568	1,274.41	72.7491	1,274.41	74.1132	1,274.41	71.5711	1,274.41	75.6286	1,274.41	72.7438	1,274.41	76.0967	1,274.41	72.6653	1,274.41	74.6324	1,274.41	70.31	1,274.41	72.2245	1,274.41	70.0214	1,274.41	70.5387	1,274.41	74.0384	1,274.41	73.233	1,274.41	75.7808	1,274.41	77.0272	1,274.41	76.6496	1,274.41	77.8558
1,319.82	84.3473	1,319.82	85.1575	1,319.82	83.8432	1,319.82	85.5328	1,319.82	83.4128	1,319.82	84.7305	1,319.82	82.554	1,319.82	82.4829	1,319.82	81.5006	1,319.82	79.3887	1,319.82	80.4549	1,319.82	77.4601	1,319.82	78.7983	1,319.82	77.4327	1,319.82	76.3152	1,319.82	77.7666	1,319.82	73.977	1,319.82	76.7186	1,319.82	71.0042	1,319.82	72.0867	1,319.82	69.0032	1,319.82	70.4342	1,319.82	73.1931	1,319.82	74.1346	1,319.82	73.8709	1,319.82	74.7882	1,319.82	67.5909	1,319.82	74.5845	1,319.82	66.6765	1,319.82	73.0437	1,319.82	75.0639	1,319.82	73.6799	1,319.82	76.7317	1,319.82	76.356	1,319.82	76.8646	1,319.82	77.2277
1,366.7	85.1964	1,366.7	85.0399	1,366.7	84.3342	1,366.7	83.9529	1,366.7	83.022	1,366.7	82.7532	1,366.7	81.9321	1,366.7	81.668	1,366.7	81.0029	1,366.7	79.6728	1,366.7	79.7433	1,366.7	76.0743	1,366.7	78.0596	1,366.7	71.9133	1,366.7	76.6093	1,366.7	72.0691	1,366.7	75.308	1,366.7	71.6727	1,366.7	72.2371	1,366.7	65.3118	1,366.7	67.8298	1,366.7	61.6717	1,366.7	72.5255	1,366.7	67.8074	1,366.7	75.7147	1,366.7	73.6655	1,366.7	74.9794	1,366.7	76.9022	1,366.7	67.0913	1,366.7	75.7605	1,366.7	71.4062	1,366.7	74.3281	1,366.7	77.6034	1,366.7	76.2874	1,366.7	78.6119	1,366.7	77.6944
1,413.57	83.1166	1,413.57	83.3667	1,413.57	83.6166	1,413.57	83.315	1,413.57	83.7843	1,413.57	82.1423	1,413.57	82.3926	1,413.57	80.4447	1,413.57	79.4599	1,413.57	79.124	1,413.57	76.098	1,413.57	77.6182	1,413.57	73.673	1,413.57	75.3702	1,413.57	73.7874	1,413.57	74.6376	1,413.57	76.0665	1,413.57	75.4307	1,413.57	76.7862	1,413.57	75.1309	1,413.57	72.9852	1,413.57	71.4987	1,413.57	65.3156	1,413.57	60.8392	1,413.57	73.919	1,413.57	72.8507	1,413.57	75.4735	1,413.57	75.9964	1,413.57	71.1564	1,413.57	75.2035	1,413.57	62.5982	1,413.57	73.4488	1,413.57	74.0996	1,413.57	74.7492	1,413.57	76.5701	1,413.57	76.3794
1,463.38	84.3016	1,463.38	83.7898	1,463.38	84.2825	1,463.38	82.5224	1,463.38	83.6101	1,463.38	80.7373	1,463.38	81.9608	1,463.38	79.8554	1,463.38	79.1537	1,463.38	79.673	1,463.38	75.078	1,463.38	77.6974	1,463.38	70.4288	1,463.38	72.5209	1,463.38	69.5178	1,463.38	68.3597	1,463.38	73.2591	1,463.38	70.6201	1,463.38	75.2151	1,463.38	71.7541	1,463.38	72.721	1,463.38	67.6765	1,463.38	60.1945	1,463.38	59.202	1,463.38	68.0645	1,463.38	73.1639	1,463.38	72.2637	1,463.38	76.2887	1,463.38	69.0526	1,463.38	75.6342	1,463.38	64.8792	1,463.38	74.1395	1,463.38	75.2597	1,463.38	75.7522	1,463.38	78.5247	1,463.38	78.255
1,516.11	84.1613	1,516.11	82.9937	1,516.11	84.6627	1,516.11	82.0943	1,516.11	83.5917	1,516.11	81.0138	1,516.11	80.9753	1,516.11	79.0967	1,516.11	78.1049	1,516.11	77.2945	1,516.11	75.7176	1,516.11	75.9839	1,516.11	72.9783	1,516.11	73.6859	1,516.11	69.3478	1,516.11	69.4291	1,516.11	69.9771	1,516.11	70.0282	1,516.11	74.2659	1,516.11	72.3643	1,516.11	73.4732	1,516.11	67.4519	1,516.11	65.9587	1,516.11	64.7209	1,516.11	66.9203	1,516.11	72.3726	1,516.11	74.4654	1,516.11	72.4836	1,516.11	74.881	1,516.11	75.1396	1,516.11	71.6297	1,516.11	77.6135	1,516.11	74.3215	1,516.11	78.3682	1,516.11	77.5467	1,516.11	78.5733
1,568.85	84.8558	1,568.85	85.0745	1,568.85	84.0007	1,568.85	84.3644	1,568.85	82.5588	1,568.85	82.3065	1,568.85	80.4802	1,568.85	78.6759	1,568.85	78.4223	1,568.85	76.1593	1,568.85	76.8439	1,568.85	75.9549	1,568.85	75.1323	1,568.85	73.3829	1,568.85	73.0712	1,568.85	66.773	1,568.85	68.8849	1,568.85	58.0407	1,568.85	69.4071	1,568.85	68.5208	1,568.85	73.9075	1,568.85	69.4829	1,568.85	73.4834	1,568.85	71.3519	1,568.85	69.7667	1,568.85	71.8795	1,568.85	74.626	1,568.85	66.8573	1,568.85	76.7347	1,568.85	72.0712	1,568.85	73.5228	1,568.85	75.8744	1,568.85	67.6522	1,568.85	77.3852	1,568.85	73.4979	1,568.85	76.6686
1,624.51	83.8606	1,624.51	83.7427	1,624.51	83.4757	1,624.51	83.2725	1,624.51	82.1968	1,624.51	82.0003	1,624.51	80.0981	1,624.51	79.0198	1,624.51	77.712	1,624.51	73.8844	1,624.51	75.3678	1,624.51	70.9494	1,624.51	73.4958	1,624.51	70.1548	1,624.51	71.5051	1,624.51	67.7462	1,624.51	66.8349	1,624.51	64.1843	1,624.51	62.9847	1,624.51	68.8281	1,624.51	69.0913	1,624.51	68.7309	1,624.51	71.5086	1,624.51	66.519	1,624.51	65.2335	1,624.51	69.3325	1,624.51	69.2809	1,624.51	55.6013	1,624.51	73.9394	1,624.51	69.617	1,624.51	70.2529	1,624.51	72.4865	1,624.51	60.0306	1,624.51	71.6152	1,624.51	68.2903	1,624.51	69.7862
1,681.64	82.873	1,681.64	82.148	1,681.64	82.9972	1,681.64	81.7204	1,681.64	81.591	1,681.64	80.6153	1,681.64	79.0639	1,681.64	76.845	1,681.64	76.6803	1,681.64	69.2312	1,681.64	74.0407	1,681.64	65.2544	1,681.64	70.6879	1,681.64	65.6659	1,681.64	68.2129	1,681.64	63.8421	1,681.64	66.2453	1,681.64	56.9433	1,681.64	62.5588	1,681.64	63.6194	1,681.64	68.4496	1,681.64	55.8039	1,681.64	72.3052	1,681.64	68.0438	1,681.64	69.802	1,681.64	66.6496	1,681.64	61.2319	1,681.64	61.9507	1,681.64	70.0954	1,681.64	67.9141	1,681.64	70.5002	1,681.64	66.7474	1,681.64	55.3274	1,681.64	67.3313	1,681.64	68.6681	1,681.64	70.3748
1,741.7	83.156	1,741.7	82.0823	1,741.7	82.8907	1,741.7	80.6975	1,741.7	80.96	1,741.7	79.0589	1,741.7	78.6433	1,741.7	75.4414	1,741.7	76.7874	1,741.7	68.6841	1,741.7	72.991	1,741.7	52.8668	1,741.7	66.243	1,741.7	62.4762	1,741.7	58.6258	1,741.7	63.5934	1,741.7	57.1342	1,741.7	63.9452	1,741.7	53.7616	1,741.7	61.258	1,741.7	59.0847	1,741.7	56.0737	1,741.7	67.771	1,741.7	64.9148	1,741.7	68.0874	1,741.7	57.6298	1,741.7	60.2773	1,741.7	62.4596	1,741.7	64.4125	1,741.7	65.6909	1,741.7	66.9578	1,741.7	63.8173	1,741.7	50.0479	1,741.7	68.3164	1,741.7	67.6605	1,741.7	71.1508
1,803.22	83.1408	1,803.22	82.3322	1,803.22	82.8583	1,803.22	80.7246	1,803.22	81.2042	1,803.22	78.2638	1,803.22	78.397	1,803.22	74.6277	1,803.22	74.7494	1,803.22	69.2393	1,803.22	68.9451	1,803.22	58.6837	1,803.22	63.5189	1,803.22	56.9835	1,803.22	65.5823	1,803.22	62.238	1,803.22	60.5819	1,803.22	63.2507	1,803.22	62.7002	1,803.22	57.4336	1,803.22	61.8014	1,803.22	54.9454	1,803.22	60.9975	1,803.22	58.9874	1,803.22	65.331	1,803.22	47.124	1,803.22	60.612	1,803.22	60.3672	1,803.22	33.3249	1,803.22	60.9866	1,803.22	57.7122	1,803.22	57.8688	1,803.22	60.7905	1,803.22	66.6779	1,803.22	66.2292	1,803.22	68.9131
1,866.21	82.6342	1,866.21	82.298	1,866.21	82.2583	1,866.21	81.0352	1,866.21	80.7582	1,866.21	78.2843	1,866.21	77.8963	1,866.21	73.5839	1,866.21	73.9782	1,866.21	65.7826	1,866.21	68.7141	1,866.21	50.0317	1,866.21	65.553	1,866.21	53.5699	1,866.21	69.0064	1,866.21	56.1304	1,866.21	68.9329	1,866.21	59.6682	1,866.21	67.583	1,866.21	58.8999	1,866.21	65.9945	1,866.21	64.6115	1,866.21	65.39	1,866.21	65.3107	1,866.21	65.6856	1,866.21	58.601	1,866.21	61.8581	1,866.21	54.6013	1,866.21	60.554	1,866.21	54.6068	1,866.21	57.6642	1,866.21	52.8657	1,866.21	63.655	1,866.21	65.0313	1,866.21	68.1764	1,866.21	69.0734
1,932.13	82.6499	1,932.13	82.2358	1,932.13	82.1192	1,932.13	80.838	1,932.13	80.2285	1,932.13	78.3581	1,932.13	76.8166	1,932.13	74.2174	1,932.13	73.8406	1,932.13	68.0149	1,932.13	72.1378	1,932.13	66.3275	1,932.13	71.6484	1,932.13	65.4347	1,932.13	72.8309	1,932.13	66.3573	1,932.13	70.3018	1,932.13	68.0567	1,932.13	67.7119	1,932.13	65.3215	1,932.13	67.6363	1,932.13	62.2245	1,932.13	62.0946	1,932.13	58.3358	1,932.13	64.1445	1,932.13	60.9709	1,932.13	67.404	1,932.13	60.9542	1,932.13	65.2572	1,932.13	60.0666	1,932.13	61.6456	1,932.13	49.4626	1,932.13	62.1457	1,932.13	64.9989	1,932.13	66.8268	1,932.13	68.9633
1,999.51	83.5938	1,999.51	83.0015	1,999.51	82.4505	1,999.51	80.7254	1,999.51	80.1371	1,999.51	77.7464	1,999.51	76.9062	1,999.51	74.9728	1,999.51	73.5455	1,999.51	70.4449	1,999.51	72.6386	1,999.51	67.2236	1,999.51	72.3336	1,999.51	64.714	1,999.51	72.3077	1,999.51	62.8397	1,999.51	70.595	1,999.51	67.5459	1,999.51	67.475	1,999.51	67.1872	1,999.51	69.8795	1,999.51	65.3373	1,999.51	69.1842	1,999.51	68.0973	1,999.51	63.8285	1,999.51	67.0279	1,999.51	64.2865	1,999.51	60.1396	1,999.51	68.2303	1,999.51	56.185	1,999.51	67.84	1,999.51	44.7901	1,999.51	63.0758	1,999.51	63.295	1,999.51	67.0561	1,999.51	68.6403
2,069.82	84.1231	2,069.82	83.4456	2,069.82	82.7183	2,069.82	80.4872	2,069.82	80.0729	2,069.82	77.0752	2,069.82	76.137	2,069.82	73.936	2,069.82	72.8824	2,069.82	68.4033	2,069.82	74.3402	2,069.82	66.2656	2,069.82	75.2013	2,069.82	70.8659	2,069.82	74.0987	2,069.82	70.7276	2,069.82	72.054	2,069.82	70.3498	2,069.82	69.3372	2,069.82	71.0487	2,069.82	69.8677	2,069.82	68.2085	2,069.82	70.3588	2,069.82	67.8368	2,069.82	66.836	2,069.82	69.5406	2,069.82	62.5137	2,069.82	64.3497	2,069.82	67.2732	2,069.82	54.206	2,069.82	68.0752	2,069.82	62.5076	2,069.82	60.4633	2,069.82	64.6469	2,069.82	69.518	2,069.82	70.8884
2,143.07	83.9875	2,143.07	83.4744	2,143.07	82.6362	2,143.07	81.3981	2,143.07	80.1841	2,143.07	78.3633	2,143.07	77.5269	2,143.07	71.3733	2,143.07	74.606	2,143.07	66.747	2,143.07	74.5021	2,143.07	71.4442	2,143.07	76.0409	2,143.07	71.1908	2,143.07	75.8713	2,143.07	72.4309	2,143.07	74.0331	2,143.07	72.4521	2,143.07	71.7794	2,143.07	71.1228	2,143.07	71.1903	2,143.07	69.5067	2,143.07	72.4356	2,143.07	66.6239	2,143.07	72.4119	2,143.07	71.085	2,143.07	64.4416	2,143.07	70.9571	2,143.07	64.4441	2,143.07	62.3496	2,143.07	67.9799	2,143.07	59.4855	2,143.07	56.463	2,143.07	66.8447	2,143.07	68.3855	2,143.07	70.9891
2,219.24	84.6326	2,219.24	84.1042	2,219.24	82.9107	2,219.24	82.9933	2,219.24	78.229	2,219.24	79.7604	2,219.24	77.3289	2,219.24	73.9076	2,219.24	78.3351	2,219.24	75.2428	2,219.24	78.1313	2,219.24	74.5404	2,219.24	77.8049	2,219.24	75.4356	2,219.24	75.5925	2,219.24	74.9136	2,219.24	72.463	2,219.24	71.9862	2,219.24	71.4656	2,219.24	71.5961	2,219.24	73.3305	2,219.24	71.1103	2,219.24	75.1809	2,219.24	64.96	2,219.24	75.2746	2,219.24	67.2251	2,219.24	72.8297	2,219.24	70.6832	2,219.24	65.1291	2,219.24	64.955	2,219.24	63.2058	2,219.24	51.6808	2,219.24	58.0125	2,219.24	65.5665	2,219.24	71.3639	2,219.24	72.3136
2,296.88	85.7637	2,296.88	84.8705	2,296.88	84.5188	2,296.88	82.6571	2,296.88	79.1477	2,296.88	78.1758	2,296.88	75.24	2,296.88	75.7169	2,296.88	78.8297	2,296.88	75.0766	2,296.88	79.0513	2,296.88	74.4508	2,296.88	79.1804	2,296.88	73.4358	2,296.88	78.4079	2,296.88	68.2592	2,296.88	75.426	2,296.88	67.4652	2,296.88	69.8988	2,296.88	68.4328	2,296.88	72.7045	2,296.88	72.684	2,296.88	76.0532	2,296.88	70.7354	2,296.88	76.0772	2,296.88	63.1012	2,296.88	73.4746	2,296.88	67.806	2,296.88	71.7983	2,296.88	64.0254	2,296.88	68.1004	2,296.88	60.6233	2,296.88	64.58	2,296.88	62.9206	2,296.88	72.6209	2,296.88	72.7648
2,378.91	85.4741	2,378.91	85.1096	2,378.91	84.6356	2,378.91	82.1694	2,378.91	80.8721	2,378.91	78.1712	2,378.91	74.4215	2,378.91	76.2547	2,378.91	79.756	2,378.91	73.5507	2,378.91	80.6955	2,378.91	70.4359	2,378.91	80.4919	2,378.91	73.3953	2,378.91	80.9257	2,378.91	74.6595	2,378.91	79.0072	2,378.91	75.1267	2,378.91	71.5672	2,378.91	73.8979	2,378.91	73.5003	2,378.91	70.1561	2,378.91	75.4901	2,378.91	71.3821	2,378.91	75.9647	2,378.91	67.7036	2,378.91	74.2302	2,378.91	68.1231	2,378.91	73.0599	2,378.91	65.1593	2,378.91	71.1427	2,378.91	60.3495	2,378.91	68.2667	2,378.91	62.4632	2,378.91	71.9837	2,378.91	71.151
2,462.4	84.5958	2,462.4	84.3382	2,462.4	83.4542	2,462.4	82.4986	2,462.4	80.6469	2,462.4	79.6857	2,462.4	75.9374	2,462.4	75.4576	2,462.4	79.8286	2,462.4	73.2997	2,462.4	81.6351	2,462.4	77.3022	2,462.4	81.0304	2,462.4	76.3428	2,462.4	80.2208	2,462.4	74.6594	2,462.4	78.6956	2,462.4	75.4333	2,462.4	75.2585	2,462.4	73.3191	2,462.4	70.3343	2,462.4	69.266	2,462.4	75.6862	2,462.4	71.1897	2,462.4	75.1281	2,462.4	69.9619	2,462.4	73.926	2,462.4	66.1229	2,462.4	72.6339	2,462.4	64.9121	2,462.4	74.2738	2,462.4	55.3256	2,462.4	70.1678	2,462.4	64.9903	2,462.4	68.5912	2,462.4	69.6964
2,548.83	85.873	2,548.83	85.0099	2,548.83	83.6098	2,548.83	82.5208	2,548.83	79.0841	2,548.83	79.2999	2,548.83	76.793	2,548.83	77.0655	2,548.83	80.0063	2,548.83	79.5225	2,548.83	81.2035	2,548.83	78.2898	2,548.83	79.7919	2,548.83	78.4491	2,548.83	79.3747	2,548.83	77.8626	2,548.83	79.5858	2,548.83	73.3829	2,548.83	77.168	2,548.83	73.0202	2,548.83	68.9031	2,548.83	71.5148	2,548.83	72.2681	2,548.83	69.2085	2,548.83	75.172	2,548.83	70.1652	2,548.83	73.7254	2,548.83	68.5578	2,548.83	70.2102	2,548.83	62.7002	2,548.83	72.4826	2,548.83	54.1862	2,548.83	68.1755	2,548.83	64.3366	2,548.83	68.7522	2,548.83	72.7357
2,639.65	86.2789	2,639.65	85.3693	2,639.65	84.9206	2,639.65	82.6734	2,639.65	79.637	2,639.65	77.7399	2,639.65	77.461	2,639.65	79.6784	2,639.65	81.3902	2,639.65	78.6068	2,639.65	82.2829	2,639.65	77.316	2,639.65	81.232	2,639.65	74.0375	2,639.65	79.7288	2,639.65	69.5181	2,639.65	77.6598	2,639.65	72.3849	2,639.65	72.1985	2,639.65	71.9716	2,639.65	70.54	2,639.65	72.9432	2,639.65	61.8251	2,639.65	72.3602	2,639.65	72.4939	2,639.65	70.2698	2,639.65	73.7164	2,639.65	68.3179	2,639.65	70.7105	2,639.65	67.9652	2,639.65	69.8133	2,639.65	60.852	2,639.65	59.279	2,639.65	36.1736	2,639.65	72.1351	2,639.65	71.8809
2,731.93	85.3219	2,731.93	84.471	2,731.93	84.4782	2,731.93	80.9535	2,731.93	79.6024	2,731.93	80.2789	2,731.93	76.1352	2,731.93	79.9591	2,731.93	81.8327	2,731.93	77.6533	2,731.93	82.3631	2,731.93	75.1604	2,731.93	80.9687	2,731.93	74.7519	2,731.93	78.4518	2,731.93	74.9036	2,731.93	77.9936	2,731.93	73.6327	2,731.93	68.2604	2,731.93	73.9944	2,731.93	60.9286	2,731.93	72.3512	2,731.93	67.3866	2,731.93	70.0926	2,731.93	71.7397	2,731.93	70.9864	2,731.93	72.6762	2,731.93	67.7897	2,731.93	71.4947	2,731.93	68.6013	2,731.93	71.2365	2,731.93	60.4065	2,731.93	65.0043	2,731.93	56.109	2,731.93	72.8329	2,731.93	70.9072
2,828.61	85.9023	2,828.61	84.1091	2,828.61	84.6714	2,828.61	80.4101	2,828.61	80.483	2,828.61	80.4854	2,828.61	75.5951	2,828.61	79.4408	2,828.61	81.2761	2,828.61	77.5539	2,828.61	82.7534	2,828.61	75.5877	2,828.61	81.6349	2,828.61	75.7601	2,828.61	81.0334	2,828.61	76.8941	2,828.61	79.5276	2,828.61	74.9586	2,828.61	59.7766	2,828.61	70.2265	2,828.61	61.6063	2,828.61	70.515	2,828.61	73.609	2,828.61	71.659	2,828.61	73.7448	2,828.61	71.988	2,828.61	72.0303	2,828.61	67.61	2,828.61	71.0282	2,828.61	63.432	2,828.61	72.9961	2,828.61	57.1839	2,828.61	67.9835	2,828.61	65.3018	2,828.61	73.4456	2,828.61	66.1099
2,928.22	86.0495	2,928.22	83.3698	2,928.22	85.2481	2,928.22	81.4682	2,928.22	80.2654	2,928.22	80.6487	2,928.22	76.2354	2,928.22	78.795	2,928.22	81.5145	2,928.22	76.2889	2,928.22	82.4055	2,928.22	76.7286	2,928.22	81.3803	2,928.22	77.8241	2,928.22	79.5767	2,928.22	71.3784	2,928.22	76.5028	2,928.22	72.9568	2,928.22	74.4779	2,928.22	73.8111	2,928.22	65.1461	2,928.22	74.7349	2,928.22	77.1929	2,928.22	72.1937	2,928.22	72.177	2,928.22	71.9552	2,928.22	74.1564	2,928.22	70.7511	2,928.22	68.7468	2,928.22	68.0915	2,928.22	71.9399	2,928.22	60.5314	2,928.22	66.9016	2,928.22	66.1809	2,928.22	72.297	2,928.22	64.1623
3,030.76	84.9823	3,030.76	82.7757	3,030.76	85.0996	3,030.76	82.1314	3,030.76	80.8737	3,030.76	81.6069	3,030.76	76.1328	3,030.76	78.4338	3,030.76	81.421	3,030.76	75.7554	3,030.76	82.8123	3,030.76	77.382	3,030.76	81.0255	3,030.76	75.4185	3,030.76	79.5647	3,030.76	76.6951	3,030.76	76.5946	3,030.76	78.5246	3,030.76	76.2587	3,030.76	75.0659	3,030.76	65.3364	3,030.76	73.306	3,030.76	75.0097	3,030.76	72.9242	3,030.76	69.5595	3,030.76	71.185	3,030.76	72.9403	3,030.76	71.7606	3,030.76	69.6346	3,030.76	68.8038	3,030.76	70.9165	3,030.76	64.638	3,030.76	66.9837	3,030.76	62.7143	3,030.76	72.4047	3,030.76	65.4094
3,137.7	84.243	3,137.7	82.0178	3,137.7	84.8037	3,137.7	82.8988	3,137.7	80.868	3,137.7	81.5996	3,137.7	75.6152	3,137.7	77.4618	3,137.7	81.302	3,137.7	77.3818	3,137.7	83.2918	3,137.7	78.5519	3,137.7	81.1953	3,137.7	77.6246	3,137.7	79.7454	3,137.7	79.6351	3,137.7	79.7216	3,137.7	76.8281	3,137.7	77.8788	3,137.7	73.7958	3,137.7	63.3727	3,137.7	73.7486	3,137.7	71.2667	3,137.7	73.1088	3,137.7	66.0143	3,137.7	71.6776	3,137.7	70.8805	3,137.7	71.0185	3,137.7	67.6159	3,137.7	69.4656	3,137.7	69.9824	3,137.7	66.8687	3,137.7	68.5288	3,137.7	54.5484	3,137.7	71.689	3,137.7	63.3273
3,249.02	83.355	3,249.02	83.3764	3,249.02	84.7157	3,249.02	83.1885	3,249.02	81.1492	3,249.02	80.8861	3,249.02	75.4294	3,249.02	78.229	3,249.02	80.8476	3,249.02	79.7387	3,249.02	82.7905	3,249.02	79.002	3,249.02	81.013	3,249.02	79.7569	3,249.02	81.1804	3,249.02	75.661	3,249.02	81.1393	3,249.02	73.2894	3,249.02	78.3109	3,249.02	74.0483	3,249.02	67.2564	3,249.02	74.4286	3,249.02	69.6298	3,249.02	74.2777	3,249.02	72.7576	3,249.02	72.1682	3,249.02	69.9879	3,249.02	71.0213	3,249.02	68.3065	3,249.02	69.2518	3,249.02	70.5294	3,249.02	66.6213	3,249.02	69.8008	3,249.02	59.7077	3,249.02	70.5863	3,249.02	60.2196
3,363.28	82.8532	3,363.28	83.7139	3,363.28	83.9134	3,363.28	83.2896	3,363.28	81.992	3,363.28	80.3847	3,363.28	74.8025	3,363.28	79.7586	3,363.28	81.0282	3,363.28	80.0215	3,363.28	82.7994	3,363.28	78.7679	3,363.28	82.2944	3,363.28	77.3306	3,363.28	80.5615	3,363.28	73.7474	3,363.28	80.3259	3,363.28	77.8728	3,363.28	76.33	3,363.28	74.5068	3,363.28	68.7861	3,363.28	72.5438	3,363.28	72.3976	3,363.28	71.1296	3,363.28	74.6882	3,363.28	71.1205	3,363.28	71.6739	3,363.28	69.5582	3,363.28	68.1875	3,363.28	69.5143	3,363.28	71.3624	3,363.28	67.9729	3,363.28	69.3489	3,363.28	59.2499	3,363.28	69.8116	3,363.28	59.5434
3,481.93	83.2228	3,481.93	83.5445	3,481.93	83.6445	3,481.93	82.947	3,481.93	82.1342	3,481.93	80.0444	3,481.93	75.139	3,481.93	80.7442	3,481.93	80.3005	3,481.93	79.1857	3,481.93	83.2848	3,481.93	80.0669	3,481.93	83.0259	3,481.93	76.9229	3,481.93	81.0276	3,481.93	79.6141	3,481.93	80.0446	3,481.93	75.1425	3,481.93	65.8036	3,481.93	73.071	3,481.93	68.7808	3,481.93	74.1763	3,481.93	74.8493	3,481.93	73.2647	3,481.93	74.8737	3,481.93	71.4335	3,481.93	69.9011	3,481.93	71.0428	3,481.93	68.5931	3,481.93	70.0644	3,481.93	69.9769	3,481.93	68.3814	3,481.93	67.787	3,481.93	59.2349	3,481.93	68.5238	3,481.93	57.9538
3,604.98	82.2639	3,604.98	84.603	3,604.98	83.319	3,604.98	82.1944	3,604.98	82.7249	3,604.98	80.3855	3,604.98	77.5718	3,604.98	80.9075	3,604.98	78.8585	3,604.98	81.3747	3,604.98	82.7255	3,604.98	78.8039	3,604.98	83.7333	3,604.98	80.1025	3,604.98	80.8606	3,604.98	74.8898	3,604.98	77.7497	3,604.98	74.8185	3,604.98	71.5344	3,604.98	76.0791	3,604.98	70.6747	3,604.98	71.8245	3,604.98	72.6651	3,604.98	73.6706	3,604.98	73.5283	3,604.98	71.1337	3,604.98	69.1599	3,604.98	70.8624	3,604.98	67.1843	3,604.98	69.3261	3,604.98	69.0627	3,604.98	71.3492	3,604.98	61.949	3,604.98	45.5964	3,604.98	66.4436	3,604.98	62.8144
3,732.42	84.2689	3,732.42	85.4373	3,732.42	82.7224	3,732.42	82.0253	3,732.42	82.4673	3,732.42	82.2059	3,732.42	77.5996	3,732.42	82.1166	3,732.42	79.1084	3,732.42	81.1117	3,732.42	83.0102	3,732.42	80.7481	3,732.42	83.5957	3,732.42	78.8304	3,732.42	81.2101	3,732.42	78.4099	3,732.42	77.2275	3,732.42	77.2132	3,732.42	76.3935	3,732.42	74.5817	3,732.42	71.8479	3,732.42	74.3267	3,732.42	71.3607	3,732.42	72.9073	3,732.42	69.6558	3,732.42	71.4735	3,732.42	69.6658	3,732.42	71.7885	3,732.42	62.1139	3,732.42	68.591	3,732.42	68.3261	3,732.42	71.8992	3,732.42	67.6789	3,732.42	62.1903	3,732.42	67.9182	3,732.42	60.8733
3,864.26	85.4305	3,864.26	85.4927	3,864.26	81.9495	3,864.26	83.6026	3,864.26	81.7145	3,864.26	83.0311	3,864.26	77.634	3,864.26	82.3708	3,864.26	76.9911	3,864.26	82.0274	3,864.26	82.5202	3,864.26	82.3162	3,864.26	82.4978	3,864.26	79.6539	3,864.26	80.6296	3,864.26	80.6842	3,864.26	76.587	3,864.26	76.803	3,864.26	75.3611	3,864.26	77.4506	3,864.26	73.3288	3,864.26	74.9784	3,864.26	59.263	3,864.26	74.2712	3,864.26	70.2245	3,864.26	73.7317	3,864.26	68.3825	3,864.26	71.7218	3,864.26	54.9674	3,864.26	71.3663	3,864.26	66.9302	3,864.26	69.713	3,864.26	71.0388	3,864.26	63.9328	3,864.26	69.2526	3,864.26	60.7647
4,000.49	86.7881	4,000.49	85.3932	4,000.49	83.9039	4,000.49	83.4743	4,000.49	82.1628	4,000.49	82.9928	4,000.49	78.4876	4,000.49	82.805	4,000.49	74.9636	4,000.49	82.6265	4,000.49	80.6904	4,000.49	81.9491	4,000.49	82.7061	4,000.49	80.8652	4,000.49	79.3736	4,000.49	79.5053	4,000.49	77.0428	4,000.49	74.3516	4,000.49	78.9849	4,000.49	76.063	4,000.49	73.6901	4,000.49	73.3688	4,000.49	66.7104	4,000.49	72.8298	4,000.49	68.7623	4,000.49	72.4752	4,000.49	66.2067	4,000.49	73.4057	4,000.49	65.4214	4,000.49	72.9103	4,000.49	69.3418	4,000.49	70.5041	4,000.49	70.467	4,000.49	64.9651	4,000.49	68.9737	4,000.49	58.5018
4,141.11	86.3492	4,141.11	84.872	4,141.11	84.8525	4,141.11	82.9795	4,141.11	83.9848	4,141.11	84.3239	4,141.11	81.0876	4,141.11	84.2175	4,141.11	76.5763	4,141.11	83.4669	4,141.11	79.9294	4,141.11	82.8306	4,141.11	82.4324	4,141.11	80.5009	4,141.11	76.8681	4,141.11	78.3397	4,141.11	78.6849	4,141.11	79.068	4,141.11	80.3629	4,141.11	75.658	4,141.11	68.4265	4,141.11	74.3443	4,141.11	69.7434	4,141.11	71.0519	4,141.11	68.6168	4,141.11	71.0882	4,141.11	70.1776	4,141.11	71.349	4,141.11	68.8	4,141.11	73.1591	4,141.11	67.0664	4,141.11	71.6563	4,141.11	68.6998	4,141.11	64.1282	4,141.11	70.5337	4,141.11	42.0695
4,287.6	86.3079	4,287.6	83.441	4,287.6	84.5979	4,287.6	84.8261	4,287.6	85.0566	4,287.6	85.1176	4,287.6	83.4797	4,287.6	85.4109	4,287.6	76.7603	4,287.6	82.7709	4,287.6	78.9429	4,287.6	81.4848	4,287.6	80.2957	4,287.6	78.3036	4,287.6	79.2027	4,287.6	79.5631	4,287.6	81.6166	4,287.6	70.6936	4,287.6	79.071	4,287.6	74.0974	4,287.6	50.9063	4,287.6	73.5217	4,287.6	61.672	4,287.6	70.9181	4,287.6	64.3991	4,287.6	70.4856	4,287.6	72.4855	4,287.6	66.6548	4,287.6	64.8943	4,287.6	69.01	4,287.6	64.4332	4,287.6	69.8552	4,287.6	70.2051	4,287.6	65.1638	4,287.6	68.0279	4,287.6	59.7718
4,438.48	85.2225	4,438.48	84.1536	4,438.48	85.0568	4,438.48	85.6486	4,438.48	83.449	4,438.48	85.9056	4,438.48	85.0844	4,438.48	84.2801	4,438.48	76.9512	4,438.48	83.2884	4,438.48	79.485	4,438.48	81.2532	4,438.48	76.0879	4,438.48	80.0698	4,438.48	82.259	4,438.48	75.9097	4,438.48	82.0213	4,438.48	77.7541	4,438.48	75.6162	4,438.48	75.8199	4,438.48	70.0927	4,438.48	72.1514	4,438.48	59.3743	4,438.48	71.6927	4,438.48	63.9804	4,438.48	69.6941	4,438.48	71.8121	4,438.48	70.045	4,438.48	68.0427	4,438.48	71.2221	4,438.48	66.9749	4,438.48	70.6492	4,438.48	70.1753	4,438.48	63.8307	4,438.48	68.7883	4,438.48	63.4809
4,595.21	85.6949	4,595.21	85.748	4,595.21	85.4649	4,595.21	86.5504	4,595.21	83.4332	4,595.21	86.0954	4,595.21	85.0721	4,595.21	84.6299	4,595.21	80.977	4,595.21	82.1264	4,595.21	78.07	4,595.21	80.1022	4,595.21	78.8648	4,595.21	76.1984	4,595.21	83.916	4,595.21	77.7357	4,595.21	78.7579	4,595.21	71.05	4,595.21	74.4675	4,595.21	74.3972	4,595.21	70.436	4,595.21	69.6796	4,595.21	66.3265	4,595.21	73.0156	4,595.21	67.7243	4,595.21	70.5801	4,595.21	67.4177	4,595.21	71.1915	4,595.21	72.8582	4,595.21	70.5966	4,595.21	62.2133	4,595.21	72.6988	4,595.21	70.2123	4,595.21	68.1775	4,595.21	68.1297	4,595.21	60.9627
4,756.35	85.8091	4,756.35	86.5559	4,756.35	86.239	4,756.35	86.8947	4,756.35	84.0393	4,756.35	86.1881	4,756.35	85.3657	4,756.35	84.8061	4,756.35	83.4001	4,756.35	81.4089	4,756.35	77.4586	4,756.35	78.362	4,756.35	82.0158	4,756.35	78.7121	4,756.35	82.964	4,756.35	75.1983	4,756.35	78.0919	4,756.35	76.0728	4,756.35	76.9341	4,756.35	75.4655	4,756.35	73.1336	4,756.35	73.7067	4,756.35	60.0493	4,756.35	71.2775	4,756.35	61.402	4,756.35	72.5699	4,756.35	68.0559	4,756.35	71.1556	4,756.35	71.5829	4,756.35	71.5422	4,756.35	62.0994	4,756.35	71.6324	4,756.35	72.3923	4,756.35	69.0436	4,756.35	71.3562	4,756.35	54.6831
4,924.8	86.1693	4,924.8	87.4704	4,924.8	86.1735	4,924.8	85.6836	4,924.8	85.0908	4,924.8	86.4374	4,924.8	86.1965	4,924.8	84.011	4,924.8	83.3702	4,924.8	80.5186	4,924.8	79.1756	4,924.8	80.4181	4,924.8	83.1736	4,924.8	79.1574	4,924.8	80.0956	4,924.8	79.2737	4,924.8	76.8652	4,924.8	76.4139	4,924.8	74.9833	4,924.8	74.9005	4,924.8	70.0096	4,924.8	73.1403	4,924.8	49.5652	4,924.8	72.4917	4,924.8	68.4832	4,924.8	72.4468	4,924.8	61.2798	4,924.8	73.8257	4,924.8	66.3505	4,924.8	73.6223	4,924.8	61.8594	4,924.8	72.4184	4,924.8	70.6672	4,924.8	70.6633	4,924.8	71.9576	4,924.8	63.1914
5,097.66	87.8708	5,097.66	87.2825	5,097.66	85.5408	5,097.66	86.6957	5,097.66	85.1522	5,097.66	86.6478	5,097.66	86.8897	5,097.66	84.043	5,097.66	84.3814	5,097.66	82.0669	5,097.66	82.8613	5,097.66	81.5741	5,097.66	83.6402	5,097.66	81.051	5,097.66	78.3018	5,097.66	77.6626	5,097.66	78.4814	5,097.66	76.7876	5,097.66	73.4129	5,097.66	74.8398	5,097.66	63.9482	5,097.66	74.0937	5,097.66	63.8588	5,097.66	72.969	5,097.66	70.564	5,097.66	71.4195	5,097.66	65.5759	5,097.66	73.7226	5,097.66	70.6762	5,097.66	75.1559	5,097.66	53.5246	5,097.66	73.7276	5,097.66	72.6302	5,097.66	71.7431	5,097.66	65.2315	5,097.66	65.823
5,277.83	87.3894	5,277.83	86.2843	5,277.83	86.2308	5,277.83	87.0385	5,277.83	84.3741	5,277.83	85.8655	5,277.83	86.1066	5,277.83	84.095	5,277.83	86.431	5,277.83	83.1132	5,277.83	81.2454	5,277.83	82.6596	5,277.83	82.6737	5,277.83	80.2056	5,277.83	80.0449	5,277.83	78.2529	5,277.83	80.3297	5,277.83	77.6249	5,277.83	74.1244	5,277.83	73.9382	5,277.83	70.2424	5,277.83	72.927	5,277.83	58.339	5,277.83	72.5048	5,277.83	66.76	5,277.83	71.7768	5,277.83	61.4497	5,277.83	72.373	5,277.83	65.8177	5,277.83	74.427	5,277.83	32.95	5,277.83	74.1441	5,277.83	72.2474	5,277.83	70.9533	5,277.83	66.2441	5,277.83	63.3068
5,463.87	87.805	5,463.87	87.0986	5,463.87	87.5904	5,463.87	87.3637	5,463.87	84.2436	5,463.87	85.9271	5,463.87	86.7059	5,463.87	83.9626	5,463.87	87.0094	5,463.87	84.0191	5,463.87	79.6999	5,463.87	82.5636	5,463.87	82.2778	5,463.87	80.9542	5,463.87	81.5888	5,463.87	77.4515	5,463.87	79.1791	5,463.87	76.2645	5,463.87	76.115	5,463.87	73.4639	5,463.87	68.0779	5,463.87	71.8324	5,463.87	61.5169	5,463.87	71.4887	5,463.87	55.2569	5,463.87	70.5861	5,463.87	68.4095	5,463.87	71.4344	5,463.87	65.999	5,463.87	73.7117	5,463.87	59.4431	5,463.87	74.7739	5,463.87	68.1405	5,463.87	70.7301	5,463.87	67.2913	5,463.87	61.6523
5,657.23	87.5451	5,657.23	87.311	5,657.23	87.3124	5,657.23	87.4513	5,657.23	85.9549	5,657.23	85.9057	5,657.23	86.4247	5,657.23	84.7926	5,657.23	85.9953	5,657.23	84.1397	5,657.23	81.1784	5,657.23	82.4901	5,657.23	82.1336	5,657.23	79.9023	5,657.23	82.2238	5,657.23	77.495	5,657.23	78.4213	5,657.23	76.0608	5,657.23	75.5881	5,657.23	73.5799	5,657.23	70.7162	5,657.23	71.4889	5,657.23	65.0771	5,657.23	69.7863	5,657.23	41.538	5,657.23	70.254	5,657.23	70.485	5,657.23	71.8638	5,657.23	69.4724	5,657.23	72.6427	5,657.23	58.9066	5,657.23	74.8263	5,657.23	71.1946	5,657.23	71.7214	5,657.23	68.3777	5,657.23	66.6463
5,856.45	87.7431	5,856.45	87.6528	5,856.45	87.3506	5,856.45	86.9559	5,856.45	85.9785	5,856.45	86.0309	5,856.45	86.1855	5,856.45	85.3556	5,856.45	85.3485	5,856.45	83.5507	5,856.45	81.9082	5,856.45	81.1735	5,856.45	80.8251	5,856.45	79.5504	5,856.45	81.9267	5,856.45	76.6025	5,856.45	77.7671	5,856.45	75.7192	5,856.45	78.2653	5,856.45	74.3777	5,856.45	66.5526	5,856.45	71.2522	5,856.45	68.5942	5,856.45	70.6515	5,856.45	48.7875	5,856.45	67.5532	5,856.45	62.7951	5,856.45	71.6702	5,856.45	65.238	5,856.45	72.4465	5,856.45	62.0286	5,856.45	74.9306	5,856.45	69.4269	5,856.45	72.7227	5,856.45	64.6112	5,856.45	66.0384
6,062.99	87.8816	6,062.99	87.5345	6,062.99	87.5067	6,062.99	87.1234	6,062.99	85.9751	6,062.99	86.9296	6,062.99	86.1215	6,062.99	85.9846	6,062.99	86.7599	6,062.99	83.1276	6,062.99	82.1957	6,062.99	81.7386	6,062.99	81.166	6,062.99	80.1168	6,062.99	82.6374	6,062.99	78.2491	6,062.99	80.0711	6,062.99	75.9046	6,062.99	77.6702	6,062.99	71.8461	6,062.99	72.2369	6,062.99	72.2943	6,062.99	69.8393	6,062.99	71.1582	6,062.99	60.1503	6,062.99	70.3821	6,062.99	63.64	6,062.99	70.8778	6,062.99	67.3168	6,062.99	71.7411	6,062.99	61.8662	6,062.99	74.6878	6,062.99	69.5033	6,062.99	71.9945	6,062.99	61.394	6,062.99	62.8533
6,276.86	87.6624	6,276.86	86.924	6,276.86	87.8631	6,276.86	86.7065	6,276.86	86.4859	6,276.86	86.9291	6,276.86	87.1964	6,276.86	84.9731	6,276.86	87.9401	6,276.86	83.2553	6,276.86	81.3983	6,276.86	82.6624	6,276.86	80.2671	6,276.86	80.8792	6,276.86	84.0738	6,276.86	75.4897	6,276.86	81.8646	6,276.86	76.0795	6,276.86	77.0062	6,276.86	72.2067	6,276.86	72.6841	6,276.86	72.0345	6,276.86	69.953	6,276.86	70.2786	6,276.86	59.0569	6,276.86	70.3258	6,276.86	61.9202	6,276.86	70.7165	6,276.86	67.2338	6,276.86	71.7629	6,276.86	58.4447	6,276.86	73.7853	6,276.86	66.6042	6,276.86	72.8885	6,276.86	65.0236	6,276.86	66.5436
6,498.05	88.1283	6,498.05	86.9209	6,498.05	87.3742	6,498.05	86.8329	6,498.05	87.2525	6,498.05	87.4776	6,498.05	86.6306	6,498.05	84.2419	6,498.05	88.462	6,498.05	84.2352	6,498.05	82.1165	6,498.05	81.1072	6,498.05	82.4304	6,498.05	79.8051	6,498.05	84.4364	6,498.05	75.2315	6,498.05	78.8601	6,498.05	74.0137	6,498.05	76.2444	6,498.05	71.5964	6,498.05	73.3963	6,498.05	71.4737	6,498.05	69.542	6,498.05	69.7104	6,498.05	51.3498	6,498.05	68.4369	6,498.05	58.1565	6,498.05	70.407	6,498.05	58.0287	6,498.05	69.7577	6,498.05	66.1841	6,498.05	72.5133	6,498.05	68.3983	6,498.05	71.8378	6,498.05	62.1773	6,498.05	65.462
6,726.56	87.036	6,726.56	85.2853	6,726.56	87.2056	6,726.56	87.3875	6,726.56	86.2556	6,726.56	86.2209	6,726.56	85.2646	6,726.56	84.665	6,726.56	88.5901	6,726.56	83.8825	6,726.56	83.9618	6,726.56	79.8135	6,726.56	83.4703	6,726.56	79.2862	6,726.56	83.1732	6,726.56	77.1476	6,726.56	77.6004	6,726.56	76.0256	6,726.56	79.2113	6,726.56	72.2081	6,726.56	68.1314	6,726.56	71.7509	6,726.56	67.7417	6,726.56	69.2767	6,726.56	59.5776	6,726.56	66.8966	6,726.56	62.0328	6,726.56	71.2936	6,726.56	67.429	6,726.56	67.0104	6,726.56	66.3076	6,726.56	74.5125	6,726.56	69.2701	6,726.56	71.4951	6,726.56	61.1955	6,726.56	64.8288
6,963.87	87.5072	6,963.87	86.1492	6,963.87	86.5093	6,963.87	87.8177	6,963.87	87.6305	6,963.87	86.8161	6,963.87	85.8897	6,963.87	85.0867	6,963.87	87.9811	6,963.87	83.3639	6,963.87	85.0943	6,963.87	81.3319	6,963.87	81.8198	6,963.87	80.6638	6,963.87	80.674	6,963.87	77.765	6,963.87	80.5697	6,963.87	75.5448	6,963.87	79.0436	6,963.87	73.1697	6,963.87	72.0221	6,963.87	69.9159	6,963.87	71.1011	6,963.87	70.8311	6,963.87	63.9371	6,963.87	67.9623	6,963.87	60.0112	6,963.87	71.365	6,963.87	66.8154	6,963.87	70.5203	6,963.87	62.7406	6,963.87	73.9055	6,963.87	70.4392	6,963.87	71.9251	6,963.87	58.7136	6,963.87	69.2208
7,209.96	86.3776	7,209.96	85.1797	7,209.96	85.9681	7,209.96	87.9167	7,209.96	86.6236	7,209.96	86.8226	7,209.96	84.5332	7,209.96	85.3321	7,209.96	86.8451	7,209.96	84.3077	7,209.96	84.8655	7,209.96	83.0064	7,209.96	76.9981	7,209.96	80.713	7,209.96	81.8399	7,209.96	78.3458	7,209.96	82.4577	7,209.96	74.3297	7,209.96	77.699	7,209.96	73.5133	7,209.96	76.5942	7,209.96	70.8424	7,209.96	67.6696	7,209.96	71.2209	7,209.96	63.3119	7,209.96	68.5662	7,209.96	56.3778	7,209.96	71.0039	7,209.96	65.9478	7,209.96	69.75	7,209.96	57.7106	7,209.96	74.7846	7,209.96	69.1326	7,209.96	72.6501	7,209.96	60.4398	7,209.96	69.5614
7,464.84	85.513	7,464.84	85.7791	7,464.84	85.1095	7,464.84	87.458	7,464.84	86.2305	7,464.84	86.7506	7,464.84	85.3134	7,464.84	85.1834	7,464.84	86.3272	7,464.84	85.5385	7,464.84	84.8844	7,464.84	83.0314	7,464.84	73.4863	7,464.84	80.5106	7,464.84	84.5764	7,464.84	79.436	7,464.84	81.2219	7,464.84	75.6928	7,464.84	78.6569	7,464.84	74.5668	7,464.84	74.1681	7,464.84	72.065	7,464.84	63.234	7,464.84	71.663	7,464.84	65.1037	7,464.84	69.2312	7,464.84	59.4672	7,464.84	70.9794	7,464.84	64.5777	7,464.84	69.3957	7,464.84	62.2329	7,464.84	73.6654	7,464.84	71.6489	7,464.84	72.3164	7,464.84	62.3408	7,464.84	69.9753
7,727.05	84.7429	7,727.05	85.2566	7,727.05	85.5745	7,727.05	86.586	7,727.05	85.6247	7,727.05	87.0824	7,727.05	85.152	7,727.05	85.2751	7,727.05	85.9122	7,727.05	85.1846	7,727.05	84.9383	7,727.05	82.677	7,727.05	79.1854	7,727.05	80.63	7,727.05	84.6553	7,727.05	78.933	7,727.05	72.0228	7,727.05	74.521	7,727.05	75.1389	7,727.05	73.6647	7,727.05	62.8938	7,727.05	71.5498	7,727.05	61.2749	7,727.05	70.8376	7,727.05	60.2707	7,727.05	69.006	7,727.05	56.9705	7,727.05	69.5807	7,727.05	64.7852	7,727.05	68.8275	7,727.05	63.7748	7,727.05	73.5733	7,727.05	68.3485	7,727.05	71.1757	7,727.05	57.1707	7,727.05	70.7455
7,999.51	84.9652	7,999.51	85.5937	7,999.51	85.4348	7,999.51	85.9266	7,999.51	85.0179	7,999.51	86.9191	7,999.51	83.9943	7,999.51	84.8192	7,999.51	84.2658	7,999.51	84.5413	7,999.51	84.5817	7,999.51	83.0374	7,999.51	79.2033	7,999.51	80.1325	7,999.51	81.2028	7,999.51	78.4672	7,999.51	76.0905	7,999.51	74.3176	7,999.51	71.9004	7,999.51	72.3275	7,999.51	72.0004	7,999.51	71.1608	7,999.51	64.878	7,999.51	69.2661	7,999.51	50.9467	7,999.51	69.0965	7,999.51	54.1664	7,999.51	67.8553	7,999.51	59.5359	7,999.51	68.2152	7,999.51	65.3505	7,999.51	72.5276	7,999.51	67.463	7,999.51	70.9288	7,999.51	52.958	7,999.51	69.3122
8,282.23	87.0109	8,282.23	86.5627	8,282.23	87.0207	8,282.23	86.3177	8,282.23	87.1949	8,282.23	86.2153	8,282.23	85.2337	8,282.23	84.0387	8,282.23	84.2838	8,282.23	83.5919	8,282.23	85.0576	8,282.23	81.7972	8,282.23	76.8528	8,282.23	78.5991	8,282.23	75.8459	8,282.23	77.375	8,282.23	78.4392	8,282.23	74.0904	8,282.23	73.5681	8,282.23	70.9374	8,282.23	73.9688	8,282.23	69.4969	8,282.23	59.6856	8,282.23	66.8442	8,282.23	60.1351	8,282.23	67.7578	8,282.23	52.5292	8,282.23	66.1742	8,282.23	48.8636	8,282.23	67.0166	8,282.23	63.3706	8,282.23	70.4816	8,282.23	68.4788	8,282.23	69.126	8,282.23	54.4599	8,282.23	65.1561
8,573.73	88.4613	8,573.73	87.9072	8,573.73	88.2153	8,573.73	87.1047	8,573.73	87.5482	8,573.73	86.0373	8,573.73	86.3515	8,573.73	83.3217	8,573.73	83.895	8,573.73	81.4744	8,573.73	84.9288	8,573.73	78.94	8,573.73	76.6978	8,573.73	76.4425	8,573.73	75.1794	8,573.73	73.8253	8,573.73	76.8781	8,573.73	70.7106	8,573.73	72.804	8,573.73	66.942	8,573.73	68.6712	8,573.73	65	8,573.73	51.0338	8,573.73	61.5666	8,573.73	59.7571	8,573.73	61.2848	8,573.73	60.2256	8,573.73	61.8915	8,573.73	52.4708	8,573.73	61.989	8,573.73	57.2775	8,573.73	66.54	8,573.73	65.1193	8,573.73	65.3599	8,573.73	49.9786	8,573.73	65.6925
8,876.95	89.13	8,876.95	88.57	8,876.95	88.7855	8,876.95	87.5605	8,876.95	87.6693	8,876.95	85.9728	8,876.95	86.0063	8,876.95	81.4127	8,876.95	83.6782	8,876.95	79.3994	8,876.95	83.3793	8,876.95	75.376	8,876.95	75.0325	8,876.95	71.9719	8,876.95	73.8717	8,876.95	66.8754	8,876.95	70.7427	8,876.95	62.3239	8,876.95	68.5529	8,876.95	57.2421	8,876.95	59.1326	8,876.95	54.1137	8,876.95	60.9264	8,876.95	54.4109	8,876.95	54.6625	8,876.95	51.0686	8,876.95	59.3904	8,876.95	48.5594	8,876.95	55.0992	8,876.95	51.4461	8,876.95	54.611	8,876.95	58.4471	8,876.95	57.9296	8,876.95	60.0807	8,876.95	51.636	8,876.95	57.5438
9,188.96	88.9383	9,188.96	88.4602	9,188.96	88.7511	9,188.96	87.6161	9,188.96	87.4832	9,188.96	85.8375	9,188.96	85.5732	9,188.96	80.8622	9,188.96	83.5674	9,188.96	78.7617	9,188.96	81.0162	9,188.96	73.7608	9,188.96	71.9106	9,188.96	67.7446	9,188.96	70.5309	9,188.96	64.3244	9,188.96	67.3322	9,188.96	51.3855	9,188.96	62.9158	9,188.96	57.2624	9,188.96	57.539	9,188.96	52.6972	9,188.96	64.5341	9,188.96	52.7421	9,188.96	54.8349	9,188.96	53.6749	9,188.96	43.0621	9,188.96	55.0811	9,188.96	52.2625	9,188.96	54.8205	9,188.96	51.1277	9,188.96	40.4489	9,188.96	55.4539	9,188.96	48.3284	9,188.96	57.2601	9,188.96	53.5141
9,514.16	88.727	9,514.16	88.4078	9,514.16	88.5556	9,514.16	87.5438	9,514.16	87.1632	9,514.16	85.882	9,514.16	84.8681	9,514.16	81.4611	9,514.16	81.2251	9,514.16	79.3845	9,514.16	77.062	9,514.16	75.2256	9,514.16	71.897	9,514.16	69.0098	9,514.16	65.7248	9,514.16	67.964	9,514.16	63.5005	9,514.16	61.6591	9,514.16	51.0124	9,514.16	62.5339	9,514.16	60.842	9,514.16	60.1032	9,514.16	64.1136	9,514.16	60.9956	9,514.16	56.9812	9,514.16	60.7914	9,514.16	54.3032	9,514.16	60.2045	9,514.16	54.6669	9,514.16	59.6471	9,514.16	52.8176	9,514.16	54.7267	9,514.16	43.593	9,514.16	49.8027	9,514.16	56.9948	9,514.16	50.0805
9,849.61	88.6166	9,849.61	88.3091	9,849.61	88.3287	9,849.61	87.5024	9,849.61	86.7819	9,849.61	86.0246	9,849.61	83.9788	9,849.61	81.7688	9,849.61	79.8363	9,849.61	80.1092	9,849.61	75.3367	9,849.61	76.6325	9,849.61	69.4901	9,849.61	71.3799	9,849.61	62.9667	9,849.61	70.4998	9,849.61	55.1081	9,849.61	65.2467	9,849.61	58.9128	9,849.61	64.8909	9,849.61	63.8225	9,849.61	62.7199	9,849.61	63.4566	9,849.61	62.8475	9,849.61	59.7349	9,849.61	62.6686	9,849.61	52.5547	9,849.61	62.2958	9,849.61	52.0218	9,849.61	62.2248	9,849.61	56.8667	9,849.61	59.0861	9,849.61	38.2234	9,849.61	57.3565	9,849.61	55.2487	9,849.61	50.6309
10,196.8	88.4869	10,196.8	88.2018	10,196.8	88.1329	10,196.8	87.4494	10,196.8	86.3115	10,196.8	86.0353	10,196.8	83.3404	10,196.8	81.9174	10,196.8	79.1137	10,196.8	80.6185	10,196.8	75.0838	10,196.8	77.7367	10,196.8	66.8664	10,196.8	72.8459	10,196.8	57.8373	10,196.8	71.7385	10,196.8	62.7545	10,196.8	66.3888	10,196.8	64.1548	10,196.8	65.2203	10,196.8	64.2976	10,196.8	63.4257	10,196.8	61.1	10,196.8	62.6791	10,196.8	62.0942	10,196.8	63.2599	10,196.8	56.7158	10,196.8	62.8429	10,196.8	46.1076	10,196.8	63.4034	10,196.8	54.9287	10,196.8	61.3722	10,196.8	33.7489	10,196.8	59.3138	10,196.8	52.3559	10,196.8	53.6511
10,555.7	88.3561	10,555.7	88.0471	10,555.7	87.806	10,555.7	87.4638	10,555.7	85.8249	10,555.7	85.9354	10,555.7	82.85	10,555.7	81.7426	10,555.7	78.9684	10,555.7	80.8557	10,555.7	75.546	10,555.7	77.9713	10,555.7	65.7061	10,555.7	73.078	10,555.7	60.6685	10,555.7	71.4651	10,555.7	65.4312	10,555.7	66.4245	10,555.7	64.2404	10,555.7	64.5922	10,555.7	63.0593	10,555.7	62.5385	10,555.7	56.9961	10,555.7	62.3796	10,555.7	61.8988	10,555.7	62.4334	10,555.7	57.4477	10,555.7	61.5895	10,555.7	48.4049	10,555.7	63.6779	10,555.7	53.6056	10,555.7	60.4749	10,555.7	46.0698	10,555.7	57.6111	10,555.7	50.6149	10,555.7	53.2801
10,927.7	88.3562	10,927.7	88.0812	10,927.7	87.6227	10,927.7	87.2428	10,927.7	85.4041	10,927.7	85.4458	10,927.7	82.6146	10,927.7	81.4025	10,927.7	78.8531	10,927.7	80.2683	10,927.7	75.3186	10,927.7	77.0927	10,927.7	68.1055	10,927.7	72.1477	10,927.7	61.5699	10,927.7	69.8156	10,927.7	62.0289	10,927.7	64.6035	10,927.7	61.6612	10,927.7	63.2957	10,927.7	62.7903	10,927.7	62.1062	10,927.7	51.5951	10,927.7	61.3099	10,927.7	61.6217	10,927.7	61.1883	10,927.7	55.8078	10,927.7	59.8242	10,927.7	49.0528	10,927.7	62.9428	10,927.7	50.9702	10,927.7	58.5216	10,927.7	52.0347	10,927.7	56.6783	10,927.7	53.6063	10,927.7	52.3409
11,313	88.2938	11,313	88.0931	11,313	87.7348	11,313	86.8181	11,313	85.4067	11,313	84.882	11,313	82.47	11,313	80.5639	11,313	78.2081	11,313	78.9765	11,313	73.8505	11,313	76.2162	11,313	66.1303	11,313	70.438	11,313	55.6239	11,313	67.9603	11,313	61.2172	11,313	63.759	11,313	62.1072	11,313	60.2281	11,313	63.3347	11,313	59.8786	11,313	36.2348	11,313	58.7463	11,313	62.9571	11,313	59.3825	11,313	55.1729	11,313	58.8652	11,313	49.1613	11,313	62.1669	11,313	41.5467	11,313	57.8029	11,313	51.187	11,313	56.1783	11,313	52.6243	11,313	49.3094
11,712.9	88.0736	11,712.9	88.0653	11,712.9	87.6473	11,712.9	86.3396	11,712.9	85.5237	11,712.9	84.3447	11,712.9	82.3894	11,712.9	79.6153	11,712.9	77.873	11,712.9	78.3414	11,712.9	72.6793	11,712.9	75.2378	11,712.9	66.0489	11,712.9	69.048	11,712.9	59.0544	11,712.9	66.1468	11,712.9	63.5932	11,712.9	63.1087	11,712.9	63.241	11,712.9	58.6009	11,712.9	64.3085	11,712.9	58.3259	11,712.9	56.4982	11,712.9	58.3367	11,712.9	64.5864	11,712.9	57.8269	11,712.9	56.9924	11,712.9	57.9547	11,712.9	43.794	11,712.9	61.4088	11,712.9	47.2839	11,712.9	55.8253	11,712.9	44.0107	11,712.9	56.2017	11,712.9	52.239	11,712.9	52.1163
12,126	87.7348	12,126	87.5704	12,126	87.1187	12,126	85.8437	12,126	85.0934	12,126	83.741	12,126	82.2135	12,126	79.2149	12,126	77.2456	12,126	77.5732	12,126	72.2246	12,126	73.8225	12,126	66.6231	12,126	69.687	12,126	61.5283	12,126	65.3997	12,126	61.5695	12,126	62.8652	12,126	61.8816	12,126	59.3595	12,126	66.3602	12,126	58.5667	12,126	57.9839	12,126	58.1895	12,126	65.1335	12,126	58.5383	12,126	56.0763	12,126	58.2429	12,126	50.5913	12,126	61.0604	12,126	45.3916	12,126	57.2569	12,126	41.2573	12,126	56.8777	12,126	48.8859	12,126	54.5755
12,553.7	87.5318	12,553.7	87.0385	12,553.7	86.4783	12,553.7	85.2906	12,553.7	84.4513	12,553.7	83.552	12,553.7	81.9742	12,553.7	79.7451	12,553.7	77.8096	12,553.7	77.516	12,553.7	71.795	12,553.7	74.8128	12,553.7	63.6979	12,553.7	69.5993	12,553.7	63.3338	12,553.7	65.51	12,553.7	62.8726	12,553.7	63.9595	12,553.7	63.8439	12,553.7	58.745	12,553.7	67.6455	12,553.7	59.1109	12,553.7	57.4588	12,553.7	57.7342	12,553.7	65.0589	12,553.7	58.6712	12,553.7	55.3985	12,553.7	59.6235	12,553.7	48.528	12,553.7	60.972	12,553.7	50.35	12,553.7	57.2096	12,553.7	41.5715	12,553.7	57.6916	12,553.7	52.2944	12,553.7	51.8421
12,996.1	87.0196	12,996.1	86.7102	12,996.1	85.9032	12,996.1	85.0982	12,996.1	83.8557	12,996.1	83.8379	12,996.1	81.7265	12,996.1	79.8821	12,996.1	79.1085	12,996.1	78.3009	12,996.1	74.6279	12,996.1	74.0533	12,996.1	70.1764	12,996.1	71.2264	12,996.1	65.3692	12,996.1	66.8247	12,996.1	60.6689	12,996.1	64.6397	12,996.1	62.5483	12,996.1	60.0536	12,996.1	67.6209	12,996.1	58.1866	12,996.1	59.4889	12,996.1	58.8022	12,996.1	66.7875	12,996.1	57.5339	12,996.1	55.96	12,996.1	58.9549	12,996.1	40.0245	12,996.1	61.9643	12,996.1	52.2948	12,996.1	56.0727	12,996.1	46.2507	12,996.1	56.6533	12,996.1	49.6469	12,996.1	52.5083
13,454.6	86.8658	13,454.6	86.6043	13,454.6	85.4569	13,454.6	85.481	13,454.6	83.3787	13,454.6	83.9876	13,454.6	81.6197	13,454.6	79.69	13,454.6	78.7805	13,454.6	77.8608	13,454.6	73.335	13,454.6	75.1107	13,454.6	72.3422	13,454.6	70.6053	13,454.6	65.7476	13,454.6	65.6031	13,454.6	61.3527	13,454.6	63.9293	13,454.6	60.3922	13,454.6	58.6563	13,454.6	67.8232	13,454.6	57.6041	13,454.6	57.1435	13,454.6	58.4026	13,454.6	66.8308	13,454.6	57.3994	13,454.6	59.8486	13,454.6	59.8195	13,454.6	49.8293	13,454.6	59.6946	13,454.6	46.6256	13,454.6	53.8509	13,454.6	41.5988	13,454.6	56.5331	13,454.6	43.3095	13,454.6	53.2721
13,929.2	86.6536	13,929.2	86.685	13,929.2	85.3475	13,929.2	85.24	13,929.2	83.222	13,929.2	83.4171	13,929.2	81.8322	13,929.2	78.6229	13,929.2	78.4063	13,929.2	77.23	13,929.2	73.9955	13,929.2	73.9888	13,929.2	69.0749	13,929.2	69.9628	13,929.2	62.4383	13,929.2	63.6581	13,929.2	50.4687	13,929.2	63.3195	13,929.2	56.1314	13,929.2	55.8722	13,929.2	65.6622	13,929.2	55.7707	13,929.2	56.4686	13,929.2	56.4312	13,929.2	66.6757	13,929.2	54.957	13,929.2	57.7646	13,929.2	58.2249	13,929.2	47.9577	13,929.2	59.3283	13,929.2	45.8266	13,929.2	52.5287	13,929.2	44.7674	13,929.2	54.0262	13,929.2	50.8298	13,929.2	53.6435
14,419.9	86.0563	14,419.9	86.4724	14,419.9	85.1665	14,419.9	85.0699	14,419.9	83.2533	14,419.9	82.8339	14,419.9	80.8006	14,419.9	78.1045	14,419.9	77.8983	14,419.9	76.9766	14,419.9	73.5595	14,419.9	73.9242	14,419.9	70.1865	14,419.9	69.2861	14,419.9	60.5935	14,419.9	62.3028	14,419.9	51.6969	14,419.9	61.287	14,419.9	53.9776	14,419.9	55.2114	14,419.9	64.3659	14,419.9	54.3537	14,419.9	59.2873	14,419.9	54.2136	14,419.9	67.4696	14,419.9	52.9038	14,419.9	59.1554	14,419.9	57.2492	14,419.9	47.3332	14,419.9	57.6835	14,419.9	49.1555	14,419.9	46.8884	14,419.9	45.0856	14,419.9	53.6461	14,419.9	47.854	14,419.9	54.0192
14,928.2	86.5874	14,928.2	86.807	14,928.2	85.6625	14,928.2	85.4986	14,928.2	83.6685	14,928.2	82.951	14,928.2	81.2494	14,928.2	77.9121	14,928.2	76.5486	14,928.2	76.524	14,928.2	70.6921	14,928.2	72.7507	14,928.2	68.2286	14,928.2	67.6066	14,928.2	55.776	14,928.2	58.9848	14,928.2	40.863	14,928.2	59.0486	14,928.2	53.6237	14,928.2	51.0321	14,928.2	61.14	14,928.2	50.8556	14,928.2	59.877	14,928.2	49.6701	14,928.2	67.3057	14,928.2	49.3057	14,928.2	57.5108	14,928.2	54.6052	14,928.2	44.079	14,928.2	54.1922	14,928.2	41.4032	14,928.2	42.9153	14,928.2	32.4138	14,928.2	49.5903	14,928.2	42.3837	14,928.2	52.3187
15,455.6	87.1558	15,455.6	87.2192	15,455.6	86.3523	15,455.6	85.8142	15,455.6	83.8448	15,455.6	82.9051	15,455.6	81.0304	15,455.6	77.3738	15,455.6	76.2111	15,455.6	74.8229	15,455.6	69.5419	15,455.6	70.3512	15,455.6	63.9815	15,455.6	63.6001	15,455.6	53.924	15,455.6	51.5216	15,455.6	51.9598	15,455.6	54.0546	15,455.6	49.6305	15,455.6	47.1643	15,455.6	60.1243	15,455.6	45.1453	15,455.6	62.6447	15,455.6	42.6837	15,455.6	66.8677	15,455.6	45.4176	15,455.6	57.0642	15,455.6	49.4821	15,455.6	47.7335	15,455.6	45.597	15,455.6	45.1387	15,455.6	32.0052	15,455.6	41.6067	15,455.6	43.2328	15,455.6	43.3685	15,455.6	49.847
16,000.5	87.3818	16,000.5	87.5122	16,000.5	86.5538	16,000.5	86.101	16,000.5	83.8492	16,000.5	82.7407	16,000.5	80.8559	16,000.5	76.1929	16,000.5	75.0987	16,000.5	71.3864	16,000.5	67.0831	16,000.5	64.6889	16,000.5	63.4011	16,000.5	52.6396	16,000.5	55.2461	16,000.5	51.2042	16,000.5	52.9941	16,000.5	36.7681	16,000.5	47.2795	16,000.5	41.6881	16,000.5	60.8231	16,000.5	37.7536	16,000.5	61.0531	16,000.5	42.9009	16,000.5	65.1429	16,000.5	38.4025	16,000.5	55.7575	16,000.5	34.3553	16,000.5	47.4284	16,000.5	45.7786	16,000.5	38.7487	16,000.5	47.2628	16,000.5	38.9823	16,000.5	47.3873	16,000.5	41.0988	16,000.5	46.9723
16,564.5	87.0201	16,564.5	87.3021	16,564.5	86.1985	16,564.5	85.6191	16,564.5	83.3872	16,564.5	82.0783	16,564.5	80.1106	16,564.5	74.2978	16,564.5	73.6966	16,564.5	67.0094	16,564.5	62.7359	16,564.5	53.3086	16,564.5	61.5249	16,564.5	55.1731	16,564.5	56.4781	16,564.5	57.5686	16,564.5	53.3114	16,564.5	50.6596	16,564.5	46.6794	16,564.5	47.959	16,564.5	57.1311	16,564.5	45.6934	16,564.5	56.4694	16,564.5	47.2294	16,564.5	63.7132	16,564.5	46.8672	16,564.5	54.4359	16,564.5	44.1207	16,564.5	43.1574	16,564.5	53.2147	16,564.5	46.8463	16,564.5	49.8698	16,564.5	45.4979	16,564.5	52.2939	16,564.5	44.1342	16,564.5	47.527
17,148.9	86.0783	17,148.9	86.3409	17,148.9	85.3894	17,148.9	84.1238	17,148.9	82.4265	17,148.9	79.9888	17,148.9	77.9382	17,148.9	71.0858	17,148.9	70.3615	17,148.9	59.7244	17,148.9	54.0413	17,148.9	52.7408	17,148.9	47.745	17,148.9	58.9867	17,148.9	56.538	17,148.9	58.2653	17,148.9	52.6291	17,148.9	52.9633	17,148.9	49.0448	17,148.9	48.6148	17,148.9	48.4427	17,148.9	45.7949	17,148.9	55.7542	17,148.9	47.1879	17,148.9	61.3021	17,148.9	47.3133	17,148.9	49.4648	17,148.9	47.4464	17,148.9	43.0508	17,148.9	53.9992	17,148.9	42.7748	17,148.9	47.4769	17,148.9	32.5442	17,148.9	52.2056	17,148.9	42.9214	17,148.9	47.4896
17,752.4	84.778	17,752.4	84.8696	17,752.4	84.2075	17,752.4	81.9374	17,752.4	80.7033	17,752.4	76.9071	17,752.4	75.0603	17,752.4	66.9951	17,752.4	65.5708	17,752.4	56.6186	17,752.4	52.2591	17,752.4	59.4596	17,752.4	54.8651	17,752.4	60.7093	17,752.4	58.9025	17,752.4	57.201	17,752.4	53.5286	17,752.4	52.5989	17,752.4	47.4553	17,752.4	47.8442	17,752.4	49.3504	17,752.4	44.4743	17,752.4	57.9126	17,752.4	43.8109	17,752.4	60.621	17,752.4	46.1475	17,752.4	48.3905	17,752.4	48.1034	17,752.4	39.915	17,752.4	51.0389	17,752.4	40.9053	17,752.4	43.9517	17,752.4	32.1264	17,752.4	51.03	17,752.4	37.9841	17,752.4	45.1472
18,379.4	83.6642	18,379.4	83.3475	18,379.4	82.9074	18,379.4	80.228	18,379.4	78.923	18,379.4	74.6511	18,379.4	73.1083	18,379.4	64.5198	18,379.4	61.5423	18,379.4	58.7977	18,379.4	57.7871	18,379.4	57.9711	18,379.4	57.6402	18,379.4	57.232	18,379.4	59.0368	18,379.4	54.7183	18,379.4	53.5803	18,379.4	50.7017	18,379.4	41.6066	18,379.4	43.577	18,379.4	51.4486	18,379.4	40.7119	18,379.4	58.0415	18,379.4	42.0786	18,379.4	60.3518	18,379.4	42.6123	18,379.4	46.3127	18,379.4	44.8809	18,379.4	28.7708	18,379.4	46.3626	18,379.4	39.222	18,379.4	43.9551	18,379.4	41.2098	18,379.4	48.8977	18,379.4	38.3989	18,379.4	40.3049
19,026.9	82.3386	19,026.9	81.7639	19,026.9	81.4261	19,026.9	78.3743	19,026.9	77.1112	19,026.9	72.2566	19,026.9	70.3127	19,026.9	59.8539	19,026.9	57.3892	19,026.9	53.4534	19,026.9	58.1256	19,026.9	53.6562	19,026.9	57.3347	19,026.9	53.3043	19,026.9	55.6656	19,026.9	49.9767	19,026.9	50.8651	19,026.9	46.343	19,026.9	35.5845	19,026.9	35.3277	19,026.9	49.2619	19,026.9	33.0108	19,026.9	55.0996	19,026.9	35.978	19,026.9	57.1973	19,026.9	36.0414	19,026.9	44.0784	19,026.9	38.871	19,026.9	33.2848	19,026.9	36.8224	19,026.9	34.7253	19,026.9	37.9972	19,026.9	35.0149	19,026.9	43.6227	19,026.9	31.04	19,026.9	39.1697
19,697.8	81.0982	19,697.8	80.2967	19,697.8	80.1417	19,697.8	76.2456	19,697.8	75.4295	19,697.8	68.9788	19,697.8	68.2355	19,697.8	55.918	19,697.8	59.0874	19,697.8	57.7357	19,697.8	59.281	19,697.8	56.0115	19,697.8	58.0352	19,697.8	54.3451	19,697.8	54.6075	19,697.8	48.0628	19,697.8	46.3239	19,697.8	41.7741	19,697.8	41.1447	19,697.8	35.4225	19,697.8	48.1124	19,697.8	31.5303	19,697.8	51.9115	19,697.8	29.5225	19,697.8	54.3704	19,697.8	39.0682	19,697.8	39.311	19,697.8	34.5541	19,697.8	27.5573	19,697.8	30.1799	19,697.8	34.4528	19,697.8	31.4119	19,697.8	36.5065	19,697.8	38.9318	19,697.8	28.143	19,697.8	36.9525
19,999.5	80.8419	19,999.5	79.8901	19,999.5	79.6997	19,999.5	75.5731	19,999.5	75.3837	19,999.5	67.4144	19,999.5	67.836	19,999.5	56.6907	19,999.5	61.36	19,999.5	60.4782	19,999.5	59.5914	19,999.5	56.9437	19,999.5	58.445	19,999.5	54.649	19,999.5	47.8226	19,999.5	48.2512	19,999.5	50.1172	19,999.5	43.5619	19,999.5	37.8572	19,999.5	42.6782	19,999.5	48.4271	19,999.5	23.8431	19,999.5	52.1263	19,999.5	24.9955	19,999.5	54.7585	19,999.5	40.2996	19,999.5	39.1857	19,999.5	43.7624	19,999.5	42.3951	19,999.5	47.1109	19,999.5	41.7891	19,999.5	51.219	19,999.5	36.8714	19,999.5	43.4834	19,999.5	40.493	19,999.5	35.8043
