Freq[Hz]     dBSPL  Phase[Deg]
5.00000     -8.470    58.838
5.07273     -8.411    61.657
5.14651     -8.361    64.579
5.22137     -8.335    67.787
5.29732     -8.309    70.995
5.37437     -8.283    74.203
5.45254     -8.256    77.411
5.53185     -8.221    81.017
5.61231     -8.177    85.044
5.69394     -8.132    89.072
5.77676     -8.087    93.099
5.86079     -8.040    97.137
5.94604     -7.887   101.816
6.03252     -7.733   106.496
6.12027     -7.579   111.175
6.20929     -7.425   115.854
6.29961     -7.188   120.421
6.39124     -6.932   124.962
6.48420     -6.676   129.504
6.57851     -6.421   134.046
6.67420     -6.195   138.282
6.77128     -5.974   142.469
6.86977     -5.752   146.657
6.96969     -5.547   150.894
7.07107     -5.458   155.518
7.17392     -5.369   160.141
7.27827     -5.280   164.764
7.38413     -5.220   170.269
7.49154     -5.184   176.455
7.60050     -5.148  -177.359
7.71105     -5.077  -170.923
7.82321     -4.853  -163.390
7.93701     -4.630  -155.857
8.05245     -4.406  -148.323
8.16958     -3.980  -141.289
8.28841     -3.546  -134.273
8.40896     -3.113  -127.258
8.53128     -2.728  -121.101
8.65537     -2.350  -115.055
8.78126     -1.972  -109.009
8.90899     -1.756  -102.548
9.03857     -1.550   -96.061
9.17004     -1.343   -89.393
9.30342     -1.130   -81.290
9.43874     -0.917   -73.188
9.57603     -0.607   -64.863
9.71532     -0.150   -56.200
9.85663      0.306   -47.537
10.0000      0.808   -39.687
10.1455      1.322   -32.064
10.2930      1.805   -24.529
10.4427      2.199   -17.240
10.5946      2.593    -9.952
10.7487      3.063    -1.971
10.9051      3.549     6.148
11.0637      4.212    13.863
11.2246      5.065    21.151
11.3879      5.954    27.670
11.5535      6.977    31.387
11.7216      7.995    35.041
11.8921      8.802    34.949
12.0650      9.608    34.857
12.2405     10.040    32.199
12.4186     10.424    29.210
12.5992     10.379    24.460
12.7825     10.239    19.320
12.9684      9.574    12.878
13.1570      8.787     6.133
13.3484      7.180    -1.270
13.5426      5.440    -8.781
13.7395      1.601   -12.779
13.9394     -2.112    -9.502
14.1421     -4.242    48.087
14.3478     -3.908    87.951
14.5565      1.729    89.697
14.7683      5.556    85.041
14.9831      7.983    75.438
15.2010      9.319    64.718
15.4221     10.288    53.743
15.6464     10.463    42.483
15.8740     10.030    31.003
16.1049      9.111    19.345
16.3392      6.479     6.241
16.5768      1.371   -15.055
16.8179     -7.242   -48.171
17.0626     -2.342    77.497
17.3107      3.247   159.481
17.5625      7.231   143.770
17.8180      8.820   130.703
18.0771      9.543   118.009
18.3401      9.452   105.541
18.6068      8.293    93.352
18.8775      6.033    82.548
19.1521      2.290    77.537
19.4306     -2.718    84.969
19.7133     -2.748   144.741
20.0000      1.788   161.654
20.2909      6.275   160.051
20.5860      9.182   152.092
20.8855     11.178   144.004
21.1893     12.469   137.760
21.4975     13.319   133.674
21.8102     13.822   131.865
22.1274     14.046   132.541
22.4492     14.076   135.972
22.7758     14.055   142.433
23.1071     14.214   151.829
23.4432     14.842   162.792
23.7841     16.010   172.273
24.1301     17.380   178.605
24.4811     18.682  -177.714
24.8372     19.812  -175.439
25.1984     20.818  -173.370
25.5649     21.832  -170.867
25.9368     22.988  -168.103
26.3141     24.313  -165.784
26.6968     25.712  -164.435
27.0851     27.046  -163.941
27.4791     28.216  -163.652
27.8788     29.213  -162.731
28.2843     30.111  -160.673
28.6957     31.011  -157.483
29.1131     31.981  -153.641
29.5365     33.022  -149.785
29.9661     34.076  -146.324
30.4020     35.079  -143.325
30.8442     35.981  -140.644
31.2929     36.793  -138.057
31.7480     37.529  -135.488
32.2098     38.212  -132.956
32.6783     38.860  -130.586
33.1536     39.492  -128.491
33.6359     40.119  -126.742
34.1251     40.758  -125.403
34.6215     41.428  -124.463
35.1250     42.147  -123.885
35.6359     42.932  -123.724
36.1543     43.767  -123.862
36.6802     44.637  -124.122
37.2137     45.535  -124.285
37.7550     46.461  -124.243
38.3041     47.421  -124.025
38.8613     48.397  -123.794
39.4265     49.364  -123.672
40.0000     50.302  -123.701
40.5818     51.198  -123.924
41.1721     52.050  -124.420
41.7710     52.848  -125.213
42.3785     53.574  -126.269
42.9949     54.237  -127.389
43.6203     54.859  -128.453
44.2548     55.457  -129.460
44.8985     56.024  -130.469
45.5515     56.538  -131.416
46.2141     56.989  -132.165
46.8863     57.384  -132.680
47.5683     57.713  -133.060
48.2602     57.958  -133.307
48.9621     58.119  -133.273
49.6743     58.229  -132.917
50.3968     58.311  -132.390
51.1299     58.363  -131.771
51.8736     58.390  -130.972
52.6281     58.418  -129.952
53.3936     58.455  -128.728
54.1702     58.500  -127.227
54.9581     58.563  -125.399
55.7575     58.636  -123.318
56.5685     58.700  -120.988
57.3914     58.752  -118.384
58.2261     58.795  -115.585
59.0730     58.824  -112.600
59.9323     58.855  -109.384
60.8040     58.911  -105.976
61.6884     59.001  -102.411
62.5857     59.123   -98.718
63.4960     59.260   -94.877
64.4196     59.387   -90.736
65.3566     59.511   -86.207
66.3073     59.622   -81.426
67.2717     59.706   -76.416
68.2502     59.780   -71.241
69.2429     59.856   -66.086
70.2501     59.938   -61.054
71.2719     60.031   -56.120
72.3086     60.143   -51.211
73.3603     60.271   -46.242
74.4274     60.403   -41.106
75.5099     60.529   -35.651
76.6083     60.667   -29.868
77.7226     60.821   -23.928
78.8531     60.990   -17.874
80.0000     61.186   -11.813
81.1636     61.370    -5.703
82.3442     61.555     0.818
83.5419     61.773     7.464
84.7570     61.957    14.076
85.9899     62.112    20.800
87.2406     62.265    27.547
88.5096     62.439    34.235
89.7970     62.629    40.821
91.1031     62.815    47.408
92.4282     62.946    54.292
93.7726     63.052    61.853
95.1366     63.170    69.749
96.5204     63.296    77.840
97.9243     63.455    85.939
99.3486     63.623    93.912
100.794     63.796   101.888
102.260     63.968   109.855
103.747     64.141   117.871
105.256     64.318   125.939
106.787     64.495   134.041
108.340     64.643   142.298
109.916     64.772   150.909
111.515     64.907   159.805
113.137     65.060   168.906
114.783     65.211   178.092
116.452     65.336  -172.535
118.146     65.455  -163.084
119.865     65.575  -153.694
121.608     65.713  -144.243
123.377     65.873  -134.464
125.171     66.012  -124.311
126.992     66.105  -113.925
128.839     66.158  -103.677
130.713     66.183   -93.661
132.615     66.193   -83.355
134.543     66.236   -72.182
136.500     66.292   -60.769
138.486     66.297   -50.476
140.500     66.301   -38.984
142.544     66.318   -26.317
144.617     66.313   -14.598
146.721     66.334    -2.552
148.855     66.402    10.260
151.020     66.401    22.757
153.217     66.331    35.553
155.445     66.297    48.414
157.706     66.255    61.153
160.000     66.155    75.865
162.327     66.129    90.888
164.688     66.115   104.469
167.084     66.199   118.963
169.514     66.130   134.063
171.980     65.921   150.222
174.481     65.816   165.451
177.019     65.807  -179.489
179.594     65.830  -163.174
182.206     65.860  -145.583
184.856     65.894  -128.070
187.545     65.893  -111.998
190.273     65.907   -95.198
193.041     65.935   -78.563
195.849     65.975   -61.378
198.697     65.993   -43.498
201.587     65.880   -25.973
204.520     65.768    -7.225
207.494     65.638    11.707
210.512     65.521    31.887
213.574     65.400    51.759
216.681     65.345    71.259
219.833     65.294    91.876
223.030     65.319   113.209
226.274     65.258   134.619
229.565     65.212   156.338
232.905     65.159   178.291
236.292     65.152  -160.061
239.729     65.134  -136.797
243.216     65.202  -113.696
246.754     65.237   -90.511
250.343     65.175   -66.514
253.984     65.174   -42.617
257.678     65.138   -18.442
261.426     65.082     7.229
265.229     65.004    32.052
269.087     64.923    57.679
273.001     64.804    82.813
276.972     64.402   108.952
281.000     64.235   138.534
285.088     64.314   168.324
289.234     64.457  -162.430
293.441     64.543  -133.931
297.709     64.517  -105.317
302.040     64.358   -77.017
306.433     64.199   -45.314
310.890     64.325   -12.940
315.412     64.172    19.040
320.000     64.048    51.144
324.655     63.993    84.275
329.377     64.080   117.468
334.168     64.092   152.271
339.028     64.027  -172.318
343.959     63.926  -136.699
348.962     63.944  -101.045
354.038     64.042   -65.139
359.188     64.050   -28.964
364.412     63.952     8.874
369.713     63.823    48.086
375.090     63.769    86.853
380.546     63.808   127.208
386.081     63.783   166.597
391.697     63.696  -151.922
397.394     63.619  -109.647
403.175     63.437   -67.222
409.039     63.425   -23.669
414.989     63.300    21.287
421.025     63.321    65.987
427.149     63.235   110.925
433.362     63.225   156.188
439.665     63.203  -156.163
446.060     63.186  -107.859
452.548     63.239   -59.900
459.131     63.301   -10.148
465.809     63.439    40.067
472.584     63.427    90.546
479.458     63.534   141.370
486.432     63.619  -166.625
493.507     63.704  -113.545
500.686     63.806   -58.940
507.968     63.968    -4.703
515.357     64.088    49.401
522.853     64.237   104.844
530.458     64.378   161.416
538.174     64.507  -142.224
546.002     64.623   -85.995
553.943     64.725   -28.652
562.001     64.798    29.836
570.175     64.886    89.391
578.469     64.925   150.410
586.883     64.933  -148.645
595.419     64.898   -87.621
604.080     64.835   -25.413
612.866     64.738    38.292
621.780     64.585   103.485
630.824     64.397   169.969
640.000     64.182  -123.263
649.309     63.916   -56.041
658.753     63.598    12.629
668.335     63.252    84.496
678.056     62.870   156.777
687.919     62.485  -129.028
697.925     62.110   -52.899
708.077     61.799    24.103
718.376     61.524   102.917
728.825     61.363  -176.323
739.426     61.313   -94.045
750.181     61.418   -10.426
761.093     61.629    74.138
772.163     61.955   158.185
783.394     62.295  -117.159
794.789     62.686   -30.636
806.349     63.047    55.279
818.078     63.375   141.765
829.977     63.645  -130.762
842.050     63.823   -42.374
854.298     63.916    47.026
866.724     63.909   136.229
879.330     63.788  -131.902
892.120     63.565   -38.613
905.097     63.207    56.252
918.262     62.728   153.064
931.618     62.094  -108.245
945.169     61.355    -7.083
958.917     60.557    96.758
972.864     59.735  -155.800
987.015     59.017   -45.088
1001.37     58.615    70.376
1015.94     58.639  -172.157
1030.71     59.099   -55.889
1045.71     59.834    61.419
1060.92     60.667   179.266
1076.35     61.438   -64.883
1092.00     62.127    50.892
1107.89     62.696   168.535
1124.00     63.113   -73.200
1140.35     63.413    46.193
1156.94     63.586   168.111
1173.77     63.642   -68.617
1190.84     63.616    56.081
1208.16     63.515  -177.744
1225.73     63.368   -48.687
1243.56     63.172    83.087
1261.65     62.948  -143.610
1280.00     62.676    -9.324
1298.62     62.367   126.219
1317.51     61.957   -95.946
1336.67     61.437    44.059
1356.11     60.758  -175.238
1375.84     59.893   -32.343
1395.85     58.728   112.670
1416.15     57.234  -101.414
1436.75     55.174    44.861
1457.65     52.346  -167.447
1478.85     48.070   -20.337
1500.36     40.550   109.401
1522.19     38.849   177.591
1544.33     45.951   -56.124
1566.79     49.754   100.505
1589.58     51.952   -95.514
1612.70     53.305    72.772
1636.16     54.108  -114.467
1659.95     54.654    62.543
1684.10     55.102  -116.284
1708.60     55.517    68.185
1733.45     55.946  -105.724
1758.66     56.340    83.913
1784.24     56.594   -83.814
1810.19     56.691   109.727
1836.52     56.616   -51.465
1863.24     56.488   151.533
1890.34     56.526    -0.939
1917.83     56.895  -149.975
1945.73     57.600    62.298
1974.03     58.385   -83.806
2002.74     59.029   130.442
2031.87     59.350   -13.832
2061.43     59.291  -155.477
2091.41     58.910    68.406
2121.83     58.344   -61.051
2152.69     57.939   173.665
2184.01     57.959    53.613
2215.77     58.337   -63.676
2248.00     58.776   179.303
2280.70     59.007    63.592
2313.87     58.965   -48.206
2347.53     58.759  -154.806
2381.68     58.556   102.668
2416.32     58.477     4.765
2451.46     58.503   -89.131
2487.12     58.514  -179.475
2523.30     58.499    94.490
2560.00     58.557    12.950
2597.24     58.737   -66.085
2635.01     58.985  -142.120
2673.34     59.127   144.753
2712.23     59.123    75.502
2751.68     59.016    12.230
2791.70     58.964   -46.525
2832.31     58.992  -102.027
2873.50     58.921  -154.664
2915.30     58.566   156.231
2957.70     57.988   113.702
3000.72     57.418    77.143
3044.37     57.071    44.958
3088.65     56.789    16.554
3133.58     56.244    -8.769
3179.16     55.362   -27.156
3225.40     54.615   -37.452
3272.31     54.344   -43.301
3319.91     54.251   -47.199
3368.20     53.762   -47.624
3417.19     52.933   -42.560
3466.89     52.276   -29.719
3517.32     52.055   -10.679
3568.48     51.890    10.104
3620.39     51.619    35.824
3673.05     51.631    69.197
3726.47     52.079   104.772
3780.67     52.455   141.826
3835.67     52.305  -176.546
3891.46     51.924  -125.846
3948.06     51.774   -68.088
4005.49     51.648    -6.139
4063.75     50.997    65.059
4122.86     50.232   148.637
4182.82     50.486  -119.034
4243.66     51.214   -24.335
4305.39     51.150    73.263
4368.01     50.470  -177.449
4431.55     50.183   -57.256
4496.01     50.088    70.092
4561.40     50.242  -152.197
4627.75     51.397   -10.229
4695.06     52.279   132.910
4763.35     52.256   -76.578
4832.64     52.349    83.786
4902.93     52.511  -110.699
4974.24     51.831    63.601
5046.60     51.270  -109.119
5120.00     51.360    83.978
5194.47     51.107   -77.749
5270.03     50.485   127.187
5346.68     49.197   -19.359
5424.45     47.674  -147.817
5503.35     47.778    89.767
5583.40     46.905   -35.488
5664.61     44.456  -146.233
5747.01     41.057   116.124
5830.60     38.043    53.893
5915.41     41.408   -23.003
6001.45     39.141  -131.492
6088.74     29.671   131.016
6177.30     29.379    33.834
6267.15     36.458   -66.530
6358.31     36.624  -117.607
6450.80     38.064  -117.519
6544.62     42.569  -113.724
6639.82     47.706  -121.089
6736.40     49.742  -125.109
6834.38     51.371  -110.225
6933.79     52.791   -92.508
7034.64     52.313   -59.137
7136.96     52.301    -8.319
7240.77     52.359    53.836
7346.09     52.258   130.117
7452.94     52.493  -141.013
7561.35     53.084   -42.779
7671.33     53.519    67.603
7782.91     54.064  -173.078
7896.12     54.545   -43.443
8010.97     54.540    95.461
8127.49     54.227  -110.451
8245.71     53.594    53.498
8365.65     52.421  -130.134
8487.33     50.597    60.946
8610.78     48.609   -91.568
8736.03     47.062   133.740
8863.09     47.124     8.133
8992.01     47.280  -116.899
9122.80     46.559   127.243
9255.50     45.694    28.139
9390.12     45.351   -50.490
9526.70     45.780  -114.562
9665.27     46.135  -165.553
9805.86     45.826   162.250
9948.49     45.157   148.782
10093.2     43.786   157.584
10240.0     43.604  -172.379
10388.9     43.354  -127.460
10540.1     43.389   -70.617
10693.4     42.649     5.054
10848.9     42.124    99.434
11006.7     42.132  -149.793
11166.8     41.789   -29.719
11329.2     40.185   106.771
11494.0     38.948   -91.009
11661.2     36.690    83.178
11830.8     35.636   -71.461
12002.9     34.827   138.556
12177.5     33.530     8.070
12354.6     31.496  -101.770
12534.3     31.539  -168.803
12716.6     34.897   124.885
12901.6     37.439    65.438
13089.2     39.383    24.552
13279.6     40.352     3.239
13472.8     40.645     5.163
13668.8     39.728    31.936
13867.6     39.379    94.806
14069.3     41.123   172.489
14273.9     42.363   -98.672
14481.5     42.611    13.457
14692.2     42.737   148.257
14905.9     42.121   -58.698
15122.7     41.295   123.418
15342.7     40.925   -32.884
15565.8     40.220  -170.172
15792.2     39.352    80.550
16021.9     38.865    -3.784
16255.0     38.138   -63.716
16491.4     36.324   -96.861
16731.3     33.504   -94.232
16974.7     31.085   -50.920
17221.6     28.840    14.339
17472.1     27.530   129.237
17726.2     29.950   -98.165
17984.0     31.713    34.832
18245.6     32.128  -171.247
18511.0     32.469     7.191
18780.2     33.131  -147.826
19053.4     33.529    87.710
19330.5     33.513    -3.695
19611.7     33.219   -59.732
19897.0     32.200   -84.396
20186.4     29.890   -76.982
20480.0     26.287   -35.115
20777.9     21.002    47.041
21080.1     16.406   -31.031
21386.7     12.160   116.460
21697.8     10.119  -158.892
22013.4     11.389   -52.689
22333.6     13.806    -0.045
22658.4     17.873   171.070
22988.0     19.886   109.764
23322.4     21.756   144.465
23661.6     24.583   178.357
24005.8     26.365    58.067
24355.0     26.252   -38.592
24709.2     25.168    90.410
25068.6     24.705  -110.151
25433.2     24.232    85.795
25803.2     23.634   -22.554
26178.5     22.797   -94.103
26559.3     21.704  -119.075
26945.6     21.119   -98.239
27337.5     21.328   -46.265
27735.2     18.938  -101.669
28138.6     13.782   -32.585
28547.9     15.088  -115.903
28963.1     14.221  -123.353
29384.4     17.582    67.917
29811.8     17.147   -55.504
30245.4     16.597  -147.851
30685.3     13.860    99.294
31131.7     15.203     0.432
31584.5     17.977   -25.393
32043.9     19.446   -41.464
32510.0     17.422   -21.458
32982.8     16.021   -79.263
33462.6     16.696  -160.148
33949.3     16.321   -47.678
34443.1     15.877   158.816
34944.1     15.974   -92.602
35452.4     16.151   -90.446
35968.0     14.943    13.405
36491.2     13.807   -58.352
37022.0     14.921     1.102
37560.5     14.936  -135.459
38106.8     14.125   -15.690
38661.1     14.528   -75.344
39223.4     14.823   107.492
39793.9     14.592    27.742
