Freq[Hz]     dBSPL  Phase[Deg]
5.00000     -9.799    21.221
5.07273     -9.748    23.756
5.14651     -9.710    26.379
5.22137     -9.705    29.248
5.29732     -9.700    32.118
5.37437     -9.695    34.988
5.45254     -9.690    37.857
5.53185     -9.683    41.082
5.61231     -9.673    44.682
5.69394     -9.664    48.282
5.77676     -9.654    51.882
5.86079     -9.642    55.491
5.94604     -9.533    59.624
6.03252     -9.424    63.758
6.12027     -9.315    67.891
6.20929     -9.206    72.024
6.29961     -9.018    75.930
6.39124     -8.813    79.787
6.48420     -8.609    83.644
6.57851     -8.404    87.501
6.67420     -8.230    90.926
6.77128     -8.060    94.281
6.86977     -7.891    97.637
6.96969     -7.737   101.026
7.07107     -7.697   104.672
7.17392     -7.657   108.318
7.27827     -7.617   111.964
7.38413     -7.602   116.414
7.49154     -7.608   121.485
7.60050     -7.613   126.555
7.71105     -7.582   131.852
7.82321     -7.390   138.144
7.93701     -7.197   144.436
8.05245     -7.005   150.728
8.16958     -6.598   156.411
8.28841     -6.183   162.071
8.40896     -5.767   167.732
8.53128     -5.388   172.445
8.65537     -5.013   177.036
8.78126     -4.638  -178.373
8.90899     -4.409  -173.448
9.03857     -4.188  -168.500
9.17004     -3.965  -163.381
9.30342     -3.718  -156.889
9.43874     -3.471  -150.397
9.57603     -3.119  -143.703
9.71532     -2.605  -136.703
9.85663     -2.092  -129.703
10.0000     -1.514  -123.539
10.1455     -0.919  -117.608
10.2930     -0.348  -111.766
10.4427      0.154  -106.171
10.5946      0.657  -100.577
10.7487      1.262   -94.259
10.9051      1.887   -87.797
11.0637      2.706   -81.695
11.2246      3.732   -75.976
11.3879      4.802   -70.990
11.5535      6.033   -68.680
11.7216      7.262   -66.430
11.8921      8.311   -67.675
12.0650      9.361   -68.921
12.2405     10.062   -72.401
12.4186     10.718   -76.170
12.5992     10.956   -81.281
12.7825     11.102   -86.690
12.9684     10.713   -92.883
13.1570     10.198   -99.260
13.3484      8.814  -105.704
13.5426      7.289  -112.158
13.7395      3.558  -114.548
13.9394     -0.067  -109.613
14.1421     -2.245   -50.145
14.3478     -2.008    -8.465
14.5565      3.422    -5.040
14.7683      6.967    -8.351
14.9831      9.056   -16.865
15.2010      9.984   -27.179
15.4221     10.526   -38.017
15.6464     10.246   -49.810
15.8740      9.356   -62.240
16.1049      7.980   -75.177
16.3392      4.913   -90.167
16.5768     -0.615  -113.581
16.8179     -9.629  -149.120
17.0626     -5.095   -26.241
17.3107      0.151    52.775
17.5625      3.818    33.895
17.8180      5.129    17.407
18.0771      5.600     1.166
18.3401      5.282   -14.976
18.6068      3.936   -30.994
18.8775      1.520   -45.732
19.1521     -2.352   -54.759
19.4306     -7.461   -51.415
19.7133     -7.551     4.193
20.0000     -3.041    16.901
20.2909      1.451    11.071
20.5860      4.397    -1.119
20.8855      6.466   -13.425
21.1893      7.873   -23.830
21.4975      8.875   -31.989
21.8102      9.565   -37.751
22.1274     10.009   -40.867
22.4492     10.291   -41.020
22.7758     10.548   -37.887
23.1071     11.007   -31.510
23.4432     11.944   -23.211
23.7841     13.417   -15.974
24.1301     15.073   -11.480
24.4811     16.621    -9.257
24.8372     17.945    -8.123
25.1984     19.072    -6.979
25.5649     20.128    -5.321
25.9368     21.243    -3.475
26.3141     22.451    -2.299
26.6968     23.668    -2.441
27.0851     24.772    -3.872
27.4791     25.684    -6.011
27.8788     26.409    -8.038
28.2843     27.041    -9.417
28.6957     27.695   -10.115
29.1131     28.450   -10.568
29.5365     29.316   -11.358
29.9661     30.245   -12.832
30.4020     31.178   -14.990
30.8442     32.080   -17.616
31.2929     32.952   -20.375
31.7480     33.814   -23.100
32.2098     34.679   -25.718
32.6783     35.568   -28.219
33.1536     36.479   -30.654
33.6359     37.407   -33.046
34.1251     38.349   -35.392
34.6215     39.302   -37.703
35.1250     40.266   -40.045
35.6359     41.233   -42.545
36.1543     42.188   -45.257
36.6802     43.113   -48.151
37.2137     44.008   -51.149
37.7550     44.892   -54.215
38.3041     45.785   -57.460
38.8613     46.687   -61.006
39.4265     47.590   -64.973
40.0000     48.481   -69.305
40.5818     49.357   -73.975
41.1721     50.210   -78.974
41.7710     51.026   -84.253
42.3785     51.778   -89.725
42.9949     52.461   -95.188
43.6203     53.083  -100.549
44.2548     53.655  -105.876
44.8985     54.165  -111.324
45.5515     54.593  -116.919
46.2141     54.941  -122.601
46.8863     55.226  -128.385
47.5683     55.459  -134.391
48.2602     55.632  -140.581
48.9621     55.763  -146.728
49.6743     55.890  -152.690
50.3968     56.040  -158.495
51.1299     56.203  -164.097
51.8736     56.372  -169.307
52.6281     56.550  -174.031
53.3936     56.723  -178.297
54.1702     56.872   177.892
54.9581     56.993   174.458
55.7575     57.078   171.179
56.5685     57.117   167.925
57.3914     57.122   164.644
58.2261     57.114   161.239
59.0730     57.107   157.726
59.9323     57.125   154.249
60.8040     57.192   150.864
61.6884     57.311   147.619
62.5857     57.470   144.526
63.4960     57.638   141.591
64.4196     57.783   138.908
65.3566     57.910   136.481
66.3073     58.017   134.123
67.2717     58.102   131.784
68.2502     58.190   129.444
69.2429     58.301   126.994
70.2501     58.432   124.415
71.2719     58.579   121.785
72.3086     58.731   119.165
73.3603     58.877   116.563
74.4274     59.002   113.983
75.5099     59.107   111.494
76.6083     59.221   109.087
77.7226     59.360   106.632
78.8531     59.525   104.160
80.0000     59.721   101.614
81.1636     59.899    99.027
82.3442     60.068    96.696
83.5419     60.262    94.258
84.7570     60.433    91.527
85.9899     60.596    88.713
87.2406     60.782    85.842
88.5096     61.002    82.937
89.7970     61.232    79.974
91.1031     61.430    76.960
92.4282     61.546    74.032
93.7726     61.627    71.461
95.1366     61.732    68.905
96.5204     61.873    66.347
97.9243     62.070    63.747
99.3486     62.281    61.043
100.794     62.480    58.314
102.260     62.653    55.411
103.747     62.815    52.276
105.256     62.989    48.906
106.787     63.182    45.385
108.340     63.356    41.946
109.916     63.505    38.802
111.515     63.640    35.780
113.137     63.782    32.677
114.783     63.932    29.351
116.452     64.079    26.028
118.146     64.231    22.731
119.865     64.370    19.311
121.608     64.506    15.731
123.377     64.660    12.126
125.171     64.816     8.616
126.992     64.950     5.264
128.839     65.037     1.772
130.713     65.066    -2.108
132.615     65.062    -6.053
134.543     65.105    -9.763
136.500     65.177   -13.547
138.486     65.192   -17.012
140.500     65.200   -20.703
142.544     65.236   -24.662
144.617     65.264   -28.076
146.721     65.303   -31.004
148.855     65.357   -34.586
151.020     65.339   -38.728
153.217     65.286   -42.634
155.445     65.283   -46.288
157.706     65.246   -49.974
160.000     65.137   -53.219
162.327     65.121   -56.249
164.688     65.126   -59.251
167.084     65.218   -62.727
169.514     65.170   -67.106
171.980     65.012   -70.299
174.481     64.940   -72.800
177.019     64.925   -75.523
179.594     64.937   -78.608
182.206     64.984   -81.910
184.856     65.059   -85.289
187.545     65.129   -88.582
190.273     65.208   -92.122
193.041     65.228   -95.756
195.849     65.239   -99.311
198.697     65.286  -103.658
201.587     65.202  -108.055
204.520     65.082  -111.377
207.494     64.978  -114.709
210.512     64.913  -117.932
213.574     64.814  -121.349
216.681     64.768  -123.896
219.833     64.738  -126.764
223.030     64.796  -130.251
226.274     64.762  -133.577
229.565     64.724  -136.600
232.905     64.671  -139.546
236.292     64.687  -142.942
239.729     64.724  -145.956
243.216     64.822  -148.997
246.754     64.886  -152.148
250.343     64.887  -155.699
253.984     64.899  -159.199
257.678     64.865  -162.848
261.426     64.882  -166.379
265.229     64.864  -170.354
269.087     64.797  -173.700
273.001     64.726  -177.704
276.972     64.372   179.513
281.000     64.240   178.641
285.088     64.375   176.658
289.234     64.553   174.066
293.441     64.705   170.676
297.709     64.732   167.521
302.040     64.638   164.027
306.433     64.504   162.646
310.890     64.684   160.017
315.412     64.642   157.440
320.000     64.574   155.047
324.655     64.576   153.569
329.377     64.712   152.108
334.168     64.778   149.318
339.028     64.802   147.095
343.959     64.792   145.236
348.962     64.876   143.503
354.038     65.037   141.671
359.188     65.130   139.045
364.412     65.080   136.230
369.713     65.059   135.050
375.090     65.062   133.333
380.546     65.171   131.737
386.081     65.218   129.115
391.697     65.189   127.220
397.394     65.163   124.573
403.175     65.035   123.426
409.039     65.059   121.985
414.989     65.001   120.574
421.025     65.002   118.976
427.149     64.943   117.508
433.362     64.895   116.371
439.665     64.853   114.928
446.060     64.768   114.213
452.548     64.735   113.130
459.131     64.708   112.492
465.809     64.733   111.155
472.584     64.641   110.216
479.458     64.604   109.877
486.432     64.587   109.447
493.507     64.563   108.960
500.686     64.599   108.800
507.968     64.660   108.620
515.357     64.730   108.368
522.853     64.851   108.065
530.458     64.999   107.725
538.174     65.156   107.163
546.002     65.360   106.465
553.943     65.559   105.574
562.001     65.789   104.393
570.175     66.025   102.923
578.469     66.275   101.290
586.883     66.508    99.500
595.419     66.740    97.600
604.080     66.964    95.496
612.866     67.169    93.272
621.780     67.361    90.866
630.824     67.531    88.332
640.000     67.679    85.730
649.309     67.802    83.175
658.753     67.889    80.484
668.335     67.955    77.741
678.056     67.988    75.083
687.919     67.984    72.458
697.925     67.948    69.880
708.077     67.884    67.504
718.376     67.788    65.296
728.825     67.671    63.333
739.426     67.522    61.624
750.181     67.373    60.262
761.093     67.221    59.261
772.163     67.090    58.694
783.394     66.986    58.486
794.789     66.940    58.613
806.349     66.956    58.962
818.078     67.055    59.388
829.977     67.234    59.758
842.050     67.489    59.892
854.298     67.807    59.702
866.724     68.147    59.013
879.330     68.523    57.840
892.120     68.893    56.186
905.097     69.247    54.057
918.262     69.569    51.521
931.618     69.850    48.711
945.169     70.082    45.625
958.917     70.254    42.372
972.864     70.366    39.002
987.015     70.426    35.597
1001.37     70.421    32.237
1015.94     70.359    28.983
1030.71     70.250    25.946
1045.71     70.099    23.128
1060.92     69.903    20.591
1076.35     69.687    18.420
1092.00     69.449    16.582
1107.89     69.212    15.091
1124.00     68.972    13.997
1140.35     68.750    13.226
1156.94     68.542    12.788
1173.77     68.368    12.662
1190.84     68.229    12.848
1208.16     68.140    13.317
1225.73     68.107    14.062
1243.56     68.151    14.897
1261.65     68.286    15.768
1280.00     68.515    16.437
1298.62     68.836    16.811
1317.51     69.221    16.746
1336.67     69.632    16.085
1356.11     70.054    14.765
1375.84     70.453    12.853
1395.85     70.812    10.442
1416.15     71.107     7.678
1436.75     71.335     4.652
1457.65     71.501     1.453
1478.85     71.608    -1.744
1500.36     71.655    -4.871
1522.19     71.659    -7.908
1544.33     71.629   -10.765
1566.79     71.575   -13.440
1589.58     71.511   -15.913
1612.70     71.436   -18.203
1636.16     71.368   -20.303
1659.95     71.304   -22.321
1684.10     71.257   -24.310
1708.60     71.220   -26.338
1733.45     71.189   -28.470
1758.66     71.145   -30.794
1784.24     71.060   -33.230
1810.19     70.930   -35.698
1836.52     70.734   -37.987
1863.24     70.491   -39.907
1890.34     70.239   -41.214
1917.83     70.024   -41.973
1945.73     69.898   -42.414
1974.03     69.872   -42.995
2002.74     69.901   -44.117
2031.87     69.916   -45.922
2061.43     69.845   -48.159
2091.41     69.655   -50.382
2121.83     69.365   -52.037
2152.69     69.058   -52.741
2184.01     68.831   -52.620
2215.77     68.757   -52.348
2248.00     68.797   -52.615
2280.70     68.841   -53.793
2313.87     68.790   -55.568
2347.53     68.609   -57.281
2381.68     68.342   -58.318
2416.32     68.088   -58.489
2451.46     67.932   -58.155
2487.12     67.866   -57.960
2523.30     67.824   -58.127
2560.00     67.744   -58.394
2597.24     67.652   -58.325
2635.01     67.618   -57.862
2673.34     67.683   -57.494
2712.23     67.803   -57.701
2751.68     67.887   -58.438
2791.70     67.907   -59.190
2832.31     67.916   -59.583
2873.50     67.998   -59.813
2915.30     68.157   -60.500
2957.70     68.298   -61.988
3000.72     68.333   -63.903
3044.37     68.257   -65.562
3088.65     68.151   -66.604
3133.58     68.098   -67.257
3179.16     68.105   -68.104
3225.40     68.097   -69.344
3272.31     68.025   -70.744
3319.91     67.886   -71.869
3368.20     67.728   -72.432
3417.19     67.612   -72.436
3466.89     67.586   -72.207
3517.32     67.657   -72.178
3568.48     67.790   -72.742
3620.39     67.928   -74.014
3673.05     67.986   -76.042
3726.47     67.877   -78.367
3780.67     67.588   -79.962
3835.67     67.256   -79.865
3891.46     67.138   -78.588
3948.06     67.259   -77.910
4005.49     67.393   -78.516
4063.75     67.412   -79.350
4122.86     67.409   -79.710
4182.82     67.471   -80.012
4243.66     67.547   -80.509
4305.39     67.644   -80.802
4368.01     67.841   -81.209
4431.55     68.116   -82.331
4496.01     68.380   -84.212
4561.40     68.628   -86.746
4627.75     68.837   -90.002
4695.06     68.958   -94.042
4763.35     68.917   -98.675
4832.64     68.666  -103.136
4902.93     68.296  -106.370
4974.24     68.039  -108.718
5046.60     67.894  -111.507
5120.00     67.776  -114.891
5194.47     67.706  -119.265
5270.03     67.533  -125.506
5346.68     67.090  -132.708
5424.45     66.371  -140.435
5503.35     65.243  -148.058
5583.40     63.866  -152.674
5664.61     62.899  -156.040
5747.01     62.016  -162.365
5830.60     60.930  -168.852
5915.41     60.183  -177.396
6001.45     59.184   169.972
6088.74     58.170   158.945
6177.30     58.143   147.352
6267.15     58.735   133.907
6358.31     60.197   121.949
6450.80     62.258   107.760
6544.62     64.075    94.093
6639.82     66.102    82.305
6736.40     68.101    67.391
6834.38     69.256    51.370
6933.79     69.868    38.220
7034.64     70.218    26.230
7136.96     70.030    16.148
7240.77     69.658    10.445
7346.09     69.491     7.048
7452.94     69.380     4.355
7561.35     69.278     3.134
7671.33     69.314     2.784
7782.91     69.442     3.267
7896.12     69.778     3.798
8010.97     70.205     3.958
8127.49     70.659     3.558
8245.71     71.167     3.041
8365.65     71.672     0.955
8487.33     72.058    -1.942
8610.78     72.195    -6.145
8736.03     71.993    -9.610
8863.09     71.642   -11.465
8992.01     71.338   -11.968
9122.80     71.160   -11.695
9255.50     71.088   -11.631
9390.12     71.129   -11.591
9526.70     71.249   -12.200
9665.27     71.396   -13.584
9805.86     71.562   -15.584
9948.49     71.632   -18.831
10093.2     71.360   -22.223
10240.0     70.936   -22.485
10388.9     70.818   -21.907
10540.1     70.707   -21.876
10693.4     70.550   -20.976
10848.9     70.560   -19.550
11006.7     70.686   -18.504
11166.8     70.892   -18.099
11329.2     71.043   -18.946
11494.0     71.060   -19.866
11661.2     70.966   -20.003
11830.8     71.038   -20.529
12002.9     70.827   -21.863
12177.5     70.509   -20.997
12354.6     70.475   -19.748
12534.3     70.417   -19.541
12716.6     70.253   -19.146
12901.6     70.088   -18.220
13089.2     69.965   -17.020
13279.6     69.886   -16.062
13472.8     69.779   -15.289
13668.8     69.621   -14.806
13867.6     69.347   -14.409
14069.3     68.809   -13.665
14273.9     68.074    -9.179
14481.5     67.933    -1.121
14692.2     68.558     4.999
14905.9     69.225     6.707
15122.7     69.611     6.906
15342.7     69.834     6.801
15565.8     69.872     6.855
15792.2     69.889     7.650
16021.9     69.906     8.591
16255.0     69.980     9.772
16491.4     70.129    10.454
16731.3     70.247    10.100
16974.7     70.260     9.239
17221.6     70.064     8.178
17472.1     69.812     8.060
17726.2     69.556     7.775
17984.0     69.152     7.333
18245.6     68.598     7.998
18511.0     68.067     9.820
18780.2     67.627    12.431
19053.4     67.293    14.798
19330.5     66.834    17.206
19611.7     66.503    21.137
19897.0     66.358    24.728
20186.4     66.354    27.132
20480.0     66.081    26.572
20777.9     65.040    31.325
21080.1     65.151    38.909
21386.7     65.549    42.297
21697.8     65.772    43.541
22013.4     65.858    44.061
22333.6     65.830    44.036
22658.4     65.677    43.474
22988.0     65.355    42.947
23322.4     64.924    42.312
23661.6     64.286    42.233
24005.8     63.620    43.494
24355.0     63.058    44.745
24709.2     62.357    45.539
25068.6     61.482    46.994
25433.2     60.671    50.431
25803.2     60.037    53.194
26178.5     59.322    56.334
26559.3     58.788    60.387
26945.6     58.403    63.300
27337.5     57.754    65.874
27735.2     57.339    70.832
28138.6     57.114    72.727
28547.9     56.338    74.721
28963.1     55.637    79.753
29384.4     55.285    84.560
29811.8     55.122    87.961
30245.4     54.730    86.853
30685.3     53.643    86.048
31131.7     52.296    87.162
31584.5     50.509    88.932
32043.9     48.741    96.242
32510.0     47.267   104.809
32982.8     46.958   111.075
33462.6     45.965   109.214
33949.3     44.045   105.678
34443.1     40.864   102.874
34944.1     34.633   102.756
35452.4     29.252   161.493
35968.0     33.260  -165.835
36491.2     34.395  -168.958
37022.0     31.830  -162.459
37560.5     30.605  -141.863
38106.8     30.572  -129.879
38661.1     29.338  -122.693
39223.4     27.367   -96.707
39793.9     28.575   -79.932
