Freq[Hz]     dBSPL  Phase[Deg]
5.00000     -9.450    21.401
5.07273     -9.387    23.985
5.14651     -9.337    26.665
5.22137     -9.320    29.613
5.29732     -9.303    32.561
5.37437     -9.286    35.510
5.45254     -9.270    38.458
5.53185     -9.251    41.776
5.61231     -9.229    45.487
5.69394     -9.208    49.197
5.77676     -9.187    52.908
5.86079     -9.164    56.628
5.94604     -9.046    60.904
6.03252     -8.928    65.180
6.12027     -8.810    69.455
6.20929     -8.692    73.731
6.29961     -8.499    77.806
6.39124     -8.288    81.835
6.48420     -8.078    85.865
6.57851     -7.867    89.894
6.67420     -7.692    93.514
6.77128     -7.522    97.068
6.86977     -7.353   100.621
6.96969     -7.199   104.211
7.07107     -7.164   108.074
7.17392     -7.129   111.936
7.27827     -7.094   115.799
7.38413     -7.089   120.472
7.49154     -7.106   125.771
7.60050     -7.123   131.070
7.71105     -7.105   136.595
7.82321     -6.931   143.118
7.93701     -6.758   149.641
8.05245     -6.584   156.164
8.16958     -6.203   162.073
8.28841     -5.814   167.959
8.40896     -5.424   173.845
8.53128     -5.077   178.771
8.65537     -4.736  -176.427
8.78126     -4.394  -171.625
8.90899     -4.205  -166.511
9.03857     -4.026  -161.377
9.17004     -3.845  -156.074
9.30342     -3.646  -149.428
9.43874     -3.446  -142.783
9.57603     -3.145  -135.954
9.71532     -2.686  -128.845
9.85663     -2.227  -121.736
10.0000     -1.708  -115.507
10.1455     -1.173  -109.523
10.2930     -0.663  -103.645
10.4427     -0.225   -98.064
10.5946      0.214   -92.483
10.7487      0.753   -86.244
10.9051      1.311   -79.873
11.0637      2.064   -73.904
11.2246      3.023   -68.361
11.3879      4.028   -63.572
11.5535      5.197   -61.529
11.7216      6.363   -59.547
11.8921      7.357   -61.148
12.0650      8.351   -62.748
12.2405      9.007   -66.653
12.4186      9.620   -70.854
12.5992      9.828   -76.444
12.7825      9.946   -82.343
12.9684      9.542   -89.047
13.1570      9.017   -95.939
13.3484      7.640  -102.889
13.5426      6.125  -109.848
13.7395      2.422  -112.691
13.9394     -1.173  -108.196
14.1421     -3.308   -49.090
14.3478     -3.024    -7.733
14.5565      2.461    -4.550
14.7683      6.063    -8.025
14.9831      8.211   -16.644
15.2010      9.195   -26.941
15.4221      9.792   -37.717
15.6464      9.561   -49.338
15.8740      8.713   -61.530
16.1049      7.372   -74.178
16.3392      4.323   -88.791
16.5768     -1.197  -111.799
16.8179    -10.215  -146.896
17.0626     -5.708   -23.552
17.3107     -0.503    55.927
17.5625      3.108    37.503
17.8180      4.338    21.422
18.0771      4.710     5.531
18.3401      4.280   -10.324
18.6068      2.797   -26.187
18.8775      0.228   -40.919
19.1521     -3.811   -50.092
19.4306     -9.096   -47.073
19.7133     -9.372     7.925
20.0000     -5.045    19.750
20.2909     -0.726    12.767
20.5860      2.065    -0.855
20.8855      4.009   -14.876
21.1893      5.341   -27.295
21.4975      6.329   -37.642
21.8102      7.069   -45.666
22.1274      7.631   -51.017
22.4492      8.097   -53.268
22.7758      8.600   -51.988
23.1071      9.352   -47.134
23.4432     10.619   -39.963
23.7841     12.443   -33.411
24.1301     14.453   -29.188
24.4811     16.349   -26.856
24.8372     18.001   -25.270
25.1984     19.433   -23.372
25.5649     20.764   -20.703
25.9368     22.122   -17.634
26.3141     23.536   -15.063
26.6968     24.923   -13.677
27.0851     26.159   -13.487
27.4791     27.160   -13.941
27.8788     27.936   -14.261
28.2843     28.580   -13.945
28.6957     29.205   -13.001
29.1131     29.893   -11.905
29.5365     30.656   -11.282
29.9661     31.449   -11.527
30.4020     32.219   -12.687
30.8442     32.937   -14.625
31.2929     33.618   -17.000
31.7480     34.293   -19.649
32.2098     34.992   -22.480
32.6783     35.747   -25.453
33.1536     36.565   -28.503
33.6359     37.441   -31.558
34.1251     38.373   -34.514
34.6215     39.348   -37.304
35.1250     40.355   -39.961
35.6359     41.374   -42.568
36.1543     42.379   -45.208
36.6802     43.344   -47.880
37.2137     44.261   -50.536
37.7550     45.149   -53.200
38.3041     46.021   -56.028
38.8613     46.884   -59.189
39.4265     47.727   -62.851
40.0000     48.548   -66.989
40.5818     49.344   -71.599
41.1721     50.118   -76.681
41.7710     50.863   -82.171
42.3785     51.554   -87.970
42.9949     52.191   -93.838
43.6203     52.785   -99.655
44.2548     53.345  -105.463
44.8985     53.862  -111.394
45.5515     54.314  -117.452
46.2141     54.703  -123.557
46.8863     55.047  -129.697
47.5683     55.356  -135.949
48.2602     55.618  -142.234
48.9621     55.844  -148.288
49.6743     56.063  -153.948
50.3968     56.288  -159.245
51.1299     56.498  -164.174
51.8736     56.676  -168.621
52.6281     56.823  -172.586
53.3936     56.928  -176.201
54.1702     56.977  -179.562
54.9581     56.981   177.182
55.7575     56.951   173.781
56.5685     56.895   170.142
57.3914     56.840   166.298
58.2261     56.814   162.273
59.0730     56.831   158.223
59.9323     56.897   154.392
60.8040     57.020   150.871
61.6884     57.189   147.689
62.5857     57.376   144.768
63.4960     57.550   142.024
64.4196     57.686   139.479
65.3566     57.796   137.103
66.3073     57.890   134.722
67.2717     57.968   132.325
68.2502     58.058   129.936
69.2429     58.172   127.473
70.2501     58.305   124.911
71.2719     58.447   122.299
72.3086     58.593   119.665
73.3603     58.733   117.008
74.4274     58.857   114.344
75.5099     58.970   111.778
76.6083     59.098   109.330
77.7226     59.252   106.886
78.8531     59.430   104.468
80.0000     59.635   102.000
81.1636     59.817    99.507
82.3442     59.987    97.286
83.5419     60.177    94.976
84.7570     60.331    92.373
85.9899     60.468    89.633
87.2406     60.621    86.724
88.5096     60.817    83.655
89.7970     61.044    80.463
91.1031     61.265    77.277
92.4282     61.415    74.345
93.7726     61.519    71.952
95.1366     61.618    69.653
96.5204     61.723    67.258
97.9243     61.875    64.607
99.3486     62.058    61.661
100.794     62.262    58.658
102.260     62.465    55.625
103.747     62.653    52.554
105.256     62.830    49.337
106.787     63.002    45.891
108.340     63.155    42.374
109.916     63.301    39.080
111.515     63.448    35.975
113.137     63.600    32.903
114.783     63.742    29.625
116.452     63.873    26.248
118.146     64.022    22.800
119.865     64.178    19.277
121.608     64.331    15.749
123.377     64.477    12.269
125.171     64.603     8.747
126.992     64.715     5.160
128.839     64.815     1.364
130.713     64.885    -2.666
132.615     64.918    -6.548
134.543     64.977   -10.111
136.500     65.050   -13.766
138.486     65.057   -17.134
140.500     65.044   -20.765
142.544     65.050   -24.827
144.617     65.069   -28.495
146.721     65.131   -31.640
148.855     65.221   -35.246
151.020     65.220   -39.275
153.217     65.164   -43.125
155.445     65.160   -46.798
157.706     65.128   -50.475
160.000     65.014   -53.686
162.327     64.988   -56.763
164.688     64.992   -59.872
167.084     65.097   -63.417
169.514     65.059   -67.753
171.980     64.891   -70.888
174.481     64.799   -73.471
177.019     64.780   -76.419
179.594     64.823   -79.671
182.206     64.900   -82.865
184.856     64.963   -86.087
187.545     65.006   -89.467
190.273     65.087   -93.218
193.041     65.124   -96.928
195.849     65.135  -100.496
198.697     65.182  -104.968
201.587     65.118  -109.468
204.520     65.010  -112.722
207.494     64.887  -116.052
210.512     64.817  -119.526
213.574     64.751  -123.056
216.681     64.711  -125.476
219.833     64.657  -128.458
223.030     64.733  -132.185
226.274     64.716  -135.468
229.565     64.666  -138.619
232.905     64.643  -141.730
236.292     64.671  -145.021
239.729     64.696  -148.156
243.216     64.819  -151.260
246.754     64.869  -154.318
250.343     64.852  -158.147
253.984     64.895  -161.840
257.678     64.881  -165.489
261.426     64.907  -169.000
265.229     64.878  -172.969
269.087     64.799  -176.454
273.001     64.726   179.331
276.972     64.404   176.330
281.000     64.306   175.605
285.088     64.411   173.765
289.234     64.554   170.975
293.441     64.705   167.231
297.709     64.775   163.916
302.040     64.678   160.575
306.433     64.519   158.947
310.890     64.723   156.212
315.412     64.661   153.537
320.000     64.607   150.910
324.655     64.611   149.393
329.377     64.747   147.703
334.168     64.835   144.861
339.028     64.847   142.550
343.959     64.852   140.552
348.962     64.934   138.828
354.038     65.063   136.907
359.188     65.176   133.821
364.412     65.145   131.233
369.713     65.098   129.752
375.090     65.116   127.964
380.546     65.235   126.227
386.081     65.276   123.556
391.697     65.256   121.502
397.394     65.238   118.783
403.175     65.111   117.616
409.039     65.117   116.030
414.989     65.073   114.340
421.025     65.101   112.644
427.149     65.049   111.086
433.362     65.018   109.889
439.665     64.971   108.214
446.060     64.917   107.316
452.548     64.905   106.000
459.131     64.903   105.217
465.809     64.958   103.696
472.584     64.871   102.512
479.458     64.846   101.915
486.432     64.861   101.121
493.507     64.832   100.456
500.686     64.844    99.747
507.968     64.926    99.035
515.357     65.001    98.432
522.853     65.094    97.752
530.458     65.230    96.884
538.174     65.355    95.978
546.002     65.510    94.858
553.943     65.688    93.527
562.001     65.878    92.065
570.175     66.064    90.356
578.469     66.265    88.476
586.883     66.451    86.506
595.419     66.626    84.437
604.080     66.808    82.187
612.866     66.981    79.901
621.780     67.136    77.448
630.824     67.271    74.932
640.000     67.392    72.375
649.309     67.488    69.717
658.753     67.574    67.038
668.335     67.635    64.275
678.056     67.663    61.557
687.919     67.677    58.746
697.925     67.665    56.070
708.077     67.617    53.424
718.376     67.544    50.867
728.825     67.456    48.407
739.426     67.318    46.163
750.181     67.177    44.040
761.093     67.001    42.243
772.163     66.816    40.711
783.394     66.630    39.518
794.789     66.438    38.729
806.349     66.268    38.288
818.078     66.144    38.188
829.977     66.089    38.472
842.050     66.082    38.983
854.298     66.176    39.580
866.724     66.337    39.995
879.330     66.591    40.157
892.120     66.904    39.953
905.097     67.254    39.254
918.262     67.627    37.899
931.618     68.003    36.070
945.169     68.361    33.813
958.917     68.666    31.113
972.864     68.921    27.962
987.015     69.132    24.529
1001.37     69.272    20.919
1015.94     69.333    17.224
1030.71     69.323    13.521
1045.71     69.238     9.790
1060.92     69.091     6.241
1076.35     68.876     2.989
1092.00     68.606     0.093
1107.89     68.289    -2.409
1124.00     67.936    -4.419
1140.35     67.584    -5.955
1156.94     67.230    -6.953
1173.77     66.888    -7.605
1190.84     66.576    -7.839
1208.16     66.281    -7.783
1225.73     66.005    -7.378
1243.56     65.744    -6.534
1261.65     65.509    -5.157
1280.00     65.338    -3.035
1298.62     65.291    -0.239
1317.51     65.434     3.092
1336.67     65.807     6.320
1356.11     66.424     8.714
1375.84     67.201     9.900
1395.85     68.025     9.655
1416.15     68.800     7.779
1436.75     69.496     4.776
1457.65     70.063     0.857
1478.85     70.486    -3.587
1500.36     70.766    -8.238
1522.19     70.909   -12.793
1544.33     70.936   -17.014
1566.79     70.886   -20.750
1589.58     70.806   -23.861
1612.70     70.746   -26.446
1636.16     70.728   -28.733
1659.95     70.778   -31.076
1684.10     70.863   -33.726
1708.60     70.944   -36.826
1733.45     70.972   -40.344
1758.66     70.922   -44.098
1784.24     70.768   -47.799
1810.19     70.531   -51.188
1836.52     70.242   -53.988
1863.24     69.947   -56.232
1890.34     69.687   -57.945
1917.83     69.484   -59.412
1945.73     69.329   -60.990
1974.03     69.188   -62.850
2002.74     69.031   -64.918
2031.87     68.826   -67.040
2061.43     68.562   -69.066
2091.41     68.262   -70.844
2121.83     67.927   -72.159
2152.69     67.592   -73.062
2184.01     67.272   -73.476
2215.77     67.006   -73.464
2248.00     66.818   -73.178
2280.70     66.726   -72.997
2313.87     66.695   -73.224
2347.53     66.662   -73.950
2381.68     66.571   -75.059
2416.32     66.408   -76.031
2451.46     66.222   -76.571
2487.12     66.065   -76.610
2523.30     65.991   -76.523
2560.00     65.975   -76.707
2597.24     65.963   -77.223
2635.01     65.928   -77.871
2673.34     65.898   -78.445
2712.23     65.895   -79.047
2751.68     65.920   -80.063
2791.70     65.903   -81.443
2832.31     65.815   -82.880
2873.50     65.697   -83.870
2915.30     65.621   -84.618
2957.70     65.609   -85.703
3000.72     65.567   -87.451
3044.37     65.405   -89.428
3088.65     65.140   -90.833
3133.58     64.893   -91.475
3179.16     64.738   -91.952
3225.40     64.614   -92.904
3272.31     64.406   -94.151
3319.91     64.117   -94.905
3368.20     63.834   -94.930
3417.19     63.620   -94.430
3466.89     63.515   -93.552
3517.32     63.597   -92.632
3568.48     63.897   -92.815
3620.39     64.221   -95.469
3673.05     64.291  -100.018
3726.47     63.979  -104.911
3780.67     63.370  -108.574
3835.67     62.665  -110.528
3891.46     62.007  -111.041
3948.06     61.486  -110.850
4005.49     61.083  -111.044
4063.75     60.625  -111.998
4122.86     59.998  -112.807
4182.82     59.289  -112.463
4243.66     58.556  -110.902
4305.39     57.921  -107.495
4368.01     57.732  -102.972
4431.55     57.987  -100.371
4496.01     58.332  -100.085
4561.40     58.874  -101.956
4627.75     59.502  -109.263
4695.06     59.456  -122.425
4763.35     58.350  -137.020
4832.64     56.672  -149.532
4902.93     55.073  -161.961
4974.24     53.670  -177.384
5046.60     53.094   165.399
5120.00     54.114   144.952
5194.47     56.015   122.641
5270.03     58.066   104.290
5346.68     60.279    89.174
5424.45     62.202    73.893
5503.35     63.425    60.418
5583.40     64.239    50.397
5664.61     64.905    42.804
5747.01     65.471    37.179
5830.60     66.080    32.962
5915.41     66.698    29.170
6001.45     67.322    25.720
6088.74     67.867    22.188
6177.30     68.331    19.730
6267.15     68.904    18.029
6358.31     69.583    16.626
6450.80     70.514    14.535
6544.62     71.441    10.390
6639.82     72.327     5.270
6736.40     73.111    -2.521
6834.38     73.342   -11.710
6933.79     73.154   -19.604
7034.64     72.668   -26.312
7136.96     71.871   -30.307
7240.77     71.210   -30.718
7346.09     70.864   -30.379
7452.94     70.637   -29.653
7561.35     70.554   -29.073
7671.33     70.543   -27.938
7782.91     70.765   -27.648
7896.12     70.956   -28.423
8010.97     71.074   -30.012
8127.49     71.080   -31.423
8245.71     70.998   -33.482
8365.65     70.750   -35.329
8487.33     70.310   -37.153
8610.78     69.678   -37.946
8736.03     68.955   -36.178
8863.09     68.592   -33.641
8992.01     68.387   -31.702
9122.80     68.130   -31.241
9255.50     67.799   -30.470
9390.12     67.429   -29.463
9526.70     67.000   -28.628
9665.27     66.535   -26.490
9805.86     66.115   -23.105
9948.49     65.858   -19.181
10093.2     65.767   -13.075
10240.0     66.375    -6.962
10388.9     67.045    -4.838
10540.1     67.599    -3.587
10693.4     68.069    -3.028
10848.9     68.415    -2.915
11006.7     68.696    -2.758
11166.8     68.917    -2.873
11329.2     69.014    -2.223
11494.0     69.183    -0.476
11661.2     69.665     0.072
11830.8     69.710    -0.116
12002.9     70.055     2.057
12177.5     70.725     1.694
12354.6     71.075    -1.304
12534.3     71.105    -4.023
12716.6     70.957    -5.899
12901.6     70.760    -6.940
13089.2     70.540    -7.568
13279.6     70.203    -7.612
13472.8     69.886    -6.227
13668.8     69.702    -4.574
13867.6     69.523    -2.496
14069.3     69.576    -0.168
14273.9     69.598     0.248
14481.5     69.352     1.461
14692.2     69.204     4.563
14905.9     69.392     7.266
15122.7     69.626     8.685
15342.7     69.822     8.774
15565.8     69.834     8.330
15792.2     69.693     8.088
16021.9     69.447     8.668
16255.0     69.282    10.424
16491.4     69.289    11.673
16731.3     69.278    11.687
16974.7     69.030    11.528
17221.6     68.743    11.879
17472.1     68.389    13.223
17726.2     68.187    14.566
17984.0     67.922    15.080
18245.6     67.472    15.915
18511.0     67.063    17.672
18780.2     66.640    19.237
19053.4     66.121    21.108
19330.5     65.500    24.399
19611.7     65.149    29.351
19897.0     65.046    33.410
20186.4     65.013    35.938
20480.0     64.709    36.122
20777.9     63.795    41.445
21080.1     63.952    48.308
21386.7     64.281    51.508
21697.8     64.441    52.519
22013.4     64.411    53.129
22333.6     64.258    53.390
22658.4     64.012    54.062
22988.0     63.764    54.375
23322.4     63.446    53.919
23661.6     62.875    53.076
24005.8     62.142    53.336
24355.0     61.402    54.071
24709.2     60.560    54.461
25068.6     59.516    55.756
25433.2     58.411    58.738
25803.2     57.449    62.274
26178.5     56.502    66.544
26559.3     55.780    71.339
26945.6     55.055    75.072
27337.5     54.186    79.501
27735.2     53.515    85.125
28138.6     52.699    88.683
28547.9     51.500    95.320
28963.1     50.626   105.095
29384.4     50.323   114.281
29811.8     50.055   120.767
30245.4     49.496   126.032
30685.3     48.821   132.546
31131.7     47.935   138.517
31584.5     47.045   146.420
32043.9     46.150   155.581
32510.0     46.424   168.540
32982.8     47.058   161.824
33462.6     43.406   152.031
33949.3     40.096  -178.750
34443.1     40.877  -163.255
34944.1     40.857  -154.249
35452.4     40.484  -150.254
35968.0     39.119  -146.789
36491.2     37.143  -136.007
37022.0     36.370  -116.818
37560.5     37.076  -108.911
38106.8     36.106  -108.199
38661.1     34.256   -99.259
39223.4     33.025   -88.842
39793.9     31.071   -75.934
