Freq[Hz]     dBSPL  Phase[Deg]
5.00000    -10.009    45.855
5.07273     -9.986    48.645
5.14651     -9.976    51.521
5.22137    -10.000    54.632
5.29732    -10.025    57.744
5.37437    -10.050    60.855
5.45254    -10.075    63.967
5.53185    -10.098    67.425
5.61231    -10.118    71.249
5.69394    -10.139    75.073
5.77676    -10.159    78.897
5.86079    -10.178    82.730
5.94604    -10.098    87.069
6.03252    -10.018    91.408
6.12027     -9.938    95.747
6.20929     -9.858   100.086
6.29961     -9.697   104.187
6.39124     -9.519   108.236
6.48420     -9.341   112.284
6.57851     -9.163   116.332
6.67420     -9.013   119.942
6.77128     -8.867   123.481
6.86977     -8.721   127.020
6.96969     -8.590   130.592
7.07107     -8.568   134.421
7.17392     -8.547   138.249
7.27827     -8.526   142.078
7.38413     -8.528   146.715
7.49154     -8.548   151.975
7.60050     -8.568   157.236
7.71105     -8.550   162.726
7.82321     -8.369   169.222
7.93701     -8.187   175.719
8.05245     -8.006  -177.785
8.16958     -7.605  -171.877
8.28841     -7.196  -165.992
8.40896     -6.788  -160.106
8.53128     -6.412  -155.147
8.65537     -6.040  -150.306
8.78126     -5.669  -145.466
8.90899     -5.440  -140.266
9.03857     -5.222  -135.042
9.17004     -4.999  -129.644
9.30342     -4.751  -122.848
9.43874     -4.503  -116.052
9.57603     -4.149  -109.044
9.71532     -3.634  -101.713
9.85663     -3.118   -94.382
10.0000     -2.538   -87.866
10.1455     -1.940   -81.578
10.2930     -1.365   -75.372
10.4427     -0.858   -69.397
10.5946     -0.350   -63.421
10.7487      0.258   -56.703
10.9051      0.888   -49.837
11.0637      1.712   -43.322
11.2246      2.742   -37.179
11.3879      3.817   -31.766
11.5535      5.054   -29.015
11.7216      6.288   -26.323
11.8921      7.343   -27.110
12.0650      8.398   -27.898
12.2405      9.106   -30.908
12.4186      9.770   -34.204
12.5992     10.017   -38.831
12.7825     10.173   -43.753
12.9684      9.793   -49.447
13.1570      9.289   -55.321
13.3484      7.919   -61.247
13.5426      6.407   -67.181
13.7395      2.693   -69.030
13.9394     -0.915   -63.550
14.1421     -3.073    -3.515
14.3478     -2.815    38.743
14.5565      2.640    42.767
14.7683      6.210    40.076
14.9831      8.326    32.198
15.2010      9.282    22.557
15.4221      9.854    12.407
15.6464      9.605     1.341
15.8740      8.749   -10.332
16.1049      7.406   -22.490
16.3392      4.374   -36.648
16.5768     -1.121   -59.205
16.8179    -10.101   -93.853
17.0626     -5.534    29.968
17.3107     -0.257   109.954
17.5625      3.440    92.081
17.8180      4.778    76.652
18.0771      5.273    61.499
18.3401      4.978    46.480
18.6068      3.648    31.629
18.8775      1.244    18.094
19.1521     -2.621    10.300
19.4306     -7.727    14.905
19.7133     -7.822    71.806
20.0000     -3.325    85.831
20.2909      1.146    81.333
20.5860      4.064    70.485
20.8855      6.097    59.526
21.1893      7.456    50.462
21.4975      8.402    43.626
21.8102      9.026    39.159
22.1274      9.395    37.300
22.4492      9.596    38.352
22.7758      9.764    42.627
23.1071     10.129    50.070
23.4432     10.971    59.352
23.7841     12.349    67.471
24.1301     13.913    72.752
24.4811     15.377    75.666
24.8372     16.625    77.402
25.1984     17.690    79.068
25.5649     18.702    81.183
25.9368     19.790    83.441
26.3141     20.993    85.008
26.6968     22.229    85.261
27.0851     23.374    84.257
27.4791     24.349    82.611
27.8788     25.162    81.174
28.2843     25.900    80.509
28.6957     26.676    80.674
29.1131     27.567    81.252
29.5365     28.575    81.678
29.9661     29.649    81.611
30.4020     30.722    81.057
30.8442     31.756    80.241
31.2929     32.745    79.457
31.7480     33.703    78.844
32.2098     34.644    78.441
32.6783     35.582    78.229
33.1536     36.518    78.109
33.6359     37.450    78.021
34.1251     38.375    77.937
34.6215     39.296    77.821
35.1250     40.217    77.604
35.6359     41.137    77.140
36.1543     42.041    76.393
36.6802     42.919    75.399
37.2137     43.770    74.253
37.7550     44.616    73.014
38.3041     45.479    71.586
38.8613     46.359    69.867
39.4265     47.242    67.753
40.0000     48.117    65.302
40.5818     48.977    62.544
41.1721     49.816    59.482
41.7710     50.617    56.152
42.3785     51.353    52.631
42.9949     52.021    49.112
43.6203     52.634    45.682
44.2548     53.203    42.279
44.8985     53.719    38.763
45.5515     54.167    35.132
46.2141     54.546    31.473
46.8863     54.873    27.801
47.5683     55.156    24.028
48.2602     55.383    20.209
48.9621     55.563    16.571
49.6743     55.731    13.245
50.3968     55.907    10.173
51.1299     56.079     7.358
51.8736     56.242     4.943
52.6281     56.402     2.983
53.3936     56.551     1.428
54.1702     56.677     0.273
54.9581     56.782    -0.541
55.7575     56.863    -1.198
56.5685     56.910    -1.782
57.3914     56.933    -2.301
58.2261     56.946    -2.826
59.0730     56.957    -3.325
59.9323     56.980    -3.684
60.8040     57.037    -3.895
61.6884     57.131    -3.971
62.5857     57.253    -3.957
63.4960     57.382    -3.880
64.4196     57.500    -3.635
65.3566     57.620    -3.166
66.3073     57.745    -2.579
67.2717     57.870    -1.824
68.2502     58.011    -0.856
69.2429     58.168     0.238
70.2501     58.326     1.402
71.2719     58.469     2.618
72.3086     58.588     3.830
73.3603     58.681     4.948
74.4274     58.750     5.931
75.5099     58.813     6.880
76.6083     58.911     7.877
77.7226     59.060     8.907
78.8531     59.253    10.085
80.0000     59.478    11.371
81.1636     59.674    12.750
82.3442     59.852    14.444
83.5419     60.050    16.038
84.7570     60.231    17.350
85.9899     60.417    18.645
87.2406     60.636    20.025
88.5096     60.886    21.557
89.7970     61.133    23.194
91.1031     61.327    24.874
92.4282     61.417    26.642
93.7726     61.460    28.696
95.1366     61.529    30.666
96.5204     61.649    32.574
97.9243     61.851    34.471
99.3486     62.091    36.408
100.794     62.327    38.541
102.260     62.532    40.728
103.747     62.705    42.830
105.256     62.869    44.732
106.787     63.044    46.447
108.340     63.206    48.233
109.916     63.352    50.384
111.515     63.485    52.768
113.137     63.618    55.131
114.783     63.758    57.253
116.452     63.914    59.383
118.146     64.101    61.691
119.865     64.283    64.162
121.608     64.442    66.742
123.377     64.581    69.389
125.171     64.701    72.031
126.992     64.805    74.697
128.839     64.892    77.215
130.713     64.952    79.512
132.615     64.988    82.037
134.543     65.053    85.219
136.500     65.111    88.502
138.486     65.093    91.299
140.500     65.075    94.294
142.544     65.110    97.605
144.617     65.140   100.943
146.721     65.169   104.698
148.855     65.238   108.226
151.020     65.292   111.355
153.217     65.308   115.250
155.445     65.289   119.597
157.706     65.177   123.465
160.000     65.037   127.927
162.327     65.051   132.821
164.688     65.053   137.422
167.084     65.098   141.912
169.514     65.047   145.788
171.980     64.931   151.132
174.481     64.863   156.709
177.019     64.849   161.782
179.594     64.928   167.165
182.206     65.029   173.554
184.856     65.056   179.770
187.545     65.094  -175.188
190.273     65.234  -169.642
193.041     65.285  -163.614
195.849     65.240  -157.742
198.697     65.271  -152.579
201.587     65.240  -147.163
204.520     65.125  -140.318
207.494     64.988  -133.782
210.512     64.926  -126.676
213.574     64.832  -119.629
216.681     64.791  -112.422
219.833     64.792  -104.816
223.030     64.846   -96.986
226.274     64.777   -89.346
229.565     64.766   -81.589
232.905     64.766   -73.321
236.292     64.773   -65.342
239.729     64.781   -56.739
243.216     64.898   -48.142
246.754     64.943   -39.454
250.343     64.923   -31.056
253.984     65.007   -22.306
257.678     64.959   -13.256
261.426     64.949    -4.102
265.229     64.962     4.904
269.087     64.861    14.520
273.001     64.797    23.215
276.972     64.457    33.314
281.000     64.364    45.948
285.088     64.503    58.679
289.234     64.570    70.258
293.441     64.715    80.438
297.709     64.776    91.385
302.040     64.692   102.031
306.433     64.564   115.782
310.890     64.628   128.581
315.412     64.573   140.757
320.000     64.505   153.764
324.655     64.480   167.405
329.377     64.621  -178.861
334.168     64.699  -164.988
339.028     64.653  -150.484
343.959     64.611  -136.081
348.962     64.662  -121.362
354.038     64.811  -106.734
359.188     64.863   -92.308
364.412     64.796   -77.267
369.713     64.705   -60.816
375.090     64.692   -44.770
380.546     64.733   -27.940
386.081     64.725   -12.274
391.697     64.638     4.899
397.394     64.535    21.805
403.175     64.337    39.812
409.039     64.248    57.907
414.989     64.131    76.615
421.025     64.049    95.566
427.149     63.869   114.457
433.362     63.715   133.662
439.665     63.561   153.793
446.060     63.402   175.033
452.548     63.215  -164.290
459.131     63.090  -142.309
465.809     63.006  -120.358
472.584     62.794   -97.997
479.458     62.677   -74.641
486.432     62.518   -50.937
493.507     62.409   -26.719
500.686     62.386    -1.633
507.968     62.413    23.580
515.357     62.526    48.690
522.853     62.614    74.890
530.458     62.746   100.932
538.174     62.919   126.738
546.002     63.155   152.350
553.943     63.382   178.384
562.001     63.623  -155.350
570.175     63.893  -129.072
578.469     64.140  -102.166
586.883     64.384   -75.688
595.419     64.621   -49.246
604.080     64.825   -22.474
612.866     65.013     4.743
621.780     65.165    32.376
630.824     65.285    60.385
640.000     65.389    88.440
649.309     65.446   116.346
658.753     65.461   144.807
668.335     65.445   174.420
678.056     65.382  -155.940
687.919     65.264  -125.695
697.925     65.098   -94.756
708.077     64.884   -63.759
718.376     64.634   -31.956
728.825     64.304     0.740
739.426     63.906    34.304
750.181     63.488    68.840
761.093     62.974   104.582
772.163     62.470   140.785
783.394     61.934   178.790
794.789     61.396  -141.326
806.349     60.940  -100.235
818.078     60.591   -57.737
829.977     60.479   -13.743
842.050     60.582    30.910
854.298     60.894    75.840
866.724     61.404   119.664
879.330     62.056   163.600
892.120     62.735  -152.987
905.097     63.431  -110.180
918.262     64.059   -67.784
931.618     64.665   -25.820
945.169     65.197    16.204
958.917     65.656    58.280
972.864     66.018   100.342
987.015     66.317   142.725
1001.37     66.514  -174.157
1015.94     66.633  -130.734
1030.71     66.678   -87.434
1045.71     66.620   -43.208
1060.92     66.497     2.080
1076.35     66.281    47.378
1092.00     65.976    93.268
1107.89     65.602   140.348
1124.00     65.139  -171.778
1140.35     64.592  -123.140
1156.94     64.008   -73.021
1173.77     63.364   -21.876
1190.84     62.700    30.460
1208.16     62.053    83.778
1225.73     61.448   138.894
1243.56     60.933  -164.557
1261.65     60.548  -107.216
1280.00     60.259   -49.307
1298.62     60.077     8.429
1317.51     59.965    66.726
1336.67     59.861   125.431
1356.11     59.731  -176.123
1375.84     59.510  -117.013
1395.85     59.244   -57.332
1416.15     58.751     3.239
1436.75     58.164    64.605
1457.65     57.307   128.136
1478.85     56.191  -165.674
1500.36     54.867   -96.593
1522.19     53.461   -22.434
1544.33     52.272    57.706
1566.79     51.755   141.633
1589.58     52.153  -133.973
1612.70     52.897   -52.857
1636.16     53.518    25.688
1659.95     53.754   102.658
1684.10     53.552   179.871
1708.60     52.794  -101.196
1733.45     51.434   -18.608
1758.66     49.406    71.087
1784.24     47.656   172.728
1810.19     47.548   -77.918
1836.52     49.303    26.248
1863.24     51.198   122.556
1890.34     52.502  -145.001
1917.83     53.251   -52.042
1945.73     53.556    43.330
1974.03     53.636   142.622
2002.74     53.894  -114.529
2031.87     54.515    -9.440
2061.43     55.426    95.378
2091.41     56.437  -159.855
2121.83     57.346   -54.896
2152.69     58.087    49.848
2184.01     58.696   156.102
2215.77     59.202   -95.801
2248.00     59.621    13.364
2280.70     59.955   123.494
2313.87     60.122  -124.706
2347.53     60.120   -10.807
2381.68     59.933   104.984
2416.32     59.663  -136.030
2451.46     59.397   -13.475
2487.12     59.241   111.941
2523.30     59.232  -120.514
2560.00     59.358     8.785
2597.24     59.518   138.902
2635.01     59.681   -89.362
2673.34     59.825    43.952
2712.23     59.940   178.984
2751.68     60.023   -43.387
2791.70     60.064    96.520
2832.31     60.165  -121.633
2873.50     60.323    21.657
2915.30     60.456   166.006
2957.70     60.402   -47.843
3000.72     60.088   100.803
3044.37     59.604  -106.872
3088.65     59.274    50.193
3133.58     59.284  -150.187
3179.16     59.500    10.323
3225.40     59.644   171.652
3272.31     59.539   -25.648
3319.91     59.216   140.721
3368.20     58.878   -48.728
3417.19     58.747   125.121
3466.89     58.902   -59.125
3517.32     59.160   118.163
3568.48     59.243   -63.807
3620.39     59.124   116.790
3673.05     59.064   -58.502
3726.47     59.098   127.520
3780.67     58.917   -45.931
3835.67     58.155   142.921
3891.46     56.850   -21.292
3948.06     55.718  -177.716
4005.49     55.159    30.426
4063.75     54.919  -118.105
4122.86     54.990    95.926
4182.82     55.368   -49.579
4243.66     55.578   166.328
4305.39     55.483    25.166
4368.01     55.407  -112.038
4431.55     55.204   114.431
4496.01     54.968   -12.315
4561.40     55.664  -133.554
4627.75     56.952   102.120
4695.06     57.819   -22.792
4763.35     58.290  -144.417
4832.64     58.652    97.015
4902.93     58.848   -18.368
4974.24     58.792  -129.374
5046.60     58.637   123.197
5120.00     58.422    20.444
5194.47     58.216   -78.618
5270.03     57.773  -176.281
5346.68     56.521    91.791
5424.45     55.193    12.338
5503.35     55.037   -60.207
5583.40     55.202  -133.190
5664.61     55.132   158.645
5747.01     55.586    96.431
5830.60     56.482    33.988
5915.41     56.936   -25.977
6001.45     57.313   -79.549
6088.74     58.161  -130.379
6177.30     58.884  -179.564
6267.15     59.272   136.534
6358.31     59.969    97.634
6450.80     60.804    59.250
6544.62     61.156    22.667
6639.82     61.134    -9.717
6736.40     60.461   -38.860
6834.38     58.815   -60.749
6933.79     56.687   -72.440
7034.64     53.996   -71.475
7136.96     52.626   -52.449
7240.77     53.331   -35.199
7346.09     53.381   -17.969
7452.94     53.442     5.343
7561.35     53.688    36.076
7671.33     54.724    69.264
7782.91     55.096   103.765
7896.12     55.669   146.089
8010.97     56.150  -167.960
8127.49     56.717  -116.805
8245.71     56.803   -61.318
8365.65     56.672    -0.703
8487.33     55.930    67.525
8610.78     54.786   145.630
8736.03     54.418  -123.751
8863.09     54.509   -30.266
8992.01     55.067    68.770
9122.80     55.709   169.394
9255.50     55.781   -87.860
9390.12     55.288    23.355
9526.70     54.069   141.372
9665.27     52.414   -89.747
9805.86     50.847    53.309
9948.49     49.675  -150.898
10093.2     49.934    12.920
10240.0     50.662  -179.589
10388.9     51.756    -6.007
10540.1     52.738   169.334
10693.4     53.764    -9.381
10848.9     54.038   177.190
11006.7     53.867    15.224
11166.8     53.866  -137.269
11329.2     54.310    79.443
11494.0     54.936   -58.714
11661.2     55.172   173.022
11830.8     55.935    49.176
12002.9     55.782   -66.442
12177.5     55.548  -171.282
12354.6     55.540    93.678
12534.3     55.748     7.326
12716.6     55.780   -72.443
12901.6     55.546  -144.184
13089.2     54.978   154.251
13279.6     54.391   102.401
13472.8     53.617    58.083
13668.8     51.683    21.352
13867.6     48.828     3.443
14069.3     46.525     7.293
14273.9     45.799    21.301
14481.5     45.647    39.407
14692.2     44.875    67.571
14905.9     44.211   102.361
15122.7     42.839   150.545
15342.7     41.377  -147.815
15565.8     40.087   -75.936
15792.2     38.927    11.351
16021.9     37.682   100.621
16255.0     34.973  -156.175
16491.4     30.228   -35.279
16731.3     24.694   128.790
16974.7     27.512   -20.287
17221.6     32.172   141.648
17472.1     34.552   -52.411
17726.2     36.280   125.638
17984.0     37.629   -46.998
18245.6     37.520   147.896
18511.0     36.518     7.583
18780.2     36.643  -122.712
19053.4     36.706   119.407
19330.5     35.209     8.447
19611.7     33.546   -87.932
19897.0     32.229  -170.892
20186.4     30.197   111.063
20480.0     29.245    39.610
20777.9     28.928   -15.573
21080.1     31.498   -47.630
21386.7     32.775   -64.819
21697.8     32.704   -53.846
22013.4     32.978   -18.622
22333.6     33.580    33.438
22658.4     35.163   104.513
22988.0     36.157  -169.471
23322.4     36.897   -74.791
23661.6     36.206    41.900
24005.8     35.131   179.153
24355.0     35.474   -16.480
24709.2     35.565   156.951
25068.6     35.244   -10.315
25433.2     34.941  -159.941
25803.2     35.254    64.500
26178.5     33.755   -54.204
26559.3     30.415  -152.523
26945.6     27.991   154.783
27337.5     27.791   117.325
27735.2     29.151    76.563
28138.6     21.987   141.018
28547.9     18.121   108.147
28963.1     24.357   161.765
29384.4     25.633  -113.257
29811.8     25.287    15.861
30245.4     25.740    71.872
30685.3     26.895  -168.961
31131.7     25.917   -17.545
31584.5     27.785   159.394
32043.9     28.911   -15.630
32510.0     29.795  -159.401
32982.8     29.693    62.187
33462.6     28.536   -35.867
33949.3     28.124  -107.707
34443.1     27.593  -162.119
34944.1     26.050   172.084
35452.4     24.490  -179.297
35968.0     25.178  -158.549
36491.2     22.594   125.834
37022.0     22.372   142.506
37560.5     22.263  -131.799
38106.8     21.850   -57.214
38661.1     21.206   175.282
39223.4     20.554   -79.710
39793.9     19.349    99.890
