Freq[Hz]     dBSPL  Phase[Deg]
5.00000     -5.766    43.301
5.07273     -5.722    46.208
5.14651     -5.692    49.208
5.22137     -5.698    52.471
5.29732     -5.704    55.733
5.37437     -5.710    58.995
5.45254     -5.717    62.258
5.53185     -5.723    65.882
5.61231     -5.728    69.887
5.69394     -5.733    73.893
5.77676     -5.738    77.899
5.86079     -5.741    81.914
5.94604     -5.651    86.457
6.03252     -5.561    91.001
6.12027     -5.471    95.545
6.20929     -5.381   100.089
6.29961     -5.216   104.404
6.39124     -5.033   108.670
6.48420     -4.851   112.935
6.57851     -4.668   117.200
6.67420     -4.519   121.027
6.77128     -4.375   124.783
6.86977     -4.230   128.539
6.96969     -4.101   132.327
7.07107     -4.088   136.362
7.17392     -4.074   140.396
7.27827     -4.061   144.430
7.38413     -4.073   149.261
7.49154     -4.105   154.706
7.60050     -4.138   160.151
7.71105     -4.133   165.821
7.82321     -3.967   172.473
7.93701     -3.800   179.126
8.05245     -3.634  -174.222
8.16958     -3.251  -168.189
8.28841     -2.860  -162.180
8.40896     -2.469  -156.171
8.53128     -2.111  -151.117
8.65537     -1.757  -146.186
8.78126     -1.403  -141.256
8.90899     -1.191  -135.996
9.03857     -0.988  -130.714
9.17004     -0.782  -125.260
9.30342     -0.548  -118.434
9.43874     -0.314  -111.608
9.57603      0.027  -104.580
9.71532      0.532   -97.241
9.85663      1.038   -89.902
10.0000      1.612   -83.391
10.1455      2.204   -77.111
10.2930      2.775   -70.915
10.4427      3.281   -64.954
10.5946      3.788   -58.993
10.7487      4.401   -52.289
10.9051      5.035   -45.436
11.0637      5.867   -38.928
11.2246      6.908   -32.785
11.3879      7.995   -27.368
11.5535      9.247   -24.595
11.7216     10.497   -21.881
11.8921     11.574   -22.614
12.0650     12.650   -23.347
12.2405     13.382   -26.266
12.4186     14.069   -29.467
12.5992     14.342   -33.958
12.7825     14.524   -38.735
12.9684     14.170   -44.241
13.1570     13.693   -49.918
13.3484     12.347   -55.599
13.5426     10.860   -61.282
13.7395      7.167   -62.829
13.9394      3.578   -57.040
14.1421      1.434     3.343
14.3478      1.704    45.960
14.5565      7.164    50.366
14.7683     10.736    48.071
14.9831     12.849    40.596
15.2010     13.795    31.365
15.4221     14.353    21.625
15.6464     14.083    10.962
15.8740     13.200    -0.320
16.1049     11.827   -12.097
16.3392      8.757   -25.907
16.5768      3.221   -48.136
16.8179     -5.804   -82.481
17.0626     -1.286    41.595
17.3107      3.939   121.808
17.5625      7.583   104.126
17.8180      8.868    88.830
18.0771      9.309    73.776
18.3401      8.959    58.816
18.6068      7.578    43.970
18.8775      5.125    30.395
19.1521      1.215    22.523
19.4306     -3.932    27.013
19.7133     -4.062    83.754
20.0000      0.409    97.586
20.2909      4.861    92.871
20.5860      7.769    81.787
20.8855      9.801    70.580
21.1893     11.172    61.265
21.4975     12.141    54.192
21.8102     12.800    49.513
22.1274     13.215    47.481
22.4492     13.472    48.413
22.7758     13.708    52.637
23.1071     14.148    60.114
23.4432     15.071    69.526
23.7841     16.537    77.894
24.1301     18.187    83.541
24.4811     19.735    86.942
24.8372     21.061    89.285
25.1984     22.195    91.671
25.5649     23.263    94.610
25.9368     24.392    97.778
26.3141     25.617   100.325
26.6968     26.855   101.607
27.0851     27.982   101.655
27.4791     28.916   101.060
27.8788     29.666   100.646
28.2843     30.323   100.953
28.6957     30.998   102.017
29.1131     31.771   103.401
29.5365     32.649   104.525
29.9661     33.582   105.037
30.4020     34.509   104.928
30.8442     35.391   104.407
31.2929     36.230   103.783
31.7480     37.044   103.202
32.2098     37.848   102.713
32.6783     38.661   102.298
33.1536     39.488   101.889
33.6359     40.324   101.448
34.1251     41.174   100.966
34.6215     42.036   100.435
35.1250     42.916    99.808
35.6359     43.812    98.966
36.1543     44.708    97.891
36.6802     45.589    96.639
37.2137     46.454    95.326
37.7550     47.321    94.014
38.3041     48.207    92.628
38.8613     49.107    91.052
39.4265     50.006    89.190
40.0000     50.887    87.076
40.5818     51.738    84.722
41.1721     52.549    82.099
41.7710     53.305    79.206
42.3785     53.978    76.076
42.9949     54.568    72.861
43.6203     55.092    69.619
44.2548     55.568    66.253
44.8985     55.997    62.617
45.5515     56.371    58.731
46.2141     56.698    54.716
46.8863     57.000    50.648
47.5683     57.288    46.514
48.2602     57.544    42.444
48.9621     57.772    38.725
49.6743     57.993    35.515
50.3968     58.215    32.757
51.1299     58.417    30.422
51.8736     58.584    28.594
52.6281     58.720    27.257
53.3936     58.817    26.282
54.1702     58.871    25.599
54.9581     58.890    25.106
55.7575     58.884    24.603
56.5685     58.854    24.035
57.3914     58.816    23.444
58.2261     58.789    22.827
59.0730     58.776    22.279
59.9323     58.787    21.956
60.8040     58.832    21.878
61.6884     58.909    22.019
62.5857     59.003    22.298
63.4960     59.095    22.651
64.4196     59.166    23.151
65.3566     59.231    23.835
66.3073     59.298    24.592
67.2717     59.362    25.466
68.2502     59.441    26.498
69.2429     59.538    27.590
70.2501     59.643    28.678
71.2719     59.743    29.751
72.3086     59.838    30.788
73.3603     59.930    31.768
74.4274     60.017    32.733
75.5099     60.105    33.853
76.6083     60.220    35.224
77.7226     60.360    36.775
78.8531     60.508    38.503
80.0000     60.658    40.241
81.1636     60.763    41.884
82.3442     60.851    43.638
83.5419     60.978    45.146
84.7570     61.112    46.336
85.9899     61.268    47.572
87.2406     61.460    48.984
88.5096     61.678    50.592
89.7970     61.885    52.271
91.1031     62.042    53.919
92.4282     62.114    55.621
93.7726     62.156    57.686
95.1366     62.234    59.850
96.5204     62.345    62.137
97.9243     62.504    64.472
99.3486     62.666    66.714
100.794     62.818    68.906
102.260     62.958    70.943
103.747     63.101    72.860
105.256     63.258    74.705
106.787     63.422    76.512
108.340     63.560    78.422
109.916     63.677    80.625
111.515     63.796    83.025
113.137     63.929    85.516
114.783     64.061    87.953
116.452     64.174    90.451
118.146     64.290    92.943
119.865     64.409    95.341
121.608     64.541    97.754
123.377     64.683   100.377
125.171     64.800   103.190
126.992     64.879   106.064
128.839     64.932   108.695
130.713     64.966   111.050
132.615     64.981   113.663
134.543     65.020   116.924
136.500     65.058   120.218
138.486     65.040   123.035
140.500     65.029   126.197
142.544     65.054   129.804
144.617     65.060   133.361
146.721     65.069   137.287
148.855     65.113   141.084
151.020     65.110   144.436
153.217     65.064   148.207
155.445     65.042   152.211
157.706     64.987   156.050
160.000     64.878   160.979
162.327     64.856   166.239
164.688     64.834   170.821
167.084     64.909   175.393
169.514     64.869   179.726
171.980     64.718  -174.653
174.481     64.654  -169.037
177.019     64.676  -163.543
179.594     64.712  -157.414
182.206     64.700  -150.883
184.856     64.705  -145.031
187.545     64.783  -139.869
190.273     64.900  -133.977
193.041     64.926  -128.069
195.849     64.945  -122.163
198.697     65.002  -116.278
201.587     64.892  -110.461
204.520     64.743  -103.861
207.494     64.653   -97.336
210.512     64.620   -89.850
213.574     64.519   -82.452
216.681     64.458   -75.092
219.833     64.476   -67.553
223.030     64.607   -59.414
226.274     64.539   -51.005
229.565     64.472   -43.005
232.905     64.482   -34.730
236.292     64.507   -26.464
239.729     64.513   -17.628
243.216     64.639    -8.893
246.754     64.722    -0.067
250.343     64.744     8.834
253.984     64.802    17.941
257.678     64.783    27.061
261.426     64.787    36.685
265.229     64.805    45.662
269.087     64.794    55.727
273.001     64.697    65.128
276.972     64.340    75.250
281.000     64.249    88.104
285.088     64.406   100.581
289.234     64.589   112.363
293.441     64.775   123.204
297.709     64.833   134.597
302.040     64.732   145.355
306.433     64.643   158.937
310.890     64.815   171.919
315.412     64.808  -175.273
320.000     64.754  -162.036
324.655     64.775  -148.163
329.377     64.956  -134.102
334.168     65.045  -120.010
339.028     65.062  -105.430
343.959     65.048   -90.763
348.962     65.173   -75.905
354.038     65.327   -60.849
359.188     65.407   -46.493
364.412     65.380   -31.313
369.713     65.308   -14.759
375.090     65.312     1.097
380.546     65.403    17.835
386.081     65.441    33.397
391.697     65.382    50.524
397.394     65.305    67.343
403.175     65.099    85.045
409.039     65.049   102.897
414.989     64.903   121.383
421.025     64.784   139.899
427.149     64.585   157.997
433.362     64.417   176.975
439.665     64.165  -163.399
446.060     63.893  -142.951
452.548     63.603  -122.581
459.131     63.267  -101.334
465.809     62.968   -79.931
472.584     62.497   -57.795
479.458     62.041   -34.877
486.432     61.571   -11.041
493.507     61.078    14.078
500.686     60.585    40.782
507.968     60.150    67.855
515.357     59.809    96.057
522.853     59.539   124.935
530.458     59.446   155.207
538.174     59.539  -174.517
546.002     59.750  -144.712
553.943     60.117  -114.854
562.001     60.618   -85.163
570.175     61.165   -55.660
578.469     61.750   -26.424
586.883     62.331     1.890
595.419     62.868    29.793
604.080     63.382    57.504
612.866     63.833    85.349
621.780     64.237   113.280
630.824     64.578   141.390
640.000     64.844   169.290
649.309     65.033  -163.158
658.753     65.133  -135.306
668.335     65.162  -106.503
678.056     65.072   -77.931
687.919     64.882   -48.955
697.925     64.553   -19.572
708.077     64.071     9.503
718.376     63.453    38.997
728.825     62.570    69.057
739.426     61.349    99.240
750.181     59.719   129.387
761.093     57.367   159.321
772.163     53.759  -172.825
783.394     46.751  -157.292
794.789     43.081   138.723
806.349     52.408   129.917
818.078     57.477   157.777
829.977     60.762  -170.471
842.050     63.166  -136.989
854.298     65.043  -102.552
866.724     66.544   -67.779
879.330     67.774   -31.841
892.120     68.791     4.649
905.097     69.625    41.761
918.262     70.283    79.563
931.618     70.790   117.880
945.169     71.155   156.837
958.917     71.375  -163.646
972.864     71.466  -123.476
987.015     71.414   -82.633
1001.37     71.213   -40.587
1015.94     70.851     2.210
1030.71     70.347    45.249
1045.71     69.649    89.788
1060.92     68.752   135.886
1076.35     67.651  -177.274
1092.00     66.325  -128.743
1107.89     64.743   -77.423
1124.00     62.954   -22.818
1140.35     61.140    36.190
1156.94     59.628   100.996
1173.77     58.955   168.516
1190.84     59.160  -125.518
1208.16     59.736   -63.977
1225.73     60.242    -5.753
1243.56     60.439    49.865
1261.65     60.258   103.189
1280.00     59.696   154.256
1298.62     58.727  -156.960
1317.51     57.443  -111.398
1336.67     56.136   -70.396
1356.11     55.473   -34.042
1375.84     55.898     2.882
1395.85     57.115    46.185
1416.15     58.255    96.475
1436.75     59.037   151.576
1457.65     59.407  -149.089
1478.85     59.338   -85.739
1500.36     58.881   -18.831
1522.19     58.124    53.049
1544.33     57.320   130.401
1566.79     56.847  -146.759
1589.58     57.036   -61.596
1612.70     57.721    21.846
1636.16     58.503   102.946
1659.95     59.052  -177.198
1684.10     59.226   -97.492
1708.60     58.953   -16.250
1733.45     58.284    66.940
1758.66     57.380   154.962
1784.24     56.615  -112.303
1810.19     56.418   -16.888
1836.52     56.824    78.690
1863.24     57.438   171.037
1890.34     57.886   -99.265
1917.83     57.808   -11.261
1945.73     57.161    76.267
1974.03     55.781   165.046
2002.74     53.445  -104.084
2031.87     49.797    -8.407
2061.43     44.467   102.404
2091.41     41.502  -114.297
2121.83     44.485    16.742
2152.69     46.484   120.974
2184.01     46.693  -142.932
2215.77     45.377   -50.006
2248.00     42.280    37.009
2280.70     37.588   106.858
2313.87     36.267   149.444
2347.53     39.314  -143.783
2381.68     40.968   -57.108
2416.32     40.912    33.750
2451.46     39.595   120.271
2487.12     38.904  -161.662
2523.30     40.435   -79.399
2560.00     42.371    19.128
2597.24     43.891   130.744
2635.01     44.675  -106.320
2673.34     45.265    23.900
2712.23     45.964   158.426
2751.68     46.433   -65.963
2791.70     46.170    71.278
2832.31     44.801  -145.111
2873.50     43.238    12.967
2915.30     44.059  -178.050
2957.70     46.620   -19.747
3000.72     48.021   128.444
3044.37     48.007   -81.331
3088.65     47.068    79.520
3133.58     47.304  -109.371
3179.16     48.857    57.688
3225.40     49.695  -142.057
3272.31     48.774    19.573
3319.91     46.832  -161.066
3368.20     47.968    34.736
3417.19     51.136  -146.833
3466.89     52.977    20.268
3517.32     53.140  -171.308
3568.48     52.165     3.722
3620.39     50.983  -172.411
3673.05     50.065    16.000
3726.47     48.741  -153.125
3780.67     46.818    47.034
3835.67     46.027  -103.294
3891.46     46.057   103.436
3948.06     45.125   -48.903
4005.49     44.661   171.929
4063.75     46.181    27.515
4122.86     46.132  -128.986
4182.82     42.332    81.176
4243.66     38.256   -19.754
4305.39     41.739  -127.162
4368.01     43.571   107.304
4431.55     45.820   -11.546
4496.01     48.369  -139.557
4561.40     49.433    90.891
4627.75     49.766   -30.042
4695.06     50.482  -147.111
4763.35     50.559    96.306
4832.64     50.266   -11.282
4902.93     51.047  -117.259
4974.24     50.764   128.890
5046.60     46.862    24.299
5120.00     43.689   -34.571
5194.47     46.668  -101.426
5270.03     48.672   178.481
5346.68     50.824    96.221
5424.45     51.393     9.994
5503.35     50.634   -62.840
5583.40     51.108  -127.663
5664.61     51.009   165.500
5747.01     50.551   111.223
5830.60     51.264    57.523
5915.41     51.077     5.849
6001.45     50.577   -38.447
6088.74     49.684   -71.990
6177.30     51.523   -94.672
6267.15     53.283  -137.366
6358.31     51.730  -170.251
6450.80     51.611   178.486
6544.62     52.726   162.384
6639.82     53.701   145.546
6736.40     52.770   126.089
6834.38     50.081   135.918
6933.79     52.240   151.683
7034.64     53.042   149.945
7136.96     51.730   161.567
7240.77     52.084  -171.968
7346.09     52.699  -153.484
7452.94     52.003  -126.839
7561.35     51.252   -99.187
7671.33     48.305   -49.965
7782.91     49.168     5.256
7896.12     47.588    65.351
8010.97     49.672   130.559
8127.49     48.728  -166.673
8245.71     49.579   -91.270
8365.65     48.889   -17.427
8487.33     48.483    67.726
8610.78     48.546   165.830
8736.03     49.773  -108.320
8863.09     47.453   -16.404
8992.01     43.737    99.934
9122.80     43.762  -115.438
9255.50     46.509     9.497
9390.12     45.796   134.130
9526.70     47.114   -85.228
9665.27     46.362    50.621
9805.86     46.187  -161.654
9948.49     45.453    -3.157
10093.2     44.469   157.115
10240.0     43.255   -41.265
10388.9     38.267   149.957
10540.1     35.550   -13.122
10693.4     33.227  -159.905
10848.9     29.560    84.578
11006.7     31.126   -33.431
11166.8     33.156  -136.227
11329.2     39.014    77.710
11494.0     36.050   -47.679
11661.2     40.213  -146.075
11830.8     40.951    73.827
12002.9     31.876   -18.540
12177.5     36.288   -80.129
12354.6     33.773  -124.179
12534.3     37.285  -179.968
12716.6     40.699   108.207
12901.6     38.891    44.813
13089.2     34.601     6.710
13279.6     35.079    -2.179
13472.8     34.178   -42.845
13668.8     27.013  -101.774
13867.6     21.305   133.367
14069.3     30.557   117.889
14273.9     33.747   131.922
14481.5     33.048   143.825
14692.2     36.209  -150.800
14905.9     33.829  -108.510
15122.7     34.706   -33.821
15342.7     33.815    55.004
15565.8     35.584   153.771
15792.2     35.058  -114.799
16021.9     35.529     3.561
16255.0     34.088   138.622
16491.4     33.537   -88.243
16731.3     30.947    78.574
16974.7     31.400  -113.608
17221.6     29.622    71.893
17472.1     26.151   -62.143
17726.2     30.376   152.636
17984.0     31.153   -10.443
18245.6     26.291  -147.671
18511.0     21.412   -64.391
18780.2     22.398    41.458
19053.4     21.171   -14.875
19330.5     24.385  -113.581
19611.7     15.830   -35.688
19897.0     12.974    -8.979
20186.4     13.855    70.702
20480.0     16.122  -100.567
20777.9     18.306   100.952
21080.1     21.740    82.040
21386.7     24.367    76.971
21697.8     24.588   111.960
22013.4     23.606   168.667
22333.6     20.102  -138.068
22658.4     16.270   151.489
22988.0     14.195   -87.618
23322.4     19.202   128.329
23661.6     22.587  -168.118
24005.8     23.128  -134.602
24355.0     26.105  -120.234
24709.2     25.722    82.707
25068.6     26.069   -55.991
25433.2     24.925  -160.086
25803.2     26.890   130.749
26178.5     28.739    53.268
26559.3     25.010   -18.688
26945.6     19.969   104.002
27337.5     23.919    -3.893
27735.2     23.009    15.611
28138.6     17.637    58.234
28547.9     16.646  -127.044
28963.1     19.170  -116.179
29384.4     15.354    93.624
29811.8     19.493    95.980
30245.4     20.663  -103.348
30685.3     20.415    98.002
31131.7     20.673  -160.655
31584.5     19.364   -99.276
32043.9     18.779  -126.423
32510.0     19.332   -76.768
32982.8     20.182    26.622
33462.6     17.250   -66.247
33949.3     19.921   -77.405
34443.1     18.097   -65.457
34944.1     16.894   122.403
35452.4     16.944  -150.755
35968.0     18.406    63.180
36491.2     18.215  -171.014
37022.0     18.708    17.614
37560.5     17.420    38.079
38106.8     17.564    29.594
38661.1     17.123   124.687
39223.4     16.540  -123.625
39793.9     16.710    89.174
