Freq[Hz]     dBSPL  Phase[Deg]
5.00000     -9.556    22.648
5.07273     -9.508    25.268
5.14651     -9.472    27.978
5.22137     -9.473    30.939
5.29732     -9.474    33.901
5.37437     -9.475    36.862
5.45254     -9.476    39.823
5.53185     -9.476    43.139
5.61231     -9.475    46.829
5.69394     -9.475    50.520
5.77676     -9.474    54.211
5.86079     -9.472    57.911
5.94604     -9.377    62.127
6.03252     -9.281    66.344
6.12027     -9.185    70.560
6.20929     -9.089    74.776
6.29961     -8.918    78.755
6.39124     -8.731    82.681
6.48420     -8.543    86.607
6.57851     -8.355    90.533
6.67420     -8.201    94.010
6.77128     -8.051    97.415
6.86977     -7.902   100.819
6.96969     -7.768   104.255
7.07107     -7.750   107.925
7.17392     -7.732   111.596
7.27827     -7.715   115.266
7.38413     -7.724   119.724
7.49154     -7.753   124.791
7.60050     -7.783   129.858
7.71105     -7.776   135.146
7.82321     -7.608   141.404
7.93701     -7.441   147.662
8.05245     -7.273   153.920
8.16958     -6.890   159.540
8.28841     -6.499   165.136
8.40896     -6.109   170.732
8.53128     -5.753   175.354
8.65537     -5.401   179.851
8.78126     -5.050  -175.653
8.90899     -4.841  -170.849
9.03857     -4.643  -166.025
9.17004     -4.441  -161.032
9.30342     -4.212  -154.690
9.43874     -3.984  -148.349
9.57603     -3.649  -141.816
9.71532     -3.151  -134.991
9.85663     -2.653  -128.166
10.0000     -2.088  -122.194
10.1455     -1.505  -116.459
10.2930     -0.944  -110.818
10.4427     -0.448  -105.437
10.5946      0.048  -100.057
10.7487      0.651   -93.963
10.9051      1.274   -87.727
11.0637      2.096   -81.854
11.2246      3.126   -76.367
11.3879      4.202   -71.613
11.5535      5.445   -69.534
11.7216      6.684   -67.515
11.8921      7.750   -68.982
12.0650      8.817   -70.449
12.2405      9.541   -74.135
12.4186     10.221   -78.107
12.5992     10.488   -83.398
12.7825     10.663   -88.982
12.9684     10.306   -95.322
13.1570      9.826  -101.838
13.3484      8.480  -108.383
13.5426      6.993  -114.933
13.7395      3.304  -117.371
13.9394     -0.280  -112.475
14.1421     -2.417   -53.002
14.3478     -2.140   -11.299
14.5565      3.331    -7.816
14.7683      6.916   -11.041
14.9831      9.042   -19.448
15.2010     10.003   -29.617
15.4221     10.577   -40.298
15.6464     10.325   -51.904
15.8740      9.460   -64.130
16.1049      8.107   -76.853
16.3392      5.056   -91.609
16.5768     -0.461  -114.785
16.8179     -9.466  -150.079
17.0626     -4.929   -26.953
17.3107      0.316    52.308
17.5625      3.978    33.670
17.8180      5.280    17.415
18.0771      5.737     1.397
18.3401      5.402   -14.531
18.6068      4.034   -30.355
18.8775      1.593   -44.917
19.1521     -2.307   -53.785
19.4306     -7.446   -50.302
19.7133     -7.570     5.414
20.0000     -3.096    18.204
20.2909      1.357    12.428
20.5860      4.264     0.262
20.8855      6.293   -12.051
21.1893      7.658   -22.506
21.4975      8.619   -30.753
21.8102      9.269   -36.639
22.1274      9.674   -39.917
22.4492      9.921   -40.271
22.7758     10.145   -37.377
23.1071     10.576   -31.274
23.4432     11.490   -23.282
23.7841     12.948   -16.381
24.1301     14.596   -12.245
24.4811     16.143   -10.395
24.8372     17.473    -9.641
25.1984     18.616    -8.878
25.5649     19.697    -7.592
25.9368     20.845    -6.101
26.3141     22.095    -5.252
26.6968     23.362    -5.684
27.0851     24.524    -7.361
27.4791     25.500    -9.686
27.8788     26.295   -11.832
28.2843     27.003   -13.252
28.6957     27.733   -13.909
29.1131     28.563   -14.233
29.5365     29.502   -14.803
29.9661     30.497   -15.969
30.4020     31.487   -17.736
30.8442     32.431   -19.896
31.2929     33.332   -22.141
31.7480     34.204   -24.331
32.2098     35.063   -26.419
32.6783     35.927   -28.431
33.1536     36.798   -30.442
33.6359     37.676   -32.494
34.1251     38.559   -34.608
34.6215     39.451   -36.799
35.1250     40.357   -39.117
35.6359     41.273   -41.690
36.1543     42.186   -44.539
36.6802     43.080   -47.611
37.2137     43.955   -50.800
37.7550     44.829   -54.044
38.3041     45.721   -57.432
38.8613     46.626   -61.076
39.4265     47.531   -65.089
40.0000     48.421   -69.433
40.5818     49.288   -74.098
41.1721     50.124   -79.109
41.7710     50.917   -84.447
42.3785     51.642   -90.062
42.9949     52.301   -95.763
43.6203     52.909  -101.457
44.2548     53.484  -107.192
44.8985     54.020  -113.075
45.5515     54.499  -119.067
46.2141     54.921  -125.046
46.8863     55.299  -130.963
47.5683     55.631  -136.884
48.2602     55.899  -142.758
48.9621     56.105  -148.381
49.6743     56.277  -153.669
50.3968     56.433  -158.735
51.1299     56.561  -163.643
51.8736     56.660  -168.312
52.6281     56.745  -172.728
53.3936     56.822  -176.962
54.1702     56.888   179.000
54.9581     56.956   175.151
55.7575     57.028   171.387
56.5685     57.090   167.710
57.3914     57.147   164.177
58.2261     57.203   160.749
59.0730     57.250   157.456
59.9323     57.297   154.367
60.8040     57.361   151.434
61.6884     57.443   148.578
62.5857     57.541   145.717
63.4960     57.640   142.796
64.4196     57.726   139.932
65.3566     57.817   137.195
66.3073     57.914   134.500
67.2717     58.012   131.893
68.2502     58.125   129.404
69.2429     58.258   126.922
70.2501     58.402   124.382
71.2719     58.549   121.793
72.3086     58.695   119.163
73.3603     58.837   116.493
74.4274     58.967   113.819
75.5099     59.086   111.267
76.6083     59.217   108.866
77.7226     59.368   106.487
78.8531     59.534   104.113
80.0000     59.719   101.622
81.1636     59.885    99.009
82.3442     60.051    96.586
83.5419     60.257    94.059
84.7570     60.448    91.325
85.9899     60.629    88.623
87.2406     60.815    85.932
88.5096     61.014    83.171
89.7970     61.212    80.217
91.1031     61.386    77.064
92.4282     61.499    73.931
93.7726     61.598    71.217
95.1366     61.727    68.654
96.5204     61.879    66.185
97.9243     62.071    63.653
99.3486     62.271    60.908
100.794     62.473    58.053
102.260     62.670    55.069
103.747     62.864    52.011
105.256     63.054    48.861
106.787     63.233    45.560
108.340     63.379    42.199
109.916     63.506    38.984
111.515     63.640    35.860
113.137     63.791    32.737
114.783     63.944    29.463
116.452     64.084    26.176
118.146     64.231    22.863
119.865     64.373    19.453
121.608     64.507    15.966
123.377     64.637    12.450
125.171     64.758     8.854
126.992     64.875     5.215
128.839     64.985     1.441
130.713     65.059    -2.496
132.615     65.083    -6.285
134.543     65.123    -9.855
136.500     65.187   -13.623
138.486     65.209   -17.094
140.500     65.225   -20.685
142.544     65.247   -24.502
144.617     65.247   -27.942
146.721     65.275   -31.062
148.855     65.351   -34.812
151.020     65.365   -38.904
153.217     65.321   -42.626
155.445     65.303   -46.167
157.706     65.250   -49.878
160.000     65.140   -53.191
162.327     65.133   -56.214
164.688     65.137   -59.151
167.084     65.216   -62.598
169.514     65.156   -67.049
171.980     65.001   -70.368
174.481     64.948   -72.926
177.019     64.950   -75.594
179.594     64.969   -78.557
182.206     65.010   -81.758
184.856     65.074   -85.077
187.545     65.129   -88.343
190.273     65.193   -91.954
193.041     65.215   -95.717
195.849     65.244   -99.271
198.697     65.290  -103.497
201.587     65.185  -107.902
204.520     65.062  -111.354
207.494     64.972  -114.728
210.512     64.912  -117.913
213.574     64.809  -121.333
216.681     64.767  -123.925
219.833     64.751  -126.776
223.030     64.805  -130.148
226.274     64.751  -133.528
229.565     64.729  -136.730
232.905     64.713  -139.573
236.292     64.727  -142.704
239.729     64.731  -145.601
243.216     64.797  -148.734
246.754     64.859  -152.083
250.343     64.876  -155.713
253.984     64.901  -159.221
257.678     64.880  -162.779
261.426     64.882  -166.232
265.229     64.863  -170.281
269.087     64.799  -173.543
273.001     64.706  -177.586
276.972     64.366   179.467
281.000     64.255   178.703
285.088     64.378   176.790
289.234     64.558   174.219
293.441     64.687   170.909
297.709     64.704   167.527
302.040     64.635   164.037
306.433     64.494   162.697
310.890     64.676   160.068
315.412     64.625   157.419
320.000     64.581   154.996
324.655     64.575   153.655
329.377     64.705   152.064
334.168     64.795   149.314
339.028     64.804   147.185
343.959     64.811   145.251
348.962     64.890   143.773
354.038     65.018   141.871
359.188     65.115   139.136
364.412     65.067   136.359
369.713     65.037   135.145
375.090     65.034   133.366
380.546     65.158   131.694
386.081     65.213   129.100
391.697     65.183   127.321
397.394     65.149   124.603
403.175     65.022   123.523
409.039     65.038   122.042
414.989     64.983   120.597
421.025     64.986   119.042
427.149     64.924   117.534
433.362     64.881   116.438
439.665     64.829   115.029
446.060     64.750   114.239
452.548     64.723   113.195
459.131     64.690   112.676
465.809     64.716   111.221
472.584     64.628   110.402
479.458     64.572   110.043
486.432     64.589   109.541
493.507     64.557   109.215
500.686     64.579   109.156
507.968     64.642   108.864
515.357     64.717   108.662
522.853     64.832   108.383
530.458     64.981   107.952
538.174     65.154   107.449
546.002     65.346   106.782
553.943     65.550   105.842
562.001     65.788   104.648
570.175     66.018   103.229
578.469     66.272   101.501
586.883     66.509    99.799
595.419     66.730    97.856
604.080     66.960    95.720
612.866     67.167    93.462
621.780     67.353    91.041
630.824     67.538    88.545
640.000     67.675    85.979
649.309     67.790    83.370
658.753     67.880    80.727
668.335     67.942    77.944
678.056     67.969    75.312
687.919     67.960    72.654
697.925     67.928    70.122
708.077     67.855    67.775
718.376     67.756    65.538
728.825     67.638    63.589
739.426     67.496    61.957
750.181     67.337    60.622
761.093     67.188    59.662
772.163     67.065    59.119
783.394     66.959    59.009
794.789     66.916    59.162
806.349     66.939    59.540
818.078     67.047    59.982
829.977     67.232    60.357
842.050     67.490    60.470
854.298     67.813    60.205
866.724     68.161    59.502
879.330     68.538    58.282
892.120     68.908    56.615
905.097     69.260    54.465
918.262     69.581    51.905
931.618     69.859    49.095
945.169     70.082    46.007
958.917     70.249    42.703
972.864     70.364    39.379
987.015     70.418    36.013
1001.37     70.404    32.665
1015.94     70.344    29.426
1030.71     70.232    26.433
1045.71     70.080    23.660
1060.92     69.887    21.142
1076.35     69.673    19.004
1092.00     69.446    17.239
1107.89     69.205    15.803
1124.00     68.975    14.721
1140.35     68.754    13.974
1156.94     68.554    13.581
1173.77     68.378    13.485
1190.84     68.245    13.635
1208.16     68.161    14.132
1225.73     68.138    14.817
1243.56     68.198    15.680
1261.65     68.343    16.531
1280.00     68.583    17.155
1298.62     68.909    17.441
1317.51     69.294    17.254
1336.67     69.705    16.505
1356.11     70.117    15.082
1375.84     70.507    13.121
1395.85     70.852    10.686
1416.15     71.136     7.927
1436.75     71.350     4.951
1457.65     71.502     1.816
1478.85     71.601    -1.341
1500.36     71.649    -4.404
1522.19     71.657    -7.355
1544.33     71.632   -10.180
1566.79     71.586   -12.842
1589.58     71.527   -15.324
1612.70     71.454   -17.612
1636.16     71.382   -19.750
1659.95     71.318   -21.772
1684.10     71.271   -23.722
1708.60     71.236   -25.682
1733.45     71.209   -27.803
1758.66     71.175   -30.097
1784.24     71.101   -32.585
1810.19     70.971   -35.114
1836.52     70.775   -37.516
1863.24     70.521   -39.497
1890.34     70.252   -40.818
1917.83     70.022   -41.501
1945.73     69.897   -41.811
1974.03     69.878   -42.256
2002.74     69.932   -43.377
2031.87     69.966   -45.243
2061.43     69.900   -47.687
2091.41     69.702   -50.081
2121.83     69.379   -51.826
2152.69     69.040   -52.481
2184.01     68.797   -52.218
2215.77     68.725   -51.741
2248.00     68.788   -51.958
2280.70     68.846   -53.205
2313.87     68.792   -55.108
2347.53     68.585   -56.886
2381.68     68.287   -57.865
2416.32     68.016   -57.820
2451.46     67.858   -57.318
2487.12     67.807   -57.031
2523.30     67.769   -57.197
2560.00     67.678   -57.365
2597.24     67.582   -57.056
2635.01     67.571   -56.330
2673.34     67.690   -55.859
2712.23     67.856   -56.180
2751.68     67.959   -57.140
2791.70     67.974   -58.005
2832.31     67.987   -58.402
2873.50     68.098   -58.651
2915.30     68.283   -59.605
2957.70     68.416   -61.469
3000.72     68.403   -63.634
3044.37     68.275   -65.272
3088.65     68.139   -66.120
3133.58     68.085   -66.675
3179.16     68.085   -67.510
3225.40     68.050   -68.679
3272.31     67.972   -69.814
3319.91     67.861   -70.735
3368.20     67.738   -71.449
3417.19     67.600   -71.764
3466.89     67.510   -71.525
3517.32     67.551   -71.042
3568.48     67.720   -71.208
3620.39     67.906   -72.470
3673.05     67.978   -74.691
3726.47     67.851   -77.108
3780.67     67.544   -78.638
3835.67     67.201   -78.413
3891.46     67.087   -76.963
3948.06     67.224   -76.145
4005.49     67.376   -76.733
4063.75     67.392   -77.568
4122.86     67.391   -77.778
4182.82     67.465   -77.915
4243.66     67.574   -78.318
4305.39     67.698   -78.590
4368.01     67.919   -78.982
4431.55     68.216   -80.134
4496.01     68.517   -82.072
4561.40     68.802   -84.822
4627.75     68.999   -88.514
4695.06     69.053   -92.642
4763.35     68.993   -96.864
4832.64     68.798  -101.121
4902.93     68.470  -104.687
4974.24     68.181  -107.274
5046.60     68.020  -110.030
5120.00     67.889  -113.467
5194.47     67.792  -117.856
5270.03     67.594  -123.951
5346.68     67.128  -131.032
5424.45     66.398  -138.446
5503.35     65.274  -145.745
5583.40     63.907  -150.200
5664.61     62.950  -153.275
5747.01     62.052  -159.401
5830.60     60.930  -165.471
5915.41     60.152  -173.507
6001.45     59.087   174.038
6088.74     57.922   163.554
6177.30     57.844   152.367
6267.15     58.394   138.230
6358.31     59.743   125.374
6450.80     61.738   111.076
6544.62     63.608    97.798
6639.82     65.797    85.995
6736.40     67.925    70.475
6834.38     69.140    53.771
6933.79     69.745    40.158
7034.64     70.089    28.176
7136.96     69.951    18.086
7240.77     69.600    12.041
7346.09     69.445     8.498
7452.94     69.320     5.417
7561.35     69.174     4.178
7671.33     69.185     3.695
7782.91     69.262     4.425
7896.12     69.589     5.103
8010.97     69.988     5.739
8127.49     70.482     5.475
8245.71     70.999     5.205
8365.65     71.546     3.153
8487.33     71.957     0.213
8610.78     72.066    -4.153
8736.03     71.838    -7.251
8863.09     71.522    -8.719
8992.01     71.277    -9.227
9122.80     71.126    -8.972
9255.50     71.081    -8.986
9390.12     71.134    -9.018
9526.70     71.255    -9.532
9665.27     71.438   -10.789
9805.86     71.672   -12.810
9948.49     71.804   -16.560
10093.2     71.503   -20.633
10240.0     70.987   -20.866
10388.9     70.880   -19.761
10540.1     70.867   -19.851
10693.4     70.754   -19.627
10848.9     70.722   -18.867
11006.7     70.781   -18.165
11166.8     70.918   -17.902
11329.2     71.019   -18.746
11494.0     70.986   -19.793
11661.2     70.818   -19.818
11830.8     70.906   -20.116
12002.9     70.667   -21.982
12177.5     70.238   -21.396
12354.6     70.100   -19.927
12534.3     69.952   -19.529
12716.6     69.660   -18.887
12901.6     69.356   -17.256
13089.2     69.143   -14.826
13279.6     69.105   -12.292
13472.8     69.138   -10.605
13668.8     69.148   -10.313
13867.6     68.852   -10.667
14069.3     68.125    -9.631
14273.9     67.353    -3.101
14481.5     67.495     6.000
14692.2     68.269    11.297
14905.9     68.945    12.811
15122.7     69.347    13.088
15342.7     69.583    13.132
15565.8     69.690    13.362
15792.2     69.732    13.992
16021.9     69.771    15.033
16255.0     69.875    16.174
16491.4     70.033    17.001
16731.3     70.227    16.971
16974.7     70.345    15.751
17221.6     70.161    13.770
17472.1     69.782    13.338
17726.2     69.453    13.651
17984.0     69.062    13.934
18245.6     68.608    15.118
18511.0     68.190    16.689
18780.2     67.798    18.784
19053.4     67.430    20.788
19330.5     66.993    23.215
19611.7     66.621    26.501
19897.0     66.367    30.352
20186.4     66.346    33.430
20480.0     66.160    33.445
20777.9     65.239    38.066
21080.1     65.411    44.870
21386.7     65.754    47.522
21697.8     65.875    48.380
22013.4     65.847    48.977
22333.6     65.728    49.380
22658.4     65.545    49.563
22988.0     65.252    49.204
23322.4     64.766    48.739
23661.6     64.095    49.090
24005.8     63.393    50.663
24355.0     62.771    52.760
24709.2     62.171    54.359
25068.6     61.361    55.785
25433.2     60.475    58.932
25803.2     59.708    62.866
26178.5     59.056    67.562
26559.3     58.678    71.874
26945.6     58.217    75.470
27337.5     57.726    79.615
27735.2     57.463    85.105
28138.6     57.423    88.206
28547.9     57.056    90.207
28963.1     56.587    92.776
29384.4     56.059    96.606
29811.8     55.745    99.730
30245.4     55.244    99.426
30685.3     54.061   102.062
31131.7     53.448   103.556
31584.5     51.673   103.260
32043.9     49.830   109.029
32510.0     48.048   119.969
32982.8     47.773   128.837
33462.6     46.985   131.797
33949.3     46.046   133.031
34443.1     44.347   131.967
34944.1     41.685   128.363
35452.4     35.883   136.152
35968.0     33.336  -178.591
36491.2     35.067  -156.331
37022.0     36.094  -148.428
37560.5     36.030  -149.725
38106.8     33.819  -154.161
38661.1     30.417  -156.439
39223.4     22.509   -81.303
39793.9     17.936    34.723
