Freq[Hz]     dBSPL  Phase[Deg]
5.00000    -10.181    27.610
5.07273    -10.161    30.170
5.14651    -10.155    32.808
5.22137    -10.186    35.663
5.29732    -10.216    38.518
5.37437    -10.247    41.373
5.45254    -10.277    44.228
5.53185    -10.307    47.414
5.61231    -10.335    50.948
5.69394    -10.363    54.483
5.77676    -10.391    58.018
5.86079    -10.418    61.561
5.94604    -10.347    65.572
6.03252    -10.277    69.582
6.12027    -10.206    73.592
6.20929    -10.136    77.603
6.29961     -9.986    81.338
6.39124     -9.818    85.013
6.48420     -9.650    88.687
6.57851     -9.482    92.361
6.67420     -9.342    95.556
6.77128     -9.205    98.673
6.86977     -9.069   101.789
6.96969     -8.946   104.934
7.07107     -8.933   108.293
7.17392     -8.919   111.651
7.27827     -8.906   115.010
7.38413     -8.914   119.151
7.49154     -8.938   123.898
7.60050     -8.962   128.644
7.71105     -8.948   133.612
7.82321     -8.766   139.555
7.93701     -8.584   145.499
8.05245     -8.402   151.442
8.16958     -7.995   156.767
8.28841     -7.581   162.069
8.40896     -7.166   167.371
8.53128     -6.780   171.729
8.65537     -6.397   175.964
8.78126     -6.014  -179.801
8.90899     -5.768  -175.219
9.03857     -5.531  -170.614
9.17004     -5.291  -165.834
9.30342     -5.019  -159.661
9.43874     -4.748  -153.488
9.57603     -4.369  -147.102
9.71532     -3.825  -140.391
9.85663     -3.281  -133.679
10.0000     -2.668  -127.776
10.1455     -2.036  -122.097
10.2930     -1.428  -116.497
10.4427     -0.884  -111.114
10.5946     -0.340  -105.731
10.7487      0.309   -99.587
10.9051      0.978   -93.293
11.0637      1.843   -87.336
11.2246      2.915   -81.736
11.3879      4.031   -76.861
11.5535      5.310   -74.625
11.7216      6.586   -72.447
11.8921      7.683   -73.718
12.0650      8.779   -74.989
12.2405      9.525   -78.455
12.4186     10.227   -82.204
12.5992     10.509   -87.261
12.7825     10.697   -92.607
12.9684     10.346   -98.709
13.1570      9.870  -104.987
13.3484      8.520  -111.305
13.5426      7.028  -117.631
13.7395      3.326  -119.870
13.9394     -0.271  -114.782
14.1421     -2.427   -55.151
14.3478     -2.170   -13.305
14.5565      3.276    -9.713
14.7683      6.834   -12.859
14.9831      8.934   -21.212
15.2010      9.868   -31.374
15.4221     10.415   -42.066
15.6464     10.137   -53.728
15.8740      9.248   -66.038
16.1049      7.873   -78.866
16.3392      4.804   -93.767
16.5768     -0.727  -117.100
16.8179     -9.743  -152.570
17.0626     -5.209   -29.636
17.3107      0.035    49.429
17.5625      3.702    30.592
17.8180      5.015    14.144
18.0771      5.487    -2.058
18.3401      5.172   -18.158
18.6068      3.830   -34.128
18.8775      1.418   -48.809
19.1521     -2.451   -57.769
19.4306     -7.556   -54.349
19.7133     -7.644     1.350
20.0000     -3.134    14.160
20.2909      1.355     8.442
20.5860      4.295    -3.629
20.8855      6.356   -15.813
21.1893      7.748   -26.098
21.4975      8.732   -34.147
21.8102      9.399   -39.815
22.1274      9.814   -42.861
22.4492     10.064   -42.976
22.7758     10.286   -39.845
23.1071     10.708   -33.518
23.4432     11.607   -25.322
23.7841     13.044   -18.248
24.1301     14.667   -13.974
24.4811     16.189   -12.023
24.8372     17.492   -11.205
25.1984     18.609   -10.413
25.5649     19.666    -9.128
25.9368     20.793    -7.661
26.3141     22.024    -6.851
26.6968     23.276    -7.327
27.0851     24.427    -9.046
27.4791     25.393   -11.405
27.8788     26.179   -13.568
28.2843     26.877   -14.992
28.6957     27.596   -15.637
29.1131     28.412   -15.940
29.5365     29.332   -16.487
29.9661     30.305   -17.637
30.4020     31.268   -19.409
30.8442     32.179   -21.612
31.2929     33.044   -23.948
31.7480     33.880   -26.284
32.2098     34.704   -28.581
32.6783     35.539   -30.872
33.1536     36.389   -33.219
33.6359     37.256   -35.648
34.1251     38.142   -38.159
34.6215     39.052   -40.738
35.1250     39.988   -43.410
35.6359     40.948   -46.268
36.1543     41.913   -49.316
36.6802     42.862   -52.488
37.2137     43.793   -55.668
37.7550     44.717   -58.810
38.3041     45.649   -62.007
38.8613     46.584   -65.403
39.4265     47.502   -69.134
40.0000     48.391   -73.191
40.5818     49.243   -77.595
41.1721     50.052   -82.394
41.7710     50.811   -87.584
42.3785     51.496   -93.130
42.9949     52.113   -98.834
43.6203     52.684  -104.594
44.2548     53.224  -110.445
44.8985     53.730  -116.476
45.5515     54.185  -122.632
46.2141     54.585  -128.785
46.8863     54.940  -134.887
47.5683     55.252  -141.012
48.2602     55.501  -147.121
48.9621     55.691  -153.018
49.6743     55.853  -158.621
50.3968     56.007  -164.034
51.1299     56.146  -169.299
51.8736     56.269  -174.302
52.6281     56.391  -178.994
53.3936     56.512   176.593
54.1702     56.623   172.491
54.9581     56.730   168.690
55.7575     56.825   165.053
56.5685     56.893   161.527
57.3914     56.937   158.110
58.2261     56.968   154.715
59.0730     56.986   151.340
59.9323     57.006   148.058
60.8040     57.053   144.850
61.6884     57.135   141.680
62.5857     57.246   138.520
63.4960     57.371   135.359
64.4196     57.487   132.331
65.3566     57.605   129.503
66.3073     57.725   126.758
67.2717     57.839   124.112
68.2502     57.964   121.572
69.2429     58.110   119.027
70.2501     58.269   116.432
71.2719     58.432   113.824
72.3086     58.592   111.225
73.3603     58.739   108.627
74.4274     58.861   106.029
75.5099     58.959   103.503
76.6083     59.063   101.035
77.7226     59.187    98.480
78.8531     59.337    95.845
80.0000     59.523    93.061
81.1636     59.703    90.184
82.3442     59.893    87.571
83.5419     60.124    84.942
84.7570     60.335    82.178
85.9899     60.528    79.488
87.2406     60.716    76.827
88.5096     60.908    74.090
89.7970     61.087    71.130
91.1031     61.234    67.899
92.4282     61.316    64.581
93.7726     61.392    61.567
95.1366     61.517    58.638
96.5204     61.685    55.832
97.9243     61.905    53.079
99.3486     62.133    50.252
100.794     62.343    47.400
102.260     62.528    44.393
103.747     62.698    41.192
105.256     62.867    37.764
106.787     63.044    34.108
108.340     63.205    30.409
109.916     63.359    26.941
111.515     63.519    23.670
113.137     63.689    20.480
114.783     63.843    17.158
116.452     63.970    13.761
118.146     64.100    10.204
119.865     64.240     6.422
121.608     64.399     2.547
123.377     64.579    -1.200
125.171     64.746    -4.778
126.992     64.875    -8.244
128.839     64.956   -11.921
130.713     64.985   -16.008
132.615     64.980   -20.159
134.543     65.023   -24.106
136.500     65.098   -28.142
138.486     65.121   -31.810
140.500     65.134   -35.687
142.544     65.168   -39.857
144.617     65.192   -43.503
146.721     65.228   -46.693
148.855     65.283   -50.591
151.020     65.275   -55.073
153.217     65.244   -59.273
155.445     65.264   -63.111
157.706     65.236   -66.914
160.000     65.122   -70.310
162.327     65.094   -73.550
164.688     65.081   -76.835
167.084     65.165   -80.774
169.514     65.151   -85.658
171.980     65.049   -89.019
174.481     64.987   -91.411
177.019     64.926   -94.205
179.594     64.899   -97.779
182.206     64.966  -101.624
184.856     65.064  -105.202
187.545     65.109  -108.684
190.273     65.165  -112.763
193.041     65.211  -116.966
195.849     65.262  -120.787
198.697     65.317  -125.300
201.587     65.224  -129.985
204.520     65.098  -133.631
207.494     64.979  -137.291
210.512     64.893  -141.049
213.574     64.811  -145.136
216.681     64.813  -148.051
219.833     64.792  -151.094
223.030     64.837  -155.054
226.274     64.838  -158.824
229.565     64.805  -162.024
232.905     64.733  -165.449
236.292     64.784  -169.307
239.729     64.826  -172.428
243.216     64.881  -175.851
246.754     64.937  -179.597
250.343     64.942   176.320
253.984     64.972   172.290
257.678     64.951   168.403
261.426     64.914   164.379
265.229     64.922   159.487
269.087     64.914   155.979
273.001     64.794   151.764
276.972     64.425   148.334
281.000     64.292   147.000
285.088     64.414   144.510
289.234     64.564   141.367
293.441     64.715   137.313
297.709     64.728   133.671
302.040     64.624   129.476
306.433     64.489   127.568
310.890     64.663   124.211
315.412     64.642   121.183
320.000     64.538   118.373
324.655     64.508   116.243
329.377     64.629   114.078
334.168     64.703   110.647
339.028     64.696   107.976
343.959     64.662   105.308
348.962     64.749   103.093
354.038     64.859   100.660
359.188     64.967    97.251
364.412     64.880    94.232
369.713     64.801    92.114
375.090     64.802    89.874
380.546     64.887    87.580
386.081     64.910    84.494
391.697     64.852    81.997
397.394     64.785    78.782
403.175     64.632    77.024
409.039     64.628    75.062
414.989     64.525    72.934
421.025     64.544    70.796
427.149     64.452    68.771
433.362     64.400    67.234
439.665     64.329    65.089
446.060     64.252    63.775
452.548     64.226    61.911
459.131     64.251    60.744
465.809     64.303    58.923
472.584     64.194    57.321
479.458     64.188    56.163
486.432     64.191    54.844
493.507     64.181    53.272
500.686     64.251    52.141
507.968     64.303    50.621
515.357     64.384    49.098
522.853     64.506    47.352
530.458     64.641    45.647
538.174     64.755    43.670
546.002     64.886    41.576
553.943     65.012    38.998
562.001     65.168    36.348
570.175     65.289    33.494
578.469     65.420    30.431
586.883     65.519    27.384
595.419     65.586    24.171
604.080     65.653    20.960
612.866     65.693    17.689
621.780     65.699    14.250
630.824     65.691    11.023
640.000     65.651     7.708
649.309     65.589     4.586
658.753     65.511     1.624
668.335     65.404    -1.345
678.056     65.284    -3.990
687.919     65.141    -6.698
697.925     65.041    -9.049
708.077     64.924   -11.038
718.376     64.832   -12.954
728.825     64.766   -14.690
739.426     64.754   -16.332
750.181     64.782   -17.876
761.093     64.846   -19.573
772.163     64.970   -21.327
783.394     65.115   -23.493
794.789     65.317   -25.947
806.349     65.506   -28.693
818.078     65.699   -31.894
829.977     65.885   -35.492
842.050     66.037   -39.487
854.298     66.150   -43.763
866.724     66.207   -48.343
879.330     66.229   -53.243
892.120     66.173   -58.258
905.097     66.045   -63.383
918.262     65.844   -68.573
931.618     65.572   -73.628
945.169     65.207   -78.505
958.917     64.756   -83.045
972.864     64.236   -87.295
987.015     63.681   -90.754
1001.37     63.074   -93.459
1015.94     62.469   -95.207
1030.71     61.957   -96.047
1045.71     61.579   -96.019
1060.92     61.382   -95.851
1076.35     61.419   -95.927
1092.00     61.622   -96.861
1107.89     61.962   -99.147
1124.00     62.337  -102.726
1140.35     62.688  -107.685
1156.94     62.986  -114.012
1173.77     63.199  -121.411
1190.84     63.305  -129.782
1208.16     63.307  -139.072
1225.73     63.186  -149.363
1243.56     62.958  -160.529
1261.65     62.621  -172.639
1280.00     62.169   174.344
1298.62     61.648   160.188
1317.51     61.071   144.783
1336.67     60.451   128.001
1356.11     59.891   109.975
1375.84     59.432    90.529
1395.85     59.205    70.513
1416.15     59.123    51.007
1436.75     59.174    32.234
1457.65     59.247    14.461
1478.85     59.336    -2.414
1500.36     59.345   -17.924
1522.19     59.285   -32.406
1544.33     59.061   -46.000
1566.79     58.740   -58.779
1589.58     58.299   -70.825
1612.70     57.758   -82.229
1636.16     57.168   -93.069
1659.95     56.479  -103.649
1684.10     55.754  -114.466
1708.60     55.021  -125.627
1733.45     54.226  -137.264
1758.66     53.338  -149.922
1784.24     52.457  -163.343
1810.19     51.516  -177.097
1836.52     50.743   169.089
1863.24     50.148   156.384
1890.34     49.948   145.618
1917.83     50.293   136.491
1945.73     51.253   128.112
1974.03     52.608   119.557
2002.74     54.095   110.260
2031.87     55.490    99.949
2061.43     56.737    89.244
2091.41     57.728    78.906
2121.83     58.463    69.030
2152.69     58.989    60.125
2184.01     59.373    52.506
2215.77     59.665    46.110
2248.00     59.938    40.952
2280.70     60.230    36.636
2313.87     60.563    32.673
2347.53     60.963    28.830
2381.68     61.368    24.753
2416.32     61.738    20.347
2451.46     62.026    15.628
2487.12     62.180    11.039
2523.30     62.213     7.075
2560.00     62.183     4.019
2597.24     62.192     1.956
2635.01     62.341     0.228
2673.34     62.565    -1.901
2712.23     62.769    -4.716
2751.68     62.850    -7.707
2791.70     62.813   -10.166
2832.31     62.750   -11.562
2873.50     62.813   -12.326
2915.30     62.991   -13.113
2957.70     63.234   -14.517
3000.72     63.451   -16.314
3044.37     63.634   -18.211
3088.65     63.805   -20.136
3133.58     63.968   -22.129
3179.16     64.128   -24.146
3225.40     64.282   -26.366
3272.31     64.433   -28.914
3319.91     64.504   -31.901
3368.20     64.438   -34.795
3417.19     64.274   -36.826
3466.89     64.166   -37.813
3517.32     64.214   -38.589
3568.48     64.350   -40.154
3620.39     64.448   -42.452
3673.05     64.486   -45.069
3726.47     64.460   -48.070
3780.67     64.301   -51.426
3835.67     63.966   -54.409
3891.46     63.537   -56.489
3948.06     63.097   -57.889
4005.49     62.605   -58.650
4063.75     62.159   -58.251
4122.86     61.892   -57.894
4182.82     61.526   -59.267
4243.66     60.612   -59.845
4305.39     59.532   -54.847
4368.01     59.244   -46.477
4431.55     59.414   -40.373
4496.01     59.607   -33.195
4561.40     60.633   -25.529
4627.75     62.198   -24.212
4695.06     63.296   -28.211
4763.35     63.781   -33.140
4832.64     63.915   -36.993
4902.93     63.919   -39.497
4974.24     63.970   -41.105
5046.60     64.081   -42.797
5120.00     64.206   -44.951
5194.47     64.335   -48.106
5270.03     64.273   -52.635
5346.68     63.860   -57.642
5424.45     63.018   -61.915
5503.35     61.789   -63.116
5583.40     60.690   -60.855
5664.61     59.600   -58.179
5747.01     58.174   -50.871
5830.60     57.618   -37.417
5915.41     58.077   -24.920
6001.45     59.242   -15.804
6088.74     60.369   -12.260
6177.30     61.165    -9.003
6267.15     62.109    -5.399
6358.31     63.268    -2.378
6450.80     64.787    -1.613
6544.62     66.353    -4.958
6639.82     67.679   -12.364
6736.40     68.354   -22.933
6834.38     68.319   -32.911
6933.79     67.938   -41.338
7034.64     67.184   -49.329
7136.96     65.913   -54.774
7240.77     64.547   -55.625
7346.09     63.417   -53.844
7452.94     62.595   -50.405
7561.35     61.983   -48.229
7671.33     61.139   -45.997
7782.91     60.057   -41.251
7896.12     59.211   -32.420
8010.97     58.822   -19.790
8127.49     59.829    -7.950
8245.71     61.167    -2.543
8365.65     62.374    -2.980
8487.33     63.003    -6.364
8610.78     62.936   -11.687
8736.03     62.069   -14.003
8863.09     61.081   -11.038
8992.01     60.515    -5.417
9122.80     60.532     1.639
9255.50     60.870     6.118
9390.12     61.466     8.853
9526.70     62.101     9.351
9665.27     62.623     6.171
9805.86     62.784     1.078
9948.49     62.186    -5.720
10093.2     60.473    -6.088
10240.0     59.763     1.512
10388.9     59.280     8.264
10540.1     59.301    17.275
10693.4     60.041    24.522
10848.9     60.899    28.772
11006.7     61.889    30.510
11166.8     62.630    28.957
11329.2     62.929    26.407
11494.0     62.961    25.985
11661.2     62.897    25.946
11830.8     62.993    30.099
12002.9     63.864    31.688
12177.5     64.627    28.296
12354.6     64.796    23.707
12534.3     64.645    20.763
12716.6     64.554    19.511
12901.6     64.683    17.574
13089.2     64.782    13.814
13279.6     64.648     8.496
13472.8     64.100     1.893
13668.8     62.975    -2.548
13867.6     61.935    -4.093
14069.3     60.845    -5.726
14273.9     59.393    -5.444
14481.5     58.298     0.031
14692.2     57.979     3.676
14905.9     57.571     2.464
15122.7     56.591     2.710
15342.7     55.650     5.561
15565.8     55.466     8.043
15792.2     55.244     4.165
16021.9     54.383    -0.952
16255.0     53.046    -6.566
16491.4     51.778    -9.257
16731.3     50.918   -19.128
16974.7     48.728   -32.812
17221.6     47.117   -48.884
17472.1     45.341   -71.086
17726.2     45.154   -97.452
17984.0     45.709  -125.571
18245.6     46.464  -148.890
18511.0     47.191  -164.824
18780.2     47.544   179.125
19053.4     46.304   164.951
19330.5     44.271   165.155
19611.7     43.551   169.737
19897.0     42.632   171.613
20186.4     41.649   179.306
20480.0     40.890  -175.826
20777.9     39.777  -164.568
21080.1     39.716  -156.610
21386.7     38.588  -150.199
21697.8     37.348  -133.902
22013.4     38.275  -113.367
22333.6     39.988  -105.446
22658.4     41.476  -108.382
22988.0     41.007  -116.533
23322.4     38.651  -123.507
23661.6     34.108  -108.372
24005.8     33.805   -74.207
24355.0     35.164   -68.522
24709.2     33.762   -54.668
25068.6     35.467   -32.269
25433.2     36.159   -34.854
25803.2     34.262   -27.450
26178.5     34.915    -2.339
26559.3     36.455     2.234
26945.6     37.867     9.457
27337.5     39.087     1.360
27735.2     37.607   -14.980
28138.6     30.569    -9.124
28547.9     30.924    51.544
28963.1     34.685    48.081
29384.4     33.410    50.005
29811.8     32.070    47.512
30245.4     24.676   -50.188
30685.3     33.785   141.058
31131.7     37.124   136.264
31584.5     38.724   110.711
32043.9     32.463   107.623
32510.0     33.007   145.008
32982.8     33.545   140.460
33462.6     32.252   157.062
33949.3     32.310   168.961
34443.1     32.998   178.571
34944.1     32.340   171.382
35452.4     27.441  -164.504
35968.0     31.918  -149.190
36491.2     29.492  -149.017
37022.0     29.330  -129.896
37560.5     29.523  -123.407
38106.8     28.928  -122.017
38661.1     27.399  -103.315
39223.4     27.626   -95.359
39793.9     27.673   -41.926
