Freq[Hz]     dBSPL  Phase[Deg]
5.00000     -5.346    45.394
5.07273     -5.306    48.360
5.14651     -5.279    51.419
5.22137     -5.291    54.741
5.29732     -5.303    58.063
5.37437     -5.314    61.385
5.45254     -5.326    64.707
5.53185     -5.338    68.389
5.61231     -5.351    72.453
5.69394     -5.364    76.516
5.77676     -5.377    80.579
5.86079     -5.389    84.651
5.94604     -5.308    89.247
6.03252     -5.228    93.843
6.12027     -5.147    98.438
6.20929     -5.067   103.034
6.29961     -4.912   107.394
6.39124     -4.741   111.702
6.48420     -4.571   116.010
6.57851     -4.400   120.318
6.67420     -4.263   124.178
6.77128     -4.132   127.965
6.86977     -4.000   131.752
6.96969     -3.884   135.570
7.07107     -3.884   139.623
7.17392     -3.884   143.675
7.27827     -3.884   147.727
7.38413     -3.910   152.568
7.49154     -3.956   158.017
7.60050     -4.002   163.467
7.71105     -4.012   169.137
7.82321     -3.859   175.780
7.93701     -3.706  -177.576
8.05245     -3.554  -170.933
8.16958     -3.184  -164.922
8.28841     -2.806  -158.934
8.40896     -2.428  -152.946
8.53128     -2.082  -147.922
8.65537     -1.741  -143.022
8.78126     -1.399  -138.122
8.90899     -1.198  -132.899
9.03857     -1.006  -127.655
9.17004     -0.810  -122.240
9.30342     -0.586  -115.455
9.43874     -0.362  -108.671
9.57603     -0.029  -101.684
9.71532      0.468   -94.387
9.85663      0.965   -87.091
10.0000      1.531   -80.621
10.1455      2.116   -74.382
10.2930      2.679   -68.225
10.4427      3.179   -62.302
10.5946      3.679   -56.378
10.7487      4.285   -49.707
10.9051      4.913   -42.886
11.0637      5.739   -36.409
11.2246      6.773   -30.294
11.3879      7.853   -24.904
11.5535      9.098   -22.156
11.7216     10.340   -19.466
11.8921     11.407   -20.223
12.0650     12.475   -20.980
12.2405     13.197   -23.925
12.4186     13.875   -27.151
12.5992     14.137   -31.674
12.7825     14.306   -36.484
12.9684     13.940   -42.032
13.1570     13.449   -47.752
13.3484     12.088   -53.491
13.5426     10.587   -59.234
13.7395      6.878   -60.861
13.9394      3.274   -55.156
14.1421      1.115     5.123
14.3478      1.370    47.627
14.5565      6.816    51.903
14.7683     10.375    49.462
14.9831     12.477    41.831
15.2010     13.413    32.422
15.4221     13.963    22.497
15.6464     13.689    11.632
15.8740     12.804     0.139
16.1049     11.432   -11.855
16.3392      8.368   -25.891
16.5768      2.841   -48.345
16.8179     -6.170   -82.915
17.0626     -1.633    40.944
17.3107      3.615   120.949
17.5625      7.285   103.069
17.8180      8.602    87.604
18.0771      9.078    72.401
18.3401      8.768    57.317
18.6068      7.429    42.389
18.8775      5.021    28.771
19.1521      1.157    20.895
19.4306     -3.943    25.422
19.7133     -4.026    82.259
20.0000      0.489    96.239
20.2909      4.983    91.718
20.5860      7.928    80.875
20.8855      9.992    69.953
21.1893     11.386    60.971
21.4975     12.369    54.262
21.8102     13.032    49.969
22.1274     13.441    48.332
22.4492     13.679    49.656
22.7758     13.885    54.253
23.1071     14.283    62.069
23.4432     15.153    71.767
23.7841     16.553    80.348
24.1301     18.133    86.121
24.4811     19.605    89.552
24.8372     20.852    91.820
25.1984     21.911    94.022
25.5649     22.906    96.669
25.9368     23.973    99.445
26.3141     25.147   101.511
26.6968     26.350   102.240
27.0851     27.458   101.686
27.4791     28.394   100.465
27.8788     29.165    99.432
28.2843     29.863    99.156
28.6957     30.596    99.701
29.1131     31.442   100.654
29.5365     32.405   101.455
29.9661     33.430   101.764
30.4020     34.453   101.586
30.8442     35.428   101.140
31.2929     36.354   100.713
31.7480     37.244   100.433
32.2098     38.110   100.331
32.6783     38.968   100.367
33.1536     39.819   100.434
33.6359     40.664   100.464
34.1251     41.504   100.414
34.6215     42.342   100.249
35.1250     43.189    99.908
35.6359     44.045    99.249
36.1543     44.900    98.261
36.6802     45.743    97.007
37.2137     46.577    95.614
37.7550     47.422    94.171
38.3041     48.297    92.622
38.8613     49.194    90.878
39.4265     50.100    88.857
40.0000     50.994    86.605
40.5818     51.864    84.139
41.1721     52.698    81.430
41.7710     53.478    78.470
42.3785     54.179    75.291
42.9949     54.800    72.045
43.6203     55.361    68.794
44.2548     55.878    65.459
44.8985     56.355    61.914
45.5515     56.779    58.200
46.2141     57.155    54.458
46.8863     57.499    50.768
47.5683     57.815    47.108
48.2602     58.081    43.574
48.9621     58.295    40.406
49.6743     58.481    37.713
50.3968     58.648    35.388
51.1299     58.780    33.363
51.8736     58.869    31.697
52.6281     58.926    30.364
53.3936     58.955    29.247
54.1702     58.953    28.305
54.9581     58.938    27.483
55.7575     58.920    26.643
56.5685     58.897    25.787
57.3914     58.879    24.997
58.2261     58.875    24.280
59.0730     58.883    23.723
59.9323     58.905    23.441
60.8040     58.954    23.417
61.6884     59.028    23.593
62.5857     59.117    23.875
63.4960     59.203    24.196
64.4196     59.272    24.642
65.3566     59.338    25.260
66.3073     59.410    25.948
67.2717     59.483    26.755
68.2502     59.573    27.725
69.2429     59.689    28.772
70.2501     59.815    29.851
71.2719     59.939    30.974
72.3086     60.056    32.130
73.3603     60.159    33.282
74.4274     60.241    34.423
75.5099     60.311    35.649
76.6083     60.403    36.998
77.7226     60.530    38.390
78.8531     60.689    39.887
80.0000     60.880    41.438
81.1636     61.048    43.065
82.3442     61.200    45.047
83.5419     61.370    47.005
84.7570     61.505    48.735
85.9899     61.625    50.425
87.2406     61.759    52.077
88.5096     61.921    53.692
89.7970     62.093    55.236
91.1031     62.240    56.731
92.4282     62.312    58.345
93.7726     62.356    60.382
95.1366     62.430    62.514
96.5204     62.540    64.719
97.9243     62.710    66.943
99.3486     62.896    69.129
100.794     63.077    71.377
102.260     63.235    73.558
103.747     63.380    75.609
105.256     63.536    77.502
106.787     63.713    79.307
108.340     63.878    81.292
109.916     64.022    83.740
111.515     64.140    86.498
113.137     64.239    89.270
114.783     64.324    91.747
116.452     64.410    94.076
118.146     64.534    96.392
119.865     64.679    98.775
121.608     64.824   101.308
123.377     64.961   104.017
125.171     65.077   106.797
126.992     65.177   109.635
128.839     65.258   112.382
130.713     65.304   114.975
132.615     65.307   117.766
134.543     65.338   121.065
136.500     65.387   124.398
138.486     65.380   127.358
140.500     65.366   130.722
142.544     65.373   134.449
144.617     65.370   138.040
146.721     65.376   142.017
148.855     65.412   145.835
151.020     65.414   149.107
153.217     65.404   152.884
155.445     65.416   157.186
157.706     65.347   161.420
160.000     65.190   166.477
162.327     65.149   171.611
164.688     65.142   176.155
167.084     65.233  -179.171
169.514     65.206  -174.672
171.980     65.055  -168.746
174.481     64.947  -162.880
177.019     64.913  -157.575
179.594     64.972  -151.887
182.206     65.048  -145.253
184.856     65.071  -138.817
187.545     65.106  -133.404
190.273     65.207  -127.515
193.041     65.233  -121.440
195.849     65.218  -115.388
198.697     65.247  -109.639
201.587     65.156  -103.992
204.520     65.051   -97.297
207.494     64.977   -90.421
210.512     64.917   -82.687
213.574     64.812   -75.257
216.681     64.765   -67.581
219.833     64.722   -59.649
223.030     64.781   -51.770
226.274     64.742   -43.642
229.565     64.692   -35.463
232.905     64.696   -27.197
236.292     64.761   -18.786
239.729     64.748    -9.458
243.216     64.818    -0.707
246.754     64.905     8.080
250.343     64.911    17.154
253.984     64.951    26.262
257.678     64.929    35.409
261.426     64.953    45.107
265.229     64.969    54.615
269.087     64.858    64.837
273.001     64.742    73.817
276.972     64.420    84.025
281.000     64.316    97.168
285.088     64.433   109.728
289.234     64.624   121.529
293.441     64.778   132.748
297.709     64.800   144.077
302.040     64.682   155.188
306.433     64.512   168.623
310.890     64.716  -178.302
315.412     64.626  -165.212
320.000     64.571  -152.170
324.655     64.553  -137.799
329.377     64.648  -123.854
334.168     64.713  -109.860
339.028     64.720   -95.251
343.959     64.676   -80.129
348.962     64.696   -65.134
354.038     64.799   -50.248
359.188     64.852   -35.765
364.412     64.756   -20.450
369.713     64.655    -3.773
375.090     64.575    12.493
380.546     64.595    29.279
386.081     64.534    45.285
391.697     64.385    62.320
397.394     64.220    79.583
403.175     63.930    97.463
409.039     63.751   115.815
414.989     63.488   134.676
421.025     63.244   153.391
427.149     62.936   172.358
433.362     62.622  -168.154
439.665     62.202  -147.558
446.060     61.780  -126.209
452.548     61.326  -104.625
459.131     60.834   -81.817
465.809     60.369   -58.486
472.584     59.772   -34.122
479.458     59.186    -8.556
486.432     58.732    18.124
493.507     58.352    46.651
500.686     58.085    76.823
507.968     58.080   106.676
515.357     58.308   137.068
522.853     58.627   167.170
530.458     59.156  -162.838
538.174     59.731  -134.126
546.002     60.373  -106.330
553.943     60.995   -79.030
562.001     61.613   -51.893
570.175     62.212   -24.907
578.469     62.729     2.072
586.883     63.191    28.563
595.419     63.589    54.802
604.080     63.898    81.259
612.866     64.124   108.056
621.780     64.280   135.077
630.824     64.345   162.475
640.000     64.321  -170.033
649.309     64.192  -142.678
658.753     63.902  -114.732
668.335     63.490   -86.017
678.056     62.937   -56.910
687.919     62.142   -27.015
697.925     61.050     3.662
708.077     59.633    35.021
718.376     57.660    68.757
728.825     54.728   106.690
739.426     50.544   157.323
750.181     48.051  -119.317
761.093     52.304   -42.316
772.163     56.806     5.236
783.394     60.079    43.895
794.789     62.594    80.400
806.349     64.568   115.590
818.078     66.170   150.471
829.977     67.507  -174.467
842.050     68.622  -139.214
854.298     69.554  -103.587
866.724     70.316   -68.113
879.330     70.943   -31.700
892.120     71.431     5.156
905.097     71.788    42.516
918.262     72.013    80.303
931.618     72.104   118.592
945.169     72.067   157.360
958.917     71.876  -163.353
972.864     71.536  -123.603
987.015     71.022   -83.405
1001.37     70.296   -42.231
1015.94     69.342    -0.623
1030.71     68.109    40.766
1045.71     66.491    82.801
1060.92     64.325   125.155
1076.35     61.355   165.661
1092.00     56.925  -158.864
1107.89     50.632  -150.599
1124.00     51.974  -174.711
1140.35     57.520  -151.985
1156.94     60.913  -110.024
1173.77     63.022   -62.982
1190.84     64.392   -13.618
1208.16     65.256    37.641
1225.73     65.736    91.109
1243.56     65.913   146.887
1261.65     65.832  -155.614
1280.00     65.593   -96.221
1298.62     65.269   -34.685
1317.51     64.926    29.420
1336.67     64.651    95.658
1356.11     64.524   162.908
1375.84     64.488  -128.974
1395.85     64.496   -60.405
1416.15     64.423     8.015
1436.75     64.190    76.341
1457.65     63.713   145.686
1478.85     62.978  -143.313
1500.36     61.979   -70.240
1522.19     60.776     6.379
1544.33     59.619    87.572
1566.79     58.832   173.110
1589.58     58.647  -100.043
1612.70     58.890   -15.190
1636.16     59.157    67.561
1659.95     59.083   149.150
1684.10     58.535  -128.861
1708.60     57.432   -44.303
1733.45     55.868    45.191
1758.66     54.409   143.989
1784.24     54.194  -110.955
1810.19     55.394   -10.550
1836.52     56.800    83.775
1863.24     57.651   173.394
1890.34     57.776   -98.520
1917.83     57.057    -9.978
1945.73     55.371    80.978
1974.03     52.507   179.059
2002.74     48.788   -66.039
2031.87     47.867    69.987
2061.43     50.568  -167.277
2091.41     52.801   -60.037
2121.83     53.751    43.732
2152.69     53.760   148.359
2184.01     53.122  -101.629
2215.77     52.498    15.098
2248.00     52.533   135.673
2280.70     53.191  -105.513
2313.87     53.889    10.610
2347.53     54.105   125.292
2381.68     53.759  -119.500
2416.32     52.824    -1.456
2451.46     51.412   120.872
2487.12     49.878  -111.143
2523.30     48.269    21.270
2560.00     46.666   158.557
2597.24     45.292   -57.900
2635.01     44.610    93.985
2673.34     45.816  -114.535
2712.23     47.717    28.979
2751.68     49.116   166.357
2791.70     49.565   -58.588
2832.31     48.944    77.397
2873.50     47.202  -140.329
2915.30     45.126    14.495
2957.70     44.956  -177.745
3000.72     46.769   -19.406
3044.37     48.155   126.711
3088.65     48.213   -91.160
3133.58     46.843    50.779
3179.16     44.167  -163.135
3225.40     40.536   -10.440
3272.31     37.556   141.914
3319.91     36.418   -80.634
3368.20     37.635    43.162
3417.19     39.980   173.729
3466.89     40.728   -44.519
3517.32     38.877   106.760
3568.48     31.553   -91.975
3620.39     23.145  -166.362
3673.05     35.566    47.980
3726.47     39.886  -125.891
3780.67     42.732    61.665
3835.67     44.495  -112.140
3891.46     45.071    77.653
3948.06     44.818   -82.144
4005.49     45.270   124.701
4063.75     46.197   -30.555
4122.86     46.070   173.174
4182.82     45.153    25.742
4243.66     44.894  -113.401
4305.39     44.864   103.181
4368.01     42.971   -38.413
4431.55     39.749  -156.074
4496.01     40.893   101.579
4561.40     43.399   -20.247
4627.75     44.732  -146.581
4695.06     44.928    89.110
4763.35     44.083   -26.804
4832.64     44.400  -129.655
4902.93     46.483   119.557
4974.24     47.130    -1.269
5046.60     45.647  -118.125
5120.00     43.158   134.134
5194.47     38.830    32.147
5270.03     33.119   -19.975
5346.68     38.498   -85.185
5424.45     39.246   161.505
5503.35     33.442    50.220
5583.40     21.062   -86.602
5664.61     30.475    95.968
5747.01     37.524    -9.727
5830.60     37.361  -105.111
5915.41     35.430  -166.799
6001.45     36.865   118.472
6088.74     36.016    -3.294
6177.30     36.668  -142.473
6267.15     38.455   113.179
6358.31     38.783    31.360
6450.80     38.140   -55.314
6544.62     37.855  -151.573
6639.82     38.850   127.544
6736.40     37.497    66.084
6834.38     29.394    89.549
6933.79     41.299   102.977
7034.64     41.818    41.308
7136.96     34.001  -107.043
7240.77     42.933   147.729
7346.09     42.604   148.608
7452.94     46.111   174.031
7561.35     46.451  -179.423
7671.33     45.250  -137.847
7782.91     46.632   -98.582
7896.12     46.944   -51.643
8010.97     48.290    -4.678
8127.49     47.922    46.394
8245.71     48.397   110.305
8365.65     48.400   166.316
8487.33     46.636  -119.710
8610.78     46.521   -40.341
8736.03     46.075    44.674
8863.09     46.011   125.037
8992.01     43.773  -145.029
9122.80     41.878   -56.497
9255.50     36.292    55.909
9390.12     35.286   165.915
9526.70     26.015   -65.649
9665.27     30.988    33.378
9805.86     33.658    49.181
9948.49     28.458   115.550
10093.2     29.648    -0.129
10240.0     36.922   122.757
10388.9     39.513   -89.212
10540.1     37.541    45.618
10693.4     29.786  -101.595
10848.9     34.819   109.999
11006.7     37.109   -54.023
11166.8     38.717   114.028
11329.2     31.733   -37.484
11494.0     31.352  -124.370
11661.2     38.706   118.586
11830.8     41.411   -30.130
12002.9     39.482  -147.446
12177.5     38.890   109.851
12354.6     39.679    20.364
12534.3     36.906   -86.321
12716.6     35.017  -139.017
12901.6     37.045   149.946
13089.2     37.930    79.024
13279.6     36.536    21.360
13472.8     35.747   -24.274
13668.8     33.080   -50.933
13867.6     24.422   -55.526
14069.3     30.622    24.418
14273.9     36.585     4.379
14481.5     35.194   -16.412
14692.2     32.201     1.674
14905.9     32.327    28.298
15122.7     27.359    44.589
15342.7     28.210   117.016
15565.8     20.139  -129.513
15792.2     28.063   -88.400
16021.9     27.150   -79.241
16255.0     27.583    -1.138
16491.4     22.773    87.599
16731.3     20.432    -0.326
16974.7     25.714    85.434
17221.6     24.699   -73.643
17472.1     27.745    89.903
17726.2     28.935   -74.003
17984.0     29.980   114.381
18245.6     25.908   -48.378
18511.0     23.100   168.356
18780.2     15.778  -132.216
19053.4     15.367   156.963
19330.5     20.540  -161.504
19611.7     20.539   -60.355
19897.0     23.098   133.017
20186.4     20.426  -144.696
20480.0     19.357  -174.886
20777.9     21.476    77.024
21080.1     20.828   173.864
21386.7     23.767   143.092
21697.8     25.319   175.276
22013.4     20.608   151.364
22333.6     23.491   -70.722
22658.4     20.895   -70.716
22988.0     19.019   -31.448
23322.4     23.404   168.514
23661.6     19.681  -149.214
24005.8     18.368    43.716
24355.0     17.203   -94.191
24709.2     19.581    44.377
25068.6     16.823    66.713
25433.2     18.911  -171.173
25803.2     21.917    72.675
26178.5     26.075  -118.819
26559.3     23.572   141.878
26945.6     16.825    78.060
27337.5     18.596     0.849
27735.2     16.563   152.199
28138.6     21.972   -21.093
28547.9     23.797  -139.555
28963.1     19.716   178.013
29384.4     19.163  -106.991
29811.8     15.599    11.124
30245.4     16.078    -0.268
30685.3     18.014    -2.995
31131.7     16.810   -97.818
31584.5     22.574   -32.404
32043.9     24.071  -112.119
32510.0     23.576   148.509
32982.8     17.054  -159.373
33462.6     16.255    -4.255
33949.3     16.415    95.829
34443.1     18.207  -138.582
34944.1     16.760  -179.445
35452.4     15.431   -41.406
35968.0     16.600  -130.759
36491.2     17.870  -111.229
37022.0     16.854     2.123
37560.5     15.225    74.038
38106.8     17.298   -70.732
38661.1     16.454   102.686
39223.4     16.064  -129.713
39793.9     15.003    44.456
