Freq[Hz]     dBSPL  Phase[Deg]
5.00000     -9.186    22.720
5.07273     -9.140    25.389
5.14651     -9.108    28.148
5.22137     -9.113    31.154
5.29732     -9.119    34.161
5.37437     -9.125    37.168
5.45254     -9.131    40.175
5.53185     -9.137    43.533
5.61231     -9.144    47.261
5.69394     -9.151    50.990
5.77676     -9.158    54.719
5.86079     -9.164    58.456
5.94604     -9.078    62.696
6.03252     -8.992    66.936
6.12027     -8.906    71.177
6.20929     -8.820    75.417
6.29961     -8.659    79.404
6.39124     -8.482    83.336
6.48420     -8.306    87.267
6.57851     -8.129    91.198
6.67420     -7.986    94.662
6.77128     -7.849    98.049
6.86977     -7.711   101.437
6.96969     -7.589   104.853
7.07107     -7.583   108.483
7.17392     -7.577   112.112
7.27827     -7.571   115.742
7.38413     -7.590   120.146
7.49154     -7.630   125.149
7.60050     -7.670   130.152
7.71105     -7.672   135.371
7.82321     -7.512   141.544
7.93701     -7.353   147.717
8.05245     -7.193   153.890
8.16958     -6.815   159.409
8.28841     -6.428   164.904
8.40896     -6.042   170.399
8.53128     -5.687   174.911
8.65537     -5.336   179.296
8.78126     -4.986  -176.319
8.90899     -4.774  -171.630
9.03857     -4.571  -166.921
9.17004     -4.365  -162.042
9.30342     -4.128  -155.809
9.43874     -3.891  -149.577
9.57603     -3.546  -143.148
9.71532     -3.035  -136.418
9.85663     -2.524  -129.688
10.0000     -1.943  -123.794
10.1455     -1.343  -118.133
10.2930     -0.765  -112.558
10.4427     -0.248  -107.222
10.5946      0.268  -101.886
10.7487      0.892   -95.807
10.9051      1.536   -89.581
11.0637      2.379   -83.699
11.2246      3.431   -78.182
11.3879      4.529   -73.391
11.5535      5.792   -71.244
11.7216      7.052   -69.155
11.8921      8.136   -70.515
12.0650      9.220   -71.875
12.2405      9.958   -75.425
12.4186     10.650   -79.257
12.5992     10.925   -84.388
12.7825     11.108   -89.807
12.9684     10.752   -95.970
13.1570     10.271  -102.306
13.3484      8.918  -108.671
13.5426      7.422  -115.041
13.7395      3.717  -117.311
13.9394      0.115  -112.252
14.1421     -2.047   -52.640
14.3478     -1.795   -10.811
14.5565      3.644    -7.231
14.7683      7.194   -10.389
14.9831      9.285   -18.752
15.2010     10.208   -28.931
15.4221     10.743   -39.642
15.6464     10.451   -51.334
15.8740      9.547   -63.685
16.1049      8.155   -76.562
16.3392      5.070   -91.537
16.5768     -0.477  -114.959
16.8179     -9.509  -150.535
17.0626     -4.992   -27.736
17.3107      0.239    51.178
17.5625      3.893    32.170
17.8180      5.199    15.523
18.0771      5.666    -0.892
18.3401      5.350   -17.219
18.6068      4.012   -33.430
18.8775      1.609   -48.357
19.1521     -2.244   -57.563
19.4306     -7.329   -54.385
19.7133     -7.388     1.087
20.0000     -2.844    13.693
20.2909      1.685     7.798
20.5860      4.670    -4.417
20.8855      6.780   -16.704
21.1893      8.226   -27.034
21.4975      9.266   -35.071
21.8102      9.988   -40.670
22.1274     10.459   -43.586
22.4492     10.761   -43.510
22.7758     11.032   -40.128
23.1071     11.494   -33.495
23.4432     12.427   -24.943
23.7841     13.887   -17.474
24.1301     15.522   -12.782
24.4811     17.043   -10.407
24.8372     18.334    -9.177
25.1984     19.426    -8.001
25.5649     20.446    -6.380
25.9368     21.528    -4.642
26.3141     22.707    -3.640
26.6968     23.903    -4.015
27.0851     24.998    -5.728
27.4791     25.910    -8.177
27.8788     26.652   -10.523
28.2843     27.315   -12.203
28.6957     28.013   -13.159
29.1131     28.824   -13.801
29.5365     29.755   -14.689
29.9661     30.755   -16.154
30.4020     31.760   -18.181
30.8442     32.729   -20.540
31.2929     33.659   -22.923
31.7480     34.563   -25.181
32.2098     35.453   -27.273
32.6783     36.344   -29.218
33.1536     37.237   -31.113
33.6359     38.128   -33.016
34.1251     39.017   -34.962
34.6215     39.904   -36.986
35.1250     40.797   -39.157
35.6359     41.693   -41.623
36.1543     42.580   -44.415
36.6802     43.448   -47.488
37.2137     44.297   -50.743
37.7550     45.150   -54.106
38.3041     46.028   -57.660
38.8613     46.929   -61.495
39.4265     47.840   -65.703
40.0000     48.748   -70.219
40.5818     49.642   -75.010
41.1721     50.511   -80.074
41.7710     51.341   -85.385
42.3785     52.100   -90.874
42.9949     52.785   -96.364
43.6203     53.410  -101.780
44.2548     53.983  -107.196
44.8985     54.501  -112.761
45.5515     54.945  -118.481
46.2141     55.318  -124.271
46.8863     55.637  -130.114
47.5683     55.908  -136.098
48.2602     56.122  -142.165
48.9621     56.287  -148.091
49.6743     56.435  -153.750
50.3968     56.588  -159.210
51.1299     56.734  -164.476
51.8736     56.869  -169.417
52.6281     57.000  -173.980
53.3936     57.122  -178.220
54.1702     57.226   177.866
54.9581     57.316   174.228
55.7575     57.387   170.698
56.5685     57.432   167.209
57.3914     57.458   163.765
58.2261     57.480   160.307
59.0730     57.500   156.868
59.9323     57.534   153.564
60.8040     57.601   150.401
61.6884     57.702   147.363
62.5857     57.826   144.401
63.4960     57.952   141.480
64.4196     58.058   138.691
65.3566     58.157   136.063
66.3073     58.252   133.461
67.2717     58.341   130.897
68.2502     58.446   128.399
69.2429     58.575   125.880
70.2501     58.723   123.310
71.2719     58.873   120.728
72.3086     59.020   118.142
73.3603     59.156   115.526
74.4274     59.270   112.868
75.5099     59.372   110.261
76.6083     59.492   107.733
77.7226     59.644   105.194
78.8531     59.824   102.695
80.0000     60.033   100.171
81.1636     60.215    97.625
82.3442     60.385    95.325
83.5419     60.578    92.898
84.7570     60.747    90.168
85.9899     60.911    87.362
87.2406     61.095    84.512
88.5096     61.310    81.632
89.7970     61.529    78.670
91.1031     61.717    75.620
92.4282     61.824    72.627
93.7726     61.902    69.984
95.1366     62.005    67.366
96.5204     62.143    64.746
97.9243     62.338    62.061
99.3486     62.552    59.247
100.794     62.764    56.425
102.260     62.955    53.504
103.747     63.131    50.442
105.256     63.302    47.177
106.787     63.478    43.689
108.340     63.636    40.161
109.916     63.786    36.873
111.515     63.938    33.782
113.137     64.095    30.743
114.783     64.240    27.529
116.452     64.366    24.228
118.146     64.503    20.826
119.865     64.646    17.296
121.608     64.791    13.724
123.377     64.935    10.203
125.171     65.062     6.664
126.992     65.175     3.085
128.839     65.275    -0.674
130.713     65.340    -4.625
132.615     65.353    -8.426
134.543     65.379   -12.022
136.500     65.425   -15.882
138.486     65.438   -19.499
140.500     65.458   -23.244
142.544     65.491   -27.146
144.617     65.495   -30.601
146.721     65.519   -33.740
148.855     65.589   -37.548
151.020     65.598   -41.720
153.217     65.550   -45.538
155.445     65.531   -49.198
157.706     65.485   -53.025
160.000     65.390   -56.390
162.327     65.387   -59.396
164.688     65.383   -62.357
167.084     65.461   -65.929
169.514     65.421   -70.450
171.980     65.280   -73.590
174.481     65.193   -75.967
177.019     65.143   -78.773
179.594     65.147   -82.108
182.206     65.209   -85.502
184.856     65.272   -88.896
187.545     65.330   -92.416
190.273     65.445   -96.166
193.041     65.502   -99.618
195.849     65.485  -102.886
198.697     65.471  -107.314
201.587     65.367  -112.050
204.520     65.259  -115.565
207.494     65.155  -118.950
210.512     65.080  -122.338
213.574     64.994  -125.932
216.681     64.962  -128.467
219.833     64.919  -131.304
223.030     64.953  -134.875
226.274     64.896  -138.426
229.565     64.872  -141.808
232.905     64.871  -144.758
236.292     64.877  -147.859
239.729     64.863  -150.982
243.216     64.961  -154.236
246.754     65.012  -157.391
250.343     64.988  -161.182
253.984     65.019  -164.851
257.678     64.975  -168.417
261.426     64.960  -172.135
265.229     64.952  -176.285
269.087     64.870  -179.584
273.001     64.767   176.252
276.972     64.406   173.268
281.000     64.268   172.264
285.088     64.403   170.175
289.234     64.570   167.600
293.441     64.685   164.213
297.709     64.669   160.789
302.040     64.589   157.100
306.433     64.419   155.804
310.890     64.571   152.843
315.412     64.519   150.262
320.000     64.416   147.680
324.655     64.396   146.135
329.377     64.504   144.386
334.168     64.579   141.642
339.028     64.541   139.416
343.959     64.505   137.388
348.962     64.551   135.579
354.038     64.667   133.672
359.188     64.740   130.697
364.412     64.680   128.170
369.713     64.578   126.816
375.090     64.563   125.023
380.546     64.636   123.424
386.081     64.637   120.786
391.697     64.582   118.924
397.394     64.511   116.398
403.175     64.330   115.355
409.039     64.313   113.936
414.989     64.215   112.584
421.025     64.202   111.191
427.149     64.099   109.937
433.362     64.028   109.026
439.665     63.944   107.834
446.060     63.848   107.201
452.548     63.820   106.378
459.131     63.790   105.979
465.809     63.855   104.901
472.584     63.762   104.300
479.458     63.746   104.075
486.432     63.777   103.725
493.507     63.788   103.357
500.686     63.851   103.177
507.968     63.957   102.772
515.357     64.071   102.274
522.853     64.214   101.758
530.458     64.389   100.928
538.174     64.571   100.022
546.002     64.750    98.849
553.943     64.953    97.475
562.001     65.152    95.760
570.175     65.347    93.915
578.469     65.531    91.799
586.883     65.705    89.563
595.419     65.862    87.324
604.080     65.988    84.855
612.866     66.117    82.398
621.780     66.212    79.868
630.824     66.278    77.261
640.000     66.325    74.697
649.309     66.349    72.195
658.753     66.346    69.755
668.335     66.316    67.392
678.056     66.259    65.077
687.919     66.189    62.915
697.925     66.114    60.910
708.077     66.017    59.178
718.376     65.918    57.570
728.825     65.835    56.166
739.426     65.755    54.984
750.181     65.702    53.929
761.093     65.672    52.975
772.163     65.671    52.089
783.394     65.711    51.135
794.789     65.774    50.137
806.349     65.858    48.951
818.078     65.954    47.585
829.977     66.050    45.982
842.050     66.126    44.132
854.298     66.188    42.063
866.724     66.206    39.857
879.330     66.181    37.558
892.120     66.101    35.199
905.097     65.969    33.022
918.262     65.768    31.067
931.618     65.519    29.449
945.169     65.233    28.406
958.917     64.936    28.029
972.864     64.667    28.362
987.015     64.480    29.456
1001.37     64.411    31.071
1015.94     64.504    32.771
1030.71     64.757    34.170
1045.71     65.133    34.856
1060.92     65.582    34.559
1076.35     66.024    33.234
1092.00     66.436    30.989
1107.89     66.759    27.978
1124.00     66.978    24.467
1140.35     67.055    20.613
1156.94     66.998    16.661
1173.77     66.796    12.979
1190.84     66.450     9.850
1208.16     65.995     7.602
1225.73     65.464     6.656
1243.56     64.958     7.278
1261.65     64.591     9.431
1280.00     64.505    12.524
1298.62     64.732    15.524
1317.51     65.208    17.505
1336.67     65.791    17.820
1356.11     66.378    16.524
1375.84     66.861    13.999
1395.85     67.202    10.653
1416.15     67.377     6.931
1436.75     67.399     3.262
1457.65     67.287    -0.063
1478.85     67.087    -2.737
1500.36     66.849    -4.598
1522.19     66.641    -5.712
1544.33     66.506    -6.318
1566.79     66.474    -6.835
1589.58     66.522    -7.563
1612.70     66.597    -8.754
1636.16     66.666   -10.381
1659.95     66.697   -12.262
1684.10     66.675   -14.246
1708.60     66.623   -16.114
1733.45     66.553   -17.874
1758.66     66.485   -19.594
1784.24     66.405   -21.425
1810.19     66.300   -23.391
1836.52     66.137   -25.407
1863.24     65.900   -27.221
1890.34     65.602   -28.527
1917.83     65.296   -29.026
1945.73     65.050   -28.912
1974.03     64.931   -28.472
2002.74     64.921   -28.346
2031.87     64.951   -28.919
2061.43     64.929   -30.099
2091.41     64.797   -31.418
2121.83     64.581   -32.285
2152.69     64.355   -32.270
2184.01     64.229   -31.621
2215.77     64.244   -31.062
2248.00     64.342   -31.299
2280.70     64.406   -32.410
2313.87     64.334   -33.833
2347.53     64.143   -34.857
2381.68     63.922   -34.931
2416.32     63.801   -34.333
2451.46     63.805   -33.889
2487.12     63.855   -34.226
2523.30     63.808   -35.123
2560.00     63.627   -35.630
2597.24     63.410   -34.998
2635.01     63.355   -33.304
2673.34     63.546   -31.899
2712.23     63.864   -31.959
2751.68     64.080   -33.526
2791.70     64.082   -35.597
2832.31     63.898   -36.959
2873.50     63.670   -36.962
2915.30     63.554   -35.958
2957.70     63.626   -34.898
3000.72     63.804   -34.438
3044.37     63.998   -34.876
3088.65     64.125   -35.873
3133.58     64.149   -36.993
3179.16     64.102   -37.579
3225.40     64.088   -37.400
3272.31     64.229   -37.043
3319.91     64.481   -37.547
3368.20     64.684   -39.302
3417.19     64.716   -41.420
3466.89     64.638   -42.905
3517.32     64.591   -43.723
3568.48     64.625   -44.775
3620.39     64.617   -46.399
3673.05     64.497   -47.901
3726.47     64.360   -48.661
3780.67     64.338   -49.283
3835.67     64.341   -50.828
3891.46     64.180   -53.033
3948.06     63.822   -54.431
4005.49     63.466   -54.251
4063.75     63.312   -53.464
4122.86     63.267   -53.479
4182.82     63.155   -54.318
4243.66     62.922   -55.074
4305.39     62.615   -55.416
4368.01     62.254   -55.061
4431.55     61.922   -53.603
4496.01     61.779   -51.840
4561.40     61.667   -51.111
4627.75     61.367   -50.361
4695.06     61.057   -47.808
4763.35     60.958   -44.745
4832.64     60.951   -41.896
4902.93     61.108   -39.124
4974.24     61.305   -38.088
5046.60     61.129   -37.179
5120.00     60.985   -32.902
5194.47     61.329   -28.694
5270.03     61.670   -25.756
5346.68     62.259   -21.790
5424.45     63.230   -20.877
5503.35     63.875   -22.932
5583.40     64.251   -24.652
5664.61     64.549   -26.299
5747.01     64.776   -27.541
5830.60     65.056   -29.140
5915.41     65.148   -31.154
6001.45     65.234   -31.987
6088.74     65.381   -33.925
6177.30     65.248   -35.526
6267.15     65.204   -35.581
6358.31     65.215   -35.829
6450.80     65.357   -35.277
6544.62     65.719   -36.465
6639.82     65.911   -39.303
6736.40     65.960   -43.095
6834.38     65.602   -47.530
6933.79     64.945   -49.563
7034.64     64.364   -49.989
7136.96     63.812   -49.467
7240.77     63.372   -48.838
7346.09     62.709   -47.553
7452.94     62.371   -43.815
7561.35     62.160   -42.531
7671.33     61.789   -40.118
7782.91     61.469   -37.685
7896.12     61.258   -34.435
8010.97     61.084   -31.958
8127.49     60.880   -30.238
8245.71     60.150   -27.703
8365.65     59.607   -21.869
8487.33     59.142   -14.142
8610.78     59.263    -5.676
8736.03     59.810     2.360
8863.09     60.752     6.273
8992.01     61.598     5.706
9122.80     61.713     3.222
9255.50     61.515     3.061
9390.12     61.478     4.672
9526.70     61.538     5.325
9665.27     61.624     5.186
9805.86     61.422     4.056
9948.49     60.739     6.120
10093.2     60.714    14.964
10240.0     62.172    19.710
10388.9     63.188    15.067
10540.1     63.319    10.685
10693.4     63.167     7.634
10848.9     62.851     6.123
11006.7     62.506     5.636
11166.8     62.035     6.152
11329.2     61.601     8.296
11494.0     61.358    12.326
11661.2     61.408    16.046
11830.8     61.783    19.495
12002.9     62.096    20.479
12177.5     62.649    20.424
12354.6     62.810    17.751
12534.3     62.764    15.558
12716.6     62.453    13.188
12901.6     62.037    12.425
13089.2     61.598    11.972
13279.6     61.041    12.601
13472.8     60.800    15.705
13668.8     61.091    15.150
13867.6     60.906    10.350
14069.3     60.013     5.078
14273.9     58.366     3.107
14481.5     56.873     7.422
14692.2     55.929    12.045
14905.9     55.012    17.548
15122.7     54.379    21.902
15342.7     53.618    26.084
15565.8     52.805    29.767
15792.2     51.495    35.737
16021.9     50.945    45.563
16255.0     50.645    53.254
16491.4     50.708    58.362
16731.3     50.141    61.149
16974.7     49.191    65.294
17221.6     48.113    75.368
17472.1     48.116    85.967
17726.2     48.039    94.153
17984.0     48.390   103.341
18245.6     49.282   108.062
18511.0     49.611   107.313
18780.2     49.419   107.929
19053.4     49.019   109.506
19330.5     48.817   112.895
19611.7     48.901   112.786
19897.0     48.470   109.888
20186.4     47.366   108.500
20480.0     45.970   108.969
20777.9     44.256   116.291
21080.1     44.001   127.090
21386.7     44.162   130.898
21697.8     44.131   131.547
22013.4     43.749   129.504
22333.6     43.026   128.033
22658.4     42.350   127.093
22988.0     41.516   125.809
23322.4     40.926   119.956
23661.6     39.308   119.185
24005.8     39.001   119.101
24355.0     38.417   114.984
24709.2     38.230   112.682
25068.6     38.811   108.339
25433.2     39.366    95.936
25803.2     38.621    84.605
26178.5     38.345    83.669
26559.3     39.666    78.850
26945.6     40.313    61.984
27337.5     38.778    46.361
27735.2     36.136    46.316
28138.6     35.667    56.666
28547.9     35.934    57.457
28963.1     36.182    58.504
29384.4     35.714    50.602
29811.8     34.083    46.198
30245.4     32.882    44.579
30685.3     30.165    50.494
31131.7     31.050    50.477
31584.5     30.995    21.737
32043.9     28.757   -16.399
32510.0     28.757   -71.901
32982.8     27.091  -121.233
33462.6     23.554  -140.440
33949.3     20.767  -123.545
34443.1     23.066  -103.615
34944.1     22.877  -103.379
35452.4     23.788   -92.326
35968.0     25.247   -88.510
36491.2     25.853  -103.935
37022.0     22.103  -115.442
37560.5     21.726  -113.377
38106.8     20.235  -135.475
38661.1     17.475   -25.868
39223.4     17.071  -102.432
39793.9     17.529   -12.226
